LabVIEW Measurement,
Writer_Version,2
Reader_Version,2
Separator,Comma
Decimal_Separator,.
Multi_Headings,No
X_Columns,Multi
Time_Pref,Absolute
Operator,Dymnz
Date,2017/09/16
Time,11:52:52.4931752833531155619
***End_of_Header***,
,
Channels,1,
Samples,1000,
Date,2017/09/16,
Time,11:52:52.4931752833531155619,
Y_Unit_Label,Volts,
X_Dimension,Time,
X0,0.0000000000000000E+0,
Delta_X,0.001000,
***End_of_Header***,,
X_Value,Voltage,Comment
0.000000,-0.050762
0.001000,0.185984
0.002000,-0.307874
0.003000,-0.978655
0.004000,-1.538700
0.005000,-1.971463
0.006000,-2.209482
0.007000,-2.363494
0.008000,-2.100018
0.009000,-1.529791
0.010000,-1.405053
0.011000,-1.450875
0.012000,-1.217947
0.013000,-0.494980
0.014000,0.058701
0.015000,-0.024033
0.016000,-0.492434
0.017000,-1.037205
0.018000,-1.000293
0.019000,-1.276497
0.020000,-1.795812
0.021000,-2.246394
0.022000,-2.639698
0.023000,-2.824259
0.024000,-2.331673
0.025000,-1.626526
0.026000,-1.187399
0.027000,-1.025750
0.028000,0.365453
0.029000,1.176246
0.030000,0.438005
0.031000,-0.824643
0.032000,-1.705441
0.033000,-2.161114
0.034000,-2.713522
0.035000,-2.534053
0.036000,-2.383860
0.037000,-2.718614
0.038000,-3.036821
0.039000,-3.217563
0.040000,-3.353756
0.041000,-3.603231
0.042000,-3.276113
0.043000,-2.579875
0.044000,-2.205663
0.045000,-1.718169
0.046000,-1.307045
0.047000,-0.752091
0.048000,-0.745727
0.049000,-0.963381
0.050000,-1.117394
0.051000,-1.223039
0.052000,-1.267588
0.053000,-1.195036
0.054000,-1.133940
0.055000,-1.172125
0.056000,-1.150487
0.057000,-1.057571
0.058000,-1.060116
0.059000,-1.009203
0.060000,-0.909922
0.061000,-0.923924
0.062000,-1.075390
0.063000,-1.223039
0.064000,-1.291771
0.065000,-0.521709
0.066000,-0.307874
0.067000,-0.598079
0.068000,-0.839917
0.069000,-1.163216
0.070000,-1.556520
0.071000,-1.705441
0.072000,-1.621434
0.073000,-0.875556
0.074000,-0.721544
0.075000,-0.869192
0.076000,-1.151760
0.077000,-1.500516
0.078000,-1.435601
0.079000,-0.566258
0.080000,0.241989
0.081000,0.090522
0.082000,1.102422
0.083000,2.218694
0.084000,3.560257
0.085000,2.451622
0.086000,0.411275
0.087000,-1.800903
0.088000,-4.001626
0.089000,-5.618121
0.090000,-6.935500
0.091000,-7.524820
0.092000,-7.509546
0.093000,-6.924044
0.094000,-5.842139
0.095000,-3.456855
0.096000,-1.016840
0.097000,-0.288781
0.098000,-0.483524
0.099000,-0.987565
0.100000,-1.570521
0.101000,-2.089836
0.102000,-2.446228
0.103000,-2.372404
0.104000,-2.275669
0.105000,-2.227301
0.106000,-2.101291
0.107000,-1.637981
0.108000,-1.146669
0.109000,-0.906104
0.110000,-0.557348
0.111000,-0.268416
0.112000,-0.456795
0.113000,-0.735545
0.114000,-1.047388
0.115000,-1.150487
0.116000,-1.175944
0.117000,-1.228130
0.118000,-1.296863
0.119000,-1.359231
0.120000,-1.287953
0.121000,-1.186127
0.122000,-0.934106
0.123000,-0.463159
0.124000,-0.175499
0.125000,0.432913
0.126000,0.520739
0.127000,-0.069855
0.128000,-0.032943
0.129000,-0.298964
0.130000,-0.880647
0.131000,-1.686349
0.132000,-2.329128
0.133000,-2.835714
0.134000,-3.176833
0.135000,-3.313025
0.136000,-3.201016
0.137000,-2.992272
0.138000,-2.630789
0.139000,-2.247667
0.140000,-1.977827
0.141000,-1.650709
0.142000,-1.169580
0.143000,-0.722816
0.144000,-0.587896
0.145000,-0.531892
0.146000,-0.077492
0.147000,0.119797
0.148000,-0.123313
0.149000,-0.506435
0.150000,-1.080482
0.151000,-1.569248
0.152000,-1.399962
0.153000,-1.091937
0.154000,-0.562440
0.155000,-0.446612
0.156000,-0.755910
0.157000,-1.469968
0.158000,-2.316400
0.159000,-2.941359
0.160000,-3.062278
0.161000,-2.976998
0.162000,-2.653699
0.163000,-1.013022
0.164000,0.868221
0.165000,1.647193
0.166000,1.200430
0.167000,1.715926
0.168000,0.931863
0.169000,-0.620990
0.170000,-2.038923
0.171000,-3.179378
0.172000,-4.237100
0.173000,-5.063167
0.174000,-4.750050
0.175000,-4.253647
0.176000,-3.907437
0.177000,-3.755970
0.178000,-3.352483
0.179000,-0.316784
0.180000,0.471098
0.181000,0.026880
0.182000,-0.580259
0.183000,-1.567976
0.184000,-2.686793
0.185000,-3.580320
0.186000,-3.837431
0.187000,-3.675782
0.188000,-3.432671
0.189000,-2.971907
0.190000,-2.360949
0.191000,-1.846725
0.192000,-1.592159
0.193000,-1.252314
0.194000,-0.690996
0.195000,-0.738090
0.196000,-0.445339
0.197000,0.005242
0.198000,-0.035488
0.199000,0.147799
0.200000,0.057428
0.201000,0.318359
0.202000,0.003970
0.203000,-0.673176
0.204000,-1.267588
0.205000,-1.765264
0.206000,-0.431338
0.207000,-0.176772
0.208000,-0.548439
0.209000,-1.038478
0.210000,-1.613797
0.211000,-2.237484
0.212000,-2.880263
0.213000,-2.243848
0.214000,-1.583249
0.215000,-1.473786
0.216000,-0.796641
0.217000,-1.005385
0.218000,-1.332502
0.219000,-1.685076
0.220000,-2.256577
0.221000,-2.628243
0.222000,-2.675338
0.223000,-2.462775
0.224000,-2.298580
0.225000,-2.205663
0.226000,-1.562884
0.227000,-1.379597
0.228000,-1.467422
0.229000,-1.550156
0.230000,-1.284134
0.231000,-0.680813
0.232000,0.081612
0.233000,0.189803
0.234000,-0.264598
0.235000,-0.988838
0.236000,-1.737262
0.237000,-2.494596
0.238000,-2.990999
0.239000,-3.122101
0.240000,-2.920994
0.241000,-2.578603
0.242000,-2.044014
0.243000,-1.262496
0.244000,-0.609535
0.245000,-0.422429
0.246000,-0.470796
0.247000,-0.767365
0.248000,-0.946834
0.249000,-1.267588
0.250000,-1.748717
0.251000,-1.953643
0.252000,-2.063106
0.253000,-2.040195
0.254000,-1.579431
0.255000,-0.277326
0.256000,-0.148770
0.257000,-0.346059
0.258000,-0.697360
0.259000,-1.287953
0.260000,-1.312137
0.261000,-1.705441
0.262000,-2.024921
0.263000,-2.145840
0.264000,-2.144567
0.265000,-2.176388
0.266000,-2.418226
0.267000,-2.481867
0.268000,-1.832724
0.269000,-1.104665
0.270000,-0.385516
0.271000,0.949682
0.272000,1.145698
0.273000,0.502919
0.274000,0.491463
0.275000,-0.218776
0.276000,-1.275225
0.277000,-2.227301
0.278000,-3.188288
0.279000,-3.889617
0.280000,-4.482756
0.281000,-4.392385
0.282000,-3.780154
0.283000,-3.397032
0.284000,-2.820440
0.285000,-2.287124
0.286000,-1.988009
0.287000,-1.878546
0.288000,-1.805995
0.289000,-1.032114
0.290000,-0.716452
0.291000,-0.790276
0.292000,-0.915014
0.293000,-1.062662
0.294000,-1.341412
0.295000,-1.583249
0.296000,-1.345230
0.297000,-0.562440
0.298000,-0.078764
0.299000,-0.358787
0.300000,-0.806823
0.301000,-1.310864
0.302000,-1.786902
0.303000,-2.051651
0.304000,-2.038923
0.305000,-2.013466
0.306000,-1.854362
0.307000,-1.501788
0.308000,-1.252314
0.309000,-1.238313
0.310000,-0.927742
0.311000,0.241989
0.312000,0.494009
0.313000,0.082885
0.314000,-0.410973
0.315000,-1.086846
0.316000,-1.831451
0.317000,-2.335492
0.318000,-2.830623
0.319000,-2.928631
0.320000,-2.807712
0.321000,-2.471685
0.322000,-2.205663
0.323000,-1.901457
0.324000,-1.617616
0.325000,-1.613797
0.326000,-0.642628
0.327000,0.323450
0.328000,0.230533
0.329000,-0.175499
0.330000,-0.972291
0.331000,-1.434328
0.332000,-1.938369
0.333000,-2.214573
0.334000,-2.404225
0.335000,-2.223483
0.336000,-1.130122
0.337000,-0.617172
0.338000,-0.578987
0.339000,-0.605716
0.340000,-0.995202
0.341000,-1.713078
0.342000,-1.761446
0.343000,-1.164488
0.344000,-0.282417
0.345000,-0.380425
0.346000,0.119797
0.347000,0.024335
0.348000,-0.514072
0.349000,-1.352867
0.350000,-2.315127
0.351000,-3.360120
0.352000,-4.296923
0.353000,-4.755142
0.354000,-4.686409
0.355000,-4.232009
0.356000,-3.719058
0.357000,-3.274841
0.358000,-2.831896
0.359000,-2.516234
0.360000,-2.237484
0.361000,-1.919277
0.362000,-1.606160
0.363000,-1.265042
0.364000,-1.032114
0.365000,-0.134769
0.366000,0.338724
0.367000,0.768940
0.368000,0.370545
0.369000,-0.138587
0.370000,0.560196
0.371000,0.569106
0.372000,0.788033
0.373000,0.199985
0.374000,-0.615899
0.375000,-1.490333
0.376000,-2.206936
0.377000,-2.709704
0.378000,-3.118282
0.379000,-3.171741
0.380000,-2.885355
0.381000,-1.946006
0.382000,-1.262496
0.383000,-0.907377
0.384000,-1.066480
0.385000,-1.543792
0.386000,-2.002011
0.387000,-2.350766
0.388000,-2.410589
0.389000,-2.306217
0.390000,-2.162387
0.391000,-2.077107
0.392000,-1.802176
0.393000,-1.398689
0.394000,-0.119495
0.395000,0.738392
0.396000,0.258536
0.397000,-0.427520
0.398000,-1.097028
0.399000,-1.261223
0.400000,-1.590886
0.401000,-1.798358
0.402000,-1.251041
0.403000,-1.047388
0.404000,-0.609535
0.405000,-0.487343
0.406000,-0.959563
0.407000,-1.752536
0.408000,-2.376223
0.409000,-2.934995
0.410000,-2.964270
0.411000,-2.806439
0.412000,-2.385132
0.413000,-2.238757
0.414000,-2.156023
0.415000,-2.194208
0.416000,-1.263769
0.417000,-1.158124
0.418000,-1.117394
0.419000,-1.210310
0.420000,-1.433056
0.421000,-1.425419
0.422000,-1.702895
0.423000,-2.033831
0.424000,-2.262941
0.425000,-2.427136
0.426000,-2.562056
0.427000,-2.186571
0.428000,-1.513244
0.429000,-0.601898
0.430000,-0.124586
0.431000,0.211441
0.432000,-0.255688
0.433000,-0.888284
0.434000,-0.927742
0.435000,-0.811914
0.436000,-1.433056
0.437000,-2.052924
0.438000,-2.363494
0.439000,-2.222210
0.440000,-2.278215
0.441000,-2.327855
0.442000,-2.173843
0.443000,-1.612525
0.444000,-1.313410
0.445000,-1.168307
0.446000,-1.028296
0.447000,-0.925196
0.448000,-0.696087
0.449000,-0.939197
0.450000,-1.200128
0.451000,-1.607433
0.452000,-1.631617
0.453000,-0.650265
0.454000,-0.017669
0.455000,0.017971
0.456000,0.076521
0.457000,-0.376607
0.458000,-1.287953
0.459000,-2.110201
0.460000,-2.703340
0.461000,-3.095371
0.462000,-3.147558
0.463000,-3.016456
0.464000,-2.278215
0.465000,-1.741080
0.466000,-1.137759
0.467000,-0.748273
0.468000,-0.750819
0.469000,-1.090664
0.470000,-1.658346
0.471000,-2.108928
0.472000,-2.205663
0.473000,-2.352039
0.474000,-2.304944
0.475000,-2.186571
0.476000,-1.112302
0.477000,0.093068
0.478000,2.240332
0.479000,2.456713
0.480000,1.787204
0.481000,0.802034
0.482000,0.133798
0.483000,-1.391052
0.484000,-2.876445
0.485000,-4.121272
0.486000,-4.831512
0.487000,-4.646951
0.488000,-4.533669
0.489000,-4.034720
0.490000,-3.787791
0.491000,-3.362666
0.492000,-2.116565
0.493000,-1.556520
0.494000,-1.324865
0.495000,-1.235767
0.496000,-1.336320
0.497000,-1.650709
0.498000,-1.900184
0.499000,-1.287953
0.500000,-1.084300
0.501000,-1.085573
0.502000,-1.201400
0.503000,-1.565430
0.504000,-1.672348
0.505000,-1.630344
0.506000,-1.472513
0.507000,-0.833553
0.508000,-0.610807
0.509000,-0.010032
0.510000,-0.072400
0.511000,-0.437702
0.512000,-1.018113
0.513000,-1.557793
0.514000,-1.849271
0.515000,-1.963826
0.516000,-2.098746
0.517000,-2.177661
0.518000,-2.120384
0.519000,-2.004556
0.520000,-1.770355
0.521000,-1.487787
0.522000,-1.364323
0.523000,-1.091937
0.524000,-0.806823
0.525000,-0.735545
0.526000,-0.441521
0.527000,-0.549712
0.528000,-0.804278
0.529000,-1.035933
0.530000,-1.448329
0.531000,-1.668529
0.532000,-1.524699
0.533000,-1.209037
0.534000,-1.010476
0.535000,-0.978655
0.536000,-0.874283
0.537000,-0.642628
0.538000,0.295448
0.539000,0.541104
0.540000,0.157982
0.541000,-0.171681
0.542000,-0.580259
0.543000,-1.477605
0.544000,-2.825532
0.545000,-3.614686
0.546000,-3.936712
0.547000,-3.786518
0.548000,-3.740696
0.549000,-3.678328
0.550000,-3.363939
0.551000,-2.772073
0.552000,-2.498414
0.553000,-2.325309
0.554000,-1.890001
0.555000,-0.847554
0.556000,0.408729
0.557000,0.446914
0.558000,0.089249
0.559000,-0.450431
0.560000,-1.191218
0.561000,-1.556520
0.562000,-1.853089
0.563000,-2.047832
0.564000,-2.097473
0.565000,-2.010920
0.566000,-1.884910
0.567000,-1.463603
0.568000,-1.407599
0.569000,-1.620162
0.570000,-1.664711
0.571000,-1.805995
0.572000,-1.929459
0.573000,-1.915458
0.574000,-1.881092
0.575000,-1.859454
0.576000,-1.761446
0.577000,-0.772457
0.578000,-0.287509
0.579000,0.597108
0.580000,1.918306
0.581000,1.737564
0.582000,0.598381
0.583000,-0.755910
0.584000,-1.974008
0.585000,-3.082643
0.586000,-3.839977
0.587000,-3.958350
0.588000,-3.856524
0.589000,-3.431399
0.590000,-2.936268
0.591000,-2.534053
0.592000,-2.352039
0.593000,-2.003283
0.594000,-1.244677
0.595000,1.162245
0.596000,2.218694
0.597000,2.001040
0.598000,1.234796
0.599000,0.289083
0.600000,-1.301954
0.601000,-3.243020
0.602000,-4.425479
0.603000,-4.862060
0.604000,-4.755142
0.605000,-4.238373
0.606000,-3.302843
0.607000,-2.493323
0.608000,-1.921822
0.609000,-1.653255
0.610000,-0.810642
0.611000,0.809671
0.612000,1.317530
0.613000,0.872040
0.614000,0.474917
0.615000,-0.370242
0.616000,-1.654528
0.617000,-2.553146
0.618000,-2.807712
0.619000,-2.850988
0.620000,-2.866262
0.621000,-2.632061
0.622000,-2.334219
0.623000,-2.192935
0.624000,-1.859454
0.625000,-1.524699
0.626000,-0.002395
0.627000,1.300983
0.628000,1.555549
0.629000,1.125333
0.630000,0.212714
0.631000,-1.058844
0.632000,-2.214573
0.633000,-2.918448
0.634000,-3.215018
0.635000,-3.108100
0.636000,-2.670246
0.637000,-2.324037
0.638000,-2.163660
0.639000,-2.242575
0.640000,-2.120384
0.641000,-0.927742
0.642000,-0.598079
0.643000,-0.738090
0.644000,-0.885739
0.645000,-1.076663
0.646000,-1.769083
0.647000,-2.406770
0.648000,-2.702067
0.649000,-2.777164
0.650000,-2.630789
0.651000,-1.901457
0.652000,-1.240858
0.653000,-0.873010
0.654000,-0.374061
0.655000,-0.060945
0.656000,-0.311692
0.657000,-0.927742
0.658000,-1.476332
0.659000,-1.966371
0.660000,-2.313854
0.661000,-2.378768
0.662000,-2.368586
0.663000,-2.206936
0.664000,-2.084744
0.665000,-1.784357
0.666000,-0.893376
0.667000,-0.222594
0.668000,-0.192046
0.669000,-0.396972
0.670000,-0.894648
0.671000,0.572925
0.672000,0.767668
0.673000,-0.022760
0.674000,-0.939197
0.675000,-1.859454
0.676000,-2.555692
0.677000,-3.052095
0.678000,-3.131011
0.679000,-3.120828
0.680000,-3.036821
0.681000,-2.774618
0.682000,-2.344402
0.683000,-2.023649
0.684000,-1.658346
0.685000,-1.256132
0.686000,-0.999020
0.687000,-0.895921
0.688000,-0.374061
0.689000,0.071430
0.690000,1.344260
0.691000,2.720189
0.692000,2.745645
0.693000,1.374807
0.694000,-0.304055
0.695000,-1.974008
0.696000,-3.376667
0.697000,-4.554035
0.698000,-5.117898
0.699000,-5.210815
0.700000,-5.026255
0.701000,-4.570581
0.702000,-3.589230
0.703000,-1.508152
0.704000,-0.613353
0.705000,-0.358787
0.706000,-0.482252
0.707000,-0.866646
0.708000,-0.743182
0.709000,-1.291771
0.710000,-1.812359
0.711000,-2.297307
0.712000,-2.660064
0.713000,-2.544236
0.714000,-2.009648
0.715000,-1.343957
0.716000,-1.317228
0.717000,-1.553974
0.718000,-1.785629
0.719000,-2.052924
0.720000,-2.125475
0.721000,-2.046560
0.722000,-1.819996
0.723000,-1.646891
0.724000,-1.072845
0.725000,-0.819551
0.726000,-0.860282
0.727000,-1.069026
0.728000,-1.327411
0.729000,-1.459785
0.730000,-1.183581
0.731000,-0.650265
0.732000,-0.697360
0.733000,-0.852645
0.734000,-1.109757
0.735000,-1.373233
0.736000,-1.443238
0.737000,-1.471240
0.738000,-1.490333
0.739000,-1.356686
0.740000,-1.275225
0.741000,-1.041024
0.742000,-0.979928
0.743000,-0.993929
0.744000,-1.056298
0.745000,-1.111030
0.746000,-0.365151
0.747000,0.185984
0.748000,0.222896
0.749000,-0.124586
0.750000,1.009505
0.751000,1.824116
0.752000,1.458814
0.753000,0.687479
0.754000,-0.472069
0.755000,-1.784357
0.756000,-2.990999
0.757000,-4.270194
0.758000,-5.192995
0.759000,-5.737767
0.760000,-5.768314
0.761000,-5.324097
0.762000,-4.587128
0.763000,-3.881980
0.764000,-3.366484
0.765000,-2.572238
0.766000,-1.860726
0.767000,-1.509425
0.768000,-1.322319
0.769000,-1.062662
0.770000,-0.979928
0.771000,-1.165761
0.772000,-0.897194
0.773000,-0.407155
0.774000,-0.214957
0.775000,0.140162
0.776000,0.282719
0.777000,1.246252
0.778000,1.336623
0.779000,0.334905
0.780000,-0.654084
0.781000,-1.533609
0.782000,-2.251485
0.783000,-2.870081
0.784000,-2.903174
0.785000,-2.803893
0.786000,-2.644790
0.787000,-2.270578
0.788000,-1.517062
0.789000,-1.279043
0.790000,-1.566703
0.791000,-1.611252
0.792000,0.523284
0.793000,1.759202
0.794000,1.931034
0.795000,1.859756
0.796000,0.860584
0.797000,-0.916287
0.798000,-2.873899
0.799000,-4.265102
0.800000,-5.050438
0.801000,-5.243909
0.802000,-4.918064
0.803000,-4.480211
0.804000,-3.783973
0.805000,-3.295206
0.806000,-2.871353
0.807000,-2.238757
0.808000,-1.599796
0.809000,-0.692268
0.810000,-0.200956
0.811000,0.016698
0.812000,0.029426
0.813000,-0.370242
0.814000,-1.004112
0.815000,-1.575612
0.816000,-1.965098
0.817000,-1.868363
0.818000,-0.841190
0.819000,-0.484797
0.820000,-0.151316
0.821000,-0.203502
0.822000,-0.603170
0.823000,-1.133940
0.824000,-1.816177
0.825000,-2.227301
0.826000,-2.355857
0.827000,-1.786902
0.828000,-1.503061
0.829000,-1.019386
0.830000,-0.115676
0.831000,-0.190773
0.832000,-0.050762
0.833000,-0.092766
0.834000,-0.860282
0.835000,-1.481423
0.836000,-1.811086
0.837000,-2.070743
0.838000,-2.326582
0.839000,-2.471685
0.840000,-2.601513
0.841000,-2.629516
0.842000,-2.386405
0.843000,-2.201845
0.844000,-2.086017
0.845000,-2.077107
0.846000,-1.937096
0.847000,-1.371960
0.848000,-0.598079
0.849000,0.054883
0.850000,0.648022
0.851000,0.353998
0.852000,0.240716
0.853000,0.273809
0.854000,-0.043125
0.855000,-1.206492
0.856000,-2.275669
0.857000,-2.962997
0.858000,-3.427580
0.859000,-3.589230
0.860000,-3.624869
0.861000,-3.596867
0.862000,-3.450491
0.863000,-3.103008
0.864000,-2.136931
0.865000,-1.108484
0.866000,0.712936
0.867000,1.812661
0.868000,2.312883
0.869000,1.677741
0.870000,0.348906
0.871000,-0.986292
0.872000,-2.102564
0.873000,-3.198471
0.874000,-4.049994
0.875000,-4.420388
0.876000,-4.360564
0.877000,-4.001626
0.878000,-3.593048
0.879000,-3.237928
0.880000,-2.666428
0.881000,-2.144567
0.882000,-1.557793
0.883000,-1.315955
0.884000,-1.229403
0.885000,-1.195036
0.886000,-0.651538
0.887000,0.618746
0.888000,1.525001
0.889000,1.656103
0.890000,0.971320
0.891000,-0.029124
0.892000,-1.133940
0.893000,-1.988009
0.894000,-2.653699
0.895000,-3.002455
0.896000,-3.153922
0.897000,-2.917175
0.898000,-2.542963
0.899000,-2.092381
0.900000,-1.797085
0.901000,-1.734716
0.902000,-1.415236
0.903000,-1.122485
0.904000,-0.922651
0.905000,-0.235323
0.906000,0.112160
0.907000,0.514374
0.908000,0.294175
0.909000,-0.347332
0.910000,-1.051207
0.911000,-1.524699
0.912000,-1.688894
0.913000,-2.041468
0.914000,-2.331673
0.915000,-2.354584
0.916000,-2.336765
0.917000,-2.061834
0.918000,-2.105110
0.919000,-2.116565
0.920000,-1.504334
0.921000,-1.361777
0.922000,-1.030841
0.923000,-0.363878
0.924000,-0.708815
0.925000,-0.852645
0.926000,-1.233221
0.927000,-1.615070
0.928000,-2.065652
0.929000,-2.478049
0.930000,-2.676610
0.931000,-2.811530
0.932000,-2.822986
0.933000,-2.775891
0.934000,-2.509870
0.935000,-2.068198
0.936000,-1.813632
0.937000,-0.652811
0.938000,1.437176
0.939000,4.265404
0.940000,5.181842
0.941000,4.018475
0.942000,1.903032
0.943000,0.129980
0.944000,-1.876000
0.945000,-3.851432
0.946000,-5.355918
0.947000,-6.180711
0.948000,-6.351271
0.949000,-6.208714
0.950000,-5.778497
0.951000,-5.163720
0.952000,-4.431843
0.953000,-3.647780
0.954000,-2.891719
0.955000,-1.915458
0.956000,-1.328683
0.957000,-0.539529
0.958000,0.254717
0.959000,0.334905
0.960000,0.152891
0.961000,-0.206047
0.962000,-0.656629
0.963000,-1.077936
0.964000,-1.391052
0.965000,-1.697804
0.966000,-1.741080
0.967000,-1.672348
0.968000,-1.393598
0.969000,-1.209037
0.970000,-1.067753
0.971000,-0.887011
0.972000,-0.954471
0.973000,-0.764820
0.974000,-0.038034
0.975000,-0.094038
0.976000,-0.511527
0.977000,-0.960836
0.978000,-1.069026
0.979000,-1.154306
0.980000,-1.412690
0.981000,-1.609979
0.982000,-1.662165
0.983000,-1.926914
0.984000,-1.001566
0.985000,0.614928
0.986000,0.790578
0.987000,0.145254
0.988000,-0.898467
0.989000,-1.990555
0.990000,-3.104281
0.991000,-3.589230
0.992000,-3.633779
0.993000,-3.469584
0.994000,-3.150103
0.995000,-2.602786
0.996000,-2.293489
0.997000,-2.282033
0.998000,-2.280760
0.999000,-1.149214
1.000000,-0.274780
1.001000,0.240716
1.002000,0.193621
1.003000,-0.295146
1.004000,-0.852645
1.005000,-1.015567
1.006000,-1.383415
1.007000,-1.929459
1.008000,-2.257849
1.009000,-2.464048
1.010000,-2.401679
1.011000,-1.733443
1.012000,-0.936652
1.013000,-0.484797
1.014000,-0.413519
1.015000,-0.385516
1.016000,-0.427520
1.017000,-0.510254
1.018000,-1.028296
1.019000,-1.415236
1.020000,-1.934551
1.021000,-2.341856
1.022000,-2.442410
1.023000,-2.660064
1.024000,-2.819167
1.025000,-2.899356
1.026000,-2.948996
1.027000,-2.898083
1.028000,-2.784801
1.029000,-1.657074
1.030000,0.278901
1.031000,0.996777
1.032000,1.112604
1.033000,0.823672
1.034000,0.014152
1.035000,-1.071572
1.036000,-2.186571
1.037000,-2.545509
1.038000,-2.700794
1.039000,-2.942632
1.040000,-2.853534
1.041000,-2.550600
1.042000,-2.338038
1.043000,-2.264214
1.044000,-2.289670
1.045000,-2.348220
1.046000,-1.849271
1.047000,-1.019386
1.048000,-0.641355
1.049000,-0.390608
1.050000,-0.563713
1.051000,-1.076663
1.052000,-1.490333
1.053000,-1.678712
1.054000,-2.156023
1.055000,-2.252758
1.056000,-2.237484
1.057000,-2.056742
1.058000,-1.844180
1.059000,-1.676166
1.060000,-1.584522
1.061000,-1.304500
1.062000,-1.069026
1.063000,-0.934106
1.064000,-0.283690
1.065000,-0.124586
1.066000,-0.372788
1.067000,-0.279872
1.068000,-0.104221
1.069000,-0.147497
1.070000,-0.274780
1.071000,-0.619717
1.072000,-1.331229
1.073000,-2.145840
1.074000,-2.290943
1.075000,-1.657074
1.076000,-1.324865
1.077000,-1.500516
1.078000,-1.608706
1.079000,-1.445784
1.080000,-1.508152
1.081000,-1.552702
1.082000,-2.341856
1.083000,-2.682975
1.084000,-2.469139
1.085000,-2.397861
1.086000,-2.465321
1.087000,-2.467866
1.088000,-2.626970
1.089000,-2.618060
1.090000,-2.591331
1.091000,-2.712250
1.092000,-2.511143
1.093000,-1.921822
1.094000,-0.367697
1.095000,0.664568
1.096000,0.793124
1.097000,0.374363
1.098000,0.038336
1.099000,-0.806823
1.100000,-1.744899
1.101000,-2.558237
1.102000,-2.975725
1.103000,-2.825532
1.104000,-2.511143
1.105000,-2.140749
1.106000,-0.169135
1.107000,0.837673
1.108000,2.255606
1.109000,1.984493
1.110000,0.953501
1.111000,-0.377879
1.112000,-2.056742
1.113000,-3.423762
1.114000,-4.347836
1.115000,-4.699137
1.116000,-4.601129
1.117000,-4.132728
1.118000,-3.553590
1.119000,-3.001182
1.120000,-2.632061
1.121000,-1.761446
1.122000,-1.132668
1.123000,-0.786458
1.124000,-0.624808
1.125000,-0.661721
1.126000,-0.958290
1.127000,-1.347776
1.128000,-1.528518
1.129000,-1.699077
1.130000,-1.766537
1.131000,-1.212856
1.132000,-0.808096
1.133000,-0.385516
1.134000,-0.015123
1.135000,-0.189501
1.136000,0.066338
1.137000,-0.489889
1.138000,-1.293044
1.139000,-2.061834
1.140000,-2.651154
1.141000,-2.825532
1.142000,-2.866262
1.143000,-2.657518
1.144000,-1.982918
1.145000,-1.449602
1.146000,-1.100847
1.147000,-0.893376
1.148000,-0.836098
1.149000,0.028153
1.150000,0.455824
1.151000,0.575470
1.152000,0.774032
1.153000,0.359089
1.154000,-0.648992
1.155000,-1.511971
1.156000,-1.804722
1.157000,-2.444955
1.158000,-3.011365
1.159000,-3.341028
1.160000,-3.544680
1.161000,-3.637597
1.162000,-3.544680
1.163000,-3.334664
1.164000,-2.985908
1.165000,-2.466593
1.166000,-0.689723
1.167000,1.136788
1.168000,1.535184
1.169000,1.731200
1.170000,0.947137
1.171000,-0.273507
1.172000,-1.705441
1.173000,-2.831896
1.174000,-3.407215
1.175000,-3.601958
1.176000,-3.475948
1.177000,-2.736433
1.178000,-2.122929
1.179000,-2.044014
1.180000,-2.009648
1.181000,-1.369414
1.182000,-1.083027
1.183000,-1.361777
1.184000,-1.608706
1.185000,-1.734716
1.186000,-1.580704
1.187000,-1.420327
1.188000,-1.463603
1.189000,-1.436874
1.190000,-0.917559
1.191000,-0.799186
1.192000,-0.926469
1.193000,-1.239585
1.194000,-1.303227
1.195000,-1.435601
1.196000,-1.649437
1.197000,-1.476332
1.198000,-1.155579
1.199000,-1.075390
1.200000,-1.013022
1.201000,-1.061389
1.202000,-1.257405
1.203000,-1.621434
1.204000,-1.929459
1.205000,-2.003283
1.206000,-1.988009
1.207000,-1.914185
1.208000,-1.664711
1.209000,-1.259951
1.210000,-0.629900
1.211000,0.510556
1.212000,1.314984
1.213000,0.942045
1.214000,0.048519
1.215000,-1.083027
1.216000,-2.217119
1.217000,-3.082643
1.218000,-3.534498
1.219000,-3.646507
1.220000,-3.388122
1.221000,-3.077552
1.222000,-2.742798
1.223000,-2.383860
1.224000,-2.240030
1.225000,-2.016012
1.226000,-1.583249
1.227000,-1.108484
1.228000,-0.755910
1.229000,0.086703
1.230000,-0.011304
1.231000,1.171155
1.232000,2.330703
1.233000,1.593734
1.234000,0.463461
1.235000,0.132525
1.236000,0.169437
1.237000,0.398547
1.238000,-0.939197
1.239000,-2.366040
1.240000,-3.635051
1.241000,-4.578218
1.242000,-5.170084
1.243000,-5.209542
1.244000,-5.097533
1.245000,-4.743686
1.246000,-4.215462
1.247000,-3.607049
1.248000,-2.933722
1.249000,-2.483140
1.250000,-2.182752
1.251000,-1.777992
1.252000,-1.164488
1.253000,-0.944289
1.254000,-0.976110
1.255000,-0.927742
1.256000,-0.930288
1.257000,-0.935379
1.258000,-0.951926
1.259000,0.178347
1.260000,1.677741
1.261000,3.252232
1.262000,3.743544
1.263000,2.550902
1.264000,0.705299
1.265000,-1.645618
1.266000,-3.626142
1.267000,-4.793327
1.268000,-5.119171
1.269000,-4.804782
1.270000,-4.233281
1.271000,-3.567591
1.272000,-2.980817
1.273000,-2.808985
1.274000,-2.649881
1.275000,-2.252758
1.276000,-1.632890
1.277000,-1.053752
1.278000,-0.538256
1.279000,-0.352423
1.280000,-0.432611
1.281000,-0.673176
1.282000,-0.837371
1.283000,-0.493707
1.284000,-0.347332
1.285000,-0.376607
1.286000,-0.673176
1.287000,-1.071572
1.288000,-1.417782
1.289000,-1.627799
1.290000,-1.779265
1.291000,-1.763991
1.292000,-1.719442
1.293000,-1.323592
1.294000,0.080339
1.295000,1.365898
1.296000,1.103695
1.297000,0.203804
1.298000,0.231806
1.299000,-0.273507
1.300000,-1.550156
1.301000,-2.915902
1.302000,-3.678328
1.303000,-4.154366
1.304000,-4.193824
1.305000,-3.352483
1.306000,-2.742798
1.307000,-1.967644
1.308000,-1.645618
1.309000,-1.434328
1.310000,-1.514517
1.311000,-1.774174
1.312000,-1.937096
1.313000,-1.915458
1.314000,-1.753809
1.315000,-1.630344
1.316000,-1.634163
1.317000,-1.578158
1.318000,-1.548883
1.319000,-0.843735
1.320000,-0.407155
1.321000,-0.549712
1.322000,-0.845008
1.323000,-1.318501
1.324000,-1.732171
1.325000,-1.523426
1.326000,-1.240858
1.327000,-0.580259
1.328000,-0.511527
1.329000,-0.576441
1.330000,-0.909922
1.331000,-1.038478
1.332000,-0.818279
1.333000,-1.015567
1.334000,-1.137759
1.335000,-1.312137
1.336000,-1.830178
1.337000,-2.492050
1.338000,-2.973180
1.339000,-3.250657
1.340000,-3.348665
1.341000,-2.992272
1.342000,-2.354584
1.343000,-2.016012
1.344000,-1.807268
1.345000,-1.682530
1.346000,-1.427964
1.347000,-0.487343
1.348000,0.334905
1.349000,0.874585
1.350000,0.614928
1.351000,0.061247
1.352000,-0.620990
1.353000,-0.982474
1.354000,-1.298136
1.355000,-1.517062
1.356000,-1.545065
1.357000,-1.029568
1.358000,-1.187399
1.359000,-1.420327
1.360000,-1.732171
1.361000,-2.094927
1.362000,-2.539145
1.363000,-3.136102
1.364000,-3.520497
1.365000,-3.529407
1.366000,-3.450491
1.367000,-3.291387
1.368000,-3.104281
1.369000,-3.013910
1.370000,-2.803893
1.371000,-2.605332
1.372000,-1.655801
1.373000,-1.007930
1.374000,-0.775002
1.375000,-0.147497
1.376000,-0.073673
1.377000,-0.146224
1.378000,-0.461886
1.379000,-0.620990
1.380000,-0.461886
1.381000,-0.817006
1.382000,-1.181035
1.383000,-1.363050
1.384000,-1.188672
1.385000,-0.832280
1.386000,-0.985019
1.387000,-1.291771
1.388000,-1.667256
1.389000,-1.982918
1.390000,-2.371131
1.391000,-2.536599
1.392000,-2.555692
1.393000,-2.301126
1.394000,-2.028740
1.395000,-1.761446
1.396000,-1.500516
1.397000,-1.441965
1.398000,-1.402508
1.399000,-1.198855
1.400000,-1.013022
1.401000,-1.028296
1.402000,-0.632445
1.403000,0.040882
1.404000,0.714209
1.405000,0.397274
1.406000,-0.300237
1.407000,-1.090664
1.408000,-1.427964
1.409000,-1.607433
1.410000,-1.817450
1.411000,-1.179762
1.412000,-1.065208
1.413000,-1.225584
1.414000,-0.687177
1.415000,-1.038478
1.416000,-1.387234
1.417000,-1.239585
1.418000,-1.595978
1.419000,-2.297307
1.420000,-3.100463
1.421000,-3.458128
1.422000,-3.372848
1.423000,-3.127192
1.424000,-2.413135
1.425000,-1.305773
1.426000,-0.920105
1.427000,-1.249768
1.428000,-1.584522
1.429000,-1.856908
1.430000,-2.402952
1.431000,-2.717341
1.432000,-3.008819
1.433000,-2.867535
1.434000,-2.497141
1.435000,-1.933278
1.436000,-1.527245
1.437000,-1.412690
1.438000,-1.338866
1.439000,-0.832280
1.440000,-0.072400
1.441000,0.198713
1.442000,0.683661
1.443000,0.485099
1.444000,-0.152589
1.445000,-0.813187
1.446000,-1.646891
1.447000,-2.262941
1.448000,-2.634607
1.449000,-2.667701
1.450000,-2.634607
1.451000,-2.528962
1.452000,-2.327855
1.453000,-1.775447
1.454000,-0.697360
1.455000,-0.319329
1.456000,-0.134769
1.457000,-0.281144
1.458000,-0.634991
1.459000,-0.971018
1.460000,-1.094483
1.461000,-1.102120
1.462000,-1.084300
1.463000,-1.473786
1.464000,-1.842907
1.465000,-2.079653
1.466000,-2.293489
1.467000,-2.423317
1.468000,-2.481867
1.469000,-2.502233
1.470000,-2.486959
1.471000,-2.227301
1.472000,-1.951097
1.473000,-1.616343
1.474000,-0.505162
1.475000,-0.422429
1.476000,1.085875
1.477000,2.236513
1.478000,2.067227
1.479000,1.946308
1.480000,1.218249
1.481000,-0.024033
1.482000,-1.033387
1.483000,-2.476776
1.484000,-2.862444
1.485000,-3.595594
1.486000,-4.265102
1.487000,-4.576946
1.488000,-4.701683
1.489000,-4.598584
1.490000,-4.657134
1.491000,-4.314743
1.492000,-3.776336
1.493000,-3.178105
1.494000,-1.345230
1.495000,-0.428793
1.496000,-0.422429
1.497000,-0.661721
1.498000,-0.880647
1.499000,-1.028296
1.500000,-1.455966
1.501000,-1.657074
1.502000,-1.774174
1.503000,-1.814905
1.504000,-1.747445
1.505000,-1.683803
1.506000,-1.585795
1.507000,-1.581977
1.508000,-1.472513
1.509000,-1.233221
1.510000,-0.982474
1.511000,-1.069026
1.512000,-0.990111
1.513000,0.110887
1.514000,0.799488
1.515000,1.017142
1.516000,0.627656
1.517000,-0.195865
1.518000,-1.086846
1.519000,-2.016012
1.520000,-2.736433
1.521000,-2.971907
1.522000,-2.973180
1.523000,-2.700794
1.524000,-2.306217
1.525000,-2.012193
1.526000,-1.855635
1.527000,-1.688894
1.528000,-1.356686
1.529000,-1.114848
1.530000,-0.887011
1.531000,-0.889557
1.532000,-1.000293
1.533000,-0.859009
1.534000,-0.293873
1.535000,-0.302782
1.536000,-0.575168
1.537000,-1.223039
1.538000,-1.800903
1.539000,-2.177661
1.540000,-1.346503
1.541000,-0.598079
1.542000,-0.665539
1.543000,-0.867919
1.544000,-1.131395
1.545000,-1.753809
1.546000,-2.537872
1.547000,-2.388951
1.548000,-2.362221
1.549000,-2.299853
1.550000,-2.298580
1.551000,-2.282033
1.552000,-2.142022
1.553000,-2.171297
1.554000,-2.111474
1.555000,-1.982918
1.556000,-0.972291
1.557000,-0.283690
1.558000,-0.134769
1.559000,-0.015123
1.560000,-0.564985
1.561000,-1.108484
1.562000,-1.772901
1.563000,-2.246394
1.564000,-1.519608
1.565000,-1.543792
1.566000,-1.560339
1.567000,-1.678712
1.568000,-1.711805
1.569000,-1.300681
1.570000,-1.149214
1.571000,-0.929015
1.572000,-1.221766
1.573000,-1.559066
1.574000,-1.813632
1.575000,-1.585795
1.576000,-1.571794
1.577000,-1.781811
1.578000,-1.916731
1.579000,-1.707987
1.580000,-1.625253
1.581000,-1.755082
1.582000,-2.166206
1.583000,-2.484413
1.584000,-2.509870
1.585000,-1.842907
1.586000,-1.701623
1.587000,-1.621434
1.588000,-1.557793
1.589000,-1.466149
1.590000,-1.225584
1.591000,1.038780
1.592000,1.819025
1.593000,1.181337
1.594000,0.080339
1.595000,-1.314682
1.596000,-2.662609
1.597000,-3.825976
1.598000,-4.322380
1.599000,-4.309651
1.600000,-4.066541
1.601000,-3.708876
1.602000,-3.134829
1.603000,-2.713522
1.604000,-2.362221
1.605000,-2.036377
1.606000,-1.435601
1.607000,-0.901013
1.608000,-0.435157
1.609000,0.248353
1.610000,0.424003
1.611000,0.187257
1.612000,0.765122
1.613000,0.991686
1.614000,0.542377
1.615000,-0.188228
1.616000,-0.937925
1.617000,-1.830178
1.618000,-2.484413
1.619000,-2.982090
1.620000,-3.193379
1.621000,-3.138648
1.622000,-3.025366
1.623000,-2.759344
1.624000,-2.548055
1.625000,-2.061834
1.626000,-0.811914
1.627000,-0.094038
1.628000,-0.100403
1.629000,-0.515345
1.630000,-0.909922
1.631000,-1.303227
1.632000,-1.665983
1.633000,-1.833997
1.634000,-1.910367
1.635000,-1.961280
1.636000,-1.691440
1.637000,-1.413963
1.638000,-1.139032
1.639000,-1.161943
1.640000,-1.109757
1.641000,-0.166590
1.642000,1.010778
1.643000,1.499545
1.644000,1.484271
1.645000,1.202975
1.646000,0.205077
1.647000,-0.235323
1.648000,-0.647719
1.649000,-1.851817
1.650000,-3.203562
1.651000,-4.181095
1.652000,-4.643133
1.653000,-4.923155
1.654000,-4.674953
1.655000,-4.424206
1.656000,-3.866706
1.657000,-3.258294
1.658000,-2.662609
1.659000,-2.200572
1.660000,-1.856908
1.661000,-1.742353
1.662000,-1.766537
1.663000,-1.510698
1.664000,-1.049934
1.665000,-0.735545
1.666000,-0.869192
1.667000,-0.547166
1.668000,0.038336
1.669000,0.213986
1.670000,0.247080
1.671000,-0.038034
1.672000,-0.320602
1.673000,-0.888284
1.674000,-1.640527
1.675000,-2.348220
1.676000,-1.683803
1.677000,-0.333330
1.678000,-0.267143
1.679000,-0.521709
1.680000,-0.870465
1.681000,-0.786458
1.682000,-1.038478
1.683000,-1.886183
1.684000,-2.567147
1.685000,-2.868808
1.686000,-3.148830
1.687000,-3.464492
1.688000,-2.830623
1.689000,-2.531508
1.690000,-2.411862
1.691000,-2.152204
1.692000,-1.195036
1.693000,-0.964654
1.694000,-1.089391
1.695000,-1.528518
1.696000,-1.389779
1.697000,-1.114848
1.698000,-1.123758
1.699000,-1.195036
1.700000,-1.402508
1.701000,-1.809813
1.702000,-2.170024
1.703000,-2.340583
1.704000,-2.415680
1.705000,-2.192935
1.706000,-1.906548
1.707000,-1.314682
1.708000,-1.005385
1.709000,-0.931561
1.710000,-0.916287
1.711000,-0.904831
1.712000,-0.999020
1.713000,-1.118667
1.714000,-1.230676
1.715000,-1.267588
1.716000,-1.105938
1.717000,-0.829734
1.718000,-0.199683
1.719000,-0.188228
1.720000,-0.402063
1.721000,-0.654084
1.722000,-1.030841
1.723000,-1.576885
1.724000,-1.991828
1.725000,-2.266759
1.726000,-2.302398
1.727000,-2.175115
1.728000,-1.757627
1.729000,-1.604888
1.730000,-1.515789
1.731000,-1.538700
1.732000,-1.412690
1.733000,-1.475059
1.734000,-1.070299
1.735000,-0.053308
1.736000,0.561469
1.737000,0.611109
1.738000,2.109230
1.739000,1.339168
1.740000,0.198713
1.741000,-0.358787
1.742000,-1.095756
1.743000,-1.976554
1.744000,-3.310480
1.745000,-4.293105
1.746000,-5.125535
1.747000,-5.683035
1.748000,-5.746676
1.749000,-5.231180
1.750000,-4.167094
1.751000,-3.006273
1.752000,-2.004556
1.753000,-1.303227
1.754000,-1.137759
1.755000,-0.817006
1.756000,-1.066480
1.757000,-1.094483
1.758000,-1.052479
1.759000,-1.019386
1.760000,-0.992656
1.761000,-1.272679
1.762000,-0.929015
1.763000,-0.827188
1.764000,-0.573895
1.765000,-0.547166
1.766000,-0.845008
1.767000,-1.267588
1.768000,-1.692713
1.769000,-2.045287
1.770000,-2.268032
1.771000,-2.344402
1.772000,-2.349493
1.773000,-2.233666
1.774000,-2.138203
1.775000,-1.916731
1.776000,-1.631617
1.777000,-1.481423
1.778000,-1.249768
1.779000,-1.099574
1.780000,-0.958290
1.781000,-0.780094
1.782000,-0.726635
1.783000,-0.782639
1.784000,-0.548439
1.785000,-0.552257
1.786000,-0.029124
1.787000,0.648022
1.788000,0.784214
1.789000,0.175802
1.790000,-0.402063
1.791000,-0.720271
1.792000,-1.420327
1.793000,-2.175115
1.794000,-2.672792
1.795000,-3.016456
1.796000,-3.146285
1.797000,-3.217563
1.798000,-2.320218
1.799000,-0.839917
1.800000,-0.440248
1.801000,-0.110585
1.802000,-0.416064
1.803000,-1.084300
1.804000,-1.562884
1.805000,-1.091937
1.806000,-0.789004
1.807000,-0.817006
1.808000,-1.088119
1.809000,-1.468695
1.810000,-2.079653
1.811000,-2.854807
1.812000,-3.138648
1.813000,-3.370303
1.814000,-3.253202
1.815000,-2.735161
1.816000,-2.486959
1.817000,-2.376223
1.818000,-2.362221
1.819000,-2.512415
1.820000,-2.558237
1.821000,-2.470412
1.822000,-2.191662
1.823000,-1.532336
1.824000,-0.929015
1.825000,-0.288781
1.826000,-0.253142
1.827000,-0.646447
1.828000,-1.027023
1.829000,-1.116121
1.830000,-1.173398
1.831000,-1.461058
1.832000,-1.742353
1.833000,-1.830178
1.834000,-1.847998
1.835000,-1.868363
1.836000,-2.035104
1.837000,-1.842907
1.838000,-1.566703
1.839000,-0.809369
1.840000,-0.465705
1.841000,-0.017669
1.842000,0.132525
1.843000,0.003970
1.844000,-0.262052
1.845000,-0.634991
1.846000,-0.965927
1.847000,-1.462331
1.848000,-1.350322
1.849000,-1.290499
1.850000,-1.522154
1.851000,-1.784357
1.852000,-2.005829
1.853000,-2.164933
1.854000,-2.257849
1.855000,-2.252758
1.856000,-2.143295
1.857000,-2.196754
1.858000,-2.150932
1.859000,-1.923095
1.860000,-0.716452
1.861000,0.852947
1.862000,1.250070
1.863000,0.598381
1.864000,-0.361333
1.865000,-0.880647
1.866000,-1.943460
1.867000,-2.592604
1.868000,-3.222654
1.869000,-3.594321
1.870000,-3.488676
1.871000,-3.292660
1.872000,-3.001182
1.873000,-2.805166
1.874000,-2.206936
1.875000,-0.603170
1.876000,1.229705
1.877000,1.309893
1.878000,0.796943
1.879000,-0.041852
1.880000,-1.314682
1.881000,-2.770800
1.882000,-3.945622
1.883000,-4.411478
1.884000,-4.378384
1.885000,-3.990171
1.886000,-3.147558
1.887000,-1.890001
1.888000,-1.285407
1.889000,-0.730453
1.890000,0.266173
1.891000,0.543649
1.892000,0.266173
1.893000,-0.343513
1.894000,-0.842462
1.895000,-0.922651
1.896000,-0.926469
1.897000,-0.940470
1.898000,-1.268860
1.899000,-1.669802
1.900000,-2.194208
1.901000,-2.568420
1.902000,-2.772073
1.903000,-3.138648
1.904000,-3.221382
1.905000,-3.081370
1.906000,-2.542963
1.907000,-2.097473
1.908000,-1.833997
1.909000,-0.810642
1.910000,-0.119495
1.911000,0.311994
1.912000,1.013324
1.913000,1.159699
1.914000,0.631475
1.915000,-0.113131
1.916000,-0.893376
1.917000,-1.744899
1.918000,-2.327855
1.919000,-2.672792
1.920000,-2.492050
1.921000,-2.360949
1.922000,-2.434773
1.923000,-2.209482
1.924000,-1.928186
1.925000,-1.795812
1.926000,-1.868363
1.927000,-1.799631
1.928000,-1.926914
1.929000,-2.078380
1.930000,-2.078380
1.931000,-1.921822
1.932000,-1.781811
1.933000,-1.676166
1.934000,-1.718169
1.935000,-1.603615
1.936000,-1.373233
1.937000,-1.219220
1.938000,-1.125031
1.939000,-1.033387
1.940000,-0.996475
1.941000,-1.007930
1.942000,-1.076663
1.943000,-1.175944
1.944000,-1.230676
1.945000,-0.466978
1.946000,-0.235323
1.947000,-0.192046
1.948000,-0.391881
1.949000,-1.062662
1.950000,-1.581977
1.951000,-1.786902
1.952000,-1.683803
1.953000,-1.434328
1.954000,-0.293873
1.955000,0.886041
1.956000,1.176246
1.957000,0.963683
1.958000,0.034517
1.959000,-1.168307
1.960000,-1.896366
1.961000,-2.703340
1.962000,-2.680429
1.963000,-1.509425
1.964000,-0.068582
1.965000,-0.372788
1.966000,-1.248495
1.967000,-2.381314
1.968000,-3.673236
1.969000,-4.728412
1.970000,-4.705501
1.971000,-4.691500
1.972000,-4.410205
1.973000,-3.911256
1.974000,-3.464492
1.975000,-3.358847
1.976000,-3.147558
1.977000,-2.947723
1.978000,-2.401679
1.979000,-1.863272
1.980000,-1.463603
1.981000,-1.164488
1.982000,-0.988838
1.983000,-1.051207
1.984000,-0.930288
1.985000,-0.750819
1.986000,0.471098
1.987000,1.034962
1.988000,1.173700
1.989000,1.745201
1.990000,1.558095
1.991000,0.432913
1.992000,-0.687177
1.993000,-1.223039
1.994000,-1.542519
1.995000,-2.050378
1.996000,-2.486959
1.997000,-2.910811
1.998000,-3.258294
1.999000,-3.464492
2.000000,-3.314298
2.001000,-2.023649
2.002000,-1.566703
2.003000,-1.207765
2.004000,-1.049934
2.005000,-1.107211
2.006000,-1.380869
2.007000,-1.705441
2.008000,-2.000738
2.009000,-2.133112
2.010000,-2.088563
2.011000,-1.865818
2.012000,-1.629071
2.013000,-1.495424
2.014000,-1.445784
2.015000,-1.435601
2.016000,-1.299408
2.017000,-1.090664
2.018000,-0.216230
2.019000,-0.119495
2.020000,-0.277326
2.021000,-0.142406
2.022000,0.267445
2.023000,0.510556
2.024000,-0.016396
2.025000,-0.773730
2.026000,-1.553974
2.027000,-2.455138
2.028000,-3.239201
2.029000,-3.580320
2.030000,-3.612140
2.031000,-3.131011
2.032000,-2.404225
2.033000,-2.003283
2.034000,-1.453421
2.035000,-1.271406
2.036000,-0.851372
2.037000,-0.492434
2.038000,-0.475887
2.039000,-0.832280
2.040000,-0.957017
2.041000,-1.245950
2.042000,-1.174671
2.043000,-1.366868
2.044000,-1.606160
2.045000,-1.743626
2.046000,-1.946006
2.047000,-2.144567
2.048000,-2.143295
2.049000,-2.166206
2.050000,-2.229847
2.051000,-1.584522
2.052000,-1.173398
2.053000,-0.939197
2.054000,-0.643901
2.055000,-0.817006
2.056000,-1.112302
2.057000,-1.574340
2.058000,-1.886183
2.059000,-1.751263
2.060000,-1.501788
2.061000,-0.997748
2.062000,-0.594261
2.063000,-0.842462
2.064000,-0.438975
2.065000,-0.699905
2.066000,-1.321046
2.067000,-1.360504
2.068000,-1.664711
2.069000,-2.154750
2.070000,-2.612969
2.071000,-3.015183
2.072000,-3.279932
2.073000,-2.993545
2.074000,-2.546782
2.075000,-2.322764
2.076000,-1.975281
2.077000,-0.852645
2.078000,-0.071127
2.079000,0.045973
2.080000,-0.395699
2.081000,-1.111030
2.082000,-1.664711
2.083000,-1.976554
2.084000,-1.840361
2.085000,-1.477605
2.086000,-0.870465
2.087000,0.146526
2.088000,0.603472
2.089000,0.157982
2.090000,-0.873010
2.091000,-1.671075
2.092000,-2.574784
2.093000,-3.369030
2.094000,-3.549772
2.095000,-3.128465
2.096000,-2.929904
2.097000,-2.835714
2.098000,-2.059288
2.099000,-1.504334
2.100000,-1.023204
2.101000,-1.118667
2.102000,-1.399962
2.103000,-1.856908
2.104000,-2.279487
2.105000,-2.161114
2.106000,-1.627799
2.107000,-1.336320
2.108000,-0.908650
2.109000,-0.575168
2.110000,-0.626081
2.111000,-0.478433
2.112000,-0.643901
2.113000,-0.990111
2.114000,-1.449602
2.115000,-1.814905
2.116000,-2.149659
2.117000,-2.441137
2.118000,-2.391497
2.119000,-2.217119
2.120000,-2.098746
2.121000,-1.970190
2.122000,-1.802176
2.123000,-1.644345
2.124000,-1.564157
2.125000,-1.413963
2.126000,-1.300681
2.127000,-1.202673
2.128000,-1.015567
2.129000,-1.038478
2.130000,-0.943016
2.131000,-0.860282
2.132000,-0.901013
2.133000,-0.189501
2.134000,0.529648
2.135000,1.358261
2.136000,1.382444
2.137000,1.395173
2.138000,0.608564
2.139000,-0.720271
2.140000,-2.063106
2.141000,-3.216290
2.142000,-3.584138
2.143000,-3.218836
2.144000,-2.999909
2.145000,-2.630789
2.146000,-2.348220
2.147000,-2.442410
2.148000,-2.537872
2.149000,-1.984191
2.150000,-1.906548
2.151000,-1.991828
2.152000,-1.966371
2.153000,-2.074562
2.154000,-2.198026
2.155000,-2.392769
2.156000,-2.358403
2.157000,-2.153477
2.158000,-1.331229
2.159000,-0.627354
2.160000,-0.311692
2.161000,-0.157680
2.162000,0.079067
2.163000,-0.025306
2.164000,-0.150043
2.165000,-0.409700
2.166000,-0.862828
2.167000,-1.658346
2.168000,-1.771628
2.169000,-1.753809
2.170000,-2.100018
2.171000,-2.525144
2.172000,-3.078825
2.173000,-3.481039
2.174000,-3.514133
2.175000,-3.092826
2.176000,-2.633334
2.177000,-2.312581
2.178000,-1.963826
2.179000,-1.839088
2.180000,-1.667256
2.181000,-1.478877
2.182000,-1.182308
2.183000,-0.982474
2.184000,-0.885739
2.185000,-0.637537
2.186000,0.565288
2.187000,1.617918
2.188000,1.521183
2.189000,0.709117
2.190000,-0.265870
2.191000,-1.335048
2.192000,-2.331673
2.193000,-3.059732
2.194000,-3.310480
2.195000,-3.332118
2.196000,-2.913357
2.197000,-2.100018
2.198000,-1.648164
2.199000,-1.489060
2.200000,-1.331229
2.201000,-1.173398
2.202000,-1.271406
2.203000,-0.948107
2.204000,-0.665539
2.205000,0.234352
2.206000,0.068884
2.207000,-0.330785
2.208000,-1.014294
2.209000,-1.892547
2.210000,-2.858625
2.211000,-3.636324
2.212000,-3.641416
2.213000,-3.324481
2.214000,-2.941359
2.215000,-2.648608
2.216000,-2.427136
2.217000,-2.134385
2.218000,-1.744899
2.219000,-1.536155
2.220000,-1.443238
2.221000,-1.388506
2.222000,-1.034660
2.223000,-0.634991
2.224000,0.698935
2.225000,1.143152
2.226000,1.499545
2.227000,1.345532
2.228000,0.994231
2.229000,-0.179318
2.230000,-1.510698
2.231000,-1.707987
2.232000,-1.010476
2.233000,-1.356686
2.234000,-1.606160
2.235000,-2.166206
2.236000,-2.731342
2.237000,-3.516678
2.238000,-4.197642
2.239000,-4.481483
2.240000,-4.438207
2.241000,-4.051267
2.242000,-3.444127
2.243000,-2.615515
2.244000,-1.654528
2.245000,-0.921378
2.246000,0.028153
2.247000,0.287811
2.248000,0.213986
2.249000,-0.231504
2.250000,-0.514072
2.251000,-0.912468
2.252000,-1.402508
2.253000,-1.789448
2.254000,-2.072016
2.255000,-2.212027
2.256000,-2.177661
2.257000,-2.143295
2.258000,-1.853089
2.259000,-1.170853
2.260000,-1.007930
2.261000,-1.025750
2.262000,-1.056298
2.263000,-1.088119
2.264000,-1.290499
2.265000,-1.673620
2.266000,-1.354140
2.267000,-0.912468
2.268000,-0.929015
2.269000,-0.997748
2.270000,-1.175944
2.271000,-1.294317
2.272000,-1.048661
2.273000,-1.109757
2.274000,-1.090664
2.275000,-1.486514
2.276000,-1.327411
2.277000,-0.815733
2.278000,-0.684631
2.279000,-0.993929
2.280000,-1.403780
2.281000,-1.844180
2.282000,-2.438591
2.283000,-2.947723
2.284000,-3.227746
2.285000,-3.030457
2.286000,-2.362221
2.287000,-1.329956
2.288000,-0.627354
2.289000,-0.264598
2.290000,-0.497525
2.291000,-0.539529
2.292000,-0.666812
2.293000,-1.160670
2.294000,-1.378324
2.295000,-0.935379
2.296000,-1.084300
2.297000,-1.576885
2.298000,-2.042741
2.299000,-2.220937
2.300000,-2.565874
2.301000,-2.877718
2.302000,-2.733888
2.303000,-2.317672
2.304000,-1.770355
2.305000,-1.065208
2.306000,-0.524255
2.307000,0.347634
2.308000,0.525830
2.309000,0.121070
2.310000,-0.587896
2.311000,-1.433056
2.312000,-2.339310
2.313000,-2.619333
2.314000,-1.550156
2.315000,-1.602342
2.316000,-1.756354
2.317000,-1.910367
2.318000,-2.077107
2.319000,-2.474230
2.320000,-2.863716
2.321000,-2.704613
2.322000,-1.765264
2.323000,-1.575612
2.324000,-1.517062
2.325000,-1.436874
2.326000,-1.429237
2.327000,-1.799631
2.328000,-2.120384
2.329000,-2.391497
2.330000,-2.644790
2.331000,-2.467866
2.332000,-2.226029
2.333000,-1.933278
2.334000,-1.828906
2.335000,-1.756354
2.336000,-1.625253
2.337000,-1.491606
2.338000,-1.430510
2.339000,-1.331229
2.340000,-1.385961
2.341000,-1.080482
2.342000,-0.578987
2.343000,-0.531892
2.344000,-0.550984
2.345000,-0.547166
2.346000,0.129980
2.347000,0.262354
2.348000,0.613655
2.349000,0.578016
2.350000,0.085431
2.351000,-0.648992
2.352000,-1.413963
2.353000,-2.013466
2.354000,-2.051651
2.355000,-2.008375
2.356000,-2.017284
2.357000,-1.916731
2.358000,-1.930732
2.359000,-2.128021
2.360000,-2.568420
2.361000,-2.951542
2.362000,-3.017729
2.363000,-2.788619
2.364000,-2.545509
2.365000,-2.144567
2.366000,-0.822097
2.367000,-0.166590
2.368000,-0.203502
2.369000,-0.539529
2.370000,-0.974837
2.371000,-1.382142
2.372000,-1.890001
2.373000,-1.623980
2.374000,-1.009203
2.375000,0.099432
2.376000,0.305630
2.377000,-0.253142
2.378000,-1.007930
2.379000,-1.766537
2.380000,-2.485686
2.381000,-3.104281
2.382000,-3.115737
2.383000,-2.933722
2.384000,-2.787347
2.385000,-2.448774
2.386000,-2.038923
2.387000,-1.896366
2.388000,-0.792822
2.389000,-0.171681
2.390000,1.322621
2.391000,2.342158
2.392000,1.962855
2.393000,0.767668
2.394000,-0.785185
2.395000,-2.597695
2.396000,-4.107271
2.397000,-4.914246
2.398000,-5.152265
2.399000,-4.799691
2.400000,-4.243464
2.401000,-3.391941
2.402000,-2.667701
2.403000,-1.876000
2.404000,-1.356686
2.405000,-0.707542
2.406000,-0.494980
2.407000,-0.459341
2.408000,-0.483524
2.409000,-0.797913
2.410000,-1.230676
2.411000,-1.509425
2.412000,-1.709260
2.413000,-1.742353
2.414000,-1.743626
2.415000,-1.413963
2.416000,1.069328
2.417000,1.955218
2.418000,1.406628
2.419000,0.418912
2.420000,-0.776275
2.421000,-2.163660
2.422000,-3.259567
2.423000,-3.795428
2.424000,-3.874343
2.425000,-3.631233
2.426000,-3.226473
2.427000,-2.868808
2.428000,-2.443683
2.429000,-2.226029
2.430000,-1.988009
2.431000,-1.797085
2.432000,-1.560339
2.433000,-1.042297
2.434000,-0.852645
2.435000,-0.869192
2.436000,-0.813187
2.437000,-0.666812
2.438000,1.200430
2.439000,2.191964
2.440000,1.522456
2.441000,0.394728
2.442000,-0.869192
2.443000,-1.901457
2.444000,-2.689339
2.445000,-3.184470
2.446000,-3.365211
2.447000,-3.269749
2.448000,-2.938813
2.449000,-2.691884
2.450000,-2.161114
2.451000,-1.307045
2.452000,-0.333330
2.453000,-0.358787
2.454000,-0.572622
2.455000,-1.085573
2.456000,-1.622707
2.457000,-2.047832
2.458000,-2.320218
2.459000,-2.607878
2.460000,-2.670246
2.461000,-2.619333
2.462000,-2.390224
2.463000,-2.063106
2.464000,-1.860726
2.465000,-1.293044
2.466000,-0.842462
2.467000,-0.427520
2.468000,-0.353696
2.469000,-0.162771
2.470000,1.260253
2.471000,1.686651
2.472000,1.177519
2.473000,0.323450
2.474000,-0.343513
2.475000,-1.356686
2.476000,-2.532781
2.477000,-3.036821
2.478000,-3.348665
2.479000,-3.381758
2.480000,-3.058459
2.481000,-2.910811
2.482000,-3.035548
2.483000,-3.049550
2.484000,-2.479322
2.485000,-1.835270
2.486000,-1.472513
2.487000,-0.713907
2.488000,-0.889557
2.489000,-1.258678
2.490000,-1.590886
2.491000,-1.953643
2.492000,-2.220937
2.493000,-2.480595
2.494000,-2.490777
2.495000,-2.334219
2.496000,-2.213300
2.497000,-1.904003
2.498000,-1.687622
2.499000,-1.533609
2.500000,-1.551429
2.501000,-1.038478
2.502000,-0.730453
2.503000,-0.193319
2.504000,0.033245
2.505000,-0.078764
2.506000,-0.445339
2.507000,-0.796641
2.508000,-1.245950
2.509000,-1.011749
2.510000,0.063793
2.511000,0.322177
2.512000,-0.078764
2.513000,-0.237868
2.514000,-0.921378
2.515000,-1.967644
2.516000,-2.800075
2.517000,-3.153922
2.518000,-3.206108
2.519000,-2.942632
2.520000,-2.800075
2.521000,-2.567147
2.522000,-2.153477
2.523000,-1.930732
2.524000,-1.772901
2.525000,-1.589614
2.526000,-1.301954
2.527000,-0.753364
2.528000,-0.460613
2.529000,0.086703
2.530000,-0.137315
2.531000,-0.690996
2.532000,-1.482696
2.533000,-1.870909
2.534000,-2.346947
2.535000,-2.838260
2.536000,-2.863716
2.537000,-2.551873
2.538000,-2.293489
2.539000,-1.780538
2.540000,-1.615070
2.541000,-1.550156
2.542000,-1.324865
2.543000,-0.899740
2.544000,-0.539529
2.545000,0.812217
2.546000,1.437176
2.547000,1.624282
2.548000,0.860584
2.549000,-0.417337
2.550000,-1.742353
2.551000,-2.976998
2.552000,-3.750879
2.553000,-4.075451
2.554000,-4.187460
2.555000,-4.066541
2.556000,-3.719058
2.557000,-3.351210
2.558000,-2.764436
2.559000,-2.367313
2.560000,-1.709260
2.561000,-0.615899
2.562000,-0.270962
2.563000,-0.133496
2.564000,-0.179318
2.565000,-0.368970
2.566000,-0.794095
2.567000,-0.497525
2.568000,0.539831
2.569000,1.903032
2.570000,1.826662
2.571000,1.079511
2.572000,0.112160
2.573000,-1.569248
2.574000,-3.095371
2.575000,-3.237928
2.576000,-3.320662
2.577000,-3.586684
2.578000,-3.749606
2.579000,-3.907437
2.580000,-3.953259
2.581000,-3.955805
2.582000,-3.680873
2.583000,-3.216290
2.584000,-2.700794
2.585000,-1.972735
2.586000,-1.431783
2.587000,-1.193763
2.588000,-1.165761
2.589000,-1.098301
2.590000,-1.085573
2.591000,-1.034660
2.592000,-0.925196
2.593000,-0.902285
2.594000,-0.901013
2.595000,-0.898467
2.596000,-0.979928
2.597000,-1.141577
2.598000,-1.225584
2.599000,-1.197582
2.600000,-1.144123
2.601000,-0.766093
2.602000,0.453279
2.603000,0.959865
2.604000,0.810944
2.605000,0.267445
2.606000,-0.559894
2.607000,-1.550156
2.608000,-1.993101
2.609000,-1.220493
2.610000,-1.212856
2.611000,-1.369414
2.612000,-1.545065
2.613000,-2.055469
2.614000,-2.558237
2.615000,-2.947723
2.616000,-3.299024
2.617000,-3.273568
2.618000,-2.946450
2.619000,-2.303671
2.620000,-1.877273
2.621000,-1.655801
2.622000,-1.475059
2.623000,-0.713907
2.624000,-0.263325
2.625000,0.021789
2.626000,0.108342
2.627000,0.002697
2.628000,-0.251869
2.629000,-1.086846
2.630000,-2.017284
2.631000,-2.675338
2.632000,-2.847170
2.633000,-2.825532
2.634000,-2.662609
2.635000,-2.513688
2.636000,-2.388951
2.637000,-2.110201
2.638000,-0.853918
2.639000,0.165619
2.640000,0.765122
2.641000,1.017142
2.642000,0.342542
2.643000,-0.726635
2.644000,-1.979100
2.645000,-2.864989
2.646000,-2.868808
2.647000,-2.807712
2.648000,-2.517507
2.649000,-1.904003
2.650000,-1.365596
2.651000,-1.561611
2.652000,-2.126748
2.653000,-2.461502
2.654000,-2.651154
2.655000,-2.562056
2.656000,-2.220937
2.657000,-2.030013
2.658000,-1.933278
2.659000,-1.853089
2.660000,-1.711805
2.661000,-1.635435
2.662000,-1.724534
2.663000,-1.467422
2.664000,-0.815733
2.665000,-0.661721
2.666000,-0.757183
2.667000,-0.587896
2.668000,-0.543347
2.669000,0.970047
2.670000,1.805024
2.671000,1.635738
2.672000,0.931863
2.673000,-0.208593
2.674000,-1.578158
2.675000,-2.936268
2.676000,-3.890890
2.677000,-4.417842
2.678000,-4.350382
2.679000,-3.393214
2.680000,-2.367313
2.681000,-1.850544
2.682000,-1.687622
2.683000,-2.003283
2.684000,-2.154750
2.685000,-2.306217
2.686000,-1.868363
2.687000,-1.047388
2.688000,-0.800459
2.689000,-0.777548
2.690000,-0.976110
2.691000,-1.273952
2.692000,-1.674893
2.693000,-2.079653
2.694000,-2.038923
2.695000,-1.533609
2.696000,-1.093210
2.697000,-0.964654
2.698000,-0.986292
2.699000,-0.540802
2.700000,-0.614626
2.701000,-0.783912
2.702000,-1.000293
2.703000,-1.374505
2.704000,-1.863272
2.705000,-2.140749
2.706000,-2.005829
2.707000,-1.960007
2.708000,-1.529791
2.709000,-1.135213
2.710000,-0.752091
2.711000,-0.707542
2.712000,-1.020659
2.713000,-1.401235
2.714000,-1.851817
2.715000,-2.289670
2.716000,-2.416953
2.717000,-2.246394
2.718000,-2.092381
2.719000,-2.086017
2.720000,-1.777992
2.721000,-1.504334
2.722000,-1.198855
2.723000,-1.058844
2.724000,-0.880647
2.725000,0.322177
2.726000,0.454551
2.727000,0.079067
2.728000,-0.176772
2.729000,-0.811914
2.730000,-1.774174
2.731000,-2.643517
2.732000,-2.885355
2.733000,-2.517507
2.734000,-1.539973
2.735000,0.788033
2.736000,3.077854
2.737000,2.912386
2.738000,2.190691
2.739000,0.436732
2.740000,-1.570521
2.741000,-3.617232
2.742000,-5.316460
2.743000,-6.229079
2.744000,-6.568925
2.745000,-6.061065
2.746000,-4.944793
2.747000,-4.209098
2.748000,-3.638870
2.749000,-3.081370
2.750000,-2.640971
2.751000,-2.386405
2.752000,-2.114020
2.753000,-1.713078
2.754000,-1.319774
2.755000,-0.414792
2.756000,-0.102948
2.757000,0.080339
2.758000,0.695116
2.759000,0.672205
2.760000,0.160528
2.761000,-0.547166
2.762000,-1.109757
2.763000,-1.606160
2.764000,-1.984191
2.765000,-2.087290
2.766000,-1.967644
2.767000,-1.797085
2.768000,-1.777992
2.769000,-1.711805
2.770000,-1.282862
2.771000,-1.119939
2.772000,-0.893376
2.773000,-0.763547
2.774000,-0.781367
2.775000,-0.718998
2.776000,-0.343513
2.777000,-0.226413
2.778000,-0.304055
2.779000,-0.221321
2.780000,-0.300237
2.781000,-0.836098
2.782000,-1.453421
2.783000,-1.897638
2.784000,-2.154750
2.785000,-2.376223
2.786000,-2.419499
2.787000,-2.439864
2.788000,-2.428409
2.789000,-2.223483
2.790000,-2.021103
2.791000,-1.876000
2.792000,0.202531
2.793000,2.932751
2.794000,3.604806
2.795000,2.534356
2.796000,0.777850
2.797000,-1.203946
2.798000,-3.104281
2.799000,-4.321107
2.800000,-4.846786
2.801000,-4.804782
2.802000,-4.560399
2.803000,-4.251101
2.804000,-3.638870
2.805000,-3.437763
2.806000,-2.667701
2.807000,-0.997748
2.808000,-0.466978
2.809000,-0.277326
2.810000,-0.382971
2.811000,-0.435157
2.812000,-0.422429
2.813000,-1.071572
2.814000,-1.699077
2.815000,-2.060561
2.816000,-2.134385
2.817000,-2.439864
2.818000,-2.677883
2.819000,-2.693157
2.820000,-2.755526
2.821000,-2.578603
2.822000,-1.954916
2.823000,-1.397416
2.824000,-0.561167
2.825000,-0.032943
2.826000,0.145254
2.827000,-0.185682
2.828000,-0.701178
2.829000,-1.310864
2.830000,-1.590886
2.831000,-1.706714
2.832000,-1.704168
2.833000,-1.616343
2.834000,-1.613797
2.835000,-1.682530
2.836000,-1.307045
2.837000,-1.047388
2.838000,-0.675722
2.839000,-0.755910
2.840000,-1.015567
2.841000,-1.265042
2.842000,-1.000293
2.843000,-1.006657
2.844000,-1.347776
2.845000,-1.729625
2.846000,-1.814905
2.847000,-0.983747
2.848000,-0.624808
2.849000,0.668387
2.850000,1.064237
2.851000,1.526274
2.852000,0.915316
2.853000,-0.424974
2.854000,-2.191662
2.855000,-3.846341
2.856000,-4.823875
2.857000,-5.107716
2.858000,-4.939702
2.859000,-4.495484
2.860000,-3.972351
2.861000,-3.343573
2.862000,-2.936268
2.863000,-2.662609
2.864000,-2.285852
2.865000,-1.993101
2.866000,-1.884910
2.867000,-1.725806
2.868000,-1.425419
2.869000,-1.011749
2.870000,-0.735545
2.871000,-0.603170
2.872000,-0.609535
2.873000,-0.524255
2.874000,-0.570077
2.875000,-0.535710
2.876000,-0.175499
2.877000,-0.071127
2.878000,-0.235323
2.879000,-0.567531
2.880000,-0.916287
2.881000,-1.273952
2.882000,-1.641800
2.883000,-1.915458
2.884000,-2.097473
2.885000,-1.886183
2.886000,-1.655801
2.887000,-1.375778
2.888000,-1.366868
2.889000,-1.131395
2.890000,-0.510254
2.891000,0.084158
2.892000,0.350179
2.893000,-0.120768
2.894000,-0.864101
2.895000,-1.476332
2.896000,-2.086017
2.897000,-2.159841
2.898000,-1.481423
2.899000,-1.514517
2.900000,-1.589614
2.901000,-1.048661
2.902000,-0.766093
2.903000,-1.117394
2.904000,-1.772901
2.905000,-2.273123
2.906000,-2.782255
2.907000,-2.975725
2.908000,-2.755526
2.909000,-1.609979
2.910000,1.802478
2.911000,2.908568
2.912000,2.281062
2.913000,0.943318
2.914000,-1.178490
2.915000,-3.525588
2.916000,-5.269365
2.917000,-6.103069
2.918000,-6.110706
2.919000,-5.569753
2.920000,-4.734777
2.921000,-3.482312
2.922000,-2.097473
2.923000,-1.494151
2.924000,-1.543792
2.925000,-0.794095
2.926000,0.396001
2.927000,0.466007
2.928000,0.005242
2.929000,-0.620990
2.930000,-1.289226
2.931000,-2.107655
2.932000,-2.489504
2.933000,-2.629516
2.934000,-2.534053
2.935000,-2.182752
2.936000,-1.976554
2.937000,-1.799631
2.938000,-1.524699
2.939000,-1.326138
2.940000,-1.144123
2.941000,-0.981201
2.942000,-0.838644
2.943000,-0.909922
2.944000,-0.981201
2.945000,-0.983747
2.946000,-0.995202
2.947000,-0.993929
2.948000,-1.029568
2.949000,-0.936652
2.950000,0.154163
2.951000,1.425721
2.952000,2.194510
2.953000,1.974310
2.954000,1.080784
2.955000,-0.206047
2.956000,-1.683803
2.957000,-3.034276
2.958000,-3.960896
2.959000,-4.293105
2.960000,-4.165822
2.961000,-3.913801
2.962000,-3.292660
2.963000,-2.872626
2.964000,-2.573511
2.965000,-2.363494
2.966000,-1.725806
2.967000,-1.015567
2.968000,-0.722816
2.969000,-0.827188
2.970000,-1.030841
2.971000,-1.224311
2.972000,-1.545065
2.973000,-1.551429
2.974000,-0.852645
2.975000,-0.717725
2.976000,-0.892103
2.977000,-0.324421
2.978000,-0.097857
2.979000,-0.306601
2.980000,-0.582805
2.981000,-1.225584
2.982000,-2.061834
2.983000,-2.546782
2.984000,-2.628243
2.985000,-2.784801
2.986000,-2.848442
2.987000,-2.844624
2.988000,-2.746616
2.989000,-2.443683
2.990000,-2.091109
2.991000,-1.758900
2.992000,-1.450875
2.993000,-0.937925
2.994000,0.551286
2.995000,1.306075
2.996000,1.649739
2.997000,1.369716
2.998000,0.659477
2.999000,-0.465705
3.000000,-1.802176
3.001000,-2.942632
3.002000,-3.744515
3.003000,-3.977443
3.004000,-3.776336
3.005000,-3.418670
3.006000,-3.089007
3.007000,-2.620606
3.008000,-1.704168
3.009000,-1.172125
3.010000,-0.525528
3.011000,0.794397
3.012000,0.740938
3.013000,1.233523
3.014000,1.616645
3.015000,1.588643
3.016000,0.380727
3.017000,-1.310864
3.018000,-2.928631
3.019000,-3.897254
3.020000,-4.300741
3.021000,-4.405114
3.022000,-4.294377
3.023000,-4.025810
3.024000,-3.823430
3.025000,-3.409760
3.026000,-2.867535
3.027000,-2.576057
3.028000,-2.556964
3.029000,-2.296034
3.030000,-1.840361
3.031000,-1.063935
3.032000,-0.297691
3.033000,-0.053308
3.034000,-0.025306
3.035000,-0.338422
3.036000,-0.536983
3.037000,-0.752091
3.038000,-1.001566
3.039000,-1.263769
3.040000,-1.480150
3.041000,-1.660892
3.042000,-1.650709
3.043000,-1.519608
3.044000,-1.100847
3.045000,-0.465705
3.046000,0.791851
3.047000,1.055327
3.048000,0.466007
3.049000,-0.292600
3.050000,-1.271406
3.051000,-2.335492
3.052000,-3.108100
3.053000,-3.474675
3.054000,-3.425034
3.055000,-3.223927
3.056000,-2.792438
3.057000,-2.348220
3.058000,-1.921822
3.059000,-1.664711
3.060000,-1.280316
3.061000,-0.875556
3.062000,-0.827188
3.063000,-0.773730
3.064000,-0.724089
3.065000,-0.595533
3.066000,-0.389335
3.067000,-0.502617
3.068000,-0.590442
3.069000,-0.183136
3.070000,-0.324421
3.071000,-0.834825
3.072000,-1.393598
3.073000,-1.911640
3.074000,-2.405498
3.075000,-2.876445
3.076000,-3.040640
3.077000,-2.966816
3.078000,-2.816622
3.079000,-2.646063
3.080000,-2.298580
3.081000,-1.967644
3.082000,-1.310864
3.083000,-0.547166
3.084000,-0.225140
3.085000,0.434186
3.086000,0.187257
3.087000,-0.463159
3.088000,-0.179318
3.089000,1.148244
3.090000,1.699379
3.091000,1.443540
3.092000,0.450733
3.093000,-0.965927
3.094000,-2.652427
3.095000,-4.207825
3.096000,-4.870969
3.097000,-5.030073
3.098000,-4.748778
3.099000,-4.232009
3.100000,-3.563773
3.101000,-2.595149
3.102000,-1.995646
3.103000,-1.979100
3.104000,-1.781811
3.105000,-1.649437
3.106000,-1.511971
3.107000,-0.833553
3.108000,0.306903
3.109000,1.015869
3.110000,0.770213
3.111000,0.872040
3.112000,0.833855
3.113000,-0.240414
3.114000,-1.616343
3.115000,-2.782255
3.116000,-3.599412
3.117000,-3.922711
3.118000,-4.025810
3.119000,-3.738151
3.120000,-3.372848
3.121000,-2.433500
3.122000,-1.825087
3.123000,-1.411417
3.124000,-1.361777
3.125000,-1.452148
3.126000,-0.797913
3.127000,-0.281144
3.128000,-0.394426
3.129000,-0.735545
3.130000,-0.995202
3.131000,-1.223039
3.132000,-1.490333
3.133000,-1.416509
3.134000,-0.913741
3.135000,-0.979928
3.136000,-1.268860
3.137000,-1.408872
3.138000,-1.727079
3.139000,-1.753809
3.140000,-1.897638
3.141000,-2.008375
3.142000,-2.106383
3.143000,-2.083472
3.144000,-1.907821
3.145000,-1.785629
3.146000,-1.795812
3.147000,-1.361777
3.148000,-0.668085
3.149000,-0.226413
3.150000,0.348906
3.151000,0.150345
3.152000,0.203804
3.153000,-0.188228
3.154000,-0.869192
3.155000,-1.566703
3.156000,-2.275669
3.157000,-2.612969
3.158000,-2.779710
3.159000,-2.746616
3.160000,-2.712250
3.161000,-2.430954
3.162000,-2.027467
3.163000,-1.836543
3.164000,-1.833997
3.165000,-1.692713
3.166000,-1.052479
3.167000,-0.531892
3.168000,1.026052
3.169000,0.967502
3.170000,0.364180
3.171000,0.019243
3.172000,-0.446612
3.173000,-1.314682
3.174000,-2.360949
3.175000,-3.106827
3.176000,-3.269749
3.177000,-1.631617
3.178000,-0.114404
3.179000,0.781669
3.180000,0.418912
3.181000,-0.172954
3.182000,-1.351594
3.183000,-2.675338
3.184000,-3.843796
3.185000,-4.556580
3.186000,-4.730958
3.187000,-4.341472
3.188000,-3.950713
3.189000,-3.419943
3.190000,-2.997364
3.191000,-2.609150
3.192000,-1.462331
3.193000,-0.343513
3.194000,0.021789
3.195000,-0.146224
3.196000,-0.582805
3.197000,-1.277770
3.198000,-1.836543
3.199000,-2.070743
3.200000,-2.214573
3.201000,-2.110201
3.202000,-2.027467
3.203000,-1.816177
3.204000,-1.295590
3.205000,-1.253586
3.206000,-1.265042
3.207000,-0.716452
3.208000,0.119797
3.209000,0.552559
3.210000,0.608564
3.211000,0.049791
3.212000,-0.752091
3.213000,-1.551429
3.214000,-2.181480
3.215000,-2.658791
3.216000,-2.814076
3.217000,-2.786074
3.218000,-2.484413
3.219000,-2.159841
3.220000,-1.779265
3.221000,-1.524699
3.222000,-0.948107
3.223000,-0.153861
3.224000,-0.152589
3.225000,-0.505162
3.226000,-0.794095
3.227000,-1.079209
3.228000,-1.354140
3.229000,-1.378324
3.230000,-1.229403
3.231000,-0.708815
3.232000,-0.186955
3.233000,0.017971
3.234000,-0.123313
3.235000,-0.787731
3.236000,-1.621434
3.237000,-2.302398
3.238000,-2.880263
3.239000,-3.169196
3.240000,-3.212472
3.241000,-3.003728
3.242000,-2.682975
3.243000,-2.313854
3.244000,-1.854362
3.245000,-1.132668
3.246000,0.038336
3.247000,0.072702
3.248000,-0.232777
3.249000,-0.468250
3.250000,0.029426
3.251000,0.846583
3.252000,0.383273
3.253000,-0.613353
3.254000,-1.010476
3.255000,0.103250
3.256000,0.163073
3.257000,-0.811914
3.258000,-1.967644
3.259000,-3.227746
3.260000,-4.543852
3.261000,-5.222270
3.262000,-5.466654
3.263000,-5.373737
3.264000,-4.293105
3.265000,-3.697420
3.266000,-2.952815
3.267000,-2.224756
3.268000,-1.463603
3.269000,-1.340139
3.270000,-1.513244
3.271000,-1.562884
3.272000,-1.685076
3.273000,-1.650709
3.274000,-1.346503
3.275000,-1.095756
3.276000,-0.041852
3.277000,0.608564
3.278000,1.304802
3.279000,0.995504
3.280000,-0.022760
3.281000,-0.808096
3.282000,-1.702895
3.283000,-2.506051
3.284000,-2.203118
3.285000,-1.825087
3.286000,-1.937096
3.287000,-2.065652
3.288000,-2.315127
3.289000,-2.609150
3.290000,-2.861171
3.291000,-2.770800
3.292000,-2.500960
3.293000,-2.074562
3.294000,-1.499243
3.295000,-1.097028
3.296000,-0.683359
3.297000,-0.502617
3.298000,-0.660448
3.299000,-0.939197
3.300000,-0.758456
3.301000,-0.628627
3.302000,-0.409700
3.303000,-0.452976
3.304000,0.140162
3.305000,1.138061
3.306000,1.066783
3.307000,0.984049
3.308000,0.341269
3.309000,-0.573895
3.310000,-1.727079
3.311000,-2.881536
3.312000,-3.357574
3.313000,-2.775891
3.314000,-2.833169
3.315000,-2.670246
3.316000,-2.530235
3.317000,-2.544236
3.318000,-2.745343
3.319000,-2.821713
3.320000,-2.670246
3.321000,-2.620606
3.322000,-2.456411
3.323000,-2.080926
3.324000,-0.276053
3.325000,0.723118
3.326000,1.230978
3.327000,0.749848
3.328000,0.009061
3.329000,-0.692268
3.330000,-1.766537
3.331000,-2.736433
3.332000,-3.351210
3.333000,-3.678328
3.334000,-3.755970
3.335000,-3.507768
3.336000,-3.184470
3.337000,-2.439864
3.338000,-1.315955
3.339000,-0.175499
3.340000,-0.025306
3.341000,-0.179318
3.342000,0.019243
3.343000,-0.183136
3.344000,-0.801732
3.345000,-1.307045
3.346000,-1.715624
3.347000,-2.458956
3.348000,-3.033003
3.349000,-3.299024
3.350000,-3.325754
3.351000,-2.550600
3.352000,-1.266315
3.353000,-0.085129
3.354000,0.425276
3.355000,0.107069
3.356000,-0.847554
3.357000,-1.804722
3.358000,-2.273123
3.359000,-2.198026
3.360000,-2.226029
3.361000,-1.461058
3.362000,-0.430065
3.363000,-0.370242
3.364000,-0.589169
3.365000,-1.032114
3.366000,-1.550156
3.367000,-2.252758
3.368000,-2.794984
3.369000,-2.950269
3.370000,-2.873899
3.371000,-2.605332
3.372000,-2.284579
3.373000,-1.366868
3.374000,-0.764820
3.375000,0.143981
3.376000,1.129151
3.377000,1.816479
3.378000,1.904305
3.379000,1.409174
3.380000,0.317086
3.381000,-1.020659
3.382000,-2.378768
3.383000,-3.675782
3.384000,-4.449663
3.385000,-4.548943
3.386000,-4.174731
3.387000,-2.723705
3.388000,-1.668529
3.389000,-1.508152
3.390000,-1.681257
3.391000,-1.739808
3.392000,-1.748717
3.393000,-1.930732
3.394000,-2.030013
3.395000,-2.038923
3.396000,-2.007102
3.397000,-1.846725
3.398000,-1.651982
3.399000,-1.569248
3.400000,-0.978655
3.401000,-0.281144
3.402000,-0.298964
3.403000,-0.720271
3.404000,-1.099574
3.405000,-0.949380
3.406000,-0.657902
3.407000,-0.113131
3.408000,-0.142406
3.409000,0.250899
3.410000,-0.012577
3.411000,-0.376607
3.412000,-1.235767
3.413000,-1.886183
3.414000,-2.250212
3.415000,-2.792438
3.416000,-3.029184
3.417000,-3.263385
3.418000,-3.248111
3.419000,-3.086462
3.420000,-2.560783
3.421000,-2.308763
3.422000,-1.906548
3.423000,-1.832724
3.424000,-1.888729
3.425000,-1.532336
3.426000,-1.133940
3.427000,-1.249768
3.428000,-1.431783
3.429000,-1.761446
3.430000,-1.426691
3.431000,-1.266315
3.432000,-1.275225
3.433000,-0.281144
3.434000,0.356543
3.435000,0.138890
3.436000,-0.498798
3.437000,-1.338866
3.438000,-1.841634
3.439000,-2.442410
3.440000,-2.147113
3.441000,-1.616343
3.442000,-0.660448
3.443000,-0.536983
3.444000,-0.370242
3.445000,0.888586
3.446000,1.014597
3.447000,0.623838
3.448000,-0.479706
3.449000,-1.639254
3.450000,-2.934995
3.451000,-4.010536
3.452000,-4.580764
3.453000,-4.915518
3.454000,-4.924428
3.455000,-4.491666
3.456000,-3.661781
3.457000,-2.924812
3.458000,-2.520052
3.459000,-1.999465
3.460000,-1.469968
3.461000,-1.146669
3.462000,-0.539529
3.463000,-0.267143
3.464000,-0.287509
3.465000,-0.195865
3.466000,-0.394426
3.467000,-0.629900
3.468000,-0.822097
3.469000,-0.811914
3.470000,-0.651538
3.471000,-0.752091
3.472000,-0.982474
3.473000,-1.214129
3.474000,-1.481423
3.475000,-1.770355
3.476000,-1.988009
3.477000,-1.918004
3.478000,-0.937925
3.479000,-0.237868
3.480000,0.053610
3.481000,-0.105494
3.482000,-0.544620
3.483000,-1.351594
3.484000,-2.045287
3.485000,-2.409316
3.486000,-2.707158
3.487000,-2.623152
3.488000,-2.308763
3.489000,-2.061834
3.490000,-2.018557
3.491000,-2.098746
3.492000,-1.723261
3.493000,-1.436874
3.494000,-1.422873
3.495000,-1.224311
3.496000,-0.599352
3.497000,-0.526801
3.498000,-0.704997
3.499000,1.092239
3.500000,2.020132
3.501000,1.412992
3.502000,0.145254
3.503000,-1.206492
3.504000,-2.395315
3.505000,-3.321935
3.506000,-3.847614
3.507000,-3.716513
3.508000,-3.245565
3.509000,-2.209482
3.510000,-1.511971
3.511000,-1.267588
3.512000,-1.063935
3.513000,0.332360
3.514000,0.781669
3.515000,0.058701
3.516000,-0.842462
3.517000,-1.793266
3.518000,-2.466593
3.519000,-3.363939
3.520000,-3.444127
3.521000,-3.423762
3.522000,-3.220109
3.523000,-2.876445
3.524000,-2.647335
3.525000,-2.520052
3.526000,-2.656245
3.527000,-2.821713
3.528000,-2.931176
3.529000,-2.798802
3.530000,-2.674065
3.531000,-2.377495
3.532000,-1.905275
3.533000,-1.478877
3.534000,-1.142850
3.535000,-0.973564
3.536000,0.171983
3.537000,1.041326
3.538000,1.528820
3.539000,1.146971
3.540000,0.239443
3.541000,-0.864101
3.542000,-1.723261
3.543000,-2.357130
3.544000,-2.668973
3.545000,-2.680429
3.546000,-2.542963
3.547000,-2.162387
3.548000,-1.411417
3.549000,-1.262496
3.550000,-1.315955
3.551000,-1.392325
3.552000,-0.912468
3.553000,0.108342
3.554000,0.233079
3.555000,-0.206047
3.556000,-0.974837
3.557000,-1.553974
3.558000,-1.998192
3.559000,-2.377495
3.560000,-2.666428
3.561000,-2.780982
3.562000,-2.698249
3.563000,-2.448774
3.564000,-1.967644
3.565000,-1.079209
3.566000,-0.836098
3.567000,0.005242
3.568000,0.537285
3.569000,0.084158
3.570000,-0.662993
3.571000,-1.411417
3.572000,-1.901457
3.573000,-1.333775
3.574000,-0.665539
3.575000,-0.605716
3.576000,-1.091937
3.577000,-1.597251
3.578000,-1.873455
3.579000,-1.884910
3.580000,-1.872182
3.581000,-2.209482
3.582000,-2.327855
3.583000,-2.276942
3.584000,-2.325309
3.585000,-2.265486
3.586000,-2.338038
3.587000,-2.490777
3.588000,-2.513688
3.589000,-2.315127
3.590000,-2.082199
3.591000,-2.101291
3.592000,-1.272679
3.593000,-0.580259
3.594000,-0.615899
3.595000,-0.643901
3.596000,-0.913741
3.597000,-0.810642
3.598000,-0.318056
3.599000,0.014152
3.600000,-0.535710
3.601000,-1.169580
3.602000,-1.881092
3.603000,-2.489504
3.604000,-2.901901
3.605000,-2.808985
3.606000,-2.429681
3.607000,-1.766537
3.608000,-0.978655
3.609000,-0.944289
3.610000,-1.182308
3.611000,-1.629071
3.612000,-2.120384
3.613000,-2.395315
3.614000,-2.509870
3.615000,-2.358403
3.616000,-1.480150
3.617000,-0.486070
3.618000,-0.307874
3.619000,-0.613353
3.620000,-1.197582
3.621000,-1.761446
3.622000,-2.097473
3.623000,-2.242575
3.624000,-1.032114
3.625000,-0.029124
3.626000,0.140162
3.627000,0.056156
3.628000,-0.291327
3.629000,-1.183581
3.630000,-2.072016
3.631000,-2.648608
3.632000,-2.474230
3.633000,-2.307490
3.634000,-2.184025
3.635000,-2.247667
3.636000,-2.252758
3.637000,-2.252758
3.638000,-1.961280
3.639000,-1.653255
3.640000,-0.831007
3.641000,-0.622263
3.642000,-0.664266
3.643000,-0.794095
3.644000,-1.183581
3.645000,-1.809813
3.646000,-2.362221
3.647000,-1.876000
3.648000,-1.401235
3.649000,-1.223039
3.650000,-1.074117
3.651000,-0.725362
3.652000,-0.682086
3.653000,-1.086846
3.654000,-1.357959
3.655000,-1.079209
3.656000,-0.862828
3.657000,-0.697360
3.658000,-0.875556
3.659000,-0.507708
3.660000,0.028153
3.661000,-0.241687
3.662000,-0.200956
3.663000,-0.936652
3.664000,-1.988009
3.665000,-2.983362
3.666000,-3.645234
3.667000,-4.176004
3.668000,-4.316015
3.669000,-3.976170
3.670000,-3.409760
3.671000,-2.951542
3.672000,-2.520052
3.673000,-2.187844
3.674000,-1.099574
3.675000,-0.412246
3.676000,1.075692
3.677000,1.687924
3.678000,1.155881
3.679000,0.990413
3.680000,-0.010032
3.681000,-1.324865
3.682000,-2.492050
3.683000,-3.390668
3.684000,-3.887072
3.685000,-3.951986
3.686000,-3.689783
3.687000,-3.357574
3.688000,-3.082643
3.689000,-2.881536
3.690000,-2.559510
3.691000,-1.906548
3.692000,-1.368141
3.693000,-1.005385
3.694000,-0.775002
3.695000,-0.608262
3.696000,-0.395699
3.697000,-0.419883
3.698000,-0.489889
3.699000,-0.735545
3.700000,-0.945562
3.701000,-1.035933
3.702000,-1.069026
3.703000,-1.121212
3.704000,-0.887011
3.705000,-0.752091
3.706000,-0.827188
3.707000,-1.032114
3.708000,-1.276497
3.709000,-1.494151
3.710000,-1.261223
3.711000,-1.293044
3.712000,-1.289226
3.713000,-1.254859
3.714000,-0.362606
3.715000,0.300539
3.716000,0.608564
3.717000,0.900042
3.718000,0.533467
3.719000,0.460915
3.720000,0.884768
3.721000,0.250899
3.722000,-0.549712
3.723000,-1.445784
3.724000,-2.087290
3.725000,-3.178105
3.726000,-4.230736
3.727000,-5.063167
3.728000,-5.576117
3.729000,-5.492110
3.730000,-5.280821
3.731000,-4.667317
3.732000,-3.811975
3.733000,-3.293933
3.734000,-2.004556
3.735000,-1.118667
3.736000,-0.908650
3.737000,-0.993929
3.738000,-1.167034
3.739000,-1.240858
3.740000,-1.401235
3.741000,-1.267588
3.742000,-1.243404
3.743000,-1.268860
3.744000,-1.173398
3.745000,-0.946834
3.746000,-0.361333
3.747000,0.280174
3.748000,0.062520
3.749000,-0.363878
3.750000,-0.879374
3.751000,-1.421600
3.752000,-1.673620
3.753000,-1.789448
3.754000,-1.816177
3.755000,-1.494151
3.756000,-1.080482
3.757000,-0.762274
3.758000,-0.795368
3.759000,-0.717725
3.760000,-0.268416
3.761000,-0.629900
3.762000,-0.897194
3.763000,-0.643901
3.764000,-1.117394
3.765000,-1.611252
3.766000,-2.117838
3.767000,-2.112747
3.768000,-2.284579
3.769000,-2.360949
3.770000,-2.292216
3.771000,-2.423317
3.772000,-2.539145
3.773000,-2.522598
3.774000,-2.438591
3.775000,-2.508597
3.776000,-2.416953
3.777000,-1.800903
3.778000,-1.417782
3.779000,-1.121212
3.780000,-0.780094
3.781000,-0.265870
3.782000,0.869494
3.783000,0.894951
3.784000,0.194894
3.785000,-0.646447
3.786000,-1.560339
3.787000,-2.218392
3.788000,-2.682975
3.789000,-2.899356
3.790000,-2.992272
3.791000,-2.583694
3.792000,-1.679985
3.793000,0.318359
3.794000,1.336623
3.795000,0.915316
3.796000,0.077794
3.797000,-1.125031
3.798000,-1.070299
3.799000,-1.413963
3.800000,-2.304944
3.801000,-2.532781
3.802000,-2.802621
3.803000,-3.231564
3.804000,-3.730514
3.805000,-4.009263
3.806000,-4.048721
3.807000,-3.847614
3.808000,-3.386850
3.809000,-2.838260
3.810000,-2.371131
3.811000,-1.993101
3.812000,-1.515789
3.813000,-0.977382
3.814000,-0.913741
3.815000,-0.884466
3.816000,-0.438975
3.817000,0.061247
3.818000,0.319631
3.819000,0.179620
3.820000,-0.152589
3.821000,-0.468250
3.822000,-0.855191
3.823000,-1.355413
3.824000,-1.727079
3.825000,-0.775002
3.826000,-0.132223
3.827000,0.252171
3.828000,0.631475
3.829000,0.009061
3.830000,-0.894648
3.831000,-1.830178
3.832000,-2.620606
3.833000,-3.188288
3.834000,-3.411033
3.835000,-2.867535
3.836000,-2.262941
3.837000,-1.821269
3.838000,-1.244677
3.839000,-0.641355
3.840000,-0.194592
3.841000,-0.400790
3.842000,-1.042297
3.843000,-1.735989
3.844000,-2.324037
3.845000,-2.702067
3.846000,-2.903174
3.847000,-2.522598
3.848000,-2.330401
3.849000,-2.364767
3.850000,-2.201845
3.851000,-2.164933
3.852000,-1.883637
3.853000,-0.576441
3.854000,-0.324421
3.855000,-0.520436
3.856000,-0.888284
3.857000,-1.280316
3.858000,-1.132668
3.859000,0.590744
3.860000,1.587370
3.861000,1.293346
3.862000,0.416366
3.863000,-0.785185
3.864000,-1.975281
3.865000,-3.260839
3.866000,-4.252374
3.867000,-4.800964
3.868000,-4.747505
3.869000,-4.013082
3.870000,-3.153922
3.871000,-2.158569
3.872000,-1.238313
3.873000,-1.108484
3.874000,-1.342685
3.875000,-1.298136
3.876000,-1.201400
3.877000,-1.230676
3.878000,-1.361777
3.879000,-0.809369
3.880000,-0.721544
3.881000,-1.093210
3.882000,-1.366868
3.883000,-1.709260
3.884000,-2.012193
3.885000,-2.198026
3.886000,-2.236211
3.887000,-2.030013
3.888000,-1.719442
3.889000,-1.420327
3.890000,-1.056298
3.891000,-0.908650
3.892000,-0.069855
3.893000,0.667114
3.894000,0.588198
3.895000,0.057428
3.896000,-0.726635
3.897000,-1.223039
3.898000,-1.891274
3.899000,-2.518780
3.900000,-2.792438
3.901000,-2.770800
3.902000,-2.565874
3.903000,-2.388951
3.904000,-2.173843
3.905000,-1.985464
3.906000,-1.352867
3.907000,-0.869192
3.908000,-0.749546
3.909000,-0.852645
3.910000,-0.921378
3.911000,-0.831007
3.912000,0.079067
3.913000,0.761303
3.914000,0.784214
3.915000,-0.015123
3.916000,-0.974837
3.917000,-2.106383
3.918000,-2.884082
3.919000,-3.278659
3.920000,-3.222654
3.921000,-3.022820
3.922000,-2.909538
3.923000,-2.642244
3.924000,-2.366040
3.925000,-2.122929
3.926000,-1.949824
3.927000,-1.826360
3.928000,-1.597251
3.929000,-1.457239
3.930000,-1.326138
3.931000,-1.221766
3.932000,-1.184854
3.933000,-1.326138
3.934000,-1.387234
3.935000,-1.487787
3.936000,-0.470796
3.937000,0.670932
3.938000,0.874585
3.939000,0.355271
3.940000,-0.314238
3.941000,-1.178490
3.942000,-2.083472
3.943000,-2.856079
3.944000,-3.198471
3.945000,-3.176833
3.946000,-3.044458
3.947000,-2.764436
3.948000,-2.359676
3.949000,-1.481423
3.950000,-0.147497
3.951000,0.603472
3.952000,0.796943
3.953000,0.566560
3.954000,-0.347332
3.955000,-1.584522
3.956000,-2.662609
3.957000,-3.391941
3.958000,-3.045731
3.959000,-2.884082
3.960000,-2.747889
3.961000,-1.697804
3.962000,-0.346059
3.963000,-0.073673
3.964000,-0.435157
3.965000,-0.492434
3.966000,-0.297691
3.967000,-0.320602
3.968000,-0.833553
3.969000,-1.389779
3.970000,-1.833997
3.971000,-2.227301
3.972000,-2.568420
3.973000,-3.021547
3.974000,-3.103008
3.975000,-3.239201
3.976000,-3.492494
3.977000,-3.530679
3.978000,-3.260839
3.979000,-3.012638
3.980000,-2.717341
3.981000,-2.312581
3.982000,-1.939642
3.983000,-1.677439
3.984000,-1.406326
3.985000,-1.265042
3.986000,-1.240858
3.987000,-1.079209
3.988000,-0.953199
3.989000,-0.907377
3.990000,-0.684631
3.991000,-0.304055
3.992000,0.506737
3.993000,0.515647
3.994000,0.145254
3.995000,-0.309147
3.996000,-0.556076
3.997000,-0.995202
3.998000,-1.419054
3.999000,-1.620162
4.000000,-1.979100
4.001000,-1.795812
4.002000,-1.576885
4.003000,-1.533609
4.004000,-1.602342
4.005000,-1.705441
4.006000,-1.851817
4.007000,-1.914185
4.008000,-1.883637
4.009000,-1.747445
4.010000,-1.644345
4.011000,-1.373233
4.012000,-0.806823
4.013000,-0.433884
4.014000,-0.735545
4.015000,-0.955744
4.016000,-1.079209
4.017000,-1.449602
4.018000,-2.031286
4.019000,-1.775447
4.020000,0.669660
4.021000,2.110503
4.022000,2.694732
4.023000,2.091411
4.024000,0.588198
4.025000,-1.000293
4.026000,-2.654972
4.027000,-4.090725
4.028000,-5.038983
4.029000,-5.215906
4.030000,-4.590947
4.031000,-4.141638
4.032000,-3.777608
4.033000,-3.604503
4.034000,-3.572683
4.035000,-3.021547
4.036000,-1.364323
4.037000,-0.578987
4.038000,-0.416064
4.039000,-0.127132
4.040000,-0.158953
4.041000,-0.640082
4.042000,-1.298136
4.043000,-1.821269
4.044000,-2.175115
4.045000,-1.946006
4.046000,-1.594705
4.047000,-1.573067
4.048000,-1.744899
4.049000,-1.519608
4.050000,-1.476332
4.051000,-1.622707
4.052000,-1.592159
4.053000,-1.529791
4.054000,-1.730898
4.055000,-1.929459
4.056000,-2.060561
4.057000,-2.092381
4.058000,-2.122929
4.059000,-2.187844
4.060000,-1.897638
4.061000,-1.705441
4.062000,-1.581977
4.063000,-1.382142
4.064000,-1.200128
4.065000,-0.888284
4.066000,-0.598079
4.067000,0.266173
4.068000,0.233079
4.069000,-0.124586
4.070000,-0.380425
4.071000,-0.720271
4.072000,-1.132668
4.073000,-1.594705
4.074000,-1.909094
4.075000,-2.191662
4.076000,-2.289670
4.077000,-2.326582
4.078000,-2.159841
4.079000,-1.188672
4.080000,-0.810642
4.081000,-0.656629
4.082000,-0.209866
4.083000,0.561469
4.084000,0.161800
4.085000,-0.202229
4.086000,-0.796641
4.087000,-0.995202
4.088000,-1.623980
4.089000,-2.133112
4.090000,-2.184025
4.091000,-2.335492
4.092000,-2.735161
4.093000,-2.968088
4.094000,-2.919721
4.095000,-2.667701
4.096000,-2.163660
4.097000,-0.441521
4.098000,0.272537
4.099000,0.210168
4.100000,-0.424974
4.101000,-1.184854
4.102000,-1.932005
4.103000,-2.363494
4.104000,-2.554419
4.105000,-2.670246
4.106000,-2.668973
4.107000,-2.635880
4.108000,-2.593876
4.109000,-2.742798
4.110000,-2.727524
4.111000,-2.376223
4.112000,-2.045287
4.113000,-1.839088
4.114000,-1.645618
4.115000,-0.787731
4.116000,-0.367697
4.117000,-0.571350
4.118000,-1.038478
4.119000,-1.450875
4.120000,-1.111030
4.121000,-0.610807
4.122000,-0.195865
4.123000,-0.180591
4.124000,-0.540802
4.125000,-1.234494
4.126000,-1.346503
4.127000,-1.234494
4.128000,-1.272679
4.129000,-0.959563
4.130000,-1.355413
4.131000,-1.850544
4.132000,-2.489504
4.133000,-2.863716
4.134000,-3.156467
4.135000,-2.458956
4.136000,-2.176388
4.137000,-1.859454
4.138000,-1.715624
4.139000,-1.858181
4.140000,-1.940915
4.141000,-1.859454
4.142000,-0.931561
4.143000,-0.311692
4.144000,-0.484797
4.145000,-1.041024
4.146000,-1.643072
4.147000,-2.122929
4.148000,-2.478049
4.149000,-2.469139
4.150000,-2.503506
4.151000,-2.396588
4.152000,-2.161114
4.153000,-1.402508
4.154000,-1.084300
4.155000,-0.361333
4.156000,-0.101675
4.157000,-0.110585
4.158000,-0.450431
4.159000,-0.988838
4.160000,-1.127576
4.161000,-0.930288
4.162000,-1.005385
4.163000,-1.247222
4.164000,-1.504334
4.165000,-1.789448
4.166000,-1.654528
4.167000,-1.727079
4.168000,-1.902730
4.169000,-1.966371
4.170000,-2.100018
4.171000,-2.033831
4.172000,-1.286680
4.173000,-0.452976
4.174000,-0.465705
4.175000,-0.693541
4.176000,-1.066480
4.177000,-1.410145
4.178000,-1.870909
4.179000,-2.334219
4.180000,-2.568420
4.181000,-2.138203
4.182000,-1.949824
4.183000,-0.992656
4.184000,0.621292
4.185000,1.308620
4.186000,1.328986
4.187000,0.416366
4.188000,-0.962108
4.189000,-1.720715
4.190000,-2.252758
4.191000,-2.723705
4.192000,-2.998636
4.193000,-3.173014
4.194000,-2.341856
4.195000,-1.855635
4.196000,-1.525972
4.197000,-0.244232
4.198000,0.219078
4.199000,0.382000
4.200000,-0.463159
4.201000,-1.471240
4.202000,-2.559510
4.203000,-3.852705
4.204000,-4.551489
4.205000,-4.708047
4.206000,-4.335108
4.207000,-3.633779
4.208000,-2.903174
4.209000,-2.229847
4.210000,-1.802176
4.211000,-1.819996
4.212000,-1.793266
4.213000,-1.869636
4.214000,-1.785629
4.215000,-1.682530
4.216000,-1.360504
4.217000,-1.095756
4.218000,-0.949380
4.219000,-0.734272
4.220000,-0.596806
4.221000,-0.217503
4.222000,-0.171681
4.223000,-0.213684
4.224000,0.197440
4.225000,0.105796
4.226000,-0.242959
4.227000,-0.720271
4.228000,-1.286680
4.229000,-1.831451
4.230000,-2.279487
4.231000,-2.467866
4.232000,-2.430954
4.233000,-2.373677
4.234000,-2.212027
4.235000,-1.981645
4.236000,-1.581977
4.237000,-1.223039
4.238000,-1.223039
4.239000,-1.123758
4.240000,-1.063935
4.241000,-1.118667
4.242000,-0.460613
4.243000,-0.128405
4.244000,-0.371515
4.245000,-0.918832
4.246000,-1.469968
4.247000,-1.849271
4.248000,-1.439420
4.249000,-0.648992
4.250000,-0.688450
4.251000,-0.604443
4.252000,-0.550984
4.253000,-0.171681
4.254000,-0.421156
4.255000,-1.165761
4.256000,-1.979100
4.257000,-2.380041
4.258000,-2.495869
4.259000,-2.811530
4.260000,-2.899356
4.261000,-2.870081
4.262000,-2.182752
4.263000,-1.234494
4.264000,0.063793
4.265000,0.471098
4.266000,0.404911
4.267000,-0.161498
4.268000,-1.225584
4.269000,-2.436046
4.270000,-3.556136
4.271000,-3.988898
4.272000,-3.916347
4.273000,-3.568864
4.274000,-2.974453
4.275000,-2.642244
4.276000,-1.709260
4.277000,-0.409700
4.278000,-0.319329
4.279000,-0.550984
4.280000,-0.632445
4.281000,0.917861
4.282000,1.559368
4.283000,0.898769
4.284000,-0.113131
4.285000,-1.309591
4.286000,-2.567147
4.287000,-3.892163
4.288000,-4.719503
4.289000,-5.021163
4.290000,-4.809873
4.291000,-3.857797
4.292000,-3.031730
4.293000,-2.620606
4.294000,-2.161114
4.295000,-1.720715
4.296000,-1.140305
4.297000,-0.748273
4.298000,-0.740636
4.299000,-0.346059
4.300000,-0.031670
4.301000,-0.158953
4.302000,0.173256
4.303000,0.309449
4.304000,-0.155134
4.305000,-0.862828
4.306000,-1.485242
4.307000,-1.967644
4.308000,-2.442410
4.309000,-2.668973
4.310000,-2.007102
4.311000,-0.144952
4.312000,0.934408
4.313000,0.832582
4.314000,0.056156
4.315000,-1.007930
4.316000,-2.138203
4.317000,-2.969361
4.318000,-3.293933
4.319000,-3.399578
4.320000,-3.285023
4.321000,-2.825532
4.322000,-2.427136
4.323000,-2.008375
4.324000,-1.743626
4.325000,-1.658346
4.326000,-1.673620
4.327000,-1.611252
4.328000,-1.426691
4.329000,-1.193763
4.330000,-1.043570
4.331000,-0.972291
4.332000,-0.883193
4.333000,-0.923924
4.334000,-0.855191
4.335000,-0.773730
4.336000,-0.894648
4.337000,-0.755910
4.338000,-0.497525
4.339000,-0.609535
4.340000,-0.939197
4.341000,-1.317228
4.342000,-1.701623
4.343000,-2.054197
4.344000,-2.134385
4.345000,-1.921822
4.346000,-1.058844
4.347000,-0.528073
4.348000,-0.562440
4.349000,-0.955744
4.350000,-1.424146
4.351000,-1.914185
4.352000,-2.017284
4.353000,-0.339695
4.354000,0.611109
4.355000,2.120686
4.356000,2.531810
4.357000,1.452450
4.358000,-0.184409
4.359000,-2.049105
4.360000,-3.739423
4.361000,-4.793327
4.362000,-5.307550
4.363000,-5.403012
4.364000,-4.975341
4.365000,-4.216735
4.366000,-2.985908
4.367000,-2.414407
4.368000,-2.180207
4.369000,-1.209037
4.370000,-0.077492
4.371000,1.718472
4.372000,1.685378
4.373000,1.135515
4.374000,0.141435
4.375000,-1.210310
4.376000,-2.383860
4.377000,-2.584967
4.378000,-2.819167
4.379000,-2.741525
4.380000,-2.746616
4.381000,-2.784801
4.382000,-2.982090
4.383000,-3.201016
4.384000,-3.171741
4.385000,-3.166650
4.386000,-3.043185
4.387000,-2.941359
4.388000,-2.494596
4.389000,-1.974008
4.390000,-1.721988
4.391000,-1.635435
4.392000,-1.473786
4.393000,-1.355413
4.394000,-1.337593
4.395000,-1.201400
4.396000,-0.869192
4.397000,-0.506435
4.398000,-0.305328
4.399000,-0.325693
4.400000,-0.503890
4.401000,-0.654084
4.402000,-0.958290
4.403000,-1.184854
4.404000,-1.403780
4.405000,-1.412690
4.406000,-1.365596
4.407000,-1.312137
4.408000,-0.497525
4.409000,-0.178045
4.410000,-0.202229
4.411000,-0.421156
4.412000,-0.582805
4.413000,-1.085573
4.414000,-1.644345
4.415000,-1.891274
4.416000,-1.963826
4.417000,-2.028740
4.418000,-1.855635
4.419000,-1.500516
4.420000,-1.413963
4.421000,-1.524699
4.422000,-1.615070
4.423000,-1.559066
4.424000,-1.450875
4.425000,-1.183581
4.426000,-0.160226
4.427000,2.153779
4.428000,2.976028
4.429000,2.426165
4.430000,1.092239
4.431000,-0.104221
4.432000,-1.329956
4.433000,-2.372404
4.434000,-3.048277
4.435000,-3.744515
4.436000,-4.144183
4.437000,-4.095816
4.438000,-3.565046
4.439000,-3.505223
4.440000,-3.561227
4.441000,-3.673236
4.442000,-3.524315
4.443000,-3.337209
4.444000,-3.011365
4.445000,-2.703340
4.446000,-2.469139
4.447000,-1.537428
4.448000,0.105796
4.449000,0.688752
4.450000,0.353998
4.451000,-0.342240
4.452000,-0.937925
4.453000,-1.645618
4.454000,-2.332946
4.455000,-2.717341
4.456000,-2.929904
4.457000,-2.838260
4.458000,-2.531508
4.459000,-2.158569
4.460000,-1.100847
4.461000,-0.642628
4.462000,-0.684631
4.463000,-0.662993
4.464000,-0.946834
4.465000,-0.962108
4.466000,-1.128849
4.467000,-1.552702
4.468000,-1.762718
4.469000,-1.779265
4.470000,-1.193763
4.471000,-1.100847
4.472000,-1.271406
4.473000,-1.411417
4.474000,-1.417782
4.475000,-0.829734
4.476000,-0.670630
4.477000,-1.035933
4.478000,-1.125031
4.479000,-1.071572
4.480000,-1.525972
4.481000,-1.340139
4.482000,-0.781367
4.483000,-0.741909
4.484000,-0.857736
4.485000,-1.144123
4.486000,-1.513244
4.487000,-1.906548
4.488000,-2.298580
4.489000,-2.428409
4.490000,-2.232393
4.491000,-1.645618
4.492000,-0.633718
4.493000,-0.231504
4.494000,-0.442794
4.495000,-1.053752
4.496000,-1.673620
4.497000,-2.254031
4.498000,-2.783528
4.499000,-3.031730
4.500000,-3.128465
4.501000,-2.913357
4.502000,-2.341856
4.503000,-1.285407
4.504000,-0.740636
4.505000,-0.613353
4.506000,-0.634991
4.507000,-0.459341
4.508000,0.431640
4.509000,1.043872
4.510000,0.966229
4.511000,0.331087
4.512000,-0.577714
4.513000,-1.765264
4.514000,-2.853534
4.515000,-3.612140
4.516000,-3.744515
4.517000,-3.125919
4.518000,-2.698249
4.519000,-2.416953
4.520000,-2.171297
4.521000,-1.944733
4.522000,-2.079653
4.523000,-2.303671
4.524000,-2.560783
4.525000,-2.276942
4.526000,-1.317228
4.527000,-0.710088
4.528000,-0.814460
4.529000,-1.049934
4.530000,-0.603170
4.531000,-0.693541
4.532000,-1.039751
4.533000,-1.303227
4.534000,-1.307045
4.535000,-1.016840
4.536000,-0.833553
4.537000,-0.855191
4.538000,-0.923924
4.539000,-1.410145
4.540000,-1.812359
4.541000,-2.194208
4.542000,-2.383860
4.543000,-2.331673
4.544000,-2.004556
4.545000,-1.901457
4.546000,-2.054197
4.547000,-1.934551
4.548000,-1.575612
4.549000,-1.533609
4.550000,-1.392325
4.551000,-0.880647
4.552000,0.238170
4.553000,0.761303
4.554000,0.743484
4.555000,0.389637
4.556000,-0.609535
4.557000,-1.720715
4.558000,-2.639698
4.559000,-3.352483
4.560000,-3.255748
4.561000,-2.900628
4.562000,-2.744070
4.563000,-2.508597
4.564000,-2.363494
4.565000,-2.404225
4.566000,-2.461502
4.567000,-2.355857
4.568000,-2.176388
4.569000,-2.061834
4.570000,-1.601069
4.571000,-1.336320
4.572000,-1.173398
4.573000,-1.135213
4.574000,-1.132668
4.575000,-1.061389
4.576000,-1.056298
4.577000,-1.145396
4.578000,-1.198855
4.579000,-1.032114
4.580000,-0.738090
4.581000,-0.473342
4.582000,-0.227686
4.583000,0.322177
4.584000,0.249626
4.585000,-0.102948
4.586000,-0.556076
4.587000,-1.177217
4.588000,-1.912912
4.589000,-2.252758
4.590000,-1.826360
4.591000,-1.669802
4.592000,-1.734716
4.593000,-1.720715
4.594000,-1.705441
4.595000,-1.916731
4.596000,-2.376223
4.597000,-1.368141
4.598000,-0.486070
4.599000,-0.274780
4.600000,-0.564985
4.601000,-1.240858
4.602000,-2.083472
4.603000,-2.780982
4.604000,-2.831896
4.605000,-2.702067
4.606000,-1.491606
4.607000,-0.503890
4.608000,0.283992
4.609000,1.136788
4.610000,1.477907
4.611000,1.284436
4.612000,0.374363
4.613000,-0.451704
4.614000,-1.336320
4.615000,-2.511143
4.616000,-3.860342
4.617000,-4.920610
4.618000,-5.343189
4.619000,-5.372464
4.620000,-5.103897
4.621000,-4.732231
4.622000,-4.188732
4.623000,-3.533225
4.624000,-2.567147
4.625000,-1.971463
4.626000,-1.709260
4.627000,-1.384688
4.628000,-1.090664
4.629000,-1.079209
4.630000,-1.181035
4.631000,-1.183581
4.632000,-1.167034
4.633000,-1.025750
4.634000,-0.864101
4.635000,-0.777548
4.636000,-0.748273
4.637000,-0.731726
4.638000,-0.632445
4.639000,0.114706
4.640000,1.115150
4.641000,1.265344
4.642000,0.883495
4.643000,0.285265
4.644000,-0.431338
4.645000,-1.097028
4.646000,-1.678712
4.647000,-1.968917
4.648000,-2.176388
4.649000,-2.430954
4.650000,-2.550600
4.651000,-2.604059
4.652000,-2.540418
4.653000,-2.395315
4.654000,-2.209482
4.655000,-1.891274
4.656000,-1.644345
4.657000,-1.589614
4.658000,-1.653255
4.659000,-1.658346
4.660000,-1.672348
4.661000,-1.637981
4.662000,-1.538700
4.663000,-1.273952
4.664000,-1.111030
4.665000,-1.016840
4.666000,-0.985019
4.667000,-0.619717
4.668000,0.448187
4.669000,1.028598
4.670000,1.350624
4.671000,1.000595
4.672000,0.866948
4.673000,0.149072
4.674000,-0.412246
4.675000,-0.850099
4.676000,-1.965098
4.677000,-2.968088
4.678000,-3.920165
4.679000,-4.467482
4.680000,-4.316015
4.681000,-3.543408
4.682000,-1.631617
4.683000,-1.099574
4.684000,-1.203946
4.685000,-1.612525
4.686000,-2.292216
4.687000,-2.772073
4.688000,-3.295206
4.689000,-3.678328
4.690000,-3.654144
4.691000,-3.427580
4.692000,-2.955360
4.693000,-2.372404
4.694000,-2.103837
4.695000,-1.841634
4.696000,-1.449602
4.697000,-1.168307
4.698000,-0.859009
4.699000,-0.601898
4.700000,-0.757183
4.701000,-1.034660
4.702000,-1.002839
4.703000,-0.946834
4.704000,0.262354
4.705000,0.653113
4.706000,0.567833
4.707000,-0.027851
4.708000,-0.713907
4.709000,-1.169580
4.710000,-1.728352
4.711000,-2.254031
4.712000,-2.578603
4.713000,-2.705886
4.714000,-2.657518
4.715000,-2.502233
4.716000,-2.362221
4.717000,-2.176388
4.718000,-1.985464
4.719000,-1.845452
4.720000,-1.553974
4.721000,-1.144123
4.722000,-1.072845
4.723000,-1.144123
4.724000,-1.038478
4.725000,-0.725362
4.726000,-0.312965
4.727000,-0.181864
4.728000,-0.301510
4.729000,-0.738090
4.730000,-1.069026
4.731000,-0.708815
4.732000,0.318359
4.733000,0.765122
4.734000,0.346361
4.735000,-0.482252
4.736000,-1.541246
4.737000,-2.360949
4.738000,-3.078825
4.739000,-3.563773
4.740000,-3.245565
4.741000,-2.808985
4.742000,-2.428409
4.743000,-2.122929
4.744000,-1.999465
4.745000,-2.180207
4.746000,-2.065652
4.747000,-1.893820
4.748000,-1.328683
4.749000,-0.459341
4.750000,-0.208593
4.751000,-0.115676
4.752000,-0.221321
4.753000,-0.332058
4.754000,-0.735545
4.755000,-1.464876
4.756000,-2.312581
4.757000,-3.043185
4.758000,-3.293933
4.759000,-3.085189
4.760000,-2.485686
4.761000,-2.283306
4.762000,-2.213300
4.763000,-2.159841
4.764000,-1.683803
4.765000,-1.063935
4.766000,-0.943016
4.767000,-1.002839
4.768000,-1.020659
4.769000,-0.357514
4.770000,-0.690996
4.771000,-0.267143
4.772000,-0.217503
4.773000,-0.688450
4.774000,-1.430510
4.775000,-2.364767
4.776000,-3.007546
4.777000,-3.119555
4.778000,-3.021547
4.779000,-2.563329
4.780000,-2.143295
4.781000,-1.774174
4.782000,-1.653255
4.783000,-1.665983
4.784000,-1.590886
4.785000,-1.629071
4.786000,-1.812359
4.787000,-1.784357
4.788000,-1.545065
4.789000,-1.455966
4.790000,-1.433056
4.791000,-1.462331
4.792000,-1.383415
4.793000,-1.221766
4.794000,-0.878102
4.795000,0.058701
4.796000,0.592017
4.797000,0.627656
4.798000,0.290356
4.799000,-0.409700
4.800000,-1.270133
4.801000,-2.070743
4.802000,-2.639698
4.803000,-2.909538
4.804000,-1.844180
4.805000,-0.323148
4.806000,0.674751
4.807000,0.874585
4.808000,0.170710
4.809000,-0.586624
4.810000,-1.636708
4.811000,-2.383860
4.812000,-3.310480
4.813000,-4.028356
4.814000,-4.252374
4.815000,-4.029629
4.816000,-3.608322
4.817000,-3.239201
4.818000,-2.483140
4.819000,-2.033831
4.820000,-1.831451
4.821000,-1.604888
4.822000,-1.450875
4.823000,-1.453421
4.824000,-1.279043
4.825000,-1.074117
4.826000,-1.081754
4.827000,-0.941743
4.828000,-0.828461
4.829000,-0.447885
4.830000,-0.539529
4.831000,-0.773730
4.832000,-1.063935
4.833000,-1.413963
4.834000,-1.711805
4.835000,-1.836543
4.836000,-1.804722
4.837000,-1.749990
4.838000,-1.718169
4.839000,-1.209037
4.840000,-0.761001
4.841000,-0.548439
4.842000,-0.249324
4.843000,-0.338422
4.844000,0.007788
4.845000,0.542377
4.846000,0.348906
4.847000,0.304357
4.848000,-0.286236
4.849000,-0.850099
4.850000,-1.407599
4.851000,-2.019830
4.852000,-2.694430
4.853000,-3.161559
4.854000,-3.237928
4.855000,-3.220109
4.856000,-2.850988
4.857000,-2.686793
4.858000,-2.588785
4.859000,-1.497970
4.860000,0.599654
4.861000,2.553448
4.862000,3.463521
4.863000,2.429983
4.864000,0.681115
4.865000,-1.480150
4.866000,-3.341028
4.867000,-4.886243
4.868000,-5.922327
4.869000,-6.245626
4.870000,-6.022880
4.871000,-5.489565
4.872000,-4.774234
4.873000,-3.783973
4.874000,-2.536599
4.875000,-1.332502
4.876000,-0.730453
4.877000,-0.514072
4.878000,-0.306601
4.879000,-0.362606
4.880000,-0.814460
4.881000,-1.149214
4.882000,-1.471240
4.883000,-1.742353
4.884000,-1.901457
4.885000,-1.742353
4.886000,-1.668529
4.887000,-1.637981
4.888000,-1.665983
4.889000,-1.389779
4.890000,-1.158124
4.891000,-1.056298
4.892000,-0.659175
4.893000,-0.626081
4.894000,-0.741909
4.895000,-0.741909
4.896000,-0.912468
4.897000,-0.921378
4.898000,-0.704997
4.899000,-0.442794
4.900000,0.138890
4.901000,0.135071
4.902000,-0.189501
4.903000,-0.643901
4.904000,-0.964654
4.905000,-1.360504
4.906000,-1.825087
4.907000,-2.203118
4.908000,-2.254031
4.909000,-2.054197
4.910000,-1.896366
4.911000,-1.868363
4.912000,-1.475059
4.913000,-1.315955
4.914000,-1.301954
4.915000,-1.293044
4.916000,-1.388506
4.917000,-1.346503
4.918000,-0.156407
4.919000,0.846583
4.920000,1.022234
4.921000,0.341269
4.922000,-0.660448
4.923000,-1.830178
4.924000,-2.914630
4.925000,-3.483585
4.926000,-3.764880
4.927000,-3.618505
4.928000,-2.577330
4.929000,-2.046560
4.930000,-1.125031
4.931000,-0.861555
4.932000,-0.620990
4.933000,-1.165761
4.934000,-1.909094
4.935000,-2.553146
4.936000,-2.554419
4.937000,-2.758072
4.938000,-2.292216
4.939000,-2.242575
4.940000,-1.444511
4.941000,-1.099574
4.942000,-1.211583
4.943000,-1.597251
4.944000,-2.033831
4.945000,-2.064379
4.946000,-2.369858
4.947000,-2.717341
4.948000,-2.690612
4.949000,-2.402952
4.950000,-2.313854
4.951000,-2.142022
4.952000,-1.817450
4.953000,-1.352867
4.954000,0.133798
4.955000,0.677297
4.956000,1.247524
4.957000,1.253889
4.958000,0.817308
4.959000,-0.080037
4.960000,-0.870465
4.961000,-1.458512
4.962000,-2.018557
4.963000,-2.600241
4.964000,-3.019002
4.965000,-3.243020
4.966000,-2.904447
4.967000,-2.588785
4.968000,-2.441137
4.969000,-2.212027
4.970000,-1.779265
4.971000,-1.636708
4.972000,-1.550156
4.973000,-1.380869
4.974000,-1.368141
4.975000,-1.397416
4.976000,-1.552702
4.977000,-1.585795
4.978000,-1.430510
4.979000,-1.542519
4.980000,-1.672348
4.981000,-1.718169
4.982000,-0.951926
4.983000,-0.668085
4.984000,-0.670630
4.985000,-0.727908
4.986000,-0.502617
4.987000,-0.806823
4.988000,-1.298136
4.989000,-1.686349
4.990000,-1.412690
4.991000,-1.321046
4.992000,-1.573067
4.993000,-1.679985
4.994000,-1.137759
4.995000,-0.923924
4.996000,-1.109757
4.997000,-1.455966
4.998000,-1.755082
4.999000,-2.143295
5.000000,-1.916731
5.001000,-1.855635
5.002000,-1.933278
5.003000,-2.140749
5.004000,-1.424146
5.005000,0.127434
5.006000,1.014597
5.007000,0.311994
5.008000,-0.783912
5.009000,-1.818723
5.010000,-2.481867
5.011000,-2.912084
5.012000,-3.039367
5.013000,-2.993545
5.014000,-2.941359
5.015000,-2.712250
5.016000,-2.508597
5.017000,-2.112747
5.018000,-1.753809
5.019000,-0.999020
5.020000,-0.508981
5.021000,-0.349877
5.022000,-0.601898
5.023000,-0.430065
5.024000,-0.680813
5.025000,-1.144123
5.026000,-1.473786
5.027000,-1.798358
5.028000,-2.056742
5.029000,-2.206936
5.030000,-2.107655
5.031000,-2.079653
5.032000,-1.399962
5.033000,-0.354969
5.034000,-0.106767
5.035000,-0.043125
5.036000,0.371817
5.037000,0.509283
5.038000,0.371817
5.039000,-0.530619
5.040000,-1.290499
5.041000,-2.186571
5.042000,-2.242575
5.043000,-2.058015
5.044000,-2.341856
5.045000,-2.644790
5.046000,-3.038094
5.047000,-3.440308
5.048000,-3.549772
5.049000,-3.468311
5.050000,-3.268476
5.051000,-2.880263
5.052000,-2.601513
5.053000,-2.296034
5.054000,-1.524699
5.055000,-1.220493
5.056000,-0.861555
5.057000,-0.433884
5.058000,-0.496253
5.059000,0.485099
5.060000,1.502090
5.061000,1.449904
5.062000,0.917861
5.063000,-0.012577
5.064000,-1.249768
5.065000,-2.338038
5.066000,-3.161559
5.067000,-3.842523
5.068000,-4.184914
5.069000,-4.126364
5.070000,-2.231120
5.071000,-1.058844
5.072000,-0.713907
5.073000,-0.855191
5.074000,-1.039751
5.075000,-1.573067
5.076000,-1.916731
5.077000,-2.217119
5.078000,-2.616787
5.079000,-2.737706
5.080000,-2.013466
5.081000,-1.426691
5.082000,-1.191218
5.083000,-1.228130
5.084000,-1.517062
5.085000,-1.718169
5.086000,-1.872182
5.087000,-1.918004
5.088000,-1.789448
5.089000,-1.623980
5.090000,-1.112302
5.091000,-0.640082
5.092000,-0.510254
5.093000,-0.619717
5.094000,-0.749546
5.095000,-0.660448
5.096000,0.212714
5.097000,0.861857
5.098000,0.627656
5.099000,-0.012577
5.100000,-0.918832
5.101000,-1.947279
5.102000,-2.863716
5.103000,-3.307934
5.104000,-3.249384
5.105000,-2.923539
5.106000,-2.677883
5.107000,-2.209482
5.108000,-1.739808
5.109000,-1.665983
5.110000,-1.641800
5.111000,-1.620162
5.112000,-1.555247
5.113000,-0.573895
5.114000,-0.108040
5.115000,-0.186955
5.116000,-0.529346
5.117000,-1.084300
5.118000,-1.509425
5.119000,-1.427964
5.120000,-1.542519
5.121000,-1.780538
5.122000,-1.678712
5.123000,-0.834825
5.124000,-0.806823
5.125000,-1.015567
5.126000,-1.314682
5.127000,-1.635435
5.128000,-1.091937
5.129000,-0.246778
5.130000,0.138890
5.131000,0.235625
5.132000,-0.185682
5.133000,-1.075390
5.134000,-2.303671
5.135000,-3.263385
5.136000,-4.019446
5.137000,-4.070359
5.138000,-3.913801
5.139000,-3.768699
5.140000,-2.545509
5.141000,-1.449602
5.142000,-1.141577
5.143000,-1.343957
5.144000,-1.567976
5.145000,-1.873455
5.146000,-2.310035
5.147000,-2.359676
5.148000,-2.212027
5.149000,-2.096200
5.150000,-1.711805
5.151000,-1.519608
5.152000,-1.631617
5.153000,-1.791994
5.154000,-1.482696
5.155000,-0.449158
5.156000,-0.172954
5.157000,-0.362606
5.158000,-0.534438
5.159000,-1.046115
5.160000,-1.676166
5.161000,-2.031286
5.162000,-2.268032
5.163000,-2.187844
5.164000,-2.002011
5.165000,-1.817450
5.166000,-1.729625
5.167000,-1.537428
5.168000,-1.221766
5.169000,-0.979928
5.170000,-0.780094
5.171000,-0.312965
5.172000,0.487645
5.173000,0.547468
5.174000,0.143981
5.175000,-0.438975
5.176000,-1.281589
5.177000,-2.124202
5.178000,-2.651154
5.179000,-2.789892
5.180000,-2.816622
5.181000,-2.643517
5.182000,-2.316400
5.183000,-1.971463
5.184000,-1.606160
5.185000,-1.382142
5.186000,-1.534882
5.187000,-1.363050
5.188000,-0.442794
5.189000,-0.290054
5.190000,-0.433884
5.191000,-0.725362
5.192000,-0.940470
5.193000,-0.548439
5.194000,-0.013850
5.195000,1.331531
5.196000,1.061691
5.197000,0.828763
5.198000,-0.074946
5.199000,-1.551429
5.200000,-2.861171
5.201000,-3.759789
5.202000,-4.105998
5.203000,-4.363110
5.204000,-4.415296
5.205000,-4.153093
5.206000,-3.856524
5.207000,-3.487403
5.208000,-3.309207
5.209000,-2.912084
5.210000,-1.301954
5.211000,-0.142406
5.212000,0.551286
5.213000,0.197440
5.214000,-0.632445
5.215000,-1.262496
5.216000,-1.818723
5.217000,-2.070743
5.218000,-2.198026
5.219000,-2.130566
5.220000,-1.589614
5.221000,-0.864101
5.222000,-0.307874
5.223000,-0.408427
5.224000,-0.697360
5.225000,-1.197582
5.226000,-1.378324
5.227000,-1.290499
5.228000,-1.515789
5.229000,-1.636708
5.230000,-1.772901
5.231000,-1.953643
5.232000,-2.102564
5.233000,-1.907821
5.234000,-1.468695
5.235000,-1.391052
5.236000,-1.338866
5.237000,-1.247222
5.238000,0.073975
5.239000,2.345977
5.240000,2.464350
5.241000,1.616645
5.242000,0.422731
5.243000,-1.203946
5.244000,-2.829350
5.245000,-4.123818
5.246000,-4.604948
5.247000,-4.630404
5.248000,-4.477665
5.249000,-4.151820
5.250000,-3.685965
5.251000,-3.138648
5.252000,-2.718614
5.253000,-2.376223
5.254000,-2.098746
5.255000,-1.727079
5.256000,-1.420327
5.257000,-1.016840
5.258000,-0.272235
5.259000,-0.166590
5.260000,-0.235323
5.261000,-0.342240
5.262000,-0.578987
5.263000,-0.846281
5.264000,-0.997748
5.265000,-0.865373
5.266000,-0.669358
5.267000,0.594563
5.268000,1.115150
5.269000,0.730755
5.270000,-0.218776
5.271000,-1.234494
5.272000,-2.176388
5.273000,-2.838260
5.274000,-3.297751
5.275000,-3.403396
5.276000,-3.276113
5.277000,-2.537872
5.278000,-1.421600
5.279000,-1.072845
5.280000,-1.090664
5.281000,-1.216674
5.282000,-1.221766
5.283000,-1.363050
5.284000,-1.720715
5.285000,-1.798358
5.286000,-1.756354
5.287000,-1.906548
5.288000,-2.115292
5.289000,-2.136931
5.290000,-1.897638
5.291000,-1.636708
5.292000,-1.416509
5.293000,-0.799186
5.294000,-0.433884
5.295000,0.692571
5.296000,1.691742
5.297000,2.087592
5.298000,1.279345
5.299000,0.261081
5.300000,-0.576441
5.301000,-1.791994
5.302000,-3.075006
5.303000,-3.688510
5.304000,-3.659235
5.305000,-3.495040
5.306000,-3.321935
5.307000,-3.183197
5.308000,-2.727524
5.309000,-2.530235
5.310000,-2.712250
5.311000,-2.853534
5.312000,-2.828077
5.313000,-2.884082
5.314000,-2.754253
5.315000,-2.612969
5.316000,-2.475503
5.317000,-2.187844
5.318000,-1.496697
5.319000,-0.475887
5.320000,0.009061
5.321000,-0.342240
5.322000,-1.019386
5.323000,-1.528518
5.324000,-1.223039
5.325000,-0.528073
5.326000,-0.493707
5.327000,-0.758456
5.328000,-1.105938
5.329000,-1.594705
5.330000,-2.130566
5.331000,-2.310035
5.332000,-2.262941
5.333000,-2.274396
5.334000,-2.038923
5.335000,-1.770355
5.336000,-1.509425
5.337000,-1.340139
5.338000,-1.165761
5.339000,-1.057571
5.340000,-0.817006
5.341000,-0.290054
5.342000,-0.209866
5.343000,-0.477160
5.344000,-0.753364
5.345000,-1.175944
5.346000,-1.564157
5.347000,-1.475059
5.348000,-0.660448
5.349000,-0.181864
5.350000,-0.423701
5.351000,-0.683359
5.352000,-1.131395
5.353000,-1.673620
5.354000,-2.117838
5.355000,-1.976554
5.356000,-1.436874
5.357000,-1.018113
5.358000,-0.223867
5.359000,0.105796
5.360000,-0.314238
5.361000,-0.912468
5.362000,-0.631173
5.363000,-1.049934
5.364000,-1.734716
5.365000,-2.395315
5.366000,-3.075006
5.367000,-2.868808
5.368000,-2.751707
5.369000,-2.863716
5.370000,-2.940086
5.371000,-3.160286
5.372000,-3.335936
5.373000,-2.530235
5.374000,-1.466149
5.375000,-1.020659
5.376000,-0.626081
5.377000,-0.368970
5.378000,0.107069
5.379000,0.021789
5.380000,-0.780094
5.381000,-2.005829
5.382000,-3.043185
5.383000,-3.669418
5.384000,-3.889617
5.385000,-3.888345
5.386000,-3.467038
5.387000,-3.035548
5.388000,-2.414407
5.389000,-1.911640
5.390000,-1.626526
5.391000,-1.480150
5.392000,-1.230676
5.393000,-0.820824
5.394000,-0.377879
5.395000,-0.330785
5.396000,0.070157
5.397000,0.212714
5.398000,1.400264
5.399000,2.491079
5.400000,2.119413
5.401000,1.032416
5.402000,-0.325693
5.403000,-1.641800
5.404000,-2.656245
5.405000,-3.363939
5.406000,-3.722877
5.407000,-3.647780
5.408000,-3.439036
5.409000,-3.058459
5.410000,-2.707158
5.411000,-2.418226
5.412000,-2.107655
5.413000,-1.915458
5.414000,-1.485242
5.415000,-0.869192
5.416000,-0.265870
5.417000,-0.197138
5.418000,-0.440248
5.419000,-0.800459
5.420000,-1.193763
5.421000,-1.561611
5.422000,-1.814905
5.423000,-1.958734
5.424000,-1.853089
5.425000,-1.825087
5.426000,-1.756354
5.427000,-1.711805
5.428000,-1.758900
5.429000,-1.739808
5.430000,-1.058844
5.431000,-0.790276
5.432000,-0.789004
5.433000,-1.033387
5.434000,-1.341412
5.435000,-1.650709
5.436000,-2.032558
5.437000,-2.190389
5.438000,-2.243848
5.439000,-2.223483
5.440000,-1.921822
5.441000,-1.751263
5.442000,-0.478433
5.443000,1.372262
5.444000,1.298438
5.445000,0.460915
5.446000,-0.221321
5.447000,-0.601898
5.448000,-0.577714
5.449000,-1.235767
5.450000,-1.929459
5.451000,-2.723705
5.452000,-3.363939
5.453000,-3.758516
5.454000,-3.492494
5.455000,-2.966816
5.456000,-2.611696
5.457000,-1.850544
5.458000,-1.567976
5.459000,-1.612525
5.460000,-1.814905
5.461000,-1.944733
5.462000,-1.965098
5.463000,-1.735989
5.464000,-1.424146
5.465000,-1.280316
5.466000,-1.270133
5.467000,-1.410145
5.468000,-1.653255
5.469000,-1.755082
5.470000,-1.876000
5.471000,-1.126303
5.472000,-0.391881
5.473000,0.812217
5.474000,1.082057
5.475000,0.746029
5.476000,-0.022760
5.477000,-1.151760
5.478000,-2.145840
5.479000,-3.044458
5.480000,-3.506496
5.481000,-3.575228
5.482000,-3.483585
5.483000,-3.128465
5.484000,-2.880263
5.485000,-2.688066
5.486000,-2.438591
5.487000,-2.201845
5.488000,-1.872182
5.489000,-1.489060
5.490000,-1.238313
5.491000,-0.950653
5.492000,-0.865373
5.493000,-0.962108
5.494000,-0.666812
5.495000,-0.165317
5.496000,-0.200956
5.497000,-0.418610
5.498000,-0.693541
5.499000,-1.112302
5.500000,-1.515789
5.501000,-1.489060
5.502000,-1.071572
5.503000,-0.449158
5.504000,-0.340967
5.505000,0.315813
5.506000,0.542377
5.507000,0.425276
5.508000,-0.337149
5.509000,-1.033387
5.510000,-1.939642
5.511000,-2.338038
5.512000,-2.885355
5.513000,-3.389395
5.514000,-3.528134
5.515000,-3.433944
5.516000,-3.463219
5.517000,-3.255748
5.518000,-2.962997
5.519000,-2.494596
5.520000,-1.981645
5.521000,-1.819996
5.522000,-1.688894
5.523000,-1.265042
5.524000,-0.842462
5.525000,-0.563713
5.526000,0.896223
5.527000,2.148688
5.528000,2.441439
5.529000,2.133414
5.530000,0.959865
5.531000,-0.310419
5.532000,-2.031286
5.533000,-3.377940
5.534000,-4.262557
5.535000,-4.627859
5.536000,-4.443298
5.537000,-3.977443
5.538000,-3.552317
5.539000,-3.293933
5.540000,-3.227746
5.541000,-2.946450
5.542000,-2.390224
5.543000,-2.198026
5.544000,-1.999465
5.545000,-0.999020
5.546000,-0.608262
5.547000,-0.517891
5.548000,-0.582805
5.549000,-0.768638
5.550000,-0.375334
5.551000,-0.290054
5.552000,-0.544620
5.553000,-0.876829
5.554000,-1.074117
5.555000,-1.122485
5.556000,-1.364323
5.557000,-1.529791
5.558000,-1.561611
5.559000,-1.833997
5.560000,-1.501788
5.561000,-1.525972
5.562000,-1.616343
5.563000,-1.730898
5.564000,-1.898911
5.565000,-1.858181
5.566000,-1.256132
5.567000,0.375636
5.568000,1.518637
5.569000,1.498272
5.570000,0.698935
5.571000,-0.636264
5.572000,-2.094927
5.573000,-2.983362
5.574000,-3.304116
5.575000,-3.349937
5.576000,-3.095371
5.577000,-2.338038
5.578000,-1.828906
5.579000,-1.552702
5.580000,-1.604888
5.581000,-1.896366
5.582000,-2.195481
5.583000,-2.406770
5.584000,-2.182752
5.585000,-0.503890
5.586000,0.210168
5.587000,0.556378
5.588000,0.817308
5.589000,0.191076
5.590000,-0.624808
5.591000,-1.275225
5.592000,-2.173843
5.593000,-3.077552
5.594000,-3.626142
5.595000,-3.833613
5.596000,-3.529407
5.597000,-2.945178
5.598000,-2.592604
5.599000,-2.283306
5.600000,-1.948552
5.601000,-1.705441
5.602000,-1.345230
5.603000,-0.818279
5.604000,-0.754637
5.605000,-0.603170
5.606000,-0.482252
5.607000,-0.505162
5.608000,-0.623536
5.609000,-1.081754
5.610000,-0.405882
5.611000,1.150789
5.612000,1.544094
5.613000,1.868665
5.614000,1.592461
5.615000,0.180893
5.616000,-1.513244
5.617000,-2.787347
5.618000,-3.985080
5.619000,-4.820056
5.620000,-5.227362
5.621000,-5.119171
5.622000,-4.790781
5.623000,-4.296923
5.624000,-3.776336
5.625000,-3.208653
5.626000,-2.474230
5.627000,-1.887456
5.628000,-0.640082
5.629000,0.556378
5.630000,1.122787
5.631000,1.111332
5.632000,1.382444
5.633000,0.982776
5.634000,0.039609
5.635000,-1.127576
5.636000,-2.184025
5.637000,-2.942632
5.638000,-3.394487
5.639000,-3.445400
5.640000,-3.321935
5.641000,-3.027911
5.642000,-2.642244
5.643000,-2.264214
5.644000,-1.338866
5.645000,-0.660448
5.646000,-0.683359
5.647000,-1.066480
5.648000,-1.188672
5.649000,-0.864101
5.650000,-0.539529
5.651000,-0.641355
5.652000,-0.472069
5.653000,-0.450431
5.654000,-0.878102
5.655000,-0.996475
5.656000,-0.329512
5.657000,-0.368970
5.658000,-0.669358
5.659000,-0.985019
5.660000,-1.392325
5.661000,-1.956189
5.662000,-2.464048
5.663000,-2.764436
5.664000,-3.027911
5.665000,-3.015183
5.666000,-2.702067
5.667000,-2.101291
5.668000,-1.490333
5.669000,-0.697360
5.670000,0.141435
5.671000,1.337895
5.672000,1.290801
5.673000,0.387091
5.674000,-0.745727
5.675000,-1.930732
5.676000,-2.844624
5.677000,-3.304116
5.678000,-3.470856
5.679000,-3.372848
5.680000,-3.066096
5.681000,-2.707158
5.682000,-2.252758
5.683000,-1.755082
5.684000,-1.509425
5.685000,-1.431783
5.686000,-1.370687
5.687000,-0.226413
5.688000,0.455824
5.689000,0.198713
5.690000,-0.217503
5.691000,-0.923924
5.692000,-1.681257
5.693000,-2.297307
5.694000,-2.736433
5.695000,-2.936268
5.696000,-2.306217
5.697000,-1.570521
5.698000,-0.218776
5.699000,0.594563
5.700000,0.396001
5.701000,-0.668085
5.702000,-1.991828
5.703000,-2.880263
5.704000,-3.250657
5.705000,-3.291387
5.706000,-3.213745
5.707000,-2.955360
5.708000,-2.548055
5.709000,-2.246394
5.710000,-2.009648
5.711000,-1.795812
5.712000,-1.285407
5.713000,-0.833553
5.714000,-0.311692
5.715000,-0.133496
5.716000,0.104523
5.717000,0.250899
5.718000,-0.185682
5.719000,-0.685904
5.720000,-1.402508
5.721000,-2.107655
5.722000,-2.450047
5.723000,-2.546782
5.724000,-2.134385
5.725000,-1.417782
5.726000,-0.502617
5.727000,-0.043125
5.728000,-0.096584
5.729000,-0.506435
5.730000,-1.268860
5.731000,-1.779265
5.732000,-2.261668
5.733000,-2.615515
5.734000,-2.364767
5.735000,-1.331229
5.736000,-1.075390
5.737000,0.424003
5.738000,1.070601
5.739000,0.669660
5.740000,-0.226413
5.741000,-1.300681
5.742000,-2.298580
5.743000,-3.288842
5.744000,-3.904891
5.745000,-4.076723
5.746000,-3.990171
5.747000,-3.801792
5.748000,-3.142466
5.749000,-1.669802
5.750000,-0.869192
5.751000,-0.324421
5.752000,-0.386789
5.753000,-0.717725
5.754000,-1.167034
5.755000,-1.571794
5.756000,-1.991828
5.757000,-2.252758
5.758000,-2.415680
5.759000,-2.498414
5.760000,-2.560783
5.761000,-2.461502
5.762000,-2.325309
5.763000,-2.086017
5.764000,-1.305773
5.765000,-0.752091
5.766000,-0.422429
5.767000,-0.522982
5.768000,-0.642628
5.769000,-0.548439
5.770000,-0.787731
5.771000,-0.871737
5.772000,-0.743182
5.773000,-1.049934
5.774000,-1.332502
5.775000,-1.440693
5.776000,-1.495424
5.777000,-1.629071
5.778000,-1.868363
5.779000,-1.916731
5.780000,-1.933278
5.781000,-1.625253
5.782000,-0.785185
5.783000,-0.218776
5.784000,-0.120768
5.785000,-0.581532
5.786000,-0.995202
5.787000,-0.083856
5.788000,0.436732
5.789000,-0.063490
5.790000,-0.603170
5.791000,-1.312137
5.792000,-2.189117
5.793000,-2.867535
5.794000,-3.332118
5.795000,-3.559954
5.796000,-3.383031
5.797000,-2.969361
5.798000,-2.746616
5.799000,-2.604059
5.800000,-1.280316
5.801000,-0.491161
5.802000,-0.113131
5.803000,-0.290054
5.804000,-0.706270
5.805000,-1.128849
5.806000,-1.534882
5.807000,-1.939642
5.808000,-2.371131
5.809000,-2.597695
5.810000,-2.517507
5.811000,-2.418226
5.812000,-1.888729
5.813000,-1.314682
5.814000,-1.104665
5.815000,-1.184854
5.816000,-0.654084
5.817000,-0.069855
5.818000,0.407457
5.819000,0.136344
5.820000,-0.382971
5.821000,-1.107211
5.822000,-1.891274
5.823000,-2.629516
5.824000,-3.078825
5.825000,-3.212472
5.826000,-3.244293
5.827000,-3.155194
5.828000,-2.919721
5.829000,-2.553146
5.830000,-2.201845
5.831000,-1.850544
5.832000,-1.626526
5.833000,-1.076663
5.834000,0.245807
5.835000,0.749848
5.836000,0.734574
5.837000,1.553004
5.838000,1.041326
5.839000,-0.246778
5.840000,-1.679985
5.841000,-2.942632
5.842000,-3.636324
5.843000,-3.568864
5.844000,-2.486959
5.845000,-2.050378
5.846000,-1.710532
5.847000,-1.417782
5.848000,-1.443238
5.849000,-1.828906
5.850000,-2.329128
5.851000,-2.341856
5.852000,-2.092381
5.853000,-1.865818
5.854000,-1.772901
5.855000,-1.725806
5.856000,-1.107211
5.857000,-0.596806
5.858000,-0.417337
5.859000,0.043427
5.860000,-0.189501
5.861000,-0.584078
5.862000,-1.200128
5.863000,-1.873455
5.864000,-2.247667
5.865000,-2.299853
5.866000,-2.432227
5.867000,-2.364767
5.868000,-2.353312
5.869000,-2.240030
5.870000,-1.827633
5.871000,-1.653255
5.872000,-1.205219
5.873000,-0.465705
5.874000,-0.404609
5.875000,-0.638810
5.876000,-0.590442
5.877000,-0.605716
5.878000,-0.827188
5.879000,-1.258678
5.880000,-1.718169
5.881000,-2.180207
5.882000,-2.570966
5.883000,-2.685520
5.884000,-2.537872
5.885000,-2.269305
5.886000,-2.088563
5.887000,-2.002011
5.888000,-2.003283
5.889000,-1.858181
5.890000,-1.676166
5.891000,-1.494151
5.892000,-1.396143
5.893000,-1.336320
5.894000,-1.014294
5.895000,-0.734272
5.896000,0.821126
5.897000,2.022678
5.898000,2.003585
5.899000,1.302256
5.900000,0.119797
5.901000,-0.879374
5.902000,-1.743626
5.903000,-2.612969
5.904000,-3.411033
5.905000,-3.959623
5.906000,-3.985080
5.907000,-3.491222
5.908000,-3.096644
5.909000,-2.461502
5.910000,-1.331229
5.911000,0.177074
5.912000,0.396001
5.913000,-0.298964
5.914000,-1.181035
5.915000,-2.008375
5.916000,-2.185298
5.917000,-2.434773
5.918000,-2.607878
5.919000,-2.710977
5.920000,-2.612969
5.921000,-2.517507
5.922000,-2.503506
5.923000,-2.432227
5.924000,-2.172570
5.925000,-1.958734
5.926000,-1.291771
5.927000,-0.081310
5.928000,2.085047
5.929000,2.403254
5.930000,1.625555
5.931000,0.506737
5.932000,-0.878102
5.933000,-2.233666
5.934000,-3.337209
5.935000,-3.935439
5.936000,-3.972351
5.937000,-3.725422
5.938000,-3.371576
5.939000,-2.994818
5.940000,-2.598968
5.941000,-2.282033
5.942000,-1.938369
5.943000,-1.426691
5.944000,-1.053752
5.945000,-0.921378
5.946000,-0.702451
5.947000,-0.638810
5.948000,-0.757183
5.949000,-0.926469
5.950000,-0.374061
5.951000,0.584380
5.952000,0.449460
5.953000,-0.132223
5.954000,0.590744
5.955000,0.693843
5.956000,0.119797
5.957000,-0.662993
5.958000,-1.697804
5.959000,-2.693157
5.960000,-3.632506
5.961000,-4.120000
5.962000,-4.116181
5.963000,-3.743242
5.964000,-2.957906
5.965000,-2.157296
5.966000,-1.406326
5.967000,-0.822097
5.968000,-1.126303
5.969000,-1.581977
5.970000,-1.593432
5.971000,-1.697804
5.972000,-1.966371
5.973000,-2.018557
5.974000,-1.902730
5.975000,-1.850544
5.976000,-1.483969
5.977000,-1.108484
5.978000,-0.845008
5.979000,-0.057126
5.980000,0.712936
5.981000,0.678569
5.982000,-0.029124
5.983000,-0.843735
5.984000,-1.743626
5.985000,-2.464048
5.986000,-2.894264
5.987000,-2.629516
5.988000,-2.122929
5.989000,-1.417782
5.990000,-0.954471
5.991000,-0.600625
5.992000,-0.374061
5.993000,-0.879374
5.994000,-1.489060
5.995000,-2.161114
5.996000,-2.504778
5.997000,-2.857352
5.998000,-3.146285
5.999000,-2.690612
6.000000,-2.030013
6.001000,-1.723261
6.002000,-1.332502
6.003000,-0.865373
6.004000,-0.267143
6.005000,-0.152589
6.006000,-0.482252
6.007000,-1.060116
6.008000,-1.651982
6.009000,-2.049105
6.010000,-2.009648
6.011000,-1.986737
6.012000,-2.217119
6.013000,-2.352039
6.014000,-2.591331
6.015000,-2.591331
6.016000,-2.471685
6.017000,-2.316400
6.018000,-1.920549
6.019000,-1.161943
6.020000,-1.027023
6.021000,-1.020659
6.022000,-1.214129
6.023000,-0.988838
6.024000,-0.241687
6.025000,0.445642
6.026000,1.104967
6.027000,1.027325
6.028000,1.939944
6.029000,2.487261
6.030000,1.526274
6.031000,-0.239141
6.032000,-2.009648
6.033000,-3.377940
6.034000,-4.538761
6.035000,-5.324097
6.036000,-5.446288
6.037000,-5.068258
6.038000,-4.408932
6.039000,-3.750879
6.040000,-3.058459
6.041000,-1.845452
6.042000,-1.537428
6.043000,-0.772457
6.044000,-0.391881
6.045000,-0.600625
6.046000,-0.732999
6.047000,-0.957017
6.048000,-1.309591
6.049000,-0.825916
6.050000,-0.689723
6.051000,-0.945562
6.052000,-1.230676
6.053000,-1.457239
6.054000,-1.291771
6.055000,-1.441965
6.056000,-1.601069
6.057000,-1.780538
6.058000,-1.831451
6.059000,-1.968917
6.060000,-1.920549
6.061000,-1.681257
6.062000,-1.522154
6.063000,-1.192491
6.064000,-0.857736
6.065000,-0.836098
6.066000,-0.794095
6.067000,-0.729181
6.068000,-0.657902
6.069000,-0.866646
6.070000,-1.119939
6.071000,-1.433056
6.072000,-1.685076
6.073000,-1.891274
6.074000,-1.531063
6.075000,-0.552257
6.076000,-0.147497
6.077000,-0.458068
6.078000,-0.548439
6.079000,-1.118667
6.080000,-1.747445
6.081000,-2.282033
6.082000,-2.815349
6.083000,-3.078825
6.084000,-3.071188
6.085000,-2.460229
6.086000,-1.858181
6.087000,-1.471240
6.088000,-1.399962
6.089000,-1.589614
6.090000,-1.783084
6.091000,-1.424146
6.092000,-1.421600
6.093000,-1.601069
6.094000,-1.788175
6.095000,-1.686349
6.096000,-1.044842
6.097000,-1.034660
6.098000,-1.206492
6.099000,-1.449602
6.100000,-0.755910
6.101000,-0.645174
6.102000,-1.074117
6.103000,-0.949380
6.104000,-0.992656
6.105000,-1.385961
6.106000,-2.000738
6.107000,-2.472958
6.108000,-2.640971
6.109000,-2.906993
6.110000,-2.777164
6.111000,-2.274396
6.112000,-1.856908
6.113000,-1.510698
6.114000,-1.329956
6.115000,-1.602342
6.116000,-1.924368
6.117000,-1.981645
6.118000,-1.480150
6.119000,-0.619717
6.120000,0.261081
6.121000,0.236897
6.122000,-0.059672
6.123000,-0.622263
6.124000,-1.308318
6.125000,-2.135658
6.126000,-2.730069
6.127000,-2.740252
6.128000,-2.353312
6.129000,-2.074562
6.130000,-1.742353
6.131000,-1.584522
6.132000,-1.477605
6.133000,-1.613797
6.134000,-1.546337
6.135000,-1.005385
6.136000,-0.799186
6.137000,-0.842462
6.138000,-0.904831
6.139000,-0.888284
6.140000,-1.118667
6.141000,-1.382142
6.142000,-1.570521
6.143000,-1.270133
6.144000,-0.862828
6.145000,-0.824643
6.146000,-1.024477
6.147000,-1.326138
6.148000,-1.766537
6.149000,-2.126748
6.150000,-2.130566
6.151000,-0.715179
6.152000,0.817308
6.153000,0.543649
6.154000,0.229260
6.155000,-0.633718
6.156000,-1.641800
6.157000,-2.686793
6.158000,-3.250657
6.159000,-3.609595
6.160000,-2.476776
6.161000,-1.939642
6.162000,-1.804722
6.163000,-1.926914
6.164000,-2.087290
6.165000,-2.220937
6.166000,-2.349493
6.167000,-2.224756
6.168000,-2.168751
6.169000,-2.228574
6.170000,-2.251485
6.171000,-2.106383
6.172000,-2.117838
6.173000,-2.038923
6.174000,-1.910367
6.175000,-1.728352
6.176000,-1.546337
6.177000,-1.519608
6.178000,-1.528518
6.179000,-1.061389
6.180000,-0.188228
6.181000,-0.106767
6.182000,-0.525528
6.183000,-0.857736
6.184000,-1.126303
6.185000,-1.095756
6.186000,-1.272679
6.187000,-1.412690
6.188000,-1.504334
6.189000,-1.687622
6.190000,-1.682530
6.191000,-1.326138
6.192000,-1.192491
6.193000,-1.263769
6.194000,-1.267588
6.195000,-1.233221
6.196000,-1.275225
6.197000,-0.875556
6.198000,-0.642628
6.199000,-0.577714
6.200000,-0.981201
6.201000,-1.318501
6.202000,-0.837371
6.203000,-0.680813
6.204000,-0.875556
6.205000,-1.369414
6.206000,-0.967200
6.207000,-0.988838
6.208000,-1.420327
6.209000,-2.032558
6.210000,-2.516234
6.211000,-2.457684
6.212000,-2.479322
6.213000,-2.313854
6.214000,-1.898911
6.215000,-1.883637
6.216000,-1.802176
6.217000,-1.827633
6.218000,-2.036377
6.219000,-1.989282
6.220000,-1.986737
6.221000,-2.190389
6.222000,-2.331673
6.223000,-2.139476
6.224000,-0.669358
6.225000,0.222896
6.226000,0.000151
6.227000,-0.520436
6.228000,-1.239585
6.229000,-2.041468
6.230000,-2.797529
6.231000,-2.974453
6.232000,-2.948996
6.233000,-2.825532
6.234000,-2.699521
6.235000,-2.551873
6.236000,-2.248940
6.237000,-2.056742
6.238000,-1.646891
6.239000,-1.107211
6.240000,-0.902285
6.241000,-0.820824
6.242000,-0.806823
6.243000,-0.601898
6.244000,-0.475887
6.245000,-0.749546
6.246000,-1.085573
6.247000,-1.412690
6.248000,-1.434328
6.249000,-1.467422
6.250000,-1.352867
6.251000,-0.888284
6.252000,-0.829734
6.253000,-1.021931
6.254000,-0.888284
6.255000,-0.615899
6.256000,-0.870465
6.257000,-1.094483
6.258000,-1.417782
6.259000,-1.505607
6.260000,-1.522154
6.261000,-1.387234
6.262000,-1.163216
6.263000,-1.373233
6.264000,-1.672348
6.265000,-1.890001
6.266000,-1.849271
6.267000,-1.911640
6.268000,-2.210755
6.269000,-2.420772
6.270000,-2.395315
6.271000,-1.905275
6.272000,-1.355413
6.273000,-1.119939
6.274000,-0.139860
6.275000,0.132525
6.276000,-0.351150
6.277000,-0.522982
6.278000,0.023062
6.279000,0.360362
6.280000,-0.185682
6.281000,-0.354969
6.282000,-0.250596
6.283000,-1.322319
6.284000,-2.665155
6.285000,-3.674509
6.286000,-4.302014
6.287000,-4.084360
6.288000,-3.053368
6.289000,-2.354584
6.290000,-1.897638
6.291000,-1.553974
6.292000,-1.664711
6.293000,-1.954916
6.294000,-2.325309
6.295000,-2.374950
6.296000,-2.476776
6.297000,-2.252758
6.298000,-2.040195
6.299000,-2.047832
6.300000,-2.144567
6.301000,-2.114020
6.302000,-1.910367
6.303000,-1.906548
6.304000,-1.789448
6.305000,-1.659619
6.306000,-1.483969
6.307000,-1.342685
6.308000,-0.828461
6.309000,-0.188228
6.310000,-0.217503
6.311000,-0.642628
6.312000,-1.033387
6.313000,-1.324865
6.314000,-1.522154
6.315000,-1.406326
6.316000,-1.088119
6.317000,-0.946834
6.318000,-1.027023
6.319000,-1.160670
6.320000,-1.391052
6.321000,-1.579431
6.322000,-1.766537
6.323000,-1.948552
6.324000,-1.839088
6.325000,-1.277770
6.326000,-0.803005
6.327000,-0.669358
6.328000,-0.725362
6.329000,-0.789004
6.330000,-0.814460
6.331000,-1.000293
