LabVIEW Measurement,
Writer_Version,2
Reader_Version,2
Separator,Comma
Decimal_Separator,.
Multi_Headings,No
X_Columns,Multi
Time_Pref,Absolute
Operator,Dymnz
Date,2017/09/15
Time,13:22:32.3706021833531790295
***End_of_Header***,
,
Channels,1,
Samples,1000,
Date,2017/09/15,
Time,13:22:32.3706021833531790295,
Y_Unit_Label,Volts,
X_Dimension,Time,
X0,0.0000000000000000E+0,
Delta_X,0.001000,
***End_of_Header***,,
X_Value,Voltage,Comment
0.000000,-6.790397
0.001000,-6.169256
0.002000,-5.532841
0.003000,-3.567591
0.004000,-1.483969
0.005000,0.332360
0.006000,1.516092
0.007000,1.925943
0.008000,3.276415
0.009000,4.129212
0.010000,2.517809
0.011000,1.272981
0.012000,0.720573
0.013000,0.653113
0.014000,0.070157
0.015000,-0.628627
0.016000,-1.183581
0.017000,-1.412690
0.018000,-1.663438
0.019000,-1.556520
0.020000,-1.331229
0.021000,-1.761446
0.022000,-1.220493
0.023000,-0.918832
0.024000,-1.324865
0.025000,-1.377051
0.026000,-1.366868
0.027000,-2.010920
0.028000,-2.052924
0.029000,-2.226029
0.030000,-2.546782
0.031000,-3.255748
0.032000,-3.951986
0.033000,-4.972796
0.034000,-5.396648
0.035000,-3.979988
0.036000,-3.141193
0.037000,-2.612969
0.038000,-2.424590
0.039000,-3.544680
0.040000,-3.459401
0.041000,-3.897254
0.042000,-3.632506
0.043000,-2.579875
0.044000,-2.190389
0.045000,-1.265042
0.046000,-0.612080
0.047000,-0.409700
0.048000,-0.528073
0.049000,-0.843735
0.050000,-1.147942
0.051000,-1.693986
0.052000,-1.664711
0.053000,-0.837371
0.054000,0.015425
0.055000,0.379454
0.056000,1.014597
0.057000,0.649294
0.058000,0.261081
0.059000,0.185984
0.060000,-0.091493
0.061000,-0.446612
0.062000,-1.027023
0.063000,-1.846725
0.064000,-3.943076
0.065000,-4.459845
0.066000,-4.141638
0.067000,-3.327027
0.068000,-2.096200
0.069000,-0.990111
0.070000,0.068884
0.071000,0.455824
0.072000,0.221623
0.073000,0.263627
0.074000,0.295448
0.075000,0.015425
0.076000,0.020516
0.077000,-0.680813
0.078000,-1.851817
0.079000,-2.346947
0.080000,-2.649881
0.081000,-3.347392
0.082000,-3.990171
0.083000,-4.534942
0.084000,-4.542579
0.085000,-3.831067
0.086000,-2.887900
0.087000,-1.338866
0.088000,0.096886
0.089000,0.416366
0.090000,0.241989
0.091000,0.365453
0.092000,0.982776
0.093000,0.292902
0.094000,-0.615899
0.095000,-1.107211
0.096000,-1.595978
0.097000,-1.660892
0.098000,-1.902730
0.099000,-2.091109
0.100000,-2.276942
0.101000,-2.472958
0.102000,-2.111474
0.103000,-1.799631
0.104000,-1.117394
0.105000,-1.251041
0.106000,-1.678712
0.107000,-1.961280
0.108000,-1.603615
0.109000,-1.590886
0.110000,-1.248495
0.111000,-0.761001
0.112000,-0.913741
0.113000,-1.061389
0.114000,-2.973180
0.115000,-4.275285
0.116000,-4.033447
0.117000,-3.099190
0.118000,-2.288397
0.119000,-1.823814
0.120000,-0.979928
0.121000,-1.900184
0.122000,-3.749606
0.123000,-5.737767
0.124000,-5.661397
0.125000,-4.888789
0.126000,-3.587957
0.127000,-3.049550
0.128000,-2.828077
0.129000,-2.723705
0.130000,-1.845452
0.131000,0.146526
0.132000,2.561085
0.133000,3.795730
0.134000,4.742716
0.135000,4.033749
0.136000,3.066398
0.137000,1.985766
0.138000,1.745201
0.139000,1.311166
0.140000,1.169882
0.141000,1.320076
0.142000,1.019688
0.143000,0.193621
0.144000,-0.725362
0.145000,-1.672348
0.146000,-2.204390
0.147000,-3.041913
0.148000,-4.237100
0.149000,-4.408932
0.150000,-4.312197
0.151000,-3.927802
0.152000,-3.086462
0.153000,-2.276942
0.154000,-1.483969
0.155000,-1.501788
0.156000,-1.818723
0.157000,-1.803449
0.158000,-1.965098
0.159000,-2.453865
0.160000,-3.001182
0.161000,-3.565046
0.162000,-3.478493
0.163000,-3.435217
0.164000,-3.487403
0.165000,-3.008819
0.166000,-2.497141
0.167000,-2.120384
0.168000,-1.797085
0.169000,-0.759728
0.170000,0.166892
0.171000,0.612382
0.172000,0.551286
0.173000,0.215259
0.174000,0.187257
0.175000,0.110887
0.176000,-0.698633
0.177000,-1.640527
0.178000,-2.327855
0.179000,-2.942632
0.180000,-3.176833
0.181000,-3.254475
0.182000,-3.035548
0.183000,-2.842078
0.184000,-3.043185
0.185000,-3.936712
0.186000,-5.823046
0.187000,-5.215906
0.188000,-4.285468
0.189000,-2.609150
0.190000,-1.015567
0.191000,-0.137315
0.192000,0.603472
0.193000,1.416811
0.194000,1.728654
0.195000,1.283164
0.196000,-0.697360
0.197000,-2.546782
0.198000,-3.893436
0.199000,-3.526861
0.200000,-2.914630
0.201000,-2.030013
0.202000,-1.757627
0.203000,-0.958290
0.204000,-0.372788
0.205000,-0.348604
0.206000,-0.211139
0.207000,-0.185682
0.208000,0.432913
0.209000,0.726937
0.210000,1.453723
0.211000,1.812661
0.212000,1.443540
0.213000,1.154608
0.214000,0.700208
0.215000,-0.414792
0.216000,-0.640082
0.217000,-1.159397
0.218000,-2.605332
0.219000,-3.459401
0.220000,-3.521770
0.221000,-3.439036
0.222000,-2.878990
0.223000,-2.531508
0.224000,-1.967644
0.225000,-1.430510
0.226000,-1.099574
0.227000,-0.805550
0.228000,-0.328239
0.229000,-0.391881
0.230000,-0.503890
0.231000,-0.600625
0.232000,-0.739363
0.233000,-0.965927
0.234000,-1.009203
0.235000,-1.609979
0.236000,-2.117838
0.237000,-2.032558
0.238000,-2.251485
0.239000,-2.909538
0.240000,-3.596867
0.241000,-4.067814
0.242000,-4.219280
0.243000,-4.673681
0.244000,-4.862060
0.245000,-5.040256
0.246000,-5.319005
0.247000,-5.644850
0.248000,-5.041529
0.249000,-4.077996
0.250000,-3.090280
0.251000,-1.842907
0.252000,0.207622
0.253000,1.861028
0.254000,1.414265
0.255000,1.122787
0.256000,2.502535
0.257000,2.566176
0.258000,1.376080
0.259000,0.121070
0.260000,-0.437702
0.261000,-0.516618
0.262000,0.086703
0.263000,0.043427
0.264000,-0.286236
0.265000,-0.585351
0.266000,-0.632445
0.267000,-0.748273
0.268000,-0.634991
0.269000,-2.313854
0.270000,-3.012638
0.271000,-5.341916
0.272000,-6.281265
0.273000,-5.157356
0.274000,-3.800519
0.275000,-2.321491
0.276000,-0.636264
0.277000,-0.045671
0.278000,-1.009203
0.279000,-1.182308
0.280000,-1.091937
0.281000,0.589471
0.282000,2.393071
0.283000,2.583996
0.284000,1.420629
0.285000,0.466007
0.286000,-0.217503
0.287000,-1.100847
0.288000,-1.774174
0.289000,-2.217119
0.290000,-2.453865
0.291000,-2.663882
0.292000,-2.676610
0.293000,-2.363494
0.294000,-2.250212
0.295000,-1.977827
0.296000,-1.994374
0.297000,-2.052924
0.298000,-1.599796
0.299000,-1.803449
0.300000,-2.340583
0.301000,-3.063551
0.302000,-3.367757
0.303000,-4.641860
0.304000,-5.397921
0.305000,-4.863332
0.306000,-3.666872
0.307000,-2.453865
0.308000,-1.522154
0.309000,-1.121212
0.310000,-0.358787
0.311000,-0.235323
0.312000,-1.019386
0.313000,-1.224311
0.314000,-1.583249
0.315000,-2.009648
0.316000,-2.359676
0.317000,-2.108928
0.318000,-1.377051
0.319000,-1.018113
0.320000,-0.567531
0.321000,-0.255688
0.322000,-1.318501
0.323000,-3.255748
0.324000,-2.562056
0.325000,-1.483969
0.326000,0.235625
0.327000,1.210612
0.328000,1.253889
0.329000,0.171983
0.330000,-0.897194
0.331000,-1.925641
0.332000,-3.222654
0.333000,-2.946450
0.334000,-1.519608
0.335000,0.216532
0.336000,1.155881
0.337000,1.069328
0.338000,1.202975
0.339000,1.390081
0.340000,1.180064
0.341000,-0.254415
0.342000,-1.713078
0.343000,-2.565874
0.344000,-2.825532
0.345000,-2.920994
0.346000,-2.917175
0.347000,-2.702067
0.348000,-2.198026
0.349000,-2.306217
0.350000,-2.486959
0.351000,-2.064379
0.352000,-1.351594
0.353000,-1.178490
0.354000,-1.010476
0.355000,-0.960836
0.356000,-2.204390
0.357000,-3.040640
0.358000,-3.483585
0.359000,-3.799246
0.360000,-4.349109
0.361000,-4.056358
0.362000,-3.349937
0.363000,-2.693157
0.364000,-2.285852
0.365000,-1.327411
0.366000,-1.005385
0.367000,-0.273507
0.368000,0.548741
0.369000,0.986594
0.370000,1.196611
0.371000,1.220795
0.372000,0.846583
0.373000,0.607291
0.374000,0.140162
0.375000,-0.287509
0.376000,-0.640082
0.377000,-1.019386
0.378000,-1.310864
0.379000,-1.870909
0.380000,-2.346947
0.381000,-2.598968
0.382000,-2.712250
0.383000,-3.003728
0.384000,-3.052095
0.385000,-3.171741
0.386000,-3.363939
0.387000,-3.510314
0.388000,-5.340644
0.389000,-7.647012
0.390000,-8.366160
0.391000,-6.940591
0.392000,-4.655861
0.393000,-1.817450
0.394000,0.328541
0.395000,1.686651
0.396000,2.264516
0.397000,2.263243
0.398000,2.944207
0.399000,3.007848
0.400000,2.209784
0.401000,1.527547
0.402000,0.972593
0.403000,0.463461
0.404000,-1.636708
0.405000,-3.309207
0.406000,-3.301570
0.407000,-2.642244
0.408000,-1.865818
0.409000,-1.275225
0.410000,-0.665539
0.411000,-0.225140
0.412000,-0.021487
0.413000,-0.552257
0.414000,-0.721544
0.415000,-1.248495
0.416000,-1.957461
0.417000,-3.320662
0.418000,-4.840421
0.419000,-6.030517
0.420000,-5.830683
0.421000,-4.879879
0.422000,-4.170913
0.423000,-3.993989
0.424000,-2.970634
0.425000,-1.761446
0.426000,-0.701178
0.427000,0.048519
0.428000,0.287811
0.429000,0.928044
0.430000,2.259424
0.431000,3.046033
0.432000,2.948025
0.433000,2.231422
0.434000,1.274254
0.435000,0.583107
0.436000,0.399820
0.437000,-0.036761
0.438000,-1.061389
0.439000,-1.911640
0.440000,-2.359676
0.441000,-2.579875
0.442000,-2.783528
0.443000,-2.937541
0.444000,-5.448834
0.445000,-6.173074
0.446000,-5.236272
0.447000,-3.209926
0.448000,-1.529791
0.449000,-1.430510
0.450000,-1.598523
0.451000,-1.595978
0.452000,-1.531063
0.453000,-0.881920
0.454000,-0.724089
0.455000,-0.403336
0.456000,0.174529
0.457000,0.094340
0.458000,-0.484797
0.459000,-0.870465
0.460000,-1.345230
0.461000,-1.597251
0.462000,-1.972735
0.463000,-1.814905
0.464000,-1.410145
0.465000,-1.421600
0.466000,-1.561611
0.467000,-1.761446
0.468000,-2.041468
0.469000,-1.967644
0.470000,-2.882809
0.471000,-2.922267
0.472000,-2.341856
0.473000,-1.667256
0.474000,-1.480150
0.475000,-2.352039
0.476000,-2.299853
0.477000,-2.590058
0.478000,-4.821329
0.479000,-5.381374
0.480000,-4.383475
0.481000,-3.078825
0.482000,-1.747445
0.483000,-0.535710
0.484000,0.632748
0.485000,1.653557
0.486000,1.176246
0.487000,1.127878
0.488000,1.388809
0.489000,1.350624
0.490000,0.287811
0.491000,-0.175499
0.492000,-0.197138
0.493000,-0.592988
0.494000,-1.225584
0.495000,-1.452148
0.496000,-1.328683
0.497000,-2.168751
0.498000,-2.581148
0.499000,-2.306217
0.500000,-2.602786
0.501000,-2.373677
0.502000,-1.942188
0.503000,-1.695259
0.504000,-1.791994
0.505000,-2.185298
0.506000,-2.313854
0.507000,-2.147113
0.508000,-3.062278
0.509000,-3.819612
0.510000,-3.771244
0.511000,-3.740696
0.512000,-4.607494
0.513000,-3.939258
0.514000,-4.953703
0.515000,-5.249000
0.516000,-3.873071
0.517000,-2.331673
0.518000,-0.741909
0.519000,0.640385
0.520000,1.600098
0.521000,2.144870
0.522000,3.219138
0.523000,2.955662
0.524000,2.609453
0.525000,1.731200
0.526000,1.438449
0.527000,0.672205
0.528000,-0.234050
0.529000,-0.885739
0.530000,-1.564157
0.531000,-1.951097
0.532000,-2.124202
0.533000,-2.084744
0.534000,-2.008375
0.535000,-2.042741
0.536000,-2.845897
0.537000,-4.027083
0.538000,-4.382203
0.539000,-4.310924
0.540000,-4.902790
0.541000,-4.464937
0.542000,-3.503950
0.543000,-2.353312
0.544000,-1.293044
0.545000,-1.033387
0.546000,-0.134769
0.547000,0.864403
0.548000,-0.108040
0.549000,-0.558621
0.550000,-1.811086
0.551000,-1.802176
0.552000,-0.867919
0.553000,-0.368970
0.554000,0.342542
0.555000,1.037507
0.556000,1.009505
0.557000,0.527103
0.558000,-0.053308
0.559000,-0.782639
0.560000,-1.729625
0.561000,-2.572238
0.562000,-2.450047
0.563000,-2.130566
0.564000,-2.368586
0.565000,-2.532781
0.566000,-2.635880
0.567000,-2.541690
0.568000,-1.921822
0.569000,-1.403780
0.570000,-1.279043
0.571000,-0.884466
0.572000,-0.847554
0.573000,-0.544620
0.574000,0.206349
0.575000,0.262354
0.576000,-0.416064
0.577000,-2.097473
0.578000,-3.053368
0.579000,-3.553590
0.580000,-4.863332
0.581000,-5.376283
0.582000,-4.935884
0.583000,-4.069086
0.584000,-2.955360
0.585000,-2.042741
0.586000,-1.537428
0.587000,-1.821269
0.588000,-2.280760
0.589000,-1.826360
0.590000,-1.583249
0.591000,-1.071572
0.592000,-1.560339
0.593000,-2.172570
0.594000,-2.769527
0.595000,-2.728796
0.596000,-2.458956
0.597000,-1.533609
0.598000,-0.330785
0.599000,1.346805
0.600000,1.895395
0.601000,1.987039
0.602000,2.419801
0.603000,2.740554
0.604000,1.794841
0.605000,0.705299
0.606000,-0.101675
0.607000,-0.783912
0.608000,-1.714351
0.609000,-2.248940
0.610000,-3.091553
0.611000,-5.052984
0.612000,-5.333007
0.613000,-5.103897
0.614000,-4.771689
0.615000,-3.123374
0.616000,-1.667256
0.617000,-1.159397
0.618000,-0.629900
0.619000,-0.682086
0.620000,-0.696087
0.621000,-0.824643
0.622000,-1.590886
0.623000,-1.566703
0.624000,-1.687622
0.625000,-2.227301
0.626000,-3.542135
0.627000,-3.641416
0.628000,-3.164104
0.629000,-2.231120
0.630000,-2.116565
0.631000,-0.955744
0.632000,-0.221321
0.633000,-0.333330
0.634000,-1.382142
0.635000,-1.691440
0.636000,-0.908650
0.637000,0.385819
0.638000,0.463461
0.639000,0.999323
0.640000,1.164790
0.641000,0.353998
0.642000,-0.124586
0.643000,-0.335876
0.644000,-0.916287
0.645000,-1.198855
0.646000,-1.099574
0.647000,-1.251041
0.648000,-1.415236
0.649000,-2.051651
0.650000,-2.397861
0.651000,-2.639698
0.652000,-3.033003
0.653000,-3.795428
0.654000,-4.620222
0.655000,-5.867595
0.656000,-5.148446
0.657000,-3.510314
0.658000,-1.556520
0.659000,0.230533
0.660000,0.977684
0.661000,0.849129
0.662000,0.664568
0.663000,0.019243
0.664000,0.353998
0.665000,0.618746
0.666000,-0.102948
0.667000,-0.542075
0.668000,-0.869192
0.669000,-1.091937
0.670000,-1.874728
0.671000,-3.044458
0.672000,-3.498859
0.673000,-3.566319
0.674000,-2.859898
0.675000,-2.223483
0.676000,-2.444955
0.677000,-3.086462
0.678000,-4.187460
0.679000,-3.338482
0.680000,-1.192491
0.681000,-0.022760
0.682000,0.426549
0.683000,0.700208
0.684000,0.908952
0.685000,0.407457
0.686000,-0.301510
0.687000,-1.495424
0.688000,-2.586239
0.689000,-2.598968
0.690000,-2.206936
0.691000,-1.617616
0.692000,-1.905275
0.693000,-2.330401
0.694000,-2.881536
0.695000,-3.176833
0.696000,-2.880263
0.697000,-2.238757
0.698000,-1.410145
0.699000,-0.380425
0.700000,-0.445339
0.701000,-0.712634
0.702000,-1.345230
0.703000,-2.133112
0.704000,-2.544236
0.705000,-2.413135
0.706000,-3.150103
0.707000,-2.875172
0.708000,-1.979100
0.709000,-1.224311
0.710000,-0.750819
0.711000,-0.101675
0.712000,0.510556
0.713000,0.399820
0.714000,-1.842907
0.715000,-2.864989
0.716000,-3.222654
0.717000,-3.380485
0.718000,-3.099190
0.719000,-3.139921
0.720000,-2.298580
0.721000,-1.835270
0.722000,-1.042297
0.723000,-0.547166
0.724000,-1.830178
0.725000,-3.138648
0.726000,-3.642688
0.727000,-3.880708
0.728000,-2.899356
0.729000,-1.448329
0.730000,-0.278599
0.731000,0.331087
0.732000,0.760031
0.733000,1.778295
0.734000,3.109675
0.735000,3.201318
0.736000,2.594179
0.737000,1.920851
0.738000,1.271708
0.739000,0.586926
0.740000,-0.867919
0.741000,-1.461058
0.742000,-1.713078
0.743000,-1.719442
0.744000,-1.481423
0.745000,-1.224311
0.746000,-1.289226
0.747000,-1.812359
0.748000,-2.348220
0.749000,-2.828077
0.750000,-2.868808
0.751000,-3.076279
0.752000,-3.101736
0.753000,-3.073733
0.754000,-3.132284
0.755000,-3.241747
0.756000,-3.801792
0.757000,-3.385577
0.758000,-2.763163
0.759000,-2.262941
0.760000,-1.867091
0.761000,-1.522154
0.762000,-1.901457
0.763000,-2.172570
0.764000,-1.769083
0.765000,-1.259951
0.766000,-1.080482
0.767000,-0.957017
0.768000,-0.951926
0.769000,-0.845008
0.770000,-1.041024
0.771000,-1.098301
0.772000,-0.246778
0.773000,-0.414792
0.774000,-1.034660
0.775000,-2.002011
0.776000,-2.409316
0.777000,-2.662609
0.778000,-2.889173
0.779000,-5.517567
0.780000,-5.924873
0.781000,-4.806055
0.782000,-3.598139
0.783000,-2.545509
0.784000,-1.406326
0.785000,-0.432611
0.786000,0.328541
0.787000,0.578016
0.788000,0.103250
0.789000,-0.884466
0.790000,-2.262941
0.791000,-4.179823
0.792000,-4.254920
0.793000,-2.982090
0.794000,-1.202673
0.795000,-0.263325
0.796000,0.037063
0.797000,-0.460613
0.798000,-0.567531
0.799000,-0.526801
0.800000,0.550014
0.801000,1.135515
0.802000,1.443540
0.803000,2.036679
0.804000,2.202147
0.805000,2.143597
0.806000,1.631919
0.807000,0.933135
0.808000,0.227988
0.809000,-0.067309
0.810000,-1.214129
0.811000,-2.374950
0.812000,-2.758072
0.813000,-2.738979
0.814000,-2.754253
0.815000,-3.529407
0.816000,-3.533225
0.817000,-3.029184
0.818000,-2.760617
0.819000,-2.101291
0.820000,-1.746172
0.821000,-1.893820
0.822000,-2.488232
0.823000,-3.878162
0.824000,-4.947339
0.825000,-6.039427
0.826000,-7.016961
0.827000,-6.192167
0.828000,-4.631677
0.829000,-4.018173
0.830000,-2.682975
0.831000,-1.438147
0.832000,0.698935
0.833000,2.569995
0.834000,3.296781
0.835000,3.478795
0.836000,2.992574
0.837000,1.812661
0.838000,1.168609
0.839000,1.005687
0.840000,0.595835
0.841000,-0.417337
0.842000,-1.155579
0.843000,-1.482696
0.844000,-1.499243
0.845000,-1.539973
0.846000,-1.508152
0.847000,-1.483969
0.848000,-1.508152
0.849000,-1.537428
0.850000,-1.489060
0.851000,-1.506880
0.852000,-1.956189
0.853000,-2.656245
0.854000,-3.383031
0.855000,-3.235383
0.856000,-3.870525
0.857000,-4.966432
0.858000,-4.674953
0.859000,-4.020719
0.860000,-2.954087
0.861000,-2.121657
0.862000,-1.807268
0.863000,-2.234938
0.864000,-1.411417
0.865000,-0.172954
0.866000,-0.006213
0.867000,-0.684631
0.868000,-0.832280
0.869000,-0.829734
0.870000,-0.745727
0.871000,-0.694814
0.872000,-0.842462
0.873000,-0.979928
0.874000,-0.890830
0.875000,-0.995202
0.876000,-1.497970
0.877000,-1.860726
0.878000,-2.163660
0.879000,-2.224756
0.880000,-2.077107
0.881000,-1.939642
0.882000,-1.691440
0.883000,-2.143295
0.884000,-1.868363
0.885000,-1.107211
0.886000,-0.832280
0.887000,-0.300237
0.888000,0.104523
0.889000,-0.326966
0.890000,-1.019386
0.891000,-1.739808
0.892000,-2.167478
0.893000,-2.558237
0.894000,-5.672852
0.895000,-7.759021
0.896000,-7.850664
0.897000,-6.936772
0.898000,-5.397921
0.899000,-3.444127
0.900000,-1.808540
0.901000,-0.370242
0.902000,-0.692268
0.903000,-0.477160
0.904000,1.351896
0.905000,3.282780
0.906000,4.364685
0.907000,4.869999
0.908000,3.670993
0.909000,2.284881
0.910000,0.887314
0.911000,0.137617
0.912000,-0.735545
0.913000,-1.659619
0.914000,-1.382142
0.915000,-1.532336
0.916000,-1.715624
0.917000,-1.802176
0.918000,-1.497970
0.919000,-0.890830
0.920000,-1.860726
0.921000,-2.186571
0.922000,-2.504778
0.923000,-2.595149
0.924000,-2.170024
0.925000,-3.199744
0.926000,-3.404669
0.927000,-3.187015
0.928000,-2.624424
0.929000,-2.070743
0.930000,-1.627799
0.931000,-2.864989
0.932000,-2.754253
0.933000,-1.951097
0.934000,-1.183581
0.935000,-0.603170
0.936000,0.065065
0.937000,1.056600
0.938000,1.255161
0.939000,0.208895
0.940000,-0.660448
0.941000,-1.509425
0.942000,-2.097473
0.943000,-2.018557
0.944000,-2.334219
0.945000,-2.326582
0.946000,-2.698249
0.947000,-2.909538
0.948000,-2.761890
0.949000,-2.278215
0.950000,-1.926914
0.951000,-2.066925
0.952000,-1.944733
0.953000,-1.687622
0.954000,-1.783084
0.955000,-1.509425
0.956000,-1.153033
0.957000,-0.360060
0.958000,-0.455522
0.959000,-0.972291
0.960000,-1.626526
0.961000,-2.036377
0.962000,-2.548055
0.963000,-3.342301
0.964000,-3.456855
0.965000,-3.861615
0.966000,-3.684692
0.967000,-3.220109
0.968000,-3.244293
0.969000,-3.731786
0.970000,-3.856524
0.971000,-4.298196
0.972000,-3.915074
0.973000,-2.727524
0.974000,-1.634163
0.975000,-0.603170
0.976000,0.739665
0.977000,0.880949
0.978000,0.716754
0.979000,0.810944
0.980000,1.279345
0.981000,2.026496
0.982000,2.160144
0.983000,2.272153
0.984000,2.015041
0.985000,1.498272
0.986000,1.168609
0.987000,1.015869
0.988000,-0.437702
0.989000,-1.748717
0.990000,-3.389395
0.991000,-4.895153
0.992000,-6.034336
0.993000,-5.965603
0.994000,-4.814965
0.995000,-3.342301
0.996000,-1.415236
0.997000,0.003970
0.998000,1.061691
0.999000,1.496999
1.000000,1.132970
1.001000,1.494453
1.002000,1.178792
1.003000,-0.437702
1.004000,-1.641800
1.005000,-1.760173
1.006000,-2.023649
1.007000,-2.293489
1.008000,-3.325754
1.009000,-5.294822
1.010000,-4.905336
1.011000,-3.810702
1.012000,-2.904447
1.013000,-1.921822
1.014000,-0.715179
1.015000,-0.403336
1.016000,-0.803005
1.017000,-0.974837
1.018000,-0.923924
1.019000,-1.693986
1.020000,-2.140749
1.021000,-2.206936
1.022000,-2.362221
1.023000,-1.966371
1.024000,-1.627799
1.025000,-1.571794
1.026000,-1.797085
1.027000,-1.611252
1.028000,-1.225584
1.029000,-1.039751
1.030000,-1.259951
1.031000,-1.113575
1.032000,-1.061389
1.033000,-0.926469
1.034000,-0.865373
1.035000,-1.030841
1.036000,-1.133940
1.037000,-1.294317
1.038000,-1.287953
1.039000,-1.187399
1.040000,-2.573511
1.041000,-2.980817
1.042000,-2.689339
1.043000,-2.848442
1.044000,-3.124647
1.045000,-3.159013
1.046000,-2.556964
1.047000,-1.733443
1.048000,-0.776275
1.049000,-0.263325
1.050000,-0.288781
1.051000,-0.330785
1.052000,-0.394426
1.053000,-1.018113
1.054000,-1.705441
1.055000,-1.557793
1.056000,-1.505607
1.057000,-1.435601
1.058000,-1.300681
1.059000,-1.412690
1.060000,-1.402508
1.061000,-1.141577
1.062000,-0.674449
1.063000,-0.297691
1.064000,-0.488616
1.065000,-0.833553
1.066000,-1.636708
1.067000,-2.504778
1.068000,-3.736878
1.069000,-4.536215
1.070000,-4.480211
1.071000,-5.161175
1.072000,-5.904507
1.073000,-5.859958
1.074000,-5.885415
1.075000,-5.032619
1.076000,-3.080098
1.077000,-1.183581
1.078000,0.491463
1.079000,1.127878
1.080000,1.112604
1.081000,0.337451
1.082000,0.583107
1.083000,0.908952
1.084000,0.808398
1.085000,0.426549
1.086000,0.464734
1.087000,0.075248
1.088000,-0.380425
1.089000,-0.008759
1.090000,0.299266
1.091000,1.008232
1.092000,0.758758
1.093000,-0.198410
1.094000,-2.112747
1.095000,-2.220937
1.096000,-1.518335
1.097000,-0.330785
1.098000,0.127434
1.099000,-0.223867
1.100000,-0.452976
1.101000,-0.046944
1.102000,-0.279872
1.103000,-1.541246
1.104000,-1.835270
1.105000,-2.418226
1.106000,-2.163660
1.107000,-1.933278
1.108000,-1.525972
1.109000,-1.718169
1.110000,-2.568420
1.111000,-2.618060
1.112000,-2.432227
1.113000,-2.649881
1.114000,-2.406770
1.115000,-2.036377
1.116000,-2.458956
1.117000,-3.302843
1.118000,-3.638870
1.119000,-3.407215
1.120000,-2.834441
1.121000,-2.036377
1.122000,-1.268860
1.123000,-0.833553
1.124000,-0.512799
1.125000,-0.221321
1.126000,0.038336
1.127000,-0.139860
1.128000,-0.195865
1.129000,-0.940470
1.130000,-1.485242
1.131000,-1.859454
1.132000,-2.285852
1.133000,-2.684247
1.134000,-3.237928
1.135000,-3.503950
1.136000,-3.243020
1.137000,-2.976998
1.138000,-2.933722
1.139000,-2.926085
1.140000,-2.896810
1.141000,-2.604059
1.142000,-2.887900
1.143000,-2.553146
1.144000,-1.790721
1.145000,-0.969745
1.146000,-1.032114
1.147000,-1.270133
1.148000,-1.650709
1.149000,-1.944733
1.150000,-2.144567
1.151000,-1.508152
1.152000,-1.399962
1.153000,-2.260395
1.154000,-1.063935
1.155000,-0.398245
1.156000,-0.155134
1.157000,0.065065
1.158000,0.524557
1.159000,0.639112
1.160000,0.690025
1.161000,0.269991
1.162000,-0.144952
1.163000,-0.306601
1.164000,-0.780094
1.165000,-1.749990
1.166000,-1.916731
1.167000,-1.758900
1.168000,-2.045287
1.169000,-2.568420
1.170000,-2.592604
1.171000,-1.884910
1.172000,-1.522154
1.173000,-2.134385
1.174000,-2.418226
1.175000,-1.588341
1.176000,-1.476332
1.177000,-1.179762
1.178000,-0.396972
1.179000,0.165619
1.180000,0.020516
1.181000,-0.335876
1.182000,-0.783912
1.183000,-1.187399
1.184000,-2.357130
1.185000,-3.446673
1.186000,-4.319834
1.187000,-4.212916
1.188000,-4.448390
1.189000,-4.302014
1.190000,-3.230291
1.191000,-2.097473
1.192000,-0.862828
1.193000,-0.500071
1.194000,-0.147497
1.195000,0.586926
1.196000,1.061691
1.197000,0.812217
1.198000,0.516920
1.199000,-0.381698
1.200000,-1.453421
1.201000,-1.972735
1.202000,-1.961280
1.203000,-1.785629
1.204000,-1.425419
1.205000,-1.471240
1.206000,-1.732171
1.207000,-1.487787
1.208000,-1.609979
1.209000,-2.906993
1.210000,-3.534498
1.211000,-2.914630
1.212000,-2.470412
1.213000,-1.910367
1.214000,-1.351594
1.215000,-0.811914
1.216000,-0.531892
1.217000,-0.399518
1.218000,-0.482252
1.219000,0.061247
1.220000,0.197440
1.221000,-0.101675
1.222000,-0.277326
1.223000,-0.943016
1.224000,-1.511971
1.225000,-1.753809
1.226000,-2.101291
1.227000,-2.315127
1.228000,-2.234938
1.229000,-2.189117
1.230000,-2.022376
1.231000,-2.184025
1.232000,-2.430954
1.233000,-3.050822
1.234000,-3.506496
1.235000,-3.789064
1.236000,-3.927802
1.237000,-3.483585
1.238000,-2.914630
1.239000,-2.584967
1.240000,-2.242575
1.241000,-1.440693
1.242000,-0.193319
1.243000,0.732028
1.244000,1.168609
1.245000,0.865675
1.246000,-0.006213
1.247000,-0.531892
1.248000,-1.411417
1.249000,-2.136931
1.250000,-3.488676
1.251000,-3.184470
1.252000,-2.056742
1.253000,-0.940470
1.254000,0.016698
1.255000,0.229260
1.256000,-0.915014
1.257000,-2.418226
1.258000,-4.150548
1.259000,-4.681318
1.260000,-3.633779
1.261000,-2.467866
1.262000,-1.280316
1.263000,-0.287509
1.264000,0.455824
1.265000,0.760031
1.266000,0.408729
1.267000,0.225442
1.268000,0.235625
1.269000,-0.295146
1.270000,-2.451320
1.271000,-4.215462
1.272000,-5.562116
1.273000,-5.863777
1.274000,-4.817510
1.275000,-3.474675
1.276000,-1.385961
1.277000,0.305630
1.278000,1.248797
1.279000,1.913215
1.280000,2.954389
1.281000,3.068944
1.282000,2.561085
1.283000,1.304802
1.284000,0.328541
1.285000,-0.214957
1.286000,-0.451704
1.287000,-0.923924
1.288000,-1.761446
1.289000,-2.359676
1.290000,-3.025366
1.291000,-3.731786
1.292000,-4.024537
1.293000,-4.066541
1.294000,-4.366929
1.295000,-6.575289
1.296000,-6.616019
1.297000,-5.803954
1.298000,-4.813692
1.299000,-3.007546
1.300000,-1.266315
1.301000,-0.216230
1.302000,0.374363
1.303000,0.781669
1.304000,0.429095
1.305000,0.033245
1.306000,-0.268416
1.307000,0.230533
1.308000,1.182610
1.309000,1.409174
1.310000,1.029871
1.311000,0.688752
1.312000,-0.329512
1.313000,-1.150487
1.314000,-0.744455
1.315000,-1.029568
1.316000,-1.158124
1.317000,-1.001566
1.318000,-0.664266
1.319000,-0.917559
1.320000,-1.299408
1.321000,-1.991828
1.322000,-2.821713
1.323000,-3.740696
1.324000,-4.083088
1.325000,-4.755142
1.326000,-4.375838
1.327000,-3.719058
1.328000,-2.988454
1.329000,-2.191662
1.330000,-1.584522
1.331000,-1.318501
1.332000,-1.097028
1.333000,-0.654084
1.334000,-0.272235
1.335000,0.849129
1.336000,0.978957
1.337000,0.583107
1.338000,0.282719
1.339000,0.014152
1.340000,-1.305773
1.341000,-2.152204
1.342000,-2.394042
1.343000,-2.280760
1.344000,-2.759344
1.345000,-3.979988
1.346000,-6.044519
1.347000,-6.255808
1.348000,-5.114080
1.349000,-3.948168
1.350000,-2.186571
1.351000,-0.474615
1.352000,0.221623
1.353000,-0.045671
1.354000,-0.520436
1.355000,-0.480979
1.356000,-0.813187
1.357000,-1.193763
1.358000,-1.019386
1.359000,-1.063935
1.360000,-1.137759
1.361000,-1.049934
1.362000,-0.940470
1.363000,-0.340967
1.364000,0.660750
1.365000,0.667114
1.366000,0.611109
1.367000,0.306903
1.368000,-0.328239
1.369000,-1.184854
1.370000,-2.032558
1.371000,-3.111918
1.372000,-3.509041
1.373000,-4.869696
1.374000,-6.236716
1.375000,-5.863777
1.376000,-4.442026
1.377000,-2.663882
1.378000,-1.280316
1.379000,-0.367697
1.380000,0.328541
1.381000,0.600927
1.382000,-0.062218
1.383000,0.338724
1.384000,0.967502
1.385000,-0.096584
1.386000,-1.019386
1.387000,-0.995202
1.388000,-0.819551
1.389000,-1.797085
1.390000,-1.942188
1.391000,-1.841634
1.392000,-1.197582
1.393000,-0.724089
1.394000,-0.446612
1.395000,-0.286236
1.396000,-0.720271
1.397000,-1.371960
1.398000,-1.944733
1.399000,-2.166206
1.400000,-2.125475
1.401000,-1.861999
1.402000,-1.830178
1.403000,-1.338866
1.404000,-0.959563
1.405000,-1.461058
1.406000,-2.019830
1.407000,-3.904891
1.408000,-4.692773
1.409000,-4.221826
1.410000,-2.786074
1.411000,-1.811086
1.412000,-1.453421
1.413000,-1.581977
1.414000,-1.623980
1.415000,-1.621434
1.416000,-1.599796
1.417000,-1.668529
1.418000,-1.630344
1.419000,-1.590886
1.420000,-1.282862
1.421000,-0.885739
1.422000,-0.130950
1.423000,0.171983
1.424000,0.057428
1.425000,-0.048216
1.426000,-0.463159
1.427000,-0.799186
1.428000,-1.433056
1.429000,-1.267588
1.430000,-0.995202
1.431000,-0.545893
1.432000,-0.460613
1.433000,-0.796641
1.434000,-0.637537
1.435000,-0.752091
1.436000,-1.098301
1.437000,-1.839088
1.438000,-1.977827
1.439000,-1.753809
1.440000,-2.275669
1.441000,-2.648608
1.442000,-2.494596
1.443000,-2.058015
1.444000,-2.102564
1.445000,-2.110201
1.446000,-2.177661
1.447000,-2.240030
1.448000,-2.232393
1.449000,-3.006273
1.450000,-5.439924
1.451000,-6.437823
1.452000,-5.124262
1.453000,-3.427580
1.454000,-1.153033
1.455000,1.045144
1.456000,1.897941
1.457000,2.547084
1.458000,2.048134
1.459000,0.868221
1.460000,0.529648
1.461000,0.374363
1.462000,0.201258
1.463000,-0.845008
1.464000,-1.791994
1.465000,-2.918448
1.466000,-3.027911
1.467000,-2.943905
1.468000,-3.195925
1.469000,-2.434773
1.470000,-1.589614
1.471000,-1.030841
1.472000,-1.163216
1.473000,-1.592159
1.474000,-2.747889
1.475000,-3.327027
1.476000,-3.307934
1.477000,-2.857352
1.478000,-1.940915
1.479000,-1.916731
1.480000,-1.632890
1.481000,-0.923924
1.482000,-0.181864
1.483000,0.039609
1.484000,-0.374061
1.485000,-1.086846
1.486000,-1.473786
1.487000,-1.259951
1.488000,-1.349049
1.489000,-1.142850
1.490000,-0.738090
1.491000,-1.112302
1.492000,-0.893376
1.493000,-1.093210
1.494000,-0.916287
1.495000,-1.290499
1.496000,-1.590886
1.497000,-1.352867
1.498000,-1.496697
1.499000,-1.485242
1.500000,-1.262496
1.501000,-1.239585
1.502000,-1.559066
1.503000,-2.850988
1.504000,-3.076279
1.505000,-3.267204
1.506000,-4.406386
1.507000,-4.415296
1.508000,-4.030902
1.509000,-3.540862
1.510000,-2.696976
1.511000,-1.534882
1.512000,-0.651538
1.513000,-0.090220
1.514000,0.038336
1.515000,0.996777
1.516000,2.303973
1.517000,2.475805
1.518000,1.229705
1.519000,0.537285
1.520000,-0.170408
1.521000,-0.576441
1.522000,-1.108484
1.523000,-1.407599
1.524000,-1.436874
1.525000,-1.634163
1.526000,-1.578158
1.527000,-1.514517
1.528000,-1.429237
1.529000,-1.359231
1.530000,-2.003283
1.531000,-2.843351
1.532000,-3.047004
1.533000,-3.649053
1.534000,-3.841250
1.535000,-3.811975
1.536000,-3.753425
1.537000,-3.679600
1.538000,-4.970250
1.539000,-6.524375
1.540000,-5.666488
1.541000,-3.469584
1.542000,-1.247222
1.543000,0.506737
1.544000,1.190247
1.545000,1.393900
1.546000,1.192793
1.547000,0.719300
1.548000,0.784214
1.549000,0.109614
1.550000,-1.244677
1.551000,-1.366868
1.552000,-0.851372
1.553000,-0.414792
1.554000,-0.301510
1.555000,-0.358787
1.556000,-0.225140
1.557000,-0.043125
1.558000,-0.652811
1.559000,-1.072845
1.560000,-0.964654
1.561000,-1.114848
1.562000,-1.105938
1.563000,-1.436874
1.564000,-2.111474
1.565000,-3.469584
1.566000,-4.187460
1.567000,-4.865878
1.568000,-4.093270
1.569000,-3.430126
1.570000,-2.433500
1.571000,-1.786902
1.572000,-1.336320
1.573000,-0.969745
1.574000,-0.506435
1.575000,-0.214957
1.576000,-0.553530
1.577000,-3.576501
1.578000,-4.864605
1.579000,-4.442026
1.580000,-3.577774
1.581000,-2.086017
1.582000,-1.261223
1.583000,-0.809369
1.584000,-0.211139
1.585000,-0.640082
1.586000,-2.005829
1.587000,-2.224756
1.588000,-2.257849
1.589000,-1.887456
1.590000,-1.639254
1.591000,-1.153033
1.592000,-0.633718
1.593000,0.945864
1.594000,1.785932
1.595000,1.635738
1.596000,2.319247
1.597000,2.035406
1.598000,0.989140
1.599000,-0.007486
1.600000,-1.018113
1.601000,-1.802176
1.602000,-3.562500
1.603000,-4.167094
1.604000,-4.546398
1.605000,-3.575228
1.606000,-2.502233
1.607000,-1.301954
1.608000,-0.059672
1.609000,0.739665
1.610000,1.222068
1.611000,1.022234
1.612000,0.542377
1.613000,-0.216230
1.614000,-0.927742
1.615000,-1.328683
1.616000,-1.356686
1.617000,-1.452148
1.618000,-2.601513
1.619000,-3.757243
1.620000,-4.125091
1.621000,-5.348281
1.622000,-6.386910
1.623000,-6.222715
1.624000,-4.747505
1.625000,-2.954087
1.626000,-1.594705
1.627000,-0.506435
1.628000,0.113433
1.629000,0.454551
1.630000,0.360362
1.631000,0.129980
1.632000,-0.036761
1.633000,-1.187399
1.634000,-1.308318
1.635000,-1.038478
1.636000,-1.020659
1.637000,-0.601898
1.638000,-0.351150
1.639000,-0.577714
1.640000,-1.238313
1.641000,-2.108928
1.642000,-3.035548
1.643000,-3.931621
1.644000,-4.753869
1.645000,-4.835330
1.646000,-4.053812
1.647000,-3.090280
1.648000,-2.483140
1.649000,-3.459401
1.650000,-2.587512
1.651000,-1.723261
1.652000,-1.374505
1.653000,-1.083027
1.654000,-0.174227
1.655000,0.911497
1.656000,1.742655
1.657000,2.372706
1.658000,2.321793
1.659000,1.603917
1.660000,0.718027
1.661000,0.304357
1.662000,-0.262052
1.663000,-1.070299
1.664000,-1.707987
1.665000,-1.985464
1.666000,-2.140749
1.667000,-1.753809
1.668000,-1.492879
1.669000,-1.467422
1.670000,-1.735989
1.671000,-2.110201
1.672000,-2.274396
1.673000,-1.886183
1.674000,-1.729625
1.675000,-2.073289
1.676000,-3.309207
1.677000,-3.598139
1.678000,-3.397032
1.679000,-2.730069
1.680000,-1.856908
1.681000,-1.536155
1.682000,-1.790721
1.683000,-2.558237
1.684000,-3.323208
1.685000,-3.254475
1.686000,-3.454310
1.687000,-2.848442
1.688000,-2.139476
1.689000,-2.574784
1.690000,-5.231180
1.691000,-5.721220
1.692000,-4.190005
1.693000,-2.021103
1.694000,0.393456
1.695000,2.049407
1.696000,3.044760
1.697000,3.364241
1.698000,2.130868
1.699000,1.477907
1.700000,1.328986
1.701000,0.715481
1.702000,0.128707
1.703000,-0.305328
1.704000,-0.578987
1.705000,-0.456795
1.706000,-0.696087
1.707000,-1.896366
1.708000,-2.581148
1.709000,-3.153922
1.710000,-3.217563
1.711000,-2.621879
1.712000,-2.335492
1.713000,-2.097473
1.714000,-2.350766
1.715000,-2.858625
1.716000,-2.940086
1.717000,-2.304944
1.718000,-1.438147
1.719000,-0.474615
1.720000,-0.464432
1.721000,-0.654084
1.722000,-0.963381
1.723000,-1.360504
1.724000,-1.884910
1.725000,-1.980372
1.726000,-2.031286
1.727000,-2.989727
1.728000,-3.474675
1.729000,-3.184470
1.730000,-3.001182
1.731000,-2.662609
1.732000,-2.177661
1.733000,-1.417782
1.734000,-0.511527
1.735000,0.206349
1.736000,0.210168
1.737000,0.524557
1.738000,0.696389
1.739000,-0.754637
1.740000,-0.818279
1.741000,-1.324865
1.742000,-1.595978
1.743000,-1.867091
1.744000,-2.396588
1.745000,-1.765264
1.746000,-1.114848
1.747000,-1.100847
1.748000,-1.363050
1.749000,-1.251041
1.750000,-1.340139
1.751000,-1.393598
1.752000,-1.452148
1.753000,-1.333775
1.754000,-2.335492
1.755000,-2.909538
1.756000,-3.026639
1.757000,-3.269749
1.758000,-3.402124
1.759000,-2.885355
1.760000,-2.380041
1.761000,-2.737706
1.762000,-2.770800
1.763000,-2.822986
1.764000,-1.965098
1.765000,-1.439420
1.766000,-0.781367
1.767000,-0.244232
1.768000,-0.362606
1.769000,-0.254415
1.770000,-0.745727
1.771000,-1.385961
1.772000,-2.344402
1.773000,-3.965987
1.774000,-5.854867
1.775000,-5.877778
1.776000,-4.260011
1.777000,-2.164933
1.778000,-1.772901
1.779000,-0.789004
1.780000,0.371817
1.781000,1.591189
1.782000,2.268334
1.783000,2.455440
1.784000,2.772375
1.785000,2.657820
1.786000,1.759202
1.787000,0.318359
1.788000,-0.606989
1.789000,-1.178490
1.790000,-1.441965
1.791000,-1.627799
1.792000,-2.049105
1.793000,-2.074562
1.794000,-1.769083
1.795000,-1.855635
1.796000,-1.830178
1.797000,-1.499243
1.798000,-1.641800
1.799000,-1.741080
1.800000,-2.007102
1.801000,-2.293489
1.802000,-2.366040
1.803000,-2.209482
1.804000,-1.906548
1.805000,-1.793266
1.806000,-1.581977
1.807000,-1.450875
1.808000,-1.210310
1.809000,-0.820824
1.810000,-0.207320
1.811000,-0.678267
1.812000,-0.915014
1.813000,-0.972291
1.814000,-1.438147
1.815000,-1.729625
1.816000,-1.877273
1.817000,-2.994818
1.818000,-3.785245
1.819000,-3.591775
1.820000,-3.141193
1.821000,-2.639698
1.822000,-3.220109
1.823000,-3.305388
1.824000,-3.391941
1.825000,-3.348665
1.826000,-3.307934
1.827000,-2.926085
1.828000,-2.254031
1.829000,-0.969745
1.830000,0.007788
1.831000,0.627656
1.832000,1.018415
1.833000,0.852947
1.834000,0.404911
1.835000,0.341269
1.836000,0.184711
1.837000,-0.066036
1.838000,-0.775002
1.839000,-1.622707
1.840000,-1.785629
1.841000,-2.187844
1.842000,-2.770800
1.843000,-2.845897
1.844000,-2.610423
1.845000,-2.316400
1.846000,-2.971907
1.847000,-5.055530
1.848000,-5.875232
1.849000,-4.648224
1.850000,-2.675338
1.851000,-0.640082
1.852000,0.901315
1.853000,1.517364
1.854000,1.406628
1.855000,0.971320
1.856000,0.314540
1.857000,0.113433
1.858000,-0.730453
1.859000,-0.920105
1.860000,-1.197582
1.861000,-1.667256
1.862000,-1.854362
1.863000,-2.032558
1.864000,-2.548055
1.865000,-2.563329
1.866000,-2.299853
1.867000,-1.929459
1.868000,-1.566703
1.869000,-2.242575
1.870000,-3.129738
1.871000,-3.579047
1.872000,-3.379213
1.873000,-3.031730
1.874000,-2.458956
1.875000,-1.691440
1.876000,-1.706714
1.877000,-3.125919
1.878000,-3.423762
1.879000,-2.632061
1.880000,-1.259951
1.881000,0.552559
1.882000,1.651012
1.883000,1.619191
1.884000,1.153335
1.885000,0.641657
1.886000,0.954774
1.887000,0.781669
1.888000,0.012879
1.889000,-0.426247
1.890000,-0.638810
1.891000,-0.903558
1.892000,-1.127576
1.893000,-0.762274
1.894000,-0.422429
1.895000,-0.713907
1.896000,-1.295590
1.897000,-1.846725
1.898000,-2.397861
1.899000,-2.658791
1.900000,-2.621879
1.901000,-2.481867
1.902000,-2.406770
1.903000,-2.353312
1.904000,-1.998192
1.905000,-1.481423
1.906000,-2.115292
1.907000,-3.343573
1.908000,-4.140365
1.909000,-4.916791
1.910000,-4.862060
1.911000,-4.025810
1.912000,-2.844624
1.913000,-1.702895
1.914000,-0.974837
1.915000,-0.685904
1.916000,0.392183
1.917000,0.860584
1.918000,0.631475
1.919000,0.233079
1.920000,0.468552
1.921000,0.282719
1.922000,-0.324421
1.923000,-0.561167
1.924000,-0.648992
1.925000,-0.685904
1.926000,-0.859009
1.927000,-0.800459
1.928000,-1.263769
1.929000,-2.148386
1.930000,-2.707158
1.931000,-3.026639
1.932000,-4.025810
1.933000,-4.582037
1.934000,-4.083088
1.935000,-3.230291
1.936000,-2.124202
1.937000,-1.237040
1.938000,-0.399518
1.939000,-0.101675
1.940000,-0.311692
1.941000,-1.341412
1.942000,-2.227301
1.943000,-2.273123
1.944000,-1.356686
1.945000,-1.228130
1.946000,-1.657074
1.947000,-2.026194
1.948000,-2.045287
1.949000,-2.405498
1.950000,-3.071188
1.951000,-2.903174
1.952000,-2.884082
1.953000,-3.645234
1.954000,-2.956633
1.955000,-2.866262
1.956000,-4.444571
1.957000,-4.452208
1.958000,-3.545953
1.959000,-2.508597
1.960000,-1.281589
1.961000,-0.265870
1.962000,1.390081
1.963000,0.906406
1.964000,-1.062662
1.965000,-0.724089
1.966000,0.282719
1.967000,1.908123
1.968000,1.936125
1.969000,1.454996
1.970000,1.033689
1.971000,1.202975
1.972000,0.989140
1.973000,0.113433
1.974000,-0.749546
1.975000,-1.645618
1.976000,-2.997364
1.977000,-3.338482
1.978000,-2.816622
1.979000,-1.938369
1.980000,-1.279043
1.981000,-0.879374
1.982000,-0.240414
1.983000,0.576743
1.984000,0.980230
1.985000,0.390910
1.986000,0.105796
1.987000,-0.431338
1.988000,-0.985019
1.989000,-1.602342
1.990000,-1.940915
1.991000,-2.058015
1.992000,-2.480595
1.993000,-2.811530
1.994000,-2.850988
1.995000,-2.983362
1.996000,-3.083916
1.997000,-3.281205
1.998000,-3.381758
1.999000,-3.426307
2.000000,-3.040640
2.001000,-3.128465
2.002000,-4.010536
2.003000,-4.132728
2.004000,-3.710148
2.005000,-2.992272
2.006000,-2.205663
2.007000,-1.433056
2.008000,-0.929015
2.009000,-0.674449
2.010000,-0.935379
2.011000,-0.710088
2.012000,-0.258233
2.013000,-1.427964
2.014000,-2.462775
2.015000,-1.744899
2.016000,-0.929015
2.017000,-0.472069
2.018000,-0.197138
2.019000,0.000151
2.020000,0.100705
2.021000,-1.118667
2.022000,-1.730898
2.023000,-1.263769
2.024000,-1.478877
2.025000,-1.513244
2.026000,-1.312137
2.027000,-1.150487
2.028000,-1.351594
2.029000,-2.079653
2.030000,-2.163660
2.031000,-2.299853
2.032000,-2.283306
2.033000,-2.667701
2.034000,-2.063106
2.035000,-1.142850
2.036000,-0.459341
2.037000,-0.724089
2.038000,-0.377879
2.039000,-0.190773
2.040000,-0.447885
2.041000,-1.444511
2.042000,-1.550156
2.043000,-1.609979
2.044000,-1.346503
2.045000,-2.084744
2.046000,-2.964270
2.047000,-2.906993
2.048000,-2.684247
2.049000,-2.322764
2.050000,-1.849271
2.051000,-1.399962
2.052000,-1.673620
2.053000,-2.238757
2.054000,-2.873899
2.055000,-2.792438
2.056000,-2.350766
2.057000,-2.049105
2.058000,-1.825087
2.059000,-1.382142
2.060000,-1.058844
2.061000,-1.002839
2.062000,-1.168307
2.063000,-1.672348
2.064000,-2.726251
2.065000,-3.092826
2.066000,-2.696976
2.067000,-1.798358
2.068000,-1.097028
2.069000,-0.814460
2.070000,0.126161
2.071000,0.821126
2.072000,0.688752
2.073000,0.761303
2.074000,0.883495
2.075000,0.449460
2.076000,0.042154
2.077000,-0.088947
2.078000,0.053610
2.079000,-1.721988
2.080000,-2.834441
2.081000,-2.306217
2.082000,-1.859454
2.083000,-1.697804
2.084000,-1.294317
2.085000,-1.198855
2.086000,-1.485242
2.087000,-1.696531
2.088000,-2.339310
2.089000,-3.139921
2.090000,-3.258294
2.091000,-2.919721
2.092000,-2.316400
2.093000,-1.744899
2.094000,-0.889557
2.095000,-0.965927
2.096000,-1.366868
2.097000,-1.653255
2.098000,-2.372404
2.099000,-2.382587
2.100000,-2.742798
2.101000,-3.290114
2.102000,-3.683419
2.103000,-3.719058
2.104000,-3.053368
2.105000,-1.827633
2.106000,-2.089836
2.107000,-1.719442
2.108000,-0.665539
2.109000,0.440550
2.110000,1.344260
2.111000,1.355715
2.112000,0.798215
2.113000,0.481281
2.114000,0.320904
2.115000,-1.061389
2.116000,-1.543792
2.117000,-2.215846
2.118000,-1.940915
2.119000,-1.818723
2.120000,-1.324865
2.121000,-1.221766
2.122000,-1.494151
2.123000,-1.954916
2.124000,-2.021103
2.125000,-1.870909
2.126000,-1.765264
2.127000,-1.626526
2.128000,-1.564157
2.129000,-1.523426
2.130000,-1.529791
2.131000,-0.727908
2.132000,-0.528073
2.133000,-1.021931
2.134000,-1.514517
2.135000,-2.186571
2.136000,-2.373677
2.137000,-2.257849
2.138000,-1.770355
2.139000,-1.183581
2.140000,-1.105938
2.141000,-0.983747
2.142000,-1.217947
2.143000,-1.435601
2.144000,-1.491606
2.145000,-1.732171
2.146000,-2.268032
2.147000,-3.015183
2.148000,-3.271022
2.149000,-3.404669
2.150000,-3.923984
2.151000,-3.423762
2.152000,-3.414852
2.153000,-2.777164
2.154000,-1.466149
2.155000,-1.286680
2.156000,-1.809813
2.157000,-1.819996
2.158000,-2.042741
2.159000,-1.909094
2.160000,-1.393598
2.161000,-1.084300
2.162000,-0.777548
2.163000,-0.147497
2.164000,0.286538
2.165000,0.530921
2.166000,0.819854
2.167000,0.770213
2.168000,0.208895
2.169000,-1.396143
2.170000,-3.674509
2.171000,-3.923984
2.172000,-4.181095
2.173000,-3.561227
2.174000,-2.162387
2.175000,-0.855191
2.176000,-0.419883
2.177000,0.040882
2.178000,-0.069855
2.179000,-0.460613
2.180000,-0.307874
2.181000,-0.749546
2.182000,-0.648992
2.183000,-0.727908
2.184000,-0.771184
2.185000,-1.197582
2.186000,-0.941743
2.187000,-0.758456
2.188000,-0.972291
2.189000,-1.352867
2.190000,-1.480150
2.191000,-1.826360
2.192000,-2.376223
2.193000,-2.455138
2.194000,-2.143295
2.195000,-1.427964
2.196000,-2.176388
2.197000,-2.931176
2.198000,-3.537043
2.199000,-3.948168
2.200000,-3.931621
2.201000,-3.402124
2.202000,-2.069471
2.203000,-0.699905
2.204000,-0.390608
2.205000,-0.533165
2.206000,-0.208593
2.207000,0.133798
2.208000,0.859311
2.209000,1.442267
2.210000,1.516092
2.211000,0.622565
2.212000,-0.236595
2.213000,-0.763547
2.214000,-0.978655
2.215000,-1.153033
2.216000,-1.453421
2.217000,-1.930732
2.218000,-2.251485
2.219000,-2.324037
2.220000,-2.549327
2.221000,-2.792438
2.222000,-3.243020
2.223000,-4.546398
2.224000,-4.730958
2.225000,-4.402568
2.226000,-3.926529
2.227000,-3.216290
2.228000,-2.681702
2.229000,-2.656245
2.230000,-2.269305
2.231000,-3.276113
2.232000,-2.730069
2.233000,-1.776720
2.234000,-0.276053
2.235000,0.488918
2.236000,0.898769
2.237000,0.259808
2.238000,-0.449158
2.239000,-1.387234
2.240000,-1.491606
2.241000,-1.215402
2.242000,-1.770355
2.243000,-2.101291
2.244000,-3.439036
2.245000,-5.060621
2.246000,-4.225645
2.247000,-2.649881
2.248000,-1.145396
2.249000,-0.368970
2.250000,0.011607
2.251000,0.942045
2.252000,1.433358
2.253000,1.014597
2.254000,0.835128
2.255000,-1.000293
2.256000,-2.520052
2.257000,-2.511143
2.258000,-2.311308
2.259000,-1.303227
2.260000,-0.175499
2.261000,0.523284
2.262000,0.397274
2.263000,0.193621
2.264000,-0.034215
2.265000,0.401092
2.266000,0.919134
2.267000,0.824945
2.268000,0.049791
2.269000,-0.920105
2.270000,-1.649437
2.271000,-2.257849
2.272000,-2.923539
2.273000,-2.884082
2.274000,-2.868808
2.275000,-2.948996
2.276000,-3.015183
2.277000,-2.682975
2.278000,-2.539145
2.279000,-2.341856
2.280000,-2.296034
2.281000,-2.690612
2.282000,-2.593876
2.283000,-2.699521
2.284000,-2.499687
2.285000,-2.736433
2.286000,-2.817895
2.287000,-2.396588
2.288000,-2.130566
2.289000,-1.760173
2.290000,-1.282862
2.291000,-0.982474
2.292000,-0.531892
2.293000,-0.679540
2.294000,-1.595978
2.295000,-1.083027
2.296000,-0.758456
2.297000,-0.785185
2.298000,-0.985019
2.299000,-1.104665
2.300000,-1.356686
2.301000,-1.662165
2.302000,-1.758900
2.303000,-1.793266
2.304000,-1.951097
2.305000,-1.956189
2.306000,-1.727079
2.307000,-1.060116
2.308000,-0.791549
2.309000,-1.061389
2.310000,-1.212856
2.311000,-1.425419
2.312000,-1.909094
2.313000,-1.715624
2.314000,-1.733443
2.315000,-1.639254
2.316000,-2.815349
2.317000,-3.090280
2.318000,-2.751707
2.319000,-2.033831
2.320000,-2.406770
2.321000,-2.750435
2.322000,-2.924812
2.323000,-3.063551
2.324000,-2.751707
2.325000,-2.308763
2.326000,-2.700794
2.327000,-3.192107
2.328000,-2.794984
2.329000,-2.441137
2.330000,-1.906548
2.331000,-1.575612
2.332000,-2.060561
2.333000,-3.391941
2.334000,-3.379213
2.335000,-2.041468
2.336000,-0.422429
2.337000,0.958592
2.338000,2.627272
2.339000,3.555165
2.340000,3.882283
2.341000,3.635353
2.342000,3.234412
2.343000,2.548357
2.344000,1.644647
2.345000,0.947137
2.346000,0.105796
2.347000,-0.576441
2.348000,-1.259951
2.349000,-2.092381
2.350000,-3.691056
2.351000,-4.131455
2.352000,-3.664326
2.353000,-2.931176
2.354000,-2.280760
2.355000,-1.693986
2.356000,-1.197582
2.357000,-0.982474
2.358000,-0.884466
2.359000,-0.741909
2.360000,-1.413963
2.361000,-2.100018
2.362000,-3.426307
2.363000,-3.358847
2.364000,-3.197198
2.365000,-2.791165
2.366000,-2.567147
2.367000,-2.287124
2.368000,-1.995646
2.369000,-1.916731
2.370000,-1.932005
2.371000,-2.346947
2.372000,-2.722432
2.373000,-3.197198
2.374000,-3.047004
2.375000,-2.731342
2.376000,-2.096200
2.377000,-1.483969
2.378000,-1.407599
2.379000,-1.454694
2.380000,-3.561227
2.381000,-5.376283
2.382000,-4.771689
2.383000,-3.356302
2.384000,-1.622707
2.385000,0.276355
2.386000,1.149517
2.387000,1.294619
2.388000,0.802034
2.389000,0.826218
2.390000,1.097330
2.391000,0.650567
2.392000,-0.258233
2.393000,-0.510254
2.394000,-0.629900
2.395000,-0.718998
2.396000,-1.061389
2.397000,-1.506880
2.398000,-1.397416
2.399000,-1.426691
2.400000,-1.663438
2.401000,-1.854362
2.402000,-2.345675
2.403000,-2.882809
2.404000,-3.153922
2.405000,-3.250657
2.406000,-3.463219
2.407000,-3.301570
2.408000,-2.648608
2.409000,-2.343129
2.410000,-2.030013
2.411000,-1.463603
2.412000,-0.539529
2.413000,0.003970
2.414000,-0.105494
2.415000,-0.701178
2.416000,-1.289226
2.417000,-1.634163
2.418000,-1.707987
2.419000,-1.010476
2.420000,-0.800459
2.421000,-1.228130
2.422000,-1.648164
2.423000,-1.721988
2.424000,-1.732171
2.425000,-1.932005
2.426000,-1.891274
2.427000,-1.616343
2.428000,-1.588341
2.429000,-1.710532
2.430000,-2.115292
2.431000,-3.273568
2.432000,-3.372848
2.433000,-3.702511
2.434000,-3.491222
2.435000,-3.111918
2.436000,-3.461947
2.437000,-3.002455
2.438000,-3.263385
2.439000,-3.584138
2.440000,-2.569693
2.441000,-1.341412
2.442000,0.098159
2.443000,1.973038
2.444000,3.570439
2.445000,4.801266
2.446000,4.978189
2.447000,3.967562
2.448000,2.527991
2.449000,1.253889
2.450000,-0.090220
2.451000,-2.513688
2.452000,-4.426752
2.453000,-4.177277
2.454000,-3.404669
2.455000,-2.862444
2.456000,-2.374950
2.457000,-1.617616
2.458000,-1.193763
2.459000,-1.267588
2.460000,-1.447057
2.461000,-1.111030
2.462000,-1.085573
2.463000,-1.637981
2.464000,-2.010920
2.465000,-2.094927
2.466000,-2.619333
2.467000,-3.157740
2.468000,-3.502677
2.469000,-3.246838
2.470000,-2.727524
2.471000,-2.679156
2.472000,-2.679156
2.473000,-2.460229
2.474000,-2.251485
2.475000,-2.144567
2.476000,-1.998192
2.477000,-1.131395
2.478000,-0.548439
2.479000,-0.589169
2.480000,-0.521709
2.481000,-0.829734
2.482000,-1.263769
2.483000,-1.426691
2.484000,-1.823814
2.485000,-2.270578
2.486000,-2.644790
2.487000,-2.969361
2.488000,-3.038094
2.489000,-2.609150
2.490000,-1.636708
2.491000,-0.871737
2.492000,-0.282417
2.493000,-0.815733
2.494000,-1.333775
2.495000,-2.117838
2.496000,-1.641800
2.497000,-1.035933
2.498000,-0.222594
2.499000,0.056156
2.500000,-0.385516
2.501000,-1.417782
2.502000,-1.567976
2.503000,-1.954916
2.504000,-1.898911
2.505000,-1.035933
2.506000,-0.572622
2.507000,-0.898467
2.508000,-0.862828
2.509000,-0.838644
2.510000,-0.752091
2.511000,-0.992656
2.512000,-1.083027
2.513000,-0.944289
2.514000,-1.229403
2.515000,-1.315955
2.516000,-1.804722
2.517000,-2.041468
2.518000,-1.960007
2.519000,-1.943460
2.520000,-1.897638
2.521000,-2.162387
2.522000,-2.338038
2.523000,-2.167478
2.524000,-2.224756
2.525000,-2.621879
2.526000,-2.696976
2.527000,-2.577330
2.528000,-2.433500
2.529000,-2.593876
2.530000,-2.840805
2.531000,-2.582421
2.532000,-2.624424
2.533000,-2.457684
2.534000,-1.791994
2.535000,-1.163216
2.536000,-0.885739
2.537000,-0.675722
2.538000,-0.185682
2.539000,0.155436
2.540000,0.114706
2.541000,-0.142406
2.542000,-0.813187
2.543000,-0.674449
2.544000,-0.979928
2.545000,-1.145396
2.546000,-1.630344
2.547000,-2.954087
2.548000,-3.412306
2.549000,-3.319390
2.550000,-3.052095
2.551000,-2.606605
2.552000,-2.205663
2.553000,-2.187844
2.554000,-1.552702
2.555000,-1.537428
2.556000,-1.239585
2.557000,-0.845008
2.558000,-0.321875
2.559000,0.533467
2.560000,0.637839
2.561000,-0.188228
2.562000,-0.993929
2.563000,-1.650709
2.564000,-1.991828
2.565000,-2.219664
2.566000,-2.324037
2.567000,-2.461502
2.568000,-3.310480
2.569000,-4.174731
2.570000,-4.023265
2.571000,-3.511587
2.572000,-2.136931
2.573000,-0.764820
2.574000,0.227988
2.575000,0.511829
2.576000,1.042599
2.577000,-0.465705
2.578000,-2.219664
2.579000,-3.418670
2.580000,-3.498859
2.581000,-2.905720
2.582000,-1.261223
2.583000,0.268718
2.584000,0.952228
2.585000,0.291629
2.586000,0.184711
2.587000,0.117251
2.588000,0.099432
2.589000,0.609837
2.590000,0.481281
2.591000,0.396001
2.592000,0.210168
2.593000,0.049791
2.594000,-0.340967
2.595000,-0.674449
2.596000,-1.202673
2.597000,-1.230676
2.598000,-1.438147
2.599000,-1.826360
2.600000,-1.785629
2.601000,-2.107655
2.602000,-2.615515
2.603000,-2.399133
2.604000,-2.181480
2.605000,-2.224756
2.606000,-2.145840
2.607000,-2.079653
2.608000,-2.101291
2.609000,-2.126748
2.610000,-1.961280
2.611000,-1.802176
2.612000,-2.059288
2.613000,-2.526416
2.614000,-2.861171
2.615000,-2.833169
2.616000,-2.726251
2.617000,-2.847170
2.618000,-3.072461
2.619000,-2.983362
2.620000,-2.984635
2.621000,-3.026639
2.622000,-2.778437
2.623000,-2.293489
2.624000,-2.285852
2.625000,-2.297307
2.626000,-2.083472
2.627000,-2.122929
2.628000,-2.097473
2.629000,-1.777992
2.630000,-1.480150
2.631000,-1.028296
2.632000,-0.874283
2.633000,-1.049934
2.634000,-0.637537
2.635000,-0.684631
2.636000,-1.039751
2.637000,-0.637537
2.638000,-0.893376
2.639000,-2.478049
2.640000,-3.439036
2.641000,-3.803065
2.642000,-3.444127
2.643000,-3.291387
2.644000,-3.015183
2.645000,-2.317672
2.646000,-1.604888
2.647000,-0.750819
2.648000,-0.052035
2.649000,1.337895
2.650000,1.850846
2.651000,1.757929
2.652000,1.353169
2.653000,0.684934
2.654000,-0.343513
2.655000,-1.042297
2.656000,-1.960007
2.657000,-2.745343
2.658000,-3.061005
2.659000,-2.308763
2.660000,-1.772901
2.661000,-1.441965
2.662000,-2.649881
2.663000,-1.986737
2.664000,-1.098301
2.665000,0.313267
2.666000,1.985766
2.667000,2.622181
2.668000,2.240332
2.669000,1.023506
2.670000,0.155436
2.671000,-0.386789
2.672000,-1.041024
2.673000,-1.858181
2.674000,-2.171297
2.675000,-1.967644
2.676000,-1.940915
2.677000,-2.204390
2.678000,-2.396588
2.679000,-2.618060
2.680000,-2.600241
2.681000,-2.642244
2.682000,-2.497141
2.683000,-2.438591
2.684000,-2.485686
2.685000,-2.391497
2.686000,-1.822541
2.687000,-1.345230
2.688000,-1.483969
2.689000,-1.607433
2.690000,-1.904003
2.691000,-1.569248
2.692000,-1.365596
2.693000,-1.641800
2.694000,-1.823814
2.695000,-2.058015
2.696000,-2.242575
2.697000,-2.485686
2.698000,-2.590058
2.699000,-2.646063
2.700000,-2.703340
2.701000,-3.006273
2.702000,-3.024093
2.703000,-2.910811
2.704000,-3.159013
2.705000,-3.800519
2.706000,-3.563773
2.707000,-2.848442
2.708000,-1.859454
2.709000,-1.248495
2.710000,0.075248
2.711000,0.802034
2.712000,0.250899
2.713000,-0.184409
2.714000,-0.059672
2.715000,0.488918
2.716000,0.221623
2.717000,-0.134769
2.718000,-1.112302
2.719000,-2.023649
2.720000,-2.433500
2.721000,-2.476776
2.722000,-1.981645
2.723000,-1.571794
2.724000,-1.355413
2.725000,-2.382587
2.726000,-2.276942
2.727000,-2.320218
2.728000,-3.465765
2.729000,-4.103453
2.730000,-5.144628
2.731000,-4.449663
2.732000,-2.817895
2.733000,-1.122485
2.734000,-0.055853
2.735000,0.686206
2.736000,0.966229
2.737000,0.627656
2.738000,0.152891
2.739000,-0.099130
2.740000,-0.531892
2.741000,-2.670246
2.742000,-4.606221
2.743000,-4.676226
2.744000,-3.973624
2.745000,-3.333391
2.746000,-2.606605
2.747000,-1.326138
2.748000,0.006515
2.749000,0.552559
2.750000,0.846583
2.751000,1.598826
2.752000,2.156325
2.753000,2.048134
2.754000,1.222068
2.755000,0.637839
2.756000,-0.584078
2.757000,-1.406326
2.758000,-3.244293
2.759000,-3.011365
2.760000,-1.781811
2.761000,-0.398245
2.762000,0.164346
2.763000,-0.004940
2.764000,-0.230231
2.765000,-0.050762
2.766000,0.303085
2.767000,0.040882
2.768000,-0.787731
2.769000,-1.504334
2.770000,-1.539973
2.771000,-2.534053
2.772000,-3.019002
2.773000,-3.059732
2.774000,-2.794984
2.775000,-2.553146
2.776000,-2.546782
2.777000,-3.383031
2.778000,-3.831067
2.779000,-3.729241
2.780000,-2.850988
2.781000,-2.098746
2.782000,-1.436874
2.783000,-0.687177
2.784000,-1.153033
2.785000,-1.009203
2.786000,-1.374505
2.787000,-1.142850
2.788000,-0.761001
2.789000,-1.234494
2.790000,-1.195036
2.791000,-0.918832
2.792000,-1.114848
2.793000,-1.825087
2.794000,-2.297307
2.795000,-2.274396
2.796000,-1.819996
2.797000,-1.728352
2.798000,-1.338866
2.799000,-1.373233
2.800000,-3.250657
2.801000,-4.080542
2.802000,-3.965987
2.803000,-3.019002
2.804000,-2.513688
2.805000,-1.845452
2.806000,-1.730898
2.807000,-1.604888
2.808000,-1.952370
2.809000,-2.117838
2.810000,-1.531063
2.811000,-0.874283
2.812000,-0.651538
2.813000,-0.438975
2.814000,-0.636264
2.815000,-0.985019
2.816000,-1.207765
2.817000,-1.332502
2.818000,-1.896366
2.819000,-3.290114
2.820000,-3.113191
2.821000,-2.691884
2.822000,-2.212027
2.823000,-1.249768
2.824000,-1.013022
2.825000,-0.444067
2.826000,0.553832
2.827000,0.813489
2.828000,0.331087
2.829000,-0.367697
2.830000,-1.944733
2.831000,-2.503506
2.832000,-2.364767
2.833000,-3.813248
2.834000,-4.123818
2.835000,-4.884970
2.836000,-5.371192
2.837000,-4.032174
2.838000,-3.001182
2.839000,-1.279043
2.840000,0.631475
2.841000,1.355715
2.842000,1.848300
2.843000,1.382444
2.844000,0.184711
2.845000,-0.049489
2.846000,0.584380
2.847000,1.258980
2.848000,1.882667
2.849000,1.611554
2.850000,0.766395
2.851000,0.031972
2.852000,-0.567531
2.853000,-1.452148
2.854000,-2.147113
2.855000,-2.374950
2.856000,-2.629516
2.857000,-2.741525
2.858000,-2.764436
2.859000,-3.313025
2.860000,-3.386850
2.861000,-2.478049
2.862000,-1.664711
2.863000,-1.153033
2.864000,-0.855191
2.865000,-0.367697
2.866000,0.131253
2.867000,-0.099130
2.868000,-0.606989
2.869000,-1.560339
2.870000,-2.012193
2.871000,-2.143295
2.872000,-2.178934
2.873000,-2.380041
2.874000,-2.406770
2.875000,-2.075835
2.876000,-2.238757
2.877000,-2.198026
2.878000,-1.956189
2.879000,-1.734716
2.880000,-1.915458
2.881000,-2.156023
2.882000,-1.769083
2.883000,-1.597251
2.884000,-1.667256
2.885000,-1.448329
2.886000,-1.575612
2.887000,-1.897638
2.888000,-2.296034
2.889000,-2.665155
2.890000,-2.872626
2.891000,-3.418670
2.892000,-4.214189
2.893000,-4.849331
2.894000,-4.676226
2.895000,-4.197642
2.896000,-4.526032
2.897000,-5.181540
2.898000,-4.520941
2.899000,-3.759789
2.900000,-4.148002
2.901000,-3.463219
2.902000,-0.796641
2.903000,-0.022760
2.904000,1.211885
2.905000,2.157598
2.906000,2.785103
2.907000,3.917922
2.908000,3.780456
2.909000,3.844098
2.910000,2.664184
2.911000,1.208067
2.912000,-1.240858
2.913000,-3.641416
2.914000,-4.186187
2.915000,-3.142466
2.916000,-2.274396
2.917000,-1.845452
2.918000,-0.988838
2.919000,-0.244232
2.920000,0.252171
2.921000,0.226715
2.922000,-0.193319
2.923000,-0.231504
2.924000,-0.655356
2.925000,-1.018113
2.926000,-0.939197
2.927000,-0.259506
2.928000,0.010334
2.929000,-0.385516
2.930000,-1.177217
2.931000,-1.748717
2.932000,-1.968917
2.933000,-2.036377
2.934000,-2.878990
2.935000,-2.934995
2.936000,-3.189561
2.937000,-4.379657
2.938000,-4.638041
2.939000,-3.879435
2.940000,-2.405498
2.941000,-1.004112
2.942000,-0.284963
2.943000,-0.380425
2.944000,-0.768638
2.945000,-1.551429
2.946000,-1.719442
2.947000,-1.382142
2.948000,-1.179762
2.949000,-1.373233
2.950000,-1.511971
2.951000,-1.489060
2.952000,-1.277770
2.953000,-1.989282
2.954000,-2.455138
2.955000,-2.738979
2.956000,-2.433500
2.957000,-1.980372
2.958000,-1.453421
2.959000,-1.173398
2.960000,-1.547610
2.961000,-2.539145
2.962000,-3.600685
2.963000,-5.115353
2.964000,-5.624485
2.965000,-4.420388
2.966000,-2.532781
2.967000,-0.684631
2.968000,0.161800
2.969000,0.844037
2.970000,1.158426
2.971000,2.312883
2.972000,2.006131
2.973000,0.642930
2.974000,-1.355413
2.975000,-2.931176
2.976000,-2.657518
2.977000,-2.312581
2.978000,-2.433500
2.979000,-2.119111
2.980000,-1.671075
2.981000,-0.992656
2.982000,-0.600625
2.983000,-0.367697
2.984000,-0.011304
2.985000,0.098159
2.986000,0.397274
2.987000,0.933135
2.988000,0.840219
2.989000,0.203804
2.990000,-1.499243
2.991000,-2.882809
2.992000,-3.481039
2.993000,-3.473402
2.994000,-3.211199
2.995000,-2.820440
2.996000,-2.434773
2.997000,-1.873455
2.998000,-1.436874
2.999000,-1.668529
3.000000,-2.074562
3.001000,-2.386405
3.002000,-2.380041
3.003000,-2.807712
3.004000,-2.806439
3.005000,-2.448774
3.006000,-2.162387
3.007000,-2.121657
3.008000,-2.044014
3.009000,-1.625253
3.010000,-1.053752
3.011000,-0.657902
3.012000,0.072702
3.013000,0.243262
3.014000,0.015425
3.015000,0.100705
3.016000,-0.548439
3.017000,-1.032114
3.018000,-1.579431
3.019000,-2.190389
3.020000,-2.203118
3.021000,-1.873455
3.022000,-2.198026
3.023000,-4.860787
3.024000,-5.704673
3.025000,-4.552762
3.026000,-2.441137
3.027000,-1.137759
3.028000,-0.516618
3.029000,0.142708
3.030000,-0.582805
3.031000,-1.986737
3.032000,-2.476776
3.033000,-1.772901
3.034000,-0.418610
3.035000,0.598381
3.036000,1.346805
3.037000,1.861028
3.038000,1.393900
3.039000,0.355271
3.040000,-0.414792
3.041000,-0.645174
3.042000,-1.049934
3.043000,-1.009203
3.044000,-1.130122
3.045000,-1.305773
3.046000,-1.523426
3.047000,-3.949440
3.048000,-4.702956
3.049000,-4.631677
3.050000,-4.174731
3.051000,-3.566319
3.052000,-2.509870
3.053000,-1.683803
3.054000,-0.626081
3.055000,-0.419883
3.056000,-0.632445
3.057000,-0.725362
3.058000,-1.178490
3.059000,-1.272679
3.060000,-1.293044
3.061000,-0.813187
3.062000,-1.775447
3.063000,-2.406770
3.064000,-3.096644
3.065000,-3.587957
3.066000,-3.460674
3.067000,-2.719887
3.068000,-2.637153
3.069000,-2.618060
3.070000,-1.461058
3.071000,0.005242
3.072000,0.681115
3.073000,0.392183
3.074000,0.025608
3.075000,0.062520
3.076000,-0.024033
3.077000,-0.543347
3.078000,-0.262052
3.079000,-0.610807
3.080000,-1.721988
3.081000,-3.047004
3.082000,-3.909983
3.083000,-3.458128
3.084000,-3.050822
3.085000,-2.550600
3.086000,-3.201016
3.087000,-3.486130
3.088000,-4.293105
3.089000,-3.021547
3.090000,-1.128849
3.091000,0.684934
3.092000,0.827491
3.093000,1.400264
3.094000,1.628101
3.095000,1.400264
3.096000,1.246252
3.097000,1.621736
3.098000,1.915760
3.099000,0.491463
3.100000,-0.940470
3.101000,-1.686349
3.102000,-2.392769
3.103000,-2.704613
3.104000,-2.320218
3.105000,-3.159013
3.106000,-3.800519
3.107000,-3.206108
3.108000,-3.034276
3.109000,-2.572238
3.110000,-2.238757
3.111000,-1.730898
3.112000,-1.085573
3.113000,-0.822097
3.114000,-0.889557
3.115000,-0.971018
3.116000,-1.888729
3.117000,-2.255304
3.118000,-2.208209
3.119000,-2.415680
3.120000,-3.029184
3.121000,-3.296479
3.122000,-3.603231
3.123000,-2.853534
3.124000,-2.284579
3.125000,-1.253586
3.126000,-0.245505
3.127000,-0.152589
3.128000,-0.249324
3.129000,-0.338422
3.130000,-0.417337
3.131000,-0.772457
3.132000,-1.032114
3.133000,-1.688894
3.134000,-1.883637
3.135000,-1.641800
3.136000,-1.548883
3.137000,-2.003283
3.138000,-3.211199
3.139000,-3.358847
3.140000,-2.985908
3.141000,-2.187844
3.142000,-1.168307
3.143000,-1.000293
3.144000,-1.182308
3.145000,-1.249768
3.146000,-1.335048
3.147000,-1.144123
3.148000,-0.907377
3.149000,-1.406326
3.150000,-2.595149
3.151000,-3.459401
3.152000,-3.323208
3.153000,-2.378768
3.154000,-1.720715
3.155000,-2.343129
3.156000,-1.947279
3.157000,-3.921438
3.158000,-4.714411
3.159000,-3.335936
3.160000,-1.365596
3.161000,-0.251869
3.162000,0.729483
3.163000,1.651012
3.164000,2.348522
3.165000,1.570823
3.166000,1.320076
3.167000,1.266617
3.168000,0.175802
3.169000,-0.069855
3.170000,-0.097857
3.171000,-0.414792
3.172000,-0.242959
3.173000,-0.108040
3.174000,-0.701178
3.175000,-1.626526
3.176000,-2.448774
3.177000,-3.190834
3.178000,-3.361393
3.179000,-3.313025
3.180000,-2.794984
3.181000,-2.693157
3.182000,-2.694430
3.183000,-2.497141
3.184000,-1.839088
3.185000,-1.538700
3.186000,-1.076663
3.187000,-0.388062
3.188000,-0.291327
3.189000,-0.297691
3.190000,-0.819551
3.191000,-0.906104
3.192000,-1.275225
3.193000,-1.794539
3.194000,-2.420772
3.195000,-2.588785
3.196000,-2.470412
3.197000,-2.495869
3.198000,-2.107655
3.199000,-2.060561
3.200000,-2.134385
3.201000,-1.906548
3.202000,-1.946006
3.203000,-2.674065
3.204000,-2.825532
3.205000,-2.386405
3.206000,-2.107655
3.207000,-1.946006
3.208000,-1.519608
3.209000,-1.377051
3.210000,-1.318501
3.211000,-1.509425
3.212000,-1.855635
3.213000,-2.517507
3.214000,-3.276113
3.215000,-3.498859
3.216000,-3.131011
3.217000,-3.006273
3.218000,-2.255304
3.219000,-3.099190
3.220000,-2.881536
3.221000,-2.261668
3.222000,-1.039751
3.223000,0.578016
3.224000,1.003141
3.225000,1.045144
3.226000,0.956046
3.227000,-0.127132
3.228000,-1.095756
3.229000,-3.133556
3.230000,-6.473462
3.231000,-6.640203
3.232000,-4.704229
3.233000,-2.021103
3.234000,0.188530
3.235000,1.565732
3.236000,2.629818
3.237000,2.963299
3.238000,2.064681
3.239000,1.013324
3.240000,-0.185682
3.241000,-1.004112
3.242000,-0.587896
3.243000,0.107069
3.244000,0.098159
3.245000,-0.440248
3.246000,-0.932833
3.247000,-1.327411
3.248000,-1.346503
3.249000,-0.976110
3.250000,-1.371960
3.251000,-1.603615
3.252000,-1.606160
3.253000,-1.802176
3.254000,-1.657074
3.255000,-2.204390
3.256000,-2.807712
3.257000,-2.959179
3.258000,-1.990555
3.259000,-1.458512
3.260000,-1.775447
3.261000,-1.618889
3.262000,-1.450875
3.263000,-1.435601
3.264000,-1.485242
3.265000,-1.597251
3.266000,-1.845452
3.267000,-1.709260
3.268000,-1.896366
3.269000,-1.851817
3.270000,-1.743626
3.271000,-2.430954
3.272000,-3.045731
3.273000,-3.725422
3.274000,-4.524760
3.275000,-3.997808
3.276000,-3.129738
3.277000,-2.528962
3.278000,-2.423317
3.279000,-2.845897
3.280000,-2.858625
3.281000,-3.001182
3.282000,-2.563329
3.283000,-1.220493
3.284000,0.183439
3.285000,-0.978655
3.286000,-1.279043
3.287000,-0.790276
3.288000,-0.078764
3.289000,1.103695
3.290000,1.601371
3.291000,1.255161
3.292000,0.776577
3.293000,0.226715
3.294000,0.109614
3.295000,0.226715
3.296000,-0.466978
3.297000,-1.163216
3.298000,-1.433056
3.299000,-1.097028
3.300000,-1.000293
3.301000,-1.784357
3.302000,-2.693157
3.303000,-4.546398
3.304000,-4.565490
3.305000,-4.196369
3.306000,-3.561227
3.307000,-2.707158
3.308000,-1.918004
3.309000,-1.102120
3.310000,-0.375334
3.311000,0.462188
3.312000,0.602200
3.313000,-0.629900
3.314000,-1.018113
3.315000,-2.341856
3.316000,-3.044458
3.317000,-3.092826
3.318000,-2.694430
3.319000,-2.010920
3.320000,-1.434328
3.321000,-0.915014
3.322000,-0.424974
3.323000,-0.153861
3.324000,-0.901013
3.325000,-1.856908
3.326000,-3.041913
3.327000,-2.800075
3.328000,-2.763163
3.329000,-3.811975
3.330000,-2.996091
3.331000,-2.074562
3.332000,-1.741080
3.333000,-1.347776
3.334000,-2.303671
3.335000,-2.824259
3.336000,-1.825087
3.337000,-0.295146
3.338000,0.644203
3.339000,0.712936
3.340000,0.443096
3.341000,0.481281
3.342000,0.817308
3.343000,1.746474
3.344000,0.716754
3.345000,-0.818279
3.346000,-2.260395
3.347000,-2.796256
3.348000,-2.868808
3.349000,-4.291832
3.350000,-4.963886
3.351000,-4.431843
3.352000,-3.220109
3.353000,-2.083472
3.354000,-1.433056
3.355000,-0.954471
3.356000,-0.279872
3.357000,-0.356241
3.358000,-0.694814
3.359000,-0.320602
3.360000,-1.090664
3.361000,-2.170024
3.362000,-1.935823
3.363000,-1.494151
3.364000,-0.852645
3.365000,-0.263325
3.366000,-0.069855
3.367000,0.188530
3.368000,0.062520
3.369000,-0.192046
3.370000,-0.752091
3.371000,-1.631617
3.372000,-1.904003
3.373000,-1.612525
3.374000,-1.891274
3.375000,-2.152204
3.376000,-2.297307
3.377000,-2.400406
3.378000,-2.652427
3.379000,-2.985908
3.380000,-2.789892
3.381000,-2.464048
3.382000,-2.471685
3.383000,-2.084744
3.384000,-1.560339
3.385000,-1.225584
3.386000,-0.918832
3.387000,-0.529346
3.388000,-1.682530
3.389000,-2.481867
3.390000,-2.298580
3.391000,-2.051651
3.392000,-2.363494
3.393000,-2.490777
3.394000,-2.540418
3.395000,-2.308763
3.396000,-2.262941
3.397000,-2.162387
3.398000,-1.907821
3.399000,-2.083472
3.400000,-2.383860
3.401000,-2.492050
3.402000,-2.713522
3.403000,-4.263829
3.404000,-3.789064
3.405000,-3.460674
3.406000,-2.260395
3.407000,-0.487343
3.408000,0.938227
3.409000,1.665013
3.410000,2.338340
3.411000,2.561085
3.412000,1.369716
3.413000,-0.990111
3.414000,-1.716897
3.415000,-1.738535
3.416000,-2.232393
3.417000,-2.271850
3.418000,-1.766537
3.419000,-1.646891
3.420000,-2.102564
3.421000,-3.743242
3.422000,-4.219280
3.423000,-3.329572
3.424000,-1.668529
3.425000,0.227988
3.426000,1.994676
3.427000,2.608180
3.428000,2.348522
3.429000,0.611109
3.430000,-0.326966
3.431000,-0.487343
3.432000,-1.132668
3.433000,-1.664711
3.434000,-1.473786
3.435000,-1.565430
3.436000,-1.963826
3.437000,-1.891274
3.438000,-1.677439
3.439000,-1.629071
3.440000,-1.832724
3.441000,-1.972735
3.442000,-2.158569
3.443000,-1.835270
3.444000,-1.238313
3.445000,-0.862828
3.446000,-0.386789
3.447000,-1.100847
3.448000,-1.649437
3.449000,-1.802176
3.450000,-1.877273
3.451000,-1.911640
3.452000,-1.616343
3.453000,-1.300681
3.454000,-1.212856
3.455000,-1.471240
3.456000,-1.303227
3.457000,-1.201400
3.458000,-1.977827
3.459000,-3.705057
3.460000,-4.251101
3.461000,-4.132728
3.462000,-3.402124
3.463000,-2.950269
3.464000,-4.190005
3.465000,-3.930348
3.466000,-3.710148
3.467000,-3.421216
3.468000,-2.148386
3.469000,-1.433056
3.470000,-1.809813
3.471000,-1.898911
3.472000,-1.739808
3.473000,-1.784357
3.474000,-1.286680
3.475000,-0.694814
3.476000,0.362908
3.477000,0.823672
3.478000,0.922953
3.479000,1.192793
3.480000,1.132970
3.481000,0.707845
3.482000,0.194894
3.483000,-0.808096
3.484000,-1.977827
3.485000,-2.545509
3.486000,-2.812803
3.487000,-2.717341
3.488000,-2.429681
3.489000,-1.560339
3.490000,-1.027023
3.491000,-1.710532
3.492000,-2.572238
3.493000,-2.390224
3.494000,-1.840361
3.495000,-1.439420
3.496000,-1.312137
3.497000,-1.206492
3.498000,-1.287953
3.499000,-1.219220
3.500000,-1.228130
3.501000,-0.713907
3.502000,-0.657902
3.503000,-1.305773
3.504000,-1.233221
3.505000,-1.590886
3.506000,-1.338866
3.507000,-1.015567
3.508000,-0.827188
3.509000,-0.817006
3.510000,-0.731726
3.511000,-0.945562
3.512000,-0.651538
3.513000,-0.992656
3.514000,-1.854362
3.515000,-1.977827
3.516000,-2.410589
3.517000,-3.173014
3.518000,-3.235383
3.519000,-3.688510
3.520000,-4.724594
3.521000,-5.641031
3.522000,-6.328360
3.523000,-4.514577
3.524000,-1.499243
3.525000,-0.038034
3.526000,1.140607
3.527000,1.542821
3.528000,1.714653
3.529000,1.756656
3.530000,1.550458
3.531000,0.954774
3.532000,0.478735
3.533000,-0.347332
3.534000,-2.058015
3.535000,-2.492050
3.536000,-1.851817
3.537000,-0.909922
3.538000,-0.142406
3.539000,0.245807
3.540000,0.504192
3.541000,0.244534
3.542000,-0.575168
3.543000,-1.636708
3.544000,-2.296034
3.545000,-2.737706
3.546000,-4.136546
3.547000,-4.652043
3.548000,-4.251101
3.549000,-3.566319
3.550000,-3.039367
3.551000,-2.490777
3.552000,-1.976554
3.553000,-1.897638
3.554000,-1.970190
3.555000,-1.565430
3.556000,-1.643072
3.557000,-2.803893
3.558000,-3.402124
3.559000,-3.176833
3.560000,-2.638426
3.561000,-2.152204
3.562000,-1.714351
3.563000,-1.459785
3.564000,-1.424146
3.565000,-1.539973
3.566000,-1.354140
3.567000,-0.665539
3.568000,-0.200956
3.569000,0.715481
3.570000,1.042599
3.571000,0.436732
3.572000,0.024335
3.573000,-0.407155
3.574000,-1.043570
3.575000,-1.322319
3.576000,-1.253586
3.577000,-1.553974
3.578000,-3.245565
3.579000,-3.943076
3.580000,-4.431843
3.581000,-4.895153
3.582000,-4.277831
3.583000,-3.255748
3.584000,-2.100018
3.585000,-1.350322
3.586000,-0.511527
3.587000,0.938227
3.588000,1.775749
3.589000,1.255161
3.590000,0.649294
3.591000,0.805852
3.592000,0.522011
3.593000,-0.113131
3.594000,-0.212412
3.595000,-0.659175
3.596000,-2.414407
3.597000,-4.907881
3.598000,-5.119171
3.599000,-4.428024
3.600000,-3.150103
3.601000,-1.562884
3.602000,-0.354969
3.603000,0.282719
3.604000,0.394728
3.605000,0.155436
3.606000,-0.066036
3.607000,0.079067
3.608000,-0.740636
3.609000,-1.183581
3.610000,-1.042297
3.611000,-1.504334
3.612000,-1.996919
3.613000,-2.410589
3.614000,-2.605332
3.615000,-2.555692
3.616000,-2.101291
3.617000,-2.061834
3.618000,-1.881092
3.619000,-1.771628
3.620000,-2.049105
3.621000,-2.741525
3.622000,-4.038539
3.623000,-6.357635
3.624000,-5.938874
3.625000,-5.409376
3.626000,-4.053812
3.627000,-2.721159
3.628000,-1.415236
3.629000,-0.758456
3.630000,0.283992
3.631000,0.915316
3.632000,1.421902
3.633000,1.887758
3.634000,1.723563
3.635000,2.170326
3.636000,1.858483
3.637000,0.986594
3.638000,0.374363
3.639000,-0.530619
3.640000,-1.449602
3.641000,-1.333775
3.642000,-1.620162
3.643000,-1.431783
3.644000,-1.107211
3.645000,-1.480150
3.646000,-1.641800
3.647000,-1.719442
3.648000,-1.408872
3.649000,-0.878102
3.650000,-1.254859
3.651000,-1.732171
3.652000,-2.086017
3.653000,-2.073289
3.654000,-3.061005
3.655000,-4.947339
3.656000,-5.685581
3.657000,-5.554479
3.658000,-5.226089
3.659000,-6.921498
3.660000,-6.834946
3.661000,-5.037710
3.662000,-3.017729
3.663000,-1.720715
3.664000,-0.232777
3.665000,1.304802
3.666000,1.782113
3.667000,1.527547
3.668000,1.376080
3.669000,2.095229
3.670000,2.699823
3.671000,1.836845
3.672000,1.439722
3.673000,1.392627
3.674000,0.964956
3.675000,0.333632
3.676000,-0.211139
3.677000,-0.494980
3.678000,-0.628627
3.679000,-0.740636
3.680000,-1.034660
3.681000,-1.366868
3.682000,-2.881536
3.683000,-4.090725
3.684000,-4.184914
3.685000,-3.733059
3.686000,-3.407215
3.687000,-2.568420
3.688000,-1.977827
3.689000,-2.630789
3.690000,-4.188732
3.691000,-3.750879
3.692000,-2.506051
3.693000,-2.619333
3.694000,-1.188672
3.695000,0.140162
3.696000,0.548741
3.697000,0.424003
3.698000,0.028153
3.699000,-0.885739
3.700000,-1.679985
3.701000,-1.989282
3.702000,-2.213300
3.703000,-2.176388
3.704000,-1.859454
3.705000,-1.463603
3.706000,-1.084300
3.707000,-1.289226
3.708000,-2.065652
3.709000,-3.089007
3.710000,-3.427580
3.711000,-3.124647
3.712000,-2.565874
3.713000,-1.970190
3.714000,-1.301954
3.715000,-0.716452
3.716000,-0.264598
3.717000,-0.184409
3.718000,-0.176772
3.719000,-0.416064
3.720000,-0.776275
3.721000,-0.493707
3.722000,-0.730453
3.723000,-1.354140
3.724000,-2.546782
3.725000,-3.016456
3.726000,-3.325754
3.727000,-3.324481
3.728000,-3.008819
3.729000,-2.670246
3.730000,-2.164933
3.731000,-1.896366
3.732000,-2.825532
3.733000,-2.427136
3.734000,-1.762718
3.735000,-2.850988
3.736000,-4.755142
3.737000,-4.555307
3.738000,-4.165822
3.739000,-3.260839
3.740000,-1.707987
3.741000,-0.940470
3.742000,-0.264598
3.743000,-0.109312
3.744000,0.448187
3.745000,0.646749
3.746000,1.491908
3.747000,1.434630
3.748000,1.509727
3.749000,1.505909
3.750000,0.732028
3.751000,0.482554
3.752000,0.324723
3.753000,0.071430
3.754000,-0.382971
3.755000,-1.169580
3.756000,-1.338866
3.757000,-1.663438
3.758000,-2.198026
3.759000,-2.212027
3.760000,-3.735605
3.761000,-3.824703
3.762000,-2.859898
3.763000,-1.704168
3.764000,-0.475887
3.765000,-0.419883
3.766000,-1.533609
3.767000,-1.356686
3.768000,-0.927742
3.769000,-0.436430
3.770000,0.165619
3.771000,0.161800
3.772000,-0.095311
3.773000,-0.515345
3.774000,-1.630344
3.775000,-2.628243
3.776000,-2.797529
3.777000,-2.562056
3.778000,-2.485686
3.779000,-2.507324
3.780000,-2.609150
3.781000,-2.452592
3.782000,-2.886627
3.783000,-3.348665
3.784000,-3.043185
3.785000,-2.474230
3.786000,-2.476776
3.787000,-2.380041
3.788000,-2.066925
3.789000,-1.808540
3.790000,-1.587068
3.791000,-1.413963
3.792000,-1.080482
3.793000,-0.913741
3.794000,-0.829734
3.795000,-1.137759
3.796000,-1.688894
3.797000,-2.306217
3.798000,-2.343129
3.799000,-2.596422
3.800000,-3.556136
3.801000,-3.469584
3.802000,-3.080098
3.803000,-3.054641
3.804000,-3.117010
3.805000,-2.144567
3.806000,-2.063106
3.807000,-2.044014
3.808000,-1.088119
3.809000,0.595835
3.810000,2.660366
3.811000,3.365514
3.812000,2.589087
3.813000,2.137233
3.814000,1.883939
3.815000,0.786760
3.816000,0.193621
3.817000,-0.456795
3.818000,-0.931561
3.819000,-1.175944
3.820000,-1.618889
3.821000,-1.896366
3.822000,-2.371131
3.823000,-2.853534
3.824000,-3.318117
3.825000,-3.615959
3.826000,-4.764052
3.827000,-4.659680
3.828000,-4.632950
3.829000,-4.897699
3.830000,-4.263829
3.831000,-2.938813
3.832000,-1.732171
3.833000,-0.446612
3.834000,0.896223
3.835000,1.250070
3.836000,0.835128
3.837000,0.105796
3.838000,-0.929015
3.839000,-1.216674
3.840000,-1.539973
3.841000,-1.690167
3.842000,-2.488232
3.843000,-3.077552
3.844000,-3.180651
3.845000,-2.819167
3.846000,-2.259122
3.847000,-1.965098
3.848000,-1.522154
3.849000,-0.772457
3.850000,0.058701
3.851000,0.003970
3.852000,-0.013850
3.853000,-0.157680
3.854000,0.002697
3.855000,-0.055853
3.856000,-0.847554
3.857000,-1.772901
3.858000,-2.252758
3.859000,-2.492050
3.860000,-2.494596
3.861000,-2.640971
3.862000,-2.592604
3.863000,-2.217119
3.864000,-2.248940
3.865000,-3.743242
3.866000,-5.903234
3.867000,-6.725483
3.868000,-6.232897
3.869000,-5.363555
3.870000,-3.875616
3.871000,-2.176388
3.872000,-0.982474
3.873000,-0.442794
3.874000,0.777850
3.875000,2.443985
3.876000,4.274314
3.877000,4.145758
3.878000,2.720189
3.879000,1.749019
3.880000,1.008232
3.881000,0.348906
3.882000,-0.768638
3.883000,-1.669802
3.884000,-1.791994
3.885000,-1.335048
3.886000,-0.833553
3.887000,-0.745727
3.888000,-0.632445
3.889000,-1.217947
3.890000,-1.691440
3.891000,-1.949824
3.892000,-1.988009
3.893000,-1.700350
3.894000,-1.426691
3.895000,-1.341412
3.896000,-1.184854
3.897000,-1.497970
3.898000,-1.952370
3.899000,-2.352039
3.900000,-2.480595
3.901000,-2.402952
3.902000,-2.460229
3.903000,-2.584967
3.904000,-2.975725
3.905000,-2.500960
3.906000,-1.455966
3.907000,-1.780538
3.908000,-2.161114
3.909000,-3.128465
3.910000,-3.711421
3.911000,-3.693602
3.912000,-3.203562
3.913000,-2.587512
3.914000,-1.860726
3.915000,-1.592159
3.916000,-1.377051
3.917000,-1.398689
3.918000,-1.746172
3.919000,-2.327855
3.920000,-3.729241
3.921000,-3.549772
3.922000,-2.733888
3.923000,-1.128849
3.924000,-0.468250
3.925000,-0.085129
3.926000,0.271264
3.927000,0.583107
3.928000,1.670104
3.929000,2.166508
3.930000,1.251343
3.931000,-0.021487
3.932000,-0.865373
3.933000,-1.779265
3.934000,-1.915458
3.935000,-1.113575
3.936000,-0.613353
3.937000,-0.767365
3.938000,-0.959563
3.939000,-1.256132
3.940000,-1.963826
3.941000,-2.484413
3.942000,-2.522598
3.943000,-2.838260
3.944000,-3.591775
3.945000,-4.260011
3.946000,-4.718230
3.947000,-5.055530
3.948000,-4.198915
3.949000,-3.083916
3.950000,-2.270578
3.951000,-1.370687
3.952000,-0.475887
3.953000,0.207622
3.954000,0.418912
3.955000,0.177074
3.956000,-0.340967
3.957000,-1.340139
3.958000,-1.366868
3.959000,-0.745727
3.960000,-0.095311
3.961000,0.269991
3.962000,0.631475
3.963000,0.766395
3.964000,0.334905
3.965000,-0.362606
3.966000,-0.986292
3.967000,-1.681257
3.968000,-2.983362
3.969000,-3.576501
3.970000,-3.533225
3.971000,-2.973180
3.972000,-2.237484
3.973000,-1.818723
3.974000,-1.427964
3.975000,-1.324865
3.976000,-1.360504
3.977000,-1.884910
3.978000,-3.636324
3.979000,-3.908710
3.980000,-3.473402
3.981000,-3.301570
3.982000,-2.815349
3.983000,-2.040195
3.984000,-1.076663
3.985000,-0.400790
3.986000,-0.786458
3.987000,-1.221766
3.988000,-1.654528
3.989000,-1.514517
3.990000,-0.482252
3.991000,0.182166
3.992000,0.728210
3.993000,0.394728
3.994000,-0.157680
3.995000,-0.344786
3.996000,-0.435157
3.997000,-1.027023
3.998000,-1.450875
3.999000,-0.759728
4.000000,-1.317228
4.001000,-1.580704
4.002000,-1.780538
4.003000,-2.106383
4.004000,-2.142022
4.005000,-2.441137
4.006000,-2.359676
4.007000,-2.593876
4.008000,-3.066096
4.009000,-2.938813
4.010000,-2.490777
4.011000,-1.377051
4.012000,-0.545893
4.013000,-0.492434
4.014000,-0.111858
4.015000,-0.395699
4.016000,-0.977382
4.017000,-1.105938
4.018000,-1.505607
4.019000,-1.807268
4.020000,-2.514961
4.021000,-4.527305
4.022000,-5.338098
4.023000,-5.756859
4.024000,-5.264274
4.025000,-3.965987
4.026000,-2.126748
4.027000,-0.399518
4.028000,0.872040
4.029000,1.831753
4.030000,0.294175
4.031000,-0.222594
4.032000,0.375636
4.033000,-0.354969
4.034000,-0.545893
4.035000,-0.024033
4.036000,0.171983
4.037000,0.399820
4.038000,0.112160
4.039000,-0.536983
4.040000,-0.885739
4.041000,-1.659619
4.042000,-2.102564
4.043000,-2.187844
4.044000,-2.481867
4.045000,-2.327855
4.046000,-1.976554
4.047000,-1.905275
4.048000,-1.744899
4.049000,-1.392325
4.050000,-1.133940
4.051000,-0.890830
4.052000,-0.792822
4.053000,-1.145396
4.054000,-0.881920
4.055000,-0.600625
4.056000,-0.954471
4.057000,-1.626526
4.058000,-2.069471
4.059000,-2.125475
4.060000,-2.100018
4.061000,-2.288397
4.062000,-2.378768
4.063000,-2.204390
4.064000,-2.069471
4.065000,-2.317672
4.066000,-2.072016
4.067000,-1.613797
4.068000,-2.929904
4.069000,-3.656690
4.070000,-3.628687
4.071000,-3.377940
4.072000,-2.835714
4.073000,-1.937096
4.074000,-1.550156
4.075000,-1.974008
4.076000,-2.455138
4.077000,-2.998636
4.078000,-2.812803
4.079000,-2.248940
4.080000,-1.729625
4.081000,-0.977382
4.082000,-0.277326
4.083000,0.147799
4.084000,0.533467
4.085000,0.954774
4.086000,0.986594
4.087000,0.491463
4.088000,0.482554
4.089000,0.099432
4.090000,-0.454249
4.091000,-1.137759
4.092000,-1.466149
4.093000,-1.963826
4.094000,-2.710977
4.095000,-3.133556
4.096000,-3.207381
4.097000,-2.890446
4.098000,-2.774618
4.099000,-2.140749
4.100000,-1.408872
4.101000,-1.002839
4.102000,-1.783084
4.103000,-2.432227
4.104000,-2.158569
4.105000,-1.505607
4.106000,-0.934106
4.107000,-0.805550
4.108000,-0.999020
4.109000,-2.504778
4.110000,-3.428853
4.111000,-3.447945
4.112000,-3.206108
4.113000,-2.301126
4.114000,-1.738535
4.115000,-1.137759
4.116000,-0.739363
4.117000,-0.268416
4.118000,0.511829
4.119000,0.863130
4.120000,1.228432
4.121000,2.172872
4.122000,1.931034
4.123000,0.038336
4.124000,-1.055025
4.125000,-1.522154
4.126000,-1.402508
4.127000,-1.100847
4.128000,-1.035933
4.129000,-1.135213
4.130000,-1.457239
4.131000,-1.480150
4.132000,-1.636708
4.133000,-1.920549
4.134000,-2.223483
4.135000,-2.558237
4.136000,-2.764436
4.137000,-2.941359
4.138000,-3.146285
4.139000,-3.707603
4.140000,-4.079269
4.141000,-3.463219
4.142000,-3.012638
4.143000,-2.242575
4.144000,-1.556520
4.145000,-1.170853
4.146000,-1.527245
4.147000,-2.528962
4.148000,-3.650325
4.149000,-3.423762
4.150000,-3.111918
4.151000,-2.079653
4.152000,-0.496253
4.153000,-0.141133
4.154000,0.198713
4.155000,0.012879
4.156000,-0.508981
4.157000,-0.428793
4.158000,-0.358787
4.159000,-0.614626
4.160000,-0.512799
4.161000,-0.974837
4.162000,-0.827188
4.163000,-0.570077
4.164000,-0.314238
4.165000,-0.302782
4.166000,-0.304055
4.167000,-0.521709
4.168000,-0.977382
4.169000,-1.805995
4.170000,-2.349493
4.171000,-2.604059
4.172000,-2.447501
4.173000,-2.255304
4.174000,-2.050378
4.175000,-2.224756
4.176000,-2.530235
4.177000,-2.955360
4.178000,-2.686793
4.179000,-2.485686
4.180000,-2.520052
4.181000,-2.632061
4.182000,-2.003283
4.183000,-2.201845
4.184000,-3.772517
4.185000,-3.486130
4.186000,-2.495869
4.187000,-1.327411
4.188000,-0.431338
4.189000,-0.442794
4.190000,-0.638810
4.191000,-0.764820
4.192000,-0.256961
4.193000,-0.138587
4.194000,0.323450
4.195000,0.468552
4.196000,0.122343
4.197000,-0.603170
4.198000,-1.252314
4.199000,-1.216674
4.200000,-1.062662
4.201000,-1.321046
4.202000,-1.763991
4.203000,-2.334219
4.204000,-2.658791
4.205000,-3.092826
4.206000,-4.225645
4.207000,-4.613858
4.208000,-4.055085
4.209000,-2.668973
4.210000,-1.575612
4.211000,-1.581977
4.212000,-0.688450
4.213000,0.154163
4.214000,0.968775
4.215000,2.256879
4.216000,2.923842
4.217000,2.321793
4.218000,1.418084
4.219000,0.453279
4.220000,-0.048216
4.221000,-0.856464
4.222000,-1.882365
4.223000,-2.334219
4.224000,-2.329128
4.225000,-2.199299
4.226000,-2.217119
4.227000,-2.321491
4.228000,-2.489504
4.229000,-2.644790
4.230000,-2.120384
4.231000,-1.886183
4.232000,-2.070743
4.233000,-2.526416
4.234000,-2.696976
4.235000,-2.386405
4.236000,-2.252758
4.237000,-2.186571
4.238000,-2.224756
4.239000,-1.870909
4.240000,-1.518335
4.241000,-1.261223
4.242000,-1.071572
4.243000,-1.304500
4.244000,-1.920549
4.245000,-2.611696
4.246000,-2.811530
4.247000,-4.299469
4.248000,-4.215462
4.249000,-3.220109
4.250000,-2.852261
4.251000,-3.645234
4.252000,-2.847170
4.253000,-1.649437
4.254000,-0.642628
4.255000,0.431640
4.256000,1.111332
4.257000,1.513546
4.258000,1.508455
4.259000,0.953501
4.260000,0.261081
4.261000,0.267445
4.262000,-0.263325
4.263000,-1.184854
4.264000,-1.930732
4.265000,-3.005001
4.266000,-3.623596
4.267000,-3.822157
4.268000,-3.649053
4.269000,-3.758516
4.270000,-3.665599
4.271000,-3.100463
4.272000,-2.512415
4.273000,-1.766537
4.274000,-1.234494
4.275000,-0.674449
4.276000,-0.076219
4.277000,0.490191
4.278000,1.149517
4.279000,1.717199
4.280000,1.390081
4.281000,0.674751
4.282000,-0.165317
4.283000,-1.039751
4.284000,-1.574340
4.285000,-2.648608
4.286000,-3.916347
4.287000,-4.337654
4.288000,-4.706774
4.289000,-6.269809
4.290000,-6.127253
4.291000,-5.089896
4.292000,-3.534498
4.293000,-2.220937
4.294000,-3.077552
4.295000,-2.980817
4.296000,-2.563329
4.297000,-0.918832
4.298000,0.822399
4.299000,1.377353
4.300000,1.681559
4.301000,1.056600
4.302000,0.589471
4.303000,1.107513
4.304000,1.973038
4.305000,2.143597
4.306000,2.428711
4.307000,0.852947
4.308000,-0.764820
4.309000,-1.280316
4.310000,-1.088119
4.311000,-1.107211
4.312000,-0.856464
4.313000,-0.466978
4.314000,-0.343513
4.315000,-0.194592
4.316000,-0.811914
4.317000,-1.328683
4.318000,-1.947279
4.319000,-2.276942
4.320000,-2.456411
4.321000,-2.630789
4.322000,-2.633334
4.323000,-2.784801
4.324000,-2.941359
4.325000,-3.759789
4.326000,-4.778053
4.327000,-5.112807
4.328000,-5.368646
4.329000,-5.525204
4.330000,-4.517123
4.331000,-2.747889
4.332000,-1.676166
4.333000,-0.931561
4.334000,-0.306601
4.335000,0.327268
4.336000,1.666285
4.337000,1.554276
4.338000,0.772759
4.339000,0.515647
4.340000,0.322177
4.341000,-0.134769
4.342000,-0.315511
4.343000,-0.590442
4.344000,-1.214129
4.345000,-1.926914
4.346000,-2.318945
4.347000,-2.499687
4.348000,-2.637153
4.349000,-2.779710
4.350000,-2.615515
4.351000,-3.646507
4.352000,-3.937985
4.353000,-4.027083
4.354000,-3.646507
4.355000,-3.193379
4.356000,-2.493323
4.357000,-2.163660
4.358000,-3.371576
4.359000,-4.304560
4.360000,-4.192551
4.361000,-3.712694
4.362000,-2.801348
4.363000,-1.020659
4.364000,0.156709
4.365000,0.248353
4.366000,0.025608
4.367000,-0.045671
4.368000,1.260253
4.369000,1.964128
4.370000,1.073147
4.371000,0.586926
4.372000,-0.052035
4.373000,-0.806823
4.374000,-1.454694
4.375000,-6.534558
4.376000,-8.678004
4.377000,-6.990231
4.378000,-4.118727
4.379000,-1.289226
4.380000,0.972593
4.381000,2.401981
4.382000,3.390970
4.383000,3.047306
4.384000,1.817752
4.385000,1.866120
4.386000,1.130424
4.387000,0.208895
4.388000,-0.338422
4.389000,-0.991384
4.390000,-1.531063
4.391000,-1.538700
4.392000,-1.772901
4.393000,-1.785629
4.394000,-1.399962
4.395000,-1.168307
4.396000,-1.109757
4.397000,-0.997748
4.398000,-1.161943
4.399000,-0.925196
4.400000,-1.305773
4.401000,-2.262941
4.402000,-3.066096
4.403000,-3.113191
4.404000,-3.153922
4.405000,-3.077552
4.406000,-2.797529
4.407000,-2.535326
4.408000,-2.308763
4.409000,-1.837815
4.410000,-1.514517
4.411000,-1.109757
4.412000,-0.592988
4.413000,-1.076663
4.414000,-1.524699
4.415000,-1.315955
4.416000,-1.570521
4.417000,-1.819996
4.418000,-1.473786
4.419000,-1.368141
4.420000,-1.578158
4.421000,-1.660892
4.422000,-1.738535
4.423000,-1.566703
4.424000,-1.475059
4.425000,-1.687622
4.426000,-2.269305
4.427000,-2.850988
4.428000,-2.812803
4.429000,-2.786074
4.430000,-2.577330
4.431000,-2.441137
4.432000,-3.001182
4.433000,-3.969806
4.434000,-4.820056
4.435000,-3.964714
4.436000,-2.864989
4.437000,-2.192935
4.438000,-1.729625
4.439000,-1.088119
4.440000,-0.449158
4.441000,-0.142406
4.442000,-0.768638
4.443000,-0.178045
4.444000,0.030699
4.445000,-0.129678
4.446000,-0.531892
4.447000,-0.543347
4.448000,-0.514072
4.449000,-0.878102
4.450000,-1.501788
4.451000,-2.329128
4.452000,-2.932449
4.453000,-3.264658
4.454000,-3.794155
4.455000,-3.022820
4.456000,-1.909094
4.457000,-1.001566
4.458000,-0.141133
4.459000,0.849129
4.460000,2.085047
4.461000,1.780840
4.462000,1.239887
4.463000,0.654386
4.464000,-0.592988
4.465000,-1.443238
4.466000,-1.571794
4.467000,-2.312581
4.468000,-2.842078
4.469000,-2.955360
4.470000,-2.278215
4.471000,-1.707987
4.472000,-1.394871
4.473000,-1.472513
4.474000,-0.632445
4.475000,-0.337149
4.476000,-0.902285
4.477000,-1.057571
4.478000,-1.473786
4.479000,-1.888729
4.480000,-1.993101
4.481000,-1.677439
4.482000,-1.384688
4.483000,-1.291771
4.484000,-1.220493
4.485000,-1.195036
4.486000,-1.758900
4.487000,-1.839088
4.488000,-2.348220
4.489000,-2.674065
4.490000,-2.523871
4.491000,-2.373677
4.492000,-3.328299
4.493000,-3.419943
4.494000,-2.952815
4.495000,-2.176388
4.496000,-1.720715
4.497000,-2.710977
4.498000,-3.638870
4.499000,-3.585411
4.500000,-2.788619
4.501000,-1.789448
4.502000,-1.379597
4.503000,-0.664266
4.504000,0.014152
4.505000,0.367999
4.506000,0.869494
4.507000,1.318803
4.508000,1.331531
4.509000,0.877131
4.510000,0.063793
4.511000,-0.203502
4.512000,-0.424974
4.513000,-0.282417
4.514000,-0.893376
4.515000,-1.244677
4.516000,-1.593432
4.517000,-1.831451
4.518000,-2.115292
4.519000,-2.364767
4.520000,-2.423317
4.521000,-2.640971
4.522000,-2.794984
4.523000,-2.367313
4.524000,-2.159841
4.525000,-2.324037
4.526000,-2.181480
4.527000,-1.718169
4.528000,-1.389779
4.529000,-2.630789
4.530000,-2.563329
4.531000,-2.712250
4.532000,-2.119111
4.533000,-1.622707
4.534000,-1.220493
4.535000,-0.958290
4.536000,-0.913741
4.537000,-1.161943
4.538000,-1.570521
4.539000,-2.675338
4.540000,-3.393214
4.541000,-4.991888
4.542000,-4.988070
4.543000,-3.950713
4.544000,-2.643517
4.545000,-1.240858
4.546000,-0.320602
4.547000,0.325996
4.548000,0.669660
4.549000,1.092239
4.550000,0.947137
4.551000,1.494453
4.552000,1.875030
4.553000,0.860584
4.554000,-0.298964
4.555000,-0.987565
4.556000,-1.112302
4.557000,-1.280316
4.558000,-1.738535
4.559000,-2.119111
4.560000,-2.458956
4.561000,-2.556964
4.562000,-2.499687
4.563000,-2.293489
4.564000,-2.017284
4.565000,-2.093654
4.566000,-2.035104
4.567000,-1.840361
4.568000,-1.616343
4.569000,-1.662165
4.570000,-1.982918
4.571000,-1.812359
4.572000,-1.794539
4.573000,-1.226857
4.574000,-0.860282
4.575000,-0.715179
4.576000,-0.831007
4.577000,-1.496697
4.578000,-2.167478
4.579000,-3.068642
4.580000,-5.833229
4.581000,-6.960956
4.582000,-6.552378
4.583000,-4.979160
4.584000,-2.792438
4.585000,-0.944289
4.586000,0.331087
4.587000,1.190247
4.588000,1.675195
4.589000,2.029042
4.590000,2.445257
4.591000,2.964572
4.592000,2.233968
4.593000,1.239887
4.594000,-0.038034
4.595000,-0.979928
4.596000,-1.361777
4.597000,-1.576885
4.598000,-2.311308
4.599000,-2.308763
4.600000,-2.087290
4.601000,-2.191662
4.602000,-2.106383
4.603000,-1.878546
4.604000,-2.125475
4.605000,-3.026639
4.606000,-3.884526
4.607000,-4.884970
4.608000,-5.613029
4.609000,-4.962613
4.610000,-4.286740
4.611000,-3.156467
4.612000,-2.051651
4.613000,-1.286680
4.614000,-0.922651
4.615000,-0.193319
4.616000,0.488918
4.617000,0.873312
4.618000,1.019688
4.619000,1.232250
4.620000,1.075692
4.621000,1.076965
4.622000,0.095613
4.623000,-0.606989
4.624000,-0.950653
4.625000,-1.041024
4.626000,-0.935379
4.627000,-0.916287
4.628000,-0.832280
4.629000,-1.178490
4.630000,-2.125475
4.631000,-2.783528
4.632000,-3.484857
4.633000,-3.923984
4.634000,-3.730514
4.635000,-2.915902
4.636000,-2.550600
4.637000,-2.107655
4.638000,-3.341028
4.639000,-3.888345
4.640000,-3.542135
4.641000,-3.724149
4.642000,-2.344402
4.643000,-1.170853
4.644000,-0.898467
4.645000,-0.363878
4.646000,0.472371
4.647000,0.508010
4.648000,-0.218776
4.649000,-1.850544
4.650000,-1.979100
4.651000,-2.262941
4.652000,-1.911640
4.653000,-1.318501
4.654000,-0.628627
4.655000,-0.181864
4.656000,0.356543
4.657000,0.514374
4.658000,0.576743
4.659000,0.043427
4.660000,-0.841190
4.661000,-0.954471
4.662000,-1.481423
4.663000,-2.128021
4.664000,-2.381314
4.665000,-2.703340
4.666000,-2.632061
4.667000,-2.350766
4.668000,-2.147113
4.669000,-1.676166
4.670000,-1.387234
4.671000,-1.387234
4.672000,-1.035933
4.673000,-0.603170
4.674000,-1.291771
4.675000,-1.868363
4.676000,-2.060561
4.677000,-2.089836
4.678000,-1.819996
4.679000,-1.224311
4.680000,-0.996475
4.681000,-0.827188
4.682000,-1.219220
4.683000,-2.195481
4.684000,-2.722432
4.685000,-2.924812
4.686000,-2.486959
4.687000,-1.791994
4.688000,-0.917559
4.689000,-0.708815
4.690000,-0.786458
4.691000,-0.888284
4.692000,-1.258678
4.693000,-1.561611
4.694000,-1.705441
4.695000,-1.760173
4.696000,-2.576057
4.697000,-3.113191
4.698000,-2.714795
4.699000,-1.904003
4.700000,-1.511971
4.701000,-1.681257
4.702000,-3.669418
4.703000,-4.053812
4.704000,-3.557409
4.705000,-2.679156
4.706000,-1.721988
4.707000,-0.904831
4.708000,-0.111858
4.709000,0.241989
4.710000,0.439277
4.711000,0.752394
4.712000,0.958592
4.713000,0.799488
4.714000,0.940772
4.715000,0.473644
4.716000,-0.305328
4.717000,-0.809369
4.718000,-1.326138
4.719000,-1.781811
4.720000,-1.471240
4.721000,-1.408872
4.722000,-1.509425
4.723000,-1.993101
4.724000,-3.142466
4.725000,-3.719058
4.726000,-4.836603
4.727000,-4.948612
4.728000,-3.940531
4.729000,-2.849715
4.730000,-1.657074
4.731000,-1.144123
4.732000,-0.752091
4.733000,-0.408427
4.734000,0.053610
4.735000,0.669660
4.736000,0.774032
4.737000,0.574197
4.738000,0.522011
4.739000,0.230533
4.740000,-0.045671
4.741000,-0.338422
4.742000,-0.734272
4.743000,-1.041024
4.744000,-1.557793
4.745000,-2.175115
4.746000,-2.523871
4.747000,-2.745343
4.748000,-3.097917
4.749000,-4.162003
4.750000,-5.536659
4.751000,-6.759849
4.752000,-6.650386
4.753000,-5.991060
4.754000,-5.656305
4.755000,-4.641860
4.756000,-3.629960
4.757000,-2.247667
4.758000,-1.178490
4.759000,0.929317
4.760000,2.081228
4.761000,2.256879
4.762000,1.586097
4.763000,0.598381
4.764000,-1.308318
4.765000,-3.538316
4.766000,-3.963442
4.767000,-3.268476
4.768000,-1.700350
4.769000,-0.277326
4.770000,1.048963
4.771000,1.840663
4.772000,2.484715
4.773000,2.499989
4.774000,2.664184
4.775000,2.786376
4.776000,1.992130
4.777000,0.679842
4.778000,-0.311692
4.779000,-0.962108
4.780000,-1.228130
4.781000,-1.509425
4.782000,-1.793266
4.783000,-1.980372
4.784000,-2.348220
4.785000,-2.588785
4.786000,-3.033003
4.787000,-2.952815
4.788000,-2.773345
4.789000,-2.848442
4.790000,-2.782255
4.791000,-2.537872
4.792000,-2.096200
4.793000,-2.764436
4.794000,-4.760233
4.795000,-5.732675
4.796000,-5.448834
4.797000,-4.589674
4.798000,-3.496313
4.799000,-2.352039
4.800000,-1.363050
4.801000,-0.580259
4.802000,0.058701
4.803000,0.751121
4.804000,1.521183
4.805000,1.125333
4.806000,-0.693541
4.807000,-1.551429
4.808000,-1.858181
4.809000,-2.196754
4.810000,-2.464048
4.811000,-2.654972
4.812000,-2.932449
4.813000,-2.590058
4.814000,-2.212027
4.815000,-1.752536
4.816000,-1.887456
4.817000,-0.543347
4.818000,0.140162
4.819000,0.306903
4.820000,-0.067309
4.821000,-0.164044
4.822000,0.230533
4.823000,-0.120768
4.824000,-1.424146
4.825000,-3.036821
4.826000,-3.384304
4.827000,-3.432671
4.828000,-3.199744
4.829000,-2.853534
4.830000,-2.775891
4.831000,-2.135658
4.832000,-1.541246
4.833000,-0.811914
4.834000,0.119797
4.835000,0.557651
4.836000,-0.469523
4.837000,-0.960836
4.838000,-0.282417
4.839000,-0.351150
4.840000,-0.918832
4.841000,-1.042297
4.842000,-1.235767
4.843000,-1.777992
4.844000,-2.677883
4.845000,-3.029184
4.846000,-2.544236
4.847000,-1.910367
4.848000,-1.308318
4.849000,-0.776275
4.850000,-0.643901
4.851000,-0.965927
4.852000,-0.799186
4.853000,-0.935379
4.854000,-1.433056
4.855000,-1.473786
4.856000,-1.648164
4.857000,-1.523426
4.858000,-1.304500
4.859000,-0.747000
4.860000,-0.761001
4.861000,-1.131395
4.862000,-1.319774
4.863000,-1.377051
4.864000,-1.767810
4.865000,-2.181480
4.866000,-2.434773
4.867000,-2.970634
4.868000,-3.035548
4.869000,-3.416125
4.870000,-3.716513
4.871000,-4.097089
4.872000,-4.554035
4.873000,-5.068258
4.874000,-4.727140
4.875000,-4.551489
4.876000,-3.682146
4.877000,-2.248940
4.878000,-0.641355
4.879000,0.370545
4.880000,1.477907
4.881000,1.952672
4.882000,0.407457
4.883000,1.115150
4.884000,1.437176
4.885000,2.503808
4.886000,3.192409
4.887000,2.433802
4.888000,1.523729
4.889000,0.641657
4.890000,-1.224311
4.891000,-2.778437
4.892000,-2.866262
4.893000,-2.688066
4.894000,-3.223927
4.895000,-4.234554
4.896000,-4.559126
4.897000,-4.071632
4.898000,-3.442854
4.899000,-2.381314
4.900000,-1.585795
4.901000,-1.032114
4.902000,-0.708815
4.903000,-0.455522
4.904000,-0.094038
4.905000,0.440550
4.906000,-0.120768
4.907000,-0.274780
4.908000,-0.193319
4.909000,-0.817006
4.910000,-1.501788
4.911000,-2.246394
4.912000,-2.306217
4.913000,-2.068198
4.914000,-1.674893
4.915000,-1.924368
4.916000,-2.030013
4.917000,-1.807268
4.918000,-1.925641
4.919000,-1.961280
4.920000,-2.147113
4.921000,-2.186571
4.922000,-2.525144
4.923000,-2.754253
4.924000,-2.857352
4.925000,-3.133556
4.926000,-3.069915
4.927000,-3.038094
4.928000,-2.797529
4.929000,-2.644790
4.930000,-2.209482
4.931000,-3.001182
4.932000,-3.758516
4.933000,-3.237928
4.934000,-3.232837
4.935000,-2.273123
4.936000,-0.664266
4.937000,0.665841
4.938000,1.433358
4.939000,1.840663
4.940000,2.477078
4.941000,3.210228
4.942000,3.602260
4.943000,2.800377
4.944000,1.770658
4.945000,0.114706
4.946000,-0.890830
4.947000,-1.791994
4.948000,-2.600241
4.949000,-3.118282
4.950000,-3.141193
4.951000,-3.049550
4.952000,-2.840805
4.953000,-2.852261
4.954000,-3.181924
4.955000,-3.329572
4.956000,-4.531124
4.957000,-4.928247
4.958000,-4.139092
4.959000,-3.071188
4.960000,-2.251485
4.961000,-1.798358
4.962000,-1.617616
4.963000,-2.439864
4.964000,-2.441137
4.965000,-2.964270
4.966000,-2.768254
4.967000,-1.948552
4.968000,-1.342685
4.969000,-0.960836
4.970000,-0.688450
4.971000,-0.809369
4.972000,-0.500071
4.973000,-0.505162
4.974000,-0.745727
4.975000,-0.940470
4.976000,-0.654084
4.977000,-0.390608
4.978000,-1.187399
4.979000,-2.550600
4.980000,-2.943905
4.981000,-2.820440
4.982000,-3.394487
4.983000,-3.884526
4.984000,-4.876061
4.985000,-5.513748
4.986000,-4.826420
4.987000,-3.808156
4.988000,-2.591331
4.989000,-0.311692
4.990000,1.883939
4.991000,2.856382
4.992000,3.631535
4.993000,3.454612
4.994000,2.937843
4.995000,2.506353
4.996000,1.813934
4.997000,1.340441
4.998000,0.752394
4.999000,0.058701
5.000000,-0.269689
5.001000,-0.548439
5.002000,-0.430065
5.003000,-0.458068
5.004000,-0.362606
5.005000,-0.878102
5.006000,-1.377051
5.007000,-1.730898
5.008000,-2.201845
5.009000,-2.598968
5.010000,-2.838260
5.011000,-2.993545
5.012000,-3.251930
5.013000,-3.607049
5.014000,-3.472129
5.015000,-3.204835
5.016000,-3.089007
5.017000,-2.710977
5.018000,-2.528962
5.019000,-2.116565
5.020000,-2.054197
5.021000,-2.167478
5.022000,-1.481423
5.023000,-1.214129
5.024000,-1.567976
5.025000,-1.858181
5.026000,-2.495869
5.027000,-2.588785
5.028000,-2.476776
5.029000,-3.418670
5.030000,-3.063551
5.031000,-2.157296
5.032000,-1.794539
5.033000,-3.171741
5.034000,-3.533225
5.035000,-2.696976
5.036000,-1.505607
5.037000,-0.662993
5.038000,0.137617
5.039000,0.976412
5.040000,0.496555
5.041000,-0.002395
5.042000,-0.178045
5.043000,-0.100403
5.044000,-0.170408
5.045000,0.033245
5.046000,-0.497525
5.047000,-0.951926
5.048000,-0.946834
5.049000,-1.139032
5.050000,-1.650709
5.051000,-2.563329
5.052000,-3.430126
5.053000,-5.555752
5.054000,-6.514193
5.055000,-6.141254
5.056000,-5.220998
5.057000,-3.745788
5.058000,-2.642244
5.059000,-1.580704
5.060000,-0.449158
5.061000,0.749848
5.062000,1.704470
5.063000,1.493181
5.064000,0.495282
5.065000,-0.094038
5.066000,-1.049934
5.067000,-1.590886
5.068000,-0.921378
5.069000,-0.720271
5.070000,-0.949380
5.071000,-1.010476
5.072000,-0.897194
5.073000,-1.531063
5.074000,-2.694430
5.075000,-3.572683
5.076000,-3.614686
5.077000,-3.608322
5.078000,-4.294377
5.079000,-3.315571
5.080000,-2.094927
5.081000,-1.127576
5.082000,0.003970
5.083000,0.882222
5.084000,1.831753
5.085000,1.813934
5.086000,0.301812
5.087000,-1.142850
5.088000,-1.315955
5.089000,-1.125031
5.090000,-0.916287
5.091000,-0.302782
5.092000,-0.071127
5.093000,-0.176772
5.094000,-0.741909
5.095000,-0.575168
5.096000,-0.431338
5.097000,-0.880647
5.098000,-1.819996
5.099000,-1.951097
5.100000,-1.167034
5.101000,-0.567531
5.102000,-0.673176
5.103000,-1.131395
5.104000,-1.463603
5.105000,-1.522154
5.106000,-1.629071
5.107000,-1.797085
5.108000,-1.932005
5.109000,-2.289670
5.110000,-2.203118
5.111000,-2.168751
5.112000,-2.229847
5.113000,-2.198026
5.114000,-2.353312
5.115000,-2.803893
5.116000,-3.185742
5.117000,-3.497586
5.118000,-3.243020
5.119000,-2.779710
5.120000,-2.191662
5.121000,-1.573067
5.122000,-1.405053
5.123000,-1.974008
5.124000,-3.446673
5.125000,-4.158185
5.126000,-4.711866
5.127000,-4.305833
5.128000,-3.502677
5.129000,-2.786074
5.130000,-2.004556
5.131000,-1.206492
5.132000,-0.724089
5.133000,0.112160
5.134000,0.357816
5.135000,0.520739
5.136000,0.374363
5.137000,0.150345
5.138000,-1.193763
5.139000,-2.003283
5.140000,-2.343129
5.141000,-3.019002
5.142000,-4.547671
5.143000,-4.335108
5.144000,-2.616787
5.145000,-0.945562
5.146000,0.272537
5.147000,1.433358
5.148000,2.204693
5.149000,2.447803
5.150000,2.273425
5.151000,2.599270
5.152000,1.743928
5.153000,0.182166
5.154000,-2.525144
5.155000,-4.624040
5.156000,-4.346563
5.157000,-3.386850
5.158000,-2.066925
5.159000,-1.382142
5.160000,-0.717725
5.161000,-0.496253
5.162000,-0.931561
5.163000,-1.601069
5.164000,-3.663054
5.165000,-4.424206
5.166000,-3.646507
5.167000,-2.215846
5.168000,-0.682086
5.169000,-0.146224
5.170000,0.789306
5.171000,0.632748
5.172000,0.010334
5.173000,-2.205663
5.174000,-2.549327
5.175000,-2.434773
5.176000,-1.835270
5.177000,-0.940470
5.178000,-0.267143
5.179000,0.262354
5.180000,0.912770
5.181000,1.099876
5.182000,1.290801
5.183000,0.492736
5.184000,-0.674449
5.185000,-1.221766
5.186000,-1.538700
5.187000,-1.626526
5.188000,-1.634163
5.189000,-1.841634
5.190000,-1.795812
5.191000,-1.447057
5.192000,-1.528518
5.193000,-1.962553
5.194000,-2.492050
5.195000,-2.839533
5.196000,-2.928631
5.197000,-3.109373
5.198000,-3.341028
5.199000,-3.398305
5.200000,-3.075006
5.201000,-2.810258
5.202000,-2.695703
5.203000,-2.526416
5.204000,-2.329128
5.205000,-2.646063
5.206000,-3.332118
5.207000,-4.398749
5.208000,-4.229463
5.209000,-3.627414
5.210000,-2.929904
5.211000,-1.929459
5.212000,-1.037205
5.213000,-1.048661
5.214000,-1.209037
5.215000,-1.949824
5.216000,-2.366040
5.217000,-3.281205
5.218000,-4.136546
5.219000,-3.386850
5.220000,-2.565874
5.221000,-1.951097
5.222000,-0.286236
5.223000,1.026052
5.224000,1.713380
5.225000,1.932307
5.226000,1.932307
5.227000,1.298438
5.228000,0.266173
5.229000,-1.253586
5.230000,-2.666428
5.231000,-3.656690
5.232000,-3.255748
5.233000,-3.311753
5.234000,-3.601958
5.235000,-3.773790
5.236000,-3.362666
5.237000,-1.989282
5.238000,-0.913741
5.239000,0.555105
5.240000,2.608180
5.241000,2.935297
5.242000,2.711279
5.243000,2.021405
5.244000,1.488089
5.245000,0.623838
5.246000,-0.678267
5.247000,-1.531063
5.248000,-1.763991
5.249000,-2.280760
5.250000,-3.041913
5.251000,-2.268032
5.252000,-1.986737
5.253000,-2.822986
5.254000,-3.010092
5.255000,-2.312581
5.256000,-1.051207
5.257000,-1.308318
5.258000,-2.299853
5.259000,-2.282033
5.260000,-1.892547
5.261000,-1.132668
5.262000,-1.254859
5.263000,-0.988838
5.264000,-0.547166
5.265000,-0.783912
5.266000,-1.044842
5.267000,-1.542519
5.268000,-3.568864
5.269000,-4.858241
5.270000,-4.780598
5.271000,-4.953703
5.272000,-3.594321
5.273000,-1.781811
5.274000,-0.688450
5.275000,-0.372788
5.276000,-0.396972
5.277000,-1.847998
5.278000,-2.000738
5.279000,-2.209482
5.280000,-2.035104
5.281000,-1.424146
5.282000,-0.458068
5.283000,0.291629
5.284000,0.562742
5.285000,0.541104
5.286000,0.380727
5.287000,0.334905
5.288000,-0.372788
5.289000,-1.237040
5.290000,-1.738535
5.291000,-1.783084
5.292000,-1.741080
5.293000,-1.727079
5.294000,-1.711805
5.295000,-1.594705
5.296000,-1.420327
5.297000,-2.042741
5.298000,-1.797085
5.299000,-1.930732
5.300000,-2.134385
5.301000,-1.873455
5.302000,-1.625253
5.303000,-2.275669
5.304000,-2.901901
5.305000,-3.383031
5.306000,-3.027911
5.307000,-2.474230
5.308000,-2.097473
5.309000,-1.472513
5.310000,-1.394871
5.311000,-1.342685
5.312000,-0.954471
5.313000,-0.393153
5.314000,-0.554803
5.315000,-0.755910
5.316000,-1.738535
5.317000,-1.932005
5.318000,-1.788175
5.319000,-1.553974
5.320000,-1.399962
5.321000,-1.051207
5.322000,-0.794095
5.323000,-0.654084
5.324000,-0.483524
5.325000,-0.627354
5.326000,-0.613353
5.327000,-2.031286
5.328000,-3.024093
5.329000,-3.137375
5.330000,-2.718614
5.331000,-2.290943
5.332000,-2.240030
5.333000,-3.492494
5.334000,-3.526861
5.335000,-2.917175
5.336000,-3.268476
5.337000,-1.881092
5.338000,-0.814460
5.339000,-0.522982
5.340000,-2.031286
5.341000,-1.830178
5.342000,-0.618444
5.343000,-0.323148
5.344000,0.011607
5.345000,0.841492
5.346000,1.323894
5.347000,1.000595
5.348000,0.257263
5.349000,-0.604443
5.350000,-0.893376
5.351000,-1.175944
5.352000,-1.365596
5.353000,-1.567976
5.354000,-1.888729
5.355000,-1.943460
5.356000,-1.876000
5.357000,-1.452148
5.358000,-0.827188
5.359000,-0.785185
5.360000,-1.005385
5.361000,-1.314682
5.362000,-1.286680
5.363000,-2.028740
5.364000,-2.298580
5.365000,-2.330401
5.366000,-2.131839
5.367000,-1.988009
5.368000,-1.808540
5.369000,-2.022376
5.370000,-2.007102
5.371000,-1.748717
5.372000,-1.238313
5.373000,-1.051207
5.374000,-1.399962
5.375000,-2.298580
5.376000,-2.520052
5.377000,-2.525144
5.378000,-2.262941
5.379000,-1.519608
5.380000,-1.667256
5.381000,-1.863272
5.382000,-2.283306
5.383000,-2.714795
5.384000,-2.508597
5.385000,-2.541690
5.386000,-3.506496
5.387000,-4.500576
5.388000,-4.635496
5.389000,-3.679600
5.390000,-2.339310
5.391000,-1.557793
5.392000,-0.165317
5.393000,1.056600
5.394000,1.006960
5.395000,1.699379
5.396000,2.603088
5.397000,2.898385
5.398000,1.570823
5.399000,0.017971
5.400000,-1.174671
5.401000,-2.192935
5.402000,-2.758072
5.403000,-3.008819
5.404000,-2.890446
5.405000,-2.852261
5.406000,-4.077996
5.407000,-7.160790
5.408000,-7.265163
5.409000,-6.647840
5.410000,-4.750050
5.411000,-3.064824
5.412000,-1.483969
5.413000,-0.660448
5.414000,0.560196
5.415000,2.263243
5.416000,2.656547
5.417000,2.505080
5.418000,2.017587
5.419000,2.636182
5.420000,2.902203
5.421000,1.661194
5.422000,0.052337
5.423000,-0.762274
5.424000,-1.220493
5.425000,-1.262496
5.426000,-1.151760
5.427000,-1.262496
5.428000,-1.641800
5.429000,-2.000738
5.430000,-2.326582
5.431000,-2.479322
5.432000,-2.489504
5.433000,-2.138203
5.434000,-1.841634
5.435000,-1.449602
5.436000,-1.146669
5.437000,-1.657074
5.438000,-1.678712
5.439000,-1.658346
5.440000,-1.989282
5.441000,-2.593876
5.442000,-2.947723
5.443000,-2.821713
5.444000,-2.577330
5.445000,-2.299853
5.446000,-1.982918
5.447000,-1.886183
5.448000,-1.663438
5.449000,-1.587068
5.450000,-1.523426
5.451000,-1.654528
5.452000,-1.756354
5.453000,-2.255304
5.454000,-2.578603
5.455000,-2.555692
5.456000,-2.705886
5.457000,-3.263385
5.458000,-3.706330
5.459000,-3.479766
5.460000,-3.129738
5.461000,-2.675338
5.462000,-2.129294
5.463000,-1.655801
5.464000,-1.065208
5.465000,-0.514072
5.466000,-0.175499
5.467000,0.592017
5.468000,0.599654
5.469000,0.154163
5.470000,-0.115676
5.471000,-0.436430
5.472000,-1.522154
5.473000,-3.867979
5.474000,-4.926974
5.475000,-5.843411
5.476000,-6.674569
5.477000,-5.835774
5.478000,-4.014355
5.479000,-1.971463
5.480000,0.084158
5.481000,1.654830
5.482000,2.634909
5.483000,3.169498
5.484000,3.034578
5.485000,2.363796
5.486000,2.218694
5.487000,0.994231
5.488000,0.091795
5.489000,-0.752091
5.490000,-2.630789
5.491000,-3.523042
5.492000,-2.956633
5.493000,-1.430510
5.494000,-0.459341
5.495000,-0.226413
5.496000,-0.119495
5.497000,-0.071127
5.498000,-0.564985
5.499000,-0.918832
5.500000,-0.347332
5.501000,-0.197138
5.502000,-0.757183
5.503000,-1.646891
5.504000,-2.656245
5.505000,-3.417397
5.506000,-3.559954
5.507000,-3.344846
5.508000,-3.153922
5.509000,-2.652427
5.510000,-2.260395
5.511000,-2.527689
5.512000,-2.441137
5.513000,-2.270578
5.514000,-2.130566
5.515000,-1.679985
5.516000,-1.700350
5.517000,-1.707987
5.518000,-1.702895
5.519000,-2.522598
5.520000,-3.087735
5.521000,-3.045731
5.522000,-3.095371
5.523000,-2.950269
5.524000,-2.486959
5.525000,-2.240030
5.526000,-1.961280
5.527000,-1.420327
5.528000,-0.538256
5.529000,-0.335876
5.530000,-0.710088
5.531000,-1.056298
5.532000,-0.943016
5.533000,-0.735545
5.534000,-1.592159
5.535000,-1.564157
5.536000,-1.357959
5.537000,-1.128849
5.538000,-0.496253
5.539000,0.427822
5.540000,0.276355
5.541000,0.096886
5.542000,-0.284963
5.543000,-1.643072
5.544000,-1.836543
5.545000,-2.050378
5.546000,-3.586684
5.547000,-4.150548
5.548000,-3.469584
5.549000,-3.319390
5.550000,-2.611696
5.551000,-1.738535
5.552000,-0.676995
5.553000,0.413821
5.554000,0.389637
5.555000,0.007788
5.556000,-0.480979
5.557000,-0.697360
5.558000,-0.184409
5.559000,-0.538256
5.560000,-1.918004
5.561000,-2.131839
5.562000,-1.957461
5.563000,-1.371960
5.564000,-1.041024
5.565000,-1.692713
5.566000,-2.088563
5.567000,-2.388951
5.568000,-2.632061
5.569000,-2.228574
5.570000,-2.049105
5.571000,-2.178934
5.572000,-2.612969
5.573000,-2.738979
5.574000,-2.774618
5.575000,-2.346947
5.576000,-1.741080
5.577000,-1.601069
5.578000,-1.412690
5.579000,-3.761062
5.580000,-4.485302
5.581000,-3.991444
5.582000,-2.556964
5.583000,-1.359231
5.584000,-0.067309
5.585000,1.073147
5.586000,1.889031
5.587000,2.246696
5.588000,2.305246
5.589000,3.004030
5.590000,2.716370
5.591000,1.906850
5.592000,0.728210
5.593000,-0.379152
5.594000,-1.028296
5.595000,-1.625253
5.596000,-1.971463
5.597000,-2.265486
5.598000,-2.343129
5.599000,-2.299853
5.600000,-2.764436
5.601000,-3.615959
5.602000,-3.850160
5.603000,-3.565046
5.604000,-2.973180
5.605000,-3.019002
5.606000,-2.996091
5.607000,-2.666428
5.608000,-2.444955
5.609000,-2.311308
5.610000,-2.408043
5.611000,-3.701239
5.612000,-5.182813
5.613000,-4.872242
5.614000,-3.873071
5.615000,-2.223483
5.616000,-1.159397
5.617000,-0.058399
5.618000,1.047690
5.619000,1.500818
5.620000,1.463906
5.621000,0.520739
5.622000,-0.165317
5.623000,-0.945562
5.624000,-1.041024
5.625000,-1.382142
5.626000,-1.150487
5.627000,-1.114848
5.628000,-1.879819
5.629000,-2.402952
5.630000,-2.344402
5.631000,-2.677883
5.632000,-2.937541
5.633000,-2.131839
5.634000,-0.652811
5.635000,0.007788
5.636000,-0.277326
5.637000,-0.585351
5.638000,-2.087290
5.639000,-3.691056
5.640000,-3.964714
5.641000,-2.789892
5.642000,-1.770355
5.643000,-1.139032
5.644000,-0.818279
5.645000,-0.665539
5.646000,-0.390608
5.647000,-0.043125
5.648000,0.518193
5.649000,0.453279
5.650000,0.402365
5.651000,0.094340
5.652000,-1.200128
5.653000,-1.569248
5.654000,-2.358403
5.655000,-2.773345
5.656000,-2.957906
5.657000,-2.562056
5.658000,-2.147113
5.659000,-1.513244
5.660000,-1.001566
5.661000,-1.141577
5.662000,-0.964654
5.663000,-0.991384
5.664000,-0.477160
5.665000,-0.193319
5.666000,-0.861555
5.667000,-1.575612
5.668000,-2.296034
5.669000,-2.376223
5.670000,-2.170024
5.671000,-2.357130
5.672000,-2.410589
5.673000,-2.331673
5.674000,-2.054197
5.675000,-1.710532
5.676000,-1.584522
5.677000,-1.621434
5.678000,-1.859454
5.679000,-3.528134
5.680000,-4.332562
5.681000,-4.201461
5.682000,-3.852705
5.683000,-3.468311
5.684000,-3.402124
5.685000,-2.761890
5.686000,-2.648608
5.687000,-3.157740
5.688000,-2.918448
5.689000,-2.154750
5.690000,-0.899740
5.691000,-0.412246
5.692000,0.259808
5.693000,0.679842
5.694000,0.665841
5.695000,0.157982
5.696000,-0.025306
5.697000,1.372262
5.698000,2.615817
5.699000,1.645920
5.700000,0.201258
5.701000,-0.315511
5.702000,-0.114404
5.703000,-0.171681
5.704000,-1.042297
5.705000,-2.112747
5.706000,-2.264214
5.707000,-2.452592
5.708000,-2.226029
5.709000,-1.918004
5.710000,-1.669802
5.711000,-1.618889
5.712000,-1.595978
5.713000,-1.982918
5.714000,-1.686349
5.715000,-1.429237
5.716000,-1.490333
5.717000,-1.228130
5.718000,-1.853089
5.719000,-2.908265
5.720000,-3.394487
5.721000,-3.470856
5.722000,-3.062278
5.723000,-2.777164
5.724000,-2.135658
5.725000,-2.010920
5.726000,-2.019830
5.727000,-2.696976
5.728000,-3.011365
5.729000,-3.444127
5.730000,-3.815793
5.731000,-3.194652
5.732000,-3.141193
5.733000,-1.878546
5.734000,-0.418610
5.735000,-0.273507
5.736000,-0.799186
5.737000,-0.553530
5.738000,-0.963381
5.739000,-0.418610
5.740000,0.576743
5.741000,1.931034
5.742000,2.538174
5.743000,2.018859
5.744000,1.158426
5.745000,1.224613
5.746000,0.781669
5.747000,-0.179318
5.748000,-0.996475
5.749000,-1.587068
5.750000,-2.374950
5.751000,-2.186571
5.752000,-2.451320
5.753000,-3.292660
5.754000,-3.716513
5.755000,-2.712250
5.756000,-1.952370
5.757000,-2.545509
5.758000,-1.996919
5.759000,-1.457239
5.760000,-0.664266
5.761000,-0.424974
5.762000,-0.791549
5.763000,-0.707542
5.764000,-1.006657
5.765000,-1.855635
5.766000,-2.311308
5.767000,-2.419499
5.768000,-3.162831
5.769000,-4.494212
5.770000,-5.010981
5.771000,-4.695319
5.772000,-4.010536
5.773000,-3.680873
5.774000,-2.581148
5.775000,-1.597251
5.776000,-0.878102
5.777000,-0.533165
5.778000,-0.130950
5.779000,0.182166
5.780000,-0.474615
5.781000,-0.903558
5.782000,-1.455966
5.783000,-2.355857
5.784000,-2.534053
5.785000,-4.030902
5.786000,-6.311813
5.787000,-5.022436
5.788000,-3.977443
5.789000,-2.301126
5.790000,-0.296418
5.791000,1.354442
5.792000,1.843209
5.793000,1.564459
5.794000,1.297165
5.795000,1.435903
5.796000,1.859756
5.797000,1.383717
5.798000,0.516920
5.799000,-0.054581
5.800000,-1.284134
5.801000,-2.082199
5.802000,-2.512415
5.803000,-2.904447
5.804000,-2.821713
5.805000,-2.700794
5.806000,-2.092381
5.807000,-1.200128
5.808000,-0.959563
5.809000,-0.202229
5.810000,-0.675722
5.811000,-0.752091
5.812000,-0.535710
5.813000,-0.318056
5.814000,-0.432611
5.815000,-1.654528
5.816000,-2.483140
5.817000,-2.452592
5.818000,-2.791165
5.819000,-3.339755
5.820000,-3.444127
5.821000,-3.529407
5.822000,-2.950269
5.823000,-2.157296
5.824000,-1.725806
5.825000,-1.564157
5.826000,-1.793266
5.827000,-2.030013
5.828000,-1.443238
5.829000,-0.036761
5.830000,-0.050762
5.831000,-0.506435
5.832000,-0.650265
5.833000,-0.704997
5.834000,-1.328683
5.835000,-1.839088
5.836000,-2.226029
5.837000,-2.163660
5.838000,-1.869636
5.839000,-1.989282
5.840000,-2.182752
5.841000,-2.008375
5.842000,-2.282033
5.843000,-2.570966
5.844000,-2.336765
5.845000,-1.772901
5.846000,-1.403780
5.847000,-0.813187
5.848000,-1.088119
5.849000,-1.378324
5.850000,-2.069471
5.851000,-2.736433
5.852000,-1.075390
5.853000,0.364180
5.854000,0.709117
5.855000,0.564015
5.856000,0.247080
5.857000,-0.473342
5.858000,-1.002839
5.859000,-1.419054
5.860000,-1.263769
5.861000,-1.495424
5.862000,-1.560339
5.863000,-1.601069
5.864000,-1.832724
5.865000,-2.133112
5.866000,-2.014739
5.867000,-2.208209
5.868000,-2.360949
5.869000,-2.453865
5.870000,-1.981645
5.871000,-1.855635
5.872000,-1.832724
5.873000,-1.534882
5.874000,-1.505607
5.875000,-1.841634
5.876000,-4.137819
5.877000,-4.407659
5.878000,-2.815349
5.879000,-1.776720
5.880000,-1.337593
5.881000,-0.875556
5.882000,-0.604443
5.883000,-1.974008
5.884000,-3.787791
5.885000,-5.308823
5.886000,-4.863332
5.887000,-4.049994
5.888000,-3.223927
5.889000,-1.926914
5.890000,-0.755910
5.891000,-0.141133
5.892000,-1.214129
5.893000,-2.582421
5.894000,-2.537872
5.895000,-1.532336
5.896000,-0.512799
5.897000,0.086703
5.898000,1.190247
5.899000,1.838118
5.900000,1.999767
5.901000,1.894122
5.902000,2.357432
5.903000,2.464350
5.904000,2.303973
5.905000,1.075692
5.906000,-0.349877
5.907000,-1.374505
5.908000,-1.910367
5.909000,-2.041468
5.910000,-2.098746
5.911000,-2.609150
5.912000,-3.842523
5.913000,-4.394931
5.914000,-5.273184
5.915000,-4.580764
5.916000,-2.903174
5.917000,-1.276497
5.918000,-0.139860
5.919000,0.534740
5.920000,0.603472
5.921000,0.415094
5.922000,0.073975
5.923000,-0.128405
5.924000,-0.227686
5.925000,-0.419883
5.926000,-1.169580
5.927000,-1.631617
5.928000,-1.515789
5.929000,-1.718169
5.930000,-2.506051
5.931000,-2.931176
5.932000,-3.131011
5.933000,-2.942632
5.934000,-2.525144
5.935000,-2.579875
5.936000,-3.419943
5.937000,-3.568864
5.938000,-3.586684
5.939000,-4.290559
5.940000,-4.541306
5.941000,-4.477665
5.942000,-3.492494
5.943000,-2.777164
5.944000,-2.133112
5.945000,-1.007930
5.946000,-0.013850
5.947000,0.384546
5.948000,0.670932
5.949000,0.272537
5.950000,-0.338422
5.951000,-0.957017
5.952000,-1.478877
5.953000,-1.681257
5.954000,-1.534882
5.955000,-1.076663
5.956000,-0.782639
5.957000,-1.018113
5.958000,-1.114848
5.959000,-0.817006
5.960000,-0.943016
5.961000,-1.219220
5.962000,-2.290943
5.963000,-2.374950
5.964000,-2.266759
5.965000,-1.928186
5.966000,-1.077936
5.967000,0.369272
5.968000,0.663295
5.969000,-0.066036
5.970000,-0.617172
5.971000,-1.328683
5.972000,-2.722432
5.973000,-3.823430
5.974000,-4.444571
5.975000,-4.191278
5.976000,-3.005001
5.977000,-1.575612
5.978000,0.364180
5.979000,1.737564
5.980000,2.438893
5.981000,2.344704
5.982000,1.750292
5.983000,0.981503
5.984000,0.115979
5.985000,-1.032114
5.986000,-1.779265
5.987000,-2.565874
5.988000,-2.542963
5.989000,-2.872626
5.990000,-3.347392
5.991000,-3.775063
5.992000,-3.977443
5.993000,-3.730514
5.994000,-3.619777
5.995000,-4.458572
5.996000,-4.741141
5.997000,-4.267648
5.998000,-2.810258
5.999000,-1.113575
6.000000,-0.575168
6.001000,0.221623
6.002000,0.398547
6.003000,0.450733
6.004000,1.029871
6.005000,1.167336
6.006000,-0.096584
6.007000,-2.180207
6.008000,-4.767870
6.009000,-5.111534
6.010000,-4.158185
6.011000,-2.676610
6.012000,-1.994374
6.013000,-1.375778
6.014000,-0.600625
6.015000,-0.521709
6.016000,-0.725362
6.017000,0.272537
6.018000,1.936125
6.019000,1.216977
6.020000,0.598381
6.021000,0.107069
6.022000,-0.186955
6.023000,-0.371515
6.024000,-0.806823
6.025000,-0.944289
6.026000,-0.688450
6.027000,-1.184854
6.028000,-1.967644
6.029000,-3.099190
6.030000,-3.437763
6.031000,-3.189561
6.032000,-2.848442
6.033000,-2.321491
6.034000,-1.939642
6.035000,-1.753809
6.036000,-1.939642
6.037000,-2.116565
6.038000,-2.324037
6.039000,-2.756799
6.040000,-2.812803
6.041000,-3.180651
6.042000,-4.342745
6.043000,-4.823875
6.044000,-5.731402
6.045000,-4.967704
6.046000,-4.214189
6.047000,-3.305388
6.048000,-2.162387
6.049000,-0.566258
6.050000,-0.122041
6.051000,-0.123313
6.052000,0.454551
6.053000,0.902588
6.054000,1.334077
6.055000,-0.604443
6.056000,-2.993545
6.057000,-3.222654
6.058000,-2.764436
6.059000,-1.452148
6.060000,-0.190773
6.061000,1.228432
6.062000,2.752009
6.063000,2.908568
6.064000,2.259424
6.065000,2.399436
6.066000,2.334521
6.067000,0.184711
6.068000,-2.565874
6.069000,-4.538761
6.070000,-5.210815
6.071000,-4.730958
6.072000,-3.749606
6.073000,-2.871353
6.074000,-2.298580
6.075000,-1.427964
6.076000,-0.766093
6.077000,0.048519
6.078000,1.087148
6.079000,1.228432
6.080000,0.471098
6.081000,-0.073673
6.082000,0.197440
6.083000,-0.027851
6.084000,-1.155579
6.085000,-2.542963
6.086000,-4.770416
6.087000,-6.019062
6.088000,-5.348281
6.089000,-3.976170
6.090000,-2.381314
6.091000,-0.867919
6.092000,0.476189
6.093000,1.587370
6.094000,0.973866
6.095000,0.762576
6.096000,1.208067
6.097000,-0.147497
6.098000,-0.550984
6.099000,-0.718998
6.100000,-0.880647
6.101000,-1.029568
6.102000,-1.230676
6.103000,-1.426691
6.104000,-1.833997
6.105000,-2.252758
6.106000,-2.368586
6.107000,-2.378768
6.108000,-2.597695
6.109000,-2.842078
6.110000,-3.422489
6.111000,-4.794600
6.112000,-6.122161
6.113000,-6.030517
6.114000,-5.240090
6.115000,-4.190005
6.116000,-3.371576
6.117000,-2.737706
6.118000,-2.266759
6.119000,-1.627799
6.120000,0.082885
6.121000,1.764293
6.122000,1.723563
6.123000,1.294619
6.124000,-0.431338
6.125000,-3.148830
6.126000,-4.352928
6.127000,-5.075895
6.128000,-4.450935
6.129000,-2.976998
6.130000,-1.612525
6.131000,0.009061
6.132000,1.316257
6.133000,1.854664
6.134000,1.741382
6.135000,1.834299
6.136000,1.388809
6.137000,1.978129
6.138000,2.081228
6.139000,0.768940
6.140000,0.262354
6.141000,-0.027851
6.142000,-0.400790
6.143000,-1.081754
6.144000,-2.679156
6.145000,-3.907437
6.146000,-4.137819
6.147000,-4.439480
6.148000,-4.402568
6.149000,-3.810702
6.150000,-3.033003
6.151000,-2.466593
6.152000,-1.920549
6.153000,-0.810642
6.154000,0.322177
6.155000,0.051064
6.156000,-0.119495
6.157000,-0.450431
6.158000,-1.461058
6.159000,-1.976554
6.160000,-2.490777
6.161000,-5.177721
6.162000,-7.449723
6.163000,-7.593553
6.164000,-6.674569
6.165000,-4.724594
6.166000,-2.428409
6.167000,-1.324865
6.168000,-0.645174
6.169000,-0.123313
6.170000,-0.137315
6.171000,-0.114404
6.172000,-0.225140
6.173000,-0.697360
6.174000,-1.135213
6.175000,-0.778821
6.176000,-0.567531
6.177000,0.485099
6.178000,1.572096
6.179000,1.614099
6.180000,1.640829
6.181000,1.261526
6.182000,0.355271
6.183000,-0.124586
6.184000,-0.671903
6.185000,-1.350322
6.186000,-1.257405
6.187000,-1.635435
6.188000,-2.402952
6.189000,-2.969361
6.190000,-4.421660
6.191000,-4.424206
6.192000,-2.927358
6.193000,-2.283306
6.194000,-1.775447
6.195000,-0.948107
6.196000,-0.276053
6.197000,0.061247
6.198000,0.730755
6.199000,0.874585
6.200000,0.030699
6.201000,-0.552257
6.202000,-0.851372
6.203000,-1.599796
6.204000,-2.439864
6.205000,-2.376223
6.206000,-2.358403
6.207000,-1.621434
6.208000,-1.309591
6.209000,-2.024921
6.210000,-3.080098
6.211000,-3.296479
6.212000,-3.061005
6.213000,-2.534053
6.214000,-1.705441
6.215000,-1.041024
6.216000,-1.345230
6.217000,-2.335492
6.218000,-3.609595
6.219000,-3.362666
6.220000,-2.646063
6.221000,-2.260395
6.222000,-3.039367
6.223000,-4.771689
6.224000,-4.939702
6.225000,-3.800519
6.226000,-1.809813
6.227000,-0.310419
6.228000,0.283992
6.229000,0.432913
6.230000,0.306903
6.231000,-0.957017
6.232000,-0.791549
6.233000,-0.913741
6.234000,-0.992656
6.235000,-1.024477
6.236000,-0.561167
6.237000,0.012879
6.238000,0.715481
6.239000,1.875030
6.240000,1.620464
6.241000,0.796943
6.242000,-0.431338
6.243000,-2.602786
6.244000,-3.664326
6.245000,-3.150103
6.246000,-2.215846
6.247000,-2.044014
6.248000,-1.487787
6.249000,-1.172125
6.250000,-0.764820
6.251000,-0.690996
6.252000,-1.398689
6.253000,-1.715624
6.254000,-1.762718
6.255000,-1.692713
6.256000,-1.422873
6.257000,-1.084300
6.258000,-0.944289
6.259000,-0.963381
6.260000,-1.189945
6.261000,-1.266315
6.262000,-0.771184
6.263000,-0.254415
6.264000,-0.715179
6.265000,-1.704168
6.266000,-2.355857
6.267000,-2.114020
6.268000,-2.007102
6.269000,-1.929459
6.270000,-1.785629
6.271000,-1.914185
6.272000,-2.157296
6.273000,-2.422044
6.274000,-2.688066
6.275000,-2.932449
6.276000,-2.990999
6.277000,-2.702067
6.278000,-2.066925
6.279000,-1.331229
6.280000,-1.952370
6.281000,-2.567147
6.282000,-2.486959
6.283000,-2.086017
6.284000,-2.059288
6.285000,-2.415680
6.286000,-3.226473
6.287000,-4.053812
6.288000,-3.733059
6.289000,-3.260839
6.290000,-2.527689
6.291000,-1.145396
6.292000,-0.194592
6.293000,0.282719
6.294000,0.914043
6.295000,0.882222
6.296000,0.660750
6.297000,1.052781
6.298000,0.944591
6.299000,0.234352
6.300000,-0.632445
6.301000,-1.553974
6.302000,-1.980372
6.303000,-2.290943
6.304000,-2.584967
6.305000,-2.246394
6.306000,-2.674065
6.307000,-3.418670
6.308000,-3.360120
6.309000,-3.301570
6.310000,-3.290114
6.311000,-3.654144
6.312000,-4.276558
6.313000,-4.666044
6.314000,-4.034720
6.315000,-3.263385
6.316000,-2.934995
6.317000,-1.202673
6.318000,0.063793
6.319000,0.975139
6.320000,1.500818
6.321000,1.285709
6.322000,1.707016
6.323000,1.835572
6.324000,1.008232
6.325000,0.852947
6.326000,0.494009
6.327000,0.311994
6.328000,0.292902
6.329000,-0.050762
6.330000,-0.223867
6.331000,0.245807
6.332000,-0.333330
6.333000,-0.752091
6.334000,-1.322319
6.335000,-2.495869
6.336000,-3.632506
6.337000,-5.140809
6.338000,-6.771304
6.339000,-6.692389
6.340000,-5.938874
6.341000,-4.804782
6.342000,-2.807712
6.343000,-1.203946
6.344000,0.137617
6.345000,0.883495
6.346000,1.186429
6.347000,2.185600
6.348000,3.234412
6.349000,3.473704
6.350000,1.787204
6.351000,0.135071
6.352000,-0.301510
6.353000,-0.528073
