LabVIEW Measurement,
Writer_Version,2
Reader_Version,2
Separator,Comma
Decimal_Separator,.
Multi_Headings,No
X_Columns,Multi
Time_Pref,Absolute
Operator,Dymnz
Date,2017/09/12
Time,15:30:03.2878013833532219033
***End_of_Header***,
,
Channels,1,
Samples,1000,
Date,2017/09/12,
Time,15:30:03.2878013833532219033,
Y_Unit_Label,Volts,
X_Dimension,Time,
X0,0.0000000000000000E+0,
Delta_X,0.001000,
***End_of_Header***,,
X_Value,Voltage,Comment
0.000000,-3.627414
0.001000,-4.111090
0.002000,-3.937985
0.003000,-3.839977
0.004000,-3.409760
0.005000,-2.906993
0.006000,-2.434773
0.007000,-2.138203
0.008000,-2.373677
0.009000,-2.405498
0.010000,-2.690612
0.011000,-2.758072
0.012000,-2.462775
0.013000,-2.167478
0.014000,-1.732171
0.015000,-1.408872
0.016000,-1.314682
0.017000,-1.235767
0.018000,-1.116121
0.019000,-1.693986
0.020000,-3.231564
0.021000,-4.528578
0.022000,-4.505667
0.023000,-3.530679
0.024000,-2.620606
0.025000,-2.125475
0.026000,-1.276497
0.027000,-0.488616
0.028000,-0.050762
0.029000,-0.035488
0.030000,-0.666812
0.031000,-0.860282
0.032000,-0.626081
0.033000,-0.141133
0.034000,0.269991
0.035000,1.244979
0.036000,1.237342
0.037000,0.192348
0.038000,-0.087674
0.039000,0.178347
0.040000,0.272537
0.041000,-0.130950
0.042000,-1.000293
0.043000,-1.378324
0.044000,-2.391497
0.045000,-4.426752
0.046000,-5.882869
0.047000,-6.083976
0.048000,-5.438651
0.049000,-3.880708
0.050000,-2.363494
0.051000,-1.696531
0.052000,-4.069086
0.053000,-5.324097
0.054000,-4.318561
0.055000,-2.452592
0.056000,-0.276053
0.057000,1.160972
0.058000,2.479624
0.059000,3.469886
0.060000,3.534800
0.061000,3.422791
0.062000,2.735463
0.063000,1.970492
0.064000,1.289528
0.065000,1.214431
0.066000,1.560641
0.067000,0.956046
0.068000,0.373090
0.069000,-0.515345
0.070000,-1.383415
0.071000,-2.534053
0.072000,-3.422489
0.073000,-3.726695
0.074000,-3.917620
0.075000,-4.114908
0.076000,-4.392385
0.077000,-4.305833
0.078000,-4.025810
0.079000,-3.749606
0.080000,-3.542135
0.081000,-3.477220
0.082000,-3.525588
0.083000,-2.660064
0.084000,-1.842907
0.085000,-1.318501
0.086000,-0.870465
0.087000,-0.675722
0.088000,-0.450431
0.089000,-0.305328
0.090000,-0.820824
0.091000,-1.192491
0.092000,-1.284134
0.093000,-1.590886
0.094000,-1.813632
0.095000,-1.738535
0.096000,-1.625253
0.097000,-1.612525
0.098000,-1.707987
0.099000,-1.743626
0.100000,-2.069471
0.101000,-2.531508
0.102000,-3.344846
0.103000,-3.495040
0.104000,-3.510314
0.105000,-4.126364
0.106000,-5.214633
0.107000,-5.098806
0.108000,-5.256637
0.109000,-5.377556
0.110000,-4.747505
0.111000,-4.489120
0.112000,-4.148002
0.113000,-3.669418
0.114000,-2.182752
0.115000,-0.496253
0.116000,0.590744
0.117000,1.297165
0.118000,2.305246
0.119000,3.374423
0.120000,3.158042
0.121000,1.858483
0.122000,1.665013
0.123000,1.785932
0.124000,2.029042
0.125000,2.160144
0.126000,1.278072
0.127000,-0.073673
0.128000,-1.705441
0.129000,-2.111474
0.130000,-1.929459
0.131000,-1.895093
0.132000,-3.454310
0.133000,-5.008435
0.134000,-6.011425
0.135000,-5.283366
0.136000,-3.951986
0.137000,-2.611696
0.138000,-1.307045
0.139000,0.058701
0.140000,-0.015123
0.141000,0.310722
0.142000,0.650567
0.143000,0.654386
0.144000,0.614928
0.145000,0.417639
0.146000,0.739665
0.147000,1.530093
0.148000,1.514819
0.149000,0.935681
0.150000,-0.018941
0.151000,-0.958290
0.152000,-1.833997
0.153000,-3.221382
0.154000,-4.001626
0.155000,-3.832340
0.156000,-3.156467
0.157000,-2.677883
0.158000,-2.245121
0.159000,-1.980372
0.160000,-2.443683
0.161000,-2.444955
0.162000,-2.504778
0.163000,-2.923539
0.164000,-4.109817
0.165000,-3.899800
0.166000,-3.363939
0.167000,-3.141193
0.168000,-2.696976
0.169000,-1.982918
0.170000,-1.496697
0.171000,-1.182308
0.172000,-1.510698
0.173000,-1.772901
0.174000,-1.419054
0.175000,-1.053752
0.176000,-1.123758
0.177000,-1.195036
0.178000,-1.141577
0.179000,-1.104665
0.180000,-1.074117
0.181000,-0.817006
0.182000,-0.629900
0.183000,-0.734272
0.184000,-0.969745
0.185000,-3.006273
0.186000,-5.498475
0.187000,-6.512920
0.188000,-5.630849
0.189000,-4.254920
0.190000,-3.654144
0.191000,-3.475948
0.192000,-2.539145
0.193000,-2.812803
0.194000,-3.565046
0.195000,-4.247283
0.196000,-4.103453
0.197000,-2.752980
0.198000,-0.717725
0.199000,1.801205
0.200000,3.641718
0.201000,4.662527
0.202000,4.345593
0.203000,3.462249
0.204000,2.898385
0.205000,1.895395
0.206000,0.832582
0.207000,0.471098
0.208000,0.370545
0.209000,-2.223483
0.210000,-4.724594
0.211000,-5.254091
0.212000,-4.277831
0.213000,-3.673236
0.214000,-3.062278
0.215000,-2.103837
0.216000,-0.744455
0.217000,-0.113131
0.218000,0.444369
0.219000,0.553832
0.220000,0.411275
0.221000,0.282719
0.222000,0.177074
0.223000,-0.782639
0.224000,-0.880647
0.225000,-0.892103
0.226000,-0.923924
0.227000,-1.332502
0.228000,-1.933278
0.229000,-1.760173
0.230000,-1.760173
0.231000,-1.906548
0.232000,-2.214573
0.233000,-2.481867
0.234000,-2.864989
0.235000,-3.296479
0.236000,-3.029184
0.237000,-2.849715
0.238000,-2.597695
0.239000,-3.035548
0.240000,-3.052095
0.241000,-2.508597
0.242000,-2.161114
0.243000,-1.812359
0.244000,-2.180207
0.245000,-2.432227
0.246000,-3.045731
0.247000,-4.419115
0.248000,-3.596867
0.249000,-2.320218
0.250000,-1.086846
0.251000,-0.408427
0.252000,0.240716
0.253000,0.634020
0.254000,0.426549
0.255000,0.058701
0.256000,-0.699905
0.257000,-1.027023
0.258000,-1.360504
0.259000,-1.660892
0.260000,-1.429237
0.261000,-1.570521
0.262000,-2.294761
0.263000,-3.110645
0.264000,-3.931621
0.265000,-3.903619
0.266000,-3.421216
0.267000,-3.034276
0.268000,-2.364767
0.269000,-2.177661
0.270000,-1.799631
0.271000,-1.710532
0.272000,-1.569248
0.273000,-1.347776
0.274000,-0.962108
0.275000,-0.837371
0.276000,-1.169580
0.277000,-1.191218
0.278000,-2.364767
0.279000,-3.362666
0.280000,-2.738979
0.281000,-2.302398
0.282000,-3.044458
0.283000,-3.161559
0.284000,-2.615515
0.285000,-1.752536
0.286000,-1.100847
0.287000,-0.740636
0.288000,-0.501344
0.289000,-0.584078
0.290000,-0.405882
0.291000,-0.195865
0.292000,-0.403336
0.293000,-0.697360
0.294000,-0.679540
0.295000,-0.572622
0.296000,-1.270133
0.297000,-1.397416
0.298000,-1.085573
0.299000,-0.636264
0.300000,-0.664266
0.301000,-1.688894
0.302000,-3.414852
0.303000,-4.767870
0.304000,-3.554863
0.305000,-2.038923
0.306000,-0.710088
0.307000,0.562742
0.308000,1.981947
0.309000,2.376525
0.310000,2.165235
0.311000,1.377353
0.312000,0.655658
0.313000,-0.002395
0.314000,-0.707542
0.315000,-0.661721
0.316000,-0.310419
0.317000,-0.184409
0.318000,-0.339695
0.319000,-0.585351
0.320000,-0.825916
0.321000,-1.575612
0.322000,-2.176388
0.323000,-3.496313
0.324000,-3.898527
0.325000,-3.573956
0.326000,-2.835714
0.327000,-2.565874
0.328000,-2.287124
0.329000,-1.882365
0.330000,-1.786902
0.331000,-1.960007
0.332000,-2.429681
0.333000,-2.872626
0.334000,-2.904447
0.335000,-3.083916
0.336000,-2.815349
0.337000,-2.699521
0.338000,-2.780982
0.339000,-2.536599
0.340000,-2.297307
0.341000,-2.110201
0.342000,-2.371131
0.343000,-2.553146
0.344000,-2.620606
0.345000,-2.558237
0.346000,-2.591331
0.347000,-2.816622
0.348000,-2.886627
0.349000,-3.845068
0.350000,-4.627859
0.351000,-5.215906
0.352000,-5.162447
0.353000,-5.227362
0.354000,-4.020719
0.355000,-2.593876
0.356000,-1.347776
0.357000,-0.071127
0.358000,0.478735
0.359000,0.532194
0.360000,0.836400
0.361000,0.798215
0.362000,0.514374
0.363000,-0.319329
0.364000,-0.024033
0.365000,-0.251869
0.366000,-3.167923
0.367000,-4.309651
0.368000,-5.386465
0.369000,-4.528578
0.370000,-2.212027
0.371000,-0.220049
0.372000,1.438449
0.373000,2.421074
0.374000,2.485988
0.375000,2.456713
0.376000,2.836016
0.377000,3.056216
0.378000,2.767283
0.379000,2.144870
0.380000,1.709562
0.381000,1.279345
0.382000,0.449460
0.383000,-0.024033
0.384000,-0.423701
0.385000,-1.295590
0.386000,-1.805995
0.387000,-2.154750
0.388000,-3.137375
0.389000,-6.285083
0.390000,-8.282154
0.391000,-7.599917
0.392000,-6.334724
0.393000,-4.537488
0.394000,-2.810258
0.395000,-1.354140
0.396000,-0.421156
0.397000,0.219078
0.398000,0.551286
0.399000,0.530921
0.400000,0.146526
0.401000,-0.302782
0.402000,-0.712634
0.403000,-0.368970
0.404000,0.887314
0.405000,0.598381
0.406000,-0.484797
0.407000,-0.866646
0.408000,-1.200128
0.409000,-1.425419
0.410000,-1.882365
0.411000,-2.313854
0.412000,-2.348220
0.413000,-2.331673
0.414000,-2.747889
0.415000,-3.170468
0.416000,-3.143739
0.417000,-2.696976
0.418000,-2.119111
0.419000,-1.693986
0.420000,-1.771628
0.421000,-1.904003
0.422000,-2.008375
0.423000,-2.288397
0.424000,-2.467866
0.425000,-2.873899
0.426000,-3.845068
0.427000,-4.218008
0.428000,-4.025810
0.429000,-3.272295
0.430000,-2.824259
0.431000,-2.116565
0.432000,-1.702895
0.433000,-1.429237
0.434000,-1.151760
0.435000,-1.356686
0.436000,-1.560339
0.437000,-1.534882
0.438000,-1.845452
0.439000,-2.840805
0.440000,-3.838704
0.441000,-4.478938
0.442000,-5.273184
0.443000,-5.068258
0.444000,-4.517123
0.445000,-3.291387
0.446000,-2.152204
0.447000,-1.309591
0.448000,-1.490333
0.449000,-1.007930
0.450000,-0.399518
0.451000,0.005242
0.452000,0.249626
0.453000,0.213986
0.454000,0.082885
0.455000,0.136344
0.456000,0.863130
0.457000,0.642930
0.458000,0.145254
0.459000,0.268718
0.460000,0.562742
0.461000,0.459643
0.462000,0.272537
0.463000,0.309449
0.464000,0.280174
0.465000,0.672205
0.466000,1.188974
0.467000,1.036235
0.468000,0.681115
0.469000,0.413821
0.470000,0.070157
0.471000,-0.338422
0.472000,-0.711361
0.473000,-1.607433
0.474000,-2.708431
0.475000,-2.719887
0.476000,-2.210755
0.477000,-2.343129
0.478000,-2.441137
0.479000,-2.709704
0.480000,-2.904447
0.481000,-2.782255
0.482000,-2.736433
0.483000,-3.456855
0.484000,-5.333007
0.485000,-5.745404
0.486000,-5.022436
0.487000,-4.196369
0.488000,-3.361393
0.489000,-2.278215
0.490000,-1.234494
0.491000,-0.446612
0.492000,0.205077
0.493000,0.539831
0.494000,0.311994
0.495000,-0.273507
0.496000,-0.772457
0.497000,-1.149214
0.498000,-1.532336
0.499000,-1.907821
0.500000,-1.534882
0.501000,-1.784357
0.502000,-2.416953
0.503000,-2.173843
0.504000,-2.438591
0.505000,-2.584967
0.506000,-2.217119
0.507000,-1.906548
0.508000,-1.710532
0.509000,-1.517062
0.510000,-1.090664
0.511000,-1.254859
0.512000,-1.583249
0.513000,-1.249768
0.514000,-1.116121
0.515000,-1.184854
0.516000,-0.987565
0.517000,-0.501344
0.518000,-0.371515
0.519000,-1.105938
0.520000,-1.200128
0.521000,-1.448329
0.522000,-2.028740
0.523000,-2.097473
0.524000,-1.996919
0.525000,-1.937096
0.526000,-2.502233
0.527000,-3.481039
0.528000,-4.252374
0.529000,-3.637597
0.530000,-3.419943
0.531000,-2.549327
0.532000,-1.952370
0.533000,-1.934551
0.534000,-1.587068
0.535000,-0.944289
0.536000,-0.766093
0.537000,-0.964654
0.538000,-1.849271
0.539000,-2.875172
0.540000,-2.313854
0.541000,-1.387234
0.542000,-0.514072
0.543000,-0.013850
0.544000,-0.027851
0.545000,0.035790
0.546000,0.198713
0.547000,0.439277
0.548000,0.443096
0.549000,0.318359
0.550000,-0.951926
0.551000,-2.633334
0.552000,-4.032174
0.553000,-4.901517
0.554000,-5.240090
0.555000,-7.611372
0.556000,-6.897315
0.557000,-4.800964
0.558000,-2.926085
0.559000,-1.060116
0.560000,0.571652
0.561000,1.680287
0.562000,1.871211
0.563000,2.477078
0.564000,2.782557
0.565000,2.997666
0.566000,2.447803
0.567000,1.754111
0.568000,-0.782639
0.569000,-1.967644
0.570000,-2.134385
0.571000,-2.241303
0.572000,-1.669802
0.573000,-0.940470
0.574000,-0.586624
0.575000,-0.402063
0.576000,-0.605716
0.577000,-0.850099
0.578000,-1.033387
0.579000,-1.234494
0.580000,-1.520881
0.581000,-1.697804
0.582000,-2.402952
0.583000,-2.936268
0.584000,-3.603231
0.585000,-5.820500
0.586000,-5.970694
0.587000,-5.229907
0.588000,-4.210371
0.589000,-3.113191
0.590000,-2.344402
0.591000,-1.483969
0.592000,-1.177217
0.593000,-0.669358
0.594000,-0.525528
0.595000,-0.600625
0.596000,-0.508981
0.597000,-1.052479
0.598000,-0.878102
0.599000,-0.641355
0.600000,-0.684631
0.601000,-0.697360
0.602000,-0.665539
0.603000,-0.778821
0.604000,-0.676995
0.605000,-0.656629
0.606000,-0.965927
0.607000,-1.467422
0.608000,-2.310035
0.609000,-3.874343
0.610000,-3.912528
0.611000,-4.014355
0.612000,-5.040256
0.613000,-7.436995
0.614000,-6.885859
0.615000,-5.907053
0.616000,-4.730958
0.617000,-2.744070
0.618000,-0.899740
0.619000,0.571652
0.620000,1.480452
0.621000,1.922124
0.622000,2.371433
0.623000,2.673094
0.624000,2.726553
0.625000,2.550902
0.626000,2.398163
0.627000,1.766839
0.628000,1.368443
0.629000,0.739665
0.630000,-0.524255
0.631000,-1.328683
0.632000,-2.122929
0.633000,-2.383860
0.634000,-2.238757
0.635000,-2.554419
0.636000,-2.908265
0.637000,-3.609595
0.638000,-4.160730
0.639000,-4.163276
0.640000,-4.122545
0.641000,-4.998252
0.642000,-4.734777
0.643000,-3.864161
0.644000,-2.572238
0.645000,-2.401679
0.646000,-2.658791
0.647000,-1.692713
0.648000,-0.759728
0.649000,-0.043125
0.650000,0.264900
0.651000,0.670932
0.652000,1.004414
0.653000,0.564015
0.654000,0.303085
0.655000,0.438005
0.656000,0.310722
0.657000,-0.407155
0.658000,-1.715624
0.659000,-2.175115
0.660000,-2.227301
0.661000,-2.830623
0.662000,-4.195097
0.663000,-4.274012
0.664000,-4.312197
0.665000,-5.181540
0.666000,-5.989787
0.667000,-5.333007
0.668000,-4.108544
0.669000,-2.788619
0.670000,-1.509425
0.671000,-0.497525
0.672000,0.552559
0.673000,1.166063
0.674000,1.446086
0.675000,1.624282
0.676000,1.973038
0.677000,1.672650
0.678000,0.964956
0.679000,1.253889
0.680000,0.985321
0.681000,-0.678267
0.682000,-1.881092
0.683000,-1.981645
0.684000,-2.242575
0.685000,-2.338038
0.686000,-2.063106
0.687000,-1.811086
0.688000,-1.617616
0.689000,-1.489060
0.690000,-1.355413
0.691000,-1.510698
0.692000,-1.630344
0.693000,-1.504334
0.694000,-1.399962
0.695000,-1.707987
0.696000,-1.949824
0.697000,-2.237484
0.698000,-3.073733
0.699000,-3.953259
0.700000,-4.065268
0.701000,-3.547226
0.702000,-4.014355
0.703000,-4.387294
0.704000,-4.519668
0.705000,-4.098362
0.706000,-3.101736
0.707000,-2.397861
0.708000,-2.229847
0.709000,-2.704613
0.710000,-1.977827
0.711000,-1.153033
0.712000,-0.598079
0.713000,-0.539529
0.714000,-0.144952
0.715000,0.483826
0.716000,1.102422
0.717000,1.458814
0.718000,1.476634
0.719000,1.167336
0.720000,0.641657
0.721000,-0.789004
0.722000,-3.043185
0.723000,-3.888345
0.724000,-3.430126
0.725000,-3.225200
0.726000,-3.165377
0.727000,-3.036821
0.728000,-4.956249
0.729000,-7.042417
0.730000,-6.745848
0.731000,-6.076339
0.732000,-4.103453
0.733000,-1.934551
0.734000,0.040882
0.735000,1.756656
0.736000,3.155497
0.737000,3.706632
0.738000,3.726997
0.739000,3.413881
0.740000,3.281507
0.741000,3.054943
0.742000,2.291245
0.743000,1.471543
0.744000,0.985321
0.745000,0.875858
0.746000,0.343815
0.747000,-0.805550
0.748000,-1.999465
0.749000,-2.910811
0.750000,-3.020275
0.751000,-2.951542
0.752000,-2.658791
0.753000,-2.280760
0.754000,-2.475503
0.755000,-3.717785
0.756000,-3.739423
0.757000,-3.988898
0.758000,-4.042357
0.759000,-4.058904
0.760000,-4.095816
0.761000,-3.839977
0.762000,-3.192107
0.763000,-2.662609
0.764000,-2.607878
0.765000,-2.245121
0.766000,-1.842907
0.767000,-1.631617
0.768000,-1.136486
0.769000,-1.085573
0.770000,-1.035933
0.771000,-0.777548
0.772000,-0.646447
0.773000,-1.044842
0.774000,-1.453421
0.775000,-1.818723
0.776000,-2.614242
0.777000,-3.901073
0.778000,-5.168812
0.779000,-5.569753
0.780000,-5.572299
0.781000,-5.234999
0.782000,-5.111534
0.783000,-3.286296
0.784000,-1.578158
0.785000,-0.277326
0.786000,0.911497
0.787000,1.255161
0.788000,1.337895
0.789000,1.942490
0.790000,2.082501
0.791000,2.081228
0.792000,1.812661
0.793000,1.647193
0.794000,1.232250
0.795000,0.297993
0.796000,-1.109757
0.797000,-1.788175
0.798000,-2.779710
0.799000,-3.427580
0.800000,-3.143739
0.801000,-2.686793
0.802000,-1.893820
0.803000,-1.182308
0.804000,-1.383415
0.805000,-1.934551
0.806000,-2.119111
0.807000,-1.897638
0.808000,-1.905275
0.809000,-1.730898
0.810000,-2.209482
0.811000,-1.874728
0.812000,-1.300681
0.813000,-1.209037
0.814000,-1.034660
0.815000,-0.884466
0.816000,-0.822097
0.817000,-1.011749
0.818000,-1.217947
0.819000,-1.585795
0.820000,-2.859898
0.821000,-2.915902
0.822000,-3.361393
0.823000,-3.439036
0.824000,-3.346119
0.825000,-2.623152
0.826000,-2.280760
0.827000,-1.946006
0.828000,-1.556520
0.829000,-1.088119
0.830000,-0.713907
0.831000,-0.626081
0.832000,-0.819551
0.833000,-0.697360
0.834000,-0.477160
0.835000,-0.491161
0.836000,-0.976110
0.837000,-1.235767
0.838000,-1.396143
0.839000,-2.548055
0.840000,-3.963442
0.841000,-4.298196
0.842000,-3.815793
0.843000,-2.562056
0.844000,-1.621434
0.845000,-0.890830
0.846000,-1.048661
0.847000,-0.796641
0.848000,-0.416064
0.849000,-0.675722
0.850000,-0.418610
0.851000,-0.638810
0.852000,-1.342685
0.853000,-1.826360
0.854000,-1.514517
0.855000,-0.906104
0.856000,-0.572622
0.857000,-0.414792
0.858000,-0.511527
0.859000,-0.739363
0.860000,-0.772457
0.861000,-0.943016
0.862000,-0.996475
0.863000,-1.130122
0.864000,-1.893820
0.865000,-2.430954
0.866000,-2.391497
0.867000,-1.872182
0.868000,-2.525144
0.869000,-3.505223
0.870000,-3.701239
0.871000,-4.077996
0.872000,-4.646951
0.873000,-3.545953
0.874000,-2.413135
0.875000,-1.144123
0.876000,-0.372788
0.877000,-0.288781
0.878000,-0.270962
0.879000,-0.199683
0.880000,-0.570077
0.881000,-0.754637
0.882000,-0.567531
0.883000,-0.165317
0.884000,0.446914
0.885000,0.603472
0.886000,0.310722
0.887000,-0.008759
0.888000,-1.119939
0.889000,-1.531063
0.890000,-1.865818
0.891000,-2.019830
0.892000,-1.999465
0.893000,-2.182752
0.894000,-2.624424
0.895000,-2.704613
0.896000,-2.646063
0.897000,-3.021547
0.898000,-5.690672
0.899000,-6.216351
0.900000,-5.170084
0.901000,-3.717785
0.902000,-2.396588
0.903000,-1.406326
0.904000,-0.759728
0.905000,-0.470796
0.906000,-0.510254
0.907000,-0.898467
0.908000,-0.907377
0.909000,-0.701178
0.910000,-0.363878
0.911000,0.297993
0.912000,0.702753
0.913000,0.600927
0.914000,0.527103
0.915000,0.058701
0.916000,-0.300237
0.917000,-0.894648
0.918000,-1.184854
0.919000,-2.899356
0.920000,-4.211643
0.921000,-4.458572
0.922000,-5.224816
0.923000,-4.975341
0.924000,-4.344018
0.925000,-4.481483
0.926000,-4.015628
0.927000,-2.747889
0.928000,-1.378324
0.929000,-0.338422
0.930000,0.207622
0.931000,0.249626
0.932000,0.567833
0.933000,1.083329
0.934000,1.026052
0.935000,1.013324
0.936000,0.683661
0.937000,-0.078764
0.938000,-0.820824
0.939000,-0.883193
0.940000,-2.007102
0.941000,-3.655417
0.942000,-4.704229
0.943000,-4.289286
0.944000,-3.451764
0.945000,-2.414407
0.946000,-1.618889
0.947000,-0.866646
0.948000,-0.370242
0.949000,-0.147497
0.950000,0.048519
0.951000,0.550014
0.952000,0.819854
0.953000,1.020961
0.954000,0.548741
0.955000,-0.118222
0.956000,-1.851817
0.957000,-2.628243
0.958000,-2.635880
0.959000,-2.325309
0.960000,-1.811086
0.961000,-1.299408
0.962000,-1.494151
0.963000,-2.987181
0.964000,-3.190834
0.965000,-2.971907
0.966000,-2.443683
0.967000,-2.022376
0.968000,-1.590886
0.969000,-1.335048
0.970000,-1.117394
0.971000,-1.398689
0.972000,-1.727079
0.973000,-1.968917
0.974000,-1.793266
0.975000,-2.101291
0.976000,-2.376223
0.977000,-2.638426
0.978000,-4.674953
0.979000,-7.109877
0.980000,-7.214249
0.981000,-6.702572
0.982000,-6.052156
0.983000,-4.400022
0.984000,-2.582421
0.985000,-0.817006
0.986000,0.471098
0.987000,1.620464
0.988000,2.326884
0.989000,2.544538
0.990000,2.487261
0.991000,2.419801
0.992000,2.414710
0.993000,2.445257
0.994000,2.167781
0.995000,1.278072
0.996000,1.214431
0.997000,1.000595
0.998000,0.157982
0.999000,-0.638810
1.000000,-1.192491
1.001000,-1.449602
1.002000,-1.919277
1.003000,-2.185298
1.004000,-2.427136
1.005000,-2.658791
1.006000,-2.802621
1.007000,-2.540418
1.008000,-2.746616
1.009000,-3.176833
1.010000,-4.191278
1.011000,-4.492939
1.012000,-4.386021
1.013000,-4.322380
1.014000,-3.697420
1.015000,-2.927358
1.016000,-2.478049
1.017000,-2.270578
1.018000,-2.156023
1.019000,-2.288397
1.020000,-2.156023
1.021000,-2.084744
1.022000,-1.616343
1.023000,-1.224311
1.024000,-0.811914
1.025000,-0.559894
1.026000,-0.515345
1.027000,-1.711805
1.028000,-2.102564
1.029000,-2.528962
1.030000,-4.304560
1.031000,-4.454754
1.032000,-3.707603
1.033000,-3.990171
1.034000,-4.302014
1.035000,-4.006718
1.036000,-4.319834
1.037000,-3.461947
1.038000,-2.036377
1.039000,-0.809369
1.040000,0.185984
1.041000,0.893678
1.042000,1.474088
1.043000,1.779567
1.044000,2.049407
1.045000,2.128323
1.046000,1.876302
1.047000,2.277244
1.048000,2.511445
1.049000,1.956491
1.050000,1.637010
1.051000,1.206794
1.052000,0.115979
1.053000,-0.782639
1.054000,-1.473786
1.055000,-2.490777
1.056000,-4.711866
1.057000,-5.135718
1.058000,-4.700410
1.059000,-3.716513
1.060000,-2.532781
1.061000,-1.784357
1.062000,-0.981201
1.063000,-0.673176
1.064000,-0.306601
1.065000,-0.231504
1.066000,-0.209866
1.067000,-0.208593
1.068000,-0.437702
1.069000,-0.771184
1.070000,-0.917559
1.071000,-1.102120
1.072000,-1.774174
1.073000,-2.292216
1.074000,-2.704613
1.075000,-2.834441
1.076000,-3.048277
1.077000,-3.549772
1.078000,-3.817066
1.079000,-4.380930
1.080000,-5.819228
1.081000,-6.944409
1.082000,-7.370807
1.083000,-5.852321
1.084000,-4.363110
1.085000,-2.548055
1.086000,-1.011749
1.087000,-0.087674
1.088000,0.639112
1.089000,0.920407
1.090000,0.936954
1.091000,0.649294
1.092000,0.374363
1.093000,-0.109312
1.094000,-1.004112
1.095000,-1.385961
1.096000,-1.249768
1.097000,-0.790276
1.098000,-0.356241
1.099000,-0.164044
1.100000,-0.604443
1.101000,-1.328683
1.102000,-1.235767
1.103000,-1.062662
1.104000,-1.005385
1.105000,-0.735545
1.106000,-0.478433
1.107000,-1.032114
1.108000,-1.015567
1.109000,-0.587896
1.110000,-0.633718
1.111000,-1.137759
1.112000,-1.352867
1.113000,-1.822541
1.114000,-1.974008
1.115000,-1.905275
1.116000,-2.369858
1.117000,-2.710977
1.118000,-3.398305
1.119000,-3.836159
1.120000,-3.953259
1.121000,-4.021992
1.122000,-3.496313
1.123000,-2.858625
1.124000,-1.980372
1.125000,-2.490777
1.126000,-1.853089
1.127000,-1.363050
1.128000,-0.898467
1.129000,-0.442794
1.130000,-0.052035
1.131000,0.024335
1.132000,0.090522
1.133000,0.179620
1.134000,0.306903
1.135000,-0.049489
1.136000,-0.801732
1.137000,-0.801732
1.138000,-0.824643
1.139000,-0.831007
1.140000,-0.954471
1.141000,-1.051207
1.142000,-0.810642
1.143000,-0.800459
1.144000,-1.103393
1.145000,-1.319774
1.146000,-1.529791
1.147000,-1.830178
1.148000,-2.532781
1.149000,-2.822986
1.150000,-2.745343
1.151000,-2.559510
1.152000,-2.278215
1.153000,-2.212027
1.154000,-2.198026
1.155000,-2.234938
1.156000,-2.308763
1.157000,-2.229847
1.158000,-3.800519
1.159000,-4.271466
1.160000,-5.381374
1.161000,-5.574844
1.162000,-4.704229
1.163000,-3.496313
1.164000,-3.305388
1.165000,-4.076723
1.166000,-5.224816
1.167000,-5.602847
1.168000,-4.940975
1.169000,-3.801792
1.170000,-2.577330
1.171000,-0.822097
1.172000,0.542377
1.173000,2.106685
1.174000,3.000211
1.175000,3.264960
1.176000,3.082945
1.177000,2.670548
1.178000,2.717643
1.179000,2.750737
1.180000,2.978573
1.181000,3.076581
1.182000,2.249242
1.183000,1.127878
1.184000,0.553832
1.185000,-0.088947
1.186000,-1.105938
1.187000,-1.752536
1.188000,-1.868363
1.189000,-2.296034
1.190000,-2.367313
1.191000,-2.504778
1.192000,-2.724978
1.193000,-2.806439
1.194000,-3.064824
1.195000,-3.176833
1.196000,-3.736878
1.197000,-3.767426
1.198000,-3.521770
1.199000,-3.222654
1.200000,-3.203562
1.201000,-3.608322
1.202000,-3.320662
1.203000,-2.970634
1.204000,-2.294761
1.205000,-1.373233
1.206000,-1.617616
1.207000,-2.089836
1.208000,-2.329128
1.209000,-1.926914
1.210000,-1.215402
1.211000,-0.556076
1.212000,-0.601898
1.213000,-1.072845
1.214000,-2.800075
1.215000,-3.944349
1.216000,-4.924428
1.217000,-4.466209
1.218000,-3.091553
1.219000,-1.789448
1.220000,-0.545893
1.221000,0.012879
1.222000,0.444369
1.223000,0.754939
1.224000,0.382000
1.225000,0.016698
1.226000,-0.403336
1.227000,-0.866646
1.228000,-0.818279
1.229000,-0.362606
1.230000,0.659477
1.231000,0.872040
1.232000,0.565288
1.233000,0.096886
1.234000,-0.074946
1.235000,-0.360060
1.236000,-0.683359
1.237000,-1.416509
1.238000,-1.974008
1.239000,-2.517507
1.240000,-2.864989
1.241000,-2.703340
1.242000,-2.643517
1.243000,-2.760617
1.244000,-2.438591
1.245000,-2.271850
1.246000,-2.395315
1.247000,-2.204390
1.248000,-2.153477
1.249000,-2.107655
1.250000,-1.986737
1.251000,-1.746172
1.252000,-1.728352
1.253000,-1.462331
1.254000,-1.089391
1.255000,-1.371960
1.256000,-1.668529
1.257000,-2.016012
1.258000,-2.498414
1.259000,-3.062278
1.260000,-3.360120
1.261000,-3.305388
1.262000,-3.361393
1.263000,-3.677055
1.264000,-3.581593
1.265000,-3.379213
1.266000,-3.694874
1.267000,-3.384304
1.268000,-3.279932
1.269000,-2.651154
1.270000,-1.608706
1.271000,-0.850099
1.272000,0.091795
1.273000,0.446914
1.274000,0.852947
1.275000,0.595835
1.276000,0.525830
1.277000,0.071430
1.278000,-1.643072
1.279000,-2.840805
1.280000,-3.309207
1.281000,-2.661336
1.282000,-2.171297
1.283000,-2.079653
1.284000,-1.833997
1.285000,-1.128849
1.286000,-0.650265
1.287000,-0.174227
1.288000,-0.316784
1.289000,-0.423701
1.290000,-0.208593
1.291000,-0.018941
1.292000,0.194894
1.293000,0.291629
1.294000,0.107069
1.295000,-0.385516
1.296000,-1.669802
1.297000,-3.661781
1.298000,-5.080986
1.299000,-5.238817
1.300000,-4.512031
1.301000,-3.598139
1.302000,-2.484413
1.303000,-1.425419
1.304000,-0.833553
1.305000,-0.484797
1.306000,-0.263325
1.307000,0.026880
1.308000,0.387091
1.309000,0.640385
1.310000,0.607291
1.311000,0.558923
1.312000,0.458370
1.313000,0.231806
1.314000,-0.422429
1.315000,-2.344402
1.316000,-3.231564
1.317000,-3.727968
1.318000,-3.785245
1.319000,-3.404669
1.320000,-2.768254
1.321000,-2.054197
1.322000,-1.657074
1.323000,-1.536155
1.324000,-1.578158
1.325000,-1.743626
1.326000,-1.776720
1.327000,-2.035104
1.328000,-2.769527
1.329000,-2.551873
1.330000,-2.472958
1.331000,-1.869636
1.332000,-0.638810
1.333000,0.089249
1.334000,0.107069
1.335000,-0.100403
1.336000,-0.118222
1.337000,-0.738090
1.338000,-0.763547
1.339000,-1.799631
1.340000,-2.414407
1.341000,-2.101291
1.342000,-2.988454
1.343000,-4.575673
1.344000,-4.566763
1.345000,-4.249828
1.346000,-3.232837
1.347000,-2.158569
1.348000,-1.371960
1.349000,-0.488616
1.350000,0.093068
1.351000,0.455824
1.352000,0.544922
1.353000,0.403638
1.354000,0.337451
1.355000,-0.432611
1.356000,-0.824643
1.357000,-0.964654
1.358000,-1.681257
1.359000,-2.835714
1.360000,-3.491222
1.361000,-3.489949
1.362000,-3.156467
1.363000,-2.495869
1.364000,-1.844180
1.365000,-1.335048
1.366000,-1.020659
1.367000,-0.894648
1.368000,-0.600625
1.369000,-0.156407
1.370000,-0.494980
1.371000,-0.955744
1.372000,-1.668529
1.373000,-2.040195
1.374000,-1.660892
1.375000,-1.676166
1.376000,-2.456411
1.377000,-2.522598
1.378000,-2.301126
1.379000,-2.219664
1.380000,-2.148386
1.381000,-1.468695
1.382000,-1.155579
1.383000,-1.253586
1.384000,-0.754637
1.385000,-0.269689
1.386000,-0.161498
1.387000,-0.405882
1.388000,-1.083027
1.389000,-1.898911
1.390000,-1.677439
1.391000,-1.649437
1.392000,-1.641800
1.393000,-1.766537
1.394000,-2.378768
1.395000,-2.658791
1.396000,-2.629516
1.397000,-2.209482
1.398000,-1.847998
1.399000,-2.038923
1.400000,-3.908710
1.401000,-4.354200
1.402000,-3.827249
1.403000,-2.554419
1.404000,-1.944733
1.405000,-1.560339
1.406000,-1.032114
1.407000,-1.557793
1.408000,-2.246394
1.409000,-2.120384
1.410000,-1.606160
1.411000,-1.407599
1.412000,-1.159397
1.413000,-0.424974
1.414000,-0.063490
1.415000,-0.063490
1.416000,-1.235767
1.417000,-1.900184
1.418000,-2.009648
1.419000,-1.565430
1.420000,-1.626526
1.421000,-2.028740
1.422000,-3.790337
1.423000,-4.527305
1.424000,-4.021992
1.425000,-3.291387
1.426000,-2.208209
1.427000,-1.256132
1.428000,-0.245505
1.429000,0.235625
1.430000,-0.081310
1.431000,0.063793
1.432000,0.331087
1.433000,0.261081
1.434000,0.686206
1.435000,0.711663
1.436000,1.386263
1.437000,1.449904
1.438000,1.346805
1.439000,0.905133
1.440000,0.073975
1.441000,-0.954471
1.442000,-1.873455
1.443000,-2.551873
1.444000,-2.674065
1.445000,-2.560783
1.446000,-2.378768
1.447000,-2.264214
1.448000,-2.350766
1.449000,-2.381314
1.450000,-2.792438
1.451000,-3.077552
1.452000,-3.053368
1.453000,-2.709704
1.454000,-2.797529
1.455000,-3.352483
1.456000,-4.005445
1.457000,-3.530679
1.458000,-2.665155
1.459000,-2.572238
1.460000,-2.257849
1.461000,-1.664711
1.462000,-1.117394
1.463000,-0.572622
1.464000,-0.099130
1.465000,0.420185
1.466000,0.654386
1.467000,0.413821
1.468000,0.003970
1.469000,-0.106767
1.470000,-0.824643
1.471000,-1.207765
1.472000,-1.923095
1.473000,-2.154750
1.474000,-2.108928
1.475000,-2.746616
1.476000,-3.685965
1.477000,-4.090725
1.478000,-3.697420
1.479000,-3.101736
1.480000,-2.306217
1.481000,-1.699077
1.482000,-1.165761
1.483000,-0.776275
1.484000,-0.916287
1.485000,-1.537428
1.486000,-2.196754
1.487000,-1.756354
1.488000,-1.850544
1.489000,-2.120384
1.490000,-2.457684
1.491000,-2.586239
1.492000,-3.385577
1.493000,-4.042357
1.494000,-4.004172
1.495000,-3.744515
1.496000,-2.970634
1.497000,-1.789448
1.498000,-1.005385
1.499000,-0.156407
1.500000,0.663295
1.501000,0.838946
1.502000,0.775305
1.503000,1.028598
1.504000,0.984049
1.505000,0.935681
1.506000,0.477462
1.507000,-0.055853
1.508000,-0.379152
1.509000,-0.985019
1.510000,-1.601069
1.511000,-1.794539
1.512000,-2.573511
1.513000,-3.090280
1.514000,-3.092826
1.515000,-2.749162
1.516000,-2.545509
1.517000,-2.093654
1.518000,-1.677439
1.519000,-2.136931
1.520000,-2.469139
1.521000,-2.806439
1.522000,-5.413195
1.523000,-7.790841
1.524000,-6.734392
1.525000,-4.602402
1.526000,-2.142022
1.527000,-0.203502
1.528000,1.094785
1.529000,2.021405
1.530000,2.120686
1.531000,1.951399
1.532000,1.895395
1.533000,1.806297
1.534000,1.855937
1.535000,1.976856
1.536000,1.891576
1.537000,2.124504
1.538000,1.876302
1.539000,0.976412
1.540000,0.152891
1.541000,-0.603170
1.542000,-1.217947
1.543000,-1.683803
1.544000,-2.238757
1.545000,-2.696976
1.546000,-3.030457
1.547000,-3.864161
1.548000,-4.363110
1.549000,-4.356746
1.550000,-4.200188
1.551000,-3.874343
1.552000,-3.593048
1.553000,-3.535771
1.554000,-3.040640
1.555000,-2.726251
1.556000,-2.740252
1.557000,-2.397861
1.558000,-2.190389
1.559000,-2.278215
1.560000,-2.330401
1.561000,-1.867091
1.562000,-1.333775
1.563000,-1.169580
1.564000,-1.375778
1.565000,-1.807268
1.566000,-2.960452
1.567000,-3.521770
1.568000,-5.928691
1.569000,-6.739484
1.570000,-6.007606
1.571000,-4.774234
1.572000,-3.241747
1.573000,-1.957461
1.574000,-1.038478
1.575000,-0.478433
1.576000,-0.445339
1.577000,-0.620990
1.578000,-1.315955
1.579000,-1.214129
1.580000,-0.747000
1.581000,-0.272235
1.582000,0.124888
1.583000,-1.159397
1.584000,-0.702451
1.585000,-0.277326
1.586000,0.124888
1.587000,0.143981
1.588000,0.510556
1.589000,0.943318
1.590000,1.230978
1.591000,1.283164
1.592000,1.143152
1.593000,-0.055853
1.594000,-0.796641
1.595000,-1.351594
1.596000,-1.210310
1.597000,-0.694814
1.598000,-0.202229
1.599000,-0.059672
1.600000,-0.269689
1.601000,-0.449158
1.602000,-0.474615
1.603000,-0.704997
1.604000,-1.080482
1.605000,-1.458512
1.606000,-1.763991
1.607000,-1.825087
1.608000,-1.704168
1.609000,-1.904003
1.610000,-5.115353
1.611000,-8.891839
1.612000,-9.534618
1.613000,-8.501080
1.614000,-6.157800
1.615000,-3.749606
1.616000,-1.753809
1.617000,-0.447885
1.618000,0.048519
1.619000,0.341269
1.620000,0.132525
1.621000,-0.011304
1.622000,-0.152589
1.623000,-0.404609
1.624000,-0.041852
1.625000,0.691298
1.626000,1.107513
1.627000,1.050236
1.628000,0.823672
1.629000,0.701480
1.630000,0.248353
1.631000,-0.161498
1.632000,-0.288781
1.633000,-0.255688
1.634000,-0.309147
1.635000,-0.772457
1.636000,-1.337593
1.637000,-1.361777
1.638000,-1.725806
1.639000,-1.924368
1.640000,-2.026194
1.641000,-2.077107
1.642000,-2.297307
1.643000,-2.544236
1.644000,-2.635880
1.645000,-2.802621
1.646000,-3.085189
1.647000,-2.901901
1.648000,-2.744070
1.649000,-3.454310
1.650000,-3.864161
1.651000,-3.967260
1.652000,-3.876889
1.653000,-4.035993
1.654000,-3.649053
1.655000,-3.160286
1.656000,-2.805166
1.657000,-2.198026
1.658000,-2.363494
1.659000,-2.409316
1.660000,-2.275669
1.661000,-1.434328
1.662000,-0.878102
1.663000,-0.102948
1.664000,-0.133496
1.665000,-1.424146
1.666000,-1.807268
1.667000,-2.302398
1.668000,-2.604059
1.669000,-2.504778
1.670000,-1.923095
1.671000,-1.206492
1.672000,-0.987565
1.673000,-0.773730
1.674000,-0.474615
1.675000,-0.743182
1.676000,-1.016840
1.677000,-1.074117
1.678000,-0.955744
1.679000,-0.258233
1.680000,0.422731
1.681000,0.664568
1.682000,0.044700
1.683000,-0.853918
1.684000,-1.733443
1.685000,-1.869636
1.686000,-2.838260
1.687000,-5.292276
1.688000,-5.800135
1.689000,-5.429742
1.690000,-3.992717
1.691000,-2.648608
1.692000,-1.539973
1.693000,-0.739363
1.694000,-0.074946
1.695000,0.376909
1.696000,1.194066
1.697000,2.100321
1.698000,1.112604
1.699000,-0.132223
1.700000,0.051064
1.701000,0.248353
1.702000,0.094340
1.703000,0.291629
1.704000,0.189803
1.705000,0.039609
1.706000,-0.176772
1.707000,-0.622263
1.708000,-1.206492
1.709000,-1.763991
1.710000,-1.728352
1.711000,-1.918004
1.712000,-2.222210
1.713000,-2.523871
1.714000,-2.863716
1.715000,-2.587512
1.716000,-2.429681
1.717000,-2.704613
1.718000,-3.787791
1.719000,-5.229907
1.720000,-5.490838
1.721000,-5.145901
1.722000,-4.070359
1.723000,-3.944349
1.724000,-3.999081
1.725000,-2.979544
1.726000,-2.176388
1.727000,-1.514517
1.728000,-1.094483
1.729000,-0.620990
1.730000,-0.715179
1.731000,-0.773730
1.732000,-0.512799
1.733000,-0.209866
1.734000,0.635293
1.735000,1.447359
1.736000,1.589916
1.737000,1.185156
1.738000,0.692571
1.739000,0.598381
1.740000,0.412548
1.741000,0.109614
1.742000,0.025608
1.743000,0.037063
1.744000,-0.297691
1.745000,-1.183581
1.746000,-1.816177
1.747000,-1.914185
1.748000,-2.378768
1.749000,-3.167923
1.750000,-3.949440
1.751000,-3.860342
1.752000,-3.498859
1.753000,-3.106827
1.754000,-2.654972
1.755000,-2.359676
1.756000,-3.220109
1.757000,-3.652871
1.758000,-3.206108
1.759000,-2.717341
1.760000,-2.649881
1.761000,-4.051267
1.762000,-4.403841
1.763000,-4.220553
1.764000,-4.587128
1.765000,-4.526032
1.766000,-3.516678
1.767000,-2.595149
1.768000,-2.494596
1.769000,-2.250212
1.770000,-1.902730
1.771000,-1.035933
1.772000,-0.283690
1.773000,0.907679
1.774000,1.917033
1.775000,2.082501
1.776000,2.377797
1.777000,2.399436
1.778000,2.029042
1.779000,1.326440
1.780000,1.325167
1.781000,0.947137
1.782000,-1.637981
1.783000,-3.781427
1.784000,-3.996535
1.785000,-3.837431
1.786000,-2.979544
1.787000,-2.050378
1.788000,-1.490333
1.789000,-1.125031
1.790000,-0.836098
1.791000,-0.417337
1.792000,-0.010032
1.793000,0.264900
1.794000,0.059974
1.795000,0.040882
1.796000,-0.200956
1.797000,-0.465705
1.798000,-0.396972
1.799000,-0.474615
1.800000,-0.931561
1.801000,-1.438147
1.802000,-1.797085
1.803000,-2.100018
1.804000,-2.638426
1.805000,-2.819167
1.806000,-2.825532
1.807000,-3.299024
1.808000,-3.353756
1.809000,-3.002455
1.810000,-2.903174
1.811000,-3.013910
1.812000,-2.632061
1.813000,-2.302398
1.814000,-2.540418
1.815000,-2.969361
1.816000,-2.747889
1.817000,-2.144567
1.818000,-1.835270
1.819000,-2.593876
1.820000,-4.134001
1.821000,-4.257465
1.822000,-4.289286
1.823000,-4.412751
1.824000,-4.307106
1.825000,-3.735605
1.826000,-2.786074
1.827000,-1.961280
1.828000,-0.907377
1.829000,0.157982
1.830000,0.314540
1.831000,0.208895
1.832000,0.346361
1.833000,0.291629
1.834000,-0.747000
1.835000,-1.681257
1.836000,-1.424146
1.837000,-0.250596
1.838000,0.052337
1.839000,-0.366424
1.840000,-0.620990
1.841000,-0.925196
1.842000,-1.765264
1.843000,-2.217119
1.844000,-1.682530
1.845000,-0.982474
1.846000,-1.396143
1.847000,-0.814460
1.848000,-0.326966
1.849000,-0.312965
1.850000,-0.162771
1.851000,-0.048216
1.852000,0.180893
1.853000,-0.160226
1.854000,-1.267588
1.855000,-1.534882
1.856000,-2.223483
1.857000,-2.381314
1.858000,-2.070743
1.859000,-1.609979
1.860000,-1.356686
1.861000,-0.889557
1.862000,-0.617172
1.863000,-0.447885
1.864000,-0.578987
1.865000,-0.795368
1.866000,-1.053752
1.867000,-1.112302
1.868000,-0.861555
1.869000,-0.813187
1.870000,-0.701178
1.871000,-1.172125
1.872000,-1.603615
1.873000,-2.116565
1.874000,-2.231120
1.875000,-2.368586
1.876000,-2.437318
1.877000,-2.600241
1.878000,-2.751707
1.879000,-2.937541
1.880000,-3.292660
1.881000,-3.591775
1.882000,-3.669418
1.883000,-3.458128
1.884000,-2.941359
1.885000,-2.997364
1.886000,-2.344402
1.887000,-1.837815
1.888000,-1.818723
1.889000,-2.065652
1.890000,-2.541690
1.891000,-2.518780
1.892000,-2.038923
1.893000,-2.294761
1.894000,-2.488232
1.895000,-1.378324
1.896000,-0.524255
1.897000,-0.528073
1.898000,-1.228130
1.899000,-1.522154
1.900000,-1.421600
1.901000,-1.207765
1.902000,-1.618889
1.903000,-1.916731
1.904000,-2.032558
1.905000,-2.195481
1.906000,-2.005829
1.907000,-1.466149
1.908000,-1.211583
1.909000,-1.046115
1.910000,-0.702451
1.911000,-0.152589
1.912000,0.282719
1.913000,0.072702
1.914000,-0.371515
1.915000,-0.738090
1.916000,-1.142850
1.917000,-2.563329
1.918000,-3.565046
1.919000,-5.022436
1.920000,-6.908770
1.921000,-8.445076
1.922000,-7.052600
1.923000,-4.771689
1.924000,-2.558237
1.925000,-0.824643
1.926000,0.875858
1.927000,1.621736
1.928000,1.438449
1.929000,1.624282
1.930000,2.333248
1.931000,2.334521
1.932000,1.929761
1.933000,1.342987
1.934000,1.183883
1.935000,0.108342
1.936000,-0.656629
1.937000,-2.227301
1.938000,-3.893436
1.939000,-3.432671
1.940000,-2.758072
1.941000,-1.607433
1.942000,-0.458068
1.943000,0.031972
1.944000,0.241989
1.945000,-0.192046
1.946000,-1.076663
1.947000,-1.573067
1.948000,-1.280316
1.949000,-0.846281
1.950000,-1.099574
1.951000,-0.689723
1.952000,-0.091493
1.953000,0.035790
1.954000,-0.391881
1.955000,-1.155579
1.956000,-1.532336
1.957000,-1.779265
1.958000,-2.161114
1.959000,-2.861171
1.960000,-3.022820
1.961000,-3.101736
1.962000,-3.050822
1.963000,-2.872626
1.964000,-2.587512
1.965000,-2.110201
1.966000,-1.912912
1.967000,-1.737262
1.968000,-1.397416
1.969000,-1.133940
1.970000,-1.217947
1.971000,-1.573067
1.972000,-1.825087
1.973000,-1.734716
1.974000,-1.672348
1.975000,-1.854362
1.976000,-2.021103
1.977000,-2.068198
1.978000,-2.035104
1.979000,-2.101291
1.980000,-2.324037
1.981000,-3.273568
1.982000,-3.908710
1.983000,-3.629960
1.984000,-3.209926
1.985000,-2.796256
1.986000,-2.931176
1.987000,-4.887516
1.988000,-5.625757
1.989000,-6.119616
1.990000,-7.141698
1.991000,-5.735221
1.992000,-3.971079
1.993000,-2.226029
1.994000,-0.543347
1.995000,0.710390
1.996000,1.563186
1.997000,1.882667
1.998000,1.416811
1.999000,1.607735
2.000000,1.849573
2.001000,1.672650
2.002000,0.999323
2.003000,1.012051
2.004000,0.945864
2.005000,0.695116
2.006000,0.266173
2.007000,-0.416064
2.008000,-0.833553
2.009000,-1.206492
2.010000,-1.226857
2.011000,-0.834825
2.012000,-0.629900
2.013000,-0.754637
2.014000,-0.801732
2.015000,-0.861555
2.016000,-1.010476
2.017000,-1.153033
2.018000,-1.654528
2.019000,-2.540418
2.020000,-2.597695
2.021000,-2.871353
2.022000,-3.482312
2.023000,-4.151820
2.024000,-4.912973
2.025000,-5.173903
2.026000,-4.434389
2.027000,-3.724149
2.028000,-2.783528
2.029000,-1.625253
2.030000,-1.239585
2.031000,-0.640082
2.032000,-0.082583
2.033000,0.390910
2.034000,0.367999
2.035000,-0.038034
2.036000,-0.323148
2.037000,-0.657902
2.038000,-1.427964
2.039000,-2.205663
2.040000,-2.182752
2.041000,-2.595149
2.042000,-1.888729
2.043000,-1.473786
2.044000,-1.447057
2.045000,-1.458512
2.046000,-1.444511
2.047000,-2.878990
2.048000,-3.640143
2.049000,-3.757243
2.050000,-3.215018
2.051000,-2.135658
2.052000,-0.893376
2.053000,-0.066036
2.054000,0.504192
2.055000,0.728210
2.056000,0.850401
2.057000,0.460915
2.058000,-0.091493
2.059000,-0.356241
2.060000,-0.502617
2.061000,-0.057126
2.062000,0.238170
2.063000,0.090522
2.064000,-0.104221
2.065000,-0.283690
2.066000,-0.645174
2.067000,-1.121212
2.068000,-1.551429
2.069000,-1.948552
2.070000,-2.245121
2.071000,-2.438591
2.072000,-2.688066
2.073000,-2.657518
2.074000,-2.700794
2.075000,-2.867535
2.076000,-2.933722
2.077000,-2.700794
2.078000,-2.279487
2.079000,-2.527689
2.080000,-2.712250
2.081000,-2.774618
2.082000,-2.957906
2.083000,-2.966816
2.084000,-2.980817
2.085000,-2.614242
2.086000,-2.126748
2.087000,-2.192935
2.088000,-2.704613
2.089000,-2.903174
2.090000,-2.878990
2.091000,-2.812803
2.092000,-3.273568
2.093000,-3.463219
2.094000,-3.034276
2.095000,-2.191662
2.096000,-2.060561
2.097000,-1.732171
2.098000,-1.893820
2.099000,-1.644345
2.100000,-1.088119
2.101000,-0.923924
2.102000,-0.815733
2.103000,-1.312137
2.104000,-1.478877
2.105000,-1.421600
2.106000,-0.901013
2.107000,-0.424974
2.108000,-0.123313
2.109000,-0.161498
2.110000,-0.474615
2.111000,-0.934106
2.112000,-0.978655
2.113000,-1.139032
2.114000,-1.296863
2.115000,-1.333775
2.116000,-1.707987
2.117000,-2.102564
2.118000,-2.737706
2.119000,-2.555692
2.120000,-2.420772
2.121000,-2.676610
2.122000,-2.294761
2.123000,-1.571794
2.124000,-0.851372
2.125000,-0.186955
2.126000,0.374363
2.127000,0.510556
2.128000,-2.054197
2.129000,-4.337654
2.130000,-4.324925
2.131000,-3.495040
2.132000,-2.691884
2.133000,-1.715624
2.134000,-0.982474
2.135000,0.029426
2.136000,0.744757
2.137000,0.749848
2.138000,1.084602
2.139000,1.241160
2.140000,1.065510
2.141000,1.080784
2.142000,1.267890
2.143000,1.229705
2.144000,0.846583
2.145000,0.141435
2.146000,-0.501344
2.147000,-1.154306
2.148000,-1.575612
2.149000,-1.504334
2.150000,-1.645618
2.151000,-1.854362
2.152000,-2.017284
2.153000,-2.162387
2.154000,-2.204390
2.155000,-2.348220
2.156000,-2.578603
2.157000,-2.581148
2.158000,-2.588785
2.159000,-2.443683
2.160000,-2.280760
2.161000,-2.424590
2.162000,-2.666428
2.163000,-2.710977
2.164000,-2.862444
2.165000,-2.973180
2.166000,-2.940086
2.167000,-2.863716
2.168000,-2.630789
2.169000,-2.326582
2.170000,-2.206936
2.171000,-1.842907
2.172000,-1.659619
2.173000,-1.933278
2.174000,-1.674893
2.175000,-2.115292
2.176000,-2.554419
2.177000,-2.798802
2.178000,-2.996091
2.179000,-3.026639
2.180000,-3.878162
2.181000,-3.934166
2.182000,-5.153538
2.183000,-5.957966
2.184000,-5.418286
2.185000,-4.233281
2.186000,-3.323208
2.187000,-2.570966
2.188000,-1.112302
2.189000,-0.200956
2.190000,0.334905
2.191000,1.232250
2.192000,2.004858
2.193000,2.205965
2.194000,2.558539
2.195000,2.358705
2.196000,1.883939
2.197000,1.420629
2.198000,1.088421
2.199000,0.418912
2.200000,-0.021487
2.201000,-0.213684
2.202000,-0.650265
2.203000,-1.021931
2.204000,-1.753809
2.205000,-3.105554
2.206000,-3.440308
2.207000,-3.870525
2.208000,-4.235827
2.209000,-3.563773
2.210000,-2.815349
2.211000,-2.234938
2.212000,-1.876000
2.213000,-1.510698
2.214000,-0.959563
2.215000,-0.614626
2.216000,-0.617172
2.217000,-0.342240
2.218000,-0.498798
2.219000,-0.577714
2.220000,-0.741909
2.221000,-1.896366
2.222000,-2.154750
2.223000,-2.114020
2.224000,-1.846725
2.225000,-1.613797
2.226000,-1.454694
2.227000,-1.485242
2.228000,-1.914185
2.229000,-1.985464
2.230000,-1.683803
2.231000,-1.781811
2.232000,-2.047832
2.233000,-2.760617
2.234000,-4.798418
2.235000,-7.204067
2.236000,-8.811651
2.237000,-8.739100
2.238000,-7.813752
2.239000,-5.709764
2.240000,-3.134829
2.241000,-0.949380
2.242000,0.858038
2.243000,2.141051
2.244000,3.192409
2.245000,3.552620
2.246000,3.606078
2.247000,3.301872
2.248000,3.184772
2.249000,3.858099
2.250000,3.382060
2.251000,2.934024
2.252000,2.048134
2.253000,0.947137
2.254000,0.247080
2.255000,-0.664266
2.256000,-1.342685
2.257000,-1.729625
2.258000,-2.061834
2.259000,-2.380041
2.260000,-2.590058
2.261000,-2.829350
2.262000,-3.008819
2.263000,-3.323208
2.264000,-3.955805
2.265000,-4.450935
2.266000,-4.747505
2.267000,-4.926974
2.268000,-4.646951
2.269000,-4.014355
2.270000,-3.299024
2.271000,-2.812803
2.272000,-2.376223
2.273000,-1.953643
2.274000,-1.419054
2.275000,-1.165761
2.276000,-1.262496
2.277000,-1.315955
2.278000,-1.399962
2.279000,-1.256132
2.280000,-1.402508
2.281000,-1.324865
2.282000,-1.901457
2.283000,-1.707987
2.284000,-1.639254
2.285000,-1.420327
2.286000,-1.160670
2.287000,-0.985019
2.288000,-1.057571
2.289000,-1.084300
2.290000,-1.184854
2.291000,-1.420327
2.292000,-1.525972
2.293000,-1.861999
2.294000,-2.030013
2.295000,-2.248940
2.296000,-2.218392
2.297000,-2.310035
2.298000,-2.343129
2.299000,-2.270578
2.300000,-2.535326
2.301000,-2.760617
2.302000,-2.768254
2.303000,-2.626970
2.304000,-2.279487
2.305000,-1.681257
2.306000,-1.206492
2.307000,-1.377051
2.308000,-1.891274
2.309000,-2.794984
2.310000,-4.374566
2.311000,-4.895153
2.312000,-6.577834
2.313000,-5.581208
2.314000,-4.156912
2.315000,-2.325309
2.316000,-0.893376
2.317000,0.457097
2.318000,1.278072
2.319000,1.414265
2.320000,0.646749
2.321000,0.765122
2.322000,1.178792
2.323000,2.003585
2.324000,2.213602
2.325000,1.651012
2.326000,2.232695
2.327000,1.474088
2.328000,0.515647
2.329000,0.136344
2.330000,0.043427
2.331000,-0.366424
2.332000,-0.455522
2.333000,-0.367697
2.334000,-0.873010
2.335000,-1.312137
2.336000,-2.013466
2.337000,-2.838260
2.338000,-3.013910
2.339000,-3.075006
2.340000,-2.710977
2.341000,-2.134385
2.342000,-1.440693
2.343000,-1.107211
2.344000,-0.949380
2.345000,-1.528518
2.346000,-2.745343
2.347000,-3.213745
2.348000,-3.311753
2.349000,-3.089007
2.350000,-2.618060
2.351000,-2.408043
2.352000,-1.999465
2.353000,-1.553974
2.354000,-1.397416
2.355000,-1.595978
2.356000,-2.322764
2.357000,-2.597695
2.358000,-3.058459
2.359000,-3.715240
2.360000,-3.575228
2.361000,-3.302843
2.362000,-2.638426
2.363000,-2.173843
2.364000,-1.083027
2.365000,-0.502617
2.366000,-0.535710
2.367000,-1.293044
2.368000,-1.252314
2.369000,-1.147942
2.370000,-1.481423
2.371000,-1.609979
2.372000,-2.115292
2.373000,-1.387234
2.374000,-0.825916
2.375000,-0.314238
2.376000,0.058701
2.377000,0.556378
2.378000,0.660750
2.379000,-0.025306
2.380000,-0.694814
2.381000,-1.063935
2.382000,-1.140305
2.383000,-1.243404
2.384000,-1.598523
2.385000,-1.752536
2.386000,-1.828906
2.387000,-1.784357
2.388000,-1.757627
2.389000,-1.551429
2.390000,-1.377051
2.391000,-1.477605
2.392000,-2.481867
2.393000,-2.798802
2.394000,-2.618060
2.395000,-2.382587
2.396000,-2.217119
2.397000,-2.000738
2.398000,-1.928186
2.399000,-2.004556
2.400000,-2.065652
2.401000,-2.415680
2.402000,-2.610423
2.403000,-2.363494
2.404000,-2.511143
2.405000,-2.941359
2.406000,-2.717341
2.407000,-2.136931
2.408000,-1.658346
2.409000,-1.349049
2.410000,-1.224311
2.411000,-1.483969
2.412000,-1.640527
2.413000,-1.805995
2.414000,-2.852261
2.415000,-3.657962
2.416000,-3.487403
2.417000,-3.279932
2.418000,-2.318945
2.419000,-2.205663
2.420000,-2.278215
2.421000,-2.003283
2.422000,-2.485686
2.423000,-2.872626
2.424000,-2.727524
2.425000,-2.030013
2.426000,-1.173398
2.427000,-0.316784
2.428000,0.107069
2.429000,0.785487
2.430000,1.415538
2.431000,1.216977
2.432000,1.148244
2.433000,1.526274
2.434000,1.775749
2.435000,0.561469
2.436000,-2.208209
2.437000,-3.449218
2.438000,-3.908710
2.439000,-3.972351
2.440000,-4.417842
2.441000,-4.631677
2.442000,-3.941803
2.443000,-2.485686
2.444000,-1.371960
2.445000,-0.372788
2.446000,0.324723
2.447000,0.818581
2.448000,0.809671
2.449000,1.141880
2.450000,1.458814
2.451000,1.121514
2.452000,0.878404
2.453000,0.449460
2.454000,-0.292600
2.455000,-0.755910
2.456000,-1.215402
2.457000,-1.471240
2.458000,-1.536155
2.459000,-1.667256
2.460000,-1.566703
2.461000,-1.450875
2.462000,-1.425419
2.463000,-1.847998
2.464000,-3.897254
2.465000,-4.316015
2.466000,-5.002071
2.467000,-5.161175
2.468000,-4.896426
2.469000,-5.112807
2.470000,-4.492939
2.471000,-3.388122
2.472000,-2.231120
2.473000,-0.992656
2.474000,-0.395699
2.475000,-0.094038
2.476000,-0.106767
2.477000,0.291629
2.478000,0.206349
2.479000,-0.124586
2.480000,-0.501344
2.481000,-0.853918
2.482000,-0.669358
2.483000,-0.325693
2.484000,-0.423701
2.485000,-1.550156
2.486000,-2.322764
2.487000,-3.067369
2.488000,-3.673236
2.489000,-3.153922
2.490000,-2.517507
2.491000,-2.054197
2.492000,-1.728352
2.493000,-1.747445
2.494000,-1.763991
2.495000,-1.827633
2.496000,-1.844180
2.497000,-2.173843
2.498000,-2.943905
2.499000,-3.986352
2.500000,-3.951986
2.501000,-2.922267
2.502000,-1.800903
2.503000,-0.888284
2.504000,-0.097857
2.505000,0.178347
2.506000,0.282719
2.507000,0.502919
2.508000,0.696389
2.509000,0.639112
2.510000,0.434186
2.511000,0.150345
2.512000,0.141435
2.513000,0.508010
2.514000,0.641657
2.515000,0.278901
2.516000,-1.338866
2.517000,-4.249828
2.518000,-5.400467
2.519000,-5.042801
2.520000,-4.158185
2.521000,-3.589230
2.522000,-2.915902
2.523000,-2.506051
2.524000,-2.350766
2.525000,-2.157296
2.526000,-1.379597
2.527000,-0.949380
2.528000,-0.522982
2.529000,-0.431338
2.530000,-0.095311
2.531000,-0.100403
2.532000,-0.040580
2.533000,-0.431338
2.534000,-1.595978
2.535000,-2.227301
2.536000,-3.337209
2.537000,-3.341028
2.538000,-2.798802
2.539000,-2.474230
2.540000,-1.967644
2.541000,-1.509425
2.542000,-1.224311
2.543000,-1.229403
2.544000,-1.181035
2.545000,-1.100847
2.546000,-0.969745
2.547000,-1.147942
2.548000,-1.424146
2.549000,-0.873010
2.550000,-0.781367
2.551000,-0.824643
2.552000,-0.655356
2.553000,-1.407599
2.554000,-2.044014
2.555000,-2.354584
2.556000,-2.562056
2.557000,-2.551873
2.558000,-2.834441
2.559000,-4.319834
2.560000,-4.622767
2.561000,-3.949440
2.562000,-3.120828
2.563000,-2.378768
2.564000,-2.204390
2.565000,-1.757627
2.566000,-1.103393
2.567000,-0.422429
2.568000,0.215259
2.569000,0.557651
2.570000,0.324723
2.571000,-0.038034
2.572000,-0.343513
2.573000,-0.431338
2.574000,-0.438975
2.575000,-0.330785
2.576000,-0.347332
2.577000,-0.571350
2.578000,-0.713907
2.579000,-1.622707
2.580000,-2.914630
2.581000,-3.114464
2.582000,-3.305388
2.583000,-3.067369
2.584000,-2.308763
2.585000,-1.284134
2.586000,-0.685904
2.587000,-0.531892
2.588000,-0.929015
2.589000,-1.083027
2.590000,-1.102120
2.591000,-1.266315
2.592000,-1.704168
2.593000,-1.818723
2.594000,-1.100847
2.595000,-1.088119
2.596000,-1.674893
2.597000,-2.201845
2.598000,-2.937541
2.599000,-2.931176
2.600000,-2.741525
2.601000,-2.280760
2.602000,-1.883637
2.603000,-1.870909
2.604000,-1.995646
2.605000,-2.374950
2.606000,-5.196814
2.607000,-7.444632
2.608000,-8.067045
2.609000,-8.046680
2.610000,-7.883758
2.611000,-6.259627
2.612000,-3.581593
2.613000,-0.990111
2.614000,0.868221
2.615000,2.167781
2.616000,3.261141
2.617000,3.987927
2.618000,3.776638
2.619000,3.948470
2.620000,4.164851
2.621000,4.549245
2.622000,4.337956
2.623000,3.720633
2.624000,2.720189
2.625000,1.206794
2.626000,0.520739
2.627000,-0.185682
2.628000,-0.876829
2.629000,-1.384688
2.630000,-1.841634
2.631000,-3.108100
2.632000,-3.640143
2.633000,-3.510314
2.634000,-3.335936
2.635000,-3.082643
2.636000,-2.917175
2.637000,-2.954087
2.638000,-2.807712
2.639000,-2.808985
2.640000,-3.152649
2.641000,-3.472129
2.642000,-3.409760
2.643000,-3.523042
2.644000,-3.889617
2.645000,-4.865878
2.646000,-5.065712
2.647000,-5.795044
2.648000,-6.157800
2.649000,-5.820500
2.650000,-4.258738
2.651000,-3.035548
2.652000,-1.989282
2.653000,-1.181035
2.654000,-0.885739
2.655000,-0.581532
2.656000,-0.455522
2.657000,-0.189501
2.658000,0.243262
2.659000,1.166063
2.660000,1.867393
2.661000,1.745201
2.662000,1.900486
2.663000,2.133414
2.664000,1.707016
2.665000,1.312439
2.666000,0.900042
2.667000,0.180893
2.668000,-0.128405
2.669000,0.059974
2.670000,-0.332058
2.671000,-0.221321
2.672000,-0.519164
2.673000,-1.161943
2.674000,-3.137375
2.675000,-4.391112
2.676000,-4.970250
2.677000,-5.369919
2.678000,-4.594765
2.679000,-4.435661
2.680000,-3.861615
2.681000,-3.273568
2.682000,-2.904447
2.683000,-3.097917
2.684000,-2.619333
2.685000,-2.212027
2.686000,-2.224756
2.687000,-1.634163
2.688000,-1.038478
2.689000,-0.580259
2.690000,-0.223867
2.691000,-0.057126
2.692000,-0.343513
2.693000,-0.446612
2.694000,-0.432611
2.695000,-0.608262
2.696000,-0.908650
2.697000,-1.356686
2.698000,-1.275225
2.699000,-1.099574
2.700000,-1.548883
2.701000,-1.870909
2.702000,-2.354584
2.703000,-3.057187
2.704000,-4.356746
2.705000,-5.975786
2.706000,-6.047064
2.707000,-6.011425
2.708000,-5.294822
2.709000,-4.398749
2.710000,-3.370303
2.711000,-2.339310
2.712000,-1.685076
2.713000,-1.522154
2.714000,-1.037205
2.715000,-0.624808
2.716000,0.147799
2.717000,0.247080
2.718000,0.364180
2.719000,1.344260
2.720000,1.908123
2.721000,2.135960
2.722000,1.919579
2.723000,1.793568
2.724000,1.432085
2.725000,0.822399
2.726000,0.413821
2.727000,0.124888
2.728000,-0.454249
2.729000,-0.703724
2.730000,-1.240858
2.731000,-0.785185
2.732000,-0.744455
2.733000,-0.895921
2.734000,-1.237040
2.735000,-1.813632
2.736000,-2.178934
2.737000,-3.324481
2.738000,-3.218836
2.739000,-2.808985
2.740000,-2.665155
2.741000,-2.882809
2.742000,-3.246838
2.743000,-3.901073
2.744000,-6.468371
2.745000,-7.415356
2.746000,-6.710209
2.747000,-5.026255
2.748000,-2.998636
2.749000,-1.299408
2.750000,-0.374061
2.751000,0.378182
2.752000,0.873312
2.753000,0.742211
2.754000,0.696389
2.755000,0.817308
2.756000,0.804580
2.757000,0.659477
2.758000,0.212714
2.759000,0.132525
2.760000,0.128707
2.761000,-0.293873
2.762000,-1.251041
2.763000,-1.989282
2.764000,-1.766537
2.765000,-1.025750
2.766000,-0.638810
2.767000,-0.701178
2.768000,-1.132668
2.769000,-2.084744
2.770000,-2.792438
2.771000,-2.630789
2.772000,-2.074562
2.773000,-1.654528
2.774000,-1.976554
2.775000,-2.360949
2.776000,-2.811530
2.777000,-3.226473
2.778000,-3.095371
2.779000,-2.591331
2.780000,-2.203118
2.781000,-1.982918
2.782000,-1.850544
2.783000,-1.415236
2.784000,-1.520881
2.785000,-2.306217
2.786000,-2.439864
2.787000,-2.464048
2.788000,-2.332946
2.789000,-2.469139
2.790000,-2.671519
2.791000,-2.759344
2.792000,-2.721159
2.793000,-2.360949
2.794000,-1.634163
2.795000,-0.887011
2.796000,-0.469523
2.797000,-0.066036
2.798000,0.142708
2.799000,-1.422873
2.800000,-2.853534
2.801000,-2.808985
2.802000,-2.103837
2.803000,-1.665983
2.804000,-2.422044
2.805000,-2.931176
2.806000,-2.574784
2.807000,-2.224756
2.808000,-2.060561
2.809000,-1.729625
2.810000,-1.748717
2.811000,-1.492879
2.812000,-1.037205
2.813000,-1.763991
2.814000,-1.912912
2.815000,-1.567976
2.816000,-1.067753
2.817000,-0.144952
2.818000,0.752394
2.819000,1.364625
2.820000,1.642102
2.821000,1.238615
2.822000,0.609837
2.823000,0.184711
2.824000,0.067611
2.825000,-0.666812
2.826000,-1.125031
2.827000,-1.196309
2.828000,-1.178490
2.829000,-0.832280
2.830000,-0.776275
2.831000,-0.904831
2.832000,-0.950653
2.833000,-1.169580
2.834000,-1.449602
2.835000,-1.809813
2.836000,-2.332946
2.837000,-2.574784
2.838000,-3.464492
2.839000,-4.118727
2.840000,-4.159457
2.841000,-4.257465
2.842000,-3.837431
2.843000,-4.084360
2.844000,-6.309267
2.845000,-9.033123
2.846000,-9.146405
2.847000,-7.486635
2.848000,-5.201905
2.849000,-2.486959
2.850000,-0.480979
2.851000,1.351896
2.852000,2.538174
2.853000,3.262414
2.854000,3.576803
2.855000,3.795730
2.856000,3.653173
2.857000,3.640445
2.858000,3.701541
2.859000,3.329874
2.860000,2.491079
2.861000,1.279345
2.862000,0.732028
2.863000,0.290356
2.864000,-0.479706
2.865000,-1.133940
2.866000,-1.617616
2.867000,-2.212027
2.868000,-2.593876
2.869000,-2.778437
2.870000,-2.822986
2.871000,-2.961724
2.872000,-3.237928
2.873000,-3.402124
2.874000,-3.501404
2.875000,-3.945622
2.876000,-3.963442
2.877000,-3.715240
2.878000,-3.571410
2.879000,-3.432671
2.880000,-3.180651
2.881000,-2.875172
2.882000,-2.607878
2.883000,-2.455138
2.884000,-2.301126
2.885000,-1.930732
2.886000,-1.612525
2.887000,-1.203946
2.888000,-1.042297
2.889000,-1.360504
2.890000,-1.571794
2.891000,-1.706714
2.892000,-1.881092
2.893000,-1.998192
2.894000,-1.935823
2.895000,-1.891274
2.896000,-1.879819
2.897000,-2.065652
2.898000,-2.470412
2.899000,-2.395315
2.900000,-2.264214
2.901000,-2.044014
2.902000,-1.855635
2.903000,-1.761446
2.904000,-1.649437
2.905000,-1.716897
2.906000,-1.687622
2.907000,-1.560339
2.908000,-1.673620
2.909000,-2.778437
2.910000,-3.548499
2.911000,-3.768699
2.912000,-4.895153
2.913000,-6.033063
2.914000,-6.035609
2.915000,-4.695319
2.916000,-3.162831
2.917000,-1.310864
2.918000,0.081612
2.919000,1.045144
2.920000,1.113877
2.921000,-1.049934
2.922000,-1.760173
2.923000,-2.483140
2.924000,-3.295206
2.925000,-2.667701
2.926000,-1.365596
2.927000,0.822399
2.928000,2.157598
2.929000,1.760475
2.930000,0.705299
2.931000,0.613655
2.932000,0.665841
2.933000,1.005687
2.934000,1.741382
2.935000,2.829652
2.936000,2.440166
2.937000,1.724836
2.938000,1.148244
2.939000,-0.064763
2.940000,-0.789004
2.941000,-1.020659
2.942000,-0.955744
2.943000,-1.013022
2.944000,-0.948107
2.945000,-0.664266
2.946000,-0.973564
2.947000,-1.920549
2.948000,-2.255304
2.949000,-2.649881
2.950000,-3.161559
2.951000,-3.435217
2.952000,-3.096644
2.953000,-2.646063
2.954000,-2.257849
2.955000,-1.993101
2.956000,-1.785629
2.957000,-1.701623
2.958000,-1.906548
2.959000,-2.316400
2.960000,-3.125919
2.961000,-3.026639
2.962000,-2.665155
2.963000,-2.195481
2.964000,-1.569248
2.965000,-1.034660
2.966000,-1.713078
2.967000,-2.073289
2.968000,-1.771628
2.969000,-1.273952
2.970000,-1.228130
2.971000,-1.158124
2.972000,-1.173398
2.973000,-0.935379
2.974000,-1.487787
2.975000,-1.797085
2.976000,-2.257849
2.977000,-2.736433
2.978000,-4.086906
2.979000,-4.825147
2.980000,-4.503121
2.981000,-3.991444
2.982000,-3.859069
2.983000,-3.361393
2.984000,-2.401679
2.985000,-1.940915
2.986000,-1.681257
2.987000,-1.430510
2.988000,-1.763991
2.989000,-2.422044
2.990000,-3.722877
2.991000,-3.005001
2.992000,-1.626526
2.993000,-0.381698
2.994000,0.389637
2.995000,0.693843
2.996000,1.190247
2.997000,1.307347
2.998000,1.229705
2.999000,1.134243
3.000000,1.023506
3.001000,-0.175499
3.002000,-3.607049
3.003000,-5.129354
3.004000,-4.714411
3.005000,-4.490393
3.006000,-3.909983
3.007000,-2.952815
3.008000,-1.861999
3.009000,-1.228130
3.010000,-0.931561
3.011000,-0.567531
3.012000,-0.128405
3.013000,0.071430
3.014000,0.072702
3.015000,1.075692
3.016000,2.292518
3.017000,3.065126
3.018000,2.724007
3.019000,1.695561
3.020000,0.875858
3.021000,-0.116949
3.022000,-1.239585
3.023000,-2.495869
3.024000,-3.572683
3.025000,-4.316015
3.026000,-4.366929
3.027000,-4.014355
3.028000,-3.464492
3.029000,-3.907437
3.030000,-3.859069
3.031000,-3.048277
3.032000,-2.499687
3.033000,-2.201845
3.034000,-2.143295
3.035000,-2.157296
3.036000,-2.988454
3.037000,-3.682146
3.038000,-3.857797
3.039000,-3.052095
3.040000,-3.025366
3.041000,-2.675338
3.042000,-1.762718
3.043000,-1.127576
3.044000,-0.514072
3.045000,-0.136042
3.046000,-0.226413
3.047000,-0.690996
3.048000,-0.839917
3.049000,-0.833553
3.050000,-0.791549
3.051000,-0.725362
3.052000,-0.704997
3.053000,-0.824643
3.054000,-1.118667
3.055000,-0.753364
3.056000,-0.694814
3.057000,-1.300681
3.058000,-1.464876
3.059000,-2.115292
3.060000,-1.996919
3.061000,-1.929459
3.062000,-1.361777
3.063000,-1.247222
3.064000,-1.144123
3.065000,-0.934106
3.066000,-0.957017
3.067000,-0.809369
3.068000,-0.632445
3.069000,-0.273507
3.070000,0.154163
3.071000,-0.071127
3.072000,-0.596806
3.073000,-0.806823
3.074000,-0.945562
3.075000,-1.607433
3.076000,-1.891274
3.077000,-1.752536
3.078000,-2.019830
3.079000,-2.294761
3.080000,-2.316400
3.081000,-2.969361
3.082000,-5.028800
3.083000,-6.628748
3.084000,-7.176064
3.085000,-6.672024
3.086000,-4.979160
3.087000,-3.143739
3.088000,-1.799631
3.089000,-0.740636
3.090000,-0.094038
3.091000,0.220351
3.092000,0.222896
3.093000,-0.038034
3.094000,-0.963381
3.095000,-1.533609
3.096000,-1.336320
3.097000,-0.612080
3.098000,-0.235323
3.099000,-0.082583
3.100000,-0.228958
3.101000,-0.165317
3.102000,-0.007486
3.103000,-0.335876
3.104000,-0.545893
3.105000,-0.831007
3.106000,-0.990111
3.107000,-0.913741
3.108000,-0.921378
3.109000,-1.268860
3.110000,-1.345230
3.111000,-1.343957
3.112000,-2.055469
3.113000,-2.644790
3.114000,-2.593876
3.115000,-3.943076
3.116000,-3.640143
3.117000,-2.970634
3.118000,-2.208209
3.119000,-1.485242
3.120000,-0.934106
3.121000,-0.505162
3.122000,-0.580259
3.123000,-0.766093
3.124000,-0.948107
3.125000,-0.678267
3.126000,-0.396972
3.127000,-0.766093
3.128000,-1.898911
3.129000,-3.092826
3.130000,-3.852705
3.131000,-5.158629
3.132000,-6.498919
3.133000,-7.384809
3.134000,-7.579552
3.135000,-6.938045
3.136000,-5.484473
3.137000,-3.265931
3.138000,-1.020659
3.139000,0.823672
3.140000,2.102866
3.141000,2.822015
3.142000,3.295508
3.143000,3.220411
3.144000,3.024395
3.145000,3.211501
3.146000,3.258596
3.147000,2.483442
3.148000,1.414265
3.149000,0.529648
3.150000,-0.451704
3.151000,-1.086846
3.152000,-1.009203
3.153000,-1.323592
3.154000,-1.373233
3.155000,-1.621434
3.156000,-1.749990
3.157000,-1.861999
3.158000,-2.186571
3.159000,-2.475503
3.160000,-2.628243
3.161000,-2.490777
3.162000,-2.472958
3.163000,-2.322764
3.164000,-2.461502
3.165000,-2.518780
3.166000,-2.357130
3.167000,-2.430954
3.168000,-2.651154
3.169000,-3.118282
3.170000,-3.352483
3.171000,-3.613413
3.172000,-4.263829
3.173000,-4.400022
3.174000,-5.190450
3.175000,-6.631293
3.176000,-7.408992
3.177000,-6.714027
3.178000,-4.907881
3.179000,-3.403396
3.180000,-2.013466
3.181000,-1.139032
3.182000,-0.114404
3.183000,0.840219
3.184000,1.457541
3.185000,1.092239
3.186000,1.160972
3.187000,1.052781
3.188000,0.558923
3.189000,-0.263325
3.190000,-0.422429
3.191000,-0.657902
3.192000,-0.819551
3.193000,-0.332058
3.194000,-0.147497
3.195000,-0.256961
3.196000,-0.015123
3.197000,0.000151
3.198000,-0.296418
3.199000,-0.634991
3.200000,-0.650265
3.201000,-0.660448
3.202000,-1.051207
3.203000,-1.304500
3.204000,-1.153033
3.205000,-0.594261
3.206000,-0.472069
3.207000,-0.319329
3.208000,-0.227686
3.209000,-0.418610
3.210000,-0.673176
3.211000,-1.062662
3.212000,-1.333775
3.213000,-1.803449
3.214000,-1.996919
3.215000,-1.953643
3.216000,-2.152204
3.217000,-2.226029
3.218000,-2.526416
3.219000,-2.918448
3.220000,-3.859069
3.221000,-4.037266
3.222000,-3.577774
3.223000,-3.265931
3.224000,-2.866262
3.225000,-2.889173
3.226000,-2.581148
3.227000,-2.349493
3.228000,-2.710977
3.229000,-3.010092
3.230000,-3.383031
3.231000,-3.482312
3.232000,-3.055914
3.233000,-2.021103
3.234000,-1.357959
3.235000,-0.554803
3.236000,0.163073
3.237000,0.285265
3.238000,0.039609
3.239000,-1.114848
3.240000,-2.190389
3.241000,-2.259122
3.242000,-1.709260
3.243000,-1.076663
3.244000,-0.789004
3.245000,-1.209037
3.246000,-1.412690
3.247000,-1.394871
3.248000,-1.590886
3.249000,-1.467422
3.250000,-1.576885
3.251000,-1.657074
3.252000,-1.608706
3.253000,-1.383415
3.254000,-0.734272
3.255000,-0.553530
3.256000,-1.487787
3.257000,-1.636708
3.258000,-1.453421
3.259000,-1.111030
3.260000,-0.771184
3.261000,-0.534438
3.262000,-0.613353
3.263000,-0.827188
3.264000,-0.846281
3.265000,-0.832280
3.266000,-0.997748
3.267000,-1.233221
3.268000,-1.397416
3.269000,-1.473786
3.270000,-1.710532
3.271000,-1.968917
3.272000,-2.068198
3.273000,-1.925641
3.274000,-1.886183
3.275000,-1.995646
3.276000,-2.424590
3.277000,-3.220109
3.278000,-3.141193
3.279000,-2.992272
3.280000,-2.825532
3.281000,-2.584967
3.282000,-2.201845
3.283000,-1.967644
3.284000,-1.864545
3.285000,-1.879819
3.286000,-1.911640
3.287000,-1.761446
3.288000,-1.772901
3.289000,-2.240030
3.290000,-3.584138
3.291000,-5.921054
3.292000,-7.420448
3.293000,-8.037770
3.294000,-7.426812
3.295000,-5.534114
3.296000,-3.633779
3.297000,-1.893820
3.298000,-0.232777
3.299000,1.052781
3.300000,1.886485
3.301000,2.372706
3.302000,2.442712
3.303000,2.163962
3.304000,2.379070
3.305000,3.152951
3.306000,2.841108
3.307000,2.179236
3.308000,1.108786
3.309000,1.029871
3.310000,0.345088
3.311000,-0.262052
3.312000,-0.342240
3.313000,-0.326966
3.314000,0.061247
3.315000,0.364180
3.316000,0.160528
3.317000,-0.024033
3.318000,-0.581532
3.319000,-0.750819
3.320000,-0.763547
3.321000,-1.565430
3.322000,-1.996919
3.323000,-2.681702
3.324000,-3.545953
3.325000,-3.808156
3.326000,-3.367757
3.327000,-3.099190
3.328000,-2.984635
3.329000,-3.342301
3.330000,-3.948168
3.331000,-4.688955
3.332000,-4.807328
3.333000,-4.419115
3.334000,-4.597311
3.335000,-4.258738
3.336000,-4.396204
3.337000,-4.074178
3.338000,-2.848442
3.339000,-1.651982
3.340000,-0.624808
3.341000,0.241989
3.342000,0.897496
3.343000,0.606018
3.344000,0.790578
3.345000,1.271708
3.346000,1.326440
3.347000,1.564459
3.348000,1.523729
3.349000,0.851674
3.350000,0.388364
3.351000,-0.030397
3.352000,-1.133940
3.353000,-1.747445
3.354000,-2.201845
3.355000,-2.402952
3.356000,-2.452592
3.357000,-2.563329
3.358000,-2.737706
3.359000,-3.636324
3.360000,-3.572683
3.361000,-3.287569
3.362000,-3.493767
3.363000,-4.500576
3.364000,-4.799691
3.365000,-4.041084
3.366000,-2.969361
3.367000,-1.688894
3.368000,-0.796641
3.369000,-0.220049
3.370000,0.287811
3.371000,0.296720
3.372000,0.248353
3.373000,-0.162771
3.374000,-0.664266
3.375000,-1.042297
3.376000,-1.095756
3.377000,-0.904831
3.378000,-1.159397
3.379000,-1.429237
3.380000,-2.103837
3.381000,-2.670246
3.382000,-3.879435
3.383000,-4.170913
3.384000,-3.801792
3.385000,-2.752980
3.386000,-2.111474
3.387000,-1.869636
3.388000,-2.017284
3.389000,-2.626970
3.390000,-3.128465
3.391000,-2.987181
3.392000,-3.019002
3.393000,-3.053368
3.394000,-2.110201
3.395000,-0.720271
3.396000,0.278901
3.397000,0.637839
3.398000,0.725664
3.399000,0.950955
3.400000,0.789306
3.401000,0.387091
3.402000,0.000151
3.403000,-0.298964
3.404000,-0.486070
3.405000,-0.921378
3.406000,-1.505607
3.407000,-2.774618
3.408000,-3.292660
3.409000,-3.459401
3.410000,-3.484857
3.411000,-3.156467
3.412000,-3.425034
3.413000,-3.589230
3.414000,-3.507768
3.415000,-3.399578
3.416000,-2.735161
3.417000,-1.739808
3.418000,-0.679540
3.419000,0.361635
3.420000,1.037507
3.421000,1.239887
3.422000,1.185156
3.423000,0.511829
3.424000,0.086703
3.425000,-0.640082
3.426000,-1.284134
3.427000,-1.571794
3.428000,-1.249768
3.429000,-0.939197
3.430000,-1.044842
3.431000,-1.128849
3.432000,-1.119939
3.433000,-1.877273
3.434000,-3.113191
3.435000,-3.327027
3.436000,-2.974453
3.437000,-2.490777
3.438000,-2.691884
3.439000,-2.903174
3.440000,-3.553590
3.441000,-4.107271
3.442000,-3.705057
3.443000,-3.132284
3.444000,-2.382587
3.445000,-2.569693
3.446000,-2.299853
3.447000,-1.676166
3.448000,-0.484797
3.449000,0.480008
3.450000,1.064237
3.451000,1.341714
3.452000,1.448632
3.453000,0.954774
3.454000,0.710390
3.455000,0.509283
3.456000,0.301812
3.457000,-0.228958
3.458000,-1.147942
3.459000,-1.534882
3.460000,-2.432227
3.461000,-3.206108
3.462000,-3.319390
3.463000,-3.551045
3.464000,-3.352483
3.465000,-3.255748
3.466000,-3.008819
3.467000,-2.593876
3.468000,-2.196754
3.469000,-1.622707
3.470000,-1.364323
3.471000,-1.431783
3.472000,-1.599796
3.473000,-1.368141
3.474000,-0.656629
3.475000,-0.796641
3.476000,-1.341412
3.477000,-2.217119
3.478000,-2.181480
3.479000,-1.900184
3.480000,-1.674893
3.481000,-1.761446
3.482000,-2.227301
3.483000,-3.076279
3.484000,-3.045731
3.485000,-2.582421
3.486000,-2.551873
3.487000,-1.718169
3.488000,-1.112302
3.489000,-0.417337
3.490000,0.132525
3.491000,0.030699
3.492000,-0.311692
3.493000,-0.557348
3.494000,-0.725362
3.495000,-0.818279
3.496000,-0.986292
3.497000,-1.513244
3.498000,-1.545065
3.499000,-1.807268
3.500000,-2.075835
3.501000,-2.378768
3.502000,-2.266759
3.503000,-1.949824
3.504000,-1.859454
3.505000,-2.373677
3.506000,-2.313854
3.507000,-2.326582
3.508000,-2.192935
3.509000,-2.059288
3.510000,-1.755082
3.511000,-1.625253
3.512000,-1.553974
3.513000,-3.251930
3.514000,-4.198915
3.515000,-4.196369
3.516000,-3.782700
3.517000,-2.951542
3.518000,-2.639698
3.519000,-2.184025
3.520000,-2.162387
3.521000,-1.651982
3.522000,-0.991384
3.523000,-0.305328
3.524000,0.215259
3.525000,0.524557
3.526000,0.789306
3.527000,0.947137
3.528000,0.794397
3.529000,0.754939
3.530000,0.761303
3.531000,0.295448
3.532000,-0.116949
3.533000,-0.474615
3.534000,-1.266315
3.535000,-1.417782
3.536000,-1.615070
3.537000,-3.041913
3.538000,-3.473402
3.539000,-3.892163
3.540000,-4.678772
3.541000,-4.592220
3.542000,-3.719058
3.543000,-2.590058
3.544000,-1.408872
3.545000,-0.408427
3.546000,-0.380425
3.547000,-0.512799
3.548000,-0.543347
3.549000,-0.343513
3.550000,-1.263769
3.551000,-1.541246
3.552000,-0.986292
3.553000,-0.347332
3.554000,-0.021487
3.555000,0.449460
3.556000,-0.063490
3.557000,-0.827188
3.558000,-1.030841
3.559000,-1.290499
3.560000,-1.229403
3.561000,-1.402508
3.562000,-1.881092
3.563000,-2.413135
3.564000,-2.422044
3.565000,-2.550600
3.566000,-2.358403
3.567000,-1.944733
3.568000,-2.044014
3.569000,-1.817450
3.570000,-1.455966
3.571000,-1.907821
3.572000,-3.603231
3.573000,-3.694874
3.574000,-3.123374
3.575000,-2.331673
3.576000,-2.215846
3.577000,-2.590058
3.578000,-2.747889
3.579000,-2.896810
3.580000,-2.756799
3.581000,-2.247667
3.582000,-1.635435
3.583000,-1.230676
3.584000,-1.341412
3.585000,-1.086846
3.586000,-0.419883
3.587000,-0.013850
3.588000,-0.092766
3.589000,0.007788
3.590000,0.196167
3.591000,0.114706
3.592000,-1.011749
3.593000,-2.170024
3.594000,-2.268032
3.595000,-1.972735
3.596000,-1.631617
3.597000,-1.597251
3.598000,-2.070743
3.599000,-2.014739
3.600000,-1.948552
3.601000,-1.826360
3.602000,-1.683803
3.603000,-1.760173
3.604000,-1.994374
3.605000,-2.427136
3.606000,-3.115737
3.607000,-3.542135
3.608000,-3.551045
3.609000,-3.498859
3.610000,-2.976998
3.611000,-2.116565
3.612000,-1.256132
3.613000,-1.023204
3.614000,-0.451704
3.615000,-0.032943
3.616000,-0.011304
3.617000,0.317086
3.618000,0.482554
3.619000,0.281446
3.620000,0.123616
3.621000,0.253444
3.622000,-0.025306
3.623000,-0.522982
3.624000,-1.589614
3.625000,-3.029184
3.626000,-4.046175
3.627000,-4.071632
3.628000,-3.948168
3.629000,-4.998252
3.630000,-4.492939
3.631000,-3.517951
3.632000,-2.698249
3.633000,-1.929459
3.634000,-1.114848
3.635000,-0.716452
3.636000,-0.822097
3.637000,-0.161498
3.638000,0.466007
3.639000,0.810944
3.640000,0.673478
3.641000,0.603472
3.642000,0.407457
3.643000,0.556378
3.644000,0.311994
3.645000,-0.297691
3.646000,-1.247222
3.647000,-1.524699
3.648000,-1.567976
3.649000,-1.924368
3.650000,-2.290943
3.651000,-2.452592
3.652000,-2.368586
3.653000,-2.182752
3.654000,-1.993101
3.655000,-2.200572
3.656000,-2.093654
3.657000,-2.046560
3.658000,-2.985908
3.659000,-4.820056
3.660000,-5.802681
3.661000,-6.307994
3.662000,-6.025426
3.663000,-4.708047
3.664000,-2.853534
3.665000,-1.209037
3.666000,-0.053308
3.667000,0.495282
3.668000,0.676024
3.669000,0.676024
3.670000,0.827491
3.671000,1.295892
3.672000,1.610281
3.673000,1.565732
3.674000,1.794841
3.675000,2.041770
3.676000,1.415538
3.677000,0.359089
3.678000,-0.552257
3.679000,-0.890830
3.680000,-1.345230
3.681000,-1.657074
3.682000,-2.054197
3.683000,-2.658791
3.684000,-3.225200
3.685000,-3.211199
3.686000,-3.087735
3.687000,-3.231564
3.688000,-3.791609
3.689000,-3.848887
3.690000,-3.391941
3.691000,-2.994818
3.692000,-3.405942
3.693000,-3.436490
3.694000,-3.086462
3.695000,-2.728796
3.696000,-2.021103
3.697000,-1.723261
3.698000,-1.819996
3.699000,-1.715624
3.700000,-2.330401
3.701000,-2.569693
3.702000,-2.348220
3.703000,-3.117010
3.704000,-2.980817
3.705000,-2.663882
3.706000,-1.892547
3.707000,-1.169580
3.708000,-0.809369
3.709000,-1.019386
3.710000,-0.944289
3.711000,-0.997748
3.712000,-0.717725
3.713000,-0.522982
3.714000,-0.370242
3.715000,-0.730453
3.716000,-0.633718
3.717000,-0.408427
3.718000,-0.086401
3.719000,-0.034215
3.720000,-0.095311
3.721000,-0.249324
3.722000,-0.230231
3.723000,-2.046560
3.724000,-3.066096
3.725000,-3.152649
3.726000,-3.321935
3.727000,-3.678328
3.728000,-3.170468
3.729000,-2.364767
3.730000,-1.481423
3.731000,-2.079653
3.732000,-1.571794
3.733000,-0.704997
3.734000,-0.180591
3.735000,-0.035488
3.736000,-0.082583
3.737000,0.081612
3.738000,-0.256961
3.739000,0.098159
3.740000,0.707845
3.741000,0.519466
3.742000,-0.109312
3.743000,-0.748273
3.744000,-1.402508
3.745000,-2.517507
3.746000,-2.545509
3.747000,-2.740252
3.748000,-2.719887
3.749000,-1.822541
3.750000,-1.224311
3.751000,-1.094483
3.752000,-2.116565
3.753000,-2.486959
3.754000,-2.220937
3.755000,-1.946006
3.756000,-1.534882
3.757000,-1.438147
3.758000,-1.511971
3.759000,-1.657074
3.760000,-1.573067
3.761000,-1.593432
3.762000,-1.578158
3.763000,-1.492879
3.764000,-1.793266
3.765000,-1.972735
3.766000,-2.296034
3.767000,-2.339310
3.768000,-2.209482
3.769000,-2.346947
3.770000,-2.297307
3.771000,-2.285852
3.772000,-2.374950
3.773000,-2.399133
3.774000,-3.052095
3.775000,-3.075006
3.776000,-3.271022
3.777000,-3.932894
3.778000,-4.513304
3.779000,-4.183641
3.780000,-3.381758
3.781000,-2.670246
3.782000,-1.719442
3.783000,-1.030841
3.784000,-0.732999
3.785000,-0.701178
3.786000,-0.684631
3.787000,-0.216230
3.788000,-0.437702
3.789000,-1.186127
3.790000,-1.280316
3.791000,-0.775002
3.792000,-0.390608
3.793000,-0.855191
3.794000,-1.379597
3.795000,-2.170024
3.796000,-3.185742
3.797000,-2.914630
3.798000,-2.400406
3.799000,-1.589614
3.800000,-0.634991
3.801000,0.168165
3.802000,1.215704
3.803000,1.845755
3.804000,1.901759
3.805000,1.471543
3.806000,0.916589
3.807000,1.009505
3.808000,0.570379
3.809000,0.119797
3.810000,-0.133496
3.811000,-0.358787
3.812000,-1.253586
3.813000,-2.506051
3.814000,-3.055914
3.815000,-2.922267
3.816000,-2.726251
3.817000,-2.815349
3.818000,-2.770800
3.819000,-2.769527
3.820000,-2.843351
3.821000,-3.241747
3.822000,-3.652871
3.823000,-3.635051
3.824000,-4.067814
3.825000,-3.593048
3.826000,-2.968088
3.827000,-2.181480
3.828000,-1.359231
3.829000,-1.104665
3.830000,-1.137759
3.831000,-0.780094
3.832000,-1.991828
3.833000,-2.275669
3.834000,-2.065652
3.835000,-2.093654
3.836000,-1.929459
3.837000,-1.701623
3.838000,-1.145396
3.839000,-0.965927
3.840000,-1.426691
3.841000,-2.126748
3.842000,-2.251485
3.843000,-3.100463
3.844000,-3.461947
3.845000,-2.666428
3.846000,-1.842907
3.847000,-0.898467
3.848000,-0.155134
3.849000,-0.064763
3.850000,-0.236595
3.851000,-0.203502
3.852000,-0.358787
3.853000,-0.310419
3.854000,0.245807
3.855000,0.492736
3.856000,0.600927
3.857000,0.178347
3.858000,-0.301510
3.859000,-0.522982
3.860000,-0.796641
3.861000,-0.986292
3.862000,-1.097028
3.863000,-2.255304
3.864000,-3.656690
3.865000,-4.716957
3.866000,-4.841694
3.867000,-5.363555
3.868000,-5.774679
3.869000,-5.140809
3.870000,-3.948168
3.871000,-3.940531
3.872000,-3.654144
3.873000,-2.909538
3.874000,-2.176388
3.875000,-1.513244
3.876000,-1.186127
3.877000,-0.960836
3.878000,-0.472069
3.879000,0.252171
3.880000,0.846583
3.881000,0.795670
3.882000,0.812217
3.883000,0.898769
3.884000,0.752394
3.885000,0.883495
3.886000,0.567833
3.887000,0.124888
3.888000,0.024335
3.889000,-0.180591
3.890000,-0.409700
3.891000,-1.281589
3.892000,-1.747445
3.893000,-2.248940
3.894000,-2.339310
3.895000,-2.451320
3.896000,-2.484413
3.897000,-2.250212
3.898000,-1.776720
3.899000,-1.522154
3.900000,-1.874728
3.901000,-1.707987
3.902000,-1.341412
3.903000,-1.305773
3.904000,-1.517062
3.905000,-1.449602
3.906000,-1.454694
3.907000,-1.214129
3.908000,-1.271406
3.909000,-1.742353
3.910000,-2.462775
3.911000,-2.662609
3.912000,-3.062278
3.913000,-3.551045
3.914000,-4.912973
3.915000,-4.662225
3.916000,-3.455582
3.917000,-2.560783
3.918000,-2.219664
3.919000,-2.275669
3.920000,-1.977827
3.921000,-1.399962
3.922000,-1.084300
3.923000,-1.431783
3.924000,-1.514517
3.925000,-1.598523
3.926000,-1.664711
3.927000,-1.851817
3.928000,-1.643072
3.929000,-1.117394
3.930000,-0.542075
3.931000,-0.190773
3.932000,-0.596806
3.933000,-0.843735
3.934000,-0.679540
3.935000,-0.550984
3.936000,-0.060945
3.937000,0.277628
3.938000,0.459643
3.939000,0.421458
3.940000,0.318359
3.941000,0.155436
3.942000,-0.612080
3.943000,-1.471240
3.944000,-1.918004
3.945000,-2.105110
3.946000,-3.120828
3.947000,-3.431399
3.948000,-3.253202
3.949000,-2.717341
3.950000,-2.595149
3.951000,-3.101736
3.952000,-3.609595
3.953000,-3.369030
3.954000,-2.797529
3.955000,-2.032558
3.956000,-1.301954
3.957000,-0.642628
3.958000,-0.385516
3.959000,-0.231504
3.960000,-0.069855
3.961000,0.220351
3.962000,0.212714
3.963000,-0.171681
3.964000,-0.809369
3.965000,-1.392325
3.966000,-1.462331
3.967000,-1.524699
3.968000,-1.565430
3.969000,-1.915458
3.970000,-2.494596
3.971000,-2.848442
3.972000,-3.068642
3.973000,-2.919721
3.974000,-2.749162
3.975000,-2.410589
3.976000,-1.980372
3.977000,-1.412690
3.978000,-1.351594
3.979000,-1.145396
3.980000,-1.212856
3.981000,-1.902730
3.982000,-2.502233
3.983000,-2.694430
3.984000,-2.102564
3.985000,-1.509425
3.986000,-1.510698
3.987000,-2.063106
3.988000,-2.408043
3.989000,-2.816622
3.990000,-2.744070
3.991000,-2.540418
3.992000,-2.913357
3.993000,-3.041913
3.994000,-2.376223
3.995000,-2.016012
3.996000,-2.017284
3.997000,-2.345675
3.998000,-2.870081
3.999000,-3.190834
4.000000,-2.615515
4.001000,-3.002455
4.002000,-2.768254
4.003000,-1.771628
4.004000,-0.725362
4.005000,0.532194
4.006000,1.425721
4.007000,0.672205
4.008000,-2.274396
4.009000,-2.705886
4.010000,-2.012193
4.011000,-1.265042
4.012000,-0.876829
4.013000,-0.152589
4.014000,0.901315
4.015000,1.299710
4.016000,1.155881
4.017000,1.232250
4.018000,1.018415
4.019000,0.888586
4.020000,0.830036
4.021000,0.439277
4.022000,-0.575168
4.023000,-1.126303
4.024000,-1.583249
4.025000,-1.937096
4.026000,-1.335048
4.027000,-1.074117
4.028000,-1.183581
4.029000,-1.329956
4.030000,-1.637981
4.031000,-1.725806
4.032000,-1.700350
4.033000,-2.279487
4.034000,-3.048277
4.035000,-3.887072
4.036000,-3.393214
4.037000,-2.901901
4.038000,-2.626970
4.039000,-2.171297
4.040000,-2.009648
4.041000,-2.156023
4.042000,-2.478049
4.043000,-2.522598
4.044000,-2.388951
4.045000,-1.984191
4.046000,-1.700350
4.047000,-1.434328
4.048000,-1.053752
4.049000,-0.650265
4.050000,-0.474615
4.051000,-0.665539
4.052000,-0.964654
4.053000,-1.468695
4.054000,-1.672348
4.055000,-2.156023
4.056000,-2.405498
4.057000,-2.201845
4.058000,-2.191662
4.059000,-2.199299
4.060000,-2.232393
4.061000,-3.381758
4.062000,-3.495040
4.063000,-3.281205
4.064000,-2.917175
4.065000,-3.223927
4.066000,-3.015183
4.067000,-2.352039
4.068000,-1.855635
4.069000,-1.375778
4.070000,-1.069026
4.071000,-1.209037
4.072000,-2.432227
4.073000,-3.236656
4.074000,-3.596867
4.075000,-3.454310
4.076000,-3.076279
4.077000,-2.777164
4.078000,-2.588785
4.079000,-1.660892
4.080000,-0.789004
4.081000,-0.007486
4.082000,0.718027
4.083000,0.804580
4.084000,1.317530
4.085000,1.591189
4.086000,1.074420
4.087000,-0.085129
4.088000,-0.962108
4.089000,-2.136931
4.090000,-2.691884
4.091000,-2.979544
4.092000,-2.570966
4.093000,-1.309591
4.094000,-0.548439
4.095000,-0.020214
4.096000,0.203804
4.097000,0.043427
4.098000,-0.035488
4.099000,-0.119495
4.100000,-0.455522
4.101000,-0.220049
4.102000,-0.883193
4.103000,-1.520881
4.104000,-2.112747
4.105000,-1.747445
4.106000,-1.387234
4.107000,-1.401235
4.108000,-1.435601
4.109000,-1.631617
4.110000,-1.971463
4.111000,-2.652427
4.112000,-3.136102
4.113000,-3.528134
4.114000,-4.372020
4.115000,-4.475119
4.116000,-3.997808
4.117000,-3.007546
4.118000,-2.857352
4.119000,-2.418226
4.120000,-1.845452
4.121000,-1.816177
4.122000,-1.413963
4.123000,-0.943016
4.124000,-0.908650
4.125000,-0.321875
4.126000,0.338724
4.127000,0.598381
4.128000,0.875858
4.129000,0.866948
4.130000,0.417639
4.131000,-0.338422
4.132000,-1.373233
4.133000,-1.741080
4.134000,-1.729625
4.135000,-1.504334
4.136000,-3.305388
4.137000,-5.196814
4.138000,-4.806055
4.139000,-3.749606
4.140000,-2.700794
4.141000,-1.637981
4.142000,-0.773730
4.143000,-0.416064
4.144000,-0.399518
4.145000,-0.321875
4.146000,-0.235323
4.147000,0.010334
4.148000,-0.194592
4.149000,-0.799186
4.150000,-0.447885
4.151000,-0.136042
4.152000,-0.446612
4.153000,-1.571794
4.154000,-2.209482
4.155000,-2.542963
4.156000,-3.047004
4.157000,-3.673236
4.158000,-3.777608
4.159000,-3.803065
4.160000,-3.397032
4.161000,-2.876445
4.162000,-2.405498
4.163000,-3.371576
4.164000,-3.988898
4.165000,-4.234554
4.166000,-3.357574
4.167000,-2.220937
4.168000,-1.965098
4.169000,-1.734716
4.170000,-1.153033
4.171000,-1.019386
4.172000,-0.974837
4.173000,-0.860282
4.174000,-1.024477
4.175000,-0.703724
4.176000,-0.013850
4.177000,0.494009
4.178000,0.729483
4.179000,0.413821
4.180000,-0.738090
4.181000,-0.968473
4.182000,-0.842462
4.183000,-0.931561
4.184000,-0.850099
4.185000,-1.127576
4.186000,-1.669802
4.187000,-1.497970
4.188000,-1.226857
4.189000,-1.159397
4.190000,-0.962108
4.191000,-1.155579
4.192000,-1.399962
4.193000,-1.189945
4.194000,-0.925196
4.195000,-0.978655
4.196000,-2.199299
4.197000,-3.675782
4.198000,-4.095816
4.199000,-4.105998
4.200000,-3.850160
4.201000,-3.369030
4.202000,-3.501404
4.203000,-2.959179
4.204000,-2.313854
4.205000,-1.559066
4.206000,-0.669358
4.207000,0.147799
4.208000,0.550014
4.209000,1.003141
4.210000,1.330258
4.211000,1.275527
4.212000,0.761303
4.213000,0.598381
4.214000,0.245807
4.215000,-0.204775
4.216000,-0.626081
4.217000,-0.971018
4.218000,-0.920105
4.219000,-1.833997
4.220000,-2.479322
4.221000,-2.805166
4.222000,-3.006273
4.223000,-3.016456
4.224000,-2.852261
4.225000,-2.349493
4.226000,-2.920994
4.227000,-4.309651
4.228000,-4.834057
4.229000,-4.626586
4.230000,-3.937985
4.231000,-3.058459
4.232000,-2.246394
4.233000,-2.037650
4.234000,-1.733443
4.235000,-1.257405
4.236000,-1.069026
4.237000,-1.177217
4.238000,-0.833553
4.239000,-0.567531
4.240000,-0.106767
4.241000,0.743484
4.242000,1.061691
4.243000,0.987867
4.244000,0.390910
4.245000,-0.385516
4.246000,-1.357959
4.247000,-2.196754
4.248000,-3.197198
4.249000,-3.876889
4.250000,-4.020719
4.251000,-3.782700
4.252000,-3.573956
4.253000,-5.178994
4.254000,-7.631738
4.255000,-7.153153
4.256000,-5.677944
4.257000,-3.997808
4.258000,-2.343129
4.259000,-0.808096
4.260000,0.557651
4.261000,1.741382
4.262000,2.284881
4.263000,2.507626
4.264000,2.464350
4.265000,2.328157
4.266000,2.431256
4.267000,2.265788
4.268000,2.046862
4.269000,1.313712
4.270000,-0.860282
4.271000,-2.166206
4.272000,-3.418670
4.273000,-4.799691
4.274000,-5.828137
4.275000,-5.835774
4.276000,-4.552762
4.277000,-3.201016
4.278000,-2.988454
4.279000,-1.702895
4.280000,-0.486070
4.281000,0.443096
4.282000,0.936954
4.283000,1.042599
4.284000,1.705743
4.285000,1.857210
4.286000,1.271708
4.287000,1.057873
4.288000,1.090966
4.289000,0.361635
4.290000,-0.775002
4.291000,-1.911640
4.292000,-2.310035
4.293000,-2.268032
4.294000,-2.530235
4.295000,-2.657518
4.296000,-2.513688
4.297000,-2.595149
4.298000,-2.705886
4.299000,-2.564601
4.300000,-2.373677
4.301000,-2.161114
4.302000,-2.065652
4.303000,-2.436046
4.304000,-2.588785
4.305000,-2.596422
4.306000,-2.728796
4.307000,-2.829350
4.308000,-2.899356
4.309000,-3.253202
4.310000,-3.627414
4.311000,-4.573127
4.312000,-5.148446
4.313000,-5.862504
4.314000,-5.479382
4.315000,-4.266375
4.316000,-2.861171
4.317000,-1.377051
4.318000,-0.067309
4.319000,0.458370
4.320000,0.784214
4.321000,1.036235
4.322000,1.003141
4.323000,1.052781
4.324000,0.669660
4.325000,0.430368
4.326000,-0.363878
4.327000,-0.918832
4.328000,-1.033387
4.329000,-0.958290
4.330000,-0.736818
4.331000,-0.725362
4.332000,-0.520436
4.333000,-0.343513
4.334000,-0.740636
4.335000,-1.047388
4.336000,-1.440693
4.337000,-1.673620
4.338000,-1.786902
4.339000,-2.321491
4.340000,-2.126748
4.341000,-1.891274
4.342000,-1.637981
4.343000,-1.765264
4.344000,-2.336765
4.345000,-3.795428
4.346000,-4.629132
4.347000,-4.035993
4.348000,-4.258738
4.349000,-3.743242
4.350000,-3.036821
4.351000,-2.677883
4.352000,-2.092381
4.353000,-1.884910
4.354000,-1.380869
4.355000,-0.801732
4.356000,-0.231504
4.357000,-0.026578
4.358000,-0.297691
4.359000,-1.333775
4.360000,-1.901457
4.361000,-1.253586
4.362000,-0.664266
4.363000,-0.208593
4.364000,-0.022760
4.365000,-0.181864
4.366000,-0.987565
4.367000,-1.467422
4.368000,-1.846725
4.369000,-1.850544
4.370000,-1.355413
4.371000,-1.158124
4.372000,-0.856464
4.373000,-0.501344
4.374000,-0.276053
4.375000,-0.337149
4.376000,-0.030397
4.377000,0.079067
4.378000,-0.296418
4.379000,-0.455522
4.380000,-0.354969
4.381000,-0.231504
4.382000,-0.734272
4.383000,-1.333775
4.384000,-2.093654
4.385000,-2.541690
4.386000,-2.471685
4.387000,-2.513688
4.388000,-2.542963
4.389000,-2.456411
4.390000,-2.329128
4.391000,-2.336765
4.392000,-2.666428
4.393000,-3.305388
4.394000,-3.708876
4.395000,-3.673236
4.396000,-3.239201
4.397000,-2.563329
4.398000,-2.016012
4.399000,-1.763991
4.400000,-1.665983
4.401000,-1.584522
4.402000,-1.417782
4.403000,-1.127576
4.404000,-1.048661
4.405000,-1.369414
4.406000,-1.574340
4.407000,-1.509425
4.408000,-1.574340
4.409000,-1.601069
4.410000,-1.620162
4.411000,-1.713078
4.412000,-1.664711
4.413000,-2.004556
4.414000,-2.835714
4.415000,-3.145012
4.416000,-3.209926
4.417000,-3.089007
4.418000,-2.840805
4.419000,-2.870081
4.420000,-2.839533
4.421000,-4.826420
4.422000,-6.320723
4.423000,-5.315187
4.424000,-3.775063
4.425000,-2.623152
4.426000,-2.638426
4.427000,-1.713078
4.428000,0.305630
4.429000,1.468997
4.430000,1.994676
4.431000,2.119413
4.432000,2.045589
4.433000,2.269607
4.434000,2.368888
4.435000,2.093956
4.436000,1.037507
4.437000,-0.734272
4.438000,-2.633334
4.439000,-3.503950
4.440000,-3.647780
4.441000,-2.565874
4.442000,-1.674893
4.443000,-1.048661
4.444000,-0.311692
4.445000,0.147799
4.446000,-0.234050
4.447000,-0.232777
4.448000,-0.155134
4.449000,-0.398245
4.450000,-0.591715
4.451000,-0.775002
4.452000,-0.115676
4.453000,0.332360
4.454000,0.254717
4.455000,-0.409700
4.456000,-0.895921
4.457000,-1.611252
4.458000,-2.042741
4.459000,-2.401679
4.460000,-2.718614
4.461000,-2.904447
4.462000,-2.998636
4.463000,-2.802621
4.464000,-2.282033
4.465000,-1.744899
4.466000,-1.528518
4.467000,-2.074562
4.468000,-2.934995
4.469000,-3.911256
4.470000,-3.992717
4.471000,-3.579047
4.472000,-2.920994
4.473000,-3.159013
4.474000,-2.873899
4.475000,-2.317672
4.476000,-1.870909
4.477000,-1.529791
4.478000,-1.561611
4.479000,-2.065652
4.480000,-1.788175
4.481000,-1.350322
4.482000,-1.090664
4.483000,-0.838644
4.484000,-0.839917
4.485000,-1.037205
4.486000,-1.825087
4.487000,-2.358403
4.488000,-2.397861
4.489000,-2.038923
4.490000,-1.657074
4.491000,-1.365596
4.492000,-0.904831
4.493000,-0.572622
4.494000,-0.657902
4.495000,-1.030841
4.496000,-1.247222
4.497000,-1.061389
4.498000,-0.786458
4.499000,-1.144123
4.500000,-1.508152
4.501000,-2.128021
4.502000,-2.410589
4.503000,-2.394042
4.504000,-2.177661
4.505000,-1.980372
4.506000,-1.984191
4.507000,-2.241303
4.508000,-3.113191
4.509000,-3.888345
4.510000,-4.015628
4.511000,-3.381758
4.512000,-2.752980
4.513000,-2.023649
4.514000,-1.379597
4.515000,-1.375778
4.516000,-1.468695
4.517000,-2.574784
4.518000,-1.904003
4.519000,-1.463603
4.520000,-1.360504
4.521000,-1.443238
4.522000,-0.535710
4.523000,0.136344
4.524000,0.518193
4.525000,1.141880
4.526000,1.458814
4.527000,1.511000
4.528000,1.250070
4.529000,0.920407
4.530000,0.738392
4.531000,0.611109
4.532000,0.575470
4.533000,0.402365
4.534000,-0.416064
4.535000,-0.459341
4.536000,-0.806823
4.537000,-1.833997
4.538000,-3.747060
4.539000,-5.204451
4.540000,-6.220169
4.541000,-5.660124
4.542000,-4.839149
4.543000,-3.775063
4.544000,-2.703340
4.545000,-2.004556
4.546000,-1.710532
4.547000,-1.450875
4.548000,-1.366868
4.549000,-0.883193
4.550000,-0.441521
4.551000,-0.540802
4.552000,-0.251869
4.553000,0.152891
4.554000,0.318359
4.555000,-0.990111
4.556000,-1.825087
4.557000,-2.178934
4.558000,-2.759344
4.559000,-3.310480
4.560000,-3.733059
4.561000,-4.201461
4.562000,-4.414023
4.563000,-3.873071
4.564000,-3.846341
4.565000,-3.604503
4.566000,-2.999909
4.567000,-2.094927
4.568000,-1.000293
4.569000,-0.456795
4.570000,-0.208593
4.571000,0.128707
4.572000,0.396001
4.573000,0.715481
4.574000,0.958592
4.575000,0.663295
4.576000,0.252171
4.577000,-0.491161
4.578000,-1.304500
4.579000,-1.654528
4.580000,-1.691440
4.581000,-1.584522
4.582000,-1.929459
4.583000,-1.845452
4.584000,-1.266315
4.585000,-0.761001
4.586000,-0.447885
4.587000,-0.432611
4.588000,-0.803005
4.589000,-1.289226
4.590000,-1.527245
4.591000,-1.556520
4.592000,-1.438147
4.593000,-2.863716
4.594000,-4.027083
4.595000,-4.678772
4.596000,-4.774234
4.597000,-3.982534
4.598000,-3.179378
4.599000,-2.520052
4.600000,-1.911640
4.601000,-1.690167
4.602000,-1.542519
4.603000,-1.539973
4.604000,-1.453421
4.605000,-1.524699
4.606000,-1.401235
4.607000,-1.011749
4.608000,-0.484797
4.609000,-0.545893
4.610000,-0.144952
4.611000,-0.096584
4.612000,-0.237868
4.613000,-0.292600
4.614000,-0.413519
4.615000,-0.884466
4.616000,-1.290499
4.617000,-1.377051
4.618000,-1.851817
4.619000,-1.962553
4.620000,-2.248940
4.621000,-2.654972
4.622000,-2.274396
4.623000,-2.296034
4.624000,-3.321935
4.625000,-3.884526
4.626000,-3.794155
4.627000,-3.645234
4.628000,-3.020275
4.629000,-2.634607
4.630000,-2.167478
4.631000,-1.351594
4.632000,-0.827188
4.633000,-0.538256
4.634000,-0.221321
4.635000,-0.206047
4.636000,0.164346
4.637000,0.678569
4.638000,1.215704
4.639000,1.272981
4.640000,1.215704
4.641000,0.422731
4.642000,-0.684631
4.643000,-1.709260
4.644000,-2.196754
4.645000,-2.021103
4.646000,-2.157296
4.647000,-2.240030
4.648000,-2.226029
4.649000,-2.315127
4.650000,-2.196754
4.651000,-1.999465
4.652000,-1.837815
4.653000,-2.036377
4.654000,-2.064379
4.655000,-1.873455
4.656000,-2.115292
4.657000,-4.206552
4.658000,-5.291003
4.659000,-4.918064
4.660000,-5.600301
4.661000,-5.327915
4.662000,-4.420388
4.663000,-2.796256
4.664000,-1.547610
4.665000,-0.584078
4.666000,0.056156
4.667000,0.384546
4.668000,0.740938
4.669000,1.055327
4.670000,1.208067
4.671000,1.320076
4.672000,1.620464
4.673000,1.043872
4.674000,0.191076
4.675000,-0.470796
4.676000,-1.361777
4.677000,-2.817895
4.678000,-3.011365
4.679000,-2.910811
4.680000,-2.432227
4.681000,-1.779265
4.682000,-1.380869
4.683000,-1.081754
4.684000,-0.940470
4.685000,-0.915014
4.686000,-0.915014
4.687000,-1.079209
4.688000,-0.781367
4.689000,-0.417337
4.690000,-0.388062
4.691000,-0.390608
4.692000,-1.149214
4.693000,-2.368586
4.694000,-3.052095
4.695000,-3.218836
4.696000,-3.229019
4.697000,-2.791165
4.698000,-2.288397
4.699000,-2.441137
4.700000,-2.462775
4.701000,-2.276942
4.702000,-1.965098
4.703000,-2.060561
4.704000,-1.960007
4.705000,-1.683803
4.706000,-1.287953
4.707000,-1.051207
4.708000,-0.622263
4.709000,-0.633718
4.710000,-1.251041
4.711000,-1.883637
4.712000,-2.215846
4.713000,-1.915458
4.714000,-1.870909
4.715000,-2.532781
4.716000,-4.620222
4.717000,-5.158629
4.718000,-5.003344
4.719000,-4.411478
4.720000,-3.483585
4.721000,-2.509870
4.722000,-1.629071
4.723000,-0.903558
4.724000,-0.847554
4.725000,-1.007930
4.726000,-1.066480
4.727000,-1.061389
4.728000,-0.738090
4.729000,-0.020214
4.730000,1.141880
4.731000,1.925943
4.732000,1.904305
4.733000,0.544922
4.734000,-0.320602
4.735000,-0.735545
4.736000,-1.168307
4.737000,-2.696976
4.738000,-4.238373
4.739000,-3.433944
4.740000,-2.559510
4.741000,-2.410589
4.742000,-3.893436
4.743000,-6.115797
4.744000,-6.278719
4.745000,-5.499747
4.746000,-4.344018
4.747000,-2.434773
4.748000,-1.056298
4.749000,-0.150043
4.750000,0.991686
4.751000,2.390526
4.752000,3.337511
4.753000,3.460976
4.754000,3.072763
4.755000,2.648910
4.756000,1.799933
4.757000,0.408729
4.758000,-0.972291
4.759000,-1.630344
4.760000,-1.784357
4.761000,-1.685076
4.762000,-2.247667
4.763000,-2.385132
4.764000,-2.268032
4.765000,-2.353312
4.766000,-2.038923
4.767000,-1.974008
4.768000,-1.832724
4.769000,-1.426691
4.770000,-0.796641
4.771000,-0.454249
4.772000,-0.594261
4.773000,-0.447885
4.774000,-0.750819
4.775000,-1.137759
4.776000,-1.407599
4.777000,-1.623980
4.778000,-1.836543
4.779000,-1.567976
4.780000,-2.204390
4.781000,-2.709704
4.782000,-2.990999
4.783000,-2.688066
4.784000,-2.769527
4.785000,-3.110645
4.786000,-3.753425
4.787000,-4.230736
4.788000,-4.388567
4.789000,-4.111090
4.790000,-3.468311
4.791000,-2.570966
4.792000,-1.721988
4.793000,-1.328683
4.794000,-1.011749
4.795000,-0.822097
4.796000,-1.016840
4.797000,-1.447057
4.798000,-1.665983
4.799000,-1.683803
4.800000,-1.524699
4.801000,-1.385961
4.802000,-1.328683
4.803000,-1.203946
4.804000,-1.084300
4.805000,-0.540802
4.806000,-0.194592
4.807000,-0.664266
4.808000,-1.247222
4.809000,-1.499243
4.810000,-1.366868
4.811000,-1.153033
4.812000,-1.119939
4.813000,-0.940470
4.814000,-0.869192
4.815000,-1.080482
4.816000,-1.188672
4.817000,-1.732171
4.818000,-2.769527
4.819000,-2.831896
4.820000,-2.792438
4.821000,-2.934995
4.822000,-4.029629
4.823000,-3.610868
4.824000,-3.054641
4.825000,-2.385132
4.826000,-1.783084
4.827000,-1.525972
4.828000,-1.384688
4.829000,-1.539973
4.830000,-1.561611
4.831000,-1.893820
4.832000,-1.982918
4.833000,-2.461502
4.834000,-2.864989
4.835000,-2.065652
4.836000,-1.369414
4.837000,-0.340967
4.838000,0.170710
4.839000,0.351452
4.840000,-0.534438
4.841000,-1.776720
4.842000,-2.670246
4.843000,-2.536599
4.844000,-2.022376
4.845000,-1.281589
4.846000,0.002697
4.847000,0.690025
4.848000,0.753666
4.849000,0.912770
4.850000,0.202531
4.851000,-1.228130
4.852000,-2.565874
4.853000,-2.793711
4.854000,-2.369858
4.855000,-1.667256
4.856000,-0.978655
4.857000,-0.487343
4.858000,-0.301510
4.859000,-0.584078
4.860000,-0.901013
4.861000,-1.097028
4.862000,-1.244677
4.863000,-0.684631
4.864000,-0.262052
4.865000,-0.544620
4.866000,-1.173398
4.867000,-1.756354
4.868000,-2.238757
4.869000,-2.854807
4.870000,-3.080098
4.871000,-5.340644
4.872000,-5.973240
4.873000,-5.080986
4.874000,-4.081815
4.875000,-3.061005
4.876000,-1.948552
4.877000,-1.364323
4.878000,-1.832724
4.879000,-2.269305
4.880000,-2.535326
4.881000,-2.159841
4.882000,-1.687622
4.883000,-1.706714
4.884000,-1.692713
4.885000,-0.729181
4.886000,-0.024033
4.887000,0.278901
4.888000,0.271264
4.889000,0.314540
4.890000,-0.687177
4.891000,-0.992656
4.892000,-0.917559
4.893000,-0.318056
4.894000,-0.133496
4.895000,-0.329512
4.896000,-0.496253
4.897000,-0.465705
4.898000,-0.482252
4.899000,-0.438975
4.900000,-0.398245
4.901000,-0.516618
4.902000,-0.951926
4.903000,-1.380869
4.904000,-1.714351
4.905000,-2.143295
4.906000,-2.003283
4.907000,-2.038923
4.908000,-2.419499
4.909000,-3.162831
4.910000,-3.740696
4.911000,-4.212916
4.912000,-4.341472
4.913000,-3.757243
4.914000,-3.207381
4.915000,-2.502233
4.916000,-2.189117
4.917000,-1.744899
4.918000,-1.309591
4.919000,-1.100847
4.920000,-0.767365
4.921000,-0.526801
4.922000,-0.256961
4.923000,0.115979
4.924000,0.174529
4.925000,-0.010032
4.926000,-0.321875
4.927000,-0.740636
4.928000,-1.392325
4.929000,-1.739808
4.930000,-2.120384
4.931000,-2.919721
4.932000,-3.291387
4.933000,-3.422489
4.934000,-3.118282
4.935000,-3.249384
4.936000,-3.960896
4.937000,-3.692329
4.938000,-3.215018
4.939000,-2.363494
4.940000,-1.562884
4.941000,-1.242131
4.942000,-0.715179
4.943000,-0.273507
4.944000,-0.368970
4.945000,0.194894
4.946000,-0.713907
4.947000,-1.729625
4.948000,-2.289670
4.949000,-1.972735
4.950000,-1.338866
4.951000,-0.871737
4.952000,-0.587896
4.953000,-1.002839
4.954000,-2.064379
4.955000,-2.278215
4.956000,-2.624424
4.957000,-2.802621
4.958000,-2.517507
4.959000,-2.074562
4.960000,-1.644345
4.961000,-1.136486
4.962000,-0.828461
4.963000,-0.741909
4.964000,-0.725362
4.965000,-3.202289
4.966000,-3.940531
4.967000,-3.187015
4.968000,-1.909094
4.969000,-0.832280
4.970000,-0.156407
4.971000,0.460915
4.972000,0.992958
4.973000,1.080784
4.974000,1.248797
4.975000,0.944591
4.976000,0.173256
4.977000,-0.307874
4.978000,-1.061389
4.979000,-1.884910
4.980000,-2.023649
4.981000,-1.636708
4.982000,-1.515789
4.983000,-1.476332
4.984000,-1.649437
4.985000,-1.714351
4.986000,-1.602342
4.987000,-1.849271
4.988000,-2.153477
4.989000,-2.563329
4.990000,-3.148830
4.991000,-3.623596
4.992000,-4.074178
4.993000,-3.953259
4.994000,-3.386850
4.995000,-2.929904
4.996000,-2.390224
4.997000,-1.883637
4.998000,-1.345230
4.999000,-0.731726
5.000000,-0.368970
5.001000,-0.528073
5.002000,-0.459341
5.003000,-0.553530
5.004000,-0.380425
5.005000,-0.166590
5.006000,-0.568804
5.007000,-1.062662
5.008000,-1.033387
5.009000,-1.102120
5.010000,-1.604888
5.011000,-2.152204
5.012000,-2.428409
5.013000,-3.155194
5.014000,-3.609595
5.015000,-3.851432
5.016000,-3.811975
5.017000,-3.381758
5.018000,-3.206108
5.019000,-3.211199
5.020000,-3.212472
5.021000,-2.712250
5.022000,-2.628243
5.023000,-2.428409
5.024000,-1.800903
5.025000,-1.876000
5.026000,-4.062722
5.027000,-4.127637
5.028000,-2.826804
5.029000,-1.649437
5.030000,-0.130950
5.031000,0.780396
5.032000,1.378626
5.033000,1.824116
5.034000,2.139778
5.035000,2.213602
5.036000,2.153779
5.037000,1.889031
5.038000,0.182166
5.039000,-1.789448
5.040000,-2.789892
5.041000,-2.624424
5.042000,-2.161114
5.043000,-2.628243
5.044000,-2.310035
5.045000,-1.791994
5.046000,-1.273952
5.047000,-1.137759
5.048000,-1.314682
5.049000,-1.356686
5.050000,-1.215402
5.051000,-0.955744
5.052000,-0.480979
5.053000,-0.577714
5.054000,-0.878102
5.055000,-0.778821
5.056000,-0.819551
5.057000,-1.097028
5.058000,-1.035933
5.059000,-1.459785
5.060000,-2.069471
5.061000,-2.266759
5.062000,-2.364767
5.063000,-2.517507
5.064000,-2.254031
5.065000,-2.167478
5.066000,-1.877273
5.067000,-1.545065
5.068000,-1.500516
5.069000,-1.144123
5.070000,-1.004112
5.071000,-0.898467
5.072000,-1.095756
5.073000,-1.223039
5.074000,-1.175944
5.075000,-1.240858
5.076000,-1.379597
5.077000,-1.601069
5.078000,-1.946006
5.079000,-2.681702
5.080000,-3.688510
5.081000,-3.986352
5.082000,-3.769971
5.083000,-3.411033
5.084000,-3.090280
5.085000,-3.122101
5.086000,-3.235383
5.087000,-2.843351
5.088000,-2.259122
5.089000,-2.028740
5.090000,-1.991828
5.091000,-1.617616
5.092000,-1.150487
5.093000,-0.852645
5.094000,-1.112302
5.095000,-1.113575
5.096000,-1.049934
5.097000,-1.410145
5.098000,-2.265486
5.099000,-4.257465
5.100000,-5.100079
5.101000,-4.995707
5.102000,-3.925257
5.103000,-2.526416
5.104000,-1.416509
5.105000,-0.654084
5.106000,0.087976
5.107000,-0.268416
5.108000,-0.497525
5.109000,-0.203502
5.110000,-0.188228
5.111000,-2.192935
5.112000,-5.630849
5.113000,-6.239262
5.114000,-5.021163
5.115000,-2.349493
5.116000,-0.608262
5.117000,0.684934
5.118000,1.503363
5.119000,2.204693
5.120000,2.451622
5.121000,2.524173
5.122000,2.433802
5.123000,2.488534
5.124000,2.301428
5.125000,1.563186
5.126000,0.802034
5.127000,0.468552
5.128000,-0.949380
5.129000,-2.080926
5.130000,-2.304944
5.131000,-2.730069
5.132000,-3.108100
5.133000,-3.413579
5.134000,-3.437763
5.135000,-2.843351
5.136000,-2.070743
5.137000,-1.366868
5.138000,-0.586624
5.139000,-0.302782
5.140000,-0.367697
5.141000,-0.479706
5.142000,-0.428793
5.143000,-0.631173
5.144000,-0.861555
5.145000,-1.196309
5.146000,-1.473786
5.147000,-1.643072
5.148000,-1.849271
5.149000,-2.149659
5.150000,-2.240030
5.151000,-2.349493
5.152000,-2.205663
5.153000,-2.257849
5.154000,-2.527689
5.155000,-2.604059
5.156000,-2.390224
5.157000,-2.176388
5.158000,-2.145840
5.159000,-2.213300
5.160000,-2.287124
5.161000,-2.247667
5.162000,-2.280760
5.163000,-2.448774
5.164000,-2.894264
5.165000,-3.365211
5.166000,-3.449218
5.167000,-3.155194
5.168000,-3.031730
5.169000,-3.425034
5.170000,-3.665599
5.171000,-3.893436
5.172000,-3.612140
5.173000,-2.761890
5.174000,-2.135658
5.175000,-1.662165
5.176000,-0.969745
5.177000,-0.739363
5.178000,-0.996475
5.179000,-1.303227
5.180000,-1.284134
5.181000,-0.959563
5.182000,-0.501344
5.183000,-0.347332
5.184000,-0.166590
5.185000,-0.174227
5.186000,-0.368970
5.187000,-0.884466
5.188000,-1.887456
5.189000,-3.365211
5.190000,-4.100907
5.191000,-3.500131
5.192000,-2.320218
5.193000,-1.234494
5.194000,-0.405882
5.195000,0.191076
5.196000,-0.002395
5.197000,-1.639254
5.198000,-2.858625
5.199000,-2.956633
5.200000,-2.578603
5.201000,-2.122929
5.202000,-1.379597
5.203000,-0.620990
5.204000,-0.445339
5.205000,-0.558621
5.206000,-1.363050
5.207000,-3.008819
5.208000,-2.875172
5.209000,-2.461502
5.210000,-1.570521
5.211000,-0.306601
5.212000,0.547468
5.213000,1.446086
5.214000,1.658649
5.215000,1.372262
5.216000,1.143152
5.217000,0.716754
5.218000,-0.478433
5.219000,-1.686349
5.220000,-2.203118
5.221000,-2.156023
5.222000,-2.847170
5.223000,-2.517507
5.224000,-2.157296
5.225000,-1.707987
5.226000,-1.370687
5.227000,-1.122485
5.228000,-0.981201
5.229000,-0.987565
5.230000,-1.425419
5.231000,-1.665983
5.232000,-1.275225
5.233000,-0.825916
5.234000,-0.169135
5.235000,0.180893
5.236000,-0.002395
5.237000,-0.446612
5.238000,-0.949380
5.239000,-1.346503
5.240000,-1.772901
5.241000,-2.100018
5.242000,-2.288397
5.243000,-2.425863
5.244000,-2.604059
5.245000,-2.745343
5.246000,-2.850988
5.247000,-2.946450
5.248000,-2.899356
5.249000,-2.820440
5.250000,-2.803893
5.251000,-2.618060
5.252000,-2.452592
5.253000,-2.289670
5.254000,-2.442410
5.255000,-3.540862
5.256000,-3.520497
5.257000,-3.472129
5.258000,-3.380485
5.259000,-3.296479
5.260000,-3.189561
5.261000,-3.091553
5.262000,-2.611696
5.263000,-2.601513
5.264000,-2.512415
5.265000,-2.607878
5.266000,-2.380041
5.267000,-2.539145
5.268000,-2.223483
5.269000,-2.166206
5.270000,-1.737262
5.271000,-0.992656
5.272000,-1.061389
5.273000,-1.677439
5.274000,-1.080482
5.275000,0.024335
5.276000,0.255990
5.277000,0.785487
5.278000,1.438449
5.279000,1.419356
5.280000,1.797387
5.281000,1.465178
5.282000,0.590744
5.283000,0.411275
5.284000,0.193621
5.285000,-0.367697
5.286000,-0.441521
5.287000,-0.312965
5.288000,-0.763547
5.289000,-1.655801
5.290000,-2.773345
5.291000,-3.159013
5.292000,-3.791609
5.293000,-4.302014
5.294000,-4.424206
5.295000,-4.015628
5.296000,-3.327027
5.297000,-3.427580
5.298000,-3.954532
5.299000,-3.936712
5.300000,-3.249384
5.301000,-2.654972
5.302000,-2.105110
5.303000,-1.631617
5.304000,-1.047388
5.305000,-0.842462
5.306000,-0.884466
5.307000,-0.022760
5.308000,0.781669
5.309000,0.653113
5.310000,-0.190773
5.311000,-0.538256
5.312000,-0.493707
5.313000,-0.235323
5.314000,0.103250
5.315000,0.171983
5.316000,0.150345
5.317000,0.308176
5.318000,0.356543
5.319000,0.052337
5.320000,-0.399518
5.321000,-0.792822
5.322000,-1.333775
5.323000,-1.919277
5.324000,-2.287124
5.325000,-2.483140
5.326000,-2.526416
5.327000,-2.858625
5.328000,-3.293933
5.329000,-3.503950
5.330000,-4.374566
5.331000,-5.511203
5.332000,-5.476836
5.333000,-5.567207
5.334000,-5.655033
5.335000,-4.537488
5.336000,-3.218836
5.337000,-2.752980
5.338000,-1.828906
5.339000,-1.051207
5.340000,-0.248051
5.341000,0.375636
5.342000,0.702753
5.343000,0.771486
5.344000,1.356988
5.345000,1.895395
5.346000,1.917033
5.347000,1.573369
5.348000,1.239887
5.349000,0.695116
5.350000,0.059974
5.351000,-0.352423
5.352000,-0.598079
5.353000,-1.169580
5.354000,-1.883637
5.355000,-2.504778
5.356000,-2.862444
5.357000,-2.889173
5.358000,-3.025366
5.359000,-3.220109
5.360000,-3.285023
5.361000,-3.584138
5.362000,-3.559954
5.363000,-3.734332
5.364000,-3.820885
5.365000,-3.273568
5.366000,-2.847170
5.367000,-2.600241
5.368000,-2.623152
5.369000,-2.833169
5.370000,-2.420772
5.371000,-2.919721
5.372000,-3.426307
5.373000,-3.596867
5.374000,-3.651598
5.375000,-4.501849
5.376000,-5.260455
5.377000,-4.727140
5.378000,-3.405942
5.379000,-1.412690
5.380000,0.149072
5.381000,1.504636
5.382000,2.646365
5.383000,2.865291
5.384000,2.540720
5.385000,2.339613
5.386000,2.174145
5.387000,1.769385
5.388000,1.555549
5.389000,1.200430
5.390000,1.126606
5.391000,1.097330
5.392000,-0.771184
5.393000,-1.924368
5.394000,-1.739808
5.395000,-1.515789
5.396000,-1.564157
5.397000,-1.452148
5.398000,-1.464876
5.399000,-1.485242
5.400000,-1.683803
5.401000,-1.870909
5.402000,-1.920549
5.403000,-1.704168
5.404000,-1.679985
5.405000,-1.777992
5.406000,-1.604888
5.407000,-2.611696
5.408000,-4.028356
5.409000,-4.373293
5.410000,-4.037266
5.411000,-3.241747
5.412000,-3.221382
5.413000,-2.493323
5.414000,-1.934551
5.415000,-1.328683
5.416000,-0.934106
5.417000,-0.633718
5.418000,-0.436430
5.419000,-0.293873
5.420000,-0.515345
5.421000,-1.123758
5.422000,-1.309591
5.423000,-1.373233
5.424000,-1.738535
5.425000,-2.187844
5.426000,-2.142022
5.427000,-1.918004
5.428000,-1.920549
5.429000,-1.920549
5.430000,-1.928186
5.431000,-1.879819
5.432000,-1.958734
5.433000,-2.573511
5.434000,-4.481483
5.435000,-5.711037
5.436000,-6.330905
5.437000,-7.360625
5.438000,-6.190894
5.439000,-4.210371
5.440000,-2.120384
5.441000,-0.608262
5.442000,0.367999
5.443000,1.040053
5.444000,1.255161
5.445000,1.278072
5.446000,1.522456
5.447000,0.989140
5.448000,0.281446
5.449000,0.308176
5.450000,0.179620
5.451000,-0.475887
5.452000,-1.784357
5.453000,-2.410589
5.454000,-3.313025
5.455000,-4.253647
5.456000,-3.865434
5.457000,-2.987181
5.458000,-2.121657
5.459000,-1.944733
5.460000,-0.743182
5.461000,0.331087
5.462000,1.471543
5.463000,1.858483
5.464000,1.737564
5.465000,1.092239
5.466000,0.373090
5.467000,-0.554803
5.468000,-3.486130
5.469000,-4.750050
5.470000,-4.770416
5.471000,-4.172186
5.472000,-2.899356
5.473000,-1.956189
5.474000,-1.067753
5.475000,-0.334603
5.476000,-0.153861
5.477000,0.146526
5.478000,0.194894
5.479000,0.585653
5.480000,0.901315
5.481000,0.868221
5.482000,0.564015
5.483000,-0.022760
5.484000,-1.534882
5.485000,-2.107655
5.486000,-2.466593
5.487000,-2.621879
5.488000,-2.731342
5.489000,-2.527689
5.490000,-2.036377
5.491000,-1.653255
5.492000,-1.416509
5.493000,-1.331229
5.494000,-1.571794
5.495000,-2.264214
5.496000,-2.752980
5.497000,-2.997364
5.498000,-3.622323
5.499000,-4.007991
5.500000,-4.570581
5.501000,-4.540034
5.502000,-3.953259
5.503000,-3.357574
5.504000,-2.537872
5.505000,-1.949824
5.506000,-1.458512
5.507000,-0.869192
5.508000,-0.492434
5.509000,0.086703
5.510000,0.637839
5.511000,0.735847
5.512000,0.761303
5.513000,0.714209
5.514000,0.564015
5.515000,0.217805
5.516000,-0.194592
5.517000,-1.030841
5.518000,-1.504334
5.519000,-2.584967
5.520000,-3.599412
5.521000,-3.353756
5.522000,-2.712250
5.523000,-2.306217
5.524000,-2.112747
5.525000,-3.426307
5.526000,-3.542135
5.527000,-3.106827
5.528000,-2.521325
5.529000,-2.268032
5.530000,-2.548055
5.531000,-2.203118
5.532000,-2.325309
5.533000,-2.563329
5.534000,-3.866706
5.535000,-3.047004
5.536000,-2.199299
5.537000,-2.005829
5.538000,-2.896810
5.539000,-3.119555
5.540000,-2.308763
5.541000,-1.421600
5.542000,-0.304055
5.543000,-0.068582
5.544000,0.300539
5.545000,0.341269
5.546000,-0.021487
5.547000,-0.550984
5.548000,-1.061389
5.549000,-1.035933
5.550000,-1.095756
5.551000,-1.107211
5.552000,-1.109757
5.553000,-1.203946
5.554000,-1.156851
5.555000,-0.894648
5.556000,-0.524255
5.557000,-0.437702
5.558000,-0.250596
5.559000,-0.590442
5.560000,-0.634991
5.561000,-1.076663
5.562000,-1.210310
5.563000,-1.109757
5.564000,-1.010476
5.565000,-1.070299
5.566000,-1.225584
5.567000,-1.178490
5.568000,-1.623980
5.569000,-1.998192
5.570000,-2.331673
5.571000,-2.152204
5.572000,-2.163660
5.573000,-2.147113
5.574000,-2.308763
5.575000,-2.148386
5.576000,-1.817450
5.577000,-1.228130
5.578000,-0.814460
5.579000,-2.089836
5.580000,-3.688510
5.581000,-3.447945
5.582000,-2.742798
5.583000,-1.835270
5.584000,-1.156851
5.585000,-1.095756
5.586000,-1.202673
5.587000,-1.707987
5.588000,-1.258678
5.589000,-1.136486
5.590000,-1.613797
5.591000,-1.940915
5.592000,-2.007102
5.593000,-2.368586
5.594000,-2.210755
5.595000,-1.685076
5.596000,-1.612525
5.597000,-1.807268
5.598000,-1.737262
5.599000,-1.538700
5.600000,-1.420327
5.601000,-0.941743
5.602000,-0.664266
5.603000,-0.592988
5.604000,-0.494980
5.605000,-0.666812
5.606000,-0.269689
5.607000,-0.305328
5.608000,-0.488616
5.609000,-1.072845
5.610000,-1.741080
5.611000,-2.418226
5.612000,-4.060177
5.613000,-4.750050
5.614000,-4.627859
5.615000,-5.336825
5.616000,-5.399194
5.617000,-4.548943
5.618000,-3.408488
5.619000,-2.173843
5.620000,-1.326138
5.621000,-0.619717
5.622000,-0.248051
5.623000,0.233079
5.624000,0.840219
5.625000,1.298438
5.626000,1.864847
5.627000,2.012495
5.628000,1.783386
5.629000,1.183883
5.630000,0.306903
5.631000,-0.259506
5.632000,-1.277770
5.633000,-1.906548
5.634000,-2.248940
5.635000,-2.302398
5.636000,-2.182752
5.637000,-2.274396
5.638000,-2.016012
5.639000,-1.719442
5.640000,-1.887456
5.641000,-2.264214
5.642000,-2.807712
5.643000,-2.770800
5.644000,-2.271850
5.645000,-2.439864
5.646000,-2.672792
5.647000,-2.404225
5.648000,-2.492050
5.649000,-2.906993
5.650000,-4.219280
5.651000,-4.240918
5.652000,-3.501404
5.653000,-2.740252
5.654000,-3.086462
5.655000,-2.115292
5.656000,-0.822097
5.657000,0.171983
5.658000,0.809671
5.659000,1.064237
5.660000,0.574197
5.661000,0.149072
5.662000,0.035790
5.663000,-0.302782
5.664000,-0.586624
5.665000,-0.689723
5.666000,-0.829734
5.667000,-1.067753
5.668000,-1.066480
5.669000,-1.263769
5.670000,-2.091109
5.671000,-2.784801
5.672000,-3.025366
5.673000,-2.749162
5.674000,-2.430954
5.675000,-2.241303
5.676000,-2.035104
5.677000,-1.912912
5.678000,-1.501788
5.679000,-1.487787
5.680000,-1.584522
5.681000,-2.676610
5.682000,-5.162447
5.683000,-4.809873
5.684000,-3.577774
5.685000,-2.724978
5.686000,-1.775447
5.687000,-1.539973
5.688000,-1.575612
5.689000,-1.351594
5.690000,-0.913741
5.691000,-0.190773
5.692000,-0.123313
5.693000,-0.030397
5.694000,0.113433
5.695000,0.313267
5.696000,0.593290
5.697000,0.546195
5.698000,0.020516
5.699000,-0.218776
5.700000,-0.503890
5.701000,-1.034660
5.702000,-1.212856
5.703000,-1.541246
5.704000,-1.873455
5.705000,-2.047832
5.706000,-2.069471
5.707000,-2.143295
5.708000,-1.958734
5.709000,-1.840361
5.710000,-1.794539
5.711000,-1.968917
5.712000,-2.830623
5.713000,-2.723705
5.714000,-2.414407
5.715000,-2.966816
5.716000,-3.645234
5.717000,-3.594321
5.718000,-3.008819
5.719000,-2.296034
5.720000,-2.560783
5.721000,-2.802621
5.722000,-2.590058
5.723000,-2.107655
5.724000,-2.318945
5.725000,-1.850544
5.726000,-1.114848
5.727000,-0.613353
5.728000,-0.165317
5.729000,-0.059672
5.730000,-0.203502
5.731000,0.168165
5.732000,0.135071
5.733000,-0.862828
5.734000,-1.315955
5.735000,-1.874728
5.736000,-1.741080
5.737000,-1.259951
5.738000,-0.472069
5.739000,-0.419883
5.740000,-0.606989
5.741000,-0.572622
5.742000,-0.729181
5.743000,-1.069026
5.744000,-1.452148
5.745000,-1.518335
5.746000,-1.256132
5.747000,-0.735545
5.748000,-0.772457
5.749000,-0.808096
5.750000,-1.109757
5.751000,-1.369414
5.752000,-1.542519
5.753000,-2.392769
5.754000,-3.017729
5.755000,-3.729241
5.756000,-5.299913
5.757000,-5.943965
5.758000,-5.446288
5.759000,-4.309651
5.760000,-3.086462
5.761000,-2.145840
5.762000,-1.581977
5.763000,-1.044842
5.764000,-0.766093
5.765000,-0.160226
5.766000,0.618746
5.767000,1.034962
5.768000,0.807125
5.769000,-0.673176
5.770000,-1.559066
5.771000,-1.828906
5.772000,-1.921822
5.773000,-2.107655
5.774000,-5.051711
5.775000,-6.968593
5.776000,-5.991060
5.777000,-4.182368
5.778000,-2.242575
5.779000,-0.596806
5.780000,0.276355
5.781000,1.062964
5.782000,1.094785
5.783000,1.251343
5.784000,1.701925
5.785000,1.715926
5.786000,1.113877
5.787000,0.127434
5.788000,-0.080037
5.789000,-0.385516
5.790000,-1.444511
5.791000,-1.981645
5.792000,-2.139476
5.793000,-2.296034
5.794000,-2.514961
5.795000,-2.128021
5.796000,-1.701623
5.797000,-1.616343
5.798000,-1.960007
5.799000,-1.865818
5.800000,-1.609979
5.801000,-1.377051
5.802000,-1.285407
5.803000,-1.105938
5.804000,-1.141577
5.805000,-1.139032
5.806000,-0.880647
5.807000,-1.239585
5.808000,-1.345230
5.809000,-1.564157
5.810000,-1.951097
5.811000,-2.404225
5.812000,-2.816622
5.813000,-2.723705
5.814000,-2.700794
5.815000,-2.556964
5.816000,-2.125475
5.817000,-1.705441
5.818000,-1.659619
5.819000,-1.797085
5.820000,-2.092381
5.821000,-2.334219
5.822000,-2.334219
5.823000,-2.525144
5.824000,-3.150103
5.825000,-3.179378
5.826000,-3.575228
5.827000,-3.470856
5.828000,-2.695703
5.829000,-2.638426
5.830000,-2.564601
5.831000,-2.139476
5.832000,-2.088563
5.833000,-1.798358
5.834000,-2.096200
5.835000,-2.853534
5.836000,-2.077107
5.837000,-0.965927
5.838000,-0.077492
5.839000,-0.440248
5.840000,-0.194592
5.841000,0.062520
5.842000,0.029426
5.843000,-0.063490
5.844000,0.239443
5.845000,0.724391
5.846000,0.630202
5.847000,0.623838
5.848000,0.919134
5.849000,1.031143
5.850000,0.546195
5.851000,-0.026578
5.852000,-0.519164
5.853000,-1.724534
5.854000,-1.888729
5.855000,-1.933278
5.856000,-1.844180
5.857000,-1.887456
5.858000,-2.271850
5.859000,-2.573511
5.860000,-2.759344
5.861000,-3.339755
5.862000,-3.622323
5.863000,-3.437763
5.864000,-3.024093
5.865000,-2.723705
5.866000,-2.178934
5.867000,-1.629071
5.868000,-1.545065
5.869000,-1.886183
5.870000,-1.772901
5.871000,-1.469968
5.872000,-1.102120
5.873000,-1.060116
5.874000,-1.434328
5.875000,-1.318501
5.876000,-1.944733
5.877000,-4.215462
5.878000,-5.259182
5.879000,-5.233726
5.880000,-4.624040
5.881000,-3.357574
5.882000,-2.107655
5.883000,-1.417782
5.884000,-0.819551
5.885000,-0.036761
5.886000,0.662023
5.887000,0.772759
5.888000,1.122787
5.889000,1.349351
5.890000,1.266617
5.891000,0.487645
5.892000,-0.497525
5.893000,-0.818279
5.894000,-1.709260
5.895000,-1.835270
5.896000,-1.637981
5.897000,-2.242575
5.898000,-3.013910
5.899000,-3.167923
5.900000,-2.903174
5.901000,-2.581148
5.902000,-2.103837
5.903000,-1.486514
5.904000,-2.080926
5.905000,-2.317672
5.906000,-2.285852
5.907000,-2.402952
5.908000,-2.637153
5.909000,-2.825532
5.910000,-2.744070
5.911000,-2.373677
5.912000,-1.673620
5.913000,-1.158124
5.914000,-0.684631
5.915000,-0.666812
5.916000,-0.699905
5.917000,-0.604443
5.918000,-0.736818
5.919000,-0.568804
5.920000,-0.528073
5.921000,-0.921378
5.922000,-1.242131
5.923000,-1.285407
5.924000,-0.969745
5.925000,-1.080482
5.926000,-1.015567
5.927000,-0.954471
5.928000,-1.049934
5.929000,-1.252314
5.930000,-1.659619
5.931000,-2.010920
5.932000,-2.177661
5.933000,-2.084744
5.934000,-1.831451
5.935000,-1.789448
5.936000,-1.466149
5.937000,-1.471240
5.938000,-1.612525
5.939000,-1.709260
5.940000,-1.697804
5.941000,-1.382142
5.942000,-1.001566
5.943000,-1.097028
5.944000,-1.648164
5.945000,-2.014739
5.946000,-2.329128
5.947000,-3.822157
5.948000,-4.789508
5.949000,-4.086906
5.950000,-2.854807
5.951000,-1.688894
5.952000,-1.459785
5.953000,-1.033387
5.954000,-0.589169
5.955000,-0.228958
5.956000,-0.702451
5.957000,-1.183581
5.958000,-2.035104
5.959000,-1.856908
5.960000,-1.454694
5.961000,-1.695259
5.962000,-2.397861
5.963000,-1.918004
5.964000,-1.601069
5.965000,-1.496697
5.966000,-1.510698
5.967000,-1.116121
5.968000,-0.904831
5.969000,-1.118667
5.970000,-1.047388
5.971000,-1.020659
5.972000,-0.668085
5.973000,-0.072400
5.974000,-0.162771
5.975000,0.072702
5.976000,0.262354
5.977000,0.093068
5.978000,-0.929015
5.979000,-1.508152
5.980000,-1.611252
5.981000,-1.761446
5.982000,-1.608706
5.983000,-1.962553
5.984000,-2.847170
5.985000,-3.234110
5.986000,-2.759344
5.987000,-2.591331
5.988000,-2.456411
5.989000,-2.423317
5.990000,-2.222210
5.991000,-1.868363
5.992000,-1.519608
5.993000,-1.783084
5.994000,-2.492050
5.995000,-3.063551
5.996000,-2.438591
5.997000,-2.073289
5.998000,-1.705441
5.999000,-1.323592
6.000000,-1.318501
6.001000,-1.168307
6.002000,-1.256132
6.003000,-1.046115
6.004000,-0.758456
6.005000,-1.058844
6.006000,-1.534882
6.007000,-1.749990
6.008000,-2.405498
6.009000,-2.807712
6.010000,-2.774618
6.011000,-2.299853
6.012000,-1.844180
6.013000,-1.776720
6.014000,-3.103008
6.015000,-3.810702
6.016000,-2.856079
6.017000,-2.187844
6.018000,-1.533609
6.019000,-0.671903
6.020000,-0.155134
6.021000,0.034517
6.022000,0.263627
6.023000,0.527103
6.024000,0.406184
6.025000,-0.059672
6.026000,-0.272235
6.027000,-0.552257
6.028000,-0.759728
6.029000,-1.183581
6.030000,-1.047388
6.031000,-0.930288
6.032000,-1.375778
6.033000,-1.901457
6.034000,-2.302398
6.035000,-2.302398
6.036000,-2.243848
6.037000,-1.877273
6.038000,-3.151376
6.039000,-3.907437
6.040000,-3.603231
6.041000,-3.301570
6.042000,-2.299853
6.043000,-1.497970
6.044000,-1.021931
6.045000,-0.701178
6.046000,-0.626081
6.047000,-1.159397
6.048000,-1.464876
6.049000,-1.374505
6.050000,-0.985019
6.051000,-0.431338
6.052000,-0.227686
6.053000,-0.366424
6.054000,-1.388506
6.055000,-2.229847
6.056000,-2.736433
6.057000,-2.746616
6.058000,-2.985908
6.059000,-4.977887
6.060000,-4.991888
6.061000,-3.511587
6.062000,-2.357130
6.063000,-1.545065
6.064000,-0.585351
6.065000,0.015425
6.066000,0.117251
6.067000,-0.113131
6.068000,-0.353696
6.069000,-0.694814
6.070000,-0.687177
6.071000,-0.929015
6.072000,-2.296034
6.073000,-3.022820
6.074000,-2.630789
6.075000,-2.955360
6.076000,-2.484413
6.077000,-1.883637
6.078000,-1.252314
6.079000,-0.923924
6.080000,-0.776275
6.081000,-0.589169
6.082000,-0.059672
6.083000,0.129980
6.084000,-0.105494
6.085000,0.077794
6.086000,-0.160226
6.087000,-0.138587
6.088000,0.171983
6.089000,0.303085
6.090000,-0.246778
6.091000,-1.158124
6.092000,-2.199299
6.093000,-2.886627
6.094000,-2.453865
6.095000,-1.980372
6.096000,-1.636708
6.097000,-1.335048
6.098000,-1.401235
6.099000,-1.522154
6.100000,-1.650709
6.101000,-1.881092
6.102000,-2.256577
6.103000,-2.569693
6.104000,-2.689339
6.105000,-3.320662
6.106000,-3.666872
6.107000,-3.341028
6.108000,-3.370303
6.109000,-3.091553
6.110000,-2.699521
6.111000,-2.217119
6.112000,-2.028740
6.113000,-1.433056
6.114000,-1.071572
6.115000,-0.920105
6.116000,-0.985019
6.117000,-1.122485
6.118000,-1.047388
6.119000,-0.993929
6.120000,-0.929015
6.121000,-1.097028
6.122000,-1.419054
6.123000,-1.793266
6.124000,-2.231120
6.125000,-2.728796
6.126000,-3.021547
6.127000,-3.787791
6.128000,-3.860342
6.129000,-3.164104
6.130000,-2.130566
6.131000,-1.425419
6.132000,-0.926469
6.133000,-0.605716
6.134000,-0.894648
6.135000,-1.098301
6.136000,-0.666812
6.137000,-1.037205
6.138000,-1.477605
6.139000,-1.718169
6.140000,-1.781811
6.141000,-1.968917
6.142000,-2.887900
6.143000,-3.031730
6.144000,-2.119111
6.145000,-1.420327
6.146000,-0.915014
6.147000,-0.951926
6.148000,-0.506435
6.149000,-0.059672
6.150000,0.580562
6.151000,1.073147
6.152000,1.525001
6.153000,1.260253
6.154000,0.620019
6.155000,0.044700
6.156000,-0.510254
6.157000,-0.730453
6.158000,-1.049934
6.159000,-1.239585
6.160000,-1.779265
6.161000,-2.859898
6.162000,-3.104281
6.163000,-3.170468
6.164000,-3.167923
6.165000,-4.274012
6.166000,-6.427640
6.167000,-6.490009
6.168000,-5.226089
6.169000,-3.671963
6.170000,-2.322764
6.171000,-1.483969
6.172000,-0.762274
6.173000,-0.666812
6.174000,-1.183581
6.175000,-1.042297
6.176000,-1.315955
6.177000,-2.276942
6.178000,-3.818339
6.179000,-3.249384
6.180000,-2.115292
6.181000,-0.963381
6.182000,-0.664266
6.183000,-0.729181
6.184000,-0.298964
6.185000,-0.147497
6.186000,-0.095311
6.187000,0.110887
6.188000,0.488918
6.189000,0.720573
6.190000,0.886041
6.191000,1.201703
6.192000,1.290801
6.193000,1.272981
6.194000,0.822399
6.195000,-0.076219
6.196000,-1.172125
6.197000,-2.545509
6.198000,-2.724978
6.199000,-2.475503
6.200000,-1.692713
6.201000,-1.280316
6.202000,-1.183581
6.203000,-0.702451
6.204000,-0.748273
6.205000,-0.977382
6.206000,-1.192491
6.207000,-1.259951
6.208000,-1.337593
6.209000,-1.653255
6.210000,-2.082199
6.211000,-2.493323
6.212000,-2.425863
6.213000,-2.222210
6.214000,-2.324037
6.215000,-2.670246
6.216000,-2.885355
6.217000,-2.887900
6.218000,-2.845897
6.219000,-2.707158
6.220000,-2.758072
6.221000,-2.924812
6.222000,-2.778437
6.223000,-2.985908
6.224000,-3.006273
6.225000,-3.001182
6.226000,-3.131011
6.227000,-3.133556
6.228000,-3.108100
6.229000,-2.859898
6.230000,-2.494596
6.231000,-2.265486
6.232000,-2.409316
6.233000,-2.420772
6.234000,-5.003344
6.235000,-6.073794
6.236000,-5.669034
6.237000,-4.350382
6.238000,-2.909538
6.239000,-3.184470
6.240000,-3.739423
6.241000,-2.885355
6.242000,-1.394871
6.243000,0.128707
6.244000,1.148244
6.245000,1.890304
6.246000,2.822015
6.247000,3.109675
6.248000,2.948025
6.249000,2.693459
6.250000,2.059590
6.251000,1.288255
6.252000,-0.696087
6.253000,-2.279487
6.254000,-2.919721
6.255000,-2.998636
6.256000,-2.341856
6.257000,-1.775447
6.258000,-0.971018
6.259000,-0.340967
6.260000,0.149072
6.261000,0.299266
6.262000,0.179620
6.263000,0.424003
6.264000,0.178347
6.265000,-0.455522
6.266000,-0.124586
6.267000,-0.049489
6.268000,-0.436430
6.269000,-1.220493
6.270000,-3.323208
6.271000,-4.865878
6.272000,-4.694046
6.273000,-3.780154
6.274000,-2.754253
6.275000,-1.671075
6.276000,-0.874283
6.277000,-0.473342
6.278000,-0.388062
6.279000,-0.547166
6.280000,-0.795368
6.281000,-1.202673
6.282000,-1.508152
6.283000,-1.630344
6.284000,-1.538700
6.285000,-1.477605
6.286000,-1.245950
6.287000,-1.165761
6.288000,-1.271406
6.289000,-1.275225
6.290000,-1.445784
6.291000,-1.807268
6.292000,-2.350766
6.293000,-2.751707
6.294000,-2.755526
6.295000,-2.605332
6.296000,-2.278215
6.297000,-2.110201
6.298000,-2.494596
6.299000,-2.474230
6.300000,-2.181480
6.301000,-2.325309
6.302000,-3.809429
6.303000,-4.573127
6.304000,-4.523487
6.305000,-3.972351
6.306000,-3.722877
6.307000,-3.152649
6.308000,-2.266759
6.309000,-1.622707
6.310000,-1.142850
6.311000,-0.824643
6.312000,-0.454249
6.313000,-0.418610
6.314000,-0.964654
6.315000,-2.551873
6.316000,-2.695703
6.317000,-2.233666
6.318000,-3.123374
6.319000,-3.510314
6.320000,-3.150103
6.321000,-2.177661
6.322000,-1.254859
6.323000,-0.845008
6.324000,-0.609535
6.325000,-0.469523
6.326000,-0.754637
6.327000,-0.721544
6.328000,-0.277326
6.329000,-0.451704
6.330000,-0.679540
6.331000,-0.199683
6.332000,0.104523
6.333000,0.094340
6.334000,0.067611
6.335000,-0.054581
6.336000,-0.674449
6.337000,-0.881920
6.338000,-0.766093
6.339000,-0.789004
6.340000,-0.959563
6.341000,-1.197582
6.342000,-1.251041
6.343000,-2.217119
6.344000,-3.601958
6.345000,-3.372848
6.346000,-3.184470
6.347000,-3.754697
