1
61400 1
0.009744	0.015195	0.026097	0.081515	0.086058	0.077881	0.047901	0.017012	0.012060	0.031138	0.042948	0.029321	0.014785	0.013877	0.004791	0.007927	0.008836	0.018829	0.009744	0.002066	0.018829	0.012469	0.004791	0.007517	0.009744	0.007018	0.006609	0.022053	0.022053	0.022053	0.028413	0.042948	0.053850	0.041132	0.009334	0.014785	0.019328	0.022053	0.026595	0.003385	0.021555	0.023371	0.016104	0.016104	0.012469	0.000249	0.016602	0.022053	0.022962	0.043857	0.050216	0.040223	0.046582	0.043857	0.003883	0.030639	0.026097	0.002476	0.011561	0.010653	0.018829	0.008426	0.012469	0.036999	0.055168	0.038816	0.016104	0.011561	0.010653	0.019737	0.024280	0.039724	0.008836	0.010242	0.026595	0.010242	0.016602	0.023870	0.038406	0.016602	0.012060	0.021144	0.005700	0.005700	0.012060	0.007018	0.007927	0.041541	0.074247	0.074247	0.044267	0.017012	0.023371	0.018829	0.003385	0.014785	0.031138	0.036589	0.042948	0.041132	0.035681	0.034772	0.033864	0.033864	0.022962	0.010242	0.007517	0.010242	0.016602	0.010242	0.006609	0.008836	0.027914	0.004293	0.007018	0.007927	0.007927	0.007927	0.007927	0.012968	0.023870	0.046582	0.042948	0.023870	0.011151	0.002975	0.037908	0.054260	0.040633	0.048810	0.045175	0.040633	0.012469	0.039314	0.056576	0.043857	0.010242	0.024779	0.017511	0.030230	0.040223	0.024779	0.027006	0.066070	0.078789	0.050626	0.038816	0.036999	0.026097	0.004293	0.022463	0.028822	0.014287	0.006609	0.039314	0.060210	0.055667	0.057484	0.038406	0.029731	0.043359	0.022463	0.006609	0.004791	0.007927	0.005700	0.023870	0.024779	0.039314	0.029321	0.022053	0.007517	0.007517	0.002066	0.009334	0.003385	0.021555	0.014287	0.007018	0.005700	0.012968	0.015693	0.014785	0.029321	0.037497	0.034772	0.000249	0.012968	0.002066	0.000249	0.013378	0.022463	0.029731	0.046992	0.035182	0.019737	0.023371	0.026097	0.017012	0.033365	0.046084	0.052443	0.011561	0.027914	0.011561	0.007517	0.009334	0.004293	0.020236	0.033864	0.039314	0.033864	0.018419	0.003385	0.000659	0.024779	0.044765	0.030230	0.018419	0.012968	0.012060	0.003385	0.025188	0.042450	0.029731	0.003385	0.002975	0.010242	0.008426	0.017920	0.024280	0.012060	0.041132	0.041132	0.064752	0.089282	0.118353	0.092915	0.037497	0.004293	0.022463	0.031548	0.042450	0.078789	0.102411	0.098776	0.085149	0.036999	0.006110	0.011561	0.017012	0.019737	0.013378	0.003385	0.021144	0.054759	0.030230	0.003883	0.028822	0.013378	0.037908	0.027914	0.017012	0.012060	0.002066	0.009744	0.007927	0.012968	0.020236	0.046582	0.059301	0.068386	0.056576	0.037497	0.010242	0.026595	0.058392	0.062027	0.029321	0.012968	0.002476	0.033365	0.040633	0.052443	0.061528	0.057894	0.033365	0.051535	0.040633	0.048810	0.040633	0.022463	0.022463	0.021555	0.017012	0.004293	0.024779	0.038406	0.062027	0.107451	0.125621	0.135615	0.135615	0.148333	0.119262	0.107451	0.074745	0.013877	0.063345	0.089691	0.102411	0.135116	0.158737	0.158737	0.107862	0.068796	0.061528	0.077881	0.033365	0.015195	0.017920	0.040633	0.046084	0.020646	0.009334	0.022053	0.032046	0.041132	0.026595	0.047491	0.068386	0.094732	0.103817	0.092007	0.038406	0.038406	0.050216	0.046582	0.036589	0.027504	0.006110	0.046084	0.051535	0.074247	0.099685	0.116946	0.114220	0.092417	0.063345	0.036999	0.012968	0.056576	0.055667	0.037497	0.029321	0.014785	0.012060	0.019328	0.019328	0.016602	0.032046	0.026595	0.043857	0.035681	0.004791	0.010653	0.002476	0.013877	0.007517	0.017511	0.047491	0.046582	0.042948	0.030230	0.018419	0.012060	0.005202	0.020236	0.002066	0.006110	0.002476	0.022053	0.052942	0.071112	0.106543	0.086556	0.042948	0.022962	0.017511	0.009334	0.038406	0.019328	0.025188	0.070613	0.126031	0.184174	0.173272	0.160554	0.106044	0.086058	0.096960	0.079698	0.007018	0.026595	0.064752	0.043857	0.019328	0.016602	0.006110	0.022053	0.032046	0.003385	0.007927	0.027006	0.006609	0.038406	0.022962	0.042948	0.028413	0.030230	0.022962	0.001567	0.004293	0.023371	0.044267	0.052443	0.062437	0.065162	0.062437	0.055168	0.044267	0.006609	0.042948	0.058392	0.052033	0.048399	0.024779	0.013877	0.034772	0.038406	0.035681	0.033864	0.053850	0.059301	0.028413	0.051125	0.105634	0.083831	0.064752	0.029321	0.018419	0.001567	0.028822	0.033365	0.016104	0.000659	0.007927	0.018829	0.018419	0.002476	0.032457	0.042450	0.017920	0.020646	0.026097	0.045175	0.087874	0.074247	0.036999	0.000659	0.005700	0.019328	0.049308	0.112902	0.197392	0.247359	0.290967	0.268254	0.199209	0.143791	0.061118	0.001158	0.069705	0.136933	0.178723	0.215064	0.236867	0.268665	0.262305	0.257763	0.233233	0.204162	0.135116	0.074247	0.044267	0.014287	0.021144	0.074745	0.080196	0.082922	0.097458	0.103817	0.085647	0.062935	0.042948	0.009334	0.022463	0.082423	0.115129	0.126031	0.126940	0.106953	0.033365	0.013877	0.057484	0.071112	0.092915	0.105634	0.087465	0.064752	0.095641	0.120170	0.116536	0.136523	0.121987	0.080196	0.009334	0.036999	0.025188	0.014287	0.002066	0.022053	0.025188	0.076972	0.108769	0.073339	0.036999	0.018829	0.011561	0.039314	0.060210	0.086556	0.107451	0.174680	0.232823	0.256444	0.232823	0.201934	0.145608	0.100183	0.017511	0.091509	0.160554	0.183266	0.185083	0.192351	0.248677	0.256854	0.224148	0.176907	0.084240	0.039724	0.036999	0.054260	0.096960	0.098776	0.058803	0.002476	0.030230	0.039314	0.045674	0.086556	0.132889	0.170137	0.158327	0.135615	0.065661	0.027504	0.027504	0.006609	0.019328	0.000249	0.024280	0.053352	0.047901	0.047901	0.025188	0.031138	0.013877	0.017920	0.063345	0.069705	0.086966	0.045175	0.014287	0.015195	0.044267	0.084240	0.085149	0.035182	0.007517	0.018419	0.022962	0.026595	0.020236	0.066569	0.113811	0.159235	0.191032	0.217379	0.213745	0.198300	0.152876	0.046582	0.056077	0.131482	0.142384	0.195076	0.224148	0.219606	0.200527	0.155103	0.112404	0.036999	0.035182	0.030639	0.026097	0.012060	0.077471	0.152876	0.205568	0.223738	0.202843	0.203751	0.177405	0.122895	0.061118	0.002066	0.096051	0.197802	0.258671	0.280474	0.275023	0.234142	0.164188	0.095142	0.000659	0.057484	0.089282	0.079288	0.096549	0.121987	0.119262	0.116536	0.109268	0.102000	0.082014	0.050216	0.035681	0.026595	0.037497	0.050216	0.002975	0.029731	0.019737	0.029731	0.019737	0.012060	0.002975	0.044267	0.096051	0.106953	0.133299	0.106044	0.106044	0.067888	0.004293	0.067478	0.091098	0.120170	0.157418	0.179222	0.209202	0.205568	0.168320	0.092007	0.055667	0.004293	0.126031	0.206887	0.227782	0.212338	0.201436	0.211429	0.207795	0.180541	0.106044	0.013378	0.045674	0.068386	0.022962	0.025188	0.013378	0.047491	0.108360	0.143791	0.178314	0.180130	0.115628	0.016602	0.014287	0.000249	0.032955	0.026595	0.005202	0.035182	0.071521	0.092417	0.076064	0.028822	0.019737	0.013877	0.042948	0.034772	0.038406	0.027504	0.019328	0.003385	0.035182	0.031548	0.028822	0.034273	0.018829	0.019328	0.022053	0.022962	0.041132	0.037497	0.049717	0.094234	0.098776	0.056077	0.021555	0.026595	0.061118	0.090190	0.116536	0.117444	0.089282	0.114719	0.084739	0.056576	0.055667	0.052033	0.036589	0.018419	0.012060	0.036999	0.108769	0.164188	0.173272	0.190534	0.177815	0.087874	0.012060	0.095641	0.191032	0.293692	0.324580	0.295509	0.269163	0.191941	0.107451	0.009334	0.107862	0.195076	0.211429	0.241410	0.191442	0.105136	0.008836	0.096549	0.101092	0.088373	0.049717	0.188717	0.220514	0.233233	0.293194	0.344069	0.404938	0.376774	0.319540	0.236867	0.107862	0.017920	0.035681	0.077471	0.116536	0.131072	0.136523	0.166503	0.197392	0.211928	0.208294	0.179222	0.176496	0.151967	0.111994	0.065661	0.025687	0.002476	0.010242	0.032955	0.009334	0.024280	0.010242	0.063843	0.115628	0.116536	0.102000	0.128346	0.102909	0.075654	0.053850	0.032046	0.045674	0.021144	0.027914	0.051535	0.034273	0.025188	0.044267	0.111495	0.174181	0.167821	0.131482	0.104227	0.066979	0.018829	0.020236	0.052033	0.075654	0.076563	0.155601	0.328215	0.389992	0.479025	0.525357	0.516273	0.410887	0.296418	0.127438	0.027006	0.147835	0.207795	0.349520	0.503055	0.529401	0.693838	0.732904	0.619342	0.516682	0.374958	0.348612	0.327716	0.312272	0.230508	0.153286	0.078789	0.024280	0.053850	0.127438	0.200118	0.256444	0.283698	0.307320	0.274614	0.290058	0.288241	0.272797	0.215562	0.107451	0.091098	0.041132	0.042450	0.076064	0.042450	0.042450	0.012469	0.045674	0.088373	0.097458	0.042948	0.020646	0.041541	0.042450	0.044267	0.027914	0.046582	0.086556	0.127438	0.179222	0.241908	0.224646	0.226464	0.161961	0.108360	0.042948	0.021555	0.145110	0.211429	0.252312	0.298644	0.307729	0.242318	0.161463	0.103318	0.069705	0.036090	0.003385	0.010242	0.056576	0.081105	0.114719	0.211019	0.296418	0.334574	0.330940	0.287332	0.236457	0.163778	0.127438	0.111994	0.044765	0.063345	0.165096	0.197802	0.296827	0.324991	0.279566	0.205978	0.150561	0.150561	0.140567	0.137841	0.113312	0.091509	0.116946	0.109678	0.057894	0.025188	0.007517	0.102909	0.148333	0.180130	0.219196	0.212836	0.225555	0.191941	0.127438	0.011151	0.126940	0.226873	0.187809	0.139659	0.142384	0.133299	0.116038	0.067888	0.015195	0.013877	0.051125	0.109268	0.106543	0.050216	0.027006	0.042450	0.042450	0.047901	0.050626	0.009334	0.038406	0.035681	0.034772	0.028413	0.057484	0.060210	0.041132	0.008836	0.012469	0.012469	0.008836	0.018829	0.005700	0.003883	0.014785	0.031138	0.094732	0.111085	0.142882	0.181039	0.225555	0.200118	0.161052	0.121987	0.074745	0.013877	0.040633	0.101502	0.124214	0.171456	0.178723	0.147835	0.146018	0.145110	0.107862	0.038816	0.056576	0.136523	0.201934	0.293692	0.316404	0.314587	0.248268	0.119262	0.007018	0.073339	0.146926	0.230508	0.261396	0.240501	0.302278	0.306821	0.211429	0.111495	0.019737	0.065661	0.060210	0.012060	0.004791	0.010242	0.067888	0.137841	0.158737	0.124214	0.046992	0.058392	0.161961	0.191941	0.206477	0.171954	0.112902	0.086556	0.038406	0.030639	0.099685	0.166913	0.204162	0.205070	0.160554	0.108769	0.111495	0.102411	0.109678	0.091509	0.066979	0.050626	0.039724	0.007517	0.059301	0.104726	0.107451	0.107451	0.123804	0.141066	0.164686	0.183765	0.142882	0.143791	0.149242	0.118353	0.064752	0.039314	0.028413	0.029321	0.010653	0.031548	0.002066	0.001567	0.012469	0.025687	0.053850	0.048399	0.051125	0.054759	0.032046	0.042040	0.137431	0.202843	0.175588	0.134706	0.094732	0.058392	0.049308	0.023371	0.155103	0.280474	0.285925	0.223240	0.117855	0.033365	0.025687	0.121987	0.201934	0.181947	0.084739	0.075156	0.150561	0.169639	0.148743	0.062437	0.037497	0.067478	0.034772	0.031548	0.085149	0.195985	0.295011	0.288651	0.250494	0.185991	0.167821	0.147835	0.062437	0.012968	0.098366	0.201934	0.297326	0.329123	0.362737	0.282790	0.185581	0.076563	0.040223	0.020646	0.113312	0.217789	0.305004	0.326808	0.311364	0.319540	0.240501	0.146018	0.084240	0.057894	0.001567	0.082922	0.131981	0.155601	0.148333	0.144699	0.195575	0.192849	0.194667	0.182856	0.161961	0.169229	0.142882	0.059301	0.014287	0.033365	0.058803	0.058803	0.053352	0.047901	0.022463	0.018419	0.059301	0.088373	0.093824	0.082014	0.108360	0.169229	0.183765	0.161052	0.136523	0.121987	0.073837	0.002066	0.095142	0.087874	0.096960	0.123306	0.116038	0.086058	0.057894	0.026595	0.011561	0.106044	0.135116	0.138750	0.163279	0.081515	0.002975	0.037497	0.110177	0.182856	0.151059	0.013877	0.036090	0.062437	0.095142	0.133299	0.146018	0.128757	0.086058	0.057894	0.052443	0.006110	0.033864	0.049308	0.009334	0.022463	0.003385	0.054759	0.078380	0.082922	0.068386	0.029731	0.088783	0.104227	0.085149	0.082423	0.100593	0.142384	0.241410	0.290468	0.256854	0.181449	0.075156	0.023371	0.022053	0.084739	0.145608	0.219196	0.232823	0.228280	0.203751	0.188307	0.136523	0.112902	0.064752	0.031138	0.009334	0.005202	0.017012	0.016104	0.014287	0.003385	0.022053	0.024779	0.031138	0.050216	0.061118	0.084739	0.133797	0.134706	0.166503	0.195575	0.207385	0.245542	0.307320	0.248268	0.160144	0.078380	0.025188	0.156919	0.232324	0.319540	0.324991	0.324082	0.360422	0.365873	0.305004	0.218697	0.092417	0.009334	0.075654	0.120170	0.206477	0.169229	0.081105	0.013877	0.027006	0.094234	0.096051	0.021555	0.052033	0.036589	0.016104	0.029731	0.025188	0.054260	0.019737	0.050216	0.111994	0.137431	0.153784	0.132889	0.100183	0.016602	0.022463	0.017012	0.039724	0.039724	0.045175	0.104227	0.124214	0.108769	0.022463	0.055168	0.127848	0.124214	0.087874	0.050626	0.058803	0.074247	0.080607	0.063345	0.074247	0.108769	0.080607	0.006110	0.028413	0.072020	0.104726	0.114719	0.099275	0.113811	0.136523	0.124713	0.115628	0.100183	0.107451	0.101092	0.047491	0.056576	0.129255	0.183765	0.138340	0.120170	0.092007	0.079288	0.037497	0.015693	0.011561	0.053352	0.135116	0.137841	0.149652	0.146018	0.125122	0.080607	0.032457	0.000659	0.004293	0.000249	0.077471	0.119262	0.117444	0.053850	0.014287	0.053352	0.117855	0.155103	0.150561	0.099685	0.028822	0.096549	0.152876	0.207385	0.277339	0.319129	0.334574	0.247359	0.158327	0.001567	0.203253	0.300462	0.375866	0.403121	0.378592	0.380409	0.344977	0.243226	0.158737	0.140567	0.102411	0.077881	0.022463	0.084739	0.086556	0.104726	0.144699	0.166503	0.160144	0.126530	0.145608	0.221013	0.245542	0.167412	0.095641	0.011151	0.015195	0.029731	0.023371	0.106044	0.137841	0.154194	0.131482	0.106953	0.096960	0.062437	0.000249	0.053850	0.049308	0.045674	0.016602	0.039314	0.078380	0.105634	0.081105	0.079288	0.054759	0.072020	0.102000	0.115628	0.088373	0.032955	0.015195	0.047901	0.066979	0.076972	0.108769	0.126940	0.090600	0.066070	0.079698	0.075156	0.048810	0.066569	0.142882	0.191941	0.210111	0.222830	0.240999	0.222830	0.151059	0.119262	0.107451	0.073837	0.053352	0.136024	0.205070	0.252312	0.246861	0.258671	0.213246	0.168730	0.145110	0.056077	0.085647	0.163778	0.182856	0.165595	0.081105	0.079288	0.044765	0.003385	0.002066	0.055667	0.043857	0.008836	0.080607	0.103318	0.110587	0.156919	0.195076	0.225057	0.205070	0.163279	0.095142	0.002476	0.075654	0.132889	0.141066	0.154693	0.171954	0.134706	0.073837	0.072020	0.012968	0.043359	0.087874	0.126031	0.123306	0.113312	0.125122	0.143292	0.163279	0.146926	0.136024	0.093325	0.017012	0.034772	0.089282	0.133797	0.129255	0.125621	0.129255	0.141974	0.100183	0.078380	0.072020	0.077471	0.068386	0.057484	0.004791	0.004791	0.020236	0.021144	0.002066	0.004791	0.041132	0.084739	0.078380	0.067478	0.070203	0.101092	0.148333	0.124713	0.154693	0.132889	0.131981	0.074745	0.040223	0.032046	0.017920	0.060619	0.113312	0.197802	0.215064	0.208704	0.186900	0.204162	0.223240	0.259579	0.222331	0.103318	0.148333	0.320947	0.452678	0.431782	0.407253	0.357286	0.278248	0.083831	0.171456	0.364964	0.438552	0.473075	0.407664	0.354063	0.335893	0.285017	0.189625	0.078789	0.037908	0.014287	0.002476	0.036589	0.072929	0.049308	0.046582	0.044765	0.035681	0.062027	0.077471	0.069294	0.018419	0.010242	0.017920	0.028413	0.068386	0.070203	0.058392	0.028413	0.048399	0.012968	0.020236	0.016602	0.035681	0.087465	0.099275	0.087465	0.062935	0.023870	0.047491	0.106543	0.162869	0.121079	0.054759	0.001158	0.015195	0.001567	0.001158	0.013378	0.036090	0.029731	0.000659	0.004791	0.050216	0.082922	0.174680	0.209202	0.231915	0.201934	0.104726	0.048399	0.010242	0.091509	0.134208	0.199619	0.244135	0.203253	0.160554	0.137841	0.073339	0.000249	0.001158	0.063345	0.114220	0.089691	0.047901	0.046084	0.044267	0.014287	0.010242	0.043857	0.117444	0.121987	0.143791	0.149242	0.147425	0.075654	0.008836	0.113312	0.220514	0.271390	0.280474	0.264121	0.200527	0.133299	0.069705	0.050626	0.001567	0.089282	0.132889	0.141974	0.143791	0.094732	0.061118	0.054759	0.035681	0.016104	0.027006	0.042450	0.036090	0.033365	0.025188	0.026595	0.043857	0.036589	0.025687	0.002476	0.018829	0.024280	0.002066	0.000659	0.007517	0.036589	0.065661	0.073837	0.111994	0.145608	0.144699	0.149242	0.164686	0.173771	0.161052	0.165595	0.121987	0.067478	0.047491	0.038816	0.140567	0.180541	0.188717	0.261396	0.273207	0.193260	0.141475	0.126031	0.067888	0.002975	0.103817	0.208294	0.238274	0.193758	0.166503	0.162869	0.088373	0.026595	0.030639	0.093325	0.159645	0.147835	0.139659	0.079698	0.047901	0.067888	0.104227	0.132390	0.140567	0.066979	0.008836	0.050626	0.045175	0.049717	0.045175	0.030639	0.025188	0.018419	0.069294	0.129255	0.151059	0.167412	0.209202	0.213745	0.160144	0.080196	0.001567	0.070613	0.106953	0.105136	0.076972	0.042450	0.022463	0.023371	0.024779	0.081105	0.071112	0.060619	0.185991	0.171456	0.198711	0.192351	0.160554	0.116946	0.077881	0.022463	0.008426	0.042948	0.072929	0.078380	0.096549	0.100183	0.122895	0.092915	0.084739	0.101092	0.104726	0.087465	0.032955	0.019328	0.032046	0.007517	0.029321	0.090190	0.159235	0.142882	0.157418	0.200118	0.190124	0.145608	0.086556	0.008426	0.076972	0.166913	0.202344	0.204162	0.218697	0.230508	0.120580	0.043857	0.116536	0.196483	0.322764	0.350019	0.358195	0.341842	0.288241	0.139248	0.048810	0.215064	0.354063	0.446728	0.513957	0.538486	0.555748	0.511231	0.334075	0.167821	0.027006	0.167412	0.298234	0.306411	0.253719	0.201934	0.123804	0.004791	0.107862	0.179632	0.271390	0.326808	0.365873	0.314089	0.202344	0.153286	0.096960	0.006609	0.090190	0.137431	0.167412	0.221921	0.226464	0.186490	0.255535	0.284607	0.219196	0.163778	0.084739	0.013378	0.009744	0.010242	0.026097	0.004293	0.025687	0.050216	0.039314	0.042948	0.041132	0.039314	0.015693	0.010242	0.019328	0.028413	0.024779	0.039314	0.072929	0.072020	0.096549	0.108360	0.081105	0.054759	0.067478	0.080196	0.085647	0.111994	0.094732	0.042948	0.092007	0.084739	0.026595	0.051535	0.116946	0.222331	0.228691	0.200527	0.176907	0.146926	0.128757	0.085149	0.024779	0.136523	0.196483	0.185581	0.195575	0.160144	0.101092	0.000249	0.099685	0.147835	0.137841	0.133299	0.201436	0.235050	0.233233	0.222331	0.131482	0.081515	0.053352	0.049717	0.009334	0.030230	0.021555	0.023371	0.002476	0.035681	0.069294	0.117444	0.154693	0.124713	0.041132	0.018829	0.021555	0.080607	0.098776	0.125122	0.137841	0.170547	0.201436	0.130573	0.019737	0.119262	0.126530	0.142882	0.131981	0.092915	0.096549	0.077471	0.024779	0.020646	0.027914	0.032457	0.008426	0.063843	0.060210	0.057484	0.082014	0.090190	0.083831	0.083831	0.070203	0.045674	0.056576	0.057484	0.075654	0.111994	0.149242	0.167412	0.152876	0.146517	0.090190	0.031138	0.046992	0.152377	0.189625	0.189625	0.185083	0.146018	0.135116	0.090600	0.076972	0.012469	0.044765	0.064752	0.082922	0.109268	0.135615	0.151967	0.202843	0.205568	0.266437	0.210111	0.100183	0.058392	0.039314	0.059711	0.185083	0.256854	0.339526	0.441277	0.532127	0.545754	0.414931	0.262305	0.166005	0.116038	0.037908	0.062027	0.067478	0.074745	0.087465	0.143791	0.195575	0.250993	0.296418	0.359103	0.391809	0.418155	0.419064	0.374548	0.217379	0.033864	0.110587	0.239593	0.355879	0.441277	0.497604	0.495787	0.381317	0.246861	0.128757	0.004791	0.137431	0.252810	0.297326	0.353652	0.355470	0.274614	0.194667	0.107451	0.042948	0.019737	0.131482	0.251403	0.293194	0.255037	0.206887	0.156919	0.132390	0.109678	0.114220	0.093325	0.058803	0.027914	0.036999	0.004791	0.036589	0.087465	0.089282	0.104726	0.106543	0.087465	0.081105	0.097458	0.115628	0.138340	0.148333	0.195575	0.194667	0.174680	0.180130	0.177405	0.159235	0.142882	0.070203	0.001158	0.044267	0.098776	0.112404	0.078789	0.053352	0.002975	0.024779	0.022962	0.027006	0.009744	0.037908	0.057894	0.084240	0.098776	0.087874	0.075156	0.078789	0.088783	0.116946	0.126031	0.106953	0.091509	0.017511	0.134706	0.140157	0.110177	0.113811	0.082014	0.012469	0.133299	0.164188	0.133299	0.127848	0.166913	0.165096	0.133299	0.096960	0.076972	0.073339	0.092417	0.047901	0.002066	0.022053	0.034772	0.075654	0.096549	0.092007	0.051125	0.033864	0.041132	0.050216	0.063843	0.088373	0.129255	0.173771	0.193758	0.190124	0.212836	0.220104	0.136523	0.010242	0.097867	0.122397	0.119671	0.197802	0.249586	0.249586	0.231416	0.198711	0.153286	0.096960	0.041541	0.025687	0.066569	0.058392	0.077471	0.098366	0.130164	0.127438	0.153784	0.145608	0.143791	0.123804	0.099275	0.059301	0.045674	0.042040	0.046582	0.025687	0.002975	0.013877	0.001567	0.027914	0.048810	0.086966	0.077881	0.066979	0.079698	0.065162	0.014287	0.014785	0.034772	0.055667	0.038406	0.053850	0.067478	0.060210	0.063843	0.043857	0.023870	0.020236	0.013877	0.009744	0.008836	0.055168	0.102411	0.136933	0.152377	0.030639	0.113811	0.249176	0.321855	0.285516	0.209202	0.140157	0.034273	0.202344	0.297736	0.383134	0.407664	0.333167	0.356788	0.347703	0.206887	0.053352	0.076563	0.146517	0.151059	0.144699	0.112902	0.071112	0.035681	0.017511	0.000249	0.000659	0.003385	0.023371	0.015195	0.020236	0.008836	0.098776	0.140567	0.124214	0.085149	0.034273	0.027914	0.013378	0.005700	0.036589	0.045674	0.072929	0.078380	0.075654	0.114719	0.114719	0.161961	0.188307	0.157418	0.146517	0.121987	0.090190	0.088373	0.064752	0.032046	0.007517	0.041541	0.037908	0.070613	0.092417	0.072430	0.007018	0.001567	0.049308	0.079288	0.144699	0.170137	0.180130	0.187398	0.161052	0.154693	0.162869	0.068386	0.034273	0.099685	0.166913	0.247769	0.247769	0.232324	0.191442	0.087874	0.056986	0.031548	0.035182	0.023371	0.055168	0.033365	0.010242	0.151059	0.217379	0.243725	0.219196	0.211019	0.192849	0.095641	0.011561	0.089691	0.169639	0.280474	0.382225	0.469441	0.491245	0.440369	0.347703	0.205070	0.082423	0.016602	0.082922	0.132889	0.170137	0.230097	0.252810	0.227372	0.171954	0.099275	0.055667	0.045674	0.030230	0.018829	0.047901	0.053352	0.082423	0.027006	0.003385	0.002476	0.047901	0.066070	0.054260	0.029731	0.004791	0.032046	0.044765	0.061118	0.075654	0.079288	0.068386	0.064752	0.066569	0.066569	0.102000	0.131072	0.106543	0.093824	0.102909	0.114719	0.161052	0.140157	0.090190	0.035681	0.002476	0.016602	0.011561	0.060619	0.121489	0.174181	0.192351	0.166913	0.131482	0.122397	0.102411	0.094234	0.078789	0.009744	0.032955	0.070203	0.052942	0.068386	0.070203	0.046582	0.020236	0.068386	0.162869	0.152876	0.101092	0.046582	0.002975	0.025188	0.086058	0.140567	0.156919	0.110587	0.061528	0.090600	0.150561	0.129665	0.037908	0.027504	0.056576	0.069294	0.069294	0.059301	0.059301	0.071112	0.054759	0.044765	0.043857	0.059301	0.067478	0.069294	0.139248	0.222830	0.267346	0.253719	0.181039	0.100183	0.017920	0.124214	0.154194	0.175090	0.221422	0.271390	0.311364	0.298644	0.211429	0.155103	0.083332	0.036090	0.024779	0.030230	0.039314	0.070203	0.084739	0.031138	0.008836	0.052443	0.024280	0.016104	0.012469	0.015195	0.005700	0.022053	0.021144	0.021144	0.013877	0.018829	0.065162	0.066070	0.098776	0.063345	0.069705	0.029731	0.049308	0.131981	0.147425	0.119262	0.086556	0.149242	0.211928	0.208294	0.148333	0.094732	0.052033	0.003385	0.106044	0.192351	0.208704	0.175998	0.189625	0.196893	0.168730	0.099685	0.027914	0.007517	0.006609	0.020236	0.060210	0.061118	0.018419	0.020646	0.012469	0.032046	0.090190	0.177405	0.204660	0.199209	0.241908	0.250084	0.250084	0.203751	0.132889	0.041132	0.039724	0.101502	0.106044	0.113312	0.154194	0.180541	0.216880	0.197802	0.112404	0.045175	0.066979	0.068796	0.052443	0.053352	0.028822	0.004791	0.067478	0.058392	0.024779	0.037497	0.078380	0.101092	0.138340	0.113811	0.082014	0.076563	0.042040	0.054759	0.071112	0.040223	0.015195	0.027914	0.065162	0.122397	0.121489	0.098776	0.140567	0.146018	0.192351	0.179632	0.093325	0.010242	0.079288	0.110177	0.142882	0.115628	0.094732	0.091098	0.069294	0.060210	0.032046	0.007927	0.013877	0.032955	0.029321	0.006110	0.004293	0.040633	0.055168	0.007927	0.016602	0.029321	0.018829	0.086058	0.142384	0.190534	0.231416	0.194168	0.086058	0.031138	0.111085	0.134706	0.127438	0.146517	0.159235	0.208294	0.126530	0.089282	0.072929	0.032046	0.030639	0.047901	0.163279	0.221422	0.192351	0.175998	0.093325	0.002066	0.048399	0.082922	0.060210	0.172863	0.219196	0.208294	0.176496	0.124713	0.047491	0.079698	0.200527	0.271390	0.314089	0.313180	0.276841	0.202344	0.094234	0.003385	0.062935	0.104726	0.137431	0.159235	0.209202	0.198300	0.201934	0.221013	0.243725	0.234640	0.182856	0.165595	0.119262	0.084739	0.038406	0.022463	0.142384	0.231416	0.193260	0.117855	0.126031	0.176907	0.223240	0.213246	0.225057	0.238684	0.201436	0.155103	0.099685	0.026097	0.044765	0.201934	0.277339	0.303685	0.362737	0.400894	0.313679	0.195575	0.070203	0.089691	0.232324	0.311364	0.333167	0.317722	0.259579	0.258671	0.203253	0.106044	0.041541	0.001158	0.062027	0.088373	0.096549	0.105634	0.082922	0.022962	0.000249	0.024779	0.092007	0.132889	0.148333	0.182856	0.210111	0.227372	0.283698	0.281881	0.275522	0.228280	0.185581	0.090190	0.010653	0.149652	0.236867	0.330442	0.405847	0.420382	0.349520	0.271390	0.225057	0.128757	0.026097	0.064752	0.128346	0.147425	0.148333	0.156510	0.151059	0.145608	0.137431	0.146517	0.177405	0.227372	0.211928	0.103817	0.031138	0.020646	0.017012	0.028822	0.050626	0.109678	0.247769	0.330442	0.384043	0.356788	0.295011	0.236867	0.149652	0.066979	0.010242	0.052942	0.092007	0.141066	0.151967	0.166503	0.191941	0.212836	0.189216	0.131981	0.080196	0.057484	0.068386	0.031138	0.017012	0.046084	0.060619	0.056077	0.046084	0.032457	0.026097	0.026097	0.017511	0.038406	0.021144	0.027504	0.062935	0.173771	0.156510	0.110177	0.086556	0.066569	0.061118	0.083831	0.065661	0.026097	0.119671	0.153286	0.192351	0.207795	0.157828	0.094234	0.023371	0.036589	0.123804	0.181039	0.165595	0.121987	0.048399	0.038816	0.161463	0.219606	0.257763	0.259579	0.236867	0.179632	0.097867	0.000659	0.082922	0.144699	0.167412	0.195575	0.267346	0.217379	0.191032	0.154693	0.106543	0.089282	0.011561	0.100593	0.171456	0.198711	0.208704	0.267756	0.260488	0.156919	0.045175	0.014287	0.013378	0.022962	0.094732	0.067478	0.049308	0.091098	0.082922	0.046582	0.027504	0.008836	0.028822	0.068796	0.091509	0.082423	0.085149	0.053352	0.007927	0.010653	0.032046	0.086556	0.105634	0.079288	0.054759	0.012060	0.009744	0.014287	0.020646	0.025188	0.007517	0.010242	0.032955	0.067478	0.052033	0.052942	0.078380	0.085647	0.081105	0.102000	0.082014	0.052942	0.025687	0.007517	0.031548	0.047901	0.054260	0.041541	0.029731	0.009334	0.046582	0.097458	0.131072	0.170137	0.208294	0.254627	0.270071	0.231915	0.167412	0.039314	0.145110	0.280474	0.328624	0.326808	0.349520	0.375866	0.341344	0.265939	0.168730	0.041541	0.032955	0.075654	0.059301	0.097458	0.127438	0.199209	0.241908	0.246450	0.240999	0.215562	0.132889	0.021555	0.127848	0.136933	0.159645	0.140567	0.114220	0.129665	0.156012	0.151468	0.136024	0.131482	0.088783	0.050626	0.002476	0.059301	0.087465	0.038406	0.000249	0.004791	0.010242	0.014785	0.014785	0.000659	0.015693	0.004293	0.011561	0.009744	0.006609	0.012060	0.024779	0.034772	0.035681	0.016602	0.023870	0.040223	0.059301	0.075654	0.072929	0.091098	0.116536	0.104726	0.077471	0.067478	0.060210	0.057484	0.056576	0.063843	0.082922	0.073837	0.079288	0.081105	0.068386	0.048399	0.010242	0.047901	0.112404	0.177815	0.232324	0.233233	0.193260	0.163279	0.108769	0.029731	0.052033	0.094732	0.131072	0.147425	0.162869	0.121987	0.041132	0.036090	0.087874	0.116946	0.126940	0.116946	0.106044	0.099685	0.069705	0.022962	0.090190	0.088373	0.111085	0.075654	0.017511	0.024280	0.097867	0.143292	0.092417	0.024779	0.064752	0.042040	0.042040	0.047491	0.040223	0.008426	0.077881	0.156012	0.184174	0.171456	0.139659	0.020646	0.044765	0.111085	0.164686	0.191032	0.226464	0.257352	0.232823	0.174680	0.082014	0.041541	0.130573	0.185991	0.197802	0.213246	0.215971	0.232324	0.170547	0.084240	0.014287	0.006609	0.022962	0.043857	0.053850	0.048399	0.052033	0.068386	0.073837	0.067478	0.069294	0.075654	0.066569	0.046582	0.017511	0.032955	0.036589	0.039314	0.038406	0.054759	0.077471	0.096549	0.082922	0.072929	0.097458	0.102000	0.044765	0.014785	0.007018	0.056077	0.071521	0.076064	0.102411	0.111495	0.091509	0.072430	0.051535	0.026097	0.017012	0.019328	0.028413	0.031138	0.022962	0.065661	0.092007	0.133797	0.145608	0.121079	0.127438	0.143791	0.144699	0.119262	0.038406	0.033365	0.106953	0.176907	0.239593	0.307729	0.331350	0.336801	0.308638	0.266847	0.157828	0.085149	0.030639	0.003883	0.026595	0.042040	0.063843	0.073837	0.059301	0.042040	0.057484	0.058392	0.072929	0.115628	0.128346	0.090190	0.070203	0.097458	0.079288	0.042948	0.000659	0.014287	0.019737	0.009744	0.018829	0.026097	0.029731	0.018419	0.114719	0.119262	0.109268	0.111085	0.088373	0.056576	0.001567	0.046992	0.066070	0.013378	0.033864	0.010242	0.000249	0.013877	0.019328	0.015693	0.017920	0.067888	0.104227	0.109678	0.126940	0.123306	0.082423	0.017012	0.025687	0.028413	0.016602	0.013378	0.003883	0.026097	0.063345	0.075156	0.066979	0.010653	0.025687	0.031138	0.079288	0.090190	0.102000	0.121987	0.116536	0.122895	0.105634	0.095641	0.108360	0.086556	0.028413	0.019328	0.052033	0.029731	0.112404	0.148743	0.162370	0.174181	0.110587	0.063345	0.065162	0.049717	0.086058	0.080607	0.040633	0.010653	0.011561	0.001158	0.017511	0.022053	0.025687	0.021144	0.025687	0.025687	0.000249	0.061528	0.098776	0.069705	0.070613	0.036090	0.029731	0.007927	0.000249	0.011151	0.013877	0.025687	0.032046	0.055667	0.086556	0.105634	0.092007	0.042948	0.012060	0.013378	0.021555	0.002975	0.064752	0.042948	0.014785	0.010242	0.015693	0.034772	0.020236	0.002975	0.013378	0.012469	0.009334	0.023870	0.004293	0.023371	0.033365	0.027006	0.023371	0.008426	0.015693	0.032955	0.057484	0.063843	0.059301	0.078380	0.104726	0.072020	0.035681	0.002476	0.027006	0.057894	0.057894	0.038816	0.040633	0.024280	0.007018	0.022463	0.080607	0.097867	0.086058	0.065162	0.052443	0.043359	0.036999	0.009334	0.057484	0.055667	0.046582	0.057484	0.072020	0.072929	0.092915	0.124713	0.152876	0.158327	0.115628	0.056576	0.009334	0.038816	0.058803	0.066979	0.079698	0.109678	0.153286	0.193260	0.167821	0.131482	0.117855	0.080607	0.107862	0.134208	0.121489	0.095142	0.067888	0.052443	0.012469	0.021144	0.021144	0.043857	0.080196	0.119262	0.110177	0.089282	0.048399	0.005700	0.013378	0.022463	0.003385	0.000249	0.000249	0.013877	0.044765	0.059301	0.047491	0.053850	0.058392	0.049308	0.033864	0.020236	0.016602	0.012968	0.022962	0.023870	0.028413	0.006609	0.011561	0.014785	0.038406	0.045674	0.028413	0.004293	0.003385	0.010242	0.026595	0.037497	0.032046	0.002975	0.017920	0.006110	0.015195	0.007927	0.010653	0.010242	0.018419	0.017511	0.012060	0.033864	0.039314	0.014785	0.020236	0.038406	0.051125	0.054759	0.044765	0.002975	0.030639	0.066979	0.104227	0.104227	0.067888	0.027914	0.043857	0.067478	0.074745	0.007517	0.051535	0.120580	0.166913	0.156919	0.135116	0.055168	0.022053	0.030230	0.031138	0.034772	0.039314	0.022053	0.042948	0.054759	0.061118	0.072020	0.075654	0.053850	0.011151	0.003385	0.031548	0.063345	0.103318	0.101502	0.093325	0.076064	0.060619	0.031548	0.029321	0.074745	0.068386	0.062935	0.068386	0.064752	0.070203	0.059301	0.025687	0.015693	0.000659	0.020646	0.037908	0.036999	0.028822	0.030639	0.020646	0.008836	0.010242	0.004791	0.012968	0.008426	0.010242	0.007517	0.020646	0.013378	0.007927	0.005700	0.016602	0.039314	0.049308	0.052942	0.048399	0.046582	0.060210	0.062935	0.038406	0.033864	0.034772	0.028413	0.017012	0.039724	0.055168	0.071521	0.103318	0.074247	0.025188	0.012968	0.059301	0.083831	0.062935	0.057484	0.037497	0.006609	0.036090	0.069705	0.109678	0.043359	0.015693	0.002975	0.042450	0.067888	0.078789	0.088783	0.047901	0.000249	0.017511	0.025687	0.051125	0.071112	0.063843	0.022962	0.015195	0.069705	0.106044	0.126031	0.094234	0.036999	0.002476	0.014785	0.008426	0.092915	0.091098	0.082014	0.058392	0.024779	0.034273	0.083332	0.089691	0.066070	0.032457	0.011561	0.014287	0.011561	0.006609	0.017511	0.022053	0.022962	0.021144	0.025687	0.042948	0.034772	0.037497	0.042040	0.034772	0.036589	0.037497	0.032955	0.036589	0.042040	0.052033	0.045674	0.039314	0.031138	0.023870	0.021144	0.024779	0.004791	0.007018	0.005202	0.007517	0.027914	0.052443	0.078789	0.046992	0.032457	0.029731	0.028822	0.011561	0.011561	0.026097	0.024280	0.003385	0.010242	0.004791	0.008426	0.019328	0.013877	0.016602	0.012060	0.004791	0.008426	0.015693	0.010242	0.010242	0.031138	0.040223	0.041132	0.029321	0.054759	0.037497	0.009334	0.007018	0.029731	0.064254	0.069705	0.043359	0.025188	0.042450	0.028822	0.017012	0.027006	0.021555	0.006609	0.011151	0.006609	0.058392	0.108360	0.144699	0.142882	0.125621	0.099275	0.042948	0.024280	0.060619	0.098776	0.139659	0.167821	0.147835	0.143292	0.137841	0.073339	0.040633	0.008426	0.032046	0.034772	0.013877	0.031548	0.055168	0.097867	0.081515	0.046992	0.035182	0.002975	0.032955	0.036589	0.050216	0.040223	0.043857	0.045674	0.052942	0.054759	0.054759	0.049308	0.048399	0.042948	0.046582	0.039314	0.037497	0.052033	0.055667	0.048399	0.034772	0.022053	0.032955	0.034772	0.030230	0.002476	0.012469	0.027006	0.030639	0.046084	0.046992	0.045175	0.035182	0.026097	0.007927	0.006609	0.016602	0.021144	0.002066	0.026097	0.045175	0.046992	0.024280	0.006110	0.004293	0.005700	0.004791	0.001567	0.004293	0.018419	0.016602	0.022053	0.016602	0.007517	0.010242	0.008426	0.012060	0.012968	0.012060	0.006609	0.013877	0.019328	0.030230	0.021144	0.013877	0.001567	0.012060	0.013877	0.002066	0.021555	0.032457	0.035182	0.038816	0.054260	0.046084	0.048810	0.056986	0.025188	0.012060	0.005202	0.028822	0.007927	0.014785	0.003883	0.007927	0.000659	0.006609	0.014785	0.020236	0.015693	0.014785	0.013877	0.024779	0.020236	0.021144	0.012968	0.006609	0.019328	0.048399	0.058392	0.061118	0.053850	0.039314	0.027504	0.004293	0.033365	0.056986	0.063345	0.064254	0.046084	0.038816	0.016104	0.009744	0.001567	0.011151	0.030230	0.020236	0.008426	0.018419	0.021144	0.021144	0.019328	0.031138	0.030230	0.036589	0.037497	0.035681	0.021144	0.019328	0.012968	0.010653	0.025188	0.023371	0.015195	0.009744	0.000249	0.012060	0.008836	0.032955	0.086556	0.057484	0.010242	0.002476	0.005202	0.021555	0.047901	0.060619	0.076972	0.074247	0.018829	0.007517	0.029731	0.075156	0.078789	0.082423	0.075156	0.082423	0.081515	0.081515	0.034273	0.003385	0.006609	0.024779	0.015693	0.013877	0.031138	0.044765	0.042040	0.052942	0.046582	0.050216	0.044765	0.048399	0.053850	0.041132	0.010242	0.002975	0.012469	0.030639	0.027006	0.006110	0.008836	0.010242	0.014785	0.019328	0.011151	0.013877	0.022962	0.033864	0.027504	0.011151	0.013877	0.012968	0.010242	0.007517	0.002975	0.002975	0.004791	0.003883	0.001158	0.007927	0.005202	0.007517	0.000249	0.006110	0.005202	0.005202	0.004791	0.003385	0.002066	0.004293	0.004293	0.002476	0.000249	0.003883	0.010242	0.010242	0.006609	0.005202	0.002476	0.002066	0.009744	0.007018	0.002975	0.002066	0.014287	0.013378	0.000249	0.003385	0.006110	0.008836	0.010653	0.018829	0.017920	0.009744	0.000249	0.003883	0.010242	0.011151	0.002066	0.001567	0.011151	0.031138	0.049308	0.089282	0.104726	0.138340	0.121987	0.068386	0.030230	0.015195	0.070613	0.109678	0.144201	0.159645	0.126940	0.108769	0.106953	0.074247	0.046992	0.034273	0.006110	0.048399	0.064752	0.053850	0.021144	0.017511	0.018419	0.011151	0.004293	0.001567	0.015693	0.008426	0.001567	0.000249	0.003385	0.026097	0.022463	0.012469	0.031548	0.070613	0.020646	0.032955	0.073837	0.109268	0.109268	0.087465	0.049308	0.022053	0.000659	0.028822	0.035182	0.043359	0.028822	0.016104	0.009744	0.014287	0.006110	0.008426	0.014785	0.014785	0.012060	0.016602	0.010242	0.001567	0.001158	0.004791	0.017012	0.013378	0.004293	0.002975	0.008426	0.006609	0.012968	0.006609	0.002476	0.008836	0.003385	0.004293	0.001567	0.003385	0.002476	0.006609	0.003385	0.000659	0.001567	0.034772	0.047491	0.038406	0.019328	0.007018	0.027914	0.028822	0.022463	0.032457	0.019737	0.005202	0.004791	0.007018	0.002476	0.003883	0.003385	0.009334	0.014785	0.006609	0.011561	0.005202	0.006609	0.013877	0.011151	0.003883	0.007517	0.007517	0.010242	0.002476	0.002476	0.024280	0.022463	0.011561	0.019737	0.013378	0.008426	0.040223	0.070203	0.074745	0.046582	0.004791	0.036999	0.076064	0.084240	0.078789	0.047901	0.048810	0.009744	0.046582	0.044765	0.038406	0.026595	0.005700	0.019737	0.017920	0.030639	0.013378	0.002975	0.015693	0.011151	0.015693	0.004293	0.006110	0.014287	0.002476	0.034772	0.033864	0.017511	0.010242	0.017511	0.017511	0.012060	0.007517	0.008426	0.004791	0.000249	0.012469	0.011561	0.008426	0.039314	0.034772	0.023870	0.002476	0.014287	0.036999	0.036999	0.044267	0.029731	0.007018	0.002975	0.006110	0.000249	0.002476	0.000249	0.002066	0.001567	0.015195	0.001567	0.010242	0.019328	0.015693	0.009334	0.003883	0.013877	0.012968	0.007517	0.003385	0.007018	0.039314	0.029321	0.031138	0.015693	0.006609	0.026097	0.046084	0.065162	0.065162	0.063345	0.027914	0.007018	0.013877	0.012060	0.014785	0.012060	0.017511	0.011151	0.001158	0.027006	0.012469	0.007018	0.001158	0.006609	0.012968	0.007517	0.010242	0.005700	0.004293	0.007927	0.005700	0.002975	0.008426	0.000249	0.012060	0.006609	0.012060	0.005700	0.003883	0.002975	0.000249	0.004791	0.011151	0.003883	0.011561	0.013378	0.013378	0.016104	0.012060	0.033864	0.053850	0.053850	0.028413	0.010242	0.011151	0.015195	0.009744	0.011151	0.013877	0.047491	0.066569	0.032955	0.001567	0.032457	0.026097	0.031548	0.058803	0.079698	0.100593	0.066070	0.020646	0.012469	0.015195	0.012469	0.015195	0.017012	0.009744	0.004791	0.012060	0.010242	0.005202	0.005202	0.004293	0.003883	0.002975	0.005700	0.000659	0.002066	0.002975	0.007517	0.011151	0.008426	0.005700	0.006609	0.008426	0.009334	0.011151	0.010242	0.009334	0.010242	0.010242	0.009334	0.009334	0.008426	0.002975	0.000659	0.004791	0.002066	0.009334	0.010242	0.012060	0.001158	0.006609	0.005700	0.011151	0.002066	0.002066	0.006110	0.002975	0.004791	0.002476	0.006110	0.012469	0.010653	0.003385	0.002975	0.000659	0.000249	0.000249	0.003883	0.001567	0.004791	0.002066	0.001158	0.001567	0.005202	0.001158	0.000659	0.007927	0.009744	0.001567	0.002975	0.004791	0.028413	0.027504	0.019328	0.004791	0.011561	0.035182	0.029731	0.025188	0.016104	0.005700	0.017511	0.002975	0.002975	0.001567	0.006110	0.007927	0.000659	0.000659	0.009744	0.027006	0.025188	0.009744	0.001158	0.001158	0.010242	0.012060	0.006609	0.017012	0.031548	0.052443	0.036090	0.019737	0.022962	0.055667	0.025687	0.009334	0.020236	0.028413	0.022053	0.008426	0.002975	0.007517	0.015693	0.020236	0.046582	0.044765	0.042948	0.022053	0.007927	0.029731	0.053352	0.046084	0.060619	0.050626	0.018829	0.008836	0.007018	0.005202	0.002066	0.004791	0.002066	0.000659	0.006110	0.006609	0.002975	0.008426	0.006609	0.006609	0.006609	0.004791	0.014785	0.046582	0.028413	0.010242	0.017012	0.022463	0.015195	0.007517	0.007927	0.017012	0.004293	0.010242	0.008426	0.005700	0.008836	0.007927	0.015195	0.013378	0.003385	0.006609	0.010242	0.011151	0.005700	0.008426	0.006609	0.008426	0.002975	0.000249	0.008426	0.009334	0.002066	0.004293	0.008836	0.003385	0.002066	0.000659	0.004791	0.000249	0.006609	0.002476	0.002066	0.008836	0.006110	0.010653	0.007927	0.007927	0.000659	0.003883	0.012060	0.000659	0.000249	0.007927	0.007927	0.006110	0.000659	0.002975	0.007517	0.000659	0.004293	0.003385	0.002975	0.002066	0.002476	0.001567	0.000249	0.004791	0.006609	0.005700	0.002066	0.005700	0.006609	0.009334	0.013877	0.012060	0.003883	0.003385	0.002476	0.012060	0.008426	0.006609	0.001158	0.000249	0.011561	0.002476	0.010653	0.003385	0.006110	0.004293	0.005202	0.004791	0.003385	0.007018	0.009744	0.017920	0.020646	0.007018	0.003385	0.003883	0.004791	0.004791	0.013877	0.013877	0.038406	0.042948	0.032955	0.012060	0.000659	0.014287	0.015195	0.013378	0.029731	0.023371	0.005700	0.018829	0.015195	0.010653	0.004293	0.003385	0.000659	0.013378	0.002476	0.007018	0.001567	0.006609	0.031138	0.023870	0.014785	0.002476	0.000249	0.013877	0.004791	0.003385	0.001158	0.005700	0.005700	0.004791	0.007927	0.021555	0.029731	0.009744	0.006609	0.021144	0.011151	0.008426	0.002066	0.000659	0.004293	0.005700	0.000659	0.006609	0.002975	0.008426	0.002066	0.002476	0.000249	0.008426	0.000659	0.007927	0.009744	0.003385	0.007927	0.006110	0.007018	0.003385	0.005700	0.002975	0.001158	0.005202	0.002476	0.004293	0.008836	0.003385	0.003385	0.003385	0.000659	0.001158	0.002066	0.002476	0.002066	0.003883	0.009334	0.002066	0.011151	0.008426	0.012060	0.005700	0.008426	0.001158	0.002975	0.001158	0.009334	0.004791	0.013877	0.002476	0.002476	0.005202	0.006609	0.001158	0.000249	0.003385	0.000659	0.000659	0.000249	0.002066	0.000249	0.011561	0.012469	0.019737	0.017920	0.002066	0.017511	0.017511	0.001567	0.015195	0.018829	0.027914	0.014287	0.017012	0.016104	0.003385	0.008426	0.005700	0.009334	0.005700	0.004791	0.005700	0.005700	0.011151	0.009334	0.007517	0.002975	0.004791	0.002975	0.013877	0.010242	0.008426	0.011151	0.007517	0.006609	0.002066	0.003883	0.002066	0.002975	0.004791	0.003883	0.004791	0.002066	0.000249	0.006609	0.002975	0.001158	0.002975	0.005700	0.000659	0.005202	0.006110	0.003385	0.000659	0.001158	0.000659	0.000659	0.002476	0.005202	0.002476	0.002476	0.001158	0.000249	0.001158	0.002066	0.002066	0.003883	0.000659	0.001567	0.002476	0.001158	0.004293	0.003883	0.004293	0.000659	0.009744	0.000659	0.004293	0.001158	0.001567	0.003385	0.007018	0.006609	0.017511	0.015693	0.005700	0.005700	0.001567	0.003883	0.000659	0.006110	0.014287	0.013378	0.010653	0.000659	0.002975	0.001567	0.006609	0.010242	0.012060	0.012968	0.006609	0.007517	0.005700	0.005700	0.005202	0.015195	0.005202	0.002476	0.002975	0.005202	0.005700	0.007517	0.012968	0.001567	0.000659	0.000249	0.000659	0.000249	0.003883	0.006110	0.009744	0.004293	0.000659	0.015693	0.019328	0.015693	0.009334	0.034772	0.037497	0.030230	0.002476	0.022463	0.051535	0.044267	0.026097	0.025188	0.030639	0.013378	0.004293	0.002066	0.007018	0.003883	0.005700	0.009334	0.002476	0.001158	0.002975	0.009334	0.006609	0.013877	0.007517	0.005700	0.004293	0.007018	0.003883	0.002975	0.005700	0.003883	0.005700	0.002066	0.012060	0.004791	0.006609	0.002476	0.002066	0.004293	0.003883	0.000249	0.010242	0.002066	0.000249	0.005202	0.000659	0.000249	0.006609	0.004791	0.002975	0.004293	0.002066	0.002476	0.000249	0.002975	0.005700	0.002975	0.006609	0.002066	0.003385	0.004791	0.002476	0.007018	0.003385	0.001158	0.002975	0.002066	0.001158	0.001158	0.003883	0.002975	0.004791	0.007517	0.004791	0.004791	0.001158	0.002066	0.001567	0.004791	0.001158	0.008426	0.001158	0.002066	0.004293	0.002975	0.000659	0.000659	0.005202	0.001567	0.004293	0.005700	0.004293	0.000659	0.005202	0.001567	0.002066	0.002066	0.001567	0.005700	0.001567	0.001158	0.003385	0.011561	0.011561	0.007018	0.004293	0.001567	0.000659	0.000659	0.000659	0.002476	0.007018	0.005202	0.007927	0.002975	0.000659	0.008426	0.003883	0.005700	0.001158	0.010242	0.003883	0.008426	0.000659	0.002975	0.000659	0.000249	0.006110	0.009744	0.009744	0.001567	0.003385	0.001158	0.002975	0.002066	0.000659	0.001158	0.005202	0.000659	0.000659	0.002975	0.002066	0.000249	0.000249	0.001158	0.005700	0.006110	0.004791	0.001158	0.003883	0.002066	0.004791	0.002066	0.011151	0.002066	0.002066	0.015195	0.016104	0.012469	0.006110	0.009744	0.002476	0.007517	0.012968	0.007517	0.005700	0.007517	0.003883	0.010653	0.013378	0.007018	0.010653	0.011561	0.005202	0.000249	0.000249	0.000659	0.000659	0.004791	0.002066	0.002066	0.003883	0.004791	0.008426	0.010242	0.008426	0.012060	0.004791	0.002975	0.003883	0.000659	0.004293	0.008836	0.006110	0.011151	0.029321	0.052942	0.060210	0.062935	0.062935	0.062027	0.060210	0.053850	0.028413	0.014785	0.016104	0.046084	0.066979	0.081515	0.085149	0.091509	0.106044	0.102411	0.085149	0.050626	0.020646	0.017920	0.020646	0.019737	0.014287	0.012469	0.001158	0.002066	0.008426	0.010242	0.016602	0.012968	0.017511	0.016602	0.013877	0.011151	0.017511	0.025687	0.024779	0.031138	0.020236	0.015693	0.011151	0.013877	0.012968	0.014785	0.011151	0.013877	0.012968	0.010242	0.005700	0.006609	0.006609	0.015693	0.015693	0.014785	0.013877	0.021144	0.008426	0.018419	0.014785	0.017511	0.007517	0.009334	0.003385	0.004293	0.004293	0.001158	0.015195	0.017012	0.018829	0.012469	0.015195	0.005202	0.011561	0.001158	0.002066	0.006609	0.002476	0.006609	0.007018	0.000659	0.000249	0.001567	0.005202	0.003385	0.003883	0.017511	0.013877	0.006609	0.005202	0.005202	0.007927	0.002975	0.000659	0.004791	0.004293	0.002066	0.003385	0.007517	0.005700	0.010242	0.002066	0.003883	0.002066	0.004791	0.001158	0.007517	0.008426	0.002975	0.005202	0.006110	0.004791	0.002066	0.007927	0.000249	0.006609	0.010242	0.000249	0.002066	0.012060	0.022053	0.031138	0.035681	0.050216	0.043857	0.033864	0.006609	0.001158	0.031548	0.038816	0.054260	0.049717	0.054260	0.045175	0.041541	0.035182	0.025188	0.012469	0.007018	0.006609	0.006609	0.013877	0.011151	0.016602	0.021144	0.028413	0.025687	0.042948	0.041132	0.048399	0.048399	0.043857	0.036589	0.022053	0.001158	0.014287	0.026097	0.025188	0.025188	0.040633	0.047901	0.063345	0.050626	0.037908	0.020646	0.018829	0.007927	0.006110	0.017511	0.025687	0.019328	0.021144	0.039314	0.032046	0.039314	0.043857	0.046582	0.028413	0.006609	0.010653	0.023371	0.027006	0.030639	0.027006	0.026097	0.035182	0.033365	0.017012	0.000659	0.005700	0.010242	0.022053	0.021144	0.002066	0.006110	0.008836	0.007927	0.019737	0.008836	0.005202	0.001158	0.000659	0.008426	0.012968	0.018419	0.007517	0.011151	0.013877	0.012968	0.016602	0.036589	0.052942	0.064752	0.071112	0.080196	0.068386	0.061118	0.035681	0.009334	0.014287	0.039724	0.061528	0.070613	0.066979	0.060619	0.085149	0.078789	0.081515	0.059711	0.029731	0.006609	0.016602	0.022053	0.032955	0.030230	0.029321	0.025687	0.022962	0.008426	0.009744	0.022463	0.044267	0.041541	0.036999	0.045175	0.031548	0.017012	0.013378	0.002476	0.019328	0.027504	0.040223	0.035681	0.041132	0.040223	0.024779	0.018419	0.012060	0.004791	0.011151	0.009334	0.008426	0.009334	0.003883	0.001158	0.001567	0.000659	0.011151	0.013877	0.017511	0.015693	0.028413	0.022962	0.023870	0.022962	0.010242	0.005700	0.017012	0.022463	0.030639	0.033365	0.028822	0.012469	0.007927	0.007927	0.007927	0.004293	0.002975	0.006609	0.004293	0.000249	0.008426	0.012968	0.004791	0.002066	0.011561	0.000659	0.000659	0.003385	0.002975	0.012060	0.017511	0.029321	0.038406	0.054759	0.065661	0.042948	0.008426	0.008426	0.000249	0.019737	0.057894	0.087874	0.091509	0.073339	0.055168	0.042450	0.017920	0.005202	0.010242	0.027504	0.060210	0.056576	0.054759	0.035681	0.041132	0.032955	0.010242	0.003385	0.008836	0.021555	0.032457	0.060619	0.061528	0.053352	0.033365	0.024280	0.008836	0.015693	0.012060	0.000659	0.002476	0.010242	0.017511	0.020236	0.024779	0.017511	0.008426	0.014785	0.021144	0.018419	0.004791	0.003883	0.011561	0.014287	0.011561	0.009744	0.000249	0.020236	0.012060	0.021144	0.024779	0.031138	0.022962	0.002975	0.015195	0.017012	0.029731	0.019737	0.015195	0.001567	0.003883	0.011151	0.010242	0.021144	0.021144	0.023870	0.028413	0.032046	0.038406	0.044765	0.039314	0.031138	0.013877	0.001158	0.007927	0.008836	0.010653	0.009744	0.016104	0.013378	0.025188	0.026097	0.030639	0.029731	0.039724	0.022463	0.006110	0.004293	0.007927	0.008426	0.009334	0.016602	0.000249	0.004293	0.015195	0.004293	0.001158	0.002066	0.001567	0.007018	0.002066	0.017511	0.015693	0.023870	0.043857	0.043857	0.035681	0.026595	0.011151	0.008836	0.026097	0.036090	0.035182	0.043359	0.035182	0.028822	0.012469	0.011151	0.017511	0.028413	0.063843	0.085647	0.077471	0.062935	0.046582	0.037497	0.032955	0.015693	0.026097	0.079698	0.103318	0.102411	0.082423	0.078789	0.100593	0.074247	0.046992	0.022463	0.000659	0.014785	0.024779	0.049308	0.066569	0.074745	0.085647	0.089282	0.072929	0.064752	0.042948	0.031138	0.014785	0.003385	0.034273	0.056986	0.064254	0.067888	0.067888	0.068796	0.069705	0.065162	0.058803	0.041541	0.023371	0.000249	0.019328	0.020236	0.020236	0.025687	0.008426	0.003883	0.002975	0.004791	0.002975	0.001158	0.006609	0.008426	0.020236	0.026595	0.027504	0.020236	0.034772	0.034772	0.022053	0.016602	0.018419	0.016602	0.008426	0.009334	0.016602	0.026595	0.022053	0.021144	0.016602	0.016602	0.006609	0.003385	0.025188	0.020646	0.019737	0.009744	0.007517	0.006609	0.007517	0.021144	0.031138	0.057484	0.076563	0.065661	0.045674	0.043857	0.036589	0.014785	0.015195	0.046084	0.056986	0.072430	0.092417	0.095142	0.074247	0.063345	0.054260	0.049717	0.033365	0.037908	0.034273	0.017012	0.009334	0.021144	0.030230	0.021144	0.004791	0.006609	0.011151	0.015693	0.008426	0.003883	0.005700	0.005700	0.012060	0.037497	0.022962	0.011151	0.002476	0.001567	0.002975	0.003883	0.004791	0.003385	0.015195	0.012469	0.004293	0.008836	0.005202	0.016104	0.010653	0.014287	0.011561	0.007018	0.000249	0.001567	0.001158	0.004791	0.013877	0.012968	0.010242	0.012968	0.012060	0.021144	0.027504	0.031138	0.028413	0.033864	0.037497	0.036589	0.032046	0.006609	0.006609	0.011151	0.026595	0.019328	0.004791	0.018829	0.019737	0.024280	0.022463	0.008836	0.004791	0.002066	0.000659	0.002066	0.012060	0.011561	0.036090	0.052443	0.066070	0.078789	0.076064	0.037908	0.002476	0.013877	0.052033	0.087465	0.097458	0.103817	0.099275	0.079288	0.034772	0.018829	0.052443	0.082423	0.114220	0.140567	0.164188	0.153286	0.129665	0.102411	0.077881	0.036999	0.004293	0.014785	0.022053	0.039314	0.042040	0.039314	0.053850	0.057484	0.064752	0.071112	0.064752	0.043857	0.028413	0.015693	0.005202	0.015195	0.018829	0.016104	0.011151	0.005700	0.005202	0.003883	0.007517	0.028413	0.034772	0.032955	0.022053	0.025687	0.022053	0.018419	0.003385	0.015195	0.029731	0.017012	0.007927	0.000659	0.005700	0.004791	0.008426	0.010242	0.002066	0.004293	0.007927	0.018829	0.010653	0.001158	0.004791	0.006609	0.001567	0.007927	0.015195	0.010653	0.002476	0.008836	0.004293	0.005700	0.019328	0.017511	0.037497	0.040223	0.045674	0.053850	0.056576	0.033864	0.012060	0.000249	0.003883	0.007018	0.005202	0.012469	0.008836	0.032457	0.048810	0.072430	0.071521	0.073339	0.080607	0.102411	0.077881	0.053352	0.002066	0.022962	0.017511	0.006609	0.005700	0.002975	0.000249	0.004791	0.004293	0.032457	0.033365	0.009744	0.001158	0.016602	0.034772	0.058392	0.051125	0.031138	0.032046	0.034772	0.038406	0.017511	0.002975	0.001158	0.000659	0.000659	0.007517	0.014785	0.014785	0.028413	0.031138	0.029321	0.005700	0.000659	0.004791	0.005700	0.005202	0.011561	0.024280	0.025188	0.051535	0.060619	0.076972	0.069705	0.048810	0.034273	0.013378	0.012060	0.019328	0.023870	0.019328	0.017511	0.015693	0.024779	0.026595	0.029321	0.020236	0.003883	0.006609	0.001567	0.000249	0.002476	0.006110	0.002975	0.005700	0.003883	0.007517	0.012968	0.012060	0.020236	0.018419	0.018419	0.011151	0.003883	0.021144	0.051125	0.067478	0.070203	0.077471	0.068386	0.052033	0.031138	0.001158	0.051535	0.102411	0.124214	0.130573	0.116038	0.112404	0.105136	0.085149	0.059711	0.033365	0.000249	0.014785	0.020236	0.017511	0.017511	0.040223	0.033864	0.037497	0.042948	0.050216	0.055667	0.046582	0.029321	0.020236	0.004293	0.002476	0.004791	0.007927	0.011561	0.015195	0.001567	0.004293	0.009334	0.006609	0.019328	0.027504	0.021144	0.005700	0.024779	0.000659	0.005202	0.023371	0.015195	0.027914	0.022463	0.027914	0.012469	0.017012	0.023371	0.043359	0.033365	0.027006	0.024280	0.007927	0.014287	0.012469	0.005202	0.007517	0.016602	0.020236	0.031138	0.040223	0.042040	0.033864	0.020236	0.021144	0.032046	0.041132	0.043857	0.038406	0.032955	0.028413	0.024779	0.015693	0.003385	0.017012	0.027914	0.051535	0.087874	0.094234	0.105136	0.085149	0.047901	0.000249	0.035681	0.062935	0.063843	0.051125	0.031138	0.020236	0.009334	0.006110	0.026097	0.045175	0.055168	0.058803	0.058803	0.054260	0.041541	0.049717	0.029731	0.000249	0.028413	0.038406	0.040223	0.031138	0.025687	0.023870	0.046582	0.055667	0.064752	0.067478	0.066569	0.052942	0.028413	0.007517	0.013877	0.016602	0.027914	0.044267	0.031548	0.021555	0.036999	0.036999	0.029731	0.022463	0.017920	0.007927	0.004293	0.003385	0.015195	0.004293	0.001158	0.002476	0.005700	0.014785	0.036589	0.046582	0.034772	0.015693	0.032046	0.043857	0.051125	0.060210	0.059301	0.036589	0.013877	0.007927	0.047901	0.093325	0.102411	0.124214	0.117855	0.096960	0.076972	0.062437	0.055168	0.041541	0.004293	0.024779	0.041132	0.046582	0.045674	0.042040	0.048399	0.047491	0.057484	0.072929	0.075654	0.080196	0.072020	0.065661	0.046582	0.032046	0.006110	0.042450	0.087874	0.116946	0.114220	0.085149	0.045175	0.010653	0.014287	0.008836	0.030639	0.027006	0.019737	0.005202	0.008836	0.007018	0.005700	0.012060	0.017511	0.012060	0.006609	0.021144	0.025687	0.035681	0.050216	0.076563	0.082922	0.061118	0.027504	0.004293	0.004293	0.003385	0.000249	0.009334	0.012968	0.012968	0.005700	0.005700	0.012060	0.026595	0.037497	0.025687	0.003883	0.010242	0.023870	0.019328	0.010242	0.016602	0.011151	0.010653	0.027006	0.043359	0.086058	0.102411	0.109678	0.073339	0.043359	0.023371	0.033365	0.046084	0.027914	0.002476	0.012060	0.028413	0.017511	0.014287	0.018829	0.011561	0.008836	0.017920	0.026097	0.007927	0.011151	0.029321	0.062935	0.068386	0.082014	0.069294	0.055667	0.047491	0.050216	0.008426	0.031548	0.048810	0.067888	0.086058	0.088783	0.074247	0.047901	0.042450	0.036090	0.018829	0.002066	0.011151	0.037497	0.048399	0.066569	0.064752	0.077471	0.072020	0.075654	0.067478	0.034772	0.014785	0.012060	0.005700	0.017920	0.028822	0.053352	0.041541	0.030639	0.034273	0.037908	0.022463	0.028822	0.050626	0.055168	0.029731	0.037908	0.028822	0.010653	0.015693	0.026595	0.042040	0.064752	0.072929	0.079288	0.087465	0.062027	0.062027	0.030230	0.019328	0.000659	0.009744	0.026097	0.046084	0.061528	0.080607	0.077881	0.070613	0.086058	0.095142	0.090600	0.053352	0.021555	0.004791	0.015693	0.021144	0.015693	0.018419	0.035681	0.058392	0.062935	0.057484	0.061118	0.074745	0.082922	0.077471	0.052033	0.041132	0.010242	0.009744	0.014287	0.022463	0.006609	0.030230	0.030230	0.002066	0.018829	0.041541	0.062437	0.075156	0.064254	0.062437	0.059711	0.046084	0.039724	0.042450	0.001158	0.035681	0.025687	0.002066	0.002476	0.008836	0.005202	0.008836	0.007927	0.007927	0.000249	0.014785	0.033864	0.032955	0.052033	0.042040	0.043857	0.052942	0.069294	0.074745	0.046582	0.010242	0.016104	0.052443	0.076972	0.084240	0.080607	0.089691	0.052443	0.029731	0.039724	0.026097	0.009334	0.036589	0.062027	0.072020	0.064752	0.048399	0.016602	0.012968	0.007018	0.004293	0.005700	0.031138	0.024779	0.032046	0.030230	0.028413	0.001158	0.004293	0.003385	0.024280	0.050626	0.042450	0.036999	0.027914	0.027006	0.029731	0.011561	0.018419	0.029321	0.042040	0.056576	0.064752	0.034772	0.011151	0.005202	0.000659	0.015195	0.027914	0.041541	0.050626	0.060619	0.029731	0.020646	0.010242	0.023870	0.032046	0.042948	0.042948	0.036589	0.002066	0.047901	0.060619	0.050626	0.031548	0.026097	0.022463	0.030639	0.020646	0.023371	0.004293	0.029321	0.055667	0.070203	0.116536	0.117444	0.101092	0.058392	0.032955	0.013877	0.010653	0.040633	0.057894	0.066979	0.067888	0.073339	0.086966	0.069705	0.056077	0.030639	0.007927	0.002066	0.004293	0.010653	0.001567	0.006609	0.000659	0.007927	0.000659	0.002066	0.009744	0.009744	0.010653	0.016602	0.032955	0.052942	0.063843	0.049308	0.042040	0.040223	0.041132	0.033864	0.039314	0.033864	0.002066	0.004293	0.013877	0.016602	0.020646	0.029731	0.000659	0.019328	0.017511	0.029321	0.030230	0.026595	0.000249	0.051535	0.078789	0.056077	0.075156	0.069705	0.027914	0.015195	0.003385	0.001158	0.008426	0.013877	0.032046	0.011151	0.008426	0.011151	0.039314	0.043857	0.049308	0.042948	0.021144	0.003385	0.024280	0.048810	0.062437	0.061528	0.050626	0.047901	0.027914	0.001158	0.021144	0.025687	0.042948	0.023870	0.009334	0.016104	0.036090	0.040633	0.012469	0.000249	0.002066	0.008836	0.000249	0.007517	0.024779	0.023870	0.022962	0.008426	0.002476	0.022463	0.030639	0.033365	0.015195	0.008426	0.019328	0.012060	0.017511	0.041132	0.038406	0.013877	0.005700	0.026595	0.026595	0.032046	0.042948	0.058392	0.030230	0.019328	0.001158	0.002975	0.017012	0.023371	0.012469	0.014785	0.062935	0.073837	0.074745	0.096549	0.066569	0.040223	0.020646	0.078789	0.100593	0.107862	0.156919	0.167821	0.123306	0.056986	0.007927	0.004791	0.019328	0.032046	0.068386	0.092007	0.068386	0.029321	0.004791	0.036999	0.069705	0.086966	0.109678	0.096960	0.069705	0.027914	0.007517	0.046582	0.046582	0.058392	0.046582	0.017511	0.017012	0.045175	0.028822	0.012469	0.003385	0.028413	0.035681	0.032046	0.044765	0.063843	0.071112	0.073837	0.088373	0.076563	0.052942	0.043857	0.028413	0.015195	0.055168	0.079698	0.084240	0.058803	0.043359	0.018829	0.000659	0.009744	0.029731	0.021555	0.000659	0.008426	0.023870	0.025687	0.038406	0.032046	0.021144	0.044765	0.037497	0.052033	0.063843	0.058392	0.033864	0.061118	0.052942	0.031138	0.016104	0.038816	0.066070	0.095142	0.145110	0.149652	0.132390	0.092417	0.048810	0.002066	0.046582	0.074745	0.072020	0.061118	0.061118	0.066569	0.039314	0.012968	0.008426	0.021144	0.028413	0.019328	0.001158	0.002066	0.012968	0.000659	0.047901	0.067888	0.080607	0.044267	0.050626	0.061528	0.073339	0.065162	0.033365	0.016104	0.007517	0.038406	0.049308	0.053850	0.048399	0.055667	0.087465	0.121987	0.086556	0.036589	0.006609	0.004791	0.033365	0.076972	0.076064	0.034273	0.036999	0.025188	0.021555	0.006110	0.012060	0.019328	0.022962	0.020236	0.001158	0.013378	0.010242	0.026595	0.012968	0.024779	0.035681	0.027504	0.004791	0.000249	0.007018	0.030639	0.044267	0.033365	0.006110	0.006110	0.007927	0.007927	0.006609	0.007517	0.003883	0.000249	0.005202	0.036999	0.033365	0.007927	0.016602	0.032955	0.055667	0.057484	0.032955	0.010242	0.033864	0.038406	0.007517	0.010653	0.014287	0.020646	0.049717	0.058803	0.044267	0.052443	0.031548	0.006609	0.053850	0.061118	0.071112	0.055667	0.052033	0.036589	0.026595	0.009334	0.007018	0.007018	0.005202	0.047901	0.072430	0.069705	0.065162	0.039724	0.024280	0.024280	0.018829	0.013378	0.002066	0.013877	0.019328	0.036589	0.053850	0.048399	0.032046	0.006609	0.020646	0.033365	0.064254	0.084240	0.109678	0.091509	0.073339	0.018829	0.003883	0.021144	0.031138	0.044765	0.028413	0.039314	0.024779	0.042948	0.055667	0.054759	0.068386	0.060210	0.035681	0.016602	0.002066	0.000249	0.012469	0.008426	0.019328	0.034772	0.036589	0.040223	0.030230	0.032955	0.013877	0.003883	0.002476	0.010242	0.009334	0.001158	0.010653	0.028822	0.053352	0.046992	0.044267	0.007018	0.016602	0.022053	0.011151	0.014785	0.006110	0.028822	0.025188	0.029731	0.034273	0.056986	0.100593	0.121489	0.087874	0.036090	0.006609	0.026595	0.078380	0.122895	0.161961	0.170137	0.141974	0.101092	0.026595	0.046992	0.102411	0.091509	0.101502	0.092417	0.069705	0.066070	0.029731	0.044267	0.044267	0.046084	0.055168	0.076064	0.070613	0.022463	0.029321	0.046582	0.066569	0.041132	0.073837	0.093824	0.074745	0.070203	0.062027	0.033864	0.061118	0.046582	0.062935	0.050216	0.031138	0.018829	0.066979	0.088783	0.056986	0.058803	0.051535	0.033365	0.016104	0.001158	0.002975	0.029731	0.033365	0.035182	0.029731	0.002476	0.011151	0.005700	0.009334	0.028413	0.021144	0.026595	0.041132	0.032046	0.020646	0.037908	0.037908	0.016104	0.012060	0.003883	0.000659	0.046582	0.079288	0.101092	0.092007	0.053850	0.038406	0.033864	0.021144	0.008426	0.002476	0.011561	0.017012	0.040633	0.071521	0.068796	0.051535	0.010653	0.004791	0.032046	0.023870	0.037497	0.035681	0.061118	0.043857	0.029321	0.020236	0.016602	0.003883	0.010242	0.025188	0.062437	0.104227	0.121489	0.091509	0.051535	0.035182	0.033365	0.042450	0.066070	0.062437	0.038816	0.017012	0.030639	0.027006	0.020646	0.015195	0.013877	0.016602	0.056576	0.109268	0.149242	0.151059	0.115628	0.084739	0.067478	0.046582	0.022962	0.006609	0.013378	0.019737	0.056986	0.085149	0.072430	0.037908	0.048810	0.027006	0.000659	0.013877	0.021555	0.033365	0.036999	0.022463	0.000659	0.027504	0.039314	0.050216	0.068386	0.096549	0.084739	0.093824	0.087465	0.057484	0.008836	0.051535	0.072430	0.090600	0.086058	0.091509	0.107862	0.109678	0.099685	0.071521	0.051535	0.039724	0.030639	0.013378	0.000249	0.007018	0.016104	0.021555	0.000249	0.029321	0.059301	0.055667	0.037497	0.060210	0.084739	0.111994	0.127438	0.137431	0.149242	0.141974	0.142882	0.104726	0.053850	0.016602	0.009744	0.038816	0.100593	0.165096	0.192351	0.200527	0.203253	0.167821	0.118763	0.065162	0.041541	0.007927	0.009334	0.017511	0.030230	0.063843	0.085647	0.095641	0.079288	0.093824	0.102909	0.141974	0.178314	0.174680	0.151967	0.142882	0.111994	0.081105	0.002066	0.061528	0.132390	0.206887	0.249586	0.276841	0.275932	0.206887	0.146018	0.110587	0.100593	0.050626	0.011151	0.043857	0.022962	0.052033	0.064752	0.086556	0.085647	0.090190	0.064752	0.052942	0.039314	0.038406	0.024779	0.012060	0.030639	0.037908	0.049717	0.031548	0.014287	0.002476	0.015693	0.050216	0.039314	0.015693	0.003883	0.012060	0.025687	0.007517	0.013378	0.002066	0.013877	0.029321	0.002066	0.025188	0.005202	0.018419	0.036589	0.042948	0.046582	0.033864	0.037497	0.042948	0.022053	0.022053	0.016602	0.010653	0.029731	0.005202	0.002975	0.007517	0.000249	0.026595	0.048399	0.084739	0.137431	0.141974	0.128346	0.068386	0.009334	0.035182	0.045175	0.056986	0.067888	0.124214	0.149652	0.138750	0.124214	0.118763	0.114220	0.086058	0.071521	0.068796	0.080607	0.069705	0.050626	0.035182	0.004293	0.034772	0.047491	0.053850	0.057484	0.077471	0.052033	0.034772	0.010242	0.012968	0.024779	0.043857	0.072020	0.071112	0.059301	0.002476	0.036090	0.066070	0.087874	0.069705	0.036090	0.018829	0.018829	0.002476	0.022053	0.045674	0.059301	0.074745	0.082014	0.087465	0.092915	0.107451	0.090190	0.070203	0.062935	0.071112	0.002975	0.033365	0.042450	0.020646	0.027006	0.065162	0.126940	0.118763	0.079698	0.026097	0.003883	0.011151	0.000659	0.000659	0.009334	0.054759	0.073837	0.072020	0.025687	0.046582	0.082922	0.082922	0.064752	0.015693	0.008426	0.020646	0.081515	0.124214	0.166913	0.189625	0.180541	0.164188	0.144201	0.088783	0.070613	0.044267	0.020646	0.013877	0.044765	0.066569	0.088373	0.091098	0.061118	0.060210	0.062027	0.075654	0.074745	0.078380	0.123804	0.141974	0.131072	0.089282	0.056576	0.016104	0.060619	0.100593	0.159645	0.176907	0.187809	0.160554	0.115129	0.056077	0.008836	0.019328	0.052942	0.073837	0.073837	0.079288	0.087465	0.095641	0.100183	0.122895	0.110177	0.085647	0.054759	0.005700	0.017920	0.056077	0.038816	0.059711	0.066070	0.063345	0.059711	0.060619	0.039724	0.012469	0.013877	0.024779	0.004293	0.009334	0.023870	0.007927	0.020646	0.002476	0.019737	0.022463	0.028413	0.042948	0.021144	0.017511	0.025687	0.013877	0.005700	0.010653	0.002975	0.009744	0.033365	0.075156	0.076064	0.063345	0.037908	0.008426	0.061118	0.073837	0.074745	0.082014	0.070203	0.047491	0.021555	0.096960	0.065162	0.054260	0.049717	0.056986	0.036090	0.038816	0.036999	0.028413	0.055667	0.032046	0.030230	0.052033	0.057484	0.026595	0.000249	0.004293	0.024280	0.040633	0.058803	0.046084	0.054260	0.052443	0.019737	0.004791	0.002066	0.030230	0.057484	0.073837	0.074745	0.115628	0.155601	0.173771	0.150150	0.111085	0.030230	0.044267	0.116946	0.156919	0.189625	0.209613	0.175998	0.113312	0.051535	0.009334	0.015693	0.022962	0.057484	0.090190	0.084739	0.042040	0.003883	0.036999	0.075156	0.087874	0.086058	0.071521	0.051535	0.009334	0.035681	0.041132	0.031138	0.039314	0.020236	0.017511	0.012968	0.012060	0.032046	0.066569	0.091098	0.102909	0.116536	0.110177	0.097458	0.066569	0.059301	0.068386	0.042948	0.013877	0.027914	0.045175	0.103318	0.191442	0.226873	0.218697	0.160554	0.082423	0.017012	0.000659	0.006609	0.033864	0.072020	0.074745	0.090190	0.089282	0.108360	0.103817	0.071112	0.076563	0.041132	0.004293	0.003385	0.002476	0.046992	0.062437	0.073339	0.067888	0.028822	0.002975	0.006110	0.073339	0.105136	0.096960	0.104227	0.135116	0.135116	0.095142	0.046992	0.002975	0.046582	0.050216	0.033864	0.022962	0.016602	0.043857	0.075654	0.102000	0.089282	0.099275	0.099275	0.104726	0.095641	0.087465	0.033864	0.015195	0.036999	0.010653	0.018419	0.016602	0.006609	0.005700	0.008836	0.066070	0.076064	0.078789	0.084240	0.045175	0.011561	0.030230	0.086556	0.099275	0.103817	0.108360	0.095641	0.056576	0.024779	0.007927	0.044267	0.089691	0.112404	0.086966	0.060619	0.029731	0.021555	0.004791	0.025687	0.032046	0.010242	0.001158	0.002975	0.013877	0.027504	0.045674	0.009334	0.044267	0.066070	0.041541	0.036090	0.034273	0.056986	0.058803	0.044267	0.000249	0.004791	0.024779	0.028413	0.053850	0.088373	0.086556	0.071112	0.056576	0.037497	0.009334	0.075156	0.124214	0.124214	0.103318	0.072430	0.026097	0.036589	0.059301	0.012060	0.010242	0.035681	0.035681	0.000249	0.007927	0.022463	0.071521	0.085149	0.076972	0.034273	0.000249	0.046582	0.085647	0.068386	0.064752	0.062027	0.074745	0.052033	0.042040	0.041132	0.004791	0.047901	0.054260	0.041541	0.013378	0.012469	0.003883	0.021144	0.052033	0.057484	0.039314	0.007517	0.032457	0.045175	0.066979	0.026097	0.053850	0.089282	0.109268	0.106543	0.112902	0.105634	0.096549	0.052033	0.004791	0.043359	0.054260	0.102411	0.146926	0.153286	0.141475	0.142384	0.115129	0.087874	0.052443	0.008836	0.051125	0.047491	0.050216	0.050216	0.070203	0.067478	0.082922	0.081105	0.059301	0.035681	0.007018	0.023371	0.071521	0.155103	0.139659	0.111495	0.085149	0.055168	0.025188	0.014785	0.057484	0.109268	0.114719	0.102909	0.076563	0.098366	0.111994	0.070203	0.087465	0.116536	0.111994	0.080196	0.028413	0.043359	0.106044	0.137841	0.153286	0.178723	0.179632	0.186900	0.196893	0.150561	0.074247	0.021555	0.015693	0.022053	0.004791	0.025687	0.030230	0.035681	0.081105	0.119262	0.120170	0.085647	0.030230	0.020236	0.020236	0.029321	0.010242	0.006609	0.006609	0.009334	0.007018	0.009744	0.003883	0.017511	0.027504	0.028413	0.026595	0.047491	0.070203	0.081105	0.059301	0.081105	0.077471	0.054759	0.033864	0.022962	0.004293	0.056986	0.091509	0.060619	0.080607	0.076064	0.051535	0.043359	0.026097	0.002975	0.005700	0.008426	0.002066	0.053352	0.059711	0.007018	0.012060	0.034772	0.079288	0.095641	0.064752	0.080196	0.086556	0.064752	0.075654	0.066569	0.090190	0.114719	0.110177	0.063843	0.001567	0.091509	0.173272	0.279566	0.295919	0.317722	0.298644	0.186900	0.051535	0.039314	0.078380	0.074745	0.056576	0.046582	0.016602	0.002476	0.018419	0.012060	0.005202	0.001567	0.013378	0.013378	0.006110	0.033864	0.046582	0.086556	0.110177	0.114719	0.105634	0.084739	0.105634	0.037497	0.028822	0.040633	0.052443	0.092417	0.091509	0.081515	0.049717	0.016104	0.015195	0.004293	0.012968	0.007927	0.023371	0.007927	0.003385	0.007018	0.006609	0.028413	0.045674	0.069294	0.062935	0.036589	0.042948	0.044765	0.022962	0.010242	0.012060	0.040223	0.060210	0.074745	0.111994	0.124713	0.132889	0.121987	0.106543	0.031138	0.008836	0.032457	0.086966	0.149652	0.194168	0.203253	0.170547	0.182358	0.167821	0.131482	0.068796	0.000249	0.029321	0.051125	0.045674	0.079288	0.124713	0.180130	0.175588	0.142882	0.092915	0.021144	0.042450	0.113312	0.154194	0.182358	0.163279	0.136933	0.082423	0.038816	0.017012	0.005202	0.041132	0.097458	0.100183	0.129255	0.145608	0.116536	0.064752	0.055667	0.007517	0.062437	0.080607	0.070613	0.048810	0.029731	0.011561	0.000249	0.020236	0.082014	0.067478	0.008426	0.059711	0.070613	0.103318	0.127848	0.123306	0.106044	0.077881	0.048810	0.004293	0.041132	0.031138	0.004791	0.008836	0.011561	0.002975	0.041132	0.044765	0.034772	0.038406	0.040223	0.023870	0.040223	0.063843	0.056576	0.042040	0.062027	0.071112	0.059301	0.045674	0.031138	0.042040	0.031138	0.022053	0.009334	0.008426	0.001567	0.034772	0.046582	0.016602	0.001567	0.008426	0.035681	0.032046	0.000249	0.048810	0.076064	0.062437	0.010653	0.002066	0.009744	0.003385	0.015693	0.065661	0.094732	0.093824	0.063843	0.062935	0.052033	0.036589	0.062935	0.066569	0.059301	0.013378	0.080607	0.157828	0.208704	0.227782	0.253220	0.200527	0.126031	0.096051	0.045175	0.030639	0.010653	0.011561	0.027914	0.046992	0.059711	0.085149	0.078789	0.057894	0.004293	0.035681	0.055667	0.084739	0.090190	0.092915	0.091098	0.082922	0.070203	0.073837	0.078380	0.085647	0.064752	0.060210	0.056576	0.056576	0.004791	0.005202	0.030639	0.028822	0.038816	0.020646	0.012060	0.032046	0.073837	0.102000	0.099275	0.077471	0.008836	0.036999	0.007927	0.013877	0.037497	0.050216	0.019328	0.011561	0.025188	0.017012	0.029731	0.062437	0.095142	0.088783	0.088783	0.073339	0.068796	0.037908	0.032955	0.086556	0.095641	0.084739	0.088373	0.081105	0.075654	0.081105	0.055667	0.019328	0.015195	0.044267	0.066070	0.084240	0.124214	0.155103	0.152377	0.140567	0.132390	0.155103	0.134208	0.086058	0.040633	0.042040	0.073837	0.069294	0.071112	0.113811	0.167412	0.199209	0.199209	0.141974	0.059301	0.033365	0.087874	0.093325	0.079698	0.063345	0.069705	0.040633	0.018829	0.001567	0.043857	0.068386	0.137431	0.162869	0.192849	0.134706	0.072929	0.017920	0.114220	0.164188	0.167821	0.183266	0.191442	0.189625	0.130573	0.109678	0.114220	0.076972	0.030639	0.017012	0.044267	0.034273	0.025188	0.001567	0.032046	0.034772	0.024779	0.040223	0.060210	0.053850	0.040223	0.024779	0.027504	0.047491	0.072020	0.092915	0.082014	0.072020	0.060210	0.075654	0.057484	0.065661	0.032046	0.000659	0.010242	0.002975	0.000249	0.022962	0.033864	0.031138	0.054759	0.062935	0.056576	0.032955	0.012469	0.044267	0.039724	0.029731	0.035182	0.023371	0.005202	0.023870	0.029321	0.017511	0.007927	0.049717	0.062437	0.023371	0.003385	0.008426	0.042040	0.076563	0.062935	0.064752	0.066569	0.062027	0.040223	0.011561	0.093325	0.156012	0.167821	0.228691	0.252312	0.204162	0.116038	0.036999	0.020236	0.059301	0.009334	0.010242	0.005700	0.019328	0.057484	0.107451	0.106543	0.084739	0.059301	0.027504	0.015195	0.063345	0.052443	0.000249	0.019328	0.012060	0.020236	0.033864	0.032955	0.018419	0.005700	0.011151	0.010242	0.027504	0.074745	0.088373	0.105634	0.114719	0.106543	0.105634	0.072929	0.021144	0.022053	0.019328	0.027006	0.080607	0.097867	0.098776	0.129665	0.148743	0.141475	0.116946	0.058803	0.017920	0.036589	0.072020	0.121987	0.111994	0.092915	0.037497	0.010653	0.046992	0.085149	0.154194	0.185991	0.150561	0.080607	0.053352	0.022463	0.004293	0.020236	0.042948	0.085647	0.062027	0.048399	0.062027	0.052033	0.068386	0.079288	0.056576	0.080196	0.087465	0.045674	0.000249	0.015195	0.000659	0.018829	0.033365	0.088783	0.098776	0.103318	0.066070	0.027006	0.002476	0.011151	0.027504	0.032046	0.057484	0.071112	0.073837	0.086556	0.132889	0.157418	0.124713	0.067478	0.002066	0.059711	0.117855	0.175090	0.189625	0.175090	0.162370	0.100593	0.037908	0.008426	0.052942	0.109268	0.164686	0.210111	0.215562	0.181039	0.100183	0.028413	0.024280	0.068796	0.135116	0.150561	0.167821	0.229599	0.213246	0.157828	0.116038	0.080607	0.025188	0.025687	0.033864	0.023870	0.041132	0.063843	0.062935	0.062935	0.074745	0.097458	0.110177	0.114719	0.089282	0.059301	0.073837	0.102000	0.106543	0.146517	0.161961	0.156510	0.080196	0.024779	0.072430	0.164188	0.202344	0.184174	0.192351	0.201436	0.198711	0.159645	0.093325	0.053352	0.052443	0.054260	0.015195	0.037497	0.055667	0.073837	0.098366	0.101092	0.102000	0.095641	0.068386	0.060210	0.093824	0.110177	0.129255	0.089282	0.102909	0.122895	0.172863	0.218287	0.201026	0.144699	0.070203	0.046992	0.185991	0.290468	0.303187	0.278658	0.289560	0.300462	0.191442	0.108769	0.055168	0.015195	0.053850	0.119262	0.185581	0.143791	0.121079	0.042948	0.005202	0.010653	0.005202	0.007018	0.030639	0.060619	0.089691	0.119671	0.137841	0.114220	0.094234	0.060619	0.013877	0.029321	0.038406	0.047491	0.058392	0.027504	0.021144	0.047491	0.053850	0.028413	0.010242	0.011151	0.010242	0.012968	0.040223	0.032955	0.030230	0.048399	0.082014	0.092007	0.053850	0.006609	0.003385	0.007018	0.022962	0.006609	0.004293	0.026595	0.051125	0.039314	0.034772	0.049308	0.035681	0.011151	0.004293	0.010653	0.022463	0.017920	0.002975	0.000659	0.051535	0.056077	0.055168	0.079698	0.046992	0.002066	0.054759	0.062935	0.046582	0.028413	0.006609	0.012968	0.046582	0.008426	0.018829	0.083332	0.108769	0.125122	0.103318	0.061528	0.001567	0.031138	0.061118	0.095641	0.134706	0.147425	0.146517	0.112902	0.074745	0.027504	0.008836	0.008836	0.046084	0.091509	0.117855	0.117855	0.116946	0.137841	0.195076	0.213246	0.161463	0.083332	0.031548	0.013877	0.077471	0.112902	0.136523	0.161961	0.161052	0.118353	0.125621	0.146517	0.093824	0.006609	0.060619	0.120580	0.173272	0.185991	0.166913	0.146926	0.066070	0.033864	0.141974	0.171954	0.160144	0.139248	0.111994	0.052942	0.011561	0.090600	0.137841	0.156919	0.120580	0.105136	0.074247	0.043359	0.036090	0.035182	0.005700	0.030230	0.077471	0.086556	0.093824	0.073837	0.068386	0.017511	0.007927	0.019737	0.024280	0.005202	0.035681	0.086556	0.072929	0.030230	0.041132	0.053850	0.021144	0.002975	0.029321	0.075654	0.114719	0.141066	0.127438	0.086556	0.064752	0.033864	0.016602	0.010242	0.006609	0.020646	0.122397	0.156919	0.153286	0.183266	0.203253	0.247769	0.236867	0.196893	0.141475	0.084240	0.038816	0.028822	0.006609	0.042948	0.053850	0.031138	0.017511	0.012968	0.046582	0.078380	0.103817	0.092915	0.067478	0.021144	0.002975	0.022962	0.020236	0.055667	0.032046	0.032955	0.022962	0.012060	0.025687	0.022962	0.017511	0.037497	0.073837	0.078380	0.111085	0.121987	0.139248	0.138340	0.101092	0.098366	0.069294	0.041132	0.014785	0.020646	0.087874	0.085149	0.076064	0.136024	0.159645	0.135116	0.142384	0.137841	0.124214	0.100593	0.063345	0.049717	0.030639	0.007927	0.020236	0.018419	0.023870	0.021144	0.015693	0.020236	0.071112	0.069294	0.017511	0.006110	0.030639	0.038816	0.024280	0.024779	0.020236	0.045674	0.100183	0.132889	0.158327	0.117444	0.010242	0.056986	0.095142	0.076972	0.059711	0.062437	0.096960	0.100593	0.013378	0.055667	0.072020	0.092915	0.107451	0.119262	0.079288	0.048399	0.037497	0.022053	0.008836	0.055168	0.081515	0.132390	0.096960	0.052443	0.036999	0.062437	0.077881	0.098776	0.092417	0.086058	0.091509	0.116038	0.119671	0.105136	0.042450	0.011151	0.060210	0.055667	0.063843	0.083831	0.073837	0.058392	0.060210	0.057484	0.048399	0.016602	0.000249	0.027914	0.022463	0.009334	0.016602	0.039314	0.062027	0.050216	0.042040	0.082922	0.131072	0.126530	0.105634	0.100183	0.128346	0.111994	0.088373	0.012060	0.070613	0.066979	0.048810	0.057894	0.084240	0.107862	0.164188	0.195076	0.177815	0.133299	0.064254	0.012469	0.017511	0.041132	0.033864	0.007517	0.029321	0.057484	0.062027	0.109268	0.092915	0.079288	0.111994	0.115628	0.092915	0.073837	0.066569	0.023870	0.035182	0.105136	0.136933	0.123306	0.104227	0.063345	0.027006	0.012469	0.016602	0.072929	0.081105	0.072929	0.002066	0.111495	0.167821	0.180541	0.169639	0.170547	0.148743	0.119671	0.080607	0.024280	0.063843	0.132889	0.141974	0.119262	0.125621	0.159235	0.128346	0.065661	0.052033	0.055667	0.064752	0.092915	0.097458	0.017511	0.031548	0.105136	0.156012	0.175090	0.180541	0.119671	0.083332	0.066979	0.042450	0.005700	0.009334	0.028413	0.039314	0.055667	0.095641	0.108360	0.084739	0.061118	0.062027	0.082922	0.122895	0.090190	0.039314	0.005700	0.021555	0.054260	0.111495	0.109678	0.089691	0.103318	0.081515	0.041541	0.022463	0.026097	0.002975	0.025687	0.029321	0.027504	0.029321	0.050216	0.058392	0.038406	0.060210	0.066569	0.066569	0.051125	0.025687	0.020236	0.005700	0.021555	0.083332	0.099685	0.061528	0.012060	0.065661	0.077471	0.100183	0.090190	0.050216	0.046582	0.055667	0.082922	0.090190	0.081105	0.030230	0.034273	0.066070	0.091509	0.139659	0.173272	0.153286	0.108769	0.085149	0.014287	0.003883	0.006609	0.034772	0.022962	0.042948	0.052942	0.001567	0.039724	0.070613	0.116038	0.129665	0.094234	0.055168	0.023371	0.028413	0.071112	0.067478	0.035681	0.010242	0.014785	0.042948	0.121079	0.142882	0.112902	0.067478	0.042040	0.020646	0.045175	0.061528	0.066070	0.082423	0.094234	0.056077	0.034273	0.032046	0.092007	0.102000	0.126530	0.159235	0.118353	0.071112	0.030230	0.005700	0.033365	0.065162	0.056986	0.063345	0.110587	0.111495	0.056077	0.000249	0.028413	0.028413	0.026595	0.044765	0.051125	0.032955	0.004293	0.036090	0.015195	0.007018	0.062437	0.125122	0.120580	0.096960	0.080607	0.066979	0.030639	0.021144	0.048399	0.049308	0.026595	0.009744	0.002066	0.037497	0.054759	0.055667	0.075654	0.067478	0.099275	0.100183	0.113811	0.129255	0.130164	0.082922	0.053850	0.060210	0.042948	0.052942	0.067478	0.032955	0.017920	0.074247	0.152377	0.185991	0.171456	0.136024	0.116038	0.096051	0.083332	0.073339	0.035182	0.000249	0.007517	0.053352	0.088783	0.056077	0.058803	0.020646	0.004293	0.013378	0.039724	0.002066	0.021144	0.071112	0.159235	0.199209	0.212836	0.231915	0.233731	0.183765	0.132889	0.072929	0.017511	0.019737	0.100593	0.215064	0.249586	0.254128	0.226873	0.233233	0.185991	0.110587	0.049717	0.018829	0.016602	0.024779	0.018419	0.009334	0.053850	0.087465	0.099275	0.113811	0.154693	0.166503	0.124713	0.120170	0.129255	0.087465	0.030230	0.030230	0.004791	0.025188	0.033365	0.006110	0.009744	0.036999	0.074247	0.070613	0.063345	0.057894	0.049717	0.027006	0.027006	0.005700	0.010653	0.036999	0.009744	0.014785	0.035681	0.069294	0.098366	0.105634	0.116536	0.144699	0.129255	0.075654	0.032955	0.018829	0.090600	0.120580	0.081515	0.080607	0.089691	0.074247	0.093325	0.039724	0.002066	0.012060	0.007517	0.002975	0.015195	0.050626	0.052443	0.069705	0.126031	0.147835	0.056077	0.046992	0.032457	0.005700	0.003883	0.034772	0.092915	0.100183	0.096549	0.073837	0.053850	0.026595	0.006609	0.029731	0.022463	0.008836	0.007018	0.016104	0.059301	0.079288	0.085647	0.068386	0.052033	0.026595	0.021144	0.001158	0.046582	0.049308	0.021144	0.004293	0.013378	0.065162	0.089691	0.096960	0.115129	0.128757	0.109678	0.098776	0.092417	0.080607	0.014287	0.037497	0.024779	0.021144	0.035681	0.084739	0.143791	0.169229	0.170137	0.181039	0.151967	0.097458	0.051125	0.025687	0.000659	0.026097	0.106953	0.175998	0.212338	0.190534	0.147835	0.116038	0.058803	0.019328	0.068386	0.078380	0.079288	0.061118	0.044765	0.053850	0.059301	0.039314	0.022962	0.072020	0.104726	0.047491	0.026097	0.020646	0.033864	0.050216	0.051125	0.036589	0.014785	0.007927	0.022962	0.014785	0.010242	0.036589	0.029321	0.046582	0.032046	0.083332	0.164188	0.152377	0.106953	0.089691	0.119671	0.144201	0.142384	0.088783	0.043359	0.014287	0.056576	0.126530	0.166503	0.171045	0.166503	0.155601	0.151059	0.141066	0.081105	0.014287	0.032457	0.046084	0.114220	0.222331	0.240501	0.197802	0.156012	0.146018	0.104227	0.095142	0.053352	0.006609	0.042040	0.050216	0.081105	0.080196	0.079288	0.068386	0.052942	0.064752	0.063843	0.021144	0.015693	0.010242	0.017511	0.062027	0.053850	0.072020	0.097458	0.086556	0.089282	0.090190	0.054759	0.057484	0.075654	0.055667	0.015693	0.010653	0.033365	0.068796	0.119671	0.143292	0.115129	0.076972	0.024280	0.013877	0.017511	0.013877	0.002975	0.019328	0.012060	0.007517	0.028413	0.022053	0.001567	0.036090	0.038816	0.039724	0.017012	0.023870	0.022962	0.012469	0.012469	0.003385	0.033864	0.007018	0.034273	0.054260	0.048810	0.041541	0.009334	0.074745	0.123804	0.162869	0.119262	0.090190	0.092007	0.102909	0.087465	0.005700	0.123306	0.185991	0.225965	0.262305	0.274115	0.247769	0.255945	0.187809	0.096960	0.005202	0.094732	0.128346	0.123804	0.111994	0.117444	0.099275	0.086556	0.099275	0.121987	0.138340	0.102000	0.079288	0.062935	0.082014	0.034772	0.033365	0.119671	0.138750	0.143292	0.116946	0.134208	0.083332	0.005700	0.033864	0.016602	0.029321	0.063843	0.076563	0.062935	0.058392	0.051125	0.054759	0.035681	0.020236	0.019328	0.035681	0.058392	0.052033	0.037497	0.058392	0.047491	0.022962	0.012060	0.004293	0.047901	0.051535	0.032457	0.027914	0.029731	0.032457	0.028822	0.019737	0.006609	0.042948	0.048399	0.032046	0.025687	0.019328	0.063843	0.075654	0.081105	0.068386	0.051125	0.064752	0.081105	0.098366	0.074745	0.030230	0.019737	0.056077	0.111495	0.183266	0.197802	0.201436	0.137841	0.068796	0.034273	0.027914	0.046084	0.016104	0.032046	0.033864	0.035681	0.020236	0.026595	0.002066	0.000659	0.017511	0.031548	0.062437	0.042450	0.065661	0.118353	0.151967	0.082922	0.011561	0.069705	0.096960	0.204162	0.205978	0.137841	0.051535	0.043359	0.000659	0.061118	0.027504	0.047901	0.071521	0.046992	0.012469	0.046084	0.036999	0.012469	0.027914	0.030639	0.019737	0.002066	0.033864	0.046582	0.052942	0.051125	0.038406	0.014785	0.033864	0.043857	0.052942	0.062935	0.100183	0.121987	0.098366	0.062935	0.041132	0.055667	0.084739	0.053850	0.027504	0.042948	0.058392	0.082014	0.111085	0.102909	0.122895	0.106543	0.038406	0.017920	0.054260	0.130573	0.209613	0.233233	0.198711	0.132390	0.068796	0.036090	0.007927	0.050216	0.102000	0.092915	0.069294	0.072020	0.117444	0.151967	0.136523	0.131981	0.102000	0.046582	0.008836	0.070613	0.143292	0.215971	0.243226	0.238684	0.169639	0.087874	0.021144	0.110177	0.151059	0.125621	0.041132	0.015195	0.097867	0.134208	0.129665	0.108769	0.126940	0.162370	0.123306	0.056077	0.049308	0.147425	0.200118	0.148333	0.150150	0.179222	0.183765	0.131981	0.123804	0.112902	0.082922	0.047491	0.028413	0.003883	0.019737	0.123306	0.244135	0.288651	0.290468	0.320448	0.263214	0.151468	0.042450	0.013877	0.061118	0.127438	0.150150	0.154693	0.151967	0.111085	0.024779	0.033365	0.044267	0.029731	0.024779	0.064752	0.036589	0.023870	0.027914	0.088783	0.106044	0.115129	0.047901	0.002476	0.009334	0.007517	0.002975	0.008836	0.018829	0.042948	0.088373	0.104726	0.114719	0.090190	0.064752	0.059301	0.042948	0.020236	0.024280	0.026097	0.017920	0.004293	0.019328	0.018419	0.024779	0.020236	0.041132	0.061118	0.096549	0.075654	0.028413	0.005700	0.042040	0.069294	0.039314	0.064752	0.081105	0.043857	0.008426	0.028822	0.043359	0.062437	0.037908	0.017012	0.000249	0.012060	0.002975	0.019737	0.060619	0.053352	0.071521	0.123306	0.147835	0.181449	0.175090	0.153286	0.116038	0.060619	0.022962	0.039314	0.078380	0.128346	0.143791	0.102909	0.119262	0.082014	0.062935	0.108360	0.106543	0.061118	0.056576	0.021555	0.095142	0.104227	0.116038	0.174181	0.214155	0.187809	0.141475	0.147835	0.155103	0.142384	0.138750	0.126940	0.103318	0.086966	0.039724	0.002066	0.045674	0.086556	0.102000	0.077471	0.097458	0.081105	0.096549	0.113811	0.141066	0.135615	0.121079	0.082922	0.058392	0.045674	0.079288	0.087465	0.039314	0.041132	0.064752	0.079288	0.098366	0.102909	0.081105	0.056576	0.040223	0.045674	0.046582	0.006110	0.052443	0.074247	0.085149	0.044267	0.040223	0.100183	0.161052	0.210111	0.214653	0.191941	0.182856	0.144699	0.074745	0.031548	0.092417	0.207795	0.338618	0.450363	0.496696	0.410389	0.247769	0.185991	0.188717	0.140567	0.024280	0.042040	0.035681	0.037497	0.102000	0.134706	0.139248	0.111994	0.090190	0.038406	0.054260	0.017012	0.032046	0.045674	0.012469	0.062437	0.067888	0.048810	0.018829	0.012968	0.022463	0.020646	0.041132	0.066569	0.102909	0.148333	0.161052	0.127438	0.089282	0.046582	0.029321	0.006110	0.002066	0.008836	0.041541	0.024280	0.048399	0.062935	0.094732	0.184673	0.258261	0.246450	0.161961	0.054759	0.050626	0.134208	0.240501	0.284109	0.272298	0.251403	0.251403	0.198711	0.114220	0.076972	0.063345	0.075156	0.074247	0.036999	0.025188	0.001567	0.061118	0.147425	0.158327	0.176496	0.207385	0.201934	0.190124	0.141974	0.034772	0.061528	0.124214	0.129665	0.084240	0.050626	0.007517	0.031548	0.007018	0.027504	0.067478	0.075654	0.079288	0.019328	0.060619	0.115129	0.128757	0.100593	0.081515	0.077881	0.066979	0.047901	0.004293	0.006110	0.015693	0.033864	0.076563	0.111085	0.155601	0.141974	0.123804	0.113811	0.116536	0.099275	0.094732	0.079288	0.034772	0.009334	0.006609	0.061528	0.132390	0.132390	0.127848	0.145110	0.129665	0.125122	0.078789	0.057894	0.067888	0.071521	0.095142	0.113312	0.106044	0.020646	0.094732	0.117444	0.147425	0.182856	0.197392	0.182856	0.192849	0.150150	0.075654	0.067478	0.028413	0.038816	0.130573	0.165096	0.175090	0.095142	0.002476	0.058392	0.068386	0.056576	0.057484	0.044765	0.034772	0.041541	0.067888	0.089691	0.102411	0.131482	0.138750	0.129665	0.097867	0.085149	0.023371	0.000659	0.016602	0.022053	0.007517	0.019328	0.041132	0.024779	0.085647	0.121987	0.166503	0.167412	0.178314	0.181039	0.186490	0.147425	0.139248	0.084739	0.075654	0.036589	0.063345	0.204162	0.234142	0.254128	0.243226	0.165096	0.100593	0.062437	0.001158	0.008836	0.034273	0.002975	0.095641	0.092007	0.050216	0.008836	0.058803	0.110587	0.086966	0.061528	0.067888	0.066070	0.014287	0.070203	0.147425	0.214653	0.181039	0.087465	0.041132	0.018419	0.049717	0.078789	0.093325	0.038816	0.073837	0.122895	0.145608	0.097458	0.071112	0.077471	0.069294	0.019737	0.167821	0.296827	0.334984	0.272298	0.222331	0.160554	0.132390	0.075156	0.023371	0.002476	0.023870	0.072020	0.080196	0.075654	0.061118	0.067478	0.083831	0.086556	0.113811	0.112902	0.132889	0.144699	0.133797	0.134706	0.116536	0.101092	0.126530	0.142882	0.119262	0.087465	0.038406	0.018829	0.057894	0.111495	0.118763	0.140567	0.177815	0.178723	0.160554	0.123306	0.086966	0.031548	0.007927	0.040223	0.149242	0.182856	0.236457	0.308228	0.340933	0.337299	0.282790	0.218287	0.043857	0.174181	0.374049	0.415840	0.413114	0.417657	0.441277	0.374958	0.303187	0.161463	0.022463	0.011151	0.002975	0.031138	0.120170	0.162869	0.119262	0.096549	0.101092	0.076563	0.026595	0.010653	0.026097	0.057894	0.052443	0.013378	0.028413	0.121987	0.221921	0.223738	0.165595	0.114719	0.036589	0.034273	0.146018	0.167821	0.175090	0.135116	0.098776	0.070613	0.023371	0.062935	0.051125	0.015693	0.012968	0.022053	0.031138	0.064752	0.059301	0.050216	0.044765	0.080196	0.105634	0.123804	0.111994	0.126530	0.121987	0.142882	0.134706	0.087465	0.039314	0.051125	0.055667	0.021144	0.016104	0.043359	0.025188	0.019737	0.031548	0.027504	0.049308	0.022053	0.085149	0.111495	0.098776	0.085149	0.160554	0.218697	0.179632	0.088783	0.001158	0.000659	0.013378	0.057894	0.096960	0.106044	0.114220	0.102411	0.053352	0.026097	0.066569	0.161052	0.231915	0.154693	0.070203	0.036090	0.071521	0.053352	0.052443	0.099685	0.168730	0.187809	0.186900	0.182358	0.079698	0.037497	0.082014	0.095641	0.133797	0.151967	0.134706	0.147425	0.111994	0.079288	0.053850	0.063843	0.036589	0.023371	0.007927	0.027006	0.057894	0.078789	0.098776	0.027914	0.030230	0.057484	0.064752	0.066569	0.045674	0.019328	0.036589	0.039314	0.032046	0.029321	0.052942	0.043857	0.007517	0.035681	0.001158	0.006609	0.013877	0.018419	0.015693	0.016602	0.035681	0.026595	0.029321	0.051125	0.051125	0.004791	0.017511	0.033365	0.040633	0.010653	0.046084	0.063345	0.064254	0.044267	0.024779	0.101092	0.130164	0.180130	0.152876	0.094732	0.011151	0.086058	0.191442	0.259579	0.227782	0.218697	0.163279	0.092417	0.052443	0.060210	0.205568	0.250084	0.253719	0.209202	0.162869	0.085647	0.039314	0.067888	0.195076	0.293194	0.329533	0.305913	0.250494	0.194168	0.145110	0.052443	0.042948	0.131981	0.176496	0.159235	0.159235	0.152876	0.136523	0.054759	0.041541	0.136933	0.164188	0.178723	0.166913	0.136024	0.066070	0.005700	0.039314	0.064752	0.090190	0.103817	0.102000	0.092007	0.092915	0.092007	0.100183	0.064752	0.039314	0.048399	0.084739	0.092915	0.083831	0.054759	0.028413	0.004791	0.044267	0.069705	0.036999	0.019328	0.052033	0.074745	0.110177	0.122895	0.080196	0.022962	0.049717	0.095142	0.067888	0.066070	0.076972	0.028822	0.026097	0.022463	0.010242	0.060210	0.072020	0.071112	0.023870	0.005700	0.012469	0.008426	0.017920	0.038816	0.021144	0.064752	0.052942	0.010242	0.013378	0.036999	0.046084	0.056077	0.046084	0.060619	0.040633	0.010653	0.047491	0.126530	0.171954	0.110177	0.076563	0.071112	0.010242	0.046084	0.095142	0.120580	0.146926	0.201436	0.285017	0.285017	0.235959	0.233233	0.199619	0.166005	0.136933	0.084240	0.021555	0.076563	0.105634	0.133797	0.156510	0.158327	0.176496	0.189216	0.166503	0.143791	0.102000	0.058392	0.010242	0.045674	0.059301	0.110177	0.151059	0.131072	0.071112	0.007517	0.033365	0.058803	0.062437	0.058803	0.072430	0.111495	0.128757	0.114220	0.025188	0.046582	0.069294	0.043857	0.031138	0.012968	0.025687	0.054759	0.073837	0.058392	0.024779	0.013877	0.004293	0.031548	0.018829	0.010242	0.002975	0.021144	0.023870	0.003883	0.014785	0.035681	0.012968	0.047901	0.074247	0.096051	0.080607	0.074247	0.076064	0.058803	0.042450	0.023371	0.014287	0.013877	0.053850	0.073837	0.073837	0.058392	0.046582	0.028413	0.038406	0.040223	0.027504	0.000659	0.022053	0.049308	0.044765	0.016602	0.022053	0.065661	0.062935	0.053850	0.092915	0.119262	0.122895	0.069294	0.004293	0.059711	0.098776	0.116038	0.121489	0.159645	0.111495	0.088783	0.070613	0.041541	0.039314	0.088373	0.004791	0.030639	0.007927	0.011151	0.025687	0.049308	0.037497	0.012060	0.037908	0.096051	0.148743	0.108769	0.123306	0.224148	0.254128	0.176907	0.127848	0.067888	0.006110	0.047491	0.078380	0.062935	0.051125	0.062027	0.062935	0.039314	0.056576	0.088373	0.072020	0.019328	0.012968	0.043857	0.052033	0.042040	0.046582	0.044765	0.081105	0.097458	0.113811	0.078380	0.071112	0.065661	0.062027	0.056576	0.072020	0.058392	0.079288	0.074745	0.070203	0.047491	0.058392	0.074745	0.064752	0.031138	0.013378	0.022463	0.018829	0.019737	0.009744	0.003385	0.010653	0.018829	0.037908	0.068796	0.115129	0.116946	0.078789	0.045175	0.017920	0.006609	0.045674	0.107451	0.193758	0.180130	0.068386	0.023371	0.097867	0.178723	0.242318	0.274115	0.241410	0.212338	0.177815	0.109678	0.018829	0.019328	0.093824	0.203751	0.276430	0.262803	0.177405	0.092007	0.053850	0.007018	0.083332	0.143292	0.211429	0.265030	0.283200	0.221422	0.122397	0.057894	0.011561	0.071112	0.190124	0.251901	0.272797	0.279156	0.212836	0.149242	0.052033	0.032457	0.146926	0.214155	0.271390	0.255037	0.211429	0.140567	0.054260	0.005202	0.038406	0.090190	0.109268	0.110177	0.069294	0.064752	0.072020	0.072020	0.094732	0.105634	0.072929	0.033864	0.002476	0.036090	0.049717	0.026097	0.013378	0.013877	0.042948	0.053850	0.028413	0.003883	0.022962	0.034273	0.043359	0.006609	0.052033	0.036589	0.042040	0.055667	0.079288	0.099275	0.095641	0.100183	0.078380	0.062027	0.045674	0.058392	0.091098	0.085647	0.028413	0.018829	0.019737	0.051535	0.092417	0.104227	0.120580	0.083332	0.066070	0.037908	0.029321	0.065661	0.082014	0.114719	0.111994	0.006609	0.075156	0.076064	0.110587	0.166913	0.172364	0.201436	0.181449	0.157828	0.232324	0.266847	0.086966	0.012968	0.037497	0.075654	0.130164	0.223738	0.223738	0.170137	0.176496	0.181947	0.139248	0.075654	0.019328	0.086058	0.166913	0.251403	0.286834	0.255037	0.195076	0.191442	0.137841	0.046992	0.041132	0.104726	0.111994	0.070203	0.039314	0.001158	0.019737	0.019328	0.066569	0.078380	0.106543	0.135615	0.091098	0.056576	0.059301	0.037497	0.036589	0.012060	0.007927	0.013877	0.023870	0.034772	0.044765	0.024779	0.012469	0.002975	0.028413	0.033864	0.023870	0.041132	0.026595	0.007927	0.000249	0.010242	0.001567	0.016602	0.030230	0.053850	0.058392	0.061118	0.077471	0.101092	0.114719	0.138340	0.141066	0.169229	0.160144	0.131981	0.081105	0.016104	0.106044	0.093325	0.137841	0.162370	0.196893	0.124214	0.059711	0.031548	0.054260	0.041541	0.012469	0.006609	0.003385	0.047901	0.122397	0.140567	0.120580	0.063345	0.038816	0.000659	0.030230	0.022962	0.040223	0.026595	0.027504	0.027914	0.104227	0.145110	0.198711	0.178723	0.187809	0.162370	0.094234	0.078789	0.059711	0.069705	0.055168	0.002975	0.055667	0.099275	0.137431	0.183765	0.153784	0.117444	0.005202	0.064254	0.024280	0.006609	0.059301	0.100183	0.100183	0.131072	0.185581	0.231915	0.246450	0.206477	0.118353	0.004791	0.118763	0.156919	0.158737	0.169639	0.165096	0.104227	0.046084	0.010653	0.111085	0.166503	0.092915	0.056576	0.062935	0.032955	0.017511	0.042948	0.071112	0.066569	0.041132	0.060210	0.076563	0.062935	0.110177	0.135615	0.111085	0.088373	0.019328	0.060619	0.088783	0.096051	0.101502	0.136933	0.155103	0.146018	0.142384	0.154194	0.149652	0.156919	0.122397	0.075156	0.046084	0.021144	0.003385	0.004293	0.000249	0.051535	0.110587	0.062437	0.027914	0.013877	0.029321	0.064752	0.081105	0.086556	0.102000	0.113811	0.114719	0.065661	0.078380	0.039314	0.026097	0.003385	0.017511	0.011561	0.012469	0.027006	0.046084	0.027914	0.027504	0.066569	0.093824	0.047491	0.023870	0.008426	0.080196	0.119262	0.060210	0.021555	0.108769	0.167821	0.207795	0.191442	0.126940	0.098776	0.030639	0.034772	0.044765	0.027504	0.016602	0.005202	0.006110	0.041132	0.028413	0.028413	0.052033	0.062027	0.094732	0.131981	0.140157	0.167412	0.151967	0.109268	0.072020	0.095641	0.130164	0.181039	0.174680	0.078380	0.074247	0.110587	0.162370	0.165096	0.143292	0.205978	0.260488	0.255037	0.274115	0.274115	0.227782	0.132390	0.057894	0.000659	0.097458	0.148333	0.197392	0.221921	0.271888	0.228280	0.162869	0.072020	0.011151	0.002066	0.018419	0.037497	0.030230	0.028413	0.032046	0.027914	0.043359	0.040633	0.051535	0.160554	0.256854	0.291376	0.242318	0.180541	0.124214	0.040633	0.042040	0.117444	0.145608	0.120170	0.092007	0.075654	0.069294	0.049308	0.017012	0.009334	0.018419	0.019328	0.019328	0.027006	0.024280	0.027006	0.036999	0.043359	0.055168	0.047901	0.041541	0.007927	0.018419	0.013378	0.028413	0.071112	0.097458	0.082922	0.100183	0.086556	0.115628	0.099275	0.060210	0.051125	0.024779	0.019737	0.029731	0.033365	0.013378	0.004293	0.002066	0.027006	0.002476	0.038406	0.082922	0.080196	0.082014	0.108360	0.141066	0.241908	0.320038	0.340933	0.282790	0.204660	0.032955	0.137841	0.205978	0.268665	0.374958	0.364964	0.382225	0.457630	0.399487	0.317722	0.266847	0.194168	0.061528	0.004293	0.056576	0.094732	0.172863	0.217379	0.208294	0.190124	0.201026	0.203751	0.126530	0.003385	0.083332	0.134208	0.246861	0.324991	0.274115	0.225057	0.176907	0.053352	0.092915	0.166503	0.172863	0.161052	0.184673	0.176496	0.138340	0.059301	0.041541	0.096051	0.096051	0.112404	0.136024	0.064254	0.006609	0.024779	0.042948	0.061118	0.065661	0.101092	0.106543	0.107451	0.078380	0.072020	0.072929	0.077471	0.065661	0.086556	0.094732	0.105634	0.106543	0.113811	0.085647	0.037497	0.009744	0.017920	0.003883	0.022053	0.006609	0.002066	0.012469	0.006110	0.040223	0.059301	0.045674	0.116536	0.189216	0.218287	0.184673	0.155601	0.154693	0.134706	0.083831	0.039314	0.106953	0.265939	0.383134	0.380409	0.370415	0.374049	0.351337	0.347703	0.323173	0.275023	0.288651	0.242318	0.137841	0.020646	0.057484	0.087465	0.100183	0.121079	0.092915	0.162869	0.190124	0.195575	0.171045	0.170137	0.188307	0.198300	0.214653	0.194667	0.182856	0.171954	0.162869	0.126530	0.060210	0.021555	0.154194	0.251403	0.355879	0.432193	0.393127	0.324082	0.224148	0.146018	0.025188	0.071112	0.095641	0.108360	0.130164	0.162869	0.156510	0.163778	0.158327	0.089282	0.037497	0.001158	0.038816	0.076064	0.074247	0.073339	0.055168	0.018829	0.043857	0.054759	0.023870	0.034772	0.063843	0.101092	0.102000	0.086556	0.086556	0.037497	0.005700	0.011151	0.011151	0.047491	0.065661	0.082922	0.063843	0.066569	0.058392	0.065661	0.080196	0.170137	0.224646	0.275522	0.258261	0.167412	0.043857	0.044267	0.154194	0.163279	0.156012	0.195985	0.220514	0.190534	0.134208	0.002066	0.110177	0.202843	0.265529	0.207385	0.103817	0.014785	0.056986	0.148743	0.263214	0.403121	0.525767	0.536669	0.464898	0.390402	0.323173	0.190534	0.081515	0.037497	0.141974	0.191941	0.178314	0.115628	0.065661	0.041132	0.006609	0.064752	0.119262	0.075654	0.062027	0.163778	0.196483	0.171045	0.143791	0.144699	0.102000	0.033864	0.056986	0.075156	0.086966	0.091509	0.081515	0.039724	0.033365	0.003385	0.025687	0.033864	0.038406	0.052942	0.048399	0.073837	0.047491	0.003883	0.009334	0.036589	0.074745	0.086556	0.090190	0.057484	0.041132	0.041132	0.037497	0.013877	0.007927	0.032457	0.020646	0.005700	0.027504	0.036589	0.101092	0.120170	0.156510	0.153784	0.146517	0.100183	0.032955	0.050626	0.083332	0.079698	0.055168	0.058803	0.083332	0.094234	0.017012	0.044765	0.073837	0.042948	0.008426	0.067478	0.125621	0.090190	0.002975	0.099685	0.171456	0.157828	0.165096	0.185991	0.224148	0.245952	0.235050	0.215971	0.197802	0.150561	0.119671	0.107862	0.090600	0.029731	0.072929	0.144699	0.173771	0.155601	0.188307	0.190124	0.161052	0.126530	0.097458	0.006609	0.074247	0.083332	0.116946	0.132390	0.125122	0.116946	0.117855	0.138750	0.117855	0.051535	0.029321	0.080196	0.102000	0.055667	0.035681	0.052033	0.079288	0.064752	0.063843	0.068386	0.091098	0.073837	0.047491	0.034772	0.037497	0.017511	0.021144	0.045674	0.052033	0.074745	0.060210	0.051125	0.058392	0.109268	0.171954	0.182856	0.173771	0.126530	0.043857	0.034273	0.055168	0.015195	0.035182	0.050626	0.023371	0.011561	0.029321	0.136523	0.174680	0.166503	0.088373	0.010242	0.091509	0.201436	0.272298	0.344977	0.362239	0.344977	0.298644	0.215064	0.058803	0.000659	0.011151	0.074745	0.104726	0.114719	0.128346	0.094732	0.063843	0.048399	0.061118	0.072929	0.041132	0.000659	0.012060	0.024280	0.056986	0.056986	0.079698	0.106953	0.098776	0.035182	0.026595	0.109268	0.160144	0.150150	0.082014	0.055667	0.049308	0.010242	0.066979	0.091509	0.066070	0.053352	0.034273	0.033864	0.092007	0.148333	0.191941	0.172863	0.105634	0.034273	0.140567	0.176907	0.203253	0.213246	0.195076	0.167821	0.096960	0.037908	0.075654	0.119262	0.099275	0.099275	0.072929	0.041132	0.057484	0.039314	0.017920	0.049717	0.050626	0.042450	0.001567	0.022053	0.046582	0.038406	0.045674	0.012060	0.011561	0.030639	0.028822	0.037908	0.065162	0.044267	0.011561	0.028822	0.036999	0.002975	0.050216	0.060210	0.045674	0.034772	0.061118	0.150150	0.204660	0.238274	0.247359	0.224646	0.183765	0.110177	0.014287	0.122397	0.164188	0.151468	0.150561	0.157828	0.155103	0.118763	0.109678	0.052443	0.004791	0.052942	0.085647	0.116536	0.155601	0.166503	0.123804	0.101092	0.075654	0.023870	0.068796	0.096051	0.136933	0.175090	0.159645	0.180541	0.193260	0.170547	0.154194	0.126940	0.136933	0.109678	0.099685	0.077881	0.000249	0.039314	0.059301	0.046582	0.017511	0.020236	0.053850	0.051125	0.025687	0.052033	0.042948	0.086058	0.128757	0.072430	0.022463	0.054759	0.052033	0.054759	0.109268	0.147425	0.095641	0.006609	0.017511	0.020236	0.037497	0.024779	0.026595	0.052942	0.090190	0.103817	0.107451	0.075654	0.106543	0.145608	0.177405	0.151967	0.112902	0.013877	0.089691	0.127848	0.109678	0.130573	0.150561	0.116946	0.095142	0.038816	0.017511	0.037497	0.042040	0.078380	0.062027	0.062935	0.152876	0.201026	0.213745	0.245542	0.217379	0.151967	0.072020	0.005202	0.082423	0.146018	0.180541	0.209613	0.197802	0.159645	0.147835	0.123306	0.082423	0.129665	0.186900	0.220514	0.244135	0.196893	0.114220	0.012469	0.000249	0.006110	0.072020	0.138340	0.118353	0.073837	0.062935	0.016602	0.017920	0.046992	0.087874	0.139659	0.121489	0.106953	0.069705	0.036090	0.032046	0.072020	0.109268	0.119262	0.219196	0.257352	0.270979	0.322764	0.385450	0.350019	0.325489	0.355470	0.310045	0.223738	0.085647	0.060619	0.241410	0.397670	0.513049	0.556656	0.581185	0.553930	0.449454	0.338618	0.225965	0.119671	0.009744	0.126530	0.147425	0.137431	0.141066	0.189216	0.256444	0.280065	0.212836	0.148333	0.100183	0.021144	0.053352	0.036999	0.002476	0.015195	0.049717	0.029731	0.009744	0.003385	0.006609	0.018419	0.039314	0.042948	0.057484	0.069294	0.045674	0.029321	0.023371	0.046084	0.052443	0.034273	0.002975	0.050216	0.063843	0.061118	0.062935	0.072020	0.049308	0.013378	0.025188	0.036999	0.026097	0.004293	0.104726	0.133797	0.122895	0.177405	0.221013	0.237366	0.200118	0.155601	0.047491	0.003385	0.014287	0.079698	0.056077	0.054260	0.060619	0.088783	0.161463	0.154194	0.203253	0.300462	0.307729	0.283200	0.280474	0.261396	0.175090	0.064254	0.010242	0.048399	0.041132	0.014287	0.112404	0.135116	0.126940	0.066070	0.026595	0.061118	0.094732	0.135615	0.161961	0.158327	0.077471	0.002066	0.002975	0.041132	0.071112	0.024779	0.073339	0.084240	0.024280	0.010242	0.019328	0.026595	0.042040	0.092915	0.161961	0.205568	0.195575	0.191941	0.173771	0.191032	0.217379	0.207385	0.160144	0.102000	0.141066	0.157418	0.072020	0.035182	0.164188	0.317722	0.462173	0.447637	0.336801	0.284109	0.235959	0.130573	0.097867	0.072430	0.033365	0.000249	0.060210	0.108360	0.094732	0.131981	0.191941	0.208294	0.189216	0.121079	0.073837	0.057484	0.030230	0.038816	0.062437	0.069705	0.043359	0.008426	0.029321	0.030230	0.030230	0.058803	0.222331	0.302278	0.261396	0.160554	0.107862	0.052443	0.001567	0.023870	0.022962	0.071112	0.092915	0.094732	0.102909	0.078380	0.056576	0.105634	0.165595	0.191941	0.240999	0.257352	0.226464	0.216470	0.171954	0.042948	0.089691	0.175090	0.166913	0.125122	0.190534	0.243226	0.196893	0.171456	0.103318	0.062437	0.008836	0.034772	0.029321	0.026595	0.149242	0.241908	0.235548	0.191032	0.082922	0.048399	0.036589	0.023371	0.068796	0.106044	0.114220	0.096051	0.078789	0.086966	0.027006	0.026097	0.131482	0.233233	0.227782	0.156919	0.161463	0.175090	0.119671	0.100593	0.025188	0.054759	0.089282	0.117444	0.115628	0.073837	0.054759	0.035681	0.016104	0.056077	0.046084	0.009334	0.029321	0.018829	0.057894	0.052443	0.015195	0.000659	0.012968	0.030230	0.056576	0.066569	0.072020	0.070203	0.063843	0.099275	0.125621	0.154693	0.133797	0.102000	0.094732	0.057484	0.022053	0.010242	0.021144	0.029321	0.047491	0.021144	0.014785	0.042948	0.094732	0.100183	0.096549	0.105634	0.102909	0.071112	0.036589	0.014287	0.081515	0.165096	0.175090	0.225965	0.285017	0.221422	0.149652	0.149652	0.076972	0.017920	0.042948	0.098366	0.117444	0.156510	0.191941	0.193758	0.163778	0.166503	0.162869	0.170137	0.140157	0.088373	0.032955	0.059711	0.156012	0.260488	0.304095	0.321357	0.303187	0.329533	0.343161	0.279566	0.185083	0.116946	0.103318	0.059711	0.006110	0.035681	0.088373	0.101092	0.090190	0.096549	0.078380	0.075654	0.088373	0.093824	0.102909	0.088373	0.083831	0.095641	0.108360	0.122895	0.107451	0.082922	0.060210	0.057484	0.045674	0.044765	0.032046	0.023870	0.023870	0.009334	0.024280	0.018829	0.000249	0.003883	0.012968	0.027504	0.029321	0.032955	0.021144	0.021144	0.023870	0.033864	0.033864	0.027504	0.009334	0.006110	0.039724	0.046084	0.048810	0.045175	0.063345	0.052443	0.052443	0.043359	0.039724	0.002476	0.005700	0.006609	0.015693	0.025687	0.001567	0.012968	0.003883	0.031138	0.050216	0.072020	0.070203	0.053850	0.012060	0.001567	0.015693	0.012968	0.015195	0.047901	0.073339	0.032457	0.017920	0.023371	0.015195	0.054260	0.051535	0.015195	0.007517	0.045674	0.030230	0.017920	0.022463	0.048810	0.060619	0.078789	0.086058	0.073339	0.083332	0.075156	0.009744	0.005700	0.012469	0.028822	0.017920	0.003883	0.007517	0.030230	0.032046	0.017511	0.039314	0.042948	0.041132	0.056576	0.050216	0.038406	0.009334	0.035182	0.055168	0.022463	0.015693	0.022053	0.031138	0.038406	0.028413	0.016602	0.012968	0.001567	0.006609	0.014785	0.028413	0.027504	0.019328	0.006110	0.001158	0.009334	0.005700	0.007517	0.006609	0.008426	0.012968	0.010242	0.021144	0.021144	0.014785	0.021144	0.018419	0.019328	0.005700	0.001567	0.002066	0.006110	0.016104	0.013378	0.003385	0.001158	0.007927	0.019737	0.017920	0.000249	0.002066	0.013378	0.002476	0.006609	0.021144	0.000659	0.007018	0.017920	0.006110	0.007927	0.003385	0.001158	0.002066	0.006609	0.012968	0.012060	0.010242	0.005700	0.012968	0.006609	0.004791	0.005700	0.009334	0.007927	0.026097	0.027006	0.020646	0.001567	0.006609	0.010242	0.003883	0.001158	0.011151	0.028413	0.030230	0.050216	0.084739	0.093824	0.094732	0.105634	0.073837	0.033864	0.036999	0.055168	0.103318	0.131482	0.140567	0.095142	0.095142	0.092417	0.089691	0.067888	0.048810	0.013378	0.002975	0.024779	0.031138	0.004791	0.015195	0.012469	0.000659	0.002975	0.002066	0.016602	0.009334	0.006609	0.016602	0.022053	0.011151	0.040223	0.045674	0.056576	0.070203	0.082014	0.069294	0.066569	0.052033	0.032955	0.002476	0.033365	0.057894	0.075156	0.072430	0.056986	0.055168	0.052443	0.035182	0.016104	0.004293	0.005700	0.007517	0.002066	0.003883	0.006609	0.011151	0.023870	0.024779	0.023870	0.018419	0.016602	0.022962	0.026595	0.022962	0.024779	0.019328	0.012060	0.007517	0.014287	0.030639	0.010653	0.006609	0.010242	0.018419	0.024779	0.020236	0.010242	0.011151	0.015693	0.008426	0.004791	0.001158	0.004791	0.005700	0.009744	0.012469	0.007517	0.010242	0.005700	0.001567	0.010653	0.015195	0.011561	0.028822	0.039724	0.033365	0.012469	0.001158	0.013877	0.010242	0.004791	0.000659	0.002476	0.008426	0.017511	0.004791	0.004293	0.001567	0.001158	0.017012	0.017012	0.009744	0.013378	0.000249	0.006609	0.022962	0.047491	0.042040	0.036589	0.026595	0.022053	0.016602	0.017012	0.036090	0.050626	0.030639	0.005202	0.015195	0.005202	0.034772	0.040223	0.039314	0.034772	0.058392	0.024779	0.018419	0.026595	0.062935	0.051125	0.015693	0.005700	0.057894	0.121489	0.133299	0.140567	0.073339	0.042450	0.005202	0.022962	0.025687	0.025687	0.018419	0.041132	0.061118	0.063843	0.034772	0.011151	0.010653	0.047901	0.087874	0.103318	0.127848	0.133299	0.115129	0.081515	0.050626	0.023371	0.000659	0.018419	0.026595	0.042040	0.052033	0.053850	0.042040	0.039314	0.052942	0.053850	0.050216	0.046582	0.046582	0.041132	0.028413	0.016602	0.010242	0.012968	0.004791	0.011151	0.011151	0.008426	0.002476	0.018419	0.017511	0.010242	0.019328	0.008426	0.007018	0.000659	0.008426	0.012968	0.005700	0.009334	0.003883	0.006609	0.002975	0.011561	0.024280	0.000659	0.004791	0.000659	0.016104	0.005202	0.033365	0.030639	0.022463	0.031548	0.040633	0.019737	0.013378	0.002476	0.000249	0.010242	0.013877	0.029321	0.024779	0.033864	0.036589	0.038406	0.032955	0.032955	0.026595	0.021144	0.001158	0.005202	0.009744	0.015195	0.032457	0.027006	0.022463	0.016104	0.000659	0.008426	0.006110	0.017920	0.034273	0.035182	0.019737	0.010653	0.006110	0.001567	0.000249	0.016104	0.029731	0.007018	0.009334	0.013877	0.010242	0.032046	0.024779	0.017511	0.008426	0.017511	0.024779	0.033864	0.042948	0.060210	0.053850	0.042040	0.005700	0.005202	0.015195	0.029731	0.030639	0.023371	0.027006	0.014287	0.033365	0.007927	0.011151	0.012968	0.010242	0.015693	0.006609	0.011151	0.014785	0.021144	0.022962	0.022962	0.003385	0.051535	0.081515	0.089691	0.069705	0.064254	0.060619	0.038816	0.023371	0.019737	0.017012	0.002066	0.010242	0.009744	0.013378	0.017012	0.020646	0.020646	0.014287	0.007927	0.018419	0.029321	0.037497	0.029321	0.026595	0.025687	0.015693	0.012060	0.013877	0.022962	0.031138	0.024779	0.011151	0.013877	0.028413	0.027504	0.023870	0.022962	0.022053	0.012968	0.008426	0.001158	0.010242	0.009334	0.011151	0.017511	0.030230	0.026595	0.025687	0.024779	0.019328	0.014785	0.011151	0.007018	0.014287	0.007018	0.012469	0.017012	0.026097	0.031548	0.016104	0.026097	0.020646	0.007927	0.013378	0.018829	0.027914	0.024280	0.037908	0.020646	0.027006	0.022463	0.010653	0.014785	0.013877	0.014785	0.006110	0.009744	0.007018	0.020236	0.036589	0.050216	0.042948	0.049308	0.043857	0.047491	0.021144	0.011151	0.019737	0.038816	0.061528	0.058803	0.058803	0.053352	0.055168	0.041541	0.033365	0.018829	0.004791	0.021144	0.036589	0.032046	0.035681	0.021144	0.021144	0.017511	0.014785	0.004293	0.003385	0.000659	0.003883	0.004293	0.020646	0.031548	0.014287	0.002476	0.006609	0.000659	0.001158	0.002066	0.005700	0.007927	0.007927	0.000659	0.011151	0.019328	0.028413	0.033864	0.033864	0.030230	0.032046	0.022053	0.006609	0.013877	0.023870	0.027504	0.015693	0.006609	0.007927	0.019737	0.036999	0.062437	0.067888	0.041541	0.027914	0.011561	0.003385	0.002975	0.000659	0.014287	0.019737	0.007927	0.002975	0.021144	0.040223	0.051125	0.058392	0.066569	0.081105	0.071112	0.045674	0.032046	0.008426	0.024280	0.048810	0.075156	0.113312	0.153286	0.118763	0.100593	0.078789	0.056986	0.017920	0.004293	0.010653	0.006110	0.006110	0.012968	0.013877	0.013877	0.037497	0.063843	0.059301	0.060210	0.057484	0.050216	0.038406	0.032046	0.022962	0.022053	0.020236	0.015693	0.002066	0.007927	0.002476	0.000249	0.008836	0.012469	0.017012	0.013378	0.017012	0.033365	0.036999	0.028822	0.027914	0.027914	0.044267	0.028822	0.002476	0.012060	0.009334	0.014785	0.019328	0.009334	0.006609	0.010242	0.012968	0.022053	0.012060	0.012060	0.005202	0.007927	0.005202	0.005700	0.006110	0.000249	0.011151	0.018419	0.012968	0.002476	0.005202	0.002066	0.007517	0.022053	0.029321	0.020236	0.018419	0.018419	0.026595	0.016602	0.009334	0.015195	0.033365	0.052443	0.045175	0.036999	0.027914	0.023371	0.022463	0.016104	0.000659	0.009334	0.001158	0.006609	0.002066	0.006609	0.009334	0.017511	0.012060	0.009334	0.006609	0.012968	0.013877	0.015693	0.021144	0.042040	0.033864	0.016602	0.005700	0.005202	0.018829	0.024280	0.031548	0.032457	0.034273	0.021555	0.007018	0.002476	0.000249	0.003883	0.004791	0.012469	0.024280	0.020646	0.025188	0.002476	0.026595	0.050216	0.060210	0.063843	0.062935	0.055667	0.040223	0.005700	0.044267	0.074247	0.080607	0.083332	0.088783	0.083332	0.056077	0.042450	0.022463	0.006110	0.006609	0.007517	0.011151	0.012060	0.016602	0.012968	0.019328	0.016602	0.014785	0.016602	0.019328	0.012968	0.020236	0.011151	0.018419	0.016602	0.018419	0.028413	0.032955	0.044765	0.036589	0.034772	0.035681	0.031138	0.010242	0.001158	0.011561	0.027006	0.036999	0.034273	0.036090	0.045175	0.043359	0.035182	0.036090	0.014287	0.009334	0.021144	0.028413	0.021144	0.026595	0.021144	0.014785	0.005700	0.003883	0.017012	0.015195	0.025188	0.017920	0.019737	0.008836	0.007018	0.012968	0.035681	0.041132	0.030230	0.013877	0.005202	0.015195	0.017012	0.016104	0.030639	0.002975	0.025687	0.032955	0.019328	0.018419	0.016602	0.008426	0.010653	0.009744	0.026097	0.012469	0.022463	0.016104	0.014287	0.010653	0.005202	0.002066	0.003883	0.008426	0.001158	0.000659	0.000659	0.004293	0.019737	0.012469	0.008836	0.002066	0.006110	0.009744	0.004293	0.002066	0.003883	0.012060	0.004791	0.012060	0.013877	0.017511	0.010242	0.025687	0.016602	0.022053	0.049308	0.054759	0.038406	0.030230	0.007517	0.003385	0.008836	0.018829	0.005202	0.019328	0.032046	0.039314	0.035681	0.029321	0.006110	0.031548	0.058803	0.066979	0.081515	0.083332	0.075156	0.057894	0.041541	0.017920	0.013378	0.003385	0.007927	0.003883	0.014287	0.013378	0.024280	0.024280	0.019737	0.017012	0.022463	0.000659	0.017511	0.034772	0.028413	0.033864	0.034772	0.039314	0.032955	0.030230	0.028413	0.029321	0.019328	0.017511	0.002476	0.011561	0.019737	0.004293	0.002066	0.010242	0.002066	0.010242	0.009334	0.001158	0.003385	0.004791	0.003883	0.012968	0.013877	0.008426	0.002476	0.003385	0.002476	0.002476	0.000659	0.002975	0.019328	0.037497	0.059301	0.063843	0.050216	0.030230	0.006609	0.028822	0.062437	0.076972	0.080607	0.086966	0.064254	0.030639	0.017920	0.002975	0.023870	0.018419	0.008426	0.002975	0.010242	0.000659	0.002476	0.008836	0.009744	0.020236	0.014785	0.003385	0.002476	0.006110	0.007517	0.016104	0.033365	0.040633	0.018829	0.004791	0.013877	0.012060	0.009334	0.010242	0.006609	0.010242	0.019328	0.022962	0.021144	0.024779	0.021144	0.019328	0.006609	0.002066	0.005700	0.024779	0.026595	0.049308	0.050216	0.052942	0.051125	0.038406	0.027504	0.022053	0.012060	0.000659	0.022463	0.049717	0.080607	0.082423	0.072430	0.071521	0.052443	0.044267	0.036999	0.036090	0.024280	0.006110	0.017511	0.038406	0.042040	0.048399	0.058392	0.070203	0.070203	0.050216	0.017511	0.011561	0.037908	0.045175	0.044267	0.040633	0.056986	0.065162	0.066979	0.046084	0.026097	0.008836	0.007927	0.000249	0.005700	0.022053	0.022053	0.009334	0.002066	0.004791	0.016602	0.016602	0.021144	0.021144	0.022053	0.019328	0.022053	0.012060	0.010242	0.005700	0.009334	0.010242	0.012060	0.008836	0.019737	0.010653	0.000659	0.001158	0.004791	0.002476	0.001567	0.002975	0.004791	0.004791	0.003883	0.002066	0.006609	0.006609	0.003883	0.003883	0.004791	0.000249	0.008426	0.001158	0.001158	0.000659	0.003883	0.002066	0.003883	0.008426	0.006609	0.006609	0.009334	0.004791	0.002476	0.006609	0.022053	0.028413	0.017511	0.008426	0.005700	0.011151	0.029321	0.010242	0.031548	0.044267	0.052443	0.043359	0.033365	0.027914	0.035182	0.015195	0.003883	0.005202	0.015195	0.015195	0.016104	0.002066	0.009334	0.032046	0.028413	0.009334	0.003883	0.019328	0.003883	0.004791	0.015693	0.023870	0.021144	0.025687	0.031138	0.045674	0.053850	0.061118	0.045674	0.023870	0.028413	0.012968	0.022463	0.061528	0.090600	0.089691	0.094234	0.086058	0.076972	0.076064	0.076972	0.043359	0.029731	0.012469	0.001567	0.005700	0.002975	0.012060	0.009334	0.014785	0.014785	0.022962	0.023870	0.035681	0.034772	0.030230	0.019328	0.022962	0.016602	0.013877	0.004791	0.013877	0.009334	0.011151	0.001158	0.004791	0.000249	0.006609	0.002066	0.005700	0.000659	0.012968	0.001158	0.000659	0.001567	0.003883	0.005700	0.008426	0.003883	0.001158	0.002476	0.001567	0.000659	0.001158	0.002476	0.000659	0.002975	0.003385	0.006110	0.002066	0.004791	0.002066	0.002066	0.002476	0.000249	0.011561	0.004293	0.000659	0.004791	0.002066	0.012060	0.005700	0.011151	0.014785	0.019328	0.013877	0.013877	0.014785	0.015693	0.007517	0.002975	0.003385	0.011561	0.028822	0.011561	0.001158	0.029321	0.045674	0.064752	0.059301	0.042948	0.019328	0.003385	0.031548	0.064254	0.095142	0.106953	0.106953	0.099685	0.076972	0.058803	0.032457	0.015195	0.000659	0.010242	0.023870	0.032955	0.037497	0.023870	0.012060	0.013877	0.013877	0.013877	0.014785	0.011151	0.022962	0.034772	0.041132	0.045674	0.045674	0.049308	0.036589	0.028413	0.013877	0.002476	0.022463	0.022463	0.030639	0.030639	0.028822	0.033365	0.038816	0.036999	0.028822	0.006110	0.007517	0.024779	0.009334	0.010653	0.022463	0.017920	0.004293	0.013877	0.022962	0.017511	0.003883	0.002975	0.002975	0.000659	0.010242	0.003385	0.025188	0.026097	0.011561	0.005202	0.003883	0.000659	0.002975	0.002066	0.010242	0.008426	0.011151	0.007517	0.012060	0.007517	0.008426	0.007517	0.013877	0.002975	0.001158	0.000659	0.011151	0.002066	0.007517	0.003883	0.006609	0.007517	0.025687	0.022962	0.032955	0.037497	0.048399	0.040223	0.044765	0.032046	0.010242	0.027914	0.058803	0.087874	0.103318	0.112404	0.094234	0.068796	0.038816	0.020646	0.002975	0.023870	0.034772	0.037497	0.039314	0.026595	0.024779	0.021144	0.008426	0.000659	0.010242	0.013877	0.020236	0.020236	0.024779	0.013877	0.022053	0.004791	0.000659	0.007018	0.011561	0.032457	0.028822	0.032457	0.034273	0.027914	0.012469	0.010653	0.003385	0.006609	0.010242	0.013877	0.006609	0.007018	0.006110	0.005700	0.000659	0.001158	0.015693	0.019328	0.012060	0.004791	0.010242	0.002066	0.000659	0.007927	0.015195	0.000659	0.002066	0.011151	0.003883	0.013877	0.011151	0.027504	0.032046	0.041132	0.037497	0.039314	0.027504	0.021144	0.002476	0.016104	0.028822	0.029731	0.036999	0.028822	0.036999	0.036090	0.044267	0.030639	0.017012	0.002476	0.009334	0.010242	0.012968	0.004791	0.001567	0.002066	0.002975	0.013877	0.011151	0.006609	0.007517	0.005700	0.004791	0.001158	0.009334	0.005700	0.000249	0.007927	0.000659	0.003883	0.012968	0.011151	0.009334	0.002066	0.001158	0.001158	0.010242	0.000659	0.004293	0.017012	0.007927	0.002476	0.004791	0.003883	0.006609	0.002975	0.014785	0.018419	0.025687	0.021144	0.023870	0.018419	0.020236	0.010242	0.006110	0.024280	0.031548	0.031548	0.028822	0.026097	0.027006	0.019737	0.002476	0.002975	0.010242	0.017511	0.010242	0.006609	0.001567	0.005202	0.004293	0.007927	0.002066	0.002066	0.006609	0.000659	0.004791	0.004791	0.006609	0.006609	0.008426	0.012968	0.018419	0.029321	0.040223	0.048399	0.057484	0.062027	0.053850	0.032955	0.018419	0.010653	0.048810	0.067888	0.080607	0.079698	0.075156	0.066070	0.055168	0.050626	0.031548	0.003385	0.004791	0.014785	0.022053	0.019328	0.036589	0.052033	0.063843	0.053850	0.043857	0.022962	0.007517	0.023371	0.039724	0.055168	0.064254	0.070613	0.052443	0.040633	0.039724	0.017012	0.002066	0.021144	0.020236	0.017511	0.017511	0.022962	0.016602	0.011151	0.008426	0.010242	0.010242	0.012968	0.011151	0.021144	0.014785	0.014785	0.013877	0.013877	0.002066	0.006609	0.009334	0.023870	0.024779	0.034772	0.028413	0.028413	0.019328	0.016602	0.011151	0.000659	0.017012	0.030639	0.041541	0.045175	0.040633	0.031548	0.018829	0.007927	0.002975	0.015693	0.013877	0.012060	0.008426	0.009334	0.004791	0.003883	0.005700	0.006609	0.005700	0.001567	0.002975	0.000249	0.007927	0.018829	0.006110	0.008836	0.002975	0.006609	0.026595	0.030230	0.038406	0.037497	0.046582	0.027504	0.021144	0.006110	0.032457	0.065162	0.066070	0.072430	0.067888	0.066070	0.048810	0.030639	0.004293	0.007517	0.022053	0.024779	0.032046	0.029321	0.033864	0.028413	0.036589	0.020236	0.010242	0.003385	0.011561	0.026097	0.021555	0.020646	0.011561	0.006110	0.001567	0.002476	0.004791	0.006609	0.008426	0.005700	0.007517	0.009334	0.016602	0.020236	0.009334	0.002975	0.026595	0.048399	0.052033	0.058392	0.056576	0.053850	0.049308	0.031138	0.005202	0.054260	0.076064	0.080607	0.091509	0.094234	0.099685	0.084240	0.056077	0.017012	0.002066	0.011151	0.009334	0.008426	0.009334	0.020236	0.023870	0.024779	0.018419	0.023870	0.021144	0.021144	0.018419	0.014785	0.017511	0.008426	0.000659	0.010653	0.007927	0.000659	0.004791	0.002066	0.002066	0.001567	0.008426	0.002975	0.006609	0.009334	0.012968	0.006609	0.006609	0.006609	0.021144	0.016602	0.017511	0.022053	0.034772	0.042948	0.051125	0.045674	0.052033	0.052942	0.050216	0.042948	0.002975	0.036999	0.070613	0.108769	0.121489	0.110587	0.086966	0.065162	0.022463	0.005202	0.008426	0.022053	0.029321	0.016602	0.012060	0.001158	0.022962	0.021144	0.022053	0.033864	0.048399	0.064752	0.071112	0.082014	0.072020	0.043857	0.026595	0.030230	0.001567	0.065162	0.099685	0.126031	0.122397	0.118763	0.125122	0.125122	0.101502	0.061528	0.028822	0.001567	0.014785	0.014785	0.024779	0.028413	0.036589	0.039314	0.048399	0.051125	0.068386	0.069294	0.078380	0.085647	0.083831	0.070203	0.054759	0.041132	0.032046	0.002066	0.034273	0.064254	0.058803	0.048810	0.052443	0.039724	0.014287	0.002975	0.012968	0.024779	0.041132	0.056576	0.068386	0.051125	0.042948	0.024779	0.018829	0.041541	0.027006	0.005700	0.065661	0.070203	0.065661	0.049308	0.036589	0.016602	0.011561	0.059711	0.056077	0.025188	0.013378	0.014287	0.013877	0.014785	0.037908	0.070613	0.063345	0.013378	0.042948	0.070203	0.056576	0.023870	0.008836	0.066979	0.113312	0.143292	0.140567	0.111495	0.063345	0.017012	0.039314	0.077471	0.082014	0.090190	0.072020	0.034772	0.008836	0.026097	0.082423	0.131482	0.146926	0.155103	0.151468	0.114220	0.096051	0.104227	0.076972	0.030639	0.024779	0.082922	0.154693	0.211928	0.245542	0.231915	0.211928	0.193758	0.109268	0.013877	0.056986	0.101502	0.153286	0.174181	0.126031	0.053352	0.021555	0.039724	0.025188	0.003883	0.027504	0.001158	0.043359	0.046084	0.017920	0.002975	0.003883	0.020236	0.091098	0.144699	0.168320	0.142882	0.130164	0.111994	0.079288	0.049308	0.016104	0.073339	0.106044	0.115129	0.124214	0.120580	0.140567	0.131482	0.091509	0.046084	0.015195	0.018419	0.038406	0.067478	0.090190	0.087465	0.059301	0.057484	0.068386	0.080196	0.073837	0.067478	0.054759	0.074745	0.122895	0.146517	0.147425	0.159235	0.129255	0.091098	0.021144	0.064254	0.139659	0.190534	0.220514	0.240501	0.214155	0.205978	0.173272	0.146018	0.141475	0.093325	0.041541	0.031548	0.040633	0.032457	0.000659	0.027504	0.057484	0.059301	0.040223	0.038406	0.044765	0.061118	0.063843	0.065661	0.028413	0.027504	0.039314	0.025687	0.052942	0.075654	0.090190	0.097458	0.074745	0.048399	0.060210	0.081105	0.055667	0.012968	0.036090	0.030639	0.021555	0.016104	0.027914	0.054260	0.041541	0.000659	0.075156	0.083332	0.051535	0.020236	0.046582	0.102909	0.147425	0.142882	0.118353	0.088373	0.042948	0.026097	0.064254	0.049717	0.048810	0.050626	0.038816	0.019737	0.034273	0.060619	0.071521	0.064254	0.064254	0.031548	0.044267	0.091509	0.114220	0.142384	0.133299	0.111495	0.104227	0.091509	0.078789	0.014785	0.093824	0.148333	0.201026	0.219196	0.181039	0.122895	0.055667	0.033365	0.096051	0.114220	0.146018	0.141475	0.127848	0.123306	0.101502	0.056986	0.043857	0.145608	0.141066	0.110177	0.115628	0.124713	0.108360	0.083831	0.080196	0.092007	0.082014	0.074745	0.076563	0.058392	0.008836	0.065162	0.070613	0.082423	0.112404	0.138750	0.132390	0.097867	0.060619	0.023870	0.090190	0.113811	0.086556	0.044765	0.041132	0.040223	0.027504	0.016104	0.077881	0.098776	0.076972	0.076972	0.083332	0.027006	0.054759	0.126530	0.123804	0.115628	0.104726	0.078380	0.038406	0.033864	0.018829	0.086966	0.085149	0.126031	0.161463	0.140567	0.151468	0.144201	0.090600	0.066070	0.066070	0.090600	0.064254	0.027914	0.015693	0.032955	0.061118	0.091098	0.110177	0.111085	0.134706	0.180130	0.201934	0.215562	0.191032	0.153784	0.128346	0.093824	0.000659	0.063345	0.069705	0.063345	0.086058	0.142384	0.182358	0.158737	0.125122	0.102411	0.054260	0.027006	0.026097	0.045175	0.057894	0.037908	0.027006	0.023371	0.043359	0.049717	0.026097	0.000249	0.038406	0.046582	0.029321	0.024779	0.051125	0.091098	0.101092	0.094732	0.088373	0.081105	0.062935	0.043857	0.028413	0.033864	0.012060	0.001567	0.018829	0.036999	0.069705	0.105136	0.117855	0.095142	0.062437	0.047901	0.023371	0.033365	0.000249	0.062935	0.102000	0.138340	0.185581	0.191941	0.145608	0.084739	0.003883	0.099685	0.194168	0.189625	0.187809	0.195985	0.154194	0.096051	0.050626	0.004791	0.028413	0.035681	0.018419	0.021144	0.031138	0.042040	0.060210	0.068386	0.041132	0.051125	0.058392	0.063843	0.030230	0.012469	0.027006	0.043359	0.045175	0.007018	0.009334	0.034772	0.059301	0.078380	0.101092	0.103817	0.141066	0.178314	0.214653	0.193758	0.192849	0.149242	0.073837	0.039724	0.153286	0.224148	0.229599	0.249586	0.249586	0.233233	0.239593	0.235959	0.191442	0.120580	0.076972	0.057894	0.051535	0.007018	0.026595	0.062027	0.076563	0.074745	0.077471	0.068386	0.068386	0.092915	0.136523	0.140157	0.126530	0.151059	0.157418	0.164686	0.199209	0.179222	0.099275	0.012968	0.080607	0.139659	0.207795	0.266847	0.251403	0.200527	0.142384	0.088783	0.053352	0.036090	0.009744	0.013877	0.028413	0.042040	0.043857	0.036589	0.034772	0.025687	0.022962	0.003883	0.002476	0.007517	0.027504	0.043857	0.051125	0.077471	0.079288	0.071112	0.066569	0.046582	0.041132	0.035681	0.031138	0.012060	0.005202	0.017012	0.014287	0.009744	0.016104	0.001158	0.020236	0.017511	0.009334	0.010242	0.018419	0.000659	0.036999	0.036090	0.004293	0.022962	0.022053	0.017511	0.008426	0.001567	0.009744	0.058803	0.079698	0.049717	0.046992	0.036999	0.014287	0.014785	0.007517	0.003883	0.000659	0.016602	0.002066	0.006110	0.010242	0.045674	0.050216	0.046582	0.036589	0.010242	0.031548	0.038816	0.078789	0.072430	0.030639	0.025188	0.001567	0.022962	0.017511	0.012968	0.003385	0.000659	0.003385	0.007927	0.004791	0.015693	0.004293	0.011561	0.021144	0.050216	0.037497	0.035681	0.021144	0.012469	0.059711	0.056986	0.059711	0.029731	0.041541	0.036090	0.013378	0.003385	0.008836	0.007927	0.003883	0.013877	0.019328	0.019328	0.014785	0.013877	0.010242	0.007517	0.009334	0.008426	0.013877	0.017511	0.014785	0.012968	0.015693	0.007517	0.013877	0.006609	0.001158	0.007927	0.004293	0.000659	0.006609	0.012968	0.010242	0.006609	0.020236	0.020236	0.046582	0.034772	0.097458	0.112902	0.110177	0.040223	0.022463	0.054260	0.086058	0.086058	0.089691	0.096960	0.047901	0.033365	0.018829	0.032457	0.035182	0.031548	0.019737	0.005700	0.027504	0.035681	0.042040	0.034772	0.025687	0.002476	0.041541	0.054260	0.050626	0.027006	0.020646	0.009334	0.036589	0.037497	0.020236	0.003883	0.031548	0.036999	