LabVIEW Measurement,
Writer_Version,2
Reader_Version,2
Separator,Comma
Decimal_Separator,.
Multi_Headings,No
X_Columns,Multi
Time_Pref,Absolute
Operator,Dymnz
Date,2017/09/16
Time,14:01:15.3432787833531931774
***End_of_Header***,
,
Channels,1,
Samples,1000,
Date,2017/09/16,
Time,14:01:15.3432787833531931774,
Y_Unit_Label,Volts,
X_Dimension,Time,
X0,0.0000000000000000E+0,
Delta_X,0.001000,
***End_of_Header***,,
X_Value,Voltage,Comment
0.000000,-1.893820
0.001000,-2.301126
0.002000,-2.611696
0.003000,-2.623152
0.004000,-2.503506
0.005000,-2.201845
0.006000,-1.789448
0.007000,-1.672348
0.008000,-1.436874
0.009000,-1.357959
0.010000,-1.323592
0.011000,-1.235767
0.012000,-0.813187
0.013000,-0.684631
0.014000,-1.212856
0.015000,-1.679985
0.016000,-1.976554
0.017000,-2.446228
0.018000,-2.461502
0.019000,-2.130566
0.020000,-1.739808
0.021000,-1.393598
0.022000,-0.918832
0.023000,-0.631173
0.024000,-0.501344
0.025000,-0.347332
0.026000,-0.062218
0.027000,-0.328239
0.028000,-0.419883
0.029000,-0.556076
0.030000,-0.671903
0.031000,-1.086846
0.032000,-1.363050
0.033000,-2.027467
0.034000,-2.480595
0.035000,-2.600241
0.036000,-2.490777
0.037000,-1.988009
0.038000,-1.407599
0.039000,-1.072845
0.040000,-0.979928
0.041000,-0.862828
0.042000,-0.879374
0.043000,-1.051207
0.044000,-1.258678
0.045000,-1.258678
0.046000,-1.112302
0.047000,-0.785185
0.048000,-0.762274
0.049000,-1.051207
0.050000,-1.249768
0.051000,-1.247222
0.052000,-1.169580
0.053000,-1.198855
0.054000,-1.455966
0.055000,-1.626526
0.056000,-1.881092
0.057000,-2.721159
0.058000,-2.899356
0.059000,-2.744070
0.060000,-2.265486
0.061000,-1.830178
0.062000,-1.639254
0.063000,-1.440693
0.064000,-1.343957
0.065000,-1.224311
0.066000,-1.527245
0.067000,-1.991828
0.068000,-2.063106
0.069000,-2.338038
0.070000,-2.525144
0.071000,-2.425863
0.072000,-1.999465
0.073000,-1.595978
0.074000,-1.262496
0.075000,-0.990111
0.076000,-0.650265
0.077000,-0.316784
0.078000,-0.347332
0.079000,-0.739363
0.080000,-0.860282
0.081000,-0.964654
0.082000,-1.224311
0.083000,-1.118667
0.084000,-1.077936
0.085000,-1.122485
0.086000,-1.108484
0.087000,-1.202673
0.088000,-1.270133
0.089000,-1.303227
0.090000,-1.631617
0.091000,-1.963826
0.092000,-1.957461
0.093000,-1.884910
0.094000,-1.856908
0.095000,-1.872182
0.096000,-1.907821
0.097000,-1.904003
0.098000,-1.844180
0.099000,-1.832724
0.100000,-1.993101
0.101000,-2.227301
0.102000,-2.234938
0.103000,-2.386405
0.104000,-2.691884
0.105000,-2.556964
0.106000,-2.368586
0.107000,-1.841634
0.108000,-0.978655
0.109000,-0.514072
0.110000,-0.379152
0.111000,-0.576441
0.112000,-1.081754
0.113000,-1.075390
0.114000,-1.121212
0.115000,-1.146669
0.116000,-0.939197
0.117000,-0.817006
0.118000,-0.871737
0.119000,-1.266315
0.120000,-1.462331
0.121000,-1.940915
0.122000,-2.366040
0.123000,-2.153477
0.124000,-1.581977
0.125000,-1.089391
0.126000,-0.814460
0.127000,-0.542075
0.128000,-0.592988
0.129000,-0.643901
0.130000,-0.540802
0.131000,-1.164488
0.132000,-1.412690
0.133000,-1.397416
0.134000,-1.322319
0.135000,-1.481423
0.136000,-1.845452
0.137000,-1.966371
0.138000,-2.031286
0.139000,-2.166206
0.140000,-2.401679
0.141000,-2.465321
0.142000,-2.395315
0.143000,-1.946006
0.144000,-1.659619
0.145000,-1.341412
0.146000,-1.173398
0.147000,-1.011749
0.148000,-0.867919
0.149000,-0.729181
0.150000,-0.759728
0.151000,-0.935379
0.152000,-1.052479
0.153000,-1.298136
0.154000,-1.529791
0.155000,-1.758900
0.156000,-1.732171
0.157000,-1.688894
0.158000,-1.609979
0.159000,-1.497970
0.160000,-1.503061
0.161000,-1.476332
0.162000,-1.632890
0.163000,-1.835270
0.164000,-2.317672
0.165000,-2.842078
0.166000,-2.857352
0.167000,-2.639698
0.168000,-2.217119
0.169000,-2.023649
0.170000,-1.953643
0.171000,-1.644345
0.172000,-1.483969
0.173000,-0.987565
0.174000,-0.526801
0.175000,-0.302782
0.176000,-0.158953
0.177000,0.028153
0.178000,0.066338
0.179000,-0.601898
0.180000,-1.094483
0.181000,-1.193763
0.182000,-1.490333
0.183000,-1.749990
0.184000,-1.729625
0.185000,-1.645618
0.186000,-1.631617
0.187000,-1.585795
0.188000,-1.761446
0.189000,-1.952370
0.190000,-2.098746
0.191000,-2.077107
0.192000,-2.121657
0.193000,-1.774174
0.194000,-1.445784
0.195000,-1.258678
0.196000,-1.394871
0.197000,-1.167034
0.198000,-1.009203
0.199000,-1.009203
0.200000,-1.014294
0.201000,-0.776275
0.202000,-0.725362
0.203000,-0.870465
0.204000,-1.066480
0.205000,-1.164488
0.206000,-1.175944
0.207000,-1.356686
0.208000,-1.678712
0.209000,-2.100018
0.210000,-2.204390
0.211000,-2.358403
0.212000,-2.550600
0.213000,-2.303671
0.214000,-1.841634
0.215000,-1.515789
0.216000,-1.509425
0.217000,-1.481423
0.218000,-1.417782
0.219000,-1.471240
0.220000,-1.645618
0.221000,-1.947279
0.222000,-2.242575
0.223000,-2.083472
0.224000,-1.932005
0.225000,-1.854362
0.226000,-1.499243
0.227000,-1.154306
0.228000,-0.918832
0.229000,-0.997748
0.230000,-1.368141
0.231000,-1.608706
0.232000,-1.822541
0.233000,-1.956189
0.234000,-1.602342
0.235000,-1.328683
0.236000,-1.192491
0.237000,-1.093210
0.238000,-1.131395
0.239000,-1.102120
0.240000,-0.848827
0.241000,-0.789004
0.242000,-0.847554
0.243000,-0.762274
0.244000,-0.881920
0.245000,-0.978655
0.246000,-1.155579
0.247000,-1.294317
0.248000,-1.380869
0.249000,-1.422873
0.250000,-1.429237
0.251000,-1.436874
0.252000,-1.403780
0.253000,-1.426691
0.254000,-1.477605
0.255000,-1.604888
0.256000,-1.648164
0.257000,-1.529791
0.258000,-1.674893
0.259000,-2.041468
0.260000,-2.276942
0.261000,-2.278215
0.262000,-2.128021
0.263000,-1.919277
0.264000,-1.713078
0.265000,-1.621434
0.266000,-1.565430
0.267000,-1.454694
0.268000,-1.384688
0.269000,-1.403780
0.270000,-1.445784
0.271000,-1.251041
0.272000,-1.317228
0.273000,-1.481423
0.274000,-1.965098
0.275000,-2.283306
0.276000,-2.471685
0.277000,-2.262941
0.278000,-2.432227
0.279000,-2.380041
0.280000,-2.098746
0.281000,-1.707987
0.282000,-1.869636
0.283000,-1.611252
0.284000,-1.491606
0.285000,-1.496697
0.286000,-1.146669
0.287000,-0.927742
0.288000,-1.332502
0.289000,-1.276497
0.290000,-1.314682
0.291000,-1.290499
0.292000,-0.937925
0.293000,-0.349877
0.294000,-0.384244
0.295000,-0.433884
0.296000,-0.442794
0.297000,-0.380425
0.298000,-0.497525
0.299000,-0.473342
0.300000,-0.542075
0.301000,-0.647719
0.302000,-0.767365
0.303000,-0.948107
0.304000,-1.335048
0.305000,-1.649437
0.306000,-1.727079
0.307000,-2.140749
0.308000,-2.414407
0.309000,-2.196754
0.310000,-1.746172
0.311000,-1.332502
0.312000,-1.156851
0.313000,-1.242131
0.314000,-1.347776
0.315000,-1.178490
0.316000,-1.282862
0.317000,-1.709260
0.318000,-2.110201
0.319000,-2.371131
0.320000,-2.271850
0.321000,-2.172570
0.322000,-1.909094
0.323000,-1.749990
0.324000,-1.597251
0.325000,-1.585795
0.326000,-1.630344
0.327000,-1.991828
0.328000,-2.209482
0.329000,-2.078380
0.330000,-1.940915
0.331000,-1.701623
0.332000,-1.553974
0.333000,-1.556520
0.334000,-1.457239
0.335000,-1.380869
0.336000,-1.256132
0.337000,-1.261223
0.338000,-0.978655
0.339000,-0.763547
0.340000,-0.799186
0.341000,-1.098301
0.342000,-1.534882
0.343000,-1.489060
0.344000,-1.445784
0.345000,-1.524699
0.346000,-1.709260
0.347000,-1.877273
0.348000,-2.128021
0.349000,-2.091109
0.350000,-2.338038
0.351000,-2.299853
0.352000,-1.719442
0.353000,-1.154306
0.354000,-1.539973
0.355000,-1.781811
0.356000,-1.677439
0.357000,-1.653255
0.358000,-1.454694
0.359000,-1.289226
0.360000,-1.300681
0.361000,-1.128849
0.362000,-1.266315
0.363000,-1.452148
0.364000,-1.419054
0.365000,-1.580704
0.366000,-1.612525
0.367000,-1.394871
0.368000,-1.147942
0.369000,-0.811914
0.370000,-0.497525
0.371000,-0.493707
0.372000,-0.656629
0.373000,-0.692268
0.374000,-0.539529
0.375000,-0.577714
0.376000,-0.664266
0.377000,-0.897194
0.378000,-1.030841
0.379000,-1.332502
0.380000,-1.667256
0.381000,-1.858181
0.382000,-1.998192
0.383000,-1.876000
0.384000,-1.775447
0.385000,-1.902730
0.386000,-2.091109
0.387000,-2.311308
0.388000,-2.215846
0.389000,-2.049105
0.390000,-1.807268
0.391000,-1.532336
0.392000,-1.257405
0.393000,-1.392325
0.394000,-1.508152
0.395000,-1.560339
0.396000,-1.797085
0.397000,-1.906548
0.398000,-2.106383
0.399000,-2.330401
0.400000,-2.279487
0.401000,-2.066925
0.402000,-1.783084
0.403000,-1.508152
0.404000,-1.202673
0.405000,-1.243404
0.406000,-1.335048
0.407000,-1.259951
0.408000,-1.097028
0.409000,-1.047388
0.410000,-0.965927
0.411000,-0.927742
0.412000,-0.813187
0.413000,-1.279043
0.414000,-1.926914
0.415000,-2.313854
0.416000,-2.457684
0.417000,-2.069471
0.418000,-1.847998
0.419000,-1.756354
0.420000,-1.421600
0.421000,-1.692713
0.422000,-1.704168
0.423000,-1.515789
0.424000,-1.174671
0.425000,-0.771184
0.426000,-0.388062
0.427000,-0.781367
0.428000,-1.532336
0.429000,-1.728352
0.430000,-1.696531
0.431000,-1.475059
0.432000,-1.433056
0.433000,-1.458512
0.434000,-1.209037
0.435000,-0.917559
0.436000,-0.785185
0.437000,-0.829734
0.438000,-0.903558
0.439000,-0.950653
0.440000,-0.850099
0.441000,-0.986292
0.442000,-1.100847
0.443000,-1.285407
0.444000,-1.371960
0.445000,-1.482696
0.446000,-1.715624
0.447000,-1.937096
0.448000,-2.262941
0.449000,-2.504778
0.450000,-2.402952
0.451000,-2.358403
0.452000,-2.227301
0.453000,-2.046560
0.454000,-1.611252
0.455000,-1.329956
0.456000,-1.187399
0.457000,-1.209037
0.458000,-1.322319
0.459000,-1.276497
0.460000,-0.926469
0.461000,-0.775002
0.462000,-0.857736
0.463000,-0.951926
0.464000,-1.165761
0.465000,-1.398689
0.466000,-1.695259
0.467000,-1.865818
0.468000,-1.830178
0.469000,-1.636708
0.470000,-1.615070
0.471000,-1.620162
0.472000,-1.695259
0.473000,-2.573511
0.474000,-2.722432
0.475000,-2.905720
0.476000,-2.703340
0.477000,-2.070743
0.478000,-1.421600
0.479000,-1.056298
0.480000,-0.916287
0.481000,-0.983747
0.482000,-0.885739
0.483000,-0.414792
0.484000,-0.053308
0.485000,-0.197138
0.486000,-0.620990
0.487000,-0.805550
0.488000,-1.032114
0.489000,-1.184854
0.490000,-1.410145
0.491000,-1.538700
0.492000,-1.447057
0.493000,-1.411417
0.494000,-1.475059
0.495000,-1.573067
0.496000,-2.352039
0.497000,-2.321491
0.498000,-1.775447
0.499000,-1.321046
0.500000,-1.476332
0.501000,-1.650709
0.502000,-1.794539
0.503000,-1.658346
0.504000,-1.379597
0.505000,-1.407599
0.506000,-1.674893
0.507000,-1.617616
0.508000,-1.534882
0.509000,-1.389779
0.510000,-1.419054
0.511000,-1.503061
0.512000,-1.436874
0.513000,-1.616343
0.514000,-1.748717
0.515000,-1.789448
0.516000,-1.587068
0.517000,-1.230676
0.518000,-1.245950
0.519000,-1.242131
0.520000,-1.309591
0.521000,-1.365596
0.522000,-1.327411
0.523000,-1.331229
0.524000,-1.285407
0.525000,-1.664711
0.526000,-2.313854
0.527000,-2.476776
0.528000,-2.383860
0.529000,-2.268032
0.530000,-1.928186
0.531000,-1.611252
0.532000,-1.861999
0.533000,-2.259122
0.534000,-2.238757
0.535000,-2.224756
0.536000,-1.935823
0.537000,-1.328683
0.538000,-1.001566
0.539000,-0.838644
0.540000,-0.498798
0.541000,-0.132223
0.542000,-0.282417
0.543000,-0.291327
0.544000,-0.260779
0.545000,-0.188228
0.546000,-0.731726
0.547000,-1.242131
0.548000,-1.257405
0.549000,-1.832724
0.550000,-2.293489
0.551000,-2.219664
0.552000,-1.948552
0.553000,-1.714351
0.554000,-1.480150
0.555000,-1.238313
0.556000,-1.189945
0.557000,-1.118667
0.558000,-1.077936
0.559000,-1.014294
0.560000,-0.911195
0.561000,-0.810642
0.562000,-0.993929
0.563000,-1.192491
0.564000,-1.234494
0.565000,-1.319774
0.566000,-1.436874
0.567000,-1.567976
0.568000,-1.665983
0.569000,-1.715624
0.570000,-1.805995
0.571000,-1.994374
0.572000,-2.027467
0.573000,-1.981645
0.574000,-1.918004
0.575000,-1.818723
0.576000,-1.724534
0.577000,-1.785629
0.578000,-1.876000
0.579000,-1.975281
0.580000,-2.200572
0.581000,-2.367313
0.582000,-2.238757
0.583000,-2.032558
0.584000,-2.131839
0.585000,-1.957461
0.586000,-1.730898
0.587000,-1.743626
0.588000,-1.713078
0.589000,-1.645618
0.590000,-1.511971
0.591000,-1.291771
0.592000,-1.289226
0.593000,-1.411417
0.594000,-1.261223
0.595000,-1.071572
0.596000,-1.116121
0.597000,-1.189945
0.598000,-1.209037
0.599000,-1.385961
0.600000,-1.524699
0.601000,-1.560339
0.602000,-1.691440
0.603000,-1.539973
0.604000,-1.509425
0.605000,-1.415236
0.606000,-1.245950
0.607000,-1.122485
0.608000,-1.631617
0.609000,-1.766537
0.610000,-1.775447
0.611000,-1.724534
0.612000,-1.616343
0.613000,-1.351594
0.614000,-1.683803
0.615000,-1.833997
0.616000,-1.565430
0.617000,-1.301954
0.618000,-1.653255
0.619000,-1.230676
0.620000,-0.832280
0.621000,-0.614626
0.622000,-0.207320
0.623000,-0.314238
0.624000,-0.377879
0.625000,-0.248051
0.626000,-0.493707
0.627000,-0.782639
0.628000,-1.167034
0.629000,-1.245950
0.630000,-1.141577
0.631000,-1.132668
0.632000,-1.099574
0.633000,-1.224311
0.634000,-1.412690
0.635000,-1.697804
0.636000,-1.833997
0.637000,-2.117838
0.638000,-2.331673
0.639000,-2.526416
0.640000,-2.537872
0.641000,-2.493323
0.642000,-2.339310
0.643000,-2.262941
0.644000,-2.186571
0.645000,-1.963826
0.646000,-1.770355
0.647000,-1.658346
0.648000,-1.426691
0.649000,-1.183581
0.650000,-0.730453
0.651000,-0.762274
0.652000,-1.168307
0.653000,-1.281589
0.654000,-1.093210
0.655000,-1.028296
0.656000,-0.925196
0.657000,-1.037205
0.658000,-1.273952
0.659000,-1.431783
0.660000,-1.430510
0.661000,-1.758900
0.662000,-2.139476
0.663000,-2.439864
0.664000,-2.408043
0.665000,-2.194208
0.666000,-1.976554
0.667000,-1.753809
0.668000,-1.421600
0.669000,-1.275225
0.670000,-1.401235
0.671000,-1.561611
0.672000,-1.682530
0.673000,-1.611252
0.674000,-1.326138
0.675000,-1.184854
0.676000,-1.004112
0.677000,-1.023204
0.678000,-1.133940
0.679000,-1.136486
0.680000,-1.099574
0.681000,-1.450875
0.682000,-2.073289
0.683000,-2.354584
0.684000,-2.478049
0.685000,-2.411862
0.686000,-2.326582
0.687000,-2.436046
0.688000,-2.278215
0.689000,-1.892547
0.690000,-1.637981
0.691000,-1.590886
0.692000,-1.247222
0.693000,-0.750819
0.694000,-0.396972
0.695000,-0.487343
0.696000,-0.475887
0.697000,-0.489889
0.698000,-0.688450
0.699000,-0.773730
0.700000,-0.969745
0.701000,-0.929015
0.702000,-1.063935
0.703000,-1.495424
0.704000,-2.079653
0.705000,-2.035104
0.706000,-1.904003
0.707000,-1.998192
0.708000,-1.881092
0.709000,-1.567976
0.710000,-1.352867
0.711000,-1.612525
0.712000,-1.758900
0.713000,-1.776720
0.714000,-1.571794
0.715000,-1.254859
0.716000,-1.034660
0.717000,-0.974837
0.718000,-0.935379
0.719000,-0.918832
0.720000,-1.000293
0.721000,-1.467422
0.722000,-1.621434
0.723000,-1.561611
0.724000,-1.495424
0.725000,-1.458512
0.726000,-1.505607
0.727000,-1.733443
0.728000,-1.938369
0.729000,-1.951097
0.730000,-2.046560
0.731000,-2.041468
0.732000,-2.005829
0.733000,-1.732171
0.734000,-1.573067
0.735000,-1.341412
0.736000,-0.978655
0.737000,-0.766093
0.738000,-0.582805
0.739000,-0.571350
0.740000,-0.945562
0.741000,-1.346503
0.742000,-1.426691
0.743000,-1.897638
0.744000,-2.609150
0.745000,-3.090280
0.746000,-3.161559
0.747000,-2.966816
0.748000,-2.923539
0.749000,-2.913357
0.750000,-2.377495
0.751000,-1.835270
0.752000,-1.272679
0.753000,-0.828461
0.754000,-0.701178
0.755000,-0.581532
0.756000,-0.716452
0.757000,-0.189501
0.758000,-0.016396
0.759000,0.104523
0.760000,0.168165
0.761000,0.033245
0.762000,-0.230231
0.763000,-0.567531
0.764000,-0.638810
0.765000,-1.161943
0.766000,-1.650709
0.767000,-1.609979
0.768000,-1.585795
0.769000,-1.641800
0.770000,-1.937096
0.771000,-2.023649
0.772000,-1.974008
0.773000,-1.809813
0.774000,-1.783084
0.775000,-1.887456
0.776000,-1.940915
0.777000,-1.956189
0.778000,-1.867091
0.779000,-1.912912
0.780000,-1.864545
0.781000,-1.671075
0.782000,-1.861999
0.783000,-1.909094
0.784000,-1.967644
0.785000,-2.242575
0.786000,-2.546782
0.787000,-2.620606
0.788000,-2.544236
0.789000,-2.292216
0.790000,-2.047832
0.791000,-1.672348
0.792000,-1.234494
0.793000,-0.842462
0.794000,-0.556076
0.795000,-0.312965
0.796000,-0.212412
0.797000,-0.200956
0.798000,-0.333330
0.799000,-0.948107
0.800000,-1.497970
0.801000,-2.013466
0.802000,-2.278215
0.803000,-2.145840
0.804000,-1.948552
0.805000,-1.702895
0.806000,-1.408872
0.807000,-1.240858
0.808000,-1.225584
0.809000,-1.374505
0.810000,-1.303227
0.811000,-1.111030
0.812000,-1.183581
0.813000,-1.276497
0.814000,-1.001566
0.815000,-1.056298
0.816000,-1.244677
0.817000,-1.667256
0.818000,-2.551873
0.819000,-2.578603
0.820000,-2.433500
0.821000,-1.934551
0.822000,-1.515789
0.823000,-1.047388
0.824000,-0.768638
0.825000,-0.738090
0.826000,-0.797913
0.827000,-1.016840
0.828000,-1.090664
0.829000,-0.846281
0.830000,-0.783912
0.831000,-0.752091
0.832000,-0.787731
0.833000,-1.009203
0.834000,-1.205219
0.835000,-1.401235
0.836000,-1.415236
0.837000,-1.368141
0.838000,-1.169580
0.839000,-1.328683
0.840000,-1.424146
0.841000,-1.543792
0.842000,-1.631617
0.843000,-2.196754
0.844000,-2.844624
0.845000,-3.439036
0.846000,-3.414852
0.847000,-2.919721
0.848000,-2.377495
0.849000,-1.874728
0.850000,-1.424146
0.851000,-1.083027
0.852000,-0.922651
0.853000,-1.170853
0.854000,-0.985019
0.855000,-0.795368
0.856000,-0.753364
0.857000,-0.703724
0.858000,-1.021931
0.859000,-1.363050
0.860000,-1.481423
0.861000,-1.711805
0.862000,-1.989282
0.863000,-2.054197
0.864000,-1.988009
0.865000,-1.938369
0.866000,-2.022376
0.867000,-2.209482
0.868000,-2.466593
0.869000,-2.798802
0.870000,-2.994818
0.871000,-2.625697
0.872000,-2.033831
0.873000,-1.318501
0.874000,-0.778821
0.875000,-0.459341
0.876000,-0.388062
0.877000,-0.432611
0.878000,-0.758456
0.879000,-0.735545
0.880000,-0.589169
0.881000,-0.208593
0.882000,-0.012577
0.883000,-0.147497
0.884000,-0.354969
0.885000,-0.561167
0.886000,-0.730453
0.887000,-0.880647
0.888000,-1.150487
0.889000,-2.120384
0.890000,-2.651154
0.891000,-3.019002
0.892000,-2.677883
0.893000,-2.184025
0.894000,-1.742353
0.895000,-1.495424
0.896000,-1.499243
0.897000,-1.632890
0.898000,-1.901457
0.899000,-1.565430
0.900000,-1.280316
0.901000,-1.481423
0.902000,-1.715624
0.903000,-1.827633
0.904000,-1.649437
0.905000,-1.388506
0.906000,-1.173398
0.907000,-1.030841
0.908000,-1.141577
0.909000,-1.387234
0.910000,-1.384688
0.911000,-1.287953
0.912000,-1.160670
0.913000,-1.024477
0.914000,-1.002839
0.915000,-1.256132
0.916000,-1.401235
0.917000,-1.541246
0.918000,-1.891274
0.919000,-1.881092
0.920000,-1.741080
0.921000,-1.569248
0.922000,-1.308318
0.923000,-1.079209
0.924000,-1.048661
0.925000,-1.280316
0.926000,-1.186127
0.927000,-1.179762
0.928000,-0.978655
0.929000,-0.803005
0.930000,-0.745727
0.931000,-1.117394
0.932000,-1.332502
0.933000,-1.528518
0.934000,-1.864545
0.935000,-2.542963
0.936000,-2.873899
0.937000,-2.838260
0.938000,-2.558237
0.939000,-2.654972
0.940000,-2.924812
0.941000,-2.710977
0.942000,-2.550600
0.943000,-2.241303
0.944000,-2.456411
0.945000,-2.004556
0.946000,-1.332502
0.947000,-0.796641
0.948000,-0.464432
0.949000,-0.157680
0.950000,-0.074946
0.951000,-0.259506
0.952000,-0.072400
0.953000,-0.265870
0.954000,-0.338422
0.955000,-0.463159
0.956000,-0.800459
0.957000,-1.270133
0.958000,-1.719442
0.959000,-2.298580
0.960000,-2.450047
0.961000,-2.388951
0.962000,-2.124202
0.963000,-1.916731
0.964000,-1.799631
0.965000,-1.830178
0.966000,-2.091109
0.967000,-2.178934
0.968000,-2.018557
0.969000,-1.795812
0.970000,-1.531063
0.971000,-1.431783
0.972000,-1.324865
0.973000,-1.170853
0.974000,-1.114848
0.975000,-1.407599
0.976000,-1.545065
0.977000,-1.870909
0.978000,-1.954916
0.979000,-1.776720
0.980000,-1.052479
0.981000,-0.875556
0.982000,-1.056298
0.983000,-1.308318
0.984000,-1.478877
0.985000,-1.471240
0.986000,-1.342685
0.987000,-1.290499
0.988000,-1.541246
0.989000,-2.261668
0.990000,-2.066925
0.991000,-1.758900
0.992000,-1.581977
0.993000,-1.355413
0.994000,-1.508152
0.995000,-1.403780
0.996000,-1.030841
0.997000,-0.866646
0.998000,-0.702451
0.999000,-0.520436
1.000000,-0.180591
1.001000,-0.063490
1.002000,-0.162771
1.003000,-0.334603
1.004000,-0.622263
1.005000,-0.911195
1.006000,-1.085573
1.007000,-1.329956
1.008000,-1.529791
1.009000,-2.019830
1.010000,-2.035104
1.011000,-2.136931
1.012000,-1.971463
1.013000,-1.756354
1.014000,-1.559066
1.015000,-1.478877
1.016000,-1.487787
1.017000,-1.517062
1.018000,-1.608706
1.019000,-1.710532
1.020000,-1.789448
1.021000,-1.916731
1.022000,-1.926914
1.023000,-1.947279
1.024000,-1.993101
1.025000,-1.972735
1.026000,-1.990555
1.027000,-2.049105
1.028000,-2.098746
1.029000,-2.250212
1.030000,-2.119111
1.031000,-1.891274
1.032000,-1.766537
1.033000,-1.505607
1.034000,-1.441965
1.035000,-1.420327
1.036000,-1.262496
1.037000,-1.025750
1.038000,-1.183581
1.039000,-1.705441
1.040000,-2.340583
1.041000,-2.578603
1.042000,-2.657518
1.043000,-2.637153
1.044000,-2.331673
1.045000,-1.974008
1.046000,-1.602342
1.047000,-1.361777
1.048000,-1.438147
1.049000,-1.581977
1.050000,-1.126303
1.051000,-0.610807
1.052000,-0.510254
1.053000,-0.638810
1.054000,-0.842462
1.055000,-0.842462
1.056000,-0.771184
1.057000,-0.701178
1.058000,-0.861555
1.059000,-1.093210
1.060000,-1.289226
1.061000,-1.707987
1.062000,-1.830178
1.063000,-1.321046
1.064000,-1.042297
1.065000,-1.072845
1.066000,-0.934106
1.067000,-0.846281
1.068000,-1.170853
1.069000,-1.518335
1.070000,-1.637981
1.071000,-1.482696
1.072000,-1.336320
1.073000,-1.131395
1.074000,-0.972291
1.075000,-1.103393
1.076000,-1.304500
1.077000,-1.307045
1.078000,-1.473786
1.079000,-1.453421
1.080000,-1.399962
1.081000,-1.340139
1.082000,-1.454694
1.083000,-1.630344
1.084000,-1.805995
1.085000,-1.861999
1.086000,-1.812359
1.087000,-1.785629
1.088000,-1.721988
1.089000,-1.817450
1.090000,-1.741080
1.091000,-1.892547
1.092000,-2.254031
1.093000,-2.306217
1.094000,-2.073289
1.095000,-2.128021
1.096000,-2.465321
1.097000,-2.296034
1.098000,-2.131839
1.099000,-1.674893
1.100000,-1.205219
1.101000,-0.801732
1.102000,-0.730453
1.103000,-0.698633
1.104000,-1.030841
1.105000,-1.262496
1.106000,-1.280316
1.107000,-1.048661
1.108000,-1.062662
1.109000,-1.430510
1.110000,-1.336320
1.111000,-1.127576
1.112000,-0.948107
1.113000,-0.856464
1.114000,-1.015567
1.115000,-1.452148
1.116000,-1.797085
1.117000,-2.190389
1.118000,-2.815349
1.119000,-3.034276
1.120000,-2.733888
1.121000,-2.091109
1.122000,-1.609979
1.123000,-1.161943
1.124000,-0.829734
1.125000,-0.780094
1.126000,-1.071572
1.127000,-1.585795
1.128000,-1.800903
1.129000,-1.657074
1.130000,-1.001566
1.131000,-0.226413
1.132000,-0.180591
1.133000,-0.566258
1.134000,-0.827188
1.135000,-1.141577
1.136000,-1.336320
1.137000,-1.181035
1.138000,-1.025750
1.139000,-0.754637
1.140000,-0.682086
1.141000,-0.829734
1.142000,-1.220493
1.143000,-1.500516
1.144000,-1.509425
1.145000,-1.618889
1.146000,-2.073289
1.147000,-2.121657
1.148000,-2.052924
1.149000,-2.028740
1.150000,-1.817450
1.151000,-1.678712
1.152000,-1.646891
1.153000,-1.660892
1.154000,-1.705441
1.155000,-1.690167
1.156000,-1.695259
1.157000,-1.671075
1.158000,-1.625253
1.159000,-1.751263
1.160000,-1.932005
1.161000,-2.259122
1.162000,-2.376223
1.163000,-2.282033
1.164000,-2.624424
1.165000,-2.629516
1.166000,-2.609150
1.167000,-2.544236
1.168000,-2.100018
1.169000,-1.718169
1.170000,-1.494151
1.171000,-1.230676
1.172000,-0.752091
1.173000,-0.461886
1.174000,-0.283690
1.175000,-0.465705
1.176000,-1.032114
1.177000,-1.072845
1.178000,-1.041024
1.179000,-1.486514
1.180000,-1.567976
1.181000,-1.336320
1.182000,-1.235767
1.183000,-1.379597
1.184000,-1.284134
1.185000,-1.158124
1.186000,-0.946834
1.187000,-0.901013
1.188000,-1.220493
1.189000,-1.455966
1.190000,-1.569248
1.191000,-1.547610
1.192000,-1.284134
1.193000,-1.090664
1.194000,-0.972291
1.195000,-0.915014
1.196000,-0.957017
1.197000,-1.063935
1.198000,-1.258678
1.199000,-1.383415
1.200000,-1.874728
1.201000,-2.135658
1.202000,-2.359676
1.203000,-2.196754
1.204000,-1.907821
1.205000,-1.457239
1.206000,-1.256132
1.207000,-1.336320
1.208000,-1.275225
1.209000,-1.095756
1.210000,-1.052479
1.211000,-0.925196
1.212000,-0.960836
1.213000,-0.951926
1.214000,-1.094483
1.215000,-1.399962
1.216000,-1.603615
1.217000,-1.728352
1.218000,-2.311308
1.219000,-2.308763
1.220000,-2.036377
1.221000,-1.697804
1.222000,-1.574340
1.223000,-1.491606
1.224000,-1.546337
1.225000,-1.905275
1.226000,-1.933278
1.227000,-2.004556
1.228000,-1.890001
1.229000,-1.668529
1.230000,-1.635435
1.231000,-1.746172
1.232000,-2.125475
1.233000,-2.171297
1.234000,-1.853089
1.235000,-1.499243
1.236000,-1.201400
1.237000,-0.895921
1.238000,-0.757183
1.239000,-0.790276
1.240000,-0.993929
1.241000,-1.319774
1.242000,-1.522154
1.243000,-1.519608
1.244000,-1.254859
1.245000,-1.237040
1.246000,-1.527245
1.247000,-1.702895
1.248000,-1.947279
1.249000,-2.345675
1.250000,-2.429681
1.251000,-2.196754
1.252000,-1.934551
1.253000,-1.844180
1.254000,-1.741080
1.255000,-1.557793
1.256000,-1.459785
1.257000,-1.245950
1.258000,-0.897194
1.259000,-0.564985
1.260000,-0.381698
1.261000,-0.461886
1.262000,-1.394871
1.263000,-1.876000
1.264000,-1.752536
1.265000,-1.407599
1.266000,-1.042297
1.267000,-0.848827
1.268000,-1.047388
1.269000,-1.159397
1.270000,-1.336320
1.271000,-1.664711
1.272000,-1.846725
1.273000,-1.496697
1.274000,-1.159397
1.275000,-1.727079
1.276000,-2.102564
1.277000,-1.851817
1.278000,-1.539973
1.279000,-1.248495
1.280000,-1.043570
1.281000,-0.827188
1.282000,-0.657902
1.283000,-0.600625
1.284000,-0.747000
1.285000,-1.256132
1.286000,-1.573067
1.287000,-1.883637
1.288000,-2.227301
1.289000,-2.171297
1.290000,-1.982918
1.291000,-1.636708
1.292000,-1.308318
1.293000,-1.094483
1.294000,-1.011749
1.295000,-1.067753
1.296000,-1.202673
1.297000,-1.295590
1.298000,-1.212856
1.299000,-1.285407
1.300000,-1.602342
1.301000,-1.952370
1.302000,-2.107655
1.303000,-2.161114
1.304000,-2.278215
1.305000,-2.400406
1.306000,-2.147113
1.307000,-1.963826
1.308000,-2.059288
1.309000,-1.832724
1.310000,-1.734716
1.311000,-1.816177
1.312000,-1.975281
1.313000,-2.056742
1.314000,-1.892547
1.315000,-1.417782
1.316000,-0.893376
1.317000,-0.885739
1.318000,-0.940470
1.319000,-1.377051
1.320000,-1.431783
1.321000,-1.226857
1.322000,-0.873010
1.323000,-0.650265
1.324000,-0.713907
1.325000,-0.662993
1.326000,-0.740636
1.327000,-0.973564
1.328000,-1.033387
1.329000,-1.399962
1.330000,-1.925641
1.331000,-2.051651
1.332000,-1.802176
1.333000,-1.480150
1.334000,-1.300681
1.335000,-1.588341
1.336000,-2.120384
1.337000,-2.536599
1.338000,-2.866262
1.339000,-2.909538
1.340000,-2.616787
1.341000,-1.804722
1.342000,-1.145396
1.343000,-1.057571
1.344000,-1.285407
1.345000,-1.133940
1.346000,-0.754637
1.347000,-0.328239
1.348000,0.009061
1.349000,0.247080
1.350000,-0.100403
1.351000,-0.349877
1.352000,-0.776275
1.353000,-1.076663
1.354000,-1.128849
1.355000,-1.383415
1.356000,-1.542519
1.357000,-1.618889
1.358000,-1.688894
1.359000,-1.677439
1.360000,-1.777992
1.361000,-1.873455
1.362000,-1.924368
1.363000,-1.870909
1.364000,-1.797085
1.365000,-1.758900
1.366000,-1.774174
1.367000,-1.779265
1.368000,-1.884910
1.369000,-2.091109
1.370000,-2.484413
1.371000,-2.518780
1.372000,-2.819167
1.373000,-3.276113
1.374000,-3.240474
1.375000,-2.761890
1.376000,-2.105110
1.377000,-1.657074
1.378000,-1.440693
1.379000,-1.275225
1.380000,-1.023204
1.381000,-0.735545
1.382000,-0.396972
1.383000,-0.021487
1.384000,0.229260
1.385000,0.160528
1.386000,-0.368970
1.387000,-1.223039
1.388000,-1.454694
1.389000,-1.387234
1.390000,-1.579431
1.391000,-1.779265
1.392000,-2.040195
1.393000,-2.293489
1.394000,-2.322764
1.395000,-2.028740
1.396000,-1.562884
1.397000,-0.846281
1.398000,-0.361333
1.399000,-0.349877
1.400000,-0.857736
1.401000,-1.010476
1.402000,-0.930288
1.403000,-1.345230
1.404000,-1.527245
1.405000,-1.749990
1.406000,-1.779265
1.407000,-1.671075
1.408000,-1.504334
1.409000,-1.606160
1.410000,-1.671075
1.411000,-2.087290
1.412000,-1.890001
1.413000,-1.590886
1.414000,-1.503061
1.415000,-1.650709
1.416000,-1.480150
1.417000,-1.256132
1.418000,-1.071572
1.419000,-1.167034
1.420000,-1.295590
1.421000,-1.256132
1.422000,-1.268860
1.423000,-1.425419
1.424000,-1.613797
1.425000,-1.621434
1.426000,-1.366868
1.427000,-1.186127
1.428000,-1.359231
1.429000,-1.542519
1.430000,-1.601069
1.431000,-1.776720
1.432000,-1.780538
1.433000,-1.938369
1.434000,-2.012193
1.435000,-2.056742
1.436000,-1.920549
1.437000,-1.850544
1.438000,-1.816177
1.439000,-1.506880
1.440000,-1.318501
1.441000,-1.351594
1.442000,-1.466149
1.443000,-1.501788
1.444000,-1.961280
1.445000,-2.812803
1.446000,-3.445400
1.447000,-3.080098
1.448000,-2.217119
1.449000,-1.519608
1.450000,-0.906104
1.451000,-0.510254
1.452000,-0.310419
1.453000,-0.232777
1.454000,-0.221321
1.455000,-0.208593
1.456000,-0.080037
1.457000,0.272537
1.458000,-0.445339
1.459000,-1.061389
1.460000,-2.030013
1.461000,-2.670246
1.462000,-3.080098
1.463000,-2.717341
1.464000,-2.486959
1.465000,-2.079653
1.466000,-1.539973
1.467000,-1.324865
1.468000,-1.337593
1.469000,-1.494151
1.470000,-1.455966
1.471000,-0.773730
1.472000,-0.340967
1.473000,-0.259506
1.474000,-0.449158
1.475000,-0.898467
1.476000,-1.113575
1.477000,-1.308318
1.478000,-1.370687
1.479000,-1.303227
1.480000,-1.191218
1.481000,-1.224311
1.482000,-1.075390
1.483000,-1.053752
1.484000,-1.076663
1.485000,-1.332502
1.486000,-1.650709
1.487000,-1.926914
1.488000,-1.911640
1.489000,-1.878546
1.490000,-1.743626
1.491000,-1.733443
1.492000,-1.807268
1.493000,-1.865818
1.494000,-1.842907
1.495000,-1.692713
1.496000,-1.534882
1.497000,-1.707987
1.498000,-1.909094
1.499000,-1.777992
1.500000,-1.508152
1.501000,-1.466149
1.502000,-1.601069
1.503000,-1.802176
1.504000,-2.003283
1.505000,-2.009648
1.506000,-2.038923
1.507000,-2.060561
1.508000,-1.691440
1.509000,-1.682530
1.510000,-1.769083
1.511000,-1.989282
1.512000,-2.218392
1.513000,-2.484413
1.514000,-2.063106
1.515000,-1.341412
1.516000,-0.923924
1.517000,-0.752091
1.518000,-0.514072
1.519000,-0.407155
1.520000,-0.834825
1.521000,-1.107211
1.522000,-1.322319
1.523000,-1.137759
1.524000,-1.081754
1.525000,-1.168307
1.526000,-1.038478
1.527000,-1.324865
1.528000,-2.122929
1.529000,-2.204390
1.530000,-1.891274
1.531000,-1.594705
1.532000,-1.576885
1.533000,-1.963826
1.534000,-2.233666
1.535000,-2.364767
1.536000,-2.353312
1.537000,-2.069471
1.538000,-1.548883
1.539000,-0.951926
1.540000,-0.676995
1.541000,-0.661721
1.542000,-0.638810
1.543000,-0.460613
1.544000,-0.399518
1.545000,-0.186955
1.546000,0.080339
1.547000,-0.167863
1.548000,-0.615899
1.549000,-0.992656
1.550000,-1.585795
1.551000,-1.948552
1.552000,-2.228574
1.553000,-2.255304
1.554000,-2.293489
1.555000,-3.506496
1.556000,-4.674953
1.557000,-4.820056
1.558000,-3.988898
1.559000,-2.875172
1.560000,-1.863272
1.561000,-1.025750
1.562000,-0.319329
1.563000,0.052337
1.564000,-0.167863
1.565000,-0.068582
1.566000,0.063793
1.567000,0.373090
1.568000,0.432913
1.569000,0.212714
1.570000,-0.174227
1.571000,-0.666812
1.572000,-0.941743
1.573000,-1.147942
1.574000,-1.203946
1.575000,-1.291771
1.576000,-2.152204
1.577000,-2.513688
1.578000,-2.335492
1.579000,-1.972735
1.580000,-1.830178
1.581000,-1.785629
1.582000,-1.627799
1.583000,-1.739808
1.584000,-1.790721
1.585000,-1.623980
1.586000,-1.481423
1.587000,-1.401235
1.588000,-1.309591
1.589000,-1.402508
1.590000,-1.495424
1.591000,-1.555247
1.592000,-1.377051
1.593000,-1.326138
1.594000,-1.575612
1.595000,-1.677439
1.596000,-1.901457
1.597000,-2.079653
1.598000,-2.377495
1.599000,-2.283306
1.600000,-2.182752
1.601000,-2.111474
1.602000,-1.719442
1.603000,-1.499243
1.604000,-1.259951
1.605000,-1.145396
1.606000,-1.286680
1.607000,-1.363050
1.608000,-1.248495
1.609000,-1.095756
1.610000,-1.156851
1.611000,-1.207765
1.612000,-1.261223
1.613000,-1.257405
1.614000,-1.319774
1.615000,-1.340139
1.616000,-1.373233
1.617000,-1.245950
1.618000,-1.141577
1.619000,-1.091937
1.620000,-1.581977
1.621000,-2.430954
1.622000,-2.806439
1.623000,-2.928631
1.624000,-2.789892
1.625000,-2.733888
1.626000,-2.307490
1.627000,-1.769083
1.628000,-1.473786
1.629000,-1.760173
1.630000,-1.860726
1.631000,-1.693986
1.632000,-1.285407
1.633000,-1.496697
1.634000,-1.290499
1.635000,-0.670630
1.636000,-0.413519
1.637000,-0.264598
1.638000,-0.231504
1.639000,-0.272235
1.640000,-0.302782
1.641000,-0.418610
1.642000,-0.878102
1.643000,-1.331229
1.644000,-1.648164
1.645000,-1.790721
1.646000,-1.653255
1.647000,-1.688894
1.648000,-1.776720
1.649000,-1.575612
1.650000,-1.478877
1.651000,-1.192491
1.652000,-1.187399
1.653000,-1.164488
1.654000,-0.964654
1.655000,-0.839917
1.656000,-0.748273
1.657000,-0.694814
1.658000,-0.690996
1.659000,-0.832280
1.660000,-1.113575
1.661000,-1.625253
1.662000,-1.881092
1.663000,-1.856908
1.664000,-1.786902
1.665000,-1.930732
1.666000,-2.102564
1.667000,-2.158569
1.668000,-2.168751
1.669000,-2.166206
1.670000,-2.070743
1.671000,-2.037650
1.672000,-2.004556
1.673000,-1.878546
1.674000,-1.678712
1.675000,-1.718169
1.676000,-1.933278
1.677000,-2.212027
1.678000,-2.358403
1.679000,-2.214573
1.680000,-2.080926
1.681000,-1.854362
1.682000,-1.481423
1.683000,-1.594705
1.684000,-1.562884
1.685000,-1.429237
1.686000,-1.318501
1.687000,-1.551429
1.688000,-1.588341
1.689000,-1.233221
1.690000,-0.824643
1.691000,-0.747000
1.692000,-0.851372
1.693000,-1.303227
1.694000,-1.501788
1.695000,-1.545065
1.696000,-2.152204
1.697000,-1.818723
1.698000,-1.029568
1.699000,-0.400790
1.700000,0.026880
1.701000,0.006515
1.702000,-0.374061
1.703000,-0.940470
1.704000,-1.122485
1.705000,-1.559066
1.706000,-1.819996
1.707000,-2.008375
1.708000,-1.974008
1.709000,-1.949824
1.710000,-1.912912
1.711000,-1.635435
1.712000,-1.326138
1.713000,-1.225584
1.714000,-1.201400
1.715000,-1.136486
1.716000,-0.904831
1.717000,-0.674449
1.718000,-0.855191
1.719000,-0.879374
1.720000,-1.181035
1.721000,-1.646891
1.722000,-1.915458
1.723000,-1.971463
1.724000,-1.958734
1.725000,-1.932005
1.726000,-1.961280
1.727000,-2.103837
1.728000,-2.420772
1.729000,-2.940086
1.730000,-3.008819
1.731000,-2.777164
1.732000,-2.306217
1.733000,-1.817450
1.734000,-1.587068
1.735000,-1.589614
1.736000,-1.424146
1.737000,-1.408872
1.738000,-1.286680
1.739000,-1.013022
1.740000,-0.724089
1.741000,-0.568804
1.742000,-0.739363
1.743000,-1.198855
1.744000,-1.438147
1.745000,-1.327411
1.746000,-1.436874
1.747000,-1.482696
1.748000,-1.900184
1.749000,-2.154750
1.750000,-1.957461
1.751000,-1.620162
1.752000,-1.462331
1.753000,-1.555247
1.754000,-1.952370
1.755000,-2.000738
1.756000,-1.562884
1.757000,-0.948107
1.758000,-0.432611
1.759000,-0.435157
1.760000,-0.598079
1.761000,-0.988838
1.762000,-1.387234
1.763000,-1.491606
1.764000,-1.524699
1.765000,-1.187399
1.766000,-1.100847
1.767000,-0.937925
1.768000,-1.016840
1.769000,-1.076663
1.770000,-0.992656
1.771000,-0.875556
1.772000,-0.828461
1.773000,-0.809369
1.774000,-0.704997
1.775000,-0.694814
1.776000,-0.907377
1.777000,-1.187399
1.778000,-1.492879
1.779000,-1.723261
1.780000,-1.846725
1.781000,-1.988009
1.782000,-1.954916
1.783000,-2.120384
1.784000,-2.367313
1.785000,-2.654972
1.786000,-2.835714
1.787000,-2.700794
1.788000,-2.387678
1.789000,-2.065652
1.790000,-1.779265
1.791000,-1.676166
1.792000,-1.612525
1.793000,-1.607433
1.794000,-1.566703
1.795000,-1.211583
1.796000,-1.133940
1.797000,-1.427964
1.798000,-1.723261
1.799000,-1.883637
1.800000,-1.996919
1.801000,-2.378768
1.802000,-2.576057
1.803000,-2.176388
1.804000,-1.839088
1.805000,-1.536155
1.806000,-1.266315
1.807000,-1.021931
1.808000,-0.771184
1.809000,-0.732999
1.810000,-0.447885
1.811000,-0.232777
1.812000,-0.755910
1.813000,-1.086846
1.814000,-1.349049
1.815000,-1.772901
1.816000,-2.093654
1.817000,-2.255304
1.818000,-1.999465
1.819000,-1.598523
1.820000,-1.373233
1.821000,-1.476332
1.822000,-1.193763
1.823000,-0.908650
1.824000,-0.713907
1.825000,-0.787731
1.826000,-0.521709
1.827000,-0.442794
1.828000,-0.160226
1.829000,-0.323148
1.830000,-0.792822
1.831000,-1.186127
1.832000,-1.352867
1.833000,-1.284134
1.834000,-1.341412
1.835000,-1.660892
1.836000,-2.089836
1.837000,-2.516234
1.838000,-3.043185
1.839000,-3.020275
1.840000,-2.871353
1.841000,-2.719887
1.842000,-2.402952
1.843000,-2.217119
1.844000,-2.143295
1.845000,-1.924368
1.846000,-1.560339
1.847000,-1.329956
1.848000,-1.052479
1.849000,-0.923924
1.850000,-0.646447
1.851000,-0.118222
1.852000,0.017971
1.853000,-0.362606
1.854000,-0.652811
1.855000,-1.403780
1.856000,-1.676166
1.857000,-1.794539
1.858000,-1.811086
1.859000,-2.036377
1.860000,-2.321491
1.861000,-2.273123
1.862000,-2.438591
1.863000,-2.107655
1.864000,-1.659619
1.865000,-1.364323
1.866000,-1.308318
1.867000,-1.413963
1.868000,-1.646891
1.869000,-1.525972
1.870000,-1.555247
1.871000,-1.248495
1.872000,-0.777548
1.873000,-0.552257
1.874000,-0.594261
1.875000,-0.766093
1.876000,-0.888284
1.877000,-1.338866
1.878000,-1.809813
1.879000,-2.185298
1.880000,-2.453865
1.881000,-2.530235
1.882000,-2.064379
1.883000,-1.520881
1.884000,-1.219220
1.885000,-1.052479
1.886000,-1.086846
1.887000,-1.214129
1.888000,-1.192491
1.889000,-0.718998
1.890000,-0.777548
1.891000,-0.946834
1.892000,-0.904831
1.893000,-0.922651
1.894000,-1.287953
1.895000,-1.391052
1.896000,-1.663438
1.897000,-1.872182
1.898000,-1.837815
1.899000,-1.733443
1.900000,-1.845452
1.901000,-1.896366
1.902000,-2.311308
1.903000,-2.363494
1.904000,-2.088563
1.905000,-1.758900
1.906000,-1.392325
1.907000,-1.280316
1.908000,-1.517062
1.909000,-1.555247
1.910000,-1.672348
1.911000,-1.559066
1.912000,-1.363050
1.913000,-1.127576
1.914000,-0.936652
1.915000,-0.899740
1.916000,-0.881920
1.917000,-0.986292
1.918000,-1.155579
1.919000,-1.142850
1.920000,-1.247222
1.921000,-1.492879
1.922000,-1.575612
1.923000,-1.672348
1.924000,-1.797085
1.925000,-1.819996
1.926000,-1.783084
1.927000,-1.836543
1.928000,-2.186571
1.929000,-2.551873
1.930000,-2.647335
1.931000,-2.399133
1.932000,-2.516234
1.933000,-2.446228
1.934000,-2.410589
1.935000,-2.040195
1.936000,-1.886183
1.937000,-2.050378
1.938000,-1.830178
1.939000,-1.609979
1.940000,-1.259951
1.941000,-0.809369
1.942000,-0.372788
1.943000,0.038336
1.944000,0.476189
1.945000,0.443096
1.946000,0.178347
1.947000,-0.407155
1.948000,-0.542075
1.949000,-0.727908
1.950000,-1.109757
1.951000,-1.608706
1.952000,-2.252758
1.953000,-2.374950
1.954000,-2.173843
1.955000,-2.162387
1.956000,-1.826360
1.957000,-1.588341
1.958000,-1.219220
1.959000,-1.035933
1.960000,-0.995202
1.961000,-1.305773
1.962000,-1.567976
1.963000,-1.662165
1.964000,-1.345230
1.965000,-0.809369
1.966000,-0.562440
1.967000,-0.873010
1.968000,-1.412690
1.969000,-1.671075
1.970000,-1.881092
1.971000,-2.002011
1.972000,-2.615515
1.973000,-2.559510
1.974000,-2.404225
1.975000,-2.065652
1.976000,-1.692713
1.977000,-1.398689
1.978000,-1.304500
1.979000,-1.245950
1.980000,-1.001566
1.981000,-0.827188
1.982000,-0.777548
1.983000,-0.685904
1.984000,-0.598079
1.985000,-0.772457
1.986000,-1.056298
1.987000,-1.245950
1.988000,-1.424146
1.989000,-1.552702
1.990000,-1.734716
1.991000,-1.968917
1.992000,-2.055469
1.993000,-2.058015
1.994000,-2.002011
1.995000,-1.887456
1.996000,-1.766537
1.997000,-1.748717
1.998000,-2.024921
1.999000,-2.199299
2.000000,-2.313854
2.001000,-2.335492
2.002000,-2.900628
2.003000,-3.222654
2.004000,-2.990999
2.005000,-2.469139
2.006000,-1.823814
2.007000,-1.420327
2.008000,-1.021931
2.009000,-0.990111
2.010000,-0.871737
2.011000,-0.382971
2.012000,-0.272235
2.013000,-0.194592
2.014000,-0.085129
2.015000,-0.208593
2.016000,-0.971018
2.017000,-1.692713
2.018000,-2.266759
2.019000,-2.259122
2.020000,-1.949824
2.021000,-1.926914
2.022000,-2.028740
2.023000,-1.869636
2.024000,-1.585795
2.025000,-1.272679
2.026000,-0.929015
2.027000,-0.898467
2.028000,-1.011749
2.029000,-0.745727
2.030000,-0.472069
2.031000,-0.501344
2.032000,-0.669358
2.033000,-1.118667
2.034000,-1.099574
2.035000,-0.960836
2.036000,-0.762274
2.037000,-0.842462
2.038000,-1.007930
2.039000,-1.165761
2.040000,-1.262496
2.041000,-1.500516
2.042000,-2.014739
2.043000,-1.960007
2.044000,-1.657074
2.045000,-1.598523
2.046000,-1.644345
2.047000,-1.569248
2.048000,-1.406326
2.049000,-1.427964
2.050000,-1.560339
2.051000,-1.663438
2.052000,-1.741080
2.053000,-1.602342
2.054000,-1.674893
2.055000,-1.804722
2.056000,-1.932005
2.057000,-2.088563
2.058000,-2.046560
2.059000,-1.960007
2.060000,-1.876000
2.061000,-1.785629
2.062000,-1.724534
2.063000,-1.489060
2.064000,-1.653255
2.065000,-1.846725
2.066000,-1.975281
2.067000,-1.934551
2.068000,-1.844180
2.069000,-1.937096
2.070000,-1.993101
2.071000,-1.780538
2.072000,-1.693986
2.073000,-1.489060
2.074000,-1.365596
2.075000,-1.398689
2.076000,-1.336320
2.077000,-1.243404
2.078000,-1.228130
2.079000,-1.417782
2.080000,-1.592159
2.081000,-1.828906
2.082000,-1.996919
2.083000,-2.105110
2.084000,-2.344402
2.085000,-2.396588
2.086000,-2.390224
2.087000,-2.050378
2.088000,-1.548883
2.089000,-0.978655
2.090000,-0.521709
2.091000,-0.206047
2.092000,0.053610
2.093000,-0.156407
2.094000,-0.268416
2.095000,-0.356241
2.096000,-0.893376
2.097000,-1.314682
2.098000,-1.861999
2.099000,-2.101291
2.100000,-1.845452
2.101000,-1.823814
2.102000,-1.797085
2.103000,-1.515789
2.104000,-1.141577
2.105000,-1.382142
2.106000,-1.385961
2.107000,-1.221766
2.108000,-0.856464
2.109000,-0.413519
2.110000,-0.206047
2.111000,-0.514072
2.112000,-0.871737
2.113000,-1.360504
2.114000,-1.682530
2.115000,-2.047832
2.116000,-2.082199
2.117000,-2.184025
2.118000,-2.033831
2.119000,-1.884910
2.120000,-1.629071
2.121000,-1.379597
2.122000,-1.377051
2.123000,-1.310864
2.124000,-1.450875
2.125000,-1.440693
2.126000,-1.552702
2.127000,-1.650709
2.128000,-1.937096
2.129000,-1.780538
2.130000,-1.595978
2.131000,-1.462331
2.132000,-1.277770
2.133000,-1.335048
2.134000,-1.525972
2.135000,-1.546337
2.136000,-1.620162
2.137000,-1.748717
2.138000,-1.835270
2.139000,-1.363050
2.140000,-0.972291
2.141000,-1.164488
2.142000,-1.499243
2.143000,-1.928186
2.144000,-2.000738
2.145000,-1.564157
2.146000,-1.114848
2.147000,-0.997748
2.148000,-0.957017
2.149000,-0.894648
2.150000,-0.957017
2.151000,-1.247222
2.152000,-1.721988
2.153000,-2.178934
2.154000,-2.245121
2.155000,-1.961280
2.156000,-1.594705
2.157000,-1.746172
2.158000,-1.925641
2.159000,-1.864545
2.160000,-1.576885
2.161000,-1.347776
2.162000,-1.333775
2.163000,-1.257405
2.164000,-1.147942
2.165000,-1.601069
2.166000,-1.688894
2.167000,-1.965098
2.168000,-1.956189
2.169000,-1.811086
2.170000,-1.794539
2.171000,-1.687622
2.172000,-2.130566
2.173000,-2.834441
2.174000,-2.933722
2.175000,-2.665155
2.176000,-2.078380
2.177000,-1.529791
2.178000,-0.912468
2.179000,-0.832280
2.180000,-0.901013
2.181000,-0.939197
2.182000,-0.860282
2.183000,-0.475887
2.184000,-0.148770
2.185000,-0.134769
2.186000,-0.232777
2.187000,-0.592988
2.188000,-1.234494
2.189000,-1.832724
2.190000,-2.338038
2.191000,-2.546782
2.192000,-2.171297
2.193000,-1.734716
2.194000,-1.307045
2.195000,-1.027023
2.196000,-0.939197
2.197000,-0.755910
2.198000,-0.486070
2.199000,-0.567531
2.200000,-0.773730
2.201000,-0.680813
2.202000,-0.771184
2.203000,-0.899740
2.204000,-0.988838
2.205000,-0.949380
2.206000,-1.041024
2.207000,-1.746172
2.208000,-2.369858
2.209000,-2.648608
2.210000,-3.148830
2.211000,-3.288842
2.212000,-3.020275
2.213000,-2.553146
2.214000,-1.923095
2.215000,-1.581977
2.216000,-1.383415
2.217000,-1.419054
2.218000,-1.142850
2.219000,-0.908650
2.220000,-1.011749
2.221000,-0.809369
2.222000,-0.717725
2.223000,-1.108484
2.224000,-1.988009
2.225000,-1.943460
2.226000,-1.704168
2.227000,-1.413963
2.228000,-1.265042
2.229000,-1.100847
2.230000,-1.257405
2.231000,-1.491606
2.232000,-1.618889
2.233000,-1.534882
2.234000,-1.710532
2.235000,-1.399962
2.236000,-1.273952
2.237000,-1.310864
2.238000,-1.569248
2.239000,-1.760173
2.240000,-1.681257
2.241000,-1.690167
2.242000,-1.805995
2.243000,-1.576885
2.244000,-1.436874
2.245000,-1.192491
2.246000,-0.957017
2.247000,-0.815733
2.248000,-0.771184
2.249000,-0.871737
2.250000,-0.946834
2.251000,-1.128849
2.252000,-1.093210
2.253000,-1.220493
2.254000,-1.449602
2.255000,-1.632890
2.256000,-1.886183
2.257000,-2.464048
2.258000,-2.634607
2.259000,-2.404225
2.260000,-2.189117
2.261000,-1.935823
2.262000,-1.630344
2.263000,-1.407599
2.264000,-1.361777
2.265000,-1.326138
2.266000,-1.037205
2.267000,-0.861555
2.268000,-0.701178
2.269000,-1.112302
2.270000,-1.646891
2.271000,-1.763991
2.272000,-1.537428
2.273000,-1.472513
2.274000,-1.601069
2.275000,-1.861999
2.276000,-2.304944
2.277000,-2.598968
2.278000,-2.345675
2.279000,-2.105110
2.280000,-1.678712
2.281000,-1.393598
2.282000,-1.277770
2.283000,-1.440693
2.284000,-1.650709
2.285000,-1.659619
2.286000,-1.592159
2.287000,-1.257405
2.288000,-0.993929
2.289000,-0.786458
2.290000,-1.401235
2.291000,-1.630344
2.292000,-1.510698
2.293000,-1.237040
2.294000,-1.293044
2.295000,-1.094483
2.296000,-1.132668
2.297000,-1.585795
2.298000,-1.923095
2.299000,-2.187844
2.300000,-2.321491
2.301000,-2.604059
2.302000,-2.224756
2.303000,-1.646891
2.304000,-0.976110
2.305000,-0.494980
2.306000,-0.353696
2.307000,-0.430065
2.308000,-0.423701
2.309000,-0.633718
2.310000,-0.508981
2.311000,-0.440248
2.312000,-0.617172
2.313000,-0.683359
2.314000,-0.819551
2.315000,-1.251041
2.316000,-1.562884
2.317000,-1.970190
2.318000,-2.268032
2.319000,-2.537872
2.320000,-2.672792
2.321000,-2.490777
2.322000,-2.128021
2.323000,-1.909094
2.324000,-1.729625
2.325000,-1.453421
2.326000,-1.165761
2.327000,-0.620990
2.328000,-0.734272
2.329000,-0.736818
2.330000,-0.797913
2.331000,-1.032114
2.332000,-1.399962
2.333000,-1.608706
2.334000,-1.926914
2.335000,-2.027467
2.336000,-1.821269
2.337000,-1.585795
2.338000,-1.457239
2.339000,-1.536155
2.340000,-1.966371
2.341000,-2.088563
2.342000,-2.170024
2.343000,-2.509870
2.344000,-2.102564
2.345000,-1.645618
2.346000,-1.412690
2.347000,-1.226857
2.348000,-1.336320
2.349000,-1.719442
2.350000,-2.010920
2.351000,-2.092381
2.352000,-1.697804
2.353000,-1.357959
2.354000,-1.132668
2.355000,-0.901013
2.356000,-0.466978
2.357000,-0.211139
2.358000,-0.269689
2.359000,-0.450431
2.360000,-0.619717
2.361000,-0.937925
2.362000,-1.128849
2.363000,-1.203946
2.364000,-1.597251
2.365000,-1.984191
2.366000,-2.009648
2.367000,-1.970190
2.368000,-1.902730
2.369000,-1.914185
2.370000,-1.988009
2.371000,-2.018557
2.372000,-1.747445
2.373000,-1.648164
2.374000,-1.860726
2.375000,-1.847998
2.376000,-1.730898
2.377000,-1.803449
2.378000,-1.657074
2.379000,-1.486514
2.380000,-1.454694
2.381000,-1.408872
2.382000,-1.741080
2.383000,-2.116565
2.384000,-2.208209
2.385000,-1.912912
2.386000,-1.380869
2.387000,-1.127576
2.388000,-0.749546
2.389000,-0.664266
2.390000,-0.697360
2.391000,-0.991384
2.392000,-1.332502
2.393000,-1.394871
2.394000,-1.277770
2.395000,-1.380869
2.396000,-1.205219
2.397000,-1.155579
2.398000,-1.086846
2.399000,-1.034660
2.400000,-0.995202
2.401000,-1.224311
2.402000,-1.690167
2.403000,-1.761446
2.404000,-1.763991
2.405000,-1.933278
2.406000,-2.381314
2.407000,-2.406770
2.408000,-2.554419
2.409000,-2.904447
2.410000,-2.425863
2.411000,-1.734716
2.412000,-1.226857
2.413000,-0.741909
2.414000,-0.470796
2.415000,-0.618444
2.416000,-0.870465
2.417000,-1.030841
2.418000,-0.931561
2.419000,-0.939197
2.420000,-0.992656
2.421000,-1.216674
2.422000,-1.392325
2.423000,-1.499243
2.424000,-1.421600
2.425000,-1.602342
2.426000,-1.672348
2.427000,-1.711805
2.428000,-1.715624
2.429000,-1.765264
2.430000,-1.760173
2.431000,-1.645618
2.432000,-1.315955
2.433000,-1.323592
2.434000,-1.471240
2.435000,-1.631617
2.436000,-1.343957
2.437000,-1.217947
2.438000,-1.293044
2.439000,-1.580704
2.440000,-1.853089
2.441000,-1.904003
2.442000,-1.574340
2.443000,-1.383415
2.444000,-1.298136
2.445000,-1.454694
2.446000,-1.403780
2.447000,-1.527245
2.448000,-1.494151
2.449000,-1.284134
2.450000,-1.310864
2.451000,-1.427964
2.452000,-1.522154
2.453000,-1.665983
2.454000,-1.767810
2.455000,-2.066925
2.456000,-2.252758
2.457000,-2.564601
2.458000,-2.620606
2.459000,-2.172570
2.460000,-2.042741
2.461000,-1.924368
2.462000,-1.811086
2.463000,-1.318501
2.464000,-1.472513
2.465000,-1.545065
2.466000,-1.251041
2.467000,-0.734272
2.468000,-0.510254
2.469000,-0.464432
2.470000,-0.744455
2.471000,-0.876829
2.472000,-0.857736
2.473000,-0.703724
2.474000,-0.913741
2.475000,-1.103393
2.476000,-1.355413
2.477000,-1.457239
2.478000,-1.667256
2.479000,-2.214573
2.480000,-2.089836
2.481000,-1.804722
2.482000,-1.536155
2.483000,-1.412690
2.484000,-1.441965
2.485000,-2.089836
2.486000,-2.619333
2.487000,-2.845897
2.488000,-2.750435
2.489000,-2.336765
2.490000,-1.606160
2.491000,-0.883193
2.492000,-0.879374
2.493000,-0.897194
2.494000,-0.893376
2.495000,-0.684631
2.496000,-0.353696
2.497000,-0.295146
2.498000,-0.424974
2.499000,-0.859009
2.500000,-1.083027
2.501000,-1.077936
2.502000,-1.281589
2.503000,-1.323592
2.504000,-1.342685
2.505000,-1.378324
2.506000,-1.242131
2.507000,-1.295590
2.508000,-1.646891
2.509000,-1.870909
2.510000,-1.814905
2.511000,-1.797085
2.512000,-1.968917
2.513000,-2.018557
2.514000,-1.821269
2.515000,-1.491606
2.516000,-1.313410
2.517000,-1.224311
2.518000,-1.198855
2.519000,-0.918832
2.520000,-1.125031
2.521000,-1.553974
2.522000,-1.709260
2.523000,-1.990555
2.524000,-1.828906
2.525000,-1.687622
2.526000,-1.490333
2.527000,-1.366868
2.528000,-1.298136
2.529000,-1.249768
2.530000,-1.377051
2.531000,-1.696531
2.532000,-1.676166
2.533000,-1.932005
2.534000,-1.985464
2.535000,-1.888729
2.536000,-1.856908
2.537000,-1.791994
2.538000,-1.779265
2.539000,-1.989282
2.540000,-2.041468
2.541000,-2.224756
2.542000,-2.604059
2.543000,-2.565874
2.544000,-2.218392
2.545000,-1.774174
2.546000,-1.346503
2.547000,-1.025750
2.548000,-0.842462
2.549000,-0.912468
2.550000,-1.604888
2.551000,-1.527245
2.552000,-1.333775
2.553000,-1.273952
2.554000,-1.100847
2.555000,-0.945562
2.556000,-0.718998
2.557000,-0.925196
2.558000,-1.214129
2.559000,-1.258678
2.560000,-0.986292
2.561000,-0.522982
2.562000,-0.474615
2.563000,-0.570077
2.564000,-0.549712
2.565000,-0.675722
2.566000,-0.929015
2.567000,-1.133940
2.568000,-1.257405
2.569000,-1.408872
2.570000,-1.445784
2.571000,-1.608706
2.572000,-2.002011
2.573000,-2.363494
2.574000,-2.850988
2.575000,-2.905720
2.576000,-2.808985
2.577000,-2.474230
2.578000,-2.290943
2.579000,-1.999465
2.580000,-1.979100
2.581000,-2.135658
2.582000,-1.943460
2.583000,-1.282862
2.584000,-0.870465
2.585000,-0.767365
2.586000,-0.590442
2.587000,-0.857736
2.588000,-1.014294
2.589000,-1.221766
2.590000,-1.228130
2.591000,-1.315955
2.592000,-1.252314
2.593000,-1.104665
2.594000,-1.005385
2.595000,-0.912468
2.596000,-0.906104
2.597000,-1.042297
2.598000,-1.240858
2.599000,-1.271406
2.600000,-1.053752
2.601000,-1.239585
2.602000,-1.326138
2.603000,-1.514517
2.604000,-1.611252
2.605000,-1.752536
2.606000,-1.814905
2.607000,-1.884910
2.608000,-2.055469
2.609000,-2.248940
2.610000,-2.349493
2.611000,-2.218392
2.612000,-2.082199
2.613000,-2.098746
2.614000,-2.653699
2.615000,-3.198471
2.616000,-3.153922
2.617000,-2.630789
2.618000,-1.918004
2.619000,-1.501788
2.620000,-1.476332
2.621000,-1.047388
2.622000,-0.698633
2.623000,-0.447885
2.624000,-0.035488
2.625000,0.179620
2.626000,0.353998
2.627000,0.317086
2.628000,0.024335
2.629000,-0.489889
2.630000,-0.704997
2.631000,-0.867919
2.632000,-1.345230
2.633000,-1.831451
2.634000,-2.042741
2.635000,-2.274396
2.636000,-2.497141
2.637000,-2.535326
2.638000,-2.331673
2.639000,-2.040195
2.640000,-1.769083
2.641000,-1.546337
2.642000,-1.338866
2.643000,-1.085573
2.644000,-1.144123
2.645000,-1.271406
2.646000,-1.327411
2.647000,-1.369414
2.648000,-1.310864
2.649000,-1.818723
2.650000,-2.007102
2.651000,-1.890001
2.652000,-2.041468
2.653000,-1.926914
2.654000,-1.739808
2.655000,-1.707987
2.656000,-2.161114
2.657000,-2.145840
2.658000,-1.990555
2.659000,-1.483969
2.660000,-1.030841
2.661000,-0.684631
2.662000,-0.731726
2.663000,-0.991384
2.664000,-0.909922
2.665000,-0.955744
2.666000,-1.317228
2.667000,-1.587068
2.668000,-1.916731
2.669000,-1.611252
2.670000,-1.522154
2.671000,-1.378324
2.672000,-1.263769
2.673000,-1.178490
2.674000,-1.077936
2.675000,-1.046115
2.676000,-1.312137
2.677000,-1.700350
2.678000,-1.704168
2.679000,-1.455966
2.680000,-1.393598
2.681000,-1.732171
2.682000,-1.995646
2.683000,-2.069471
2.684000,-2.182752
2.685000,-2.164933
2.686000,-1.943460
2.687000,-1.641800
2.688000,-1.531063
2.689000,-1.832724
2.690000,-2.359676
2.691000,-2.036377
2.692000,-1.313410
2.693000,-0.724089
2.694000,-0.451704
2.695000,-0.256961
2.696000,-0.339695
2.697000,-0.507708
2.698000,-0.806823
2.699000,-1.196309
2.700000,-1.067753
2.701000,-1.248495
2.702000,-1.635435
2.703000,-1.757627
2.704000,-1.975281
2.705000,-2.201845
2.706000,-2.549327
2.707000,-2.451320
2.708000,-2.056742
2.709000,-1.664711
2.710000,-1.299408
2.711000,-1.035933
2.712000,-1.013022
2.713000,-0.894648
2.714000,-0.685904
2.715000,-0.712634
2.716000,-0.800459
2.717000,-0.754637
2.718000,-0.865373
2.719000,-1.131395
2.720000,-1.235767
2.721000,-1.221766
2.722000,-1.480150
2.723000,-1.705441
2.724000,-1.878546
2.725000,-2.312581
2.726000,-2.639698
2.727000,-2.662609
2.728000,-2.457684
2.729000,-2.222210
2.730000,-1.993101
2.731000,-1.685076
2.732000,-1.454694
2.733000,-1.151760
2.734000,-0.982474
2.735000,-1.023204
2.736000,-0.772457
2.737000,-0.735545
2.738000,-1.061389
2.739000,-1.412690
2.740000,-1.631617
2.741000,-1.752536
2.742000,-1.789448
2.743000,-1.696531
2.744000,-1.912912
2.745000,-1.822541
2.746000,-1.626526
2.747000,-1.537428
2.748000,-1.477605
2.749000,-1.242131
2.750000,-1.349049
2.751000,-1.657074
2.752000,-1.663438
2.753000,-1.537428
2.754000,-1.595978
2.755000,-1.659619
2.756000,-1.882365
2.757000,-2.268032
2.758000,-2.240030
2.759000,-2.074562
2.760000,-1.738535
2.761000,-1.478877
2.762000,-1.178490
2.763000,-1.067753
2.764000,-1.069026
2.765000,-1.043570
2.766000,-0.985019
2.767000,-1.387234
2.768000,-1.597251
2.769000,-1.878546
2.770000,-1.744899
2.771000,-1.560339
2.772000,-1.513244
2.773000,-1.459785
2.774000,-1.402508
2.775000,-1.150487
2.776000,-0.859009
2.777000,-0.867919
2.778000,-1.186127
2.779000,-1.084300
2.780000,-1.094483
2.781000,-1.206492
2.782000,-1.295590
2.783000,-1.281589
2.784000,-1.257405
2.785000,-1.267588
2.786000,-1.111030
2.787000,-1.220493
2.788000,-1.233221
2.789000,-1.275225
2.790000,-1.201400
2.791000,-1.173398
2.792000,-1.231948
2.793000,-1.235767
2.794000,-1.509425
2.795000,-1.925641
2.796000,-2.055469
2.797000,-2.045287
2.798000,-2.037650
2.799000,-2.023649
2.800000,-1.667256
2.801000,-2.172570
2.802000,-2.415680
2.803000,-2.535326
2.804000,-2.433500
2.805000,-2.033831
2.806000,-1.646891
2.807000,-1.377051
2.808000,-1.192491
2.809000,-1.247222
2.810000,-1.075390
2.811000,-0.913741
2.812000,-0.805550
2.813000,-0.483524
2.814000,-0.520436
2.815000,-0.799186
2.816000,-1.329956
2.817000,-1.839088
2.818000,-1.984191
2.819000,-2.002011
2.820000,-1.751263
2.821000,-1.561611
2.822000,-1.464876
2.823000,-1.560339
2.824000,-1.761446
2.825000,-1.976554
2.826000,-2.112747
2.827000,-2.108928
2.828000,-1.783084
2.829000,-1.625253
2.830000,-1.441965
2.831000,-1.229403
2.832000,-1.043570
2.833000,-0.996475
2.834000,-0.993929
2.835000,-1.018113
2.836000,-0.960836
2.837000,-0.828461
2.838000,-0.469523
2.839000,-0.608262
2.840000,-0.931561
2.841000,-1.005385
2.842000,-1.533609
2.843000,-2.234938
2.844000,-2.472958
2.845000,-2.416953
2.846000,-2.002011
2.847000,-1.587068
2.848000,-1.202673
2.849000,-1.436874
2.850000,-1.510698
2.851000,-1.464876
2.852000,-1.397416
2.853000,-1.220493
2.854000,-0.901013
2.855000,-0.836098
2.856000,-0.843735
2.857000,-0.930288
2.858000,-1.132668
2.859000,-1.537428
2.860000,-1.919277
2.861000,-2.363494
2.862000,-2.483140
2.863000,-2.614242
2.864000,-2.373677
2.865000,-2.161114
2.866000,-2.010920
2.867000,-2.108928
2.868000,-1.982918
2.869000,-1.665983
2.870000,-1.187399
2.871000,-0.786458
2.872000,-0.945562
2.873000,-1.357959
2.874000,-1.671075
2.875000,-1.532336
2.876000,-0.974837
2.877000,-0.477160
2.878000,-0.657902
2.879000,-0.712634
2.880000,-0.542075
2.881000,-0.501344
2.882000,-0.584078
2.883000,-0.701178
2.884000,-1.015567
2.885000,-1.576885
2.886000,-1.772901
2.887000,-1.793266
2.888000,-2.028740
2.889000,-2.252758
2.890000,-2.378768
2.891000,-2.350766
2.892000,-2.570966
2.893000,-2.539145
2.894000,-2.759344
2.895000,-3.019002
2.896000,-2.913357
2.897000,-2.684247
2.898000,-2.750435
2.899000,-2.432227
2.900000,-2.107655
2.901000,-1.525972
2.902000,-1.002839
2.903000,-0.696087
2.904000,-0.741909
2.905000,-0.273507
2.906000,0.212714
2.907000,0.581834
2.908000,0.352725
2.909000,0.360362
2.910000,0.291629
2.911000,-0.017669
2.912000,-0.503890
2.913000,-1.327411
2.914000,-1.867091
2.915000,-1.953643
2.916000,-1.581977
2.917000,-1.315955
2.918000,-1.209037
2.919000,-1.197582
2.920000,-1.510698
2.921000,-1.728352
2.922000,-1.935823
2.923000,-2.227301
2.924000,-2.180207
2.925000,-2.135658
2.926000,-2.163660
2.927000,-1.951097
2.928000,-1.718169
2.929000,-1.765264
2.930000,-1.996919
2.931000,-2.121657
2.932000,-2.009648
2.933000,-1.812359
2.934000,-1.887456
2.935000,-2.283306
2.936000,-2.302398
2.937000,-2.842078
2.938000,-3.049550
2.939000,-2.843351
2.940000,-2.213300
2.941000,-1.461058
2.942000,-0.907377
2.943000,-0.268416
2.944000,-0.063490
2.945000,0.219078
2.946000,0.281446
2.947000,0.029426
2.948000,-0.316784
2.949000,-0.292600
2.950000,-0.503890
2.951000,-0.801732
2.952000,-0.880647
2.953000,-1.100847
2.954000,-1.483969
2.955000,-1.719442
2.956000,-1.753809
2.957000,-1.795812
2.958000,-1.906548
2.959000,-2.021103
2.960000,-2.320218
2.961000,-2.479322
2.962000,-2.662609
2.963000,-2.848442
2.964000,-2.915902
2.965000,-2.964270
2.966000,-2.635880
2.967000,-2.228574
2.968000,-1.822541
2.969000,-1.383415
2.970000,-1.074117
2.971000,-0.734272
2.972000,-0.605716
2.973000,-0.260779
2.974000,-0.412246
2.975000,-0.552257
2.976000,-0.648992
2.977000,-0.848827
2.978000,-0.845008
2.979000,-1.014294
2.980000,-1.097028
2.981000,-1.076663
2.982000,-0.997748
2.983000,-1.088119
2.984000,-1.779265
2.985000,-1.683803
2.986000,-1.517062
2.987000,-1.475059
2.988000,-1.583249
2.989000,-1.534882
2.990000,-1.580704
2.991000,-1.629071
2.992000,-1.707987
2.993000,-1.907821
2.994000,-2.369858
2.995000,-2.588785
2.996000,-2.492050
2.997000,-2.205663
2.998000,-1.957461
2.999000,-1.739808
3.000000,-1.546337
3.001000,-1.335048
3.002000,-1.097028
3.003000,-0.817006
3.004000,-0.745727
3.005000,-0.694814
3.006000,-0.740636
3.007000,-1.136486
3.008000,-1.546337
3.009000,-1.710532
3.010000,-1.732171
3.011000,-1.522154
3.012000,-1.472513
3.013000,-1.500516
3.014000,-1.607433
3.015000,-1.585795
3.016000,-1.827633
3.017000,-2.142022
3.018000,-1.961280
3.019000,-1.508152
3.020000,-1.341412
3.021000,-1.181035
3.022000,-1.094483
3.023000,-1.125031
3.024000,-1.322319
3.025000,-1.677439
3.026000,-2.150932
3.027000,-2.189117
3.028000,-1.971463
3.029000,-1.650709
3.030000,-1.458512
3.031000,-1.555247
3.032000,-1.519608
3.033000,-1.524699
3.034000,-1.471240
3.035000,-1.293044
3.036000,-1.221766
3.037000,-1.336320
3.038000,-1.536155
3.039000,-1.350322
3.040000,-1.186127
3.041000,-1.168307
3.042000,-1.060116
3.043000,-1.027023
3.044000,-1.426691
3.045000,-1.671075
3.046000,-2.055469
3.047000,-2.135658
3.048000,-2.107655
3.049000,-1.876000
3.050000,-1.471240
3.051000,-1.113575
3.052000,-0.747000
3.053000,-0.662993
3.054000,-0.618444
3.055000,-0.671903
3.056000,-0.464432
3.057000,-0.212412
3.058000,-0.534438
3.059000,-0.913741
3.060000,-1.426691
3.061000,-1.630344
3.062000,-1.685076
3.063000,-1.618889
3.064000,-1.947279
3.065000,-2.436046
3.066000,-2.315127
3.067000,-2.120384
3.068000,-1.976554
3.069000,-1.949824
3.070000,-1.953643
3.071000,-2.083472
3.072000,-2.227301
3.073000,-2.195481
3.074000,-1.981645
3.075000,-1.589614
3.076000,-1.256132
3.077000,-1.165761
3.078000,-1.175944
3.079000,-1.158124
3.080000,-1.257405
3.081000,-1.301954
3.082000,-1.038478
3.083000,-0.833553
3.084000,-0.806823
3.085000,-0.703724
3.086000,-0.724089
3.087000,-0.974837
3.088000,-1.383415
3.089000,-1.723261
3.090000,-1.845452
3.091000,-1.895093
3.092000,-1.884910
3.093000,-1.760173
3.094000,-1.855635
3.095000,-1.909094
3.096000,-1.799631
3.097000,-1.812359
3.098000,-1.677439
3.099000,-1.587068
3.100000,-1.559066
3.101000,-1.318501
3.102000,-1.313410
3.103000,-1.611252
3.104000,-1.895093
3.105000,-1.841634
3.106000,-1.742353
3.107000,-2.045287
3.108000,-2.192935
3.109000,-1.977827
3.110000,-1.948552
3.111000,-2.220937
3.112000,-2.937541
3.113000,-2.558237
3.114000,-1.938369
3.115000,-1.438147
3.116000,-1.041024
3.117000,-0.747000
3.118000,-0.441521
3.119000,-0.134769
3.120000,-0.115676
3.121000,-0.226413
3.122000,-0.228958
3.123000,-0.230231
3.124000,-0.669358
3.125000,-1.147942
3.126000,-1.613797
3.127000,-1.901457
3.128000,-2.051651
3.129000,-1.990555
3.130000,-1.667256
3.131000,-1.319774
3.132000,-1.094483
3.133000,-0.937925
3.134000,-1.091937
3.135000,-1.270133
3.136000,-1.327411
3.137000,-1.407599
3.138000,-1.357959
3.139000,-1.083027
3.140000,-0.988838
3.141000,-1.203946
3.142000,-1.601069
3.143000,-2.248940
3.144000,-2.212027
3.145000,-1.977827
3.146000,-1.868363
3.147000,-1.972735
3.148000,-1.870909
3.149000,-1.832724
3.150000,-1.739808
3.151000,-1.795812
3.152000,-1.942188
3.153000,-1.657074
3.154000,-1.345230
3.155000,-1.314682
3.156000,-1.303227
3.157000,-1.196309
3.158000,-0.694814
3.159000,-0.762274
3.160000,-0.988838
3.161000,-1.224311
3.162000,-1.405053
3.163000,-1.585795
3.164000,-2.166206
3.165000,-2.072016
3.166000,-1.833997
3.167000,-1.599796
3.168000,-1.514517
3.169000,-1.396143
3.170000,-1.546337
3.171000,-1.724534
3.172000,-1.881092
3.173000,-1.603615
3.174000,-1.369414
3.175000,-1.074117
3.176000,-0.973564
3.177000,-1.455966
3.178000,-2.037650
3.179000,-2.569693
3.180000,-2.544236
3.181000,-2.486959
3.182000,-2.171297
3.183000,-1.809813
3.184000,-1.373233
3.185000,-0.964654
3.186000,-0.735545
3.187000,-0.750819
3.188000,-0.735545
3.189000,-0.747000
3.190000,-0.703724
3.191000,-0.730453
3.192000,-0.755910
3.193000,-0.889557
3.194000,-1.005385
3.195000,-1.164488
3.196000,-1.310864
3.197000,-1.616343
3.198000,-1.766537
3.199000,-1.854362
3.200000,-1.789448
3.201000,-1.868363
3.202000,-2.129294
3.203000,-2.128021
3.204000,-1.890001
3.205000,-1.663438
3.206000,-1.751263
3.207000,-2.061834
3.208000,-2.083472
3.209000,-1.827633
3.210000,-1.958734
3.211000,-2.023649
3.212000,-2.189117
3.213000,-2.016012
3.214000,-1.952370
3.215000,-1.790721
3.216000,-1.408872
3.217000,-1.258678
3.218000,-1.149214
3.219000,-0.992656
3.220000,-0.502617
3.221000,-0.076219
3.222000,-0.086401
3.223000,-0.297691
3.224000,-0.745727
3.225000,-0.831007
3.226000,-0.990111
3.227000,-1.164488
3.228000,-1.000293
3.229000,-0.923924
3.230000,-0.968473
3.231000,-1.100847
3.232000,-1.406326
3.233000,-1.867091
3.234000,-2.096200
3.235000,-2.037650
3.236000,-1.916731
3.237000,-1.769083
3.238000,-1.426691
3.239000,-1.495424
3.240000,-1.804722
3.241000,-1.918004
3.242000,-1.892547
3.243000,-1.915458
3.244000,-2.074562
3.245000,-2.136931
3.246000,-1.805995
3.247000,-1.483969
3.248000,-1.295590
3.249000,-1.237040
3.250000,-1.202673
3.251000,-1.221766
3.252000,-1.281589
3.253000,-1.309591
3.254000,-1.473786
3.255000,-1.632890
3.256000,-1.858181
3.257000,-1.982918
3.258000,-2.013466
3.259000,-2.332946
3.260000,-2.360949
3.261000,-2.170024
3.262000,-1.912912
3.263000,-1.728352
3.264000,-1.383415
3.265000,-1.189945
3.266000,-1.037205
3.267000,-1.009203
3.268000,-1.356686
3.269000,-1.221766
3.270000,-1.172125
3.271000,-1.294317
3.272000,-1.304500
3.273000,-1.373233
3.274000,-1.539973
3.275000,-1.749990
3.276000,-2.012193
3.277000,-2.072016
3.278000,-1.819996
3.279000,-1.608706
3.280000,-1.552702
3.281000,-1.296863
3.282000,-1.025750
3.283000,-0.951926
3.284000,-1.117394
3.285000,-1.113575
3.286000,-1.419054
3.287000,-1.360504
3.288000,-1.356686
3.289000,-1.321046
3.290000,-1.219220
3.291000,-1.019386
3.292000,-0.806823
3.293000,-0.752091
3.294000,-0.987565
3.295000,-1.149214
3.296000,-1.345230
3.297000,-1.351594
3.298000,-1.528518
3.299000,-1.420327
3.300000,-1.584522
3.301000,-1.672348
3.302000,-1.730898
3.303000,-1.895093
3.304000,-2.021103
3.305000,-2.138203
3.306000,-2.182752
3.307000,-1.972735
3.308000,-2.186571
3.309000,-2.539145
3.310000,-2.466593
3.311000,-2.033831
3.312000,-1.552702
3.313000,-1.233221
3.314000,-1.001566
3.315000,-0.864101
3.316000,-0.693541
3.317000,-0.696087
3.318000,-0.701178
3.319000,-0.710088
3.320000,-0.427520
3.321000,-0.407155
3.322000,-0.459341
3.323000,-0.940470
3.324000,-1.224311
3.325000,-1.513244
3.326000,-1.733443
3.327000,-1.681257
3.328000,-1.602342
3.329000,-1.678712
3.330000,-1.699077
3.331000,-1.770355
3.332000,-1.758900
3.333000,-1.808540
3.334000,-1.845452
3.335000,-2.055469
3.336000,-2.296034
3.337000,-2.352039
3.338000,-2.564601
3.339000,-2.770800
3.340000,-2.536599
3.341000,-2.177661
3.342000,-1.879819
3.343000,-1.599796
3.344000,-1.669802
3.345000,-2.088563
3.346000,-2.073289
3.347000,-1.911640
3.348000,-1.780538
3.349000,-1.398689
3.350000,-1.359231
3.351000,-1.368141
3.352000,-1.760173
3.353000,-1.504334
3.354000,-0.944289
3.355000,-0.542075
3.356000,-0.570077
3.357000,-0.332058
3.358000,-0.278599
3.359000,-0.029124
3.360000,0.094340
3.361000,0.136344
3.362000,-0.043125
3.363000,-0.312965
3.364000,-0.690996
3.365000,-0.850099
3.366000,-0.957017
3.367000,-1.270133
3.368000,-1.623980
3.369000,-1.895093
3.370000,-1.947279
3.371000,-1.946006
3.372000,-1.776720
3.373000,-1.644345
3.374000,-1.719442
3.375000,-1.870909
3.376000,-2.041468
3.377000,-2.133112
3.378000,-2.131839
3.379000,-2.154750
3.380000,-2.096200
3.381000,-2.234938
3.382000,-2.264214
3.383000,-2.420772
3.384000,-2.471685
3.385000,-2.443683
3.386000,-2.278215
3.387000,-1.914185
3.388000,-1.555247
3.389000,-1.237040
3.390000,-0.988838
3.391000,-0.873010
3.392000,-1.083027
3.393000,-1.439420
3.394000,-1.828906
3.395000,-1.977827
3.396000,-1.690167
3.397000,-1.718169
3.398000,-2.018557
3.399000,-1.861999
3.400000,-1.601069
3.401000,-1.340139
3.402000,-1.010476
3.403000,-0.715179
3.404000,-0.716452
3.405000,-0.824643
3.406000,-0.497525
3.407000,-0.637537
3.408000,-0.789004
3.409000,-0.750819
3.410000,-0.755910
3.411000,-0.654084
3.412000,-0.619717
3.413000,-0.669358
3.414000,-0.951926
3.415000,-1.335048
3.416000,-1.534882
3.417000,-1.748717
3.418000,-1.687622
3.419000,-1.621434
3.420000,-1.564157
3.421000,-1.669802
3.422000,-1.822541
3.423000,-2.075835
3.424000,-2.192935
3.425000,-2.186571
3.426000,-2.084744
3.427000,-1.993101
3.428000,-1.951097
3.429000,-2.066925
3.430000,-2.145840
3.431000,-2.051651
3.432000,-1.849271
3.433000,-1.564157
3.434000,-1.463603
3.435000,-1.433056
3.436000,-1.356686
3.437000,-1.443238
3.438000,-1.458512
3.439000,-1.346503
3.440000,-1.541246
3.441000,-1.739808
3.442000,-2.098746
3.443000,-1.879819
3.444000,-1.611252
3.445000,-1.385961
3.446000,-1.249768
3.447000,-1.419054
3.448000,-1.346503
3.449000,-1.511971
3.450000,-1.677439
3.451000,-1.933278
3.452000,-2.386405
3.453000,-2.564601
3.454000,-3.069915
3.455000,-3.194652
3.456000,-2.873899
3.457000,-1.996919
3.458000,-1.086846
3.459000,-0.095311
3.460000,0.494009
3.461000,0.654386
3.462000,0.421458
3.463000,0.365453
3.464000,0.443096
3.465000,0.332360
3.466000,0.495282
3.467000,0.348906
3.468000,-0.255688
3.469000,-0.931561
3.470000,-1.641800
3.471000,-1.918004
3.472000,-1.910367
3.473000,-1.989282
3.474000,-2.077107
3.475000,-2.066925
3.476000,-2.045287
3.477000,-1.989282
3.478000,-1.924368
3.479000,-1.882365
3.480000,-1.678712
3.481000,-1.570521
3.482000,-1.618889
3.483000,-1.631617
3.484000,-1.583249
3.485000,-1.571794
3.486000,-2.049105
3.487000,-2.598968
3.488000,-2.943905
3.489000,-3.269749
3.490000,-3.113191
3.491000,-2.772073
3.492000,-2.228574
3.493000,-1.892547
3.494000,-1.495424
3.495000,-1.257405
3.496000,-1.057571
3.497000,-0.916287
3.498000,-0.927742
3.499000,-0.885739
3.500000,-0.628627
3.501000,-0.296418
3.502000,-0.390608
3.503000,-0.482252
3.504000,-0.489889
3.505000,-1.102120
3.506000,-1.191218
3.507000,-1.189945
3.508000,-1.055025
3.509000,-0.939197
3.510000,-0.857736
3.511000,-0.825916
3.512000,-0.964654
3.513000,-1.307045
3.514000,-1.612525
3.515000,-1.699077
3.516000,-1.720715
3.517000,-1.760173
3.518000,-1.685076
3.519000,-1.946006
3.520000,-2.260395
3.521000,-2.497141
3.522000,-2.409316
3.523000,-2.131839
3.524000,-1.911640
3.525000,-1.916731
3.526000,-1.874728
3.527000,-2.190389
3.528000,-2.758072
3.529000,-2.884082
3.530000,-2.882809
3.531000,-2.490777
3.532000,-2.004556
3.533000,-1.685076
3.534000,-1.327411
3.535000,-1.193763
3.536000,-1.178490
3.537000,-0.903558
3.538000,-0.757183
3.539000,-0.361333
3.540000,-0.161498
3.541000,-0.377879
3.542000,-0.440248
3.543000,-0.491161
3.544000,-0.753364
3.545000,-1.177217
3.546000,-1.873455
3.547000,-1.975281
3.548000,-1.704168
3.549000,-1.387234
3.550000,-1.247222
3.551000,-1.037205
3.552000,-0.755910
3.553000,-0.981201
3.554000,-1.350322
3.555000,-1.679985
3.556000,-2.056742
3.557000,-1.958734
3.558000,-1.756354
3.559000,-1.354140
3.560000,-1.285407
3.561000,-1.459785
3.562000,-1.388506
3.563000,-1.217947
3.564000,-1.303227
3.565000,-1.186127
3.566000,-1.128849
3.567000,-1.235767
3.568000,-1.478877
3.569000,-2.016012
3.570000,-2.080926
3.571000,-1.938369
3.572000,-1.690167
3.573000,-1.514517
3.574000,-1.663438
3.575000,-1.617616
3.576000,-1.900184
3.577000,-1.946006
3.578000,-1.867091
3.579000,-1.511971
3.580000,-1.379597
3.581000,-1.509425
3.582000,-1.714351
3.583000,-2.044014
3.584000,-1.993101
3.585000,-1.609979
3.586000,-1.303227
3.587000,-1.141577
3.588000,-1.203946
3.589000,-1.379597
3.590000,-1.202673
3.591000,-1.206492
3.592000,-1.032114
3.593000,-0.867919
3.594000,-0.755910
3.595000,-0.587896
3.596000,-0.694814
3.597000,-0.884466
3.598000,-0.838644
3.599000,-0.867919
3.600000,-1.025750
3.601000,-1.186127
3.602000,-1.279043
3.603000,-1.447057
3.604000,-1.655801
3.605000,-1.743626
3.606000,-1.800903
3.607000,-1.803449
3.608000,-1.795812
3.609000,-1.766537
3.610000,-1.873455
3.611000,-2.064379
3.612000,-2.120384
3.613000,-2.196754
3.614000,-2.264214
3.615000,-2.656245
3.616000,-2.954087
3.617000,-3.075006
3.618000,-2.998636
3.619000,-2.605332
3.620000,-1.961280
3.621000,-1.229403
3.622000,-0.890830
3.623000,-0.626081
3.624000,-0.472069
3.625000,-0.581532
3.626000,-0.608262
3.627000,-0.321875
3.628000,-0.456795
3.629000,-0.958290
3.630000,-1.286680
3.631000,-1.748717
3.632000,-2.024921
3.633000,-2.238757
3.634000,-2.335492
3.635000,-1.960007
3.636000,-1.650709
3.637000,-1.494151
3.638000,-1.902730
3.639000,-1.916731
3.640000,-2.056742
3.641000,-2.247667
3.642000,-1.804722
3.643000,-1.301954
3.644000,-1.107211
3.645000,-1.224311
3.646000,-1.346503
3.647000,-1.457239
3.648000,-1.424146
3.649000,-1.394871
3.650000,-1.006657
3.651000,-0.200956
3.652000,0.011607
3.653000,-0.230231
3.654000,-0.697360
3.655000,-1.198855
3.656000,-1.486514
3.657000,-1.514517
3.658000,-1.431783
3.659000,-1.151760
3.660000,-0.871737
3.661000,-0.755910
3.662000,-1.067753
3.663000,-1.589614
3.664000,-1.766537
3.665000,-1.595978
3.666000,-1.252314
3.667000,-1.108484
3.668000,-0.976110
3.669000,-1.097028
3.670000,-1.121212
3.671000,-1.046115
3.672000,-1.186127
3.673000,-1.518335
3.674000,-1.636708
3.675000,-1.709260
3.676000,-1.874728
3.677000,-2.096200
3.678000,-1.999465
3.679000,-1.760173
3.680000,-1.462331
3.681000,-1.263769
3.682000,-1.349049
3.683000,-1.669802
3.684000,-1.930732
3.685000,-2.036377
3.686000,-1.963826
3.687000,-2.030013
3.688000,-1.984191
3.689000,-2.078380
3.690000,-2.166206
3.691000,-2.092381
3.692000,-1.921822
3.693000,-1.949824
3.694000,-1.996919
3.695000,-1.971463
3.696000,-1.807268
3.697000,-1.660892
3.698000,-1.556520
3.699000,-1.366868
3.700000,-1.161943
3.701000,-1.347776
3.702000,-1.658346
3.703000,-1.794539
3.704000,-1.553974
3.705000,-1.195036
3.706000,-1.809813
3.707000,-1.783084
3.708000,-1.681257
3.709000,-1.699077
3.710000,-1.938369
3.711000,-1.951097
3.712000,-2.110201
3.713000,-2.579875
3.714000,-2.927358
3.715000,-3.297751
3.716000,-3.036821
3.717000,-2.367313
3.718000,-1.673620
3.719000,-1.028296
3.720000,-0.353696
3.721000,0.315813
3.722000,0.697662
3.723000,1.027325
3.724000,0.875858
3.725000,0.583107
3.726000,0.408729
3.727000,0.502919
3.728000,0.025608
3.729000,-0.354969
3.730000,-0.619717
3.731000,-0.907377
3.732000,-1.188672
3.733000,-1.219220
3.734000,-1.323592
3.735000,-1.729625
3.736000,-1.949824
3.737000,-2.247667
3.738000,-2.595149
3.739000,-2.408043
3.740000,-2.212027
3.741000,-2.052924
3.742000,-2.023649
3.743000,-1.846725
3.744000,-1.733443
3.745000,-1.732171
3.746000,-1.517062
3.747000,-1.270133
3.748000,-1.080482
3.749000,-1.310864
3.750000,-1.611252
3.751000,-1.616343
3.752000,-1.592159
3.753000,-1.500516
3.754000,-1.753809
3.755000,-1.937096
3.756000,-1.813632
3.757000,-1.608706
3.758000,-1.508152
3.759000,-1.324865
3.760000,-1.173398
3.761000,-1.263769
3.762000,-1.574340
3.763000,-1.864545
3.764000,-2.103837
3.765000,-2.140749
3.766000,-2.564601
3.767000,-2.568420
3.768000,-2.383860
3.769000,-1.985464
3.770000,-1.748717
3.771000,-1.435601
3.772000,-1.280316
3.773000,-1.158124
3.774000,-1.090664
3.775000,-1.126303
3.776000,-1.368141
3.777000,-1.438147
3.778000,-1.471240
3.779000,-1.918004
3.780000,-2.829350
3.781000,-3.148830
3.782000,-2.964270
3.783000,-2.434773
3.784000,-2.419499
3.785000,-2.231120
3.786000,-1.795812
3.787000,-1.601069
3.788000,-1.164488
3.789000,-0.906104
3.790000,-0.494980
3.791000,0.094340
3.792000,0.337451
3.793000,0.393456
3.794000,0.308176
3.795000,0.012879
3.796000,-0.058399
3.797000,-0.078764
3.798000,-0.283690
3.799000,-0.329512
3.800000,-0.643901
3.801000,-0.689723
3.802000,-0.949380
3.803000,-1.312137
3.804000,-1.547610
3.805000,-1.621434
3.806000,-1.626526
3.807000,-1.723261
3.808000,-1.827633
3.809000,-1.914185
3.810000,-2.187844
3.811000,-2.710977
3.812000,-3.512860
3.813000,-4.071632
3.814000,-3.781427
3.815000,-3.324481
3.816000,-2.567147
3.817000,-2.018557
3.818000,-1.629071
3.819000,-1.425419
3.820000,-1.296863
3.821000,-0.934106
3.822000,-0.402063
3.823000,-0.130950
3.824000,-0.092766
3.825000,0.028153
3.826000,-0.202229
3.827000,-0.533165
3.828000,-1.060116
3.829000,-1.210310
3.830000,-1.430510
3.831000,-1.389779
3.832000,-1.168307
3.833000,-1.160670
3.834000,-1.211583
3.835000,-1.196309
3.836000,-1.447057
3.837000,-1.636708
3.838000,-1.844180
3.839000,-1.859454
3.840000,-1.989282
3.841000,-2.262941
3.842000,-2.504778
3.843000,-2.503506
3.844000,-2.591331
3.845000,-2.602786
3.846000,-2.492050
3.847000,-2.206936
3.848000,-1.644345
3.849000,-1.366868
3.850000,-0.954471
3.851000,-0.656629
3.852000,-0.712634
3.853000,-0.897194
3.854000,-0.857736
3.855000,-0.853918
3.856000,-0.822097
3.857000,-1.047388
3.858000,-1.275225
3.859000,-1.667256
3.860000,-1.777992
3.861000,-1.772901
3.862000,-1.926914
3.863000,-2.133112
3.864000,-1.911640
3.865000,-1.849271
3.866000,-2.030013
3.867000,-2.213300
3.868000,-2.080926
3.869000,-1.972735
3.870000,-1.704168
3.871000,-1.131395
3.872000,-0.428793
3.873000,-0.368970
3.874000,-1.121212
3.875000,-1.242131
3.876000,-0.837371
3.877000,-0.599352
3.878000,-0.600625
3.879000,-0.580259
3.880000,-0.707542
3.881000,-0.986292
3.882000,-1.539973
3.883000,-1.915458
3.884000,-2.135658
3.885000,-1.995646
3.886000,-1.883637
3.887000,-1.762718
3.888000,-1.611252
3.889000,-1.809813
3.890000,-2.242575
3.891000,-2.498414
3.892000,-2.122929
3.893000,-1.733443
3.894000,-1.385961
3.895000,-1.107211
3.896000,-0.861555
3.897000,-0.584078
3.898000,-0.508981
3.899000,-0.502617
3.900000,-0.781367
3.901000,-1.071572
3.902000,-1.285407
3.903000,-1.188672
3.904000,-1.245950
3.905000,-1.636708
3.906000,-1.881092
3.907000,-2.030013
3.908000,-2.164933
3.909000,-2.261668
3.910000,-2.161114
3.911000,-2.089836
3.912000,-2.135658
3.913000,-2.150932
3.914000,-1.947279
3.915000,-2.102564
3.916000,-2.075835
3.917000,-1.877273
3.918000,-1.588341
3.919000,-1.646891
3.920000,-1.618889
3.921000,-1.634163
3.922000,-1.480150
3.923000,-1.207765
3.924000,-0.935379
3.925000,-0.715179
3.926000,-0.654084
3.927000,-0.675722
3.928000,-0.651538
3.929000,-0.898467
3.930000,-1.156851
3.931000,-1.337593
3.932000,-1.808540
3.933000,-2.474230
3.934000,-2.336765
3.935000,-1.947279
3.936000,-1.930732
3.937000,-1.865818
3.938000,-2.086017
3.939000,-2.185298
3.940000,-1.967644
3.941000,-1.896366
3.942000,-1.690167
3.943000,-1.107211
3.944000,-0.419883
3.945000,-0.412246
3.946000,-0.461886
3.947000,-0.263325
3.948000,-0.069855
3.949000,-0.393153
3.950000,-0.643901
3.951000,-0.657902
3.952000,-0.909922
3.953000,-1.225584
3.954000,-1.419054
3.955000,-1.710532
3.956000,-1.877273
3.957000,-1.882365
3.958000,-1.840361
3.959000,-1.949824
3.960000,-2.224756
3.961000,-2.513688
3.962000,-2.727524
3.963000,-2.420772
3.964000,-1.733443
3.965000,-1.506880
3.966000,-1.294317
3.967000,-1.067753
3.968000,-1.662165
3.969000,-1.984191
3.970000,-1.811086
3.971000,-1.576885
3.972000,-1.410145
3.973000,-0.962108
3.974000,-0.777548
3.975000,-0.749546
3.976000,-1.030841
3.977000,-1.009203
3.978000,-1.117394
3.979000,-1.305773
3.980000,-1.318501
3.981000,-1.314682
3.982000,-1.377051
3.983000,-1.567976
3.984000,-1.663438
3.985000,-1.811086
3.986000,-2.257849
3.987000,-2.544236
3.988000,-2.516234
3.989000,-2.177661
3.990000,-1.758900
3.991000,-1.569248
3.992000,-1.301954
3.993000,-1.005385
3.994000,-0.843735
3.995000,-1.206492
3.996000,-1.388506
3.997000,-1.290499
3.998000,-1.305773
3.999000,-1.419054
4.000000,-1.349049
4.001000,-1.411417
4.002000,-1.399962
4.003000,-1.467422
4.004000,-1.654528
4.005000,-1.774174
4.006000,-1.916731
4.007000,-2.382587
4.008000,-3.291387
4.009000,-3.313025
4.010000,-3.072461
4.011000,-2.866262
4.012000,-2.528962
4.013000,-1.892547
4.014000,-1.463603
4.015000,-1.401235
4.016000,-1.137759
4.017000,-0.627354
4.018000,0.006515
4.019000,0.429095
4.020000,0.532194
4.021000,0.379454
4.022000,0.276355
4.023000,0.403638
4.024000,0.136344
4.025000,-0.284963
4.026000,-0.699905
4.027000,-1.233221
4.028000,-1.441965
4.029000,-1.384688
4.030000,-1.364323
4.031000,-1.384688
4.032000,-1.312137
4.033000,-1.210310
4.034000,-1.473786
4.035000,-1.573067
4.036000,-1.714351
4.037000,-1.961280
4.038000,-2.248940
4.039000,-2.537872
4.040000,-2.595149
4.041000,-2.335492
4.042000,-2.000738
4.043000,-1.669802
4.044000,-1.576885
4.045000,-1.313410
4.046000,-1.265042
4.047000,-1.758900
4.048000,-1.898911
4.049000,-1.932005
4.050000,-2.184025
4.051000,-2.097473
4.052000,-2.200572
4.053000,-2.680429
4.054000,-2.699521
4.055000,-2.250212
4.056000,-1.781811
4.057000,-1.457239
4.058000,-1.080482
4.059000,-0.778821
4.060000,-0.701178
4.061000,-0.722816
4.062000,-0.800459
4.063000,-1.169580
4.064000,-1.453421
4.065000,-1.667256
4.066000,-1.318501
4.067000,-1.099574
4.068000,-1.061389
4.069000,-1.382142
4.070000,-2.041468
4.071000,-2.192935
4.072000,-2.279487
4.073000,-2.274396
4.074000,-2.348220
4.075000,-1.982918
4.076000,-1.573067
4.077000,-1.342685
4.078000,-1.646891
4.079000,-2.037650
4.080000,-2.100018
4.081000,-1.794539
4.082000,-1.497970
4.083000,-1.002839
4.084000,-0.520436
4.085000,-0.783912
4.086000,-0.867919
4.087000,-0.777548
4.088000,-0.577714
4.089000,-0.281144
4.090000,-0.206047
4.091000,-0.227686
4.092000,-0.549712
4.093000,-0.460613
4.094000,-0.559894
4.095000,-0.615899
4.096000,-0.732999
4.097000,-0.908650
4.098000,-1.268860
4.099000,-1.956189
4.100000,-2.415680
4.101000,-2.442410
4.102000,-2.289670
4.103000,-2.677883
4.104000,-2.884082
4.105000,-3.115737
4.106000,-3.400851
4.107000,-3.712694
4.108000,-3.432671
4.109000,-2.675338
4.110000,-1.681257
4.111000,-1.109757
4.112000,-0.585351
4.113000,-0.223867
4.114000,-0.076219
4.115000,0.015425
4.116000,0.071430
4.117000,-0.361333
4.118000,-0.514072
4.119000,-0.726635
4.120000,-0.713907
4.121000,-0.697360
4.122000,-0.898467
4.123000,-1.188672
4.124000,-1.379597
4.125000,-1.627799
4.126000,-1.706714
4.127000,-1.833997
4.128000,-1.821269
4.129000,-1.725806
4.130000,-1.683803
4.131000,-1.640527
4.132000,-1.536155
4.133000,-1.491606
4.134000,-1.562884
4.135000,-1.761446
4.136000,-2.089836
4.137000,-2.190389
4.138000,-2.582421
4.139000,-2.541690
4.140000,-2.422044
4.141000,-2.209482
4.142000,-1.804722
4.143000,-1.636708
4.144000,-1.604888
4.145000,-1.724534
4.146000,-1.818723
4.147000,-1.864545
4.148000,-1.626526
4.149000,-1.371960
4.150000,-1.550156
4.151000,-1.753809
4.152000,-1.802176
4.153000,-1.926914
4.154000,-1.830178
4.155000,-1.681257
4.156000,-1.542519
4.157000,-1.351594
4.158000,-1.044842
4.159000,-0.883193
4.160000,-0.808096
4.161000,-0.730453
4.162000,-0.624808
4.163000,-0.544620
4.164000,-0.792822
4.165000,-0.775002
4.166000,-0.738090
4.167000,-0.822097
4.168000,-0.715179
4.169000,-0.814460
4.170000,-0.922651
4.171000,-1.220493
4.172000,-1.616343
4.173000,-1.804722
4.174000,-1.786902
4.175000,-1.817450
4.176000,-1.734716
4.177000,-1.676166
4.178000,-1.766537
4.179000,-2.007102
4.180000,-2.145840
4.181000,-2.377495
4.182000,-2.349493
4.183000,-2.213300
4.184000,-2.414407
4.185000,-2.493323
4.186000,-2.525144
4.187000,-3.138648
4.188000,-3.444127
4.189000,-2.849715
4.190000,-2.156023
4.191000,-1.478877
4.192000,-0.837371
4.193000,-0.286236
4.194000,-0.148770
4.195000,0.007788
4.196000,-0.143679
4.197000,0.096886
4.198000,0.150345
4.199000,0.099432
4.200000,0.119797
4.201000,-0.335876
4.202000,-0.915014
4.203000,-1.228130
4.204000,-1.939642
4.205000,-2.024921
4.206000,-1.916731
4.207000,-1.795812
4.208000,-1.542519
4.209000,-1.517062
4.210000,-1.314682
4.211000,-1.310864
4.212000,-1.623980
4.213000,-1.560339
4.214000,-1.485242
4.215000,-1.210310
4.216000,-1.155579
4.217000,-1.351594
4.218000,-1.457239
4.219000,-1.468695
4.220000,-1.401235
4.221000,-1.355413
4.222000,-1.301954
4.223000,-1.397416
4.224000,-1.766537
4.225000,-2.089836
4.226000,-2.163660
4.227000,-2.032558
4.228000,-2.064379
4.229000,-1.961280
4.230000,-1.765264
4.231000,-1.767810
4.232000,-1.579431
4.233000,-1.277770
4.234000,-1.167034
4.235000,-1.046115
4.236000,-1.240858
4.237000,-1.167034
4.238000,-1.170853
4.239000,-1.137759
4.240000,-1.340139
4.241000,-1.682530
4.242000,-2.283306
4.243000,-2.419499
4.244000,-2.400406
4.245000,-2.154750
4.246000,-2.009648
4.247000,-1.916731
4.248000,-1.925641
4.249000,-1.914185
4.250000,-1.952370
4.251000,-1.923095
4.252000,-1.823814
4.253000,-1.539973
4.254000,-1.128849
4.255000,-1.113575
4.256000,-1.397416
4.257000,-1.401235
4.258000,-1.291771
4.259000,-0.909922
4.260000,-1.097028
4.261000,-0.813187
4.262000,-0.944289
4.263000,-1.200128
4.264000,-1.424146
4.265000,-1.481423
4.266000,-2.068198
4.267000,-2.218392
4.268000,-1.963826
4.269000,-1.557793
4.270000,-1.305773
4.271000,-1.133940
4.272000,-0.895921
4.273000,-1.056298
4.274000,-0.976110
4.275000,-1.132668
4.276000,-1.280316
4.277000,-1.317228
4.278000,-1.481423
4.279000,-1.436874
4.280000,-1.463603
4.281000,-1.524699
4.282000,-1.630344
4.283000,-1.547610
4.284000,-1.277770
4.285000,-1.142850
4.286000,-1.315955
4.287000,-1.392325
4.288000,-1.294317
4.289000,-1.090664
4.290000,-1.249768
4.291000,-1.631617
4.292000,-1.842907
4.293000,-2.042741
4.294000,-2.536599
4.295000,-2.746616
4.296000,-2.834441
4.297000,-2.606605
4.298000,-2.248940
4.299000,-1.811086
4.300000,-1.364323
4.301000,-1.052479
4.302000,-0.685904
4.303000,-0.516618
4.304000,-0.152589
4.305000,0.045973
4.306000,0.117251
4.307000,-0.595533
4.308000,-1.155579
4.309000,-1.361777
4.310000,-1.407599
4.311000,-1.724534
4.312000,-2.049105
4.313000,-2.171297
4.314000,-1.855635
4.315000,-1.373233
4.316000,-1.379597
4.317000,-1.341412
4.318000,-1.187399
4.319000,-0.755910
4.320000,-0.610807
4.321000,-0.716452
4.322000,-0.901013
4.323000,-1.074117
4.324000,-1.312137
4.325000,-1.359231
4.326000,-1.467422
4.327000,-1.480150
4.328000,-1.618889
4.329000,-1.546337
4.330000,-1.565430
4.331000,-1.720715
4.332000,-1.762718
4.333000,-1.822541
4.334000,-1.683803
4.335000,-1.590886
4.336000,-1.613797
4.337000,-1.704168
4.338000,-1.869636
4.339000,-1.972735
4.340000,-2.012193
4.341000,-1.993101
4.342000,-2.050378
4.343000,-2.140749
4.344000,-2.074562
4.345000,-2.177661
4.346000,-2.535326
4.347000,-3.481039
4.348000,-3.608322
4.349000,-3.286296
4.350000,-2.638426
4.351000,-2.055469
4.352000,-1.265042
4.353000,-0.749546
4.354000,-0.316784
4.355000,-0.067309
4.356000,-0.347332
4.357000,-0.669358
4.358000,-0.745727
4.359000,-0.554803
4.360000,-0.610807
4.361000,-0.642628
4.362000,-0.634991
4.363000,-0.879374
4.364000,-1.104665
4.365000,-1.403780
4.366000,-1.515789
4.367000,-1.683803
4.368000,-1.846725
4.369000,-1.949824
4.370000,-1.884910
4.371000,-1.681257
4.372000,-1.569248
4.373000,-1.653255
4.374000,-1.618889
4.375000,-1.604888
4.376000,-1.489060
4.377000,-1.387234
4.378000,-1.515789
4.379000,-1.551429
4.380000,-1.314682
4.381000,-1.168307
4.382000,-1.136486
4.383000,-1.279043
4.384000,-1.763991
4.385000,-1.966371
4.386000,-2.012193
4.387000,-1.578158
4.388000,-1.350322
4.389000,-0.927742
4.390000,-0.575168
4.391000,-0.580259
4.392000,-0.354969
4.393000,-0.608262
4.394000,-0.884466
4.395000,-0.921378
4.396000,-0.898467
4.397000,-0.940470
4.398000,-1.122485
4.399000,-1.340139
4.400000,-1.729625
4.401000,-1.924368
4.402000,-2.082199
4.403000,-2.232393
4.404000,-2.395315
4.405000,-2.612969
4.406000,-2.635880
4.407000,-2.377495
4.408000,-2.148386
4.409000,-2.318945
4.410000,-2.051651
4.411000,-1.648164
4.412000,-1.220493
4.413000,-0.712634
4.414000,-0.338422
4.415000,-0.176772
4.416000,-0.170408
4.417000,-0.539529
4.418000,-0.957017
4.419000,-1.035933
4.420000,-1.128849
4.421000,-1.109757
4.422000,-1.289226
4.423000,-1.397416
4.424000,-1.552702
4.425000,-1.755082
4.426000,-2.184025
4.427000,-2.320218
4.428000,-2.499687
4.429000,-2.540418
4.430000,-2.416953
4.431000,-2.265486
4.432000,-2.276942
4.433000,-2.116565
4.434000,-1.870909
4.435000,-1.576885
4.436000,-1.366868
4.437000,-1.256132
4.438000,-1.525972
4.439000,-1.780538
4.440000,-2.060561
4.441000,-2.338038
4.442000,-2.268032
4.443000,-1.818723
4.444000,-1.293044
4.445000,-0.945562
4.446000,-0.768638
4.447000,-0.590442
4.448000,-0.682086
4.449000,-0.895921
4.450000,-0.898467
4.451000,-0.985019
4.452000,-1.419054
4.453000,-2.161114
4.454000,-2.408043
4.455000,-2.369858
4.456000,-1.896366
4.457000,-1.602342
4.458000,-1.545065
4.459000,-1.363050
4.460000,-1.350322
4.461000,-1.193763
4.462000,-1.132668
4.463000,-1.346503
4.464000,-1.259951
4.465000,-0.963381
4.466000,-0.710088
4.467000,-0.604443
4.468000,-0.614626
4.469000,-0.637537
4.470000,-0.505162
4.471000,-0.556076
4.472000,-0.744455
4.473000,-0.824643
4.474000,-1.103393
4.475000,-1.346503
4.476000,-1.434328
4.477000,-1.580704
4.478000,-2.092381
4.479000,-2.772073
4.480000,-3.030457
4.481000,-2.951542
4.482000,-2.633334
4.483000,-2.178934
4.484000,-1.657074
4.485000,-1.184854
4.486000,-1.043570
4.487000,-0.925196
4.488000,-0.997748
4.489000,-1.300681
4.490000,-1.342685
4.491000,-1.139032
4.492000,-1.069026
4.493000,-0.972291
4.494000,-0.920105
4.495000,-0.979928
4.496000,-1.230676
4.497000,-1.410145
4.498000,-1.439420
4.499000,-1.411417
4.500000,-1.380869
4.501000,-1.504334
4.502000,-1.431783
4.503000,-1.462331
4.504000,-1.844180
4.505000,-2.100018
4.506000,-2.063106
4.507000,-2.078380
4.508000,-2.128021
4.509000,-2.115292
4.510000,-2.332946
4.511000,-3.003728
4.512000,-3.147558
4.513000,-2.946450
4.514000,-2.481867
4.515000,-1.877273
4.516000,-1.312137
4.517000,-0.775002
4.518000,-0.365151
4.519000,-0.120768
4.520000,-0.256961
4.521000,-0.494980
4.522000,-0.524255
4.523000,-0.692268
4.524000,-1.127576
4.525000,-1.519608
4.526000,-1.990555
4.527000,-2.397861
4.528000,-2.707158
4.529000,-2.698249
4.530000,-2.424590
4.531000,-1.965098
4.532000,-1.527245
4.533000,-1.295590
4.534000,-1.093210
4.535000,-0.991384
4.536000,-1.495424
4.537000,-1.565430
4.538000,-1.071572
4.539000,-0.506435
4.540000,-0.394426
4.541000,-0.211139
4.542000,-0.278599
4.543000,-0.314238
4.544000,-0.497525
4.545000,-0.955744
4.546000,-1.333775
4.547000,-1.690167
4.548000,-1.677439
4.549000,-1.464876
4.550000,-1.356686
4.551000,-1.351594
4.552000,-1.326138
4.553000,-1.468695
4.554000,-1.599796
4.555000,-1.462331
4.556000,-1.392325
4.557000,-1.743626
4.558000,-2.170024
4.559000,-2.116565
4.560000,-2.313854
4.561000,-2.302398
4.562000,-2.033831
4.563000,-1.859454
4.564000,-1.607433
4.565000,-1.392325
4.566000,-1.155579
4.567000,-0.787731
4.568000,-0.814460
4.569000,-0.853918
4.570000,-1.037205
4.571000,-1.230676
4.572000,-1.112302
4.573000,-1.328683
4.574000,-1.653255
4.575000,-2.103837
4.576000,-2.308763
4.577000,-2.192935
4.578000,-1.970190
4.579000,-1.844180
4.580000,-1.793266
4.581000,-1.890001
4.582000,-2.231120
4.583000,-2.475503
4.584000,-2.732615
4.585000,-2.400406
4.586000,-1.690167
4.587000,-1.192491
4.588000,-0.892103
4.589000,-0.757183
4.590000,-0.726635
4.591000,-0.771184
4.592000,-0.903558
4.593000,-0.977382
4.594000,-1.733443
4.595000,-2.135658
4.596000,-2.150932
4.597000,-1.767810
4.598000,-1.368141
4.599000,-1.240858
4.600000,-1.343957
4.601000,-1.393598
4.602000,-1.201400
4.603000,-0.941743
4.604000,-0.853918
4.605000,-1.011749
4.606000,-0.948107
4.607000,-1.006657
4.608000,-1.202673
4.609000,-1.191218
4.610000,-1.172125
4.611000,-1.318501
4.612000,-1.341412
4.613000,-1.434328
4.614000,-1.623980
4.615000,-1.706714
4.616000,-1.687622
4.617000,-1.668529
4.618000,-1.634163
4.619000,-1.784357
4.620000,-2.467866
4.621000,-2.898083
4.622000,-2.746616
4.623000,-2.073289
4.624000,-1.757627
4.625000,-1.448329
4.626000,-1.085573
4.627000,-0.676995
4.628000,-0.713907
4.629000,-0.889557
4.630000,-0.766093
4.631000,-0.465705
4.632000,-0.329512
4.633000,-0.432611
4.634000,-0.712634
4.635000,-1.202673
4.636000,-1.286680
4.637000,-1.657074
4.638000,-2.100018
4.639000,-2.181480
4.640000,-2.298580
4.641000,-2.324037
4.642000,-2.210755
4.643000,-2.040195
4.644000,-2.016012
4.645000,-2.156023
4.646000,-2.455138
4.647000,-2.196754
4.648000,-1.800903
4.649000,-1.532336
4.650000,-1.315955
4.651000,-0.920105
4.652000,-0.528073
4.653000,-0.413519
4.654000,-0.524255
4.655000,-0.735545
4.656000,-0.856464
4.657000,-0.893376
4.658000,-1.027023
4.659000,-1.286680
4.660000,-1.459785
4.661000,-1.485242
4.662000,-1.515789
4.663000,-1.826360
4.664000,-2.140749
4.665000,-2.215846
4.666000,-2.012193
4.667000,-2.200572
4.668000,-2.769527
4.669000,-2.838260
4.670000,-2.578603
4.671000,-2.107655
4.672000,-1.710532
4.673000,-1.422873
4.674000,-1.139032
4.675000,-0.907377
4.676000,-0.640082
4.677000,-0.606989
4.678000,-0.647719
4.679000,-0.494980
4.680000,-0.440248
4.681000,-0.510254
4.682000,-0.508981
4.683000,-0.632445
4.684000,-0.884466
4.685000,-1.312137
4.686000,-1.877273
4.687000,-2.268032
4.688000,-2.502233
4.689000,-2.514961
4.690000,-2.324037
4.691000,-2.722432
4.692000,-3.398305
4.693000,-3.152649
4.694000,-2.612969
4.695000,-1.989282
4.696000,-1.382142
4.697000,-0.819551
4.698000,-0.412246
4.699000,-0.558621
4.700000,-1.063935
4.701000,-1.328683
4.702000,-1.632890
4.703000,-1.473786
4.704000,-1.077936
4.705000,-1.075390
4.706000,-1.273952
4.707000,-1.625253
4.708000,-1.525972
4.709000,-1.296863
4.710000,-1.159397
4.711000,-0.993929
4.712000,-0.912468
4.713000,-0.753364
4.714000,-0.982474
4.715000,-1.063935
4.716000,-1.001566
4.717000,-1.015567
4.718000,-1.000293
4.719000,-0.903558
4.720000,-1.044842
4.721000,-1.267588
4.722000,-1.368141
4.723000,-1.392325
4.724000,-1.546337
4.725000,-1.626526
4.726000,-1.813632
4.727000,-1.928186
4.728000,-1.904003
4.729000,-1.760173
4.730000,-1.598523
4.731000,-1.501788
4.732000,-1.653255
4.733000,-1.991828
4.734000,-2.229847
4.735000,-2.411862
4.736000,-2.392769
4.737000,-2.252758
4.738000,-1.883637
4.739000,-1.350322
4.740000,-0.935379
4.741000,-0.936652
4.742000,-1.182308
4.743000,-1.295590
4.744000,-0.960836
4.745000,-1.074117
4.746000,-1.230676
4.747000,-1.275225
4.748000,-1.333775
4.749000,-1.220493
4.750000,-1.107211
4.751000,-1.095756
4.752000,-1.205219
4.753000,-1.172125
4.754000,-1.169580
4.755000,-1.226857
4.756000,-1.296863
4.757000,-1.387234
4.758000,-1.631617
4.759000,-1.876000
4.760000,-2.098746
4.761000,-2.528962
4.762000,-2.649881
4.763000,-2.849715
4.764000,-3.132284
4.765000,-3.115737
4.766000,-2.864989
4.767000,-2.376223
4.768000,-1.974008
4.769000,-2.201845
4.770000,-2.108928
4.771000,-1.604888
4.772000,-1.217947
4.773000,-0.958290
4.774000,-0.633718
4.775000,-0.087674
4.776000,0.170710
4.777000,-0.197138
4.778000,-0.454249
4.779000,-0.745727
4.780000,-0.628627
4.781000,-0.391881
4.782000,-0.634991
4.783000,-1.188672
4.784000,-1.296863
4.785000,-1.126303
4.786000,-1.000293
4.787000,-0.991384
4.788000,-1.033387
4.789000,-1.058844
4.790000,-1.244677
4.791000,-1.431783
4.792000,-1.588341
4.793000,-1.667256
4.794000,-1.720715
4.795000,-1.737262
4.796000,-1.592159
4.797000,-1.477605
4.798000,-1.466149
4.799000,-1.639254
4.800000,-1.654528
4.801000,-1.775447
4.802000,-2.140749
4.803000,-2.607878
4.804000,-2.890446
4.805000,-2.835714
4.806000,-2.689339
4.807000,-2.423317
4.808000,-1.911640
4.809000,-1.434328
4.810000,-1.268860
4.811000,-1.422873
4.812000,-1.828906
4.813000,-1.966371
4.814000,-1.780538
4.815000,-1.519608
4.816000,-1.413963
4.817000,-1.448329
4.818000,-1.831451
4.819000,-1.603615
4.820000,-1.490333
4.821000,-1.219220
4.822000,-0.915014
4.823000,-0.536983
4.824000,-0.222594
4.825000,-0.122041
4.826000,-0.054581
4.827000,-0.134769
4.828000,-0.376607
4.829000,-0.539529
4.830000,-0.857736
4.831000,-1.027023
4.832000,-1.233221
4.833000,-1.791994
4.834000,-2.581148
4.835000,-2.554419
4.836000,-2.408043
4.837000,-2.279487
4.838000,-2.173843
4.839000,-2.325309
4.840000,-2.324037
4.841000,-2.018557
4.842000,-1.832724
4.843000,-1.533609
4.844000,-1.169580
4.845000,-1.111030
4.846000,-0.997748
4.847000,-0.953199
4.848000,-1.121212
4.849000,-1.378324
4.850000,-1.314682
4.851000,-1.128849
4.852000,-1.594705
4.853000,-1.715624
4.854000,-1.561611
4.855000,-1.676166
4.856000,-1.692713
4.857000,-1.492879
4.858000,-1.369414
4.859000,-1.105938
4.860000,-0.894648
4.861000,-0.887011
4.862000,-1.151760
4.863000,-1.405053
4.864000,-2.173843
4.865000,-2.684247
4.866000,-2.581148
4.867000,-2.619333
4.868000,-2.293489
4.869000,-1.891274
4.870000,-1.514517
4.871000,-1.069026
4.872000,-0.752091
4.873000,-0.599352
4.874000,-0.567531
4.875000,-0.309147
4.876000,-0.323148
4.877000,-0.554803
4.878000,-0.604443
4.879000,-0.612080
4.880000,-0.763547
4.881000,-0.949380
4.882000,-1.281589
4.883000,-1.532336
4.884000,-1.555247
4.885000,-1.691440
4.886000,-1.807268
4.887000,-1.963826
4.888000,-1.833997
4.889000,-1.914185
4.890000,-2.024921
4.891000,-2.061834
4.892000,-1.991828
4.893000,-1.961280
4.894000,-2.035104
4.895000,-2.284579
4.896000,-2.591331
4.897000,-2.982090
4.898000,-2.764436
4.899000,-2.380041
4.900000,-1.939642
4.901000,-1.497970
4.902000,-1.011749
4.903000,-0.843735
4.904000,-0.543347
4.905000,-0.591715
4.906000,-0.991384
4.907000,-1.277770
4.908000,-1.233221
4.909000,-1.051207
4.910000,-1.217947
4.911000,-1.547610
4.912000,-1.814905
4.913000,-1.702895
4.914000,-1.496697
4.915000,-1.313410
4.916000,-1.230676
4.917000,-1.337593
4.918000,-1.237040
4.919000,-1.109757
4.920000,-0.921378
4.921000,-1.126303
4.922000,-1.267588
4.923000,-1.491606
4.924000,-2.262941
4.925000,-2.961724
4.926000,-3.161559
4.927000,-3.156467
4.928000,-2.732615
4.929000,-2.288397
4.930000,-1.611252
4.931000,-0.921378
4.932000,-0.316784
4.933000,-0.194592
4.934000,-0.351150
4.935000,-0.466978
4.936000,-0.283690
4.937000,-0.431338
4.938000,-0.725362
4.939000,-0.972291
4.940000,-0.927742
4.941000,-1.077936
4.942000,-1.113575
4.943000,-1.093210
4.944000,-1.158124
4.945000,-1.290499
4.946000,-1.490333
4.947000,-2.201845
4.948000,-2.289670
4.949000,-2.278215
4.950000,-2.087290
4.951000,-1.837815
4.952000,-1.937096
4.953000,-1.823814
4.954000,-1.510698
4.955000,-1.057571
4.956000,-0.915014
4.957000,-0.895921
4.958000,-0.845008
4.959000,-1.070299
4.960000,-0.902285
4.961000,-1.063935
4.962000,-1.510698
4.963000,-1.797085
4.964000,-1.753809
4.965000,-1.629071
4.966000,-1.505607
4.967000,-1.383415
4.968000,-1.440693
4.969000,-1.565430
4.970000,-1.648164
4.971000,-1.847998
4.972000,-1.918004
4.973000,-2.040195
4.974000,-2.040195
4.975000,-2.110201
4.976000,-2.070743
4.977000,-2.287124
4.978000,-2.514961
4.979000,-2.807712
4.980000,-2.624424
4.981000,-2.227301
4.982000,-1.555247
4.983000,-1.310864
4.984000,-1.357959
4.985000,-1.207765
4.986000,-1.228130
4.987000,-1.290499
4.988000,-1.238313
4.989000,-1.071572
4.990000,-0.976110
4.991000,-0.982474
4.992000,-1.710532
4.993000,-2.007102
4.994000,-2.139476
4.995000,-1.949824
4.996000,-1.730898
4.997000,-1.378324
4.998000,-0.848827
4.999000,-1.107211
5.000000,-1.328683
5.001000,-1.377051
5.002000,-1.308318
5.003000,-0.777548
5.004000,-0.225140
5.005000,-0.050762
5.006000,-0.337149
5.007000,-0.622263
5.008000,-0.927742
5.009000,-1.193763
5.010000,-1.231948
5.011000,-1.352867
5.012000,-1.398689
5.013000,-1.574340
5.014000,-1.814905
5.015000,-1.844180
5.016000,-2.206936
5.017000,-2.954087
5.018000,-2.891719
5.019000,-2.382587
5.020000,-1.771628
5.021000,-1.308318
5.022000,-1.023204
5.023000,-0.934106
5.024000,-0.911195
5.025000,-0.920105
5.026000,-0.948107
5.027000,-1.188672
5.028000,-1.262496
5.029000,-1.450875
5.030000,-1.338866
5.031000,-1.142850
5.032000,-1.146669
5.033000,-1.125031
5.034000,-1.170853
5.035000,-1.281589
5.036000,-1.407599
5.037000,-1.491606
5.038000,-1.545065
5.039000,-1.564157
5.040000,-1.644345
5.041000,-1.681257
5.042000,-1.991828
5.043000,-2.138203
5.044000,-1.926914
5.045000,-1.775447
5.046000,-1.599796
5.047000,-1.564157
5.048000,-1.523426
5.049000,-1.382142
5.050000,-1.205219
5.051000,-0.979928
5.052000,-1.103393
5.053000,-1.486514
5.054000,-1.676166
5.055000,-1.939642
5.056000,-2.083472
5.057000,-2.056742
5.058000,-2.162387
5.059000,-2.054197
5.060000,-1.968917
5.061000,-1.755082
5.062000,-1.459785
5.063000,-1.471240
5.064000,-1.524699
5.065000,-1.585795
5.066000,-1.719442
5.067000,-2.182752
5.068000,-2.685520
5.069000,-2.388951
5.070000,-1.966371
5.071000,-1.457239
5.072000,-1.170853
5.073000,-1.016840
5.074000,-1.374505
5.075000,-1.546337
5.076000,-1.711805
5.077000,-1.747445
5.078000,-1.583249
5.079000,-1.088119
5.080000,-0.985019
5.081000,-1.119939
5.082000,-0.841190
5.083000,-0.511527
5.084000,-0.538256
5.085000,-0.111858
5.086000,0.247080
5.087000,0.133798
5.088000,-0.024033
5.089000,-0.323148
5.090000,-1.000293
5.091000,-1.349049
5.092000,-1.275225
5.093000,-1.335048
5.094000,-1.573067
5.095000,-1.928186
5.096000,-2.035104
5.097000,-2.278215
5.098000,-2.651154
5.099000,-2.700794
5.100000,-2.322764
5.101000,-1.932005
5.102000,-1.696531
5.103000,-1.686349
5.104000,-1.534882
5.105000,-1.350322
5.106000,-1.427964
5.107000,-1.569248
5.108000,-1.374505
5.109000,-1.065208
5.110000,-1.037205
5.111000,-1.032114
5.112000,-1.239585
5.113000,-1.452148
5.114000,-1.574340
5.115000,-1.592159
5.116000,-1.555247
5.117000,-1.574340
5.118000,-1.384688
5.119000,-1.370687
5.120000,-1.548883
5.121000,-1.497970
5.122000,-1.658346
5.123000,-1.808540
5.124000,-1.942188
5.125000,-1.928186
5.126000,-2.044014
5.127000,-2.228574
5.128000,-2.233666
5.129000,-1.989282
5.130000,-2.044014
5.131000,-2.008375
5.132000,-2.088563
5.133000,-2.073289
5.134000,-1.925641
5.135000,-1.940915
5.136000,-1.772901
5.137000,-1.655801
5.138000,-1.847998
5.139000,-1.805995
5.140000,-1.998192
5.141000,-1.369414
5.142000,-0.684631
5.143000,-0.226413
5.144000,-0.102948
5.145000,-0.216230
5.146000,-0.376607
5.147000,-0.676995
5.148000,-1.397416
5.149000,-1.805995
5.150000,-1.968917
5.151000,-1.790721
5.152000,-1.761446
5.153000,-1.876000
5.154000,-1.836543
5.155000,-1.209037
5.156000,-0.693541
5.157000,-0.668085
5.158000,-0.911195
5.159000,-1.149214
5.160000,-1.013022
5.161000,-0.935379
5.162000,-0.988838
5.163000,-1.137759
5.164000,-1.201400
5.165000,-1.673620
5.166000,-1.783084
5.167000,-1.870909
5.168000,-1.718169
5.169000,-1.307045
5.170000,-1.084300
5.171000,-1.155579
5.172000,-1.440693
5.173000,-1.683803
5.174000,-1.673620
5.175000,-1.763991
5.176000,-1.514517
5.177000,-1.112302
5.178000,-0.922651
5.179000,-1.128849
5.180000,-1.272679
5.181000,-1.553974
5.182000,-1.940915
5.183000,-2.315127
5.184000,-2.769527
5.185000,-2.985908
5.186000,-2.811530
5.187000,-2.374950
5.188000,-2.026194
5.189000,-1.511971
5.190000,-1.168307
5.191000,-1.010476
5.192000,-0.929015
5.193000,-0.775002
5.194000,-0.604443
5.195000,-0.836098
5.196000,-0.972291
5.197000,-0.917559
5.198000,-0.920105
5.199000,-1.209037
5.200000,-1.548883
5.201000,-1.818723
5.202000,-1.872182
5.203000,-1.823814
5.204000,-1.659619
5.205000,-1.394871
5.206000,-1.083027
5.207000,-1.233221
5.208000,-1.422873
5.209000,-1.477605
5.210000,-1.509425
5.211000,-1.585795
5.212000,-1.547610
5.213000,-1.702895
5.214000,-2.563329
5.215000,-2.741525
5.216000,-2.807712
5.217000,-2.506051
5.218000,-2.493323
5.219000,-2.166206
5.220000,-1.760173
5.221000,-1.279043
5.222000,-0.887011
5.223000,-0.703724
5.224000,-0.561167
5.225000,-0.424974
5.226000,-0.368970
5.227000,-0.525528
5.228000,-0.366424
5.229000,-0.379152
5.230000,-0.620990
5.231000,-0.684631
5.232000,-0.851372
5.233000,-1.025750
5.234000,-1.151760
5.235000,-1.649437
5.236000,-1.823814
5.237000,-1.988009
5.238000,-1.909094
5.239000,-1.904003
5.240000,-1.982918
5.241000,-2.083472
5.242000,-2.154750
5.243000,-2.190389
5.244000,-2.088563
5.245000,-2.297307
5.246000,-2.740252
5.247000,-2.724978
5.248000,-2.330401
5.249000,-1.690167
5.250000,-1.114848
5.251000,-1.015567
5.252000,-1.412690
5.253000,-1.508152
5.254000,-1.599796
5.255000,-1.856908
5.256000,-1.706714
5.257000,-1.587068
5.258000,-1.485242
5.259000,-1.225584
5.260000,-1.102120
5.261000,-1.021931
5.262000,-0.902285
5.263000,-0.758456
5.264000,-0.642628
5.265000,-0.694814
5.266000,-1.109757
5.267000,-1.462331
5.268000,-1.678712
5.269000,-1.509425
5.270000,-1.139032
5.271000,-1.127576
5.272000,-0.986292
5.273000,-0.814460
5.274000,-0.615899
5.275000,-0.587896
5.276000,-1.397416
5.277000,-1.766537
5.278000,-1.733443
5.279000,-1.483969
5.280000,-1.279043
5.281000,-1.219220
5.282000,-1.305773
5.283000,-1.501788
5.284000,-1.729625
5.285000,-2.147113
5.286000,-2.180207
5.287000,-2.120384
5.288000,-1.993101
5.289000,-1.836543
5.290000,-1.844180
5.291000,-1.763991
5.292000,-1.674893
5.293000,-1.733443
5.294000,-1.891274
5.295000,-1.753809
5.296000,-1.461058
5.297000,-1.237040
5.298000,-1.165761
5.299000,-1.034660
5.300000,-0.921378
5.301000,-1.014294
5.302000,-1.118667
5.303000,-1.584522
5.304000,-1.825087
5.305000,-1.775447
5.306000,-1.995646
5.307000,-2.410589
5.308000,-2.451320
5.309000,-2.470412
5.310000,-2.616787
5.311000,-2.451320
5.312000,-2.143295
5.313000,-1.570521
5.314000,-1.312137
5.315000,-1.389779
5.316000,-1.314682
5.317000,-1.086846
5.318000,-0.745727
5.319000,-0.655356
5.320000,-0.612080
5.321000,-0.521709
5.322000,-0.422429
5.323000,-0.810642
5.324000,-1.186127
5.325000,-1.657074
5.326000,-2.117838
5.327000,-1.900184
5.328000,-1.621434
5.329000,-1.464876
5.330000,-1.233221
5.331000,-1.175944
5.332000,-1.075390
5.333000,-1.153033
5.334000,-1.184854
5.335000,-1.471240
5.336000,-1.508152
5.337000,-1.449602
5.338000,-1.257405
5.339000,-1.494151
5.340000,-2.317672
5.341000,-2.226029
5.342000,-1.803449
5.343000,-1.273952
5.344000,-0.642628
5.345000,-0.318056
5.346000,-0.492434
5.347000,-0.641355
5.348000,-0.965927
5.349000,-1.492879
5.350000,-1.756354
5.351000,-1.863272
5.352000,-2.037650
5.353000,-2.023649
5.354000,-1.746172
5.355000,-1.394871
5.356000,-1.394871
5.357000,-1.439420
5.358000,-1.509425
5.359000,-1.480150
5.360000,-1.458512
5.361000,-1.515789
5.362000,-1.669802
5.363000,-2.065652
5.364000,-2.315127
5.365000,-2.380041
5.366000,-2.038923
5.367000,-1.869636
5.368000,-1.799631
5.369000,-1.690167
5.370000,-1.646891
5.371000,-1.650709
5.372000,-1.383415
5.373000,-1.183581
5.374000,-0.820824
5.375000,-0.764820
5.376000,-0.923924
5.377000,-0.899740
5.378000,-0.761001
5.379000,-0.768638
5.380000,-1.440693
5.381000,-1.985464
5.382000,-2.018557
5.383000,-1.904003
5.384000,-1.863272
5.385000,-1.814905
5.386000,-1.618889
5.387000,-1.506880
5.388000,-1.812359
5.389000,-2.074562
5.390000,-2.199299
5.391000,-1.870909
5.392000,-1.501788
5.393000,-1.285407
5.394000,-1.214129
5.395000,-0.999020
5.396000,-0.726635
5.397000,-0.721544
5.398000,-1.025750
5.399000,-0.931561
5.400000,-0.842462
5.401000,-0.993929
5.402000,-1.042297
5.403000,-1.323592
5.404000,-1.524699
5.405000,-1.602342
5.406000,-1.766537
5.407000,-1.858181
5.408000,-1.718169
5.409000,-1.523426
5.410000,-1.989282
5.411000,-2.614242
5.412000,-3.213745
5.413000,-2.702067
5.414000,-1.951097
5.415000,-1.186127
5.416000,-1.053752
5.417000,-1.102120
5.418000,-1.126303
5.419000,-1.571794
5.420000,-2.189117
5.421000,-2.232393
5.422000,-1.701623
5.423000,-1.015567
5.424000,-0.829734
5.425000,-0.771184
5.426000,-0.670630
5.427000,-0.592988
5.428000,-0.822097
5.429000,-1.015567
5.430000,-1.291771
5.431000,-1.427964
5.432000,-1.341412
5.433000,-1.178490
5.434000,-1.154306
5.435000,-1.197582
5.436000,-1.286680
5.437000,-1.438147
5.438000,-1.520881
5.439000,-1.506880
5.440000,-1.766537
5.441000,-1.763991
5.442000,-1.730898
5.443000,-1.748717
5.444000,-1.713078
5.445000,-1.748717
5.446000,-2.224756
5.447000,-2.288397
5.448000,-2.257849
5.449000,-1.918004
5.450000,-1.615070
5.451000,-1.214129
5.452000,-0.969745
5.453000,-0.949380
5.454000,-0.929015
5.455000,-1.131395
5.456000,-1.254859
5.457000,-1.090664
5.458000,-1.046115
5.459000,-0.993929
5.460000,-1.066480
5.461000,-1.158124
5.462000,-1.543792
5.463000,-1.853089
5.464000,-2.068198
5.465000,-1.881092
5.466000,-1.623980
5.467000,-1.589614
5.468000,-1.578158
5.469000,-1.457239
5.470000,-1.415236
5.471000,-1.315955
5.472000,-1.161943
5.473000,-1.051207
5.474000,-1.135213
5.475000,-1.277770
5.476000,-1.361777
5.477000,-1.366868
5.478000,-1.125031
5.479000,-1.240858
5.480000,-1.781811
5.481000,-2.427136
5.482000,-2.514961
5.483000,-2.232393
5.484000,-2.122929
5.485000,-2.191662
5.486000,-2.357130
5.487000,-2.194208
5.488000,-1.883637
5.489000,-1.748717
5.490000,-1.965098
5.491000,-1.898911
5.492000,-1.468695
5.493000,-1.174671
5.494000,-0.999020
5.495000,-0.767365
5.496000,-0.646447
5.497000,-0.953199
5.498000,-1.184854
5.499000,-1.279043
5.500000,-1.585795
5.501000,-1.840361
5.502000,-2.122929
5.503000,-1.988009
5.504000,-1.657074
5.505000,-1.349049
5.506000,-1.452148
5.507000,-1.399962
5.508000,-1.298136
5.509000,-1.043570
5.510000,-0.660448
5.511000,-0.379152
5.512000,-0.343513
5.513000,-0.777548
5.514000,-0.986292
5.515000,-1.155579
5.516000,-1.307045
5.517000,-1.350322
5.518000,-1.234494
5.519000,-0.972291
5.520000,-1.027023
5.521000,-1.416509
5.522000,-1.678712
5.523000,-1.660892
5.524000,-1.692713
5.525000,-1.709260
5.526000,-1.612525
5.527000,-1.491606
5.528000,-1.499243
5.529000,-1.429237
5.530000,-1.645618
5.531000,-1.805995
5.532000,-1.793266
5.533000,-1.823814
5.534000,-1.907821
5.535000,-1.770355
5.536000,-1.651982
5.537000,-1.692713
5.538000,-1.560339
5.539000,-1.480150
5.540000,-1.254859
5.541000,-1.065208
5.542000,-1.094483
5.543000,-1.139032
5.544000,-1.123758
5.545000,-1.159397
5.546000,-1.322319
5.547000,-1.618889
5.548000,-2.068198
5.549000,-2.162387
5.550000,-2.009648
5.551000,-2.115292
5.552000,-2.086017
5.553000,-1.895093
5.554000,-1.658346
5.555000,-1.553974
5.556000,-1.551429
5.557000,-1.598523
5.558000,-1.574340
5.559000,-1.692713
5.560000,-1.765264
5.561000,-1.581977
5.562000,-2.116565
5.563000,-1.994374
5.564000,-1.611252
5.565000,-1.356686
5.566000,-1.663438
5.567000,-2.156023
5.568000,-2.238757
5.569000,-2.028740
5.570000,-1.682530
5.571000,-1.548883
5.572000,-1.403780
5.573000,-1.286680
5.574000,-1.225584
5.575000,-1.350322
5.576000,-1.517062
5.577000,-1.291771
5.578000,-0.907377
5.579000,-0.050762
5.580000,0.196167
5.581000,0.077794
5.582000,-0.064763
5.583000,-0.143679
5.584000,-0.430065
5.585000,-0.901013
5.586000,-1.160670
5.587000,-1.335048
5.588000,-1.571794
5.589000,-1.767810
5.590000,-2.037650
5.591000,-2.395315
5.592000,-2.516234
5.593000,-2.363494
5.594000,-2.161114
5.595000,-1.776720
5.596000,-1.312137
5.597000,-1.130122
5.598000,-1.105938
5.599000,-1.098301
5.600000,-1.285407
5.601000,-1.612525
5.602000,-1.795812
5.603000,-1.943460
5.604000,-2.150932
5.605000,-2.438591
5.606000,-2.250212
5.607000,-2.037650
5.608000,-1.729625
5.609000,-1.448329
5.610000,-1.230676
5.611000,-1.085573
5.612000,-1.150487
5.613000,-1.331229
5.614000,-1.187399
5.615000,-0.823370
5.616000,-0.696087
5.617000,-0.403336
5.618000,-0.573895
5.619000,-0.810642
5.620000,-0.976110
5.621000,-1.186127
5.622000,-1.304500
5.623000,-1.436874
5.624000,-1.677439
5.625000,-2.014739
5.626000,-2.208209
5.627000,-2.320218
5.628000,-2.301126
5.629000,-2.705886
5.630000,-2.455138
5.631000,-2.560783
5.632000,-2.363494
5.633000,-1.951097
5.634000,-1.682530
5.635000,-1.500516
5.636000,-1.410145
5.637000,-1.300681
5.638000,-1.471240
5.639000,-1.466149
5.640000,-1.245950
5.641000,-1.305773
5.642000,-1.266315
5.643000,-1.051207
5.644000,-0.735545
5.645000,-0.921378
5.646000,-0.982474
5.647000,-1.107211
5.648000,-1.235767
5.649000,-1.405053
5.650000,-1.468695
5.651000,-1.672348
5.652000,-2.008375
5.653000,-1.940915
5.654000,-1.993101
5.655000,-1.951097
5.656000,-1.797085
5.657000,-1.772901
5.658000,-1.966371
5.659000,-2.041468
5.660000,-1.977827
5.661000,-1.728352
5.662000,-1.503061
5.663000,-1.051207
5.664000,-0.871737
5.665000,-0.661721
5.666000,-0.500071
5.667000,-0.465705
5.668000,-0.680813
5.669000,-1.016840
5.670000,-1.114848
5.671000,-1.466149
5.672000,-1.322319
5.673000,-1.076663
5.674000,-1.070299
5.675000,-1.028296
5.676000,-1.015567
5.677000,-0.968473
5.678000,-1.033387
5.679000,-1.136486
5.680000,-1.076663
5.681000,-1.023204
5.682000,-1.153033
5.683000,-1.531063
5.684000,-1.996919
5.685000,-2.423317
5.686000,-2.850988
5.687000,-2.929904
5.688000,-2.857352
5.689000,-3.072461
5.690000,-2.736433
5.691000,-2.054197
5.692000,-1.380869
5.693000,-0.864101
5.694000,-0.343513
5.695000,-0.363878
5.696000,-0.460613
5.697000,-0.618444
5.698000,-0.827188
5.699000,-1.086846
5.700000,-1.258678
5.701000,-1.251041
5.702000,-1.419054
5.703000,-1.298136
5.704000,-1.214129
5.705000,-1.203946
5.706000,-1.303227
5.707000,-1.513244
5.708000,-1.601069
5.709000,-1.692713
5.710000,-1.770355
5.711000,-1.676166
5.712000,-1.664711
5.713000,-1.621434
5.714000,-1.562884
5.715000,-1.634163
5.716000,-1.715624
5.717000,-1.878546
5.718000,-1.853089
5.719000,-1.929459
5.720000,-1.904003
5.721000,-1.986737
5.722000,-2.007102
5.723000,-1.935823
5.724000,-1.876000
5.725000,-2.016012
5.726000,-2.273123
5.727000,-2.288397
5.728000,-2.105110
5.729000,-1.682530
5.730000,-1.135213
5.731000,-1.072845
5.732000,-1.155579
5.733000,-1.245950
5.734000,-1.291771
5.735000,-1.463603
5.736000,-1.543792
5.737000,-1.329956
5.738000,-1.179762
5.739000,-1.132668
5.740000,-1.319774
5.741000,-1.926914
5.742000,-2.479322
5.743000,-2.590058
5.744000,-2.320218
5.745000,-1.937096
5.746000,-1.654528
5.747000,-1.469968
5.748000,-1.198855
5.749000,-0.598079
5.750000,-0.379152
5.751000,-0.256961
5.752000,-0.277326
5.753000,-0.249324
5.754000,-0.368970
5.755000,-0.710088
5.756000,-1.294317
5.757000,-1.890001
5.758000,-2.066925
5.759000,-1.859454
5.760000,-1.841634
5.761000,-1.753809
5.762000,-1.539973
5.763000,-1.359231
5.764000,-1.235767
5.765000,-1.629071
5.766000,-1.352867
5.767000,-1.028296
5.768000,-1.091937
5.769000,-1.020659
5.770000,-0.795368
5.771000,-0.480979
5.772000,-0.487343
5.773000,-0.692268
5.774000,-1.127576
5.775000,-1.141577
5.776000,-1.219220
5.777000,-1.533609
5.778000,-1.739808
5.779000,-1.714351
5.780000,-1.753809
5.781000,-1.816177
5.782000,-2.042741
5.783000,-2.134385
5.784000,-2.492050
5.785000,-2.861171
5.786000,-2.859898
5.787000,-2.737706
5.788000,-2.484413
5.789000,-2.061834
5.790000,-1.695259
5.791000,-1.539973
5.792000,-1.496697
5.793000,-1.462331
5.794000,-1.402508
5.795000,-1.284134
5.796000,-1.091937
5.797000,-0.978655
5.798000,-0.824643
5.799000,-0.846281
5.800000,-0.991384
5.801000,-0.982474
5.802000,-0.767365
5.803000,-0.841190
5.804000,-1.253586
5.805000,-1.458512
5.806000,-1.411417
5.807000,-1.341412
5.808000,-1.354140
5.809000,-1.417782
5.810000,-1.602342
5.811000,-1.794539
5.812000,-1.994374
5.813000,-2.414407
5.814000,-2.489504
5.815000,-2.423317
5.816000,-2.108928
5.817000,-1.849271
5.818000,-1.912912
5.819000,-2.102564
5.820000,-2.265486
5.821000,-2.158569
5.822000,-1.940915
5.823000,-1.422873
5.824000,-0.771184
5.825000,-0.496253
5.826000,-0.603170
5.827000,-0.622263
5.828000,-0.679540
5.829000,-0.837371
5.830000,-1.088119
5.831000,-1.397416
5.832000,-1.486514
5.833000,-1.630344
5.834000,-1.817450
5.835000,-1.942188
5.836000,-1.767810
5.837000,-1.500516
5.838000,-0.981201
5.839000,-0.752091
5.840000,-0.898467
5.841000,-1.398689
5.842000,-1.700350
5.843000,-2.103837
5.844000,-2.474230
5.845000,-2.349493
5.846000,-1.774174
5.847000,-1.196309
5.848000,-0.544620
5.849000,-0.227686
5.850000,-0.454249
5.851000,-0.694814
5.852000,-0.794095
5.853000,-0.993929
5.854000,-0.763547
5.855000,-0.713907
5.856000,-0.916287
5.857000,-1.051207
5.858000,-1.584522
5.859000,-1.878546
5.860000,-2.117838
5.861000,-2.150932
5.862000,-2.026194
5.863000,-1.860726
5.864000,-1.625253
5.865000,-1.564157
5.866000,-1.774174
5.867000,-1.872182
5.868000,-1.840361
5.869000,-1.594705
5.870000,-1.394871
5.871000,-1.896366
5.872000,-2.509870
5.873000,-2.448774
5.874000,-2.303671
5.875000,-2.037650
5.876000,-1.769083
5.877000,-1.626526
5.878000,-1.537428
5.879000,-1.387234
5.880000,-1.244677
5.881000,-1.043570
5.882000,-1.006657
5.883000,-0.945562
5.884000,-0.895921
5.885000,-0.925196
5.886000,-0.999020
5.887000,-1.156851
5.888000,-1.314682
5.889000,-1.457239
5.890000,-1.709260
5.891000,-1.789448
5.892000,-1.847998
5.893000,-1.914185
5.894000,-1.916731
5.895000,-1.938369
5.896000,-1.944733
5.897000,-1.952370
5.898000,-1.890001
5.899000,-1.849271
5.900000,-1.786902
5.901000,-1.519608
5.902000,-1.346503
5.903000,-1.117394
5.904000,-1.276497
5.905000,-1.533609
5.906000,-1.760173
5.907000,-1.682530
5.908000,-1.541246
5.909000,-1.238313
5.910000,-0.852645
5.911000,-0.698633
5.912000,-0.824643
5.913000,-0.776275
5.914000,-0.480979
5.915000,-0.301510
5.916000,-0.316784
5.917000,-0.547166
5.918000,-1.122485
5.919000,-1.298136
5.920000,-1.370687
5.921000,-1.714351
5.922000,-2.355857
5.923000,-2.612969
5.924000,-2.632061
5.925000,-2.890446
5.926000,-3.019002
5.927000,-2.628243
5.928000,-2.008375
5.929000,-1.538700
5.930000,-1.112302
5.931000,-0.904831
5.932000,-1.094483
5.933000,-1.234494
5.934000,-1.503061
5.935000,-1.491606
5.936000,-1.471240
5.937000,-1.137759
5.938000,-0.662993
5.939000,-0.446612
5.940000,-0.610807
5.941000,-0.904831
5.942000,-1.075390
5.943000,-1.378324
5.944000,-1.490333
5.945000,-1.539973
5.946000,-1.589614
5.947000,-1.533609
5.948000,-1.438147
5.949000,-1.622707
5.950000,-1.655801
5.951000,-1.547610
5.952000,-1.459785
5.953000,-1.674893
5.954000,-1.751263
5.955000,-1.718169
5.956000,-1.565430
5.957000,-1.616343
5.958000,-1.730898
5.959000,-1.761446
5.960000,-1.904003
5.961000,-2.178934
5.962000,-1.930732
5.963000,-1.576885
5.964000,-1.578158
5.965000,-1.547610
5.966000,-1.553974
5.967000,-1.403780
5.968000,-1.160670
5.969000,-1.058844
5.970000,-1.103393
5.971000,-0.932833
5.972000,-0.862828
5.973000,-1.315955
5.974000,-1.749990
5.975000,-1.944733
5.976000,-1.971463
5.977000,-1.957461
5.978000,-1.932005
5.979000,-1.818723
5.980000,-1.486514
5.981000,-1.440693
5.982000,-1.597251
5.983000,-1.641800
5.984000,-1.445784
5.985000,-1.098301
5.986000,-0.711361
5.987000,-0.466978
5.988000,-0.678267
5.989000,-1.010476
5.990000,-1.230676
5.991000,-1.308318
5.992000,-1.331229
5.993000,-1.144123
5.994000,-1.305773
5.995000,-1.681257
5.996000,-2.105110
5.997000,-2.871353
5.998000,-3.263385
5.999000,-3.118282
6.000000,-2.579875
6.001000,-1.951097
6.002000,-1.595978
6.003000,-1.196309
6.004000,-1.066480
6.005000,-0.997748
6.006000,-0.969745
6.007000,-1.305773
6.008000,-1.089391
6.009000,-0.791549
6.010000,-0.511527
6.011000,-0.251869
6.012000,-0.388062
6.013000,-0.673176
6.014000,-1.010476
6.015000,-1.060116
6.016000,-1.365596
6.017000,-1.444511
6.018000,-1.569248
6.019000,-1.492879
6.020000,-1.483969
6.021000,-1.407599
6.022000,-1.374505
6.023000,-1.383415
6.024000,-1.525972
6.025000,-2.017284
6.026000,-2.568420
6.027000,-2.853534
6.028000,-2.761890
6.029000,-2.811530
6.030000,-3.010092
6.031000,-2.810258
6.032000,-2.607878
6.033000,-2.335492
6.034000,-1.953643
6.035000,-1.533609
6.036000,-1.215402
6.037000,-0.761001
6.038000,-0.447885
6.039000,-0.300237
6.040000,-0.403336
6.041000,-0.216230
6.042000,-0.318056
6.043000,-0.515345
6.044000,-0.665539
6.045000,-0.615899
6.046000,-0.787731
6.047000,-0.892103
6.048000,-1.011749
6.049000,-1.253586
6.050000,-1.645618
6.051000,-1.729625
6.052000,-1.988009
6.053000,-2.406770
6.054000,-2.345675
6.055000,-2.222210
6.056000,-2.327855
6.057000,-2.499687
6.058000,-2.289670
6.059000,-1.727079
6.060000,-1.366868
6.061000,-1.005385
6.062000,-0.707542
6.063000,-0.768638
6.064000,-1.304500
6.065000,-1.539973
6.066000,-1.601069
6.067000,-1.308318
6.068000,-1.239585
6.069000,-1.240858
6.070000,-1.198855
6.071000,-1.225584
6.072000,-1.245950
6.073000,-1.244677
6.074000,-1.300681
6.075000,-1.277770
6.076000,-1.789448
6.077000,-1.702895
6.078000,-1.616343
6.079000,-1.508152
6.080000,-1.346503
6.081000,-1.438147
6.082000,-1.939642
6.083000,-2.177661
6.084000,-2.186571
6.085000,-2.009648
6.086000,-1.669802
6.087000,-1.356686
6.088000,-1.122485
6.089000,-0.960836
6.090000,-1.023204
6.091000,-1.177217
6.092000,-1.351594
6.093000,-1.486514
6.094000,-1.480150
6.095000,-1.601069
6.096000,-1.630344
6.097000,-1.695259
6.098000,-1.687622
6.099000,-1.777992
6.100000,-1.868363
6.101000,-1.659619
6.102000,-1.650709
6.103000,-1.573067
6.104000,-1.597251
6.105000,-2.117838
6.106000,-2.660064
6.107000,-2.834441
6.108000,-2.684247
6.109000,-2.203118
6.110000,-1.807268
6.111000,-1.550156
6.112000,-1.364323
6.113000,-1.209037
6.114000,-1.209037
6.115000,-0.979928
6.116000,-0.473342
6.117000,0.051064
6.118000,0.211441
6.119000,-0.018941
6.120000,-0.169135
6.121000,-0.582805
6.122000,-1.127576
6.123000,-1.226857
6.124000,-1.403780
6.125000,-1.859454
6.126000,-1.828906
6.127000,-1.594705
6.128000,-1.639254
6.129000,-1.660892
6.130000,-1.379597
6.131000,-1.660892
6.132000,-1.781811
6.133000,-1.785629
6.134000,-1.268860
6.135000,-1.005385
6.136000,-0.775002
6.137000,-0.810642
6.138000,-1.224311
6.139000,-1.601069
6.140000,-1.620162
6.141000,-1.580704
6.142000,-1.608706
6.143000,-1.756354
6.144000,-1.592159
6.145000,-1.533609
6.146000,-2.036377
6.147000,-1.786902
6.148000,-1.536155
6.149000,-1.394871
6.150000,-1.205219
6.151000,-0.908650
6.152000,-1.243404
6.153000,-1.590886
6.154000,-1.844180
6.155000,-2.088563
6.156000,-1.981645
6.157000,-1.734716
6.158000,-1.623980
6.159000,-1.441965
6.160000,-1.519608
6.161000,-1.974008
6.162000,-2.198026
6.163000,-2.051651
6.164000,-1.953643
6.165000,-1.900184
6.166000,-1.653255
6.167000,-1.536155
6.168000,-1.375778
6.169000,-1.219220
6.170000,-1.140305
6.171000,-1.441965
6.172000,-1.879819
6.173000,-1.906548
6.174000,-1.802176
6.175000,-1.443238
6.176000,-1.276497
6.177000,-1.291771
6.178000,-1.280316
6.179000,-1.364323
6.180000,-1.672348
6.181000,-2.003283
6.182000,-2.209482
6.183000,-1.705441
6.184000,-1.200128
6.185000,-1.090664
6.186000,-1.281589
6.187000,-1.492879
6.188000,-1.477605
6.189000,-1.584522
6.190000,-1.504334
6.191000,-1.273952
6.192000,-1.275225
6.193000,-1.126303
6.194000,-0.918832
6.195000,-0.962108
6.196000,-0.895921
6.197000,-0.556076
6.198000,-0.577714
6.199000,-0.778821
6.200000,-0.801732
6.201000,-0.797913
6.202000,-0.987565
6.203000,-1.285407
6.204000,-1.388506
6.205000,-1.562884
6.206000,-1.607433
6.207000,-1.611252
6.208000,-1.664711
6.209000,-1.648164
6.210000,-1.584522
6.211000,-1.499243
6.212000,-1.658346
6.213000,-1.942188
6.214000,-2.374950
6.215000,-2.619333
6.216000,-2.586239
6.217000,-2.677883
6.218000,-2.601513
6.219000,-2.402952
6.220000,-2.163660
6.221000,-1.825087
6.222000,-2.358403
6.223000,-2.559510
6.224000,-2.233666
6.225000,-1.434328
6.226000,-0.487343
6.227000,0.300539
6.228000,0.177074
6.229000,-0.086401
6.230000,-0.156407
6.231000,-0.272235
6.232000,-0.426247
6.233000,-0.620990
6.234000,-0.859009
6.235000,-1.191218
6.236000,-1.612525
6.237000,-1.732171
6.238000,-1.775447
6.239000,-1.760173
6.240000,-1.813632
6.241000,-1.924368
6.242000,-1.886183
6.243000,-1.850544
6.244000,-1.780538
6.245000,-1.827633
6.246000,-2.002011
6.247000,-1.914185
6.248000,-1.636708
6.249000,-1.452148
6.250000,-1.548883
6.251000,-1.682530
6.252000,-1.842907
6.253000,-1.677439
6.254000,-1.450875
6.255000,-1.112302
6.256000,-0.727908
6.257000,-0.650265
6.258000,-0.791549
6.259000,-1.147942
6.260000,-1.401235
6.261000,-1.413963
6.262000,-1.315955
6.263000,-1.609979
6.264000,-1.749990
6.265000,-1.625253
6.266000,-1.744899
6.267000,-2.022376
6.268000,-2.320218
6.269000,-2.514961
6.270000,-2.271850
6.271000,-2.163660
6.272000,-1.771628
6.273000,-1.481423
6.274000,-1.426691
6.275000,-1.457239
6.276000,-1.662165
6.277000,-1.576885
6.278000,-1.247222
6.279000,-1.044842
6.280000,-1.063935
6.281000,-1.184854
6.282000,-1.023204
6.283000,-1.627799
6.284000,-1.998192
6.285000,-2.292216
6.286000,-2.493323
6.287000,-2.296034
6.288000,-1.902730
6.289000,-1.141577
6.290000,-0.615899
6.291000,-0.421156
6.292000,-0.374061
6.293000,-0.528073
6.294000,-0.679540
6.295000,-0.834825
6.296000,-0.881920
