LabVIEW Measurement,
Writer_Version,2
Reader_Version,2
Separator,Comma
Decimal_Separator,.
Multi_Headings,No
X_Columns,Multi
Time_Pref,Absolute
Operator,Dymnz
Date,2017/09/16
Time,14:49:42.3079036833532114944
***End_of_Header***,
,
Channels,1,
Samples,1000,
Date,2017/09/16,
Time,14:49:42.3079036833532114944,
Y_Unit_Label,Volts,
X_Dimension,Time,
X0,0.0000000000000000E+0,
Delta_X,0.001000,
***End_of_Header***,,
X_Value,Voltage,Comment
0.000000,-0.449158
0.001000,-0.564985
0.002000,-0.679540
0.003000,-0.943016
0.004000,-0.884466
0.005000,-0.279872
0.006000,0.129980
0.007000,0.514374
0.008000,0.053610
0.009000,-0.634991
0.010000,-1.287953
0.011000,-2.007102
0.012000,-2.063106
0.013000,-1.394871
0.014000,-0.001122
0.015000,0.802034
0.016000,0.331087
0.017000,0.431640
0.018000,-0.132223
0.019000,-1.156851
0.020000,-2.168751
0.021000,-3.433944
0.022000,-4.335108
0.023000,-4.775507
0.024000,-4.900244
0.025000,-4.445844
0.026000,-3.762334
0.027000,-3.229019
0.028000,-2.623152
0.029000,-1.785629
0.030000,-0.902285
0.031000,-0.445339
0.032000,-0.007486
0.033000,-0.650265
0.034000,-1.184854
0.035000,-0.940470
0.036000,-1.203946
0.037000,-1.556520
0.038000,-1.886183
0.039000,-2.246394
0.040000,-2.523871
0.041000,-2.447501
0.042000,-2.070743
0.043000,-1.758900
0.044000,-1.904003
0.045000,-1.966371
0.046000,-1.998192
0.047000,-1.755082
0.048000,-1.534882
0.049000,-1.522154
0.050000,-1.281589
0.051000,-1.066480
0.052000,-1.005385
0.053000,-1.123758
0.054000,-1.214129
0.055000,-1.271406
0.056000,-1.289226
0.057000,-0.969745
0.058000,0.389637
0.059000,1.665013
0.060000,2.800377
0.061000,2.917477
0.062000,1.788477
0.063000,0.593290
0.064000,-0.199683
0.065000,-1.626526
0.066000,-2.973180
0.067000,-3.993989
0.068000,-4.727140
0.069000,-5.199359
0.070000,-5.307550
0.071000,-5.198087
0.072000,-4.695319
0.073000,-3.949440
0.074000,-3.389395
0.075000,-2.647335
0.076000,-1.676166
0.077000,-0.581532
0.078000,0.154163
0.079000,0.830036
0.080000,1.034962
0.081000,0.434186
0.082000,-0.421156
0.083000,-1.337593
0.084000,-2.176388
0.085000,-2.746616
0.086000,-2.909538
0.087000,-2.788619
0.088000,-2.271850
0.089000,-1.056298
0.090000,-0.596806
0.091000,-0.456795
0.092000,-0.144952
0.093000,0.714209
0.094000,1.028598
0.095000,0.907679
0.096000,-0.213684
0.097000,-1.504334
0.098000,-2.534053
0.099000,-3.301570
0.100000,-3.752152
0.101000,-3.797974
0.102000,-2.742798
0.103000,-1.687622
0.104000,-1.192491
0.105000,-0.517891
0.106000,-0.237868
0.107000,-0.827188
0.108000,-1.566703
0.109000,-2.416953
0.110000,-2.834441
0.111000,-2.070743
0.112000,-0.999020
0.113000,-0.871737
0.114000,-0.822097
0.115000,-0.391881
0.116000,-0.123313
0.117000,-0.262052
0.118000,-0.867919
0.119000,-1.473786
0.120000,-1.851817
0.121000,-2.423317
0.122000,-2.714795
0.123000,-2.606605
0.124000,-1.873455
0.125000,-1.951097
0.126000,-2.163660
0.127000,-2.360949
0.128000,-2.688066
0.129000,-3.072461
0.130000,-3.217563
0.131000,-3.026639
0.132000,-2.652427
0.133000,-2.083472
0.134000,-1.609979
0.135000,-1.158124
0.136000,-1.093210
0.137000,-1.086846
0.138000,-0.874283
0.139000,-0.753364
0.140000,-0.725362
0.141000,-0.797913
0.142000,-0.888284
0.143000,-0.962108
0.144000,-0.981201
0.145000,-0.841190
0.146000,-0.207320
0.147000,0.562742
0.148000,0.486372
0.149000,0.174529
0.150000,-0.281144
0.151000,-0.748273
0.152000,-1.360504
0.153000,-2.079653
0.154000,-2.466593
0.155000,-2.334219
0.156000,-1.700350
0.157000,-0.962108
0.158000,-0.386789
0.159000,-0.225140
0.160000,-0.388062
0.161000,-0.817006
0.162000,-0.374061
0.163000,-0.736818
0.164000,-1.575612
0.165000,-2.092381
0.166000,-2.558237
0.167000,-3.072461
0.168000,-3.246838
0.169000,-1.938369
0.170000,-0.778821
0.171000,0.189803
0.172000,0.194894
0.173000,-0.390608
0.174000,-1.522154
0.175000,-2.807712
0.176000,-3.683419
0.177000,-4.456027
0.178000,-5.138264
0.179000,-5.080986
0.180000,-4.571854
0.181000,-3.226473
0.182000,-1.769083
0.183000,-1.244677
0.184000,-0.865373
0.185000,-0.298964
0.186000,-0.326966
0.187000,-0.617172
0.188000,-0.908650
0.189000,-1.273952
0.190000,-1.514517
0.191000,-2.045287
0.192000,-1.168307
0.193000,1.793568
0.194000,2.371433
0.195000,1.563186
0.196000,0.450733
0.197000,-1.007930
0.198000,-2.397861
0.199000,-3.156467
0.200000,-3.917620
0.201000,-4.368201
0.202000,-4.328744
0.203000,-2.834441
0.204000,-1.728352
0.205000,-0.810642
0.206000,-0.893376
0.207000,-1.319774
0.208000,-1.719442
0.209000,-1.711805
0.210000,-1.398689
0.211000,-1.410145
0.212000,-1.131395
0.213000,-1.440693
0.214000,-1.864545
0.215000,-2.217119
0.216000,-2.476776
0.217000,-2.556964
0.218000,-1.295590
0.219000,-0.721544
0.220000,-0.572622
0.221000,-0.647719
0.222000,-0.865373
0.223000,-1.279043
0.224000,-1.770355
0.225000,-2.164933
0.226000,-2.199299
0.227000,-2.086017
0.228000,-2.068198
0.229000,-2.072016
0.230000,-1.935823
0.231000,-1.789448
0.232000,-1.634163
0.233000,-1.457239
0.234000,-1.347776
0.235000,-0.946834
0.236000,-0.772457
0.237000,-0.316784
0.238000,0.196167
0.239000,0.058701
0.240000,0.287811
0.241000,0.481281
0.242000,-0.053308
0.243000,-0.587896
0.244000,-1.364323
0.245000,-2.156023
0.246000,-2.815349
0.247000,-3.171741
0.248000,-3.167923
0.249000,-2.905720
0.250000,-2.369858
0.251000,-1.205219
0.252000,-0.727908
0.253000,-0.739363
0.254000,-0.633718
0.255000,0.113433
0.256000,0.248353
0.257000,-0.458068
0.258000,-1.043570
0.259000,-1.219220
0.260000,-1.027023
0.261000,-1.046115
0.262000,-1.116121
0.263000,-0.897194
0.264000,-1.056298
0.265000,-1.831451
0.266000,-2.525144
0.267000,-3.138648
0.268000,-3.595594
0.269000,-3.782700
0.270000,-3.668145
0.271000,-3.254475
0.272000,-2.065652
0.273000,-1.294317
0.274000,0.768940
0.275000,1.887758
0.276000,2.219967
0.277000,2.679458
0.278000,2.592906
0.279000,1.066783
0.280000,-0.903558
0.281000,-2.777164
0.282000,-4.412751
0.283000,-5.756859
0.284000,-6.344906
0.285000,-6.226533
0.286000,-5.956693
0.287000,-5.266819
0.288000,-4.557853
0.289000,-3.750879
0.290000,-2.819167
0.291000,-2.122929
0.292000,-1.620162
0.293000,-1.089391
0.294000,-0.535710
0.295000,1.987039
0.296000,3.275143
0.297000,2.824561
0.298000,1.726109
0.299000,0.301812
0.300000,-1.216674
0.301000,-2.325309
0.302000,-3.288842
0.303000,-3.790337
0.304000,-3.855251
0.305000,-3.451764
0.306000,-2.996091
0.307000,-2.572238
0.308000,-2.273123
0.309000,-2.164933
0.310000,-1.923095
0.311000,-1.543792
0.312000,-1.151760
0.313000,-0.736818
0.314000,-0.550984
0.315000,-0.620990
0.316000,-0.557348
0.317000,-0.279872
0.318000,-0.371515
0.319000,-0.428793
0.320000,-0.489889
0.321000,-0.777548
0.322000,-1.063935
0.323000,-1.272679
0.324000,-0.734272
0.325000,-0.155134
0.326000,-0.217503
0.327000,-0.600625
0.328000,-0.972291
0.329000,-1.271406
0.330000,-1.604888
0.331000,-1.323592
0.332000,-1.410145
0.333000,-1.725806
0.334000,-2.019830
0.335000,-1.408872
0.336000,-0.783912
0.337000,-0.727908
0.338000,-0.899740
0.339000,-1.161943
0.340000,-1.475059
0.341000,-1.982918
0.342000,-2.508597
0.343000,-2.779710
0.344000,-2.688066
0.345000,-1.210310
0.346000,-0.646447
0.347000,0.129980
0.348000,0.289083
0.349000,-0.456795
0.350000,-0.716452
0.351000,-0.794095
0.352000,-1.431783
0.353000,-2.265486
0.354000,-3.082643
0.355000,-3.739423
0.356000,-4.093270
0.357000,-4.169640
0.358000,-3.859069
0.359000,-3.195925
0.360000,-2.385132
0.361000,-1.830178
0.362000,-1.303227
0.363000,-1.192491
0.364000,-0.861555
0.365000,-0.120768
0.366000,-0.081310
0.367000,-0.290054
0.368000,-0.645174
0.369000,-1.234494
0.370000,-2.058015
0.371000,-2.563329
0.372000,-1.916731
0.373000,-1.104665
0.374000,-0.755910
0.375000,-0.438975
0.376000,-0.386789
0.377000,-0.855191
0.378000,-0.690996
0.379000,-1.051207
0.380000,-1.472513
0.381000,-1.225584
0.382000,-1.155579
0.383000,-0.544620
0.384000,-0.945562
0.385000,-1.630344
0.386000,-2.250212
0.387000,-2.882809
0.388000,-3.194652
0.389000,-3.562500
0.390000,-3.600685
0.391000,-3.474675
0.392000,-3.183197
0.393000,-1.864545
0.394000,0.033245
0.395000,2.684549
0.396000,3.524617
0.397000,2.884384
0.398000,1.300983
0.399000,-0.825916
0.400000,-2.769527
0.401000,-4.372020
0.402000,-5.217179
0.403000,-5.460290
0.404000,-4.968977
0.405000,-4.037266
0.406000,-2.999909
0.407000,-2.353312
0.408000,-2.100018
0.409000,-1.980372
0.410000,-1.747445
0.411000,-1.818723
0.412000,-1.905275
0.413000,-1.686349
0.414000,-1.573067
0.415000,-1.150487
0.416000,-0.636264
0.417000,-0.396972
0.418000,0.474917
0.419000,0.482554
0.420000,0.023062
0.421000,-0.484797
0.422000,-0.867919
0.423000,-1.403780
0.424000,-1.934551
0.425000,-2.198026
0.426000,-2.368586
0.427000,-2.427136
0.428000,-1.816177
0.429000,-1.566703
0.430000,-1.251041
0.431000,-1.114848
0.432000,-1.146669
0.433000,-1.139032
0.434000,-1.153033
0.435000,-1.147942
0.436000,-1.071572
0.437000,-1.128849
0.438000,-1.248495
0.439000,-0.955744
0.440000,-0.068582
0.441000,0.812217
0.442000,1.364625
0.443000,1.759202
0.444000,1.647193
0.445000,1.494453
0.446000,0.396001
0.447000,-0.351150
0.448000,-1.494151
0.449000,-2.899356
0.450000,-4.100907
0.451000,-4.743686
0.452000,-4.799691
0.453000,-4.617676
0.454000,-2.668973
0.455000,-1.154306
0.456000,-1.201400
0.457000,-1.541246
0.458000,-2.247667
0.459000,-3.005001
0.460000,-3.591775
0.461000,-3.908710
0.462000,-3.698693
0.463000,-3.500131
0.464000,-3.024093
0.465000,-2.483140
0.466000,-1.032114
0.467000,-0.090220
0.468000,0.380727
0.469000,0.707845
0.470000,0.639112
0.471000,-0.034215
0.472000,-1.071572
0.473000,-1.906548
0.474000,-2.674065
0.475000,-3.066096
0.476000,-3.181924
0.477000,-3.078825
0.478000,-2.877718
0.479000,-2.677883
0.480000,-2.038923
0.481000,-1.039751
0.482000,-0.720271
0.483000,-0.510254
0.484000,-0.408427
0.485000,-0.396972
0.486000,-0.883193
0.487000,-1.267588
0.488000,-1.142850
0.489000,-1.256132
0.490000,-1.355413
0.491000,-1.393598
0.492000,-1.471240
0.493000,-1.674893
0.494000,-1.749990
0.495000,-1.697804
0.496000,0.202531
0.497000,1.264071
0.498000,1.550458
0.499000,1.300983
0.500000,0.382000
0.501000,-1.028296
0.502000,-1.807268
0.503000,-2.343129
0.504000,-2.833169
0.505000,-2.682975
0.506000,-2.550600
0.507000,-2.204390
0.508000,-2.219664
0.509000,-2.338038
0.510000,-2.466593
0.511000,-2.222210
0.512000,-2.170024
0.513000,-1.229403
0.514000,-0.153861
0.515000,-0.069855
0.516000,-0.105494
0.517000,-0.959563
0.518000,-1.755082
0.519000,-2.423317
0.520000,-2.702067
0.521000,-2.831896
0.522000,-2.906993
0.523000,-2.854807
0.524000,-2.761890
0.525000,-2.696976
0.526000,-2.374950
0.527000,-1.965098
0.528000,-1.490333
0.529000,-1.035933
0.530000,-0.656629
0.531000,-0.120768
0.532000,0.059974
0.533000,-0.157680
0.534000,-0.022760
0.535000,0.269991
0.536000,-0.194592
0.537000,-0.847554
0.538000,-1.317228
0.539000,-1.864545
0.540000,-2.530235
0.541000,-2.849715
0.542000,-3.081370
0.543000,-3.012638
0.544000,-1.677439
0.545000,-0.848827
0.546000,-0.960836
0.547000,-0.948107
0.548000,-0.403336
0.549000,-0.706270
0.550000,-1.219220
0.551000,-1.714351
0.552000,-1.906548
0.553000,-2.064379
0.554000,-2.456411
0.555000,-2.588785
0.556000,-2.293489
0.557000,-2.355857
0.558000,-2.394042
0.559000,-2.444955
0.560000,-2.265486
0.561000,-2.161114
0.562000,-2.074562
0.563000,-1.833997
0.564000,-1.700350
0.565000,-1.058844
0.566000,1.271708
0.567000,4.056660
0.568000,4.752898
0.569000,4.304862
0.570000,2.552175
0.571000,-0.085129
0.572000,-2.909538
0.573000,-4.954976
0.574000,-5.989787
0.575000,-6.314359
0.576000,-6.203622
0.577000,-5.555752
0.578000,-4.813692
0.579000,-4.095816
0.580000,-3.278659
0.581000,-2.438591
0.582000,-1.794539
0.583000,-1.326138
0.584000,-0.662993
0.585000,0.215259
0.586000,1.050236
0.587000,0.813489
0.588000,0.138890
0.589000,-0.614626
0.590000,-1.267588
0.591000,-1.905275
0.592000,-2.395315
0.593000,-2.583694
0.594000,-2.535326
0.595000,-1.620162
0.596000,-1.109757
0.597000,-0.354969
0.598000,0.156709
0.599000,0.080339
0.600000,-0.617172
0.601000,-1.336320
0.602000,-1.887456
0.603000,-2.237484
0.604000,-1.869636
0.605000,-1.410145
0.606000,-0.953199
0.607000,-0.930288
0.608000,-1.081754
0.609000,-0.889557
0.610000,-0.428793
0.611000,0.511829
0.612000,0.682388
0.613000,0.292902
0.614000,-0.544620
0.615000,-1.794539
0.616000,-3.099190
0.617000,-4.023265
0.618000,-4.402568
0.619000,-3.215018
0.620000,-2.469139
0.621000,-2.038923
0.622000,-1.746172
0.623000,-1.719442
0.624000,-1.911640
0.625000,-2.302398
0.626000,-2.574784
0.627000,-2.444955
0.628000,-1.809813
0.629000,-1.466149
0.630000,-1.164488
0.631000,-0.809369
0.632000,-0.724089
0.633000,-1.001566
0.634000,-1.151760
0.635000,-1.569248
0.636000,-1.814905
0.637000,-1.868363
0.638000,-1.830178
0.639000,-1.599796
0.640000,-1.244677
0.641000,-1.098301
0.642000,-0.865373
0.643000,-0.873010
0.644000,-1.005385
0.645000,-0.328239
0.646000,0.161800
0.647000,-0.097857
0.648000,-0.503890
0.649000,-0.996475
0.650000,-1.548883
0.651000,-1.907821
0.652000,-1.541246
0.653000,0.660750
0.654000,1.806297
0.655000,2.167781
0.656000,1.549185
0.657000,0.440550
0.658000,-1.179762
0.659000,-3.080098
0.660000,-4.475119
0.661000,-5.366100
0.662000,-5.717401
0.663000,-5.627030
0.664000,-5.294822
0.665000,-4.561672
0.666000,-3.847614
0.667000,-3.377940
0.668000,-2.792438
0.669000,-2.310035
0.670000,-0.768638
0.671000,-0.133496
0.672000,0.051064
0.673000,-0.204775
0.674000,-0.269689
0.675000,-0.766093
0.676000,-1.331229
0.677000,-1.786902
0.678000,-2.122929
0.679000,-1.957461
0.680000,-1.126303
0.681000,0.569106
0.682000,0.810944
0.683000,0.641657
0.684000,0.418912
0.685000,0.803307
0.686000,-0.097857
0.687000,-1.237040
0.688000,-2.307490
0.689000,-3.005001
0.690000,-3.521770
0.691000,-3.290114
0.692000,-3.120828
0.693000,-3.021547
0.694000,-2.929904
0.695000,-2.802621
0.696000,-2.554419
0.697000,-2.279487
0.698000,-1.954916
0.699000,-1.214129
0.700000,-0.328239
0.701000,0.033245
0.702000,0.095613
0.703000,0.323450
0.704000,-0.143679
0.705000,-0.246778
0.706000,-0.520436
0.707000,-0.757183
0.708000,-0.567531
0.709000,-0.053308
0.710000,-0.337149
0.711000,-1.154306
0.712000,-1.723261
0.713000,-2.464048
0.714000,-3.073733
0.715000,-3.314298
0.716000,-3.262112
0.717000,-2.814076
0.718000,-2.554419
0.719000,-2.345675
0.720000,-2.152204
0.721000,-2.082199
0.722000,-2.096200
0.723000,-1.874728
0.724000,-1.335048
0.725000,0.336178
0.726000,3.062580
0.727000,4.373595
0.728000,3.812277
0.729000,2.385434
0.730000,0.259808
0.731000,-2.161114
0.732000,-4.452208
0.733000,-6.007606
0.734000,-6.532012
0.735000,-6.406002
0.736000,-5.789953
0.737000,-4.697864
0.738000,-2.961724
0.739000,-1.774174
0.740000,-0.209866
0.741000,0.310722
0.742000,0.709117
0.743000,0.654386
0.744000,0.180893
0.745000,-0.702451
0.746000,-1.719442
0.747000,-2.625697
0.748000,-3.083916
0.749000,-3.171741
0.750000,-3.202289
0.751000,-3.095371
0.752000,-2.630789
0.753000,-2.156023
0.754000,-1.481423
0.755000,-0.768638
0.756000,-0.309147
0.757000,-0.323148
0.758000,-0.741909
0.759000,-1.145396
0.760000,-1.366868
0.761000,-0.789004
0.762000,-0.423701
0.763000,-0.656629
0.764000,-1.004112
0.765000,-1.333775
0.766000,-1.646891
0.767000,-2.033831
0.768000,-2.240030
0.769000,-2.329128
0.770000,-2.284579
0.771000,-2.102564
0.772000,-1.693986
0.773000,-1.212856
0.774000,-1.067753
0.775000,-0.496253
0.776000,-0.413519
0.777000,-0.606989
0.778000,-0.839917
0.779000,-0.923924
0.780000,-1.043570
0.781000,-0.246778
0.782000,0.157982
0.783000,0.048519
0.784000,-0.386789
0.785000,-1.015567
0.786000,-1.846725
0.787000,-2.517507
0.788000,-2.749162
0.789000,-2.912084
0.790000,-2.923539
0.791000,-2.646063
0.792000,-2.205663
0.793000,0.586926
0.794000,1.367170
0.795000,1.043872
0.796000,0.495282
0.797000,-0.361333
0.798000,-1.212856
0.799000,-1.915458
0.800000,-2.685520
0.801000,-3.334664
0.802000,-3.772517
0.803000,-3.991444
0.804000,-3.916347
0.805000,-3.591775
0.806000,-3.162831
0.807000,-2.758072
0.808000,-2.266759
0.809000,-2.045287
0.810000,-1.748717
0.811000,-1.424146
0.812000,-1.219220
0.813000,-1.252314
0.814000,-1.224311
0.815000,-0.908650
0.816000,-0.554803
0.817000,-0.018941
0.818000,0.868221
0.819000,0.690025
0.820000,0.669660
0.821000,0.328541
0.822000,-0.529346
0.823000,-0.133496
0.824000,0.536012
0.825000,2.091411
0.826000,4.350684
0.827000,4.968006
0.828000,4.731260
0.829000,2.390526
0.830000,-0.510254
0.831000,-3.545953
0.832000,-6.448006
0.833000,-8.823106
0.834000,-10.211764
0.835000,-10.419235
0.836000,-9.866827
0.837000,-8.732735
0.838000,-7.552822
0.839000,-6.169256
0.840000,-4.879879
0.841000,-3.506496
0.842000,-2.199299
0.843000,-1.231948
0.844000,-0.785185
0.845000,-0.526801
0.846000,-0.416064
0.847000,-0.184409
0.848000,0.007788
0.849000,0.063793
0.850000,0.136344
0.851000,0.091795
0.852000,0.057428
0.853000,0.021789
0.854000,-0.020214
0.855000,-0.076219
0.856000,-0.118222
0.857000,0.169437
0.858000,0.184711
0.859000,0.142708
0.860000,-0.027851
0.861000,-0.265870
0.862000,-0.171681
0.863000,-0.197138
0.864000,-0.332058
0.865000,-0.631173
0.866000,-0.879374
0.867000,-0.851372
0.868000,-0.697360
0.869000,-1.042297
0.870000,-1.410145
0.871000,-1.854362
0.872000,-2.153477
0.873000,-2.446228
0.874000,-2.530235
0.875000,-2.455138
0.876000,-2.334219
0.877000,-2.103837
0.878000,-1.868363
0.879000,-1.644345
0.880000,-1.399962
0.881000,-1.323592
0.882000,-1.480150
0.883000,-1.452148
0.884000,-1.275225
0.885000,-1.335048
0.886000,-1.383415
0.887000,-1.331229
0.888000,-1.393598
0.889000,-1.462331
0.890000,-1.377051
0.891000,-1.351594
0.892000,0.597108
0.893000,1.428266
0.894000,1.321349
0.895000,0.894951
0.896000,-0.165317
0.897000,-1.438147
0.898000,-2.640971
0.899000,-1.300681
0.900000,-0.099130
0.901000,0.156709
0.902000,-0.362606
0.903000,-1.271406
0.904000,-2.130566
0.905000,-3.315571
0.906000,-4.406386
0.907000,-4.926974
0.908000,-4.636769
0.909000,-3.637597
0.910000,-2.731342
0.911000,-2.204390
0.912000,-2.368586
0.913000,-1.939642
0.914000,-2.016012
0.915000,-2.311308
0.916000,-2.539145
0.917000,-2.408043
0.918000,-2.066925
0.919000,-2.195481
0.920000,-1.986737
0.921000,-2.171297
0.922000,-2.012193
0.923000,-0.951926
0.924000,-0.511527
0.925000,0.109614
0.926000,-0.091493
0.927000,-0.460613
0.928000,-1.132668
0.929000,-1.840361
0.930000,-2.542963
0.931000,-2.900628
0.932000,-3.015183
0.933000,-2.881536
0.934000,-2.644790
0.935000,-2.266759
0.936000,-1.861999
0.937000,-0.496253
0.938000,0.590744
0.939000,1.502090
0.940000,1.438449
0.941000,0.835128
0.942000,0.166892
0.943000,-0.576441
0.944000,-1.592159
0.945000,-2.506051
0.946000,-3.178105
0.947000,-3.464492
0.948000,-3.474675
0.949000,-3.047004
0.950000,-2.002011
0.951000,-1.453421
0.952000,-1.089391
0.953000,-0.002395
0.954000,0.735847
0.955000,0.385819
0.956000,-0.188228
0.957000,-1.032114
0.958000,-1.804722
0.959000,-2.130566
0.960000,-2.278215
0.961000,-2.366040
0.962000,-2.479322
0.963000,-2.534053
0.964000,-2.096200
0.965000,-1.411417
0.966000,-1.006657
0.967000,-0.188228
0.968000,-0.206047
0.969000,-0.577714
0.970000,-1.137759
0.971000,-1.332502
0.972000,-1.315955
0.973000,-1.566703
0.974000,-1.989282
0.975000,-2.245121
0.976000,-1.249768
0.977000,-0.745727
0.978000,-0.594261
0.979000,-0.832280
0.980000,-1.434328
0.981000,-2.192935
0.982000,-2.806439
0.983000,-3.282477
0.984000,-3.612140
0.985000,-3.459401
0.986000,-3.068642
0.987000,-2.499687
0.988000,-1.102120
0.989000,-0.044398
0.990000,-0.032943
0.991000,0.393456
0.992000,1.099876
0.993000,0.766395
0.994000,0.297993
0.995000,-0.407155
0.996000,-1.382142
0.997000,-2.392769
0.998000,-3.249384
0.999000,-3.651598
1.000000,-3.692329
1.001000,-3.271022
1.002000,-1.646891
1.003000,1.116423
1.004000,2.095229
1.005000,2.156325
1.006000,1.270435
1.007000,-0.241687
1.008000,-2.044014
1.009000,-3.477220
1.010000,-4.158185
1.011000,-3.973624
1.012000,-3.814520
1.013000,-3.530679
1.014000,-3.265931
1.015000,-3.225200
1.016000,-3.250657
1.017000,-3.369030
1.018000,-3.072461
1.019000,-2.765709
1.020000,-2.369858
1.021000,-1.979100
1.022000,-1.408872
1.023000,-1.151760
1.024000,-0.067309
1.025000,0.845310
1.026000,1.101149
1.027000,0.866948
1.028000,0.519466
1.029000,-0.192046
1.030000,-1.046115
1.031000,-1.584522
1.032000,-2.204390
1.033000,-2.554419
1.034000,-2.754253
1.035000,-2.705886
1.036000,-2.535326
1.037000,-2.593876
1.038000,-2.565874
1.039000,-2.294761
1.040000,-1.863272
1.041000,-1.383415
1.042000,-0.249324
1.043000,0.572925
1.044000,0.462188
1.045000,0.413821
1.046000,0.252171
1.047000,1.491908
1.048000,1.149517
1.049000,0.567833
1.050000,-0.190773
1.051000,-1.290499
1.052000,-2.410589
1.053000,-3.374121
1.054000,-3.744515
1.055000,-3.573956
1.056000,-3.183197
1.057000,-2.168751
1.058000,-1.195036
1.059000,-0.781367
1.060000,-0.600625
1.061000,-0.974837
1.062000,-1.556520
1.063000,-2.240030
1.064000,-2.807712
1.065000,-2.945178
1.066000,-2.934995
1.067000,-2.957906
1.068000,-2.822986
1.069000,-2.745343
1.070000,-2.509870
1.071000,-2.224756
1.072000,-1.865818
1.073000,-1.471240
1.074000,-0.367697
1.075000,0.347634
1.076000,0.240716
1.077000,-0.025306
1.078000,-0.421156
1.079000,-1.004112
1.080000,-1.566703
1.081000,-2.023649
1.082000,-2.298580
1.083000,-2.410589
1.084000,-2.288397
1.085000,-1.546337
1.086000,-0.617172
1.087000,-0.548439
1.088000,-0.786458
1.089000,-1.095756
1.090000,-1.419054
1.091000,-1.788175
1.092000,-1.637981
1.093000,-1.545065
1.094000,-1.663438
1.095000,-1.618889
1.096000,-1.448329
1.097000,-1.237040
1.098000,-1.356686
1.099000,-1.490333
1.100000,-1.583249
1.101000,-0.935379
1.102000,-0.680813
1.103000,-0.664266
1.104000,-0.968473
1.105000,-1.403780
1.106000,-0.766093
1.107000,-0.552257
1.108000,0.882222
1.109000,1.661194
1.110000,1.237342
1.111000,0.180893
1.112000,-1.417782
1.113000,-3.087735
1.114000,-4.532397
1.115000,-5.442470
1.116000,-5.445016
1.117000,-5.079713
1.118000,-3.474675
1.119000,-1.984191
1.120000,-1.583249
1.121000,-0.074946
1.122000,0.706572
1.123000,0.426549
1.124000,-0.270962
1.125000,-1.365596
1.126000,-2.308763
1.127000,-3.114464
1.128000,-3.629960
1.129000,-3.904891
1.130000,-3.758516
1.131000,-3.299024
1.132000,-2.310035
1.133000,-0.494980
1.134000,0.828763
1.135000,1.083329
1.136000,0.774032
1.137000,0.206349
1.138000,-0.562440
1.139000,-1.510698
1.140000,-2.416953
1.141000,-2.941359
1.142000,-3.170468
1.143000,-3.125919
1.144000,-2.867535
1.145000,-2.727524
1.146000,-2.610423
1.147000,-2.236211
1.148000,-1.901457
1.149000,-1.449602
1.150000,-0.838644
1.151000,-0.477160
1.152000,-0.370242
1.153000,-0.368970
1.154000,0.308176
1.155000,0.705299
1.156000,1.012051
1.157000,0.564015
1.158000,-0.393153
1.159000,-0.214957
1.160000,0.132525
1.161000,0.674751
1.162000,0.208895
1.163000,-0.752091
1.164000,-1.981645
1.165000,-2.334219
1.166000,-2.666428
1.167000,-3.066096
1.168000,-3.341028
1.169000,-3.393214
1.170000,-3.544680
1.171000,-3.745788
1.172000,-3.879435
1.173000,-3.848887
1.174000,-3.432671
1.175000,-3.195925
1.176000,-2.815349
1.177000,-2.082199
1.178000,-0.959563
1.179000,-0.469523
1.180000,-0.334603
1.181000,-0.447885
1.182000,-0.655356
1.183000,-0.968473
1.184000,-1.424146
1.185000,-1.805995
1.186000,-1.631617
1.187000,-1.370687
1.188000,-1.286680
1.189000,-1.150487
1.190000,-0.608262
1.191000,0.076521
1.192000,0.807125
1.193000,0.595835
1.194000,0.001424
1.195000,-0.851372
1.196000,-1.646891
1.197000,-2.394042
1.198000,-2.941359
1.199000,-3.132284
1.200000,-3.045731
1.201000,-2.792438
1.202000,-2.532781
1.203000,-2.205663
1.204000,-2.055469
1.205000,-1.625253
1.206000,0.179620
1.207000,1.827935
1.208000,1.654830
1.209000,0.824945
1.210000,0.039609
1.211000,0.005242
1.212000,-0.731726
1.213000,-1.006657
1.214000,-1.337593
1.215000,-1.986737
1.216000,-2.466593
1.217000,-2.835714
1.218000,-3.145012
1.219000,-3.295206
1.220000,-2.909538
1.221000,-2.322764
1.222000,-2.296034
1.223000,-2.374950
1.224000,-2.595149
1.225000,-2.791165
1.226000,-2.022376
1.227000,-0.596806
1.228000,-0.158953
1.229000,0.182166
1.230000,-0.110585
1.231000,-0.797913
1.232000,-1.856908
1.233000,-2.825532
1.234000,-3.194652
1.235000,-3.486130
1.236000,-3.319390
1.237000,-2.881536
1.238000,-2.620606
1.239000,-2.391497
1.240000,-2.143295
1.241000,-1.886183
1.242000,-1.215402
1.243000,-0.757183
1.244000,-0.622263
1.245000,-0.521709
1.246000,-0.554803
1.247000,-0.824643
1.248000,-0.761001
1.249000,-0.808096
1.250000,-0.973564
1.251000,-1.009203
1.252000,-0.734272
1.253000,-0.572622
1.254000,-0.404609
1.255000,-0.371515
1.256000,-0.870465
1.257000,-1.284134
1.258000,-1.886183
1.259000,-2.363494
1.260000,-2.479322
1.261000,-2.490777
1.262000,-2.334219
1.263000,-2.135658
1.264000,-1.457239
1.265000,-0.035488
1.266000,1.120241
1.267000,1.224613
1.268000,0.718027
1.269000,0.150345
1.270000,-0.501344
1.271000,-1.482696
1.272000,-2.676610
1.273000,-3.594321
1.274000,-3.991444
1.275000,-3.978715
1.276000,-3.852705
1.277000,-3.469584
1.278000,-3.157740
1.279000,-2.788619
1.280000,-1.821269
1.281000,-1.350322
1.282000,-0.878102
1.283000,-0.454249
1.284000,-0.309147
1.285000,-0.011304
1.286000,-0.408427
1.287000,-0.450431
1.288000,-0.254415
1.289000,-0.570077
1.290000,-0.855191
1.291000,-1.122485
1.292000,-1.408872
1.293000,-1.410145
1.294000,-1.277770
1.295000,-1.539973
1.296000,-0.867919
1.297000,0.061247
1.298000,0.277628
1.299000,0.095613
1.300000,-0.337149
1.301000,-1.228130
1.302000,-2.485686
1.303000,-3.831067
1.304000,-4.732231
1.305000,-5.000798
1.306000,-4.939702
1.307000,-4.580764
1.308000,-3.932894
1.309000,-3.243020
1.310000,-2.568420
1.311000,-2.231120
1.312000,-1.786902
1.313000,-1.331229
1.314000,-0.986292
1.315000,-0.810642
1.316000,-0.657902
1.317000,-0.757183
1.318000,-0.713907
1.319000,-0.581532
1.320000,-0.427520
1.321000,-0.270962
1.322000,1.341714
1.323000,2.062136
1.324000,1.619191
1.325000,0.793124
1.326000,-0.232777
1.327000,-1.272679
1.328000,-2.266759
1.329000,-2.945178
1.330000,-3.510314
1.331000,-3.713967
1.332000,-3.617232
1.333000,-3.381758
1.334000,-2.962997
1.335000,-2.355857
1.336000,-2.075835
1.337000,-1.681257
1.338000,-1.173398
1.339000,-0.669358
1.340000,-0.273507
1.341000,0.529648
1.342000,0.283992
1.343000,-0.128405
1.344000,-0.884466
1.345000,-1.551429
1.346000,-2.005829
1.347000,-2.396588
1.348000,-1.935823
1.349000,-1.207765
1.350000,-0.418610
1.351000,1.157153
1.352000,1.750292
1.353000,2.034133
1.354000,1.293346
1.355000,0.389637
1.356000,-0.903558
1.357000,-2.093654
1.358000,-3.416125
1.359000,-4.070359
1.360000,-3.381758
1.361000,-1.679985
1.362000,-1.410145
1.363000,-1.934551
1.364000,-2.794984
1.365000,-4.079269
1.366000,-5.050438
1.367000,-5.756859
1.368000,-5.751768
1.369000,-5.450107
1.370000,-4.783144
1.371000,-3.908710
1.372000,-2.922267
1.373000,-1.858181
1.374000,-1.537428
1.375000,-1.307045
1.376000,-1.099574
1.377000,-0.846281
1.378000,-0.651538
1.379000,-0.436430
1.380000,0.216532
1.381000,0.883495
1.382000,0.943318
1.383000,0.653113
1.384000,0.413821
1.385000,0.037063
1.386000,-0.468250
1.387000,-0.969745
1.388000,-1.262496
1.389000,-1.580704
1.390000,-1.901457
1.391000,-2.032558
1.392000,-1.986737
1.393000,-2.072016
1.394000,-2.030013
1.395000,-1.874728
1.396000,-1.536155
1.397000,-1.146669
1.398000,-0.920105
1.399000,-0.713907
1.400000,-0.172954
1.401000,-0.076219
1.402000,0.087976
1.403000,-0.155134
1.404000,-0.664266
1.405000,-1.242131
1.406000,-1.732171
1.407000,-2.122929
1.408000,-2.238757
1.409000,-1.934551
1.410000,-1.847998
1.411000,-1.874728
1.412000,-1.566703
1.413000,-0.102948
1.414000,0.087976
1.415000,0.702753
1.416000,0.450733
1.417000,-0.058399
1.418000,-0.188228
1.419000,-0.869192
1.420000,-1.881092
1.421000,-2.905720
1.422000,-3.744515
1.423000,-3.805611
1.424000,-2.604059
1.425000,-2.162387
1.426000,-2.270578
1.427000,-2.541690
1.428000,-2.890446
1.429000,-3.292660
1.430000,-3.493767
1.431000,-3.291387
1.432000,-2.598968
1.433000,-1.682530
1.434000,-1.346503
1.435000,-1.182308
1.436000,-1.090664
1.437000,-1.261223
1.438000,-1.735989
1.439000,-1.974008
1.440000,-2.065652
1.441000,-2.023649
1.442000,-1.995646
1.443000,-0.696087
1.444000,0.785487
1.445000,1.122787
1.446000,0.968775
1.447000,0.310722
1.448000,-0.521709
1.449000,-1.001566
1.450000,-1.111030
1.451000,-1.699077
1.452000,-2.322764
1.453000,-2.233666
1.454000,-2.335492
1.455000,-2.516234
1.456000,-2.784801
1.457000,-2.960452
1.458000,-2.968088
1.459000,-2.904447
1.460000,-2.656245
1.461000,-2.148386
1.462000,-1.697804
1.463000,-0.974837
1.464000,-0.346059
1.465000,-0.153861
1.466000,-0.441521
1.467000,-0.736818
1.468000,-0.288781
1.469000,0.506737
1.470000,0.454551
1.471000,0.040882
1.472000,-0.402063
1.473000,-1.237040
1.474000,-1.785629
1.475000,-2.150932
1.476000,-2.318945
1.477000,-2.602786
1.478000,-2.679156
1.479000,-2.550600
1.480000,-2.478049
1.481000,-2.731342
1.482000,-2.854807
1.483000,-2.257849
1.484000,-1.897638
1.485000,-1.772901
1.486000,-1.629071
1.487000,-0.438975
1.488000,0.198713
1.489000,0.245807
1.490000,-0.095311
1.491000,-0.722816
1.492000,-1.461058
1.493000,-2.201845
1.494000,-2.797529
1.495000,-3.061005
1.496000,-3.199744
1.497000,-2.975725
1.498000,-2.318945
1.499000,-1.747445
1.500000,-0.382971
1.501000,1.066783
1.502000,1.595007
1.503000,1.848300
1.504000,1.070601
1.505000,-0.267143
1.506000,-1.797085
1.507000,-3.147558
1.508000,-3.898527
1.509000,-4.187460
1.510000,-4.007991
1.511000,-3.727968
1.512000,-3.314298
1.513000,-2.142022
1.514000,-1.051207
1.515000,-0.147497
1.516000,0.220351
1.517000,0.107069
1.518000,-0.587896
1.519000,-0.657902
1.520000,-1.113575
1.521000,-1.234494
1.522000,-0.992656
1.523000,-1.094483
1.524000,-1.164488
1.525000,-0.571350
1.526000,-0.193319
1.527000,-0.674449
1.528000,-1.128849
1.529000,-1.415236
1.530000,-2.108928
1.531000,-2.961724
1.532000,-2.383860
1.533000,-2.499687
1.534000,-2.971907
1.535000,-3.110645
1.536000,-3.212472
1.537000,-3.273568
1.538000,-3.439036
1.539000,-3.064824
1.540000,-2.241303
1.541000,-1.966371
1.542000,-1.961280
1.543000,-1.756354
1.544000,-1.700350
1.545000,-1.771628
1.546000,-1.659619
1.547000,-1.515789
1.548000,-1.616343
1.549000,-1.464876
1.550000,-1.251041
1.551000,-1.153033
1.552000,-1.163216
1.553000,-0.929015
1.554000,-0.301510
1.555000,0.117251
1.556000,-0.060945
1.557000,-0.156407
1.558000,0.059974
1.559000,0.341269
1.560000,-0.174227
1.561000,-0.725362
1.562000,-1.275225
1.563000,-1.623980
1.564000,-1.641800
1.565000,-1.700350
1.566000,-1.793266
1.567000,-1.746172
1.568000,-1.890001
1.569000,-2.083472
1.570000,-2.313854
1.571000,-2.394042
1.572000,-2.465321
1.573000,-2.415680
1.574000,-2.259122
1.575000,-1.891274
1.576000,-1.620162
1.577000,-1.319774
1.578000,-1.065208
1.579000,-0.867919
1.580000,-0.290054
1.581000,0.709117
1.582000,1.350624
1.583000,1.274254
1.584000,1.616645
1.585000,2.711279
1.586000,2.762192
1.587000,1.080784
1.588000,-0.783912
1.589000,-2.576057
1.590000,-4.098362
1.591000,-5.263001
1.592000,-5.873959
1.593000,-5.971967
1.594000,-5.135718
1.595000,-4.632950
1.596000,-3.837431
1.597000,-3.357574
1.598000,-3.166650
1.599000,-2.976998
1.600000,-2.602786
1.601000,-2.153477
1.602000,-1.883637
1.603000,-1.478877
1.604000,-1.132668
1.605000,-0.903558
1.606000,-0.806823
1.607000,-0.837371
1.608000,-0.847554
1.609000,-0.573895
1.610000,-0.432611
1.611000,-0.460613
1.612000,-0.633718
1.613000,-0.651538
1.614000,-0.668085
1.615000,-0.068582
1.616000,0.051064
1.617000,-0.305328
1.618000,-0.776275
1.619000,-1.300681
1.620000,-1.803449
1.621000,-1.924368
1.622000,-0.460613
1.623000,0.883495
1.624000,1.040053
1.625000,0.557651
1.626000,-0.326966
1.627000,-1.649437
1.628000,-3.129738
1.629000,-4.081815
1.630000,-4.506940
1.631000,-4.477665
1.632000,-4.035993
1.633000,-3.454310
1.634000,-2.924812
1.635000,-2.476776
1.636000,-1.743626
1.637000,-0.960836
1.638000,-0.794095
1.639000,-0.561167
1.640000,-0.552257
1.641000,-0.810642
1.642000,-1.178490
1.643000,-1.625253
1.644000,-1.599796
1.645000,-1.427964
1.646000,-1.335048
1.647000,-1.263769
1.648000,-1.254859
1.649000,-1.524699
1.650000,-1.767810
1.651000,-1.809813
1.652000,-1.842907
1.653000,-1.551429
1.654000,-0.351150
1.655000,1.330258
1.656000,2.333248
1.657000,2.422347
1.658000,1.512273
1.659000,-0.039307
1.660000,-1.748717
1.661000,-2.957906
1.662000,-3.731786
1.663000,-3.887072
1.664000,-3.721604
1.665000,-3.029184
1.666000,-2.265486
1.667000,-2.000738
1.668000,-2.060561
1.669000,-2.364767
1.670000,-2.646063
1.671000,-3.153922
1.672000,-3.148830
1.673000,-2.638426
1.674000,-2.306217
1.675000,-1.765264
1.676000,-1.388506
1.677000,-1.242131
1.678000,-1.131395
1.679000,-0.738090
1.680000,-0.099130
1.681000,-0.124586
1.682000,-0.581532
1.683000,-1.071572
1.684000,-1.133940
1.685000,-1.449602
1.686000,-1.733443
1.687000,-1.981645
1.688000,-2.229847
1.689000,-2.488232
1.690000,-2.530235
1.691000,-2.409316
1.692000,-2.091109
1.693000,-1.720715
1.694000,-1.534882
1.695000,-1.371960
1.696000,-0.979928
1.697000,-0.410973
1.698000,-0.073673
1.699000,0.007788
1.700000,0.049791
1.701000,0.743484
1.702000,1.337895
1.703000,0.860584
1.704000,-0.035488
1.705000,-1.010476
1.706000,-1.215402
1.707000,-1.011749
1.708000,-1.235767
1.709000,-1.318501
1.710000,-0.808096
1.711000,-1.139032
1.712000,-2.030013
1.713000,-3.077552
1.714000,-3.848887
1.715000,-4.212916
1.716000,-3.455582
1.717000,-2.937541
1.718000,-2.568420
1.719000,-2.276942
1.720000,-2.283306
1.721000,-2.595149
1.722000,-2.887900
1.723000,-1.086846
1.724000,0.061247
1.725000,0.150345
1.726000,-0.217503
1.727000,-1.001566
1.728000,-1.999465
1.729000,-2.886627
1.730000,-3.558682
1.731000,-3.873071
1.732000,-3.865434
1.733000,-3.509041
1.734000,-2.970634
1.735000,-2.302398
1.736000,-1.147942
1.737000,-0.605716
1.738000,0.320904
1.739000,0.865675
1.740000,0.864403
1.741000,0.361635
1.742000,-0.277326
1.743000,-1.102120
1.744000,-1.529791
1.745000,-1.198855
1.746000,-1.223039
1.747000,-0.665539
1.748000,-0.155134
1.749000,-0.221321
1.750000,-0.633718
1.751000,-1.238313
1.752000,-1.632890
1.753000,-2.325309
1.754000,-2.895537
1.755000,-3.161559
1.756000,-2.640971
1.757000,-2.279487
1.758000,-2.145840
1.759000,-1.966371
1.760000,-1.122485
1.761000,-0.328239
1.762000,0.239443
1.763000,0.202531
1.764000,-0.442794
1.765000,-1.391052
1.766000,-2.380041
1.767000,-3.194652
1.768000,-3.735605
1.769000,-3.729241
1.770000,-3.627414
1.771000,-3.185742
1.772000,-2.620606
1.773000,-2.191662
1.774000,-1.977827
1.775000,-1.855635
1.776000,-1.631617
1.777000,-1.310864
1.778000,-1.011749
1.779000,-0.805550
1.780000,-0.739363
1.781000,-0.815733
1.782000,-0.987565
1.783000,-1.141577
1.784000,-1.079209
1.785000,-0.227686
1.786000,1.234796
1.787000,2.240332
1.788000,1.783386
1.789000,0.883495
1.790000,-0.267143
1.791000,-1.270133
1.792000,-2.204390
1.793000,-2.618060
1.794000,-2.313854
1.795000,-2.170024
1.796000,-2.058015
1.797000,-2.201845
1.798000,-2.386405
1.799000,-2.746616
1.800000,-3.155194
1.801000,-3.363939
1.802000,-2.789892
1.803000,-1.254859
1.804000,0.169437
1.805000,0.173256
1.806000,-0.139860
1.807000,-0.368970
1.808000,-0.748273
1.809000,-1.609979
1.810000,-2.493323
1.811000,-2.961724
1.812000,-3.025366
1.813000,-3.236656
1.814000,-3.251930
1.815000,-3.127192
1.816000,-2.772073
1.817000,-2.334219
1.818000,-2.084744
1.819000,-1.667256
1.820000,-0.982474
1.821000,-0.451704
1.822000,-0.323148
1.823000,-0.307874
1.824000,-0.561167
1.825000,-0.151316
1.826000,2.124504
1.827000,4.628161
1.828000,4.525062
1.829000,2.955662
1.830000,0.892405
1.831000,-1.569248
1.832000,-3.972351
1.833000,-5.480655
1.834000,-5.499747
1.835000,-5.630849
1.836000,-5.343189
1.837000,-4.831512
1.838000,-4.377111
1.839000,-4.257465
1.840000,-4.034720
1.841000,-3.678328
1.842000,-3.095371
1.843000,-2.675338
1.844000,-1.942188
1.845000,-1.284134
1.846000,-0.917559
1.847000,-0.358787
1.848000,0.121070
1.849000,0.012879
1.850000,-0.255688
1.851000,-0.497525
1.852000,-0.790276
1.853000,-1.051207
1.854000,-1.237040
1.855000,-1.489060
1.856000,-1.534882
1.857000,-0.937925
1.858000,-0.030397
1.859000,0.635293
1.860000,0.770213
1.861000,0.390910
1.862000,-0.250596
1.863000,-1.053752
1.864000,-1.272679
1.865000,-1.210310
1.866000,-1.324865
1.867000,-1.753809
1.868000,-2.112747
1.869000,-2.549327
1.870000,-2.751707
1.871000,-2.894264
1.872000,-2.736433
1.873000,-2.564601
1.874000,-2.470412
1.875000,-2.218392
1.876000,-1.986737
1.877000,-1.697804
1.878000,-1.622707
1.879000,-1.593432
1.880000,-1.216674
1.881000,-0.703724
1.882000,-0.032943
1.883000,0.602200
1.884000,0.410002
1.885000,-0.198410
1.886000,-0.409700
1.887000,0.142708
1.888000,-0.106767
1.889000,-1.037205
1.890000,-1.876000
1.891000,-2.619333
1.892000,-3.365211
1.893000,-3.818339
1.894000,-3.880708
1.895000,-3.651598
1.896000,-2.910811
1.897000,-1.471240
1.898000,-1.049934
1.899000,-0.781367
1.900000,-0.725362
1.901000,-0.836098
1.902000,-0.865373
1.903000,-0.735545
1.904000,0.180893
1.905000,0.444369
1.906000,0.337451
1.907000,-0.268416
1.908000,-0.983747
1.909000,-1.874728
1.910000,-2.822986
1.911000,-3.601958
1.912000,-4.002899
1.913000,-3.936712
1.914000,-3.313025
1.915000,-2.812803
1.916000,-2.546782
1.917000,-2.304944
1.918000,-2.014739
1.919000,-1.831451
1.920000,-1.599796
1.921000,-1.413963
1.922000,-1.337593
1.923000,-1.201400
1.924000,-1.153033
1.925000,-1.084300
1.926000,-1.048661
1.927000,-1.070299
1.928000,-1.024477
1.929000,-0.953199
1.930000,-0.879374
1.931000,-0.912468
1.932000,-0.848827
1.933000,-0.878102
1.934000,-0.470796
1.935000,0.062520
1.936000,-0.050762
1.937000,-0.133496
1.938000,-0.572622
1.939000,-0.133496
1.940000,-0.058399
1.941000,-0.571350
1.942000,-0.757183
1.943000,-1.247222
1.944000,-1.935823
1.945000,-2.689339
1.946000,-3.343573
1.947000,-3.671963
1.948000,-3.689783
1.949000,-3.103008
1.950000,-1.795812
1.951000,-0.167863
1.952000,1.325167
1.953000,0.964956
1.954000,-0.102948
1.955000,-1.518335
1.956000,-2.364767
1.957000,-2.336765
1.958000,-2.668973
1.959000,-2.951542
1.960000,-3.067369
1.961000,-2.717341
1.962000,-1.574340
1.963000,-1.324865
1.964000,-1.593432
1.965000,-1.817450
1.966000,-2.310035
1.967000,-2.680429
1.968000,-3.110645
1.969000,-3.397032
1.970000,-3.421216
1.971000,-3.295206
1.972000,-2.775891
1.973000,-1.099574
1.974000,-0.193319
1.975000,-0.111858
1.976000,0.068884
1.977000,1.160972
1.978000,1.513546
1.979000,1.384990
1.980000,0.847856
1.981000,-0.030397
1.982000,-1.281589
1.983000,-2.376223
1.984000,-2.703340
1.985000,-3.241747
1.986000,-3.463219
1.987000,-3.668145
1.988000,-3.687237
1.989000,-3.357574
1.990000,-3.049550
1.991000,-2.681702
1.992000,-2.401679
1.993000,-2.251485
1.994000,-2.058015
1.995000,-1.643072
1.996000,-1.295590
1.997000,-1.023204
1.998000,-0.148770
1.999000,1.807570
2.000000,2.466896
2.001000,2.129596
2.002000,1.679014
2.003000,0.924226
2.004000,-0.716452
2.005000,-2.266759
2.006000,-3.554863
2.007000,-4.266375
2.008000,-4.398749
2.009000,-4.116181
2.010000,-3.552317
2.011000,-2.941359
2.012000,-2.509870
2.013000,-2.247667
2.014000,-1.811086
2.015000,-1.229403
2.016000,-0.697360
2.017000,-0.306601
2.018000,-0.017669
2.019000,-0.144952
2.020000,-0.176772
2.021000,-0.217503
2.022000,-0.688450
2.023000,-1.159397
2.024000,-1.356686
2.025000,-1.771628
2.026000,-1.988009
2.027000,-2.074562
2.028000,-1.979100
2.029000,-1.765264
2.030000,-1.635435
2.031000,-1.210310
2.032000,-0.011304
2.033000,0.431640
2.034000,0.016698
2.035000,-0.685904
2.036000,-1.403780
2.037000,-1.864545
2.038000,-2.429681
2.039000,-2.275669
2.040000,-1.539973
2.041000,-0.987565
2.042000,-1.121212
2.043000,-0.785185
2.044000,-0.043125
2.045000,-0.146224
2.046000,-0.761001
2.047000,-0.920105
2.048000,-1.621434
2.049000,-2.511143
2.050000,-2.970634
2.051000,-3.412306
2.052000,-3.579047
2.053000,-3.559954
2.054000,-3.118282
2.055000,-1.210310
2.056000,1.896668
2.057000,2.281062
2.058000,1.722290
2.059000,0.323450
2.060000,-1.378324
2.061000,-2.522598
2.062000,-3.783973
2.063000,-4.554035
2.064000,-4.709320
2.065000,-4.230736
2.066000,-3.654144
2.067000,-2.156023
2.068000,-0.384244
2.069000,0.303085
2.070000,-0.155134
2.071000,-0.757183
2.072000,-1.155579
2.073000,-2.075835
2.074000,-2.982090
2.075000,-3.622323
2.076000,-3.622323
2.077000,-3.831067
2.078000,-3.851432
2.079000,-3.607049
2.080000,-3.165377
2.081000,-2.671519
2.082000,-2.124202
2.083000,-1.508152
2.084000,-1.318501
2.085000,-1.081754
2.086000,-0.825916
2.087000,0.045973
2.088000,0.410002
2.089000,0.564015
2.090000,0.734574
2.091000,1.186429
2.092000,0.782941
2.093000,0.081612
2.094000,-0.827188
2.095000,-1.509425
2.096000,-1.910367
2.097000,-2.176388
2.098000,-2.158569
2.099000,-2.231120
2.100000,-2.209482
2.101000,-1.817450
2.102000,-1.506880
2.103000,-0.859009
2.104000,-0.609535
2.105000,0.308176
2.106000,1.819025
2.107000,2.043043
2.108000,1.210612
2.109000,0.294175
2.110000,-1.005385
2.111000,-2.601513
2.112000,-3.694874
2.113000,-4.312197
2.114000,-4.515850
2.115000,-4.288013
2.116000,-3.873071
2.117000,-3.264658
2.118000,-2.373677
2.119000,-2.061834
2.120000,-1.789448
2.121000,-1.599796
2.122000,-1.377051
2.123000,-0.008759
2.124000,0.845310
2.125000,0.830036
2.126000,0.422731
2.127000,-0.281144
2.128000,-1.035933
2.129000,-2.013466
2.130000,-2.782255
2.131000,-2.856079
2.132000,-2.709704
2.133000,-2.639698
2.134000,-2.442410
2.135000,-2.201845
2.136000,-2.101291
2.137000,-1.615070
2.138000,0.299266
2.139000,1.066783
2.140000,0.628929
2.141000,-0.132223
2.142000,-0.847554
2.143000,-1.688894
2.144000,-2.616787
2.145000,-3.215018
2.146000,-3.481039
2.147000,-3.361393
2.148000,-3.136102
2.149000,-2.864989
2.150000,-2.493323
2.151000,-2.227301
2.152000,-1.967644
2.153000,-1.690167
2.154000,-1.156851
2.155000,0.420185
2.156000,1.015869
2.157000,0.832582
2.158000,0.994231
2.159000,1.267890
2.160000,0.427822
2.161000,-0.832280
2.162000,-1.567976
2.163000,-2.242575
2.164000,-2.857352
2.165000,-2.116565
2.166000,-0.764820
2.167000,-0.351150
2.168000,-0.240414
2.169000,-0.943016
2.170000,-2.044014
2.171000,-3.161559
2.172000,-4.136546
2.173000,-4.382203
2.174000,-4.044903
2.175000,-3.940531
2.176000,-3.444127
2.177000,-2.926085
2.178000,-2.556964
2.179000,-1.304500
2.180000,-0.707542
2.181000,-0.282417
2.182000,-0.226413
2.183000,-0.469523
2.184000,-0.880647
2.185000,-1.539973
2.186000,-1.898911
2.187000,-1.315955
2.188000,-1.062662
2.189000,-1.252314
2.190000,-1.513244
2.191000,-1.823814
2.192000,-1.730898
2.193000,-1.457239
2.194000,-0.553530
2.195000,-0.203502
2.196000,-0.461886
2.197000,-0.937925
2.198000,-1.359231
2.199000,-1.939642
2.200000,-2.502233
2.201000,-2.320218
2.202000,-1.532336
2.203000,-1.345230
2.204000,-1.039751
2.205000,-0.435157
2.206000,-0.578987
2.207000,-0.836098
2.208000,-1.220493
2.209000,-1.651982
2.210000,-2.200572
2.211000,-2.278215
2.212000,-2.219664
2.213000,-1.948552
2.214000,-1.823814
2.215000,-1.737262
2.216000,-1.872182
2.217000,-2.108928
2.218000,-2.140749
2.219000,-1.897638
2.220000,-1.728352
2.221000,-1.234494
2.222000,0.530921
2.223000,1.325167
2.224000,1.202975
2.225000,0.966229
2.226000,0.677297
2.227000,-0.284963
2.228000,-1.233221
2.229000,-1.389779
2.230000,-1.765264
2.231000,-2.437318
2.232000,-2.923539
2.233000,-3.386850
2.234000,-3.741969
2.235000,-3.985080
2.236000,-4.042357
2.237000,-3.749606
2.238000,-3.276113
2.239000,-2.920994
2.240000,-2.544236
2.241000,-2.195481
2.242000,-1.789448
2.243000,-0.525528
2.244000,0.524557
2.245000,1.135515
2.246000,0.897496
2.247000,0.203804
2.248000,-0.605716
2.249000,-1.517062
2.250000,-2.329128
2.251000,-2.101291
2.252000,-1.276497
2.253000,-1.192491
2.254000,-0.711361
2.255000,-0.601898
2.256000,-0.636264
2.257000,-0.794095
2.258000,-0.814460
2.259000,-1.091937
2.260000,-1.141577
2.261000,-1.620162
2.262000,-2.110201
2.263000,-2.694430
2.264000,-2.968088
2.265000,-2.232393
2.266000,-0.516618
2.267000,0.735847
2.268000,0.883495
2.269000,0.483826
2.270000,-0.395699
2.271000,-1.819996
2.272000,-3.405942
2.273000,-4.518395
2.274000,-4.888789
2.275000,-4.751323
2.276000,-4.359292
2.277000,-3.222654
2.278000,-1.524699
2.279000,-0.567531
2.280000,-0.526801
2.281000,-0.920105
2.282000,-1.500516
2.283000,-1.976554
2.284000,-2.130566
2.285000,-2.252758
2.286000,-1.999465
2.287000,-1.562884
2.288000,-1.528518
2.289000,-1.510698
2.290000,-1.357959
2.291000,-0.730453
2.292000,-0.628627
2.293000,-0.758456
2.294000,-1.119939
2.295000,-1.354140
2.296000,-1.349049
2.297000,-1.128849
2.298000,-0.979928
2.299000,-1.111030
2.300000,-1.391052
2.301000,-1.537428
2.302000,-1.494151
2.303000,-0.550984
2.304000,-0.258233
2.305000,-0.536983
2.306000,-0.883193
2.307000,-1.352867
2.308000,-1.882365
2.309000,-2.260395
2.310000,-2.423317
2.311000,-2.500960
2.312000,-2.428409
2.313000,-2.161114
2.314000,-1.802176
2.315000,-0.953199
2.316000,-0.032943
2.317000,0.222896
2.318000,1.314984
2.319000,2.204693
2.320000,2.058317
2.321000,1.766839
2.322000,0.929317
2.323000,-0.614626
2.324000,-2.334219
2.325000,-3.632506
2.326000,-4.541306
2.327000,-4.968977
2.328000,-5.040256
2.329000,-4.879879
2.330000,-4.598584
2.331000,-3.218836
2.332000,-1.977827
2.333000,-1.289226
2.334000,-0.918832
2.335000,-0.730453
2.336000,-0.736818
2.337000,-0.119495
2.338000,0.094340
2.339000,-0.172954
2.340000,-0.908650
2.341000,-1.557793
2.342000,-1.890001
2.343000,-2.007102
2.344000,-1.839088
2.345000,-1.976554
2.346000,-2.196754
2.347000,-2.353312
2.348000,-2.569693
2.349000,-2.751707
2.350000,-2.236211
2.351000,-0.991384
2.352000,-0.044398
2.353000,0.224169
2.354000,-0.302782
2.355000,-1.154306
2.356000,-2.032558
2.357000,-2.742798
2.358000,-3.097917
2.359000,-3.104281
2.360000,-2.084744
2.361000,-1.159397
2.362000,0.225442
2.363000,0.654386
2.364000,0.296720
2.365000,-0.407155
2.366000,-1.361777
2.367000,-2.330401
2.368000,-3.176833
2.369000,-3.398305
2.370000,-3.315571
2.371000,-3.202289
2.372000,-2.271850
2.373000,-0.264598
2.374000,0.508010
2.375000,0.654386
2.376000,0.287811
2.377000,-0.301510
2.378000,-1.365596
2.379000,-2.430954
2.380000,-2.954087
2.381000,-3.026639
2.382000,-2.777164
2.383000,-2.195481
2.384000,-1.849271
2.385000,-1.616343
2.386000,-1.534882
2.387000,-1.237040
2.388000,-0.634991
2.389000,0.221623
2.390000,1.323894
2.391000,1.428266
2.392000,0.593290
2.393000,-0.655356
2.394000,-1.876000
2.395000,-2.889173
2.396000,-3.431399
2.397000,-3.561227
2.398000,-3.225200
2.399000,-2.766981
2.400000,-2.565874
2.401000,-2.343129
2.402000,-2.139476
2.403000,-2.156023
2.404000,-1.443238
2.405000,0.045973
2.406000,0.165619
2.407000,-0.088947
2.408000,-0.366424
2.409000,-0.223867
2.410000,-0.962108
2.411000,-1.856908
2.412000,-2.472958
2.413000,-2.777164
2.414000,-2.878990
2.415000,-3.067369
2.416000,-2.912084
2.417000,-2.450047
2.418000,-1.980372
2.419000,-1.794539
2.420000,-1.609979
2.421000,-1.363050
2.422000,-0.670630
2.423000,-0.517891
2.424000,-0.722816
2.425000,-0.773730
2.426000,-0.735545
2.427000,-0.634991
2.428000,-0.267143
2.429000,-0.264598
2.430000,-0.712634
2.431000,-1.291771
2.432000,-1.939642
2.433000,-2.232393
2.434000,-2.414407
2.435000,-2.368586
2.436000,-2.182752
2.437000,-1.984191
2.438000,-1.313410
2.439000,-0.972291
2.440000,-0.913741
2.441000,0.373090
2.442000,1.252616
2.443000,0.878404
2.444000,0.297993
2.445000,-0.428793
2.446000,-1.457239
2.447000,-2.560783
2.448000,-3.220109
2.449000,-3.450491
2.450000,-3.470856
2.451000,-2.946450
2.452000,-0.670630
2.453000,0.538558
2.454000,0.178347
2.455000,-0.466978
2.456000,-1.566703
2.457000,-2.362221
2.458000,-3.024093
2.459000,-3.330845
2.460000,-3.782700
2.461000,-3.315571
2.462000,-1.854362
2.463000,-1.391052
2.464000,-1.326138
2.465000,-1.511971
2.466000,-1.336320
2.467000,-0.940470
2.468000,-1.085573
2.469000,-1.654528
2.470000,-2.163660
2.471000,-2.525144
2.472000,-2.766981
2.473000,-2.978271
2.474000,-3.080098
2.475000,-2.691884
2.476000,-2.280760
2.477000,-1.891274
2.478000,-1.543792
2.479000,-1.378324
2.480000,-1.041024
2.481000,-0.749546
2.482000,-0.848827
2.483000,-1.027023
2.484000,-1.174671
2.485000,-1.051207
2.486000,-0.424974
2.487000,0.315813
2.488000,0.394728
2.489000,0.252171
2.490000,-0.245505
2.491000,-0.817006
2.492000,-0.295146
2.493000,-0.427520
2.494000,-0.937925
2.495000,-1.559066
2.496000,-2.148386
2.497000,-2.639698
2.498000,-3.012638
2.499000,-2.649881
2.500000,-2.532781
2.501000,-2.632061
2.502000,-2.714795
2.503000,-2.649881
2.504000,-2.367313
2.505000,-1.369414
2.506000,-0.446612
2.507000,-0.329512
2.508000,-0.556076
2.509000,-0.839917
2.510000,-1.071572
2.511000,-0.957017
2.512000,-1.294317
2.513000,-1.649437
2.514000,-1.702895
2.515000,-1.328683
2.516000,-0.290054
2.517000,0.052337
2.518000,-0.325693
2.519000,-0.985019
2.520000,-1.766537
2.521000,-2.170024
2.522000,-2.640971
2.523000,-2.838260
2.524000,-2.824259
2.525000,-3.024093
2.526000,-2.909538
2.527000,-2.632061
2.528000,-2.437318
2.529000,-2.345675
2.530000,-2.035104
2.531000,-1.525972
2.532000,-1.079209
2.533000,-1.130122
2.534000,-1.112302
2.535000,-0.354969
2.536000,0.173256
2.537000,0.511829
2.538000,0.244534
2.539000,0.942045
2.540000,0.655658
2.541000,-0.249324
2.542000,-0.305328
2.543000,0.028153
2.544000,1.729927
2.545000,1.227159
2.546000,0.089249
2.547000,-1.167034
2.548000,-2.794984
2.549000,-4.506940
2.550000,-5.859958
2.551000,-6.444187
2.552000,-6.328360
2.553000,-5.768314
2.554000,-4.884970
2.555000,-4.142911
2.556000,-2.092381
2.557000,-0.279872
2.558000,0.072702
2.559000,0.171983
2.560000,-0.169135
2.561000,-0.517891
2.562000,-1.118667
2.563000,-1.772901
2.564000,-2.116565
2.565000,-2.299853
2.566000,-2.316400
2.567000,-2.177661
2.568000,-2.036377
2.569000,-1.846725
2.570000,-1.579431
2.571000,-1.015567
2.572000,-0.880647
2.573000,-1.060116
2.574000,-1.117394
2.575000,-1.043570
2.576000,-1.030841
2.577000,-1.121212
2.578000,-1.034660
2.579000,-0.944289
2.580000,0.075248
2.581000,0.590744
2.582000,0.468552
2.583000,0.059974
2.584000,-0.390608
2.585000,-0.861555
2.586000,-1.471240
2.587000,-1.723261
2.588000,-1.900184
2.589000,-2.296034
2.590000,-2.506051
2.591000,-2.483140
2.592000,-2.254031
2.593000,-2.294761
2.594000,-2.359676
2.595000,-2.163660
2.596000,-1.763991
2.597000,-1.580704
2.598000,-1.545065
2.599000,-1.237040
2.600000,-0.992656
2.601000,-1.053752
2.602000,-1.169580
2.603000,-0.967200
2.604000,-1.060116
2.605000,-1.094483
2.606000,-0.228958
2.607000,0.870767
2.608000,0.776577
2.609000,0.095613
2.610000,0.356543
2.611000,-0.357514
2.612000,-1.053752
2.613000,-1.765264
2.614000,-2.604059
2.615000,-3.514133
2.616000,-4.128909
2.617000,-4.344018
2.618000,-4.247283
2.619000,-3.958350
2.620000,-3.358847
2.621000,-2.359676
2.622000,-2.023649
2.623000,-1.724534
2.624000,-1.626526
2.625000,-1.721988
2.626000,-1.733443
2.627000,-1.676166
2.628000,-1.585795
2.629000,-1.543792
2.630000,-1.412690
2.631000,-1.189945
2.632000,0.631475
2.633000,3.557711
2.634000,3.627717
2.635000,2.762192
2.636000,1.700652
2.637000,0.198713
2.638000,-0.628627
2.639000,-1.015567
2.640000,-1.923095
2.641000,-3.029184
2.642000,-4.005445
2.643000,-4.230736
2.644000,-3.763607
2.645000,-3.150103
2.646000,-3.117010
2.647000,-3.506496
2.648000,-3.614686
2.649000,-3.755970
2.650000,-3.940531
2.651000,-3.791609
2.652000,-3.558682
2.653000,-3.113191
2.654000,-2.723705
2.655000,-2.036377
2.656000,-0.960836
2.657000,-0.646447
2.658000,-0.846281
2.659000,-1.013022
2.660000,-1.206492
2.661000,-1.407599
2.662000,-1.590886
2.663000,-1.641800
2.664000,-1.072845
2.665000,-0.680813
2.666000,-0.507708
2.667000,-0.358787
2.668000,-0.249324
2.669000,-0.472069
2.670000,-0.777548
2.671000,-1.140305
2.672000,-1.434328
2.673000,-1.338866
2.674000,-1.119939
2.675000,-1.130122
2.676000,-0.945562
2.677000,-0.734272
2.678000,-0.951926
2.679000,-1.063935
2.680000,-1.289226
2.681000,-1.483969
2.682000,-1.645618
2.683000,-1.766537
2.684000,-1.505607
2.685000,-0.679540
2.686000,-0.138587
2.687000,-0.262052
2.688000,-0.391881
2.689000,-0.761001
2.690000,-1.235767
2.691000,-1.850544
2.692000,-2.401679
2.693000,-2.639698
2.694000,-1.779265
2.695000,-1.086846
2.696000,-0.783912
2.697000,-0.707542
2.698000,-0.946834
2.699000,-1.539973
2.700000,-2.171297
2.701000,-2.456411
2.702000,-2.773345
2.703000,-2.960452
2.704000,-0.226413
2.705000,2.508899
2.706000,2.547084
2.707000,1.838118
2.708000,0.490191
2.709000,-1.472513
2.710000,-3.654144
2.711000,-5.016072
2.712000,-5.257910
2.713000,-5.191722
2.714000,-4.205279
2.715000,-3.383031
2.716000,-2.839533
2.717000,-2.469139
2.718000,-2.133112
2.719000,-2.275669
2.720000,-1.611252
2.721000,-1.136486
2.722000,-1.197582
2.723000,-0.971018
2.724000,-0.857736
2.725000,-1.319774
2.726000,-1.865818
2.727000,-2.266759
2.728000,-2.290943
2.729000,-2.196754
2.730000,-2.092381
2.731000,-2.134385
2.732000,-1.947279
2.733000,-1.445784
2.734000,-1.023204
2.735000,-1.060116
2.736000,-1.028296
2.737000,-0.678267
2.738000,-0.562440
2.739000,-0.661721
2.740000,-0.857736
2.741000,-1.042297
2.742000,-1.039751
2.743000,-1.066480
2.744000,-1.142850
2.745000,-1.257405
2.746000,-1.211583
2.747000,-1.203946
2.748000,-1.231948
2.749000,-0.423701
2.750000,-0.259506
2.751000,1.045144
2.752000,3.263687
2.753000,4.024839
2.754000,3.290417
2.755000,1.668831
2.756000,-0.270962
2.757000,-1.721988
2.758000,-3.110645
2.759000,-4.522214
2.760000,-5.327915
2.761000,-5.741585
2.762000,-5.833229
2.763000,-5.535387
2.764000,-5.040256
2.765000,-4.571854
2.766000,-4.202734
2.767000,-3.627414
2.768000,-2.685520
2.769000,-1.699077
2.770000,-1.080482
2.771000,-0.795368
2.772000,-0.284963
2.773000,1.069328
2.774000,1.237342
2.775000,0.832582
2.776000,0.728210
2.777000,0.199985
2.778000,-0.468250
2.779000,-1.270133
2.780000,-1.538700
2.781000,-1.990555
2.782000,-2.601513
2.783000,-2.889173
2.784000,-3.021547
2.785000,-2.922267
2.786000,-2.946450
2.787000,-2.940086
2.788000,-2.684247
2.789000,-2.386405
2.790000,-2.120384
2.791000,-1.595978
2.792000,-1.224311
2.793000,-1.271406
2.794000,-1.186127
2.795000,-1.229403
2.796000,-1.029568
2.797000,0.065065
2.798000,1.122787
2.799000,2.977300
2.800000,3.725724
2.801000,2.922569
2.802000,2.295064
2.803000,1.365898
2.804000,-0.486070
2.805000,-2.422044
2.806000,-3.946895
2.807000,-5.079713
2.808000,-5.693217
2.809000,-5.775951
2.810000,-5.436106
2.811000,-4.900244
2.812000,-4.234554
2.813000,-3.572683
2.814000,-2.933722
2.815000,-2.366040
2.816000,-1.999465
2.817000,-1.667256
2.818000,-1.368141
2.819000,-1.140305
2.820000,-0.799186
2.821000,1.124060
2.822000,3.009121
2.823000,3.770273
2.824000,3.100765
2.825000,1.351896
2.826000,-0.310419
2.827000,-1.872182
2.828000,-3.464492
2.829000,-4.734777
2.830000,-4.546398
2.831000,-3.719058
2.832000,-3.197198
2.833000,-2.462775
2.834000,-1.762718
2.835000,-0.692268
2.836000,0.655658
2.837000,0.786760
2.838000,0.061247
2.839000,-0.515345
2.840000,-0.442794
2.841000,-1.514517
2.842000,-2.690612
2.843000,-3.589230
2.844000,-3.987625
2.845000,-4.126364
2.846000,-3.996535
2.847000,-3.521770
2.848000,-3.212472
2.849000,-2.106383
2.850000,-1.697804
2.851000,-1.529791
2.852000,-1.396143
2.853000,-1.380869
2.854000,-1.458512
2.855000,-1.458512
2.856000,-1.193763
2.857000,-1.029568
2.858000,-0.568804
2.859000,-0.624808
2.860000,-0.726635
2.861000,-0.987565
2.862000,-1.231948
2.863000,-1.494151
2.864000,-1.518335
2.865000,-1.524699
2.866000,-1.509425
2.867000,-1.472513
2.868000,-1.405053
2.869000,-1.244677
2.870000,-1.035933
2.871000,0.057428
2.872000,0.544922
2.873000,1.616645
2.874000,1.885212
2.875000,1.125333
2.876000,-0.155134
2.877000,-1.426691
2.878000,-2.716068
2.879000,-3.464492
2.880000,-4.056358
2.881000,-4.271466
2.882000,-4.177277
2.883000,-3.735605
2.884000,-3.090280
2.885000,-0.846281
2.886000,3.014212
2.887000,4.597613
2.888000,4.055387
2.889000,3.193681
2.890000,1.322621
2.891000,-1.056298
2.892000,-3.352483
2.893000,-5.088623
2.894000,-6.313086
2.895000,-6.856584
2.896000,-6.362726
2.897000,-5.600301
2.898000,-4.570581
2.899000,-3.543408
2.900000,-2.036377
2.901000,-1.113575
2.902000,0.165619
2.903000,0.552559
2.904000,0.267445
2.905000,-0.245505
2.906000,-0.684631
2.907000,-1.145396
2.908000,-1.599796
2.909000,-1.812359
2.910000,-1.685076
2.911000,-0.846281
2.912000,-0.718998
2.913000,-0.997748
2.914000,-1.132668
2.915000,-0.302782
2.916000,-0.283690
2.917000,-0.236595
2.918000,-0.673176
2.919000,-1.122485
2.920000,-1.669802
2.921000,-2.135658
2.922000,-2.696976
2.923000,-1.979100
2.924000,-1.285407
2.925000,-1.387234
2.926000,-2.072016
2.927000,-2.563329
2.928000,-3.061005
2.929000,-3.678328
2.930000,-3.953259
2.931000,-3.903619
2.932000,-3.520497
2.933000,-2.633334
2.934000,-1.709260
2.935000,-1.109757
2.936000,-0.926469
2.937000,-0.862828
2.938000,-0.852645
2.939000,-0.847554
2.940000,-0.953199
2.941000,-0.775002
2.942000,0.005242
2.943000,0.117251
2.944000,0.231806
2.945000,0.460915
2.946000,0.049791
2.947000,-0.064763
2.948000,-0.650265
2.949000,-1.130122
2.950000,-1.433056
2.951000,-1.715624
2.952000,-1.005385
2.953000,-0.475887
2.954000,-0.442794
2.955000,-0.829734
2.956000,-1.396143
2.957000,-2.213300
2.958000,-2.708431
2.959000,-3.251930
2.960000,-3.558682
2.961000,-3.617232
2.962000,-3.427580
2.963000,-2.975725
2.964000,-2.464048
2.965000,-2.208209
2.966000,-1.312137
2.967000,-0.147497
2.968000,0.346361
2.969000,0.677297
2.970000,0.575470
2.971000,0.087976
2.972000,-0.561167
2.973000,0.183439
2.974000,0.702753
2.975000,1.289528
2.976000,1.116423
2.977000,0.338724
2.978000,-0.684631
2.979000,-1.938369
2.980000,-2.873899
2.981000,-3.324481
2.982000,-3.055914
2.983000,-3.515405
2.984000,-3.543408
2.985000,-3.404669
2.986000,-3.660508
2.987000,-4.062722
2.988000,-3.841250
2.989000,-3.590502
2.990000,-2.932449
2.991000,-2.012193
2.992000,-1.574340
2.993000,-1.285407
2.994000,-1.202673
2.995000,-1.027023
2.996000,-0.857736
2.997000,-1.441965
2.998000,-1.901457
2.999000,-2.292216
3.000000,-2.419499
3.001000,-2.475503
3.002000,-2.551873
3.003000,-2.567147
3.004000,-2.548055
3.005000,-2.450047
3.006000,-2.270578
3.007000,-1.868363
3.008000,-1.228130
3.009000,-0.801732
3.010000,-0.628627
3.011000,-0.544620
3.012000,-0.291327
3.013000,-0.287509
3.014000,-0.524255
3.015000,-0.841190
3.016000,-0.060945
3.017000,0.220351
3.018000,-0.228958
3.019000,-0.839917
3.020000,-1.326138
3.021000,-1.776720
3.022000,-2.106383
3.023000,-2.212027
3.024000,-2.219664
3.025000,-2.215846
3.026000,-2.135658
3.027000,-1.896366
3.028000,-1.542519
3.029000,-1.247222
3.030000,-1.015567
3.031000,-0.785185
3.032000,-0.899740
3.033000,-1.030841
3.034000,-0.601898
3.035000,0.002697
3.036000,0.025608
3.037000,0.418912
3.038000,2.219967
3.039000,2.106685
3.040000,2.269607
3.041000,2.239059
3.042000,1.127878
3.043000,-0.525528
3.044000,-2.196754
3.045000,-3.708876
3.046000,-4.961340
3.047000,-5.689399
3.048000,-5.815409
3.049000,-5.527750
3.050000,-4.935884
3.051000,-4.246010
3.052000,-3.052095
3.053000,-1.873455
3.054000,-1.266315
3.055000,-1.107211
3.056000,-1.006657
3.057000,-0.025306
3.058000,0.355271
3.059000,0.701480
3.060000,0.346361
3.061000,-0.375334
3.062000,-1.132668
3.063000,-2.047832
3.064000,-2.710977
3.065000,-2.367313
3.066000,-2.060561
3.067000,-2.209482
3.068000,-2.378768
3.069000,-2.587512
3.070000,-2.688066
3.071000,-2.788619
3.072000,-2.838260
3.073000,-2.681702
3.074000,-2.392769
3.075000,-2.172570
3.076000,-1.942188
3.077000,-1.753809
3.078000,-1.273952
3.079000,-0.810642
3.080000,-0.039307
3.081000,0.443096
3.082000,0.185984
3.083000,0.323450
3.084000,0.588198
3.085000,0.168165
3.086000,-0.669358
3.087000,-1.142850
3.088000,-1.672348
3.089000,-2.173843
3.090000,-2.658791
3.091000,-2.943905
3.092000,-2.917175
3.093000,-2.847170
3.094000,-2.744070
3.095000,-2.471685
3.096000,-2.273123
3.097000,-2.003283
3.098000,-1.300681
3.099000,-0.612080
3.100000,-0.584078
3.101000,-0.761001
3.102000,-0.874283
3.103000,-1.024477
3.104000,-1.315955
3.105000,-1.314682
3.106000,-1.192491
3.107000,-1.377051
3.108000,-1.571794
3.109000,-1.117394
3.110000,-0.128405
3.111000,0.889859
3.112000,0.902588
3.113000,0.271264
3.114000,-0.273507
3.115000,-0.727908
3.116000,-1.416509
3.117000,-2.210755
3.118000,-2.859898
3.119000,-3.097917
3.120000,-3.215018
3.121000,-3.194652
3.122000,-2.899356
3.123000,-2.560783
3.124000,-2.542963
3.125000,-2.670246
3.126000,-2.512415
3.127000,-2.516234
3.128000,-2.553146
3.129000,-2.364767
3.130000,-2.117838
3.131000,-1.881092
3.132000,-1.727079
3.133000,-1.426691
3.134000,-0.197138
3.135000,1.158426
3.136000,1.687924
3.137000,1.686651
3.138000,0.866948
3.139000,-0.360060
3.140000,-1.475059
3.141000,-2.303671
3.142000,-2.772073
3.143000,-3.281205
3.144000,-2.703340
3.145000,-1.399962
3.146000,-0.772457
3.147000,-0.682086
3.148000,-1.001566
3.149000,-1.564157
3.150000,-1.962553
3.151000,-2.237484
3.152000,-2.346947
3.153000,-2.377495
3.154000,-2.331673
3.155000,-2.317672
3.156000,-2.252758
3.157000,-2.217119
3.158000,-2.243848
3.159000,-1.837815
3.160000,-0.803005
3.161000,-0.052035
3.162000,-0.020214
3.163000,-0.379152
3.164000,-0.134769
3.165000,-0.141133
3.166000,-0.922651
3.167000,-1.825087
3.168000,-2.472958
3.169000,-2.894264
3.170000,-2.926085
3.171000,-2.355857
3.172000,-0.787731
3.173000,-0.335876
3.174000,-1.001566
3.175000,-1.742353
3.176000,-2.390224
3.177000,-2.558237
3.178000,-2.474230
3.179000,-2.247667
3.180000,-2.251485
3.181000,-2.171297
3.182000,-1.392325
3.183000,0.166892
3.184000,0.631475
3.185000,1.012051
3.186000,0.887314
3.187000,0.980230
3.188000,0.369272
3.189000,-1.069026
3.190000,-2.549327
3.191000,-3.349937
3.192000,-3.254475
3.193000,-3.286296
3.194000,-3.063551
3.195000,-2.878990
3.196000,-2.704613
3.197000,-2.710977
3.198000,-2.904447
3.199000,-2.936268
3.200000,-2.853534
3.201000,-2.728796
3.202000,-2.446228
3.203000,-1.718169
3.204000,-0.521709
3.205000,1.106240
3.206000,1.574642
3.207000,1.169882
3.208000,0.436732
3.209000,-0.535710
3.210000,-1.509425
3.211000,-1.965098
3.212000,-2.413135
3.213000,-2.691884
3.214000,-2.820440
3.215000,-2.787347
3.216000,-2.774618
3.217000,-2.668973
3.218000,-2.590058
3.219000,-2.479322
3.220000,-2.217119
3.221000,-1.870909
3.222000,-1.643072
3.223000,-1.342685
3.224000,-1.172125
3.225000,-1.146669
3.226000,-0.787731
3.227000,-0.334603
3.228000,0.165619
3.229000,0.254717
3.230000,0.062520
3.231000,-0.361333
3.232000,-0.926469
3.233000,-1.321046
3.234000,-1.716897
3.235000,-2.005829
3.236000,-2.149659
3.237000,-2.094927
3.238000,-1.994374
3.239000,-1.799631
3.240000,-1.681257
3.241000,-0.521709
3.242000,-0.013850
3.243000,0.492736
3.244000,0.711663
3.245000,0.206349
3.246000,-0.673176
3.247000,-1.221766
3.248000,-1.853089
3.249000,-2.657518
3.250000,-3.184470
3.251000,-3.393214
3.252000,-3.357574
3.253000,-2.993545
3.254000,-1.771628
3.255000,-1.116121
3.256000,-0.405882
3.257000,-0.396972
3.258000,-0.689723
3.259000,-0.441521
3.260000,0.337451
3.261000,0.155436
3.262000,-0.783912
3.263000,-1.539973
3.264000,-2.133112
3.265000,-2.927358
3.266000,-3.523042
3.267000,-3.754697
3.268000,-3.754697
3.269000,-3.617232
3.270000,-3.257021
3.271000,-2.507324
3.272000,-1.611252
3.273000,-1.016840
3.274000,0.226715
3.275000,0.430368
3.276000,0.052337
3.277000,-0.558621
3.278000,-1.195036
3.279000,-2.061834
3.280000,-2.886627
3.281000,-3.139921
3.282000,-3.029184
3.283000,-2.863716
3.284000,-2.532781
3.285000,-1.863272
3.286000,-1.219220
3.287000,-0.883193
3.288000,-0.850099
3.289000,-0.524255
3.290000,0.304357
3.291000,0.380727
3.292000,-0.267143
3.293000,-0.870465
3.294000,-1.565430
3.295000,-1.839088
3.296000,-1.538700
3.297000,-0.996475
3.298000,-0.155134
3.299000,1.769385
3.300000,1.644647
3.301000,0.603472
3.302000,-0.381698
3.303000,-1.284134
3.304000,-2.437318
3.305000,-3.722877
3.306000,-4.571854
3.307000,-4.848058
3.308000,-4.379657
3.309000,-3.902346
3.310000,-3.549772
3.311000,-3.253202
3.312000,-3.111918
3.313000,-2.924812
3.314000,-2.205663
3.315000,-1.715624
3.316000,-1.566703
3.317000,-1.209037
3.318000,-0.893376
3.319000,-0.109312
3.320000,0.996777
3.321000,0.956046
3.322000,0.472371
3.323000,0.790578
3.324000,0.314540
3.325000,-0.711361
3.326000,-1.645618
3.327000,-2.539145
3.328000,-3.106827
3.329000,-3.108100
3.330000,-2.985908
3.331000,-2.760617
3.332000,-2.432227
3.333000,-2.224756
3.334000,-2.111474
3.335000,-1.967644
3.336000,-1.874728
3.337000,-1.821269
3.338000,-0.861555
3.339000,-0.497525
3.340000,-0.582805
3.341000,-0.761001
3.342000,-1.069026
3.343000,-0.259506
3.344000,0.425276
3.345000,0.079067
3.346000,-0.375334
3.347000,-0.976110
3.348000,-1.774174
3.349000,-2.467866
3.350000,-2.876445
3.351000,-2.896810
3.352000,-2.794984
3.353000,-2.597695
3.354000,-2.372404
3.355000,-1.924368
3.356000,-0.848827
3.357000,-0.073673
3.358000,0.926771
3.359000,0.737120
3.360000,0.047246
3.361000,-0.716452
3.362000,-1.575612
3.363000,-2.279487
3.364000,-2.535326
3.365000,-2.592604
3.366000,-2.143295
3.367000,-2.092381
3.368000,-2.152204
3.369000,-1.804722
3.370000,-1.678712
3.371000,-0.564985
3.372000,0.453279
3.373000,0.832582
3.374000,1.224613
3.375000,0.711663
3.376000,-0.682086
3.377000,-1.466149
3.378000,-1.514517
3.379000,-2.200572
3.380000,-2.863716
3.381000,-3.283750
3.382000,-2.634607
3.383000,-2.461502
3.384000,-2.912084
3.385000,-3.463219
3.386000,-3.808156
3.387000,-3.785245
3.388000,-3.484857
3.389000,-2.924812
3.390000,-2.433500
3.391000,-2.009648
3.392000,-1.854362
3.393000,-0.722816
3.394000,-0.459341
3.395000,-0.269689
3.396000,-0.414792
3.397000,-0.771184
3.398000,-1.130122
3.399000,-1.547610
3.400000,-1.728352
3.401000,-1.756354
3.402000,-1.781811
3.403000,-1.874728
3.404000,-2.002011
3.405000,-1.912912
3.406000,-0.603170
3.407000,0.928044
3.408000,0.986594
3.409000,0.505465
3.410000,-0.083856
3.411000,-0.982474
3.412000,-1.879819
3.413000,-2.243848
3.414000,-2.428409
3.415000,-2.710977
3.416000,-2.640971
3.417000,-2.626970
3.418000,-2.586239
3.419000,-2.499687
3.420000,-2.490777
3.421000,-2.296034
3.422000,-1.907821
3.423000,-1.231948
3.424000,-0.390608
3.425000,-0.181864
3.426000,0.079067
3.427000,0.723118
3.428000,0.877131
3.429000,0.557651
3.430000,-0.062218
3.431000,-0.745727
3.432000,-0.585351
3.433000,-0.716452
3.434000,-1.234494
3.435000,-1.905275
3.436000,-1.961280
3.437000,-2.506051
3.438000,-3.181924
3.439000,-3.551045
3.440000,-3.660508
3.441000,-3.881980
3.442000,-3.955805
3.443000,-3.318117
3.444000,-2.800075
3.445000,-2.581148
3.446000,-2.198026
3.447000,-1.738535
3.448000,-1.598523
3.449000,-1.347776
3.450000,-0.878102
3.451000,-0.718998
3.452000,-0.815733
3.453000,-0.887011
3.454000,-0.352423
3.455000,0.632748
3.456000,0.642930
3.457000,0.240716
3.458000,-0.260779
3.459000,-0.841190
3.460000,-1.587068
3.461000,-2.005829
3.462000,-2.162387
3.463000,-2.359676
3.464000,-2.353312
3.465000,-2.229847
3.466000,-2.189117
3.467000,-2.114020
3.468000,-2.131839
3.469000,-2.116565
3.470000,-1.119939
3.471000,-0.430065
3.472000,-0.195865
3.473000,-0.339695
3.474000,-0.277326
3.475000,0.118524
3.476000,0.491463
3.477000,-0.058399
3.478000,-0.865373
3.479000,-1.603615
3.480000,-2.205663
3.481000,-2.704613
3.482000,-2.495869
3.483000,-2.439864
3.484000,-2.497141
3.485000,-2.531508
3.486000,-2.094927
3.487000,-0.682086
3.488000,0.163073
3.489000,-0.133496
3.490000,-0.165317
3.491000,-0.026578
3.492000,-0.913741
3.493000,-2.152204
3.494000,-2.934995
3.495000,-3.488676
3.496000,-3.809429
3.497000,-3.632506
3.498000,-1.948552
3.499000,-1.343957
3.500000,-1.310864
3.501000,-1.228130
3.502000,-1.550156
3.503000,-1.985464
3.504000,-2.257849
3.505000,-1.757627
3.506000,-1.785629
3.507000,-2.170024
3.508000,-2.348220
3.509000,-2.344402
3.510000,-2.416953
3.511000,-2.084744
3.512000,-1.956189
3.513000,-1.776720
3.514000,-1.776720
3.515000,-1.835270
3.516000,-1.826360
3.517000,-1.795812
3.518000,-1.641800
3.519000,-1.519608
3.520000,-1.154306
3.521000,-0.955744
3.522000,-0.894648
3.523000,-0.898467
3.524000,-1.072845
3.525000,-1.242131
3.526000,-1.263769
3.527000,-1.122485
3.528000,-0.920105
3.529000,-0.368970
3.530000,-0.038034
3.531000,-0.195865
3.532000,-0.304055
3.533000,-0.660448
3.534000,-0.363878
3.535000,-0.297691
3.536000,-0.898467
3.537000,-1.657074
3.538000,-2.283306
3.539000,-2.452592
3.540000,-2.446228
3.541000,-2.416953
3.542000,-2.388951
3.543000,-1.804722
3.544000,-1.399962
3.545000,-1.188672
3.546000,-0.754637
3.547000,-0.323148
3.548000,0.308176
3.549000,0.155436
3.550000,-0.451704
3.551000,-1.133940
3.552000,-1.175944
3.553000,-1.730898
3.554000,-2.349493
3.555000,-2.737706
3.556000,-2.558237
3.557000,-2.493323
3.558000,-2.497141
3.559000,-1.975281
3.560000,-1.589614
3.561000,-1.785629
3.562000,-1.920549
3.563000,-1.974008
3.564000,-2.111474
3.565000,-2.204390
3.566000,-2.332946
3.567000,-2.270578
3.568000,-2.287124
3.569000,-2.229847
3.570000,-2.158569
3.571000,-1.659619
3.572000,-0.785185
3.573000,-0.445339
3.574000,-0.463159
3.575000,-0.707542
3.576000,-0.898467
3.577000,-1.035933
3.578000,-0.817006
3.579000,0.418912
3.580000,0.501646
3.581000,0.934408
3.582000,0.777850
3.583000,-0.208593
3.584000,-1.193763
3.585000,-2.030013
3.586000,-2.990999
3.587000,-3.683419
3.588000,-3.848887
3.589000,-3.769971
3.590000,-3.633779
3.591000,-3.475948
3.592000,-3.353756
3.593000,-3.048277
3.594000,-2.665155
3.595000,-2.380041
3.596000,-2.119111
3.597000,-1.525972
3.598000,-0.913741
3.599000,-0.749546
3.600000,-0.775002
3.601000,-0.675722
3.602000,0.415094
3.603000,0.630202
3.604000,0.822399
3.605000,1.034962
3.606000,0.513102
3.607000,-0.312965
3.608000,-1.285407
3.609000,-2.094927
3.610000,-2.591331
3.611000,-3.015183
3.612000,-2.810258
3.613000,-2.271850
3.614000,-2.126748
3.615000,-2.187844
3.616000,-0.689723
3.617000,0.534740
3.618000,0.455824
3.619000,0.053610
3.620000,-0.599352
3.621000,-1.621434
3.622000,-2.848442
3.623000,-3.685965
3.624000,-4.074178
3.625000,-4.099634
3.626000,-3.581593
3.627000,-3.017729
3.628000,-2.578603
3.629000,-2.187844
3.630000,-1.800903
3.631000,-1.305773
3.632000,-0.935379
3.633000,-0.684631
3.634000,-0.512799
3.635000,-0.029124
3.636000,2.225058
3.637000,3.298054
3.638000,2.693459
3.639000,1.196611
3.640000,-0.379152
3.641000,-2.000738
3.642000,-3.183197
3.643000,-3.927802
3.644000,-4.086906
3.645000,-3.976170
3.646000,-3.591775
3.647000,-3.235383
3.648000,-2.612969
3.649000,-1.643072
3.650000,0.683661
3.651000,1.770658
3.652000,1.601371
3.653000,0.608564
3.654000,-0.690996
3.655000,-2.316400
3.656000,-3.890890
3.657000,-4.963886
3.658000,-5.319005
3.659000,-5.229907
3.660000,-4.739868
3.661000,-3.698693
3.662000,-2.380041
3.663000,-1.444511
3.664000,-1.081754
3.665000,-0.822097
3.666000,-0.614626
3.667000,-0.674449
3.668000,-0.698633
3.669000,-0.778821
3.670000,-1.141577
3.671000,-1.511971
3.672000,-1.584522
3.673000,-0.926469
3.674000,-0.445339
3.675000,-0.134769
3.676000,-0.057126
3.677000,-0.388062
3.678000,-0.866646
3.679000,-1.315955
3.680000,-1.748717
3.681000,-1.981645
3.682000,-2.026194
3.683000,-1.621434
3.684000,-0.438975
3.685000,-0.064763
3.686000,-0.268416
3.687000,-0.519164
3.688000,-1.053752
3.689000,-1.682530
3.690000,-2.157296
3.691000,-2.349493
3.692000,-2.297307
3.693000,-2.140749
3.694000,-2.003283
3.695000,-1.986737
3.696000,-1.924368
3.697000,-1.876000
3.698000,-1.886183
3.699000,-1.809813
3.700000,-1.786902
3.701000,-1.473786
3.702000,-0.643901
3.703000,-0.006213
3.704000,0.835128
3.705000,0.864403
3.706000,0.528375
3.707000,-0.274780
3.708000,-0.540802
3.709000,-0.648992
3.710000,-1.127576
3.711000,-1.784357
3.712000,-2.238757
3.713000,-2.248940
3.714000,-2.217119
3.715000,-2.283306
3.716000,-1.863272
3.717000,-1.808540
3.718000,-1.753809
3.719000,-2.042741
3.720000,-2.401679
3.721000,-2.667701
3.722000,-3.053368
3.723000,-3.076279
3.724000,-2.927358
3.725000,-2.726251
3.726000,-2.548055
3.727000,-2.395315
3.728000,-2.472958
3.729000,-2.593876
3.730000,-2.509870
3.731000,-2.354584
3.732000,-1.990555
3.733000,-1.448329
3.734000,-0.940470
3.735000,-0.941743
3.736000,-1.061389
3.737000,-1.032114
3.738000,-1.007930
3.739000,-1.061389
3.740000,-0.941743
3.741000,-0.785185
3.742000,-0.806823
3.743000,-0.948107
3.744000,-1.081754
3.745000,-0.997748
3.746000,-1.079209
3.747000,-1.149214
3.748000,-1.217947
3.749000,-1.385961
3.750000,-1.462331
3.751000,0.094340
3.752000,1.746474
3.753000,2.792740
3.754000,4.003201
3.755000,4.103755
3.756000,3.641718
3.757000,2.222512
3.758000,0.255990
3.759000,-1.734716
3.760000,-3.425034
3.761000,-5.161175
3.762000,-6.220169
3.763000,-6.826036
3.764000,-6.773850
3.765000,-6.558742
3.766000,-6.264718
3.767000,-5.601574
3.768000,-4.807328
3.769000,-4.179823
3.770000,-3.660508
3.771000,-3.010092
3.772000,-2.506051
3.773000,-1.952370
3.774000,-1.551429
3.775000,-1.267588
3.776000,-1.186127
3.777000,-0.997748
3.778000,-0.750819
3.779000,-0.320602
3.780000,-0.202229
3.781000,-0.152589
3.782000,-0.110585
3.783000,-0.092766
3.784000,-0.335876
3.785000,-0.702451
3.786000,-1.044842
3.787000,-1.225584
3.788000,-1.305773
3.789000,-1.313410
3.790000,-1.286680
3.791000,-1.220493
3.792000,-1.212856
3.793000,-1.220493
3.794000,-1.221766
3.795000,-1.275225
3.796000,-1.010476
3.797000,-0.767365
3.798000,-0.606989
3.799000,-0.747000
3.800000,-0.951926
3.801000,-1.098301
3.802000,-1.229403
3.803000,-1.335048
3.804000,-1.407599
3.805000,-1.452148
3.806000,-1.324865
3.807000,-1.234494
3.808000,-0.819551
3.809000,-0.264598
3.810000,0.588198
3.811000,1.197884
3.812000,1.749019
3.813000,2.956935
3.814000,4.696894
3.815000,4.355775
3.816000,3.035851
3.817000,0.819854
3.818000,-1.948552
3.819000,-4.636769
3.820000,-6.787851
3.821000,-8.031406
3.822000,-8.479442
3.823000,-8.082319
3.824000,-7.365716
3.825000,-6.319450
3.826000,-5.344462
3.827000,-4.649497
3.828000,-3.739423
3.829000,-2.861171
3.830000,-2.292216
3.831000,-1.826360
3.832000,-1.513244
3.833000,-1.158124
3.834000,-0.890830
3.835000,-0.873010
3.836000,-0.841190
3.837000,-0.759728
3.838000,-0.343513
3.839000,-0.244232
3.840000,-0.220049
3.841000,0.105796
3.842000,0.052337
3.843000,-0.242959
3.844000,-0.483524
3.845000,-0.645174
3.846000,-0.811914
3.847000,-1.010476
3.848000,-1.091937
3.849000,-0.911195
3.850000,-0.888284
3.851000,-0.071127
3.852000,-0.091493
3.853000,-0.404609
3.854000,0.588198
3.855000,1.663740
3.856000,1.396446
3.857000,0.309449
3.858000,-1.002839
3.859000,-2.450047
3.860000,-3.525588
3.861000,-3.991444
3.862000,-4.366929
3.863000,-4.501849
3.864000,-4.065268
3.865000,-3.302843
3.866000,-2.607878
3.867000,-2.246394
3.868000,-2.014739
3.869000,-1.141577
3.870000,-0.232777
3.871000,0.660750
3.872000,0.888586
3.873000,0.627656
3.874000,0.016698
3.875000,-1.035933
3.876000,-2.175115
3.877000,-2.976998
3.878000,-3.408488
3.879000,-3.517951
3.880000,-3.372848
3.881000,-2.934995
3.882000,-2.437318
3.883000,-2.195481
3.884000,-1.837815
3.885000,-1.477605
3.886000,-1.114848
3.887000,-1.159397
3.888000,-1.212856
3.889000,-1.203946
3.890000,-1.215402
3.891000,-1.317228
3.892000,-1.346503
3.893000,-1.242131
3.894000,-1.201400
3.895000,-1.256132
3.896000,-1.225584
3.897000,-1.220493
3.898000,-0.505162
3.899000,0.264900
3.900000,0.715481
3.901000,0.894951
3.902000,0.378182
3.903000,-0.526801
3.904000,-1.342685
3.905000,-0.236595
3.906000,0.996777
3.907000,1.029871
3.908000,0.380727
3.909000,-0.741909
3.910000,-2.200572
3.911000,-3.839977
3.912000,-4.965159
3.913000,-5.149719
3.914000,-4.276558
3.915000,-3.716513
3.916000,-3.276113
3.917000,-2.885355
3.918000,-2.819167
3.919000,-2.728796
3.920000,-2.705886
3.921000,-2.791165
3.922000,-2.856079
3.923000,-2.290943
3.924000,-1.767810
3.925000,-1.565430
3.926000,-1.393598
3.927000,-1.346503
3.928000,-1.167034
3.929000,-0.556076
3.930000,-0.102948
3.931000,1.107513
3.932000,1.825389
3.933000,1.481725
3.934000,1.346805
3.935000,0.774032
3.936000,-0.114404
3.937000,-1.281589
3.938000,-2.079653
3.939000,-2.742798
3.940000,-3.426307
3.941000,-3.852705
3.942000,-3.939258
3.943000,-3.453037
3.944000,-3.089007
3.945000,-2.857352
3.946000,-2.741525
3.947000,-2.434773
3.948000,-2.074562
3.949000,-1.734716
3.950000,-1.243404
3.951000,-0.969745
3.952000,-0.899740
3.953000,-1.058844
3.954000,-1.209037
3.955000,-1.252314
3.956000,-1.102120
3.957000,-0.987565
3.958000,-1.066480
3.959000,-1.186127
3.960000,-1.251041
3.961000,-1.206492
3.962000,-1.221766
3.963000,-1.224311
3.964000,-1.234494
3.965000,-1.149214
3.966000,-1.173398
3.967000,-1.249768
3.968000,-1.225584
3.969000,-1.230676
3.970000,-0.819551
3.971000,-0.368970
3.972000,-0.130950
3.973000,0.723118
3.974000,1.061691
3.975000,1.228432
3.976000,0.441823
3.977000,-0.890830
3.978000,-2.173843
3.979000,-3.412306
3.980000,-4.090725
3.981000,-4.033447
3.982000,-3.282477
3.983000,-2.304944
3.984000,-1.128849
3.985000,-0.640082
3.986000,-0.309147
3.987000,-0.024033
3.988000,1.152062
3.989000,0.684934
3.990000,-0.087674
3.991000,-1.049934
3.992000,-2.438591
3.993000,-3.796701
3.994000,-4.900244
3.995000,-5.310096
3.996000,-5.223543
3.997000,-4.840421
3.998000,-4.149275
3.999000,-3.430126
4.000000,-2.684247
4.001000,-1.874728
4.002000,-1.133940
4.003000,-0.850099
4.004000,-0.510254
4.005000,-0.451704
4.006000,-0.545893
4.007000,-0.846281
4.008000,-1.149214
4.009000,-0.413519
4.010000,0.504192
4.011000,0.455824
4.012000,0.016698
4.013000,-0.561167
4.014000,-1.257405
4.015000,-1.989282
4.016000,-2.430954
4.017000,-2.335492
4.018000,-1.536155
4.019000,-1.408872
4.020000,-1.570521
4.021000,-1.496697
4.022000,-1.483969
4.023000,-1.960007
4.024000,-2.315127
4.025000,-2.470412
4.026000,-2.479322
4.027000,-1.668529
4.028000,-0.456795
4.029000,0.157982
4.030000,0.024335
4.031000,-0.508981
4.032000,-1.075390
4.033000,-1.649437
4.034000,-2.180207
4.035000,-2.572238
4.036000,-2.727524
4.037000,-2.727524
4.038000,-2.526416
4.039000,-2.243848
4.040000,-2.105110
4.041000,-1.744899
4.042000,-1.411417
4.043000,-1.234494
4.044000,-1.254859
4.045000,-1.223039
4.046000,-1.159397
4.047000,-0.763547
4.048000,-0.768638
4.049000,-0.606989
4.050000,0.061247
4.051000,0.137617
4.052000,-0.141133
4.053000,-0.610807
4.054000,-1.163216
4.055000,-1.873455
4.056000,-2.466593
4.057000,-2.344402
4.058000,-1.436874
4.059000,-0.753364
4.060000,0.117251
4.061000,0.467280
4.062000,0.141435
4.063000,-0.771184
4.064000,-1.195036
4.065000,-1.697804
4.066000,-2.247667
4.067000,-2.915902
4.068000,-3.493767
4.069000,-3.680873
4.070000,-3.540862
4.071000,-3.285023
4.072000,-2.595149
4.073000,-1.867091
4.074000,-1.625253
4.075000,-1.128849
4.076000,-0.096584
4.077000,-0.012577
4.078000,-0.226413
4.079000,-0.789004
4.080000,-1.244677
4.081000,-1.867091
4.082000,-2.373677
4.083000,-2.586239
4.084000,-2.754253
4.085000,-2.894264
4.086000,-2.570966
4.087000,-1.672348
4.088000,-1.346503
4.089000,-1.565430
4.090000,-1.821269
4.091000,-1.946006
4.092000,-2.036377
4.093000,-1.601069
4.094000,-1.359231
4.095000,-0.833553
4.096000,-0.595533
4.097000,-0.818279
4.098000,-1.121212
4.099000,-1.323592
4.100000,-0.971018
4.101000,-0.068582
4.102000,0.752394
4.103000,1.061691
4.104000,0.735847
4.105000,-0.175499
4.106000,-1.195036
4.107000,-2.050378
4.108000,-2.856079
4.109000,-3.334664
4.110000,-3.482312
4.111000,-3.517951
4.112000,-3.458128
4.113000,-3.143739
4.114000,-2.828077
4.115000,-2.651154
4.116000,-2.232393
4.117000,-1.371960
4.118000,-1.032114
4.119000,-0.610807
4.120000,-0.171681
4.121000,-0.244232
4.122000,-0.166590
4.123000,-0.379152
4.124000,-0.666812
4.125000,-1.203946
4.126000,-1.697804
4.127000,-2.131839
4.128000,-2.429681
4.129000,-2.504778
4.130000,-2.550600
4.131000,-2.453865
4.132000,-2.229847
4.133000,-1.813632
4.134000,-1.595978
4.135000,-1.321046
4.136000,-1.210310
4.137000,-1.205219
4.138000,-0.395699
4.139000,0.308176
4.140000,0.250899
4.141000,0.387091
4.142000,0.830036
4.143000,0.561469
4.144000,0.984049
4.145000,0.369272
4.146000,-0.694814
4.147000,-1.663438
4.148000,-2.401679
4.149000,-3.217563
4.150000,-3.936712
4.151000,-4.200188
4.152000,-4.167094
4.153000,-3.892163
4.154000,-3.416125
4.155000,-3.022820
4.156000,-2.861171
4.157000,-2.568420
4.158000,-2.154750
4.159000,-1.854362
4.160000,-1.672348
4.161000,-1.650709
4.162000,-0.435157
4.163000,0.480008
4.164000,0.719300
4.165000,0.533467
4.166000,0.700208
4.167000,0.416366
4.168000,-0.479706
4.169000,-1.436874
4.170000,-2.142022
4.171000,-2.518780
4.172000,-2.446228
4.173000,-2.136931
4.174000,-1.784357
4.175000,-1.817450
4.176000,-2.107655
4.177000,-2.042741
4.178000,-2.126748
4.179000,-1.826360
4.180000,-1.028296
4.181000,-0.501344
4.182000,-0.418610
4.183000,-0.796641
4.184000,-1.415236
4.185000,-2.007102
4.186000,-2.352039
4.187000,-2.550600
4.188000,-2.559510
4.189000,-2.665155
4.190000,-2.569693
4.191000,-2.283306
4.192000,-2.031286
4.193000,-1.892547
4.194000,-1.729625
4.195000,-1.505607
4.196000,-1.324865
4.197000,-1.371960
4.198000,-0.752091
4.199000,-0.277326
4.200000,-0.414792
4.201000,-0.508981
4.202000,-0.081310
4.203000,0.126161
4.204000,0.681115
4.205000,0.561469
4.206000,-0.049489
4.207000,-0.831007
4.208000,-0.832280
4.209000,-1.053752
4.210000,-1.531063
4.211000,-2.136931
4.212000,-2.699521
4.213000,-3.125919
4.214000,-2.671519
4.215000,-2.313854
4.216000,-2.427136
4.217000,-2.671519
4.218000,-2.870081
4.219000,-2.890446
4.220000,-2.880263
4.221000,-2.828077
4.222000,-2.723705
4.223000,-2.668973
4.224000,-2.280760
4.225000,-1.766537
4.226000,-1.383415
4.227000,-1.217947
4.228000,-1.321046
4.229000,-1.370687
4.230000,-1.304500
4.231000,-1.191218
4.232000,-1.196309
4.233000,-1.097028
4.234000,-0.986292
4.235000,-0.972291
4.236000,-0.988838
4.237000,-0.789004
4.238000,0.183439
4.239000,0.897496
4.240000,2.139778
4.241000,2.267061
4.242000,1.611554
4.243000,1.178792
4.244000,0.031972
4.245000,-1.393598
4.246000,-2.657518
4.247000,-3.551045
4.248000,-3.580320
4.249000,-3.731786
4.250000,-3.772517
4.251000,-3.637597
4.252000,-3.240474
4.253000,-3.138648
4.254000,-2.915902
4.255000,-2.601513
4.256000,-2.325309
4.257000,-2.227301
4.258000,-1.867091
4.259000,-1.724534
4.260000,-1.627799
4.261000,-1.039751
4.262000,-0.202229
4.263000,-0.122041
4.264000,-0.582805
4.265000,-1.016840
4.266000,-1.351594
4.267000,-1.779265
4.268000,-1.491606
4.269000,-0.727908
4.270000,-0.750819
4.271000,-0.848827
4.272000,-0.055853
4.273000,0.219078
4.274000,-0.232777
4.275000,-1.006657
4.276000,-1.846725
4.277000,-2.696976
4.278000,-3.220109
4.279000,-3.771244
4.280000,-3.951986
4.281000,-3.869252
4.282000,-3.562500
4.283000,-3.110645
4.284000,-2.546782
4.285000,-2.074562
4.286000,-1.615070
4.287000,-1.352867
4.288000,-1.099574
4.289000,-1.154306
4.290000,-1.136486
4.291000,-1.043570
4.292000,-1.007930
4.293000,-0.951926
4.294000,-1.000293
4.295000,-0.898467
4.296000,-0.470796
4.297000,-0.170408
4.298000,-0.225140
4.299000,-0.466978
4.300000,-0.894648
4.301000,-1.375778
4.302000,-1.788175
4.303000,-1.674893
4.304000,-0.291327
4.305000,1.341714
4.306000,1.354442
4.307000,0.931863
4.308000,0.185984
4.309000,-0.831007
4.310000,-1.888729
4.311000,-2.863716
4.312000,-3.516678
4.313000,-3.506496
4.314000,-2.945178
4.315000,-1.902730
4.316000,-1.594705
4.317000,-1.627799
4.318000,-1.958734
4.319000,-2.425863
4.320000,-1.909094
4.321000,-1.495424
4.322000,-1.378324
4.323000,-1.223039
4.324000,-1.346503
4.325000,-0.888284
4.326000,-1.069026
4.327000,-1.379597
4.328000,-1.592159
4.329000,-1.943460
4.330000,-2.288397
4.331000,-2.581148
4.332000,-2.593876
4.333000,-2.700794
4.334000,-2.817895
4.335000,-2.681702
4.336000,-2.261668
4.337000,-1.956189
4.338000,-1.560339
4.339000,-1.520881
4.340000,-1.671075
4.341000,-1.188672
4.342000,-0.750819
4.343000,-0.478433
4.344000,-0.402063
4.345000,-0.554803
4.346000,-0.948107
4.347000,-0.307874
4.348000,0.184711
4.349000,-0.053308
4.350000,-0.842462
4.351000,-1.585795
4.352000,-2.156023
4.353000,-2.429681
4.354000,-2.534053
4.355000,-2.079653
4.356000,-2.074562
4.357000,-2.115292
4.358000,-1.878546
4.359000,-1.853089
4.360000,-2.191662
4.361000,-2.391497
4.362000,-2.436046
4.363000,-2.128021
4.364000,-1.762718
4.365000,-1.590886
4.366000,-1.424146
4.367000,-1.136486
4.368000,-1.108484
4.369000,-1.041024
4.370000,-0.161498
4.371000,0.844037
4.372000,2.674367
4.373000,4.297225
4.374000,5.136020
4.375000,3.757545
4.376000,1.570823
4.377000,-1.107211
4.378000,-3.581593
4.379000,-5.652487
4.380000,-6.733120
4.381000,-7.112423
4.382000,-6.745848
4.383000,-5.980877
4.384000,-5.205724
4.385000,-4.340199
4.386000,-3.796701
4.387000,-3.230291
4.388000,-2.707158
4.389000,-2.348220
4.390000,-2.026194
4.391000,-1.587068
4.392000,-1.215402
4.393000,-0.968473
4.394000,-0.750819
4.395000,-0.697360
4.396000,-0.646447
4.397000,-0.545893
4.398000,-0.418610
4.399000,-0.064763
4.400000,0.289083
4.401000,0.289083
4.402000,0.016698
4.403000,-0.483524
4.404000,-0.977382
4.405000,-1.279043
4.406000,-1.108484
4.407000,-1.230676
4.408000,-1.137759
4.409000,-1.335048
4.410000,-1.313410
4.411000,-1.133940
4.412000,-1.291771
4.413000,-1.515789
4.414000,-1.357959
4.415000,-1.257405
4.416000,-1.365596
4.417000,-1.464876
4.418000,-1.581977
4.419000,-1.780538
4.420000,-1.877273
4.421000,-1.937096
4.422000,-1.977827
4.423000,-2.051651
4.424000,-2.061834
4.425000,-1.780538
4.426000,-0.297691
4.427000,1.360806
4.428000,1.788477
4.429000,1.833026
4.430000,1.190247
4.431000,0.309449
4.432000,-0.024033
4.433000,-1.048661
4.434000,-2.312581
4.435000,-3.374121
4.436000,-3.948168
4.437000,-4.056358
4.438000,-4.192551
4.439000,-3.702511
4.440000,-3.353756
4.441000,-2.969361
4.442000,-2.410589
4.443000,-1.830178
4.444000,-1.514517
4.445000,-1.146669
4.446000,-1.270133
4.447000,-1.531063
4.448000,-1.832724
4.449000,-1.999465
4.450000,-2.149659
4.451000,-2.238757
4.452000,-2.340583
4.453000,-2.410589
4.454000,-2.329128
4.455000,-2.013466
4.456000,-1.688894
4.457000,-1.576885
4.458000,-1.570521
4.459000,-1.658346
4.460000,-1.574340
4.461000,-1.413963
4.462000,-1.145396
4.463000,-0.606989
4.464000,0.617474
4.465000,1.792296
4.466000,2.376525
4.467000,1.770658
4.468000,0.565288
4.469000,-0.792822
4.470000,-2.110201
4.471000,-3.143739
4.472000,-3.792882
4.473000,-3.971079
4.474000,-2.940086
4.475000,-1.422873
4.476000,-0.867919
4.477000,-0.969745
4.478000,-1.401235
4.479000,-1.223039
4.480000,0.161800
4.481000,0.557651
4.482000,0.352725
4.483000,-0.319329
4.484000,-1.492879
4.485000,-2.754253
4.486000,-3.661781
4.487000,-4.293105
4.488000,-4.671135
4.489000,-4.471301
4.490000,-4.057631
4.491000,-3.383031
4.492000,-2.722432
4.493000,-2.247667
4.494000,-2.022376
4.495000,-1.895093
4.496000,-1.548883
4.497000,-1.363050
4.498000,-0.965927
4.499000,-0.604443
4.500000,-0.326966
4.501000,-0.147497
4.502000,-0.119495
4.503000,0.094340
4.504000,-0.064763
4.505000,-0.472069
4.506000,-0.931561
4.507000,-1.402508
4.508000,-1.602342
4.509000,-1.769083
4.510000,-1.585795
4.511000,-1.525972
4.512000,-1.552702
4.513000,-1.506880
4.514000,-1.464876
4.515000,-1.588341
4.516000,-1.444511
4.517000,-0.892103
4.518000,-0.596806
4.519000,-0.797913
4.520000,-1.025750
4.521000,-1.384688
4.522000,-1.394871
4.523000,-1.099574
4.524000,-1.141577
4.525000,-0.716452
4.526000,-0.772457
4.527000,-0.160226
4.528000,0.599654
4.529000,0.697662
4.530000,0.118524
4.531000,-0.867919
4.532000,-1.868363
4.533000,-2.965543
4.534000,-3.883253
4.535000,-4.411478
4.536000,-4.403841
4.537000,-4.130182
4.538000,-3.329572
4.539000,-1.774174
4.540000,-0.194592
4.541000,0.192348
4.542000,-0.192046
4.543000,-0.662993
4.544000,-0.657902
4.545000,0.140162
4.546000,0.062520
4.547000,-0.521709
4.548000,-1.217947
4.549000,-2.055469
4.550000,-2.890446
4.551000,-3.675782
4.552000,-3.395759
4.553000,-3.164104
4.554000,-2.870081
4.555000,-2.355857
4.556000,-2.187844
4.557000,-2.371131
4.558000,-2.694430
4.559000,-2.675338
4.560000,-2.545509
4.561000,-2.329128
4.562000,-2.107655
4.563000,-1.881092
4.564000,-1.757627
4.565000,-1.653255
4.566000,-1.564157
4.567000,-1.393598
4.568000,-1.141577
4.569000,-0.573895
4.570000,-0.381698
4.571000,-0.068582
4.572000,0.756212
4.573000,1.074420
4.574000,1.507182
4.575000,1.150789
4.576000,0.364180
4.577000,-0.318056
4.578000,-0.454249
4.579000,-1.191218
4.580000,-2.012193
4.581000,-2.260395
4.582000,-2.671519
4.583000,-3.320662
4.584000,-3.627414
4.585000,-3.561227
4.586000,-3.156467
4.587000,-2.735161
4.588000,-1.994374
4.589000,-1.323592
4.590000,-1.235767
4.591000,-1.168307
4.592000,-1.267588
4.593000,-1.340139
4.594000,-1.611252
4.595000,-1.808540
4.596000,-2.088563
4.597000,-2.285852
4.598000,-2.485686
4.599000,-2.285852
4.600000,-1.238313
4.601000,-0.422429
4.602000,-0.147497
4.603000,-0.216230
4.604000,-0.427520
4.605000,-0.293873
4.606000,-0.435157
4.607000,-0.272235
4.608000,-0.067309
4.609000,-0.521709
4.610000,-1.189945
4.611000,-1.770355
4.612000,-2.182752
4.613000,-2.260395
4.614000,-2.038923
4.615000,-1.850544
4.616000,-1.850544
4.617000,-1.599796
4.618000,-0.747000
4.619000,-0.778821
4.620000,-0.497525
4.621000,-0.747000
4.622000,-1.335048
4.623000,-2.135658
4.624000,-2.808985
4.625000,-3.291387
4.626000,-3.736878
4.627000,-3.795428
4.628000,-3.584138
4.629000,-3.265931
4.630000,-2.766981
4.631000,-2.335492
4.632000,-2.162387
4.633000,-1.906548
4.634000,-1.719442
4.635000,-1.525972
4.636000,-1.197582
4.637000,-0.955744
4.638000,0.734574
4.639000,1.663740
4.640000,2.377797
4.641000,2.825834
4.642000,2.109230
4.643000,1.041326
4.644000,-0.559894
4.645000,-2.052924
4.646000,-3.027911
4.647000,-3.964714
4.648000,-4.300741
4.649000,-3.198471
4.650000,-2.556964
4.651000,-2.027467
4.652000,-1.774174
4.653000,-2.097473
4.654000,-2.686793
4.655000,-2.955360
4.656000,-2.679156
4.657000,-2.745343
4.658000,-2.975725
4.659000,-2.932449
4.660000,-2.719887
4.661000,-2.344402
4.662000,-1.957461
4.663000,-0.834825
4.664000,-0.148770
4.665000,-0.092766
4.666000,-0.343513
4.667000,-0.553530
4.668000,-0.671903
4.669000,-1.007930
4.670000,-1.249768
4.671000,-1.104665
4.672000,-1.102120
4.673000,0.919134
4.674000,1.766839
4.675000,1.629373
4.676000,0.995504
4.677000,-0.200956
4.678000,-1.574340
4.679000,-2.858625
4.680000,-3.825976
4.681000,-4.244737
4.682000,-4.361837
4.683000,-4.041084
4.684000,-3.451764
4.685000,-2.983362
4.686000,-2.460229
4.687000,-1.611252
4.688000,-1.170853
4.689000,-0.388062
4.690000,0.212714
4.691000,0.832582
4.692000,0.924226
4.693000,0.654386
4.694000,-0.073673
4.695000,-1.279043
4.696000,-2.176388
4.697000,-2.717341
4.698000,-3.213745
4.699000,-3.403396
4.700000,-3.342301
4.701000,-2.960452
4.702000,-2.584967
4.703000,-2.306217
4.704000,-1.949824
4.705000,-1.705441
4.706000,-1.505607
4.707000,-1.402508
4.708000,-1.385961
4.709000,-1.492879
4.710000,-1.483969
4.711000,-1.364323
4.712000,-1.347776
4.713000,-1.413963
4.714000,-0.165317
4.715000,1.312439
4.716000,2.138505
4.717000,1.440995
4.718000,0.445642
4.719000,-0.741909
4.720000,-1.747445
4.721000,-2.745343
4.722000,-3.305388
4.723000,-3.497586
4.724000,-3.349937
4.725000,-2.651154
4.726000,-1.561611
4.727000,-0.316784
4.728000,0.239443
4.729000,0.014152
4.730000,-0.605716
4.731000,-1.489060
4.732000,-2.511143
4.733000,-3.291387
4.734000,-3.520497
4.735000,-3.150103
4.736000,-2.903174
4.737000,-1.865818
4.738000,-1.025750
4.739000,-0.836098
4.740000,-0.791549
4.741000,-0.795368
4.742000,-1.046115
4.743000,-1.483969
4.744000,-2.065652
4.745000,-2.441137
4.746000,-2.681702
4.747000,-2.811530
4.748000,-2.689339
4.749000,-2.055469
4.750000,-1.019386
4.751000,0.054883
4.752000,0.586926
4.753000,0.674751
4.754000,0.119797
4.755000,-0.689723
4.756000,-1.597251
4.757000,-2.495869
4.758000,-3.131011
4.759000,-3.304116
4.760000,-3.339755
4.761000,-3.136102
4.762000,-2.019830
4.763000,-0.209866
4.764000,0.286538
4.765000,0.005242
4.766000,-0.482252
4.767000,-1.052479
4.768000,-1.608706
4.769000,-1.906548
4.770000,-2.064379
4.771000,-1.491606
4.772000,-1.315955
4.773000,-1.545065
4.774000,-1.847998
4.775000,-1.990555
4.776000,-2.096200
4.777000,-2.349493
4.778000,-2.446228
4.779000,-2.404225
4.780000,-2.302398
4.781000,-1.988009
4.782000,-1.553974
4.783000,-1.215402
4.784000,-1.125031
4.785000,-1.067753
4.786000,-0.246778
4.787000,0.495282
4.788000,1.136788
4.789000,2.088865
4.790000,1.726109
4.791000,1.129151
4.792000,-0.176772
4.793000,-1.772901
4.794000,-2.948996
4.795000,-3.864161
4.796000,-4.365656
4.797000,-4.280376
4.798000,-3.865434
4.799000,-3.477220
4.800000,-2.965543
4.801000,-2.682975
4.802000,-2.061834
4.803000,-1.083027
4.804000,-0.489889
4.805000,-0.012577
4.806000,0.320904
4.807000,0.656931
4.808000,0.275082
4.809000,-0.472069
4.810000,-1.286680
4.811000,-2.038923
4.812000,-2.493323
4.813000,-2.699521
4.814000,-2.713522
4.815000,-2.528962
4.816000,-2.355857
4.817000,-1.559066
4.818000,0.300539
4.819000,2.228876
4.820000,2.824561
4.821000,2.483442
4.822000,1.117696
4.823000,0.000151
4.824000,-1.583249
4.825000,-3.311753
4.826000,-4.546398
4.827000,-5.215906
4.828000,-5.493383
4.829000,-5.567207
4.830000,-5.122990
4.831000,-4.392385
4.832000,-3.878162
4.833000,-3.603231
4.834000,-3.052095
4.835000,-2.313854
4.836000,0.357816
4.837000,1.592461
4.838000,1.643375
4.839000,1.078238
4.840000,0.003970
4.841000,-1.181035
4.842000,-2.265486
4.843000,-3.003728
4.844000,-3.433944
4.845000,-3.423762
4.846000,-3.201016
4.847000,-2.843351
4.848000,-2.240030
4.849000,-1.595978
4.850000,-1.158124
4.851000,-0.871737
4.852000,-0.749546
4.853000,-0.599352
4.854000,-0.552257
4.855000,-0.618444
4.856000,-0.740636
4.857000,-0.782639
4.858000,-0.740636
4.859000,-0.780094
4.860000,-0.654084
4.861000,-0.120768
4.862000,-0.062218
4.863000,-0.323148
4.864000,-0.699905
4.865000,-0.837371
4.866000,-0.657902
4.867000,-0.731726
4.868000,-1.020659
4.869000,-1.102120
4.870000,-0.964654
4.871000,-1.224311
4.872000,-1.453421
4.873000,-1.775447
4.874000,-2.091109
4.875000,-2.395315
4.876000,-2.526416
4.877000,-2.550600
4.878000,-2.182752
4.879000,-0.828461
4.880000,0.477462
4.881000,0.842764
4.882000,1.143152
4.883000,0.586926
4.884000,-0.297691
4.885000,-0.913741
4.886000,-1.902730
4.887000,-2.691884
4.888000,-2.472958
4.889000,-1.859454
4.890000,-2.098746
4.891000,-2.525144
4.892000,-2.885355
4.893000,-3.199744
4.894000,-3.674509
4.895000,-3.960896
4.896000,-3.898527
4.897000,-3.473402
4.898000,-3.021547
4.899000,-2.150932
4.900000,-1.009203
4.901000,-0.328239
4.902000,0.362908
4.903000,0.401092
4.904000,-0.249324
4.905000,-1.228130
4.906000,-2.096200
4.907000,-2.746616
4.908000,-3.011365
4.909000,-3.143739
4.910000,-2.954087
4.911000,-2.756799
4.912000,-2.168751
4.913000,-1.629071
4.914000,-1.548883
4.915000,-1.463603
4.916000,-1.331229
4.917000,-1.224311
4.918000,-1.039751
4.919000,-0.917559
4.920000,-1.169580
4.921000,-1.473786
4.922000,-1.427964
4.923000,-1.201400
4.924000,-0.843735
4.925000,-0.870465
4.926000,-1.072845
4.927000,-1.160670
4.928000,-1.183581
4.929000,-0.544620
4.930000,-0.234050
4.931000,-0.248051
4.932000,-0.413519
4.933000,-0.832280
4.934000,-1.338866
4.935000,-1.832724
4.936000,-1.662165
4.937000,-0.323148
4.938000,0.294175
4.939000,0.756212
4.940000,0.707845
4.941000,0.459643
4.942000,-0.197138
4.943000,-1.153033
4.944000,-1.967644
4.945000,-1.832724
4.946000,-2.470412
4.947000,-3.201016
4.948000,-3.272295
4.949000,-3.511587
4.950000,-3.637597
4.951000,-3.838704
4.952000,-3.565046
4.953000,-3.418670
4.954000,-3.145012
4.955000,-2.838260
4.956000,-2.471685
4.957000,-2.105110
4.958000,-1.963826
4.959000,-1.748717
4.960000,-0.436430
4.961000,0.133798
4.962000,-0.002395
4.963000,-0.066036
4.964000,-0.526801
4.965000,-1.063935
4.966000,-1.262496
4.967000,-1.267588
4.968000,-0.874283
4.969000,-0.795368
4.970000,-1.229403
4.971000,-1.901457
4.972000,-2.587512
4.973000,-2.845897
4.974000,-2.973180
4.975000,-2.840805
4.976000,-2.644790
4.977000,-2.371131
4.978000,-1.925641
4.979000,-1.649437
4.980000,-1.247222
4.981000,-0.502617
4.982000,1.247524
4.983000,2.640000
4.984000,2.585269
4.985000,1.609008
4.986000,0.104523
4.987000,-1.595978
4.988000,-2.889173
4.989000,-3.706330
4.990000,-4.038539
4.991000,-4.047448
4.992000,-3.628687
4.993000,-2.942632
4.994000,-2.494596
4.995000,-2.341856
4.996000,-2.280760
4.997000,-2.199299
4.998000,-1.837815
4.999000,-1.271406
5.000000,-0.908650
5.001000,-0.861555
5.002000,-0.932833
5.003000,-1.161943
5.004000,-1.296863
5.005000,-1.091937
5.006000,-1.077936
5.007000,-0.939197
5.008000,-0.115676
5.009000,0.131253
5.010000,-0.113131
5.011000,0.217805
5.012000,0.009061
5.013000,-0.634991
5.014000,-1.378324
5.015000,-2.018557
5.016000,-2.470412
5.017000,-2.740252
5.018000,-2.801348
5.019000,-2.699521
5.020000,-2.554419
5.021000,-2.262941
5.022000,-1.956189
5.023000,-1.710532
5.024000,-1.533609
5.025000,-1.234494
5.026000,-1.198855
5.027000,-1.374505
5.028000,-1.663438
5.029000,-1.794539
5.030000,-2.003283
5.031000,-2.199299
5.032000,-2.063106
5.033000,-1.424146
5.034000,-0.480979
5.035000,0.151618
5.036000,1.210612
5.037000,2.203420
5.038000,1.616645
5.039000,1.624282
5.040000,2.214875
5.041000,3.937014
5.042000,3.053670
5.043000,1.023506
5.044000,-1.322319
5.045000,-3.801792
5.046000,-5.876505
5.047000,-7.308439
5.048000,-7.756475
5.049000,-7.501909
5.050000,-6.684752
5.051000,-5.125535
5.052000,-4.065268
5.053000,-3.535771
5.054000,-3.301570
5.055000,-2.894264
5.056000,-2.582421
5.057000,-2.377495
5.058000,-2.129294
5.059000,-1.774174
5.060000,-1.438147
5.061000,-1.104665
5.062000,-0.820824
5.063000,-0.796641
5.064000,-0.570077
5.065000,-0.109312
5.066000,0.122343
5.067000,0.098159
5.068000,-0.142406
5.069000,-0.421156
5.070000,-0.267143
5.071000,-0.458068
5.072000,-0.734272
5.073000,-0.755910
5.074000,-0.587896
5.075000,0.598381
5.076000,0.669660
5.077000,0.179620
5.078000,-0.494980
5.079000,-1.174671
5.080000,-1.724534
5.081000,-2.313854
5.082000,-2.974453
5.083000,-3.379213
5.084000,-3.385577
5.085000,-3.142466
5.086000,-2.702067
5.087000,-2.433500
5.088000,-2.192935
5.089000,-1.961280
5.090000,-1.657074
5.091000,-1.425419
5.092000,-1.254859
5.093000,-1.010476
5.094000,-0.926469
5.095000,-0.902285
5.096000,-0.846281
5.097000,-0.517891
5.098000,-0.055853
5.099000,1.295892
5.100000,2.092684
5.101000,1.643375
5.102000,1.341714
5.103000,0.343815
5.104000,-1.097028
5.105000,-2.341856
5.106000,-3.123374
5.107000,-3.671963
5.108000,-3.790337
5.109000,-2.794984
5.110000,-1.891274
5.111000,-1.287953
5.112000,-1.392325
5.113000,-1.892547
5.114000,-2.535326
5.115000,-3.236656
5.116000,-3.680873
5.117000,-3.223927
5.118000,-2.835714
5.119000,-2.453865
5.120000,-2.283306
5.121000,-1.860726
5.122000,-0.767365
5.123000,-0.398245
5.124000,-0.231504
5.125000,0.271264
5.126000,0.508010
5.127000,0.119797
5.128000,-0.192046
5.129000,-0.776275
5.130000,-1.830178
5.131000,-2.754253
5.132000,-3.245565
5.133000,-3.379213
5.134000,-3.188288
5.135000,-2.768254
5.136000,-2.577330
5.137000,-1.984191
5.138000,-1.046115
5.139000,-0.422429
5.140000,-0.662993
5.141000,-1.093210
5.142000,-1.548883
5.143000,-1.397416
5.144000,-1.350322
5.145000,-1.363050
5.146000,-1.396143
5.147000,-1.734716
5.148000,-1.958734
5.149000,-2.009648
5.150000,-2.181480
5.151000,-2.327855
5.152000,-1.405053
5.153000,-0.332058
5.154000,-0.363878
5.155000,-0.692268
5.156000,-1.301954
5.157000,-1.947279
5.158000,-2.396588
5.159000,-2.425863
5.160000,-1.430510
5.161000,-1.085573
5.162000,-1.063935
5.163000,-1.095756
5.164000,-1.173398
5.165000,-1.575612
5.166000,-2.181480
5.167000,-2.495869
5.168000,-2.534053
5.169000,-2.315127
5.170000,-2.008375
5.171000,-1.655801
5.172000,-1.573067
5.173000,-1.412690
5.174000,-0.352423
5.175000,0.705299
5.176000,1.726109
5.177000,2.713825
5.178000,2.022678
5.179000,0.898769
5.180000,-0.354969
5.181000,-1.791994
5.182000,-3.231564
5.183000,-4.179823
5.184000,-4.541306
5.185000,-4.561672
5.186000,-4.442026
5.187000,-4.047448
5.188000,-3.582865
5.189000,-3.146285
5.190000,-2.190389
5.191000,-1.450875
5.192000,-1.004112
5.193000,-0.922651
5.194000,-0.405882
5.195000,0.529648
5.196000,0.766395
5.197000,0.541104
5.198000,0.508010
5.199000,-0.174227
5.200000,-0.939197
5.201000,-1.634163
5.202000,-2.196754
5.203000,-2.652427
5.204000,-2.945178
5.205000,-3.039367
5.206000,-3.119555
5.207000,-2.909538
5.208000,-2.170024
5.209000,-0.841190
5.210000,1.099876
5.211000,2.682004
5.212000,2.039225
5.213000,0.732028
5.214000,-0.852645
5.215000,-2.176388
5.216000,-3.260839
5.217000,-3.963442
5.218000,-4.163276
5.219000,-4.044903
5.220000,-3.682146
5.221000,-3.241747
5.222000,-2.957906
5.223000,-2.732615
5.224000,-2.472958
5.225000,-1.915458
5.226000,-0.888284
5.227000,0.308176
5.228000,0.504192
5.229000,0.175802
5.230000,0.224169
5.231000,-0.129678
5.232000,-0.780094
5.233000,-1.424146
5.234000,-1.802176
5.235000,-2.190389
5.236000,-2.479322
5.237000,-2.388951
5.238000,-2.231120
5.239000,-2.092381
5.240000,-2.021103
5.241000,-1.975281
5.242000,-1.627799
5.243000,-1.492879
5.244000,-1.416509
5.245000,-1.449602
5.246000,-1.352867
5.247000,-0.949380
5.248000,-0.763547
5.249000,-0.982474
5.250000,-1.272679
5.251000,-1.520881
5.252000,-1.412690
5.253000,-1.240858
5.254000,-1.183581
5.255000,-0.799186
5.256000,0.007788
5.257000,0.053610
5.258000,-0.083856
5.259000,-0.242959
5.260000,-0.831007
5.261000,-1.019386
5.262000,-0.626081
5.263000,-1.080482
5.264000,-1.637981
5.265000,-1.976554
5.266000,-2.409316
5.267000,-2.810258
5.268000,-3.108100
5.269000,-3.160286
5.270000,-2.418226
5.271000,-1.873455
5.272000,-1.644345
5.273000,-1.569248
5.274000,-1.728352
5.275000,-1.686349
5.276000,-2.021103
5.277000,-2.227301
5.278000,-2.120384
5.279000,-1.066480
5.280000,-0.377879
5.281000,-0.452976
5.282000,-0.986292
5.283000,-1.601069
5.284000,-1.996919
5.285000,-2.097473
5.286000,-1.228130
5.287000,-0.776275
5.288000,-0.963381
5.289000,-1.252314
5.290000,-1.681257
5.291000,-2.092381
5.292000,-2.472958
5.293000,-2.676610
5.294000,-2.667701
5.295000,-2.176388
5.296000,-1.688894
5.297000,-0.976110
5.298000,0.124888
5.299000,0.410002
5.300000,0.196167
5.301000,-0.144952
5.302000,-0.665539
5.303000,-1.243404
5.304000,-2.089836
5.305000,-2.941359
5.306000,-3.519224
5.307000,-3.790337
5.308000,-3.822157
5.309000,-3.593048
5.310000,-2.900628
5.311000,-2.332946
5.312000,-1.626526
5.313000,-1.188672
5.314000,-0.902285
5.315000,-0.839917
5.316000,-1.056298
5.317000,-0.539529
5.318000,-0.105494
5.319000,-0.153861
5.320000,-0.320602
5.321000,-0.671903
5.322000,-1.254859
5.323000,-1.812359
5.324000,-2.100018
5.325000,-2.148386
5.326000,-1.284134
5.327000,-0.839917
5.328000,-0.771184
5.329000,-0.819551
5.330000,-1.024477
5.331000,-0.699905
5.332000,-0.129678
5.333000,-0.133496
5.334000,-0.212412
5.335000,0.039609
5.336000,-0.586624
5.337000,-1.546337
5.338000,-1.483969
5.339000,-1.597251
5.340000,-2.299853
5.341000,-3.036821
5.342000,-3.568864
5.343000,-3.820885
5.344000,-3.749606
5.345000,-3.402124
5.346000,-3.104281
5.347000,-2.936268
5.348000,-2.661336
5.349000,-2.218392
5.350000,-1.807268
5.351000,-1.509425
5.352000,-1.462331
5.353000,-1.290499
5.354000,-1.080482
5.355000,-1.083027
5.356000,-1.081754
5.357000,-0.950653
5.358000,-0.903558
5.359000,-0.991384
5.360000,-1.173398
5.361000,-1.049934
5.362000,-0.939197
5.363000,-0.874283
5.364000,-0.922651
5.365000,-0.906104
5.366000,-0.954471
5.367000,0.424003
5.368000,2.968391
5.369000,3.357877
5.370000,2.153779
5.371000,0.673478
5.372000,-0.594261
5.373000,-2.144567
5.374000,-3.352483
5.375000,-3.045731
5.376000,-2.878990
5.377000,-3.141193
5.378000,-3.306661
5.379000,-3.428853
5.380000,-3.218836
5.381000,-2.532781
5.382000,-2.394042
5.383000,-1.644345
5.384000,-1.548883
5.385000,-1.863272
5.386000,-2.269305
5.387000,-2.649881
5.388000,-3.022820
5.389000,-3.357574
5.390000,-3.430126
5.391000,-3.223927
5.392000,-2.881536
5.393000,-2.406770
5.394000,-1.874728
5.395000,-1.385961
5.396000,-1.011749
5.397000,0.119797
5.398000,0.319631
5.399000,-0.068582
5.400000,-0.587896
5.401000,-1.123758
5.402000,-1.537428
5.403000,-1.758900
5.404000,-1.809813
5.405000,-1.175944
5.406000,-1.075390
5.407000,-1.112302
5.408000,-1.174671
5.409000,-1.434328
5.410000,-1.794539
5.411000,-1.924368
5.412000,-1.775447
5.413000,-1.193763
5.414000,-0.958290
5.415000,-1.071572
5.416000,-1.155579
5.417000,-1.300681
5.418000,-1.478877
5.419000,-1.621434
5.420000,-1.730898
5.421000,-1.663438
5.422000,-1.058844
5.423000,-0.887011
5.424000,-0.925196
5.425000,-1.066480
5.426000,-1.182308
5.427000,-1.368141
5.428000,-1.524699
5.429000,-1.130122
5.430000,-0.772457
5.431000,-0.786458
5.432000,-0.847554
5.433000,-1.107211
5.434000,-1.298136
5.435000,-0.813187
5.436000,-0.626081
5.437000,-0.775002
5.438000,-1.130122
5.439000,-1.191218
5.440000,-1.728352
5.441000,-1.823814
5.442000,-1.191218
5.443000,-1.053752
5.444000,-1.458512
5.445000,-1.933278
5.446000,-1.672348
5.447000,-1.238313
5.448000,-1.803449
5.449000,-2.409316
5.450000,-2.710977
5.451000,-2.820440
5.452000,-2.492050
5.453000,-1.424146
5.454000,-1.289226
5.455000,-1.522154
5.456000,-1.928186
5.457000,-2.008375
5.458000,-2.335492
5.459000,-2.604059
5.460000,-2.722432
5.461000,-2.974453
5.462000,-2.698249
5.463000,-1.299408
5.464000,0.017971
5.465000,0.047246
5.466000,-0.371515
5.467000,-1.271406
5.468000,-1.935823
5.469000,-2.276942
5.470000,-2.260395
5.471000,-2.434773
5.472000,-2.493323
5.473000,-2.369858
5.474000,-2.348220
5.475000,-1.715624
5.476000,-1.419054
5.477000,-0.479706
5.478000,-0.166590
5.479000,-0.181864
5.480000,-0.433884
5.481000,-0.730453
5.482000,-0.391881
5.483000,-0.575168
5.484000,-1.146669
5.485000,-1.585795
5.486000,-1.779265
5.487000,-1.770355
5.488000,-1.890001
5.489000,-2.051651
5.490000,-2.343129
5.491000,-2.094927
5.492000,-1.041024
5.493000,0.266173
5.494000,0.761303
5.495000,0.333632
5.496000,-0.371515
5.497000,-1.014294
5.498000,-1.816177
5.499000,-2.661336
5.500000,-3.363939
5.501000,-3.890890
5.502000,-3.875616
5.503000,-3.389395
5.504000,-2.914630
5.505000,-2.380041
5.506000,-1.161943
5.507000,-0.862828
5.508000,-0.901013
5.509000,-1.145396
5.510000,-1.182308
5.511000,-1.401235
5.512000,-1.473786
5.513000,-1.566703
5.514000,-1.846725
5.515000,-1.938369
5.516000,-1.906548
5.517000,-1.739808
5.518000,-1.511971
5.519000,-1.562884
5.520000,-1.579431
5.521000,-1.360504
5.522000,-1.175944
5.523000,-1.219220
5.524000,-1.266315
5.525000,-1.387234
5.526000,-0.755910
5.527000,-0.497525
5.528000,-0.524255
5.529000,0.047246
5.530000,-0.035488
5.531000,-0.502617
5.532000,-1.035933
5.533000,-1.579431
5.534000,-1.996919
5.535000,-2.222210
5.536000,-2.201845
5.537000,-1.753809
5.538000,-1.505607
5.539000,-1.453421
5.540000,-1.519608
5.541000,-1.430510
5.542000,-1.392325
5.543000,-1.389779
5.544000,0.916589
5.545000,2.890748
5.546000,2.843653
5.547000,1.843209
5.548000,0.301812
5.549000,-1.385961
5.550000,-3.072461
5.551000,-4.456027
5.552000,-5.220998
5.553000,-5.399194
5.554000,-5.024982
5.555000,-4.253647
5.556000,-3.400851
5.557000,-2.492050
5.558000,-1.995646
5.559000,-1.833997
5.560000,-1.756354
5.561000,-1.329956
5.562000,-1.182308
5.563000,0.099432
5.564000,0.877131
5.565000,1.102422
5.566000,0.472371
5.567000,-0.404609
5.568000,-1.499243
5.569000,-2.495869
5.570000,-3.083916
5.571000,-3.405942
5.572000,-3.529407
5.573000,-3.431399
5.574000,-3.044458
5.575000,-2.675338
5.576000,-2.469139
5.577000,-2.410589
5.578000,-2.350766
5.579000,-1.897638
5.580000,-0.939197
5.581000,-0.389335
5.582000,-0.408427
5.583000,-0.661721
5.584000,0.015425
5.585000,0.059974
5.586000,0.150345
5.587000,0.303085
5.588000,-0.181864
5.589000,-0.456795
5.590000,-0.365151
5.591000,-0.860282
5.592000,-1.634163
5.593000,-2.265486
5.594000,-2.696976
5.595000,-2.698249
5.596000,-2.052924
5.597000,-0.940470
5.598000,0.357816
5.599000,0.369272
5.600000,-0.208593
5.601000,-1.117394
5.602000,-2.108928
5.603000,-3.095371
5.604000,-3.721604
5.605000,-3.878162
5.606000,-3.827249
5.607000,-3.477220
5.608000,-3.061005
5.609000,-2.420772
5.610000,-1.986737
5.611000,-1.585795
5.612000,-0.911195
5.613000,-0.697360
5.614000,-0.837371
5.615000,-0.690996
5.616000,-0.045671
5.617000,-0.110585
5.618000,-0.587896
5.619000,-1.009203
5.620000,-1.439420
5.621000,-1.845452
5.622000,-2.083472
5.623000,-2.107655
5.624000,-1.975281
5.625000,-1.971463
5.626000,-1.906548
5.627000,-1.849271
5.628000,-1.827633
5.629000,-1.766537
5.630000,-1.301954
5.631000,-0.995202
5.632000,-1.034660
5.633000,-1.142850
5.634000,-1.070299
5.635000,-1.033387
5.636000,-1.167034
5.637000,-1.243404
5.638000,-1.322319
5.639000,-1.464876
5.640000,-1.637981
5.641000,-1.861999
5.642000,-1.999465
5.643000,-2.044014
5.644000,-1.985464
5.645000,-1.751263
5.646000,-1.556520
5.647000,-1.242131
5.648000,-0.978655
5.649000,-0.823370
5.650000,-0.906104
5.651000,-0.605716
5.652000,-0.576441
5.653000,-0.500071
5.654000,-0.497525
5.655000,-0.845008
5.656000,-1.205219
5.657000,-1.539973
5.658000,-1.841634
5.659000,-2.153477
5.660000,-2.423317
5.661000,-2.331673
5.662000,-0.549712
5.663000,0.854220
5.664000,1.558095
5.665000,2.351068
5.666000,1.981947
5.667000,0.943318
5.668000,-0.064763
5.669000,-1.728352
5.670000,-2.863716
5.671000,-3.253202
5.672000,-3.702511
5.673000,-3.692329
5.674000,-3.409760
5.675000,-3.299024
5.676000,-3.777608
5.677000,-4.048721
5.678000,-4.137819
5.679000,-4.305833
5.680000,-4.206552
5.681000,-3.757243
5.682000,-3.353756
5.683000,-3.052095
5.684000,-2.709704
5.685000,-2.374950
5.686000,-1.990555
5.687000,-1.671075
5.688000,-1.461058
5.689000,-0.929015
5.690000,-0.441521
5.691000,-0.259506
5.692000,-0.203502
5.693000,-0.367697
5.694000,-0.707542
5.695000,-0.780094
5.696000,-0.712634
5.697000,-0.293873
5.698000,-0.179318
5.699000,-0.576441
5.700000,-1.043570
5.701000,-0.960836
5.702000,-0.899740
5.703000,-0.990111
5.704000,-1.256132
5.705000,-1.505607
5.706000,-1.663438
5.707000,-1.777992
5.708000,-1.744899
5.709000,-1.719442
5.710000,-1.287953
5.711000,-1.263769
5.712000,-1.366868
5.713000,-1.280316
5.714000,-1.196309
5.715000,-1.378324
5.716000,-1.326138
5.717000,-0.637537
5.718000,0.081612
5.719000,0.670932
5.720000,0.543649
5.721000,-0.055853
5.722000,-0.534438
5.723000,-0.500071
5.724000,-1.128849
5.725000,-1.948552
5.726000,-2.121657
5.727000,-2.178934
5.728000,-2.481867
5.729000,-2.200572
5.730000,-2.409316
5.731000,-2.733888
5.732000,-2.821713
5.733000,-2.933722
5.734000,-2.950269
5.735000,-2.934995
5.736000,-2.654972
5.737000,-2.072016
5.738000,-1.872182
5.739000,-1.793266
5.740000,-0.993929
5.741000,1.088421
5.742000,1.839390
5.743000,1.523729
5.744000,0.831309
5.745000,-0.442794
5.746000,-1.921822
5.747000,-3.180651
5.748000,-3.976170
5.749000,-4.313470
5.750000,-4.282922
5.751000,-4.043630
5.752000,-3.446673
5.753000,-2.467866
5.754000,-1.864545
5.755000,-1.583249
5.756000,-1.408872
5.757000,-1.268860
5.758000,-1.049934
5.759000,-1.028296
5.760000,-1.020659
5.761000,-1.173398
5.762000,-1.421600
5.763000,-1.279043
5.764000,-1.244677
5.765000,-1.261223
5.766000,-1.345230
5.767000,-1.531063
5.768000,-1.623980
5.769000,-1.757627
5.770000,-1.780538
5.771000,-1.613797
5.772000,-0.768638
5.773000,-0.002395
5.774000,0.058701
5.775000,-0.239141
5.776000,-0.248051
5.777000,1.318803
5.778000,1.440995
5.779000,0.752394
5.780000,-0.418610
5.781000,-1.709260
5.782000,-2.989727
5.783000,-4.100907
5.784000,-4.398749
5.785000,-4.340199
5.786000,-3.860342
5.787000,-3.206108
5.788000,-2.625697
5.789000,-2.472958
5.790000,-2.367313
5.791000,-2.268032
5.792000,-1.967644
5.793000,-1.798358
5.794000,-1.569248
5.795000,-1.294317
5.796000,-0.729181
5.797000,-0.618444
5.798000,-0.428793
5.799000,-0.414792
5.800000,-0.390608
5.801000,-0.618444
5.802000,-1.097028
5.803000,-1.550156
5.804000,-1.804722
5.805000,-1.976554
5.806000,-2.074562
5.807000,-2.018557
5.808000,-1.760173
5.809000,-1.542519
5.810000,-1.471240
5.811000,-1.492879
5.812000,-1.387234
5.813000,-1.189945
5.814000,-0.831007
5.815000,-0.447885
5.816000,-0.540802
5.817000,-0.710088
5.818000,-0.974837
5.819000,-1.220493
5.820000,-0.971018
5.821000,-0.934106
5.822000,-1.005385
5.823000,-1.145396
5.824000,-1.104665
5.825000,-1.136486
5.826000,-1.019386
5.827000,-1.130122
5.828000,-1.125031
5.829000,-0.692268
5.830000,-0.463159
5.831000,-0.841190
5.832000,-1.505607
5.833000,-1.748717
5.834000,-1.253586
5.835000,-1.341412
5.836000,-1.771628
5.837000,-2.346947
5.838000,-2.861171
5.839000,-2.989727
5.840000,-2.754253
5.841000,-1.933278
5.842000,-0.706270
5.843000,0.323450
5.844000,0.199985
5.845000,-0.213684
5.846000,-0.848827
5.847000,-1.825087
5.848000,-2.850988
5.849000,-3.430126
5.850000,-3.623596
5.851000,-3.344846
5.852000,-3.096644
5.853000,-2.606605
5.854000,-1.840361
5.855000,-1.744899
5.856000,-1.767810
5.857000,-1.500516
5.858000,-1.514517
5.859000,-1.627799
5.860000,-1.825087
5.861000,-2.013466
5.862000,-2.209482
5.863000,-2.345675
5.864000,-2.452592
5.865000,-2.494596
5.866000,-2.242575
5.867000,-1.877273
5.868000,-1.687622
5.869000,-1.515789
5.870000,-1.076663
5.871000,-0.068582
5.872000,0.740938
5.873000,1.511000
5.874000,1.934853
5.875000,1.204248
5.876000,0.262354
5.877000,0.281446
5.878000,-0.405882
5.879000,-1.051207
5.880000,-1.811086
5.881000,-2.418226
5.882000,-3.025366
5.883000,-3.535771
5.884000,-3.664326
5.885000,-3.705057
5.886000,-3.624869
5.887000,-3.041913
5.888000,-2.483140
5.889000,-2.158569
5.890000,-1.995646
5.891000,-2.005829
5.892000,-1.977827
5.893000,-1.651982
5.894000,-1.338866
5.895000,-1.214129
5.896000,-1.188672
5.897000,-1.175944
5.898000,-1.002839
5.899000,-0.940470
5.900000,-0.887011
5.901000,-0.931561
5.902000,-0.950653
5.903000,-0.963381
5.904000,-0.235323
5.905000,0.602200
5.906000,1.695561
5.907000,3.250959
5.908000,3.010394
5.909000,1.616645
5.910000,-0.382971
5.911000,-2.444955
5.912000,-3.867979
5.913000,-4.282922
5.914000,-4.470028
5.915000,-4.411478
5.916000,-4.266375
5.917000,-4.196369
5.918000,-4.010536
5.919000,-3.703784
5.920000,-3.374121
5.921000,-3.016456
5.922000,-2.531508
5.923000,-1.453421
5.924000,-0.119495
5.925000,0.869494
5.926000,1.437176
5.927000,1.033689
5.928000,0.180893
5.929000,-0.898467
5.930000,-1.552702
5.931000,-2.110201
5.932000,-2.474230
5.933000,-2.719887
5.934000,-2.763163
5.935000,-2.630789
5.936000,-2.493323
5.937000,-2.441137
5.938000,-2.388951
5.939000,-2.033831
5.940000,-1.396143
5.941000,-0.694814
5.942000,0.320904
5.943000,0.439277
5.944000,0.104523
5.945000,-0.248051
5.946000,-0.617172
5.947000,-1.154306
5.948000,-1.734716
5.949000,-2.055469
5.950000,-2.022376
5.951000,-1.995646
5.952000,-2.040195
5.953000,-2.105110
5.954000,-2.182752
5.955000,-2.167478
5.956000,-1.932005
5.957000,-1.403780
5.958000,-1.271406
5.959000,-1.336320
5.960000,-1.602342
5.961000,-1.677439
5.962000,-1.707987
5.963000,-1.695259
5.964000,-1.643072
5.965000,-1.593432
5.966000,-1.641800
5.967000,-1.743626
5.968000,-1.831451
5.969000,-1.696531
5.970000,-1.546337
5.971000,-1.368141
5.972000,-0.576441
5.973000,-0.226413
5.974000,-0.194592
5.975000,-0.231504
5.976000,-0.582805
5.977000,-1.186127
5.978000,-1.013022
5.979000,-0.094038
5.980000,0.052337
5.981000,0.234352
5.982000,-0.143679
5.983000,-0.981201
5.984000,-1.760173
5.985000,-2.567147
5.986000,-3.122101
5.987000,-3.348665
5.988000,-3.435217
5.989000,-3.229019
5.990000,-2.705886
5.991000,-1.972735
5.992000,-1.650709
5.993000,-0.945562
5.994000,-0.356241
5.995000,0.121070
5.996000,-0.418610
5.997000,-1.154306
5.998000,-1.926914
5.999000,-2.718614
6.000000,-3.179378
6.001000,-3.295206
6.002000,-3.052095
6.003000,-2.690612
6.004000,-2.395315
6.005000,-1.416509
6.006000,-0.895921
6.007000,-0.771184
6.008000,-0.832280
6.009000,-1.178490
6.010000,-1.312137
6.011000,-0.865373
6.012000,-0.711361
6.013000,-1.113575
6.014000,-1.472513
6.015000,-1.729625
6.016000,-1.777992
6.017000,-1.715624
6.018000,-1.814905
6.019000,-1.893820
6.020000,-1.982918
6.021000,-1.909094
6.022000,-1.649437
6.023000,-1.489060
6.024000,-0.580259
6.025000,0.315813
6.026000,0.338724
6.027000,0.252171
6.028000,-0.413519
6.029000,-1.361777
6.030000,-2.219664
6.031000,-2.682975
6.032000,-2.927358
6.033000,-2.959179
6.034000,-2.848442
6.035000,-2.614242
6.036000,-2.380041
6.037000,-2.203118
6.038000,-2.121657
6.039000,-2.108928
6.040000,-1.873455
6.041000,-0.866646
6.042000,0.780396
6.043000,1.993403
6.044000,2.384162
6.045000,2.624726
6.046000,3.869554
6.047000,2.904749
6.048000,0.849129
6.049000,-1.340139
6.050000,-3.444127
6.051000,-4.942248
6.052000,-5.732675
6.053000,-5.970694
6.054000,-5.684308
6.055000,-5.192995
6.056000,-4.737322
6.057000,-4.150548
6.058000,-3.447945
6.059000,-2.704613
6.060000,-2.265486
6.061000,-1.956189
6.062000,-1.585795
6.063000,-1.355413
6.064000,-1.252314
6.065000,-1.086846
6.066000,-0.909922
6.067000,-0.828461
6.068000,-0.799186
6.069000,-0.843735
6.070000,-0.836098
6.071000,-0.923924
6.072000,-1.021931
6.073000,-0.553530
6.074000,-0.496253
6.075000,-0.618444
6.076000,-0.637537
6.077000,-0.725362
6.078000,-0.291327
6.079000,-0.185682
6.080000,-0.505162
6.081000,-0.934106
6.082000,-1.253586
6.083000,-1.518335
6.084000,-1.800903
6.085000,-1.909094
6.086000,-1.259951
6.087000,-0.668085
6.088000,-0.520436
6.089000,-0.717725
6.090000,-1.102120
6.091000,-1.575612
6.092000,-2.059288
6.093000,-2.489504
6.094000,-2.432227
6.095000,-1.771628
6.096000,-1.772901
6.097000,-1.923095
6.098000,-2.083472
6.099000,-1.977827
6.100000,-0.976110
6.101000,-0.582805
6.102000,0.547468
6.103000,1.643375
6.104000,1.316257
6.105000,0.208895
6.106000,-0.651538
6.107000,-1.737262
6.108000,-2.987181
6.109000,-3.860342
6.110000,-4.200188
6.111000,-4.148002
6.112000,-4.001626
6.113000,-3.049550
6.114000,-2.261668
6.115000,-2.051651
6.116000,-2.227301
6.117000,-2.344402
6.118000,-1.849271
6.119000,-1.230676
6.120000,-1.100847
6.121000,-0.995202
6.122000,-1.126303
6.123000,-1.440693
6.124000,-1.840361
6.125000,-2.191662
6.126000,-2.352039
6.127000,-2.275669
6.128000,-2.248940
6.129000,-1.704168
6.130000,-0.943016
6.131000,-0.506435
6.132000,-0.720271
6.133000,-1.081754
6.134000,-1.333775
6.135000,-1.389779
6.136000,-0.752091
6.137000,-0.517891
6.138000,-0.679540
6.139000,-1.038478
6.140000,-0.936652
6.141000,-0.170408
6.142000,-0.106767
6.143000,-0.424974
6.144000,-0.869192
6.145000,-1.394871
6.146000,-1.822541
6.147000,-1.923095
6.148000,-2.168751
6.149000,-2.386405
6.150000,-2.632061
6.151000,-2.582421
6.152000,-1.929459
6.153000,-1.613797
6.154000,-1.478877
6.155000,-1.455966
6.156000,-1.350322
6.157000,-1.480150
6.158000,-1.693986
6.159000,-1.809813
6.160000,-1.654528
6.161000,-1.181035
6.162000,-1.042297
6.163000,-1.240858
6.164000,-1.449602
6.165000,-1.188672
6.166000,-0.539529
6.167000,-0.297691
6.168000,0.021789
6.169000,0.385819
6.170000,0.594563
6.171000,-0.268416
6.172000,-1.271406
6.173000,-2.063106
6.174000,-2.876445
6.175000,-3.478493
6.176000,-3.739423
6.177000,-3.959623
6.178000,-3.754697
6.179000,-3.431399
6.180000,-2.700794
6.181000,-2.014739
6.182000,-1.672348
6.183000,-1.438147
6.184000,-1.356686
6.185000,-1.723261
6.186000,-1.912912
6.187000,-1.252314
6.188000,-1.035933
6.189000,-0.977382
6.190000,-0.993929
6.191000,-1.202673
6.192000,-1.326138
6.193000,-1.421600
6.194000,-1.384688
6.195000,-0.554803
6.196000,-0.053308
6.197000,-0.192046
6.198000,-0.433884
6.199000,-0.841190
6.200000,-1.307045
6.201000,-1.895093
6.202000,-2.409316
6.203000,-2.572238
6.204000,-2.387678
6.205000,-2.100018
6.206000,-1.783084
6.207000,-1.623980
6.208000,-1.534882
6.209000,-1.028296
6.210000,-0.628627
6.211000,-0.071127
6.212000,0.869494
6.213000,0.790578
6.214000,-0.032943
6.215000,-1.100847
6.216000,-2.052924
6.217000,-2.707158
6.218000,-3.226473
6.219000,-3.520497
6.220000,-3.548499
6.221000,-3.260839
6.222000,-2.880263
6.223000,-2.329128
6.224000,-1.937096
6.225000,-1.639254
6.226000,-0.720271
6.227000,0.990413
6.228000,1.810115
6.229000,1.239887
6.230000,0.446914
6.231000,-0.561167
6.232000,-1.388506
6.233000,-1.495424
6.234000,-1.864545
6.235000,-2.293489
6.236000,-2.646063
6.237000,-2.904447
6.238000,-3.073733
6.239000,-3.127192
6.240000,-3.052095
6.241000,-2.985908
6.242000,-2.805166
6.243000,-2.382587
6.244000,-1.972735
6.245000,-1.473786
6.246000,-1.056298
6.247000,-0.334603
6.248000,0.776577
6.249000,1.597553
6.250000,1.216977
6.251000,0.320904
6.252000,-0.814460
6.253000,-2.052924
6.254000,-3.234110
6.255000,-3.907437
6.256000,-4.140365
6.257000,-3.971079
6.258000,-3.486130
6.259000,-3.011365
6.260000,-2.504778
6.261000,-1.860726
6.262000,-1.382142
6.263000,-0.776275
6.264000,-0.353696
6.265000,-0.272235
6.266000,-0.286236
6.267000,-0.428793
6.268000,-0.678267
6.269000,-0.337149
6.270000,0.233079
6.271000,0.035790
6.272000,-0.498798
6.273000,-1.287953
6.274000,-1.244677
6.275000,-1.025750
6.276000,-1.449602
6.277000,-1.715624
6.278000,-2.229847
6.279000,-2.614242
6.280000,-2.830623
6.281000,-2.934995
6.282000,-2.910811
6.283000,-2.848442
6.284000,-2.587512
6.285000,-2.254031
6.286000,-1.923095
6.287000,-1.631617
6.288000,-1.612525
6.289000,-1.458512
6.290000,-1.327411
6.291000,-1.216674
6.292000,-1.052479
6.293000,-1.028296
6.294000,-1.083027
6.295000,-1.130122
6.296000,-1.113575
6.297000,-0.740636
6.298000,-0.553530
6.299000,0.481281
6.300000,0.938227
6.301000,0.478735
6.302000,-0.174227
6.303000,-0.982474
6.304000,-1.741080
6.305000,-2.408043
6.306000,-1.826360
6.307000,-1.272679
6.308000,-1.398689
6.309000,-1.658346
6.310000,-2.089836
6.311000,-2.490777
6.312000,-2.719887
6.313000,-2.929904
6.314000,-3.021547
6.315000,-3.006273
6.316000,-2.786074
6.317000,-2.054197
6.318000,-1.486514
6.319000,-0.904831
6.320000,-0.701178
6.321000,-0.102948
6.322000,0.532194
6.323000,0.277628
6.324000,-0.436430
6.325000,-1.065208
6.326000,-1.822541
6.327000,-2.713522
6.328000,-3.232837
6.329000,-2.577330
6.330000,-1.928186
6.331000,-1.827633
6.332000,-1.819996
6.333000,-2.107655
6.334000,-2.418226
6.335000,-2.514961
6.336000,-2.523871
6.337000,-2.429681
6.338000,-2.256577
