 120
766 2
0.004638	0.002005	0.014536	0.013036	0.019193	0.007284	0.003548	0.001473	0.000793	0.000115	0.007024	0.003348	0.006058	0.004455	0.008294	0.004496	0.005333	0.003152	0.000134	0.006825	0.000110	0.006137	0.013863	0.004202	0.013181	0.020099	0.000936	0.002559	0.004748	0.001083	0.012527	0.014293	0.004974	0.008605	0.005946	0.003728	0.005688	0.012721	0.007048	0.009342	0.004648	0.012489	0.002111	0.001883	0.008258	0.001554	0.004172	0.003701	0.000042	0.000380	0.003938	0.012537	0.004143	0.006044	0.008670	0.003317	0.005818	0.005453	0.001249	0.006047	0.001064	0.002204	0.000918	0.004784	0.007801	0.013189	0.017655	0.014214	0.016680	0.154600	0.026656	0.353097	0.055047	0.012875	0.113897	0.020237	0.011105	0.099262	0.057916	0.030157	0.060412	0.180510	0.262520	0.105883	0.197140	0.017792	0.182223	0.460024	0.129474	0.114564	0.161290	0.119546	0.140815	0.111518	0.047783	0.014473	0.101783	0.111318	0.205031	0.027160	0.405144	0.030661	0.011923	0.161208	0.140169	0.131455	0.169793	0.301493	0.047514	0.204340	0.011122	0.052149	0.153674	0.092618	0.213188	0.056181	0.171925	0.090425	0.192273	0.036788	0.125311	0.074197	0.240895	0.095362	0.182904	0.276554	0.024099	0.107712	0.021284	0.141436	0.035452	0.226172	0.211726	0.047922	0.161926	0.063442	0.047495	0.125106	0.019644	0.032694	0.081871	0.084803	0.027062	0.052068	0.361922	0.374573	0.753483	0.192169	0.410534	0.129502	0.079130	0.057550	0.341835	0.063839	0.182680	0.059451	0.007149	0.099813	0.019782	0.208842	0.223390	0.311623	0.098708	0.160842	0.201605	0.014041	0.046640	0.141811	0.014307	0.531538	0.165297	0.153091	0.014248	0.155755	0.267694	0.128829	0.345395	0.105433	0.238548	0.018690	0.400999	0.242134	0.329740	0.114103	0.473150	0.451982	0.521285	0.162108	0.276627	0.063764	0.026587	0.246605	0.138015	0.221778	0.248144	0.034096	0.278363	0.024233	0.437623	0.486603	0.713336	0.167398	0.185073	0.009557	0.701374	0.129403	0.374061	0.222029	0.033556	0.084705	0.079022	0.150280	0.055905	0.285758	0.103764	0.149429	0.246440	0.058214	0.089086	0.065209	0.079009	0.276992	0.137209	0.032073	0.267413	0.084283	0.031143	0.041343	0.057479	0.217275	0.204759	0.221205	0.086708	0.151799	0.125163	0.064357	0.048218	0.287410	0.361049	0.173414	0.136255	0.235130	0.540893	0.402040	0.036546	0.360899	0.098278	0.076849	0.065761	0.096601	0.118300	0.036397	0.158996	0.046494	0.026371	0.046736	0.283477	0.069687	0.224659	0.062781	0.003560	0.156227	0.556440	0.242831	0.193948	0.155165	0.379852	0.199316	0.333717	0.096475	0.132214	0.057488	0.190668	0.136739	0.033700	0.159061	0.253438	0.066902	0.112909	0.018312	0.111960	0.104664	0.176364	0.051399	0.099060	0.270223	0.052660	0.001077	0.152277	0.011394	0.019392	0.005681	0.018767	0.036937	0.277149	0.031673	0.029154	0.126235	0.000563	0.024334	0.172824	0.009663	0.005960	0.093008	0.047389	0.047947	0.142242	0.000168	0.297493	0.076609	0.217639	0.043976	0.440047	0.047691	0.123724	0.310421	0.155647	0.031460	0.084366	0.053640	0.076921	0.017002	0.344037	0.037646	0.333994	0.104564	0.391456	0.004305	0.360621	0.131209	0.040906	0.120731	0.106167	0.202813	0.473988	0.164753	0.552217	0.146621	0.557824	0.037099	0.207369	0.020836	0.422979	0.042880	0.105799	0.104742	0.303300	0.025193	0.365836	0.356771	0.353721	0.018635	0.092960	0.152391	0.255256	0.130097	0.281941	0.115743	0.349880	0.073944	0.360770	0.015639	0.090486	0.001165	0.239212	0.092379	0.208353	0.096224	0.541473	0.076398	0.347782	0.361886	0.092818	0.038405	0.149803	0.058081	0.079333	0.015706	0.191172	0.031304	0.218439	0.097820	0.139733	0.037400	0.145929	0.310531	0.087230	0.103223	0.025279	0.071664	0.439976	0.034854	0.077779	0.002164	0.490738	0.162415	0.456687	0.048617	0.100006	0.007986	0.365317	0.101208	0.324800	0.210964	0.211119	0.088753	0.096956	0.095087	0.045243	0.307947	0.229462	0.188348	0.186054	0.044440	0.154350	0.138361	0.150093	0.136164	0.372335	0.287327	0.502299	0.280501	0.641258	0.156379	0.038648	0.042621	0.222580	0.128354	0.277599	0.119380	0.075631	0.141345	0.490287	0.071858	0.809154	0.096041	0.294713	0.059536	0.081276	0.171288	0.055193	0.025465	0.015111	0.036625	0.234920	0.050684	0.137567	0.059660	0.093859	0.005953	0.415055	0.117078	0.445953	0.089569	0.114246	0.108971	0.251335	0.051007	0.078628	0.046028	0.097838	0.061369	0.089718	0.373351	0.250051	0.181455	0.125306	0.189085	0.135273	0.172948	0.046472	0.165343	0.202513	0.012109	0.442126	0.123233	0.298624	0.097188	0.021031	0.083313	0.253665	0.489373	0.190653	0.102374	0.452096	0.085621	0.141277	0.112232	0.079644	0.058211	0.377385	0.041014	0.366025	0.026480	0.185970	0.063029	0.327743	0.143348	0.695258	0.186371	0.300497	0.226799	0.073110	0.148555	0.009692	0.071221	0.045635	0.032840	0.103674	0.012353	0.027879	0.128049	0.403380	0.034801	0.508628	0.139556	0.175897	0.101088	0.249755	0.052902	0.000795	0.179101	0.169706	0.176044	0.253634	0.182148	0.114924	0.119421	0.181144	0.024205	0.066980	0.021194	0.570677	0.018067	0.329259	0.299499	0.013570	0.082045	0.232343	0.073030	0.208875	0.058419	0.341363	0.044726	0.083057	0.067635	0.181874	0.018852	0.009020	0.045367	0.036629	0.035707	0.244855	0.054567	0.114557	0.030763	0.617448	0.147893	0.101375	0.199692	0.004650	0.216370	0.083687	0.020330	0.162567	0.039227	0.334719	0.097091	0.109887	0.053786	0.201546	0.113311	0.075556	0.058737	0.000994	0.063548	0.042915	0.122094	0.083568	0.143396	0.075228	0.101055	0.131038	0.042523	0.165070	0.080545	0.162647	0.259984	0.527140	0.376052	0.386401	0.056689	0.245008	0.040706	0.355044	0.170906	0.096230	0.145957	0.156550	0.129944	0.351301	0.144108	0.577358	0.141459	0.126300	0.184705	0.009740	0.145982	0.175999	0.012922	0.073605	0.137642	0.533909	0.016090	0.074411	0.078974	0.030654	0.143455	0.134550	0.164840	0.300656	0.230845	0.388224	0.040289	0.004490	0.200080	0.221082	0.038430	0.003575	0.057156	0.031167	0.095270	0.085321	0.080274	0.130126	0.061038	0.128638	0.153750	0.111422	0.000102	0.471740	0.147696	0.411202	0.060587	0.120461	0.270324	0.275221	0.053912	0.039784	0.125628	0.041799	0.123206	0.130726	0.091850	0.363710	0.136857	0.339997	0.038899	0.370568	0.144430	0.235369	0.209688	0.037968	0.088787	0.271924	0.013502	0.039907	0.120517	0.224151	0.035562	0.074430	0.059220	0.196915	0.035010	0.272048	0.039258	0.440285	0.116044	0.249297	0.017378	0.172484	0.052867	0.289691	0.056930	0.049878	0.105649	0.097020	0.245486	0.110788	0.092206	0.060894	0.029210	0.278510	0.073347	0.310544	0.086667	0.060002	0.027242	0.073345	0.006885	0.071058	0.057305	0.195087	0.047558	0.377605	0.056788	0.084086	0.028210	0.016579	0.019558	0.024811	0.069843	0.101516	0.014630	0.055881	0.066532	0.213672	0.031461	0.135687	0.333622	0.700090	0.146021	0.144214	0.275718	0.220922	0.000690	0.202023	0.074872	0.273897	0.080413	0.300893	0.157100	0.159669	0.129098	0.146101	0.129924	0.043973	0.142824	0.089298	0.023672	0.054179	0.045320	0.419289	0.117454	0.119580	0.042200	0.071259	0.144527	0.205372	0.248360	0.290660	0.101015	0.178155	0.008269	0.240277	0.087509	0.152747	0.029514	0.433866	0.036479	0.100740	0.214328	0.296629	0.028662	0.060838	0.391597	0.190104	0.016039	0.028984	0.075944	0.105353	0.177747	0.179934	0.006271	0.103945	0.000433	0.155569	0.029257	0.059969	0.063090	0.329631	0.014070	0.239004	0.078761	0.310752	0.017691	0.225587	0.108228	0.121267	0.014877	0.245803	0.030487	0.047093	0.088000	0.388905	0.052761	0.166467	0.157383	0.117572	0.013182	0.343936	0.064536	0.504283	0.087936	0.063620	0.079878	0.112091	0.104343	0.156336	0.141634	0.072262	0.036544	0.343268	0.073551	0.237215	0.111929	0.148356	0.077213	0.041219	0.025951	0.158194	0.004349	0.266991	0.056762	0.050922	0.104050	0.191061	0.206165	0.375955	0.059752	0.235583	0.160104	0.181793	0.141608	0.220654	0.024462	0.261145	0.064271	0.261505	0.087751	0.070168	0.102415	0.025299	0.103532	0.478409	0.002296	0.004182	0.079690	0.031222	0.219488	0.165033	0.239467	0.071800	0.017386	0.012057	0.008577	0.178683	0.259394	0.003520	0.081754	0.058143	0.005613	0.316432	0.106772	0.370520	0.090096	0.214844	0.278156	0.125140	0.231658	0.288178	0.094006	0.303887	0.066319	0.061768	0.172958	0.139765	0.114163	0.316848	0.017766	0.024956	0.083824	0.160758	0.036334	0.080065	0.015747	0.173956	0.055028	0.113237	0.047622	0.046782	0.176235	0.186847	0.074613	0.106398	0.104170	0.044307	0.047935	0.083687	0.128171	0.136119	0.025656	0.241678	0.022193	0.309365	0.004497	0.085749	0.124361	0.222995	0.014230	0.209425	0.029456	0.236544	0.085545	0.361128	0.050032	0.299833	0.151251	0.451571	0.266773	0.469324	0.029245	0.376853	0.228139	0.438282	0.003415	0.101090	0.042424	0.100167	0.075313	0.045074	0.056526	0.122180	0.119215	0.244848	0.003706	0.221075	0.019346	0.340704	0.078596	0.298157	0.001254	0.236857	0.024716	0.345066	0.030131	0.129329	0.149384	0.365691	0.091405	0.146612	0.036164	0.254991	0.058999	0.325266	0.021586	0.017886	0.026451	0.321935	0.055388	0.140006	0.141321	0.366850	0.024033	0.426205	0.031191	0.120966	0.077968	0.186905	0.112102	0.150172	0.076728	0.288132	0.029220	0.162812	0.022426	0.101731	0.137894	0.450190	0.205378	0.304753	0.025581	0.066848	0.005013	0.205236	0.028846	0.234909	0.263149	0.197560	0.407049	0.006979	0.079232	0.167439	0.051324	0.040955	0.089242	0.105114	0.047065	0.083660	0.037484	0.408290	0.071340	0.183441	0.122564	0.182492	0.119186	0.376471	0.017464	0.810178	0.131287	0.370366	0.158412	0.449984	0.086313	0.024491	0.049933	0.112933	0.051719	0.073485	0.365257	0.658227	0.126054	0.083835	0.028835	0.382043	0.030984	0.096542	0.125359	0.108850	0.102498	0.191546	0.052635	0.177263	0.003639	0.404580	0.025094	0.064142	0.064899	0.105436	0.044272	0.579608	0.044402	0.819261	0.128727	0.113785	0.039391	0.145863	0.089244	0.053143	0.200222	0.334069	0.017412	0.173206	0.088948	0.170126	0.114317	0.488772	0.009264	0.061509	0.288649	0.548047	0.092556	0.066830	0.045831	0.346956	0.054223	0.229704	0.019890	0.206362	0.186312	0.393886	0.113323	0.334241	0.041105	0.541414	0.128100	0.459683	0.024992	0.214843	0.033905	0.672596	0.162022	0.176058	0.087242	0.140856	0.104072	0.441401	0.052321	0.241946	0.096756	0.106503	0.014860	0.049060	0.126599	0.197224	0.265197	0.053657	0.027996	0.073454	0.152721	0.569108	0.369694	0.442126	0.149886	0.054752	0.176525	0.086866	0.095225	0.032365	0.154651	0.001007	0.079880	0.142212	0.094193	0.374518	0.063775	0.551804	0.078902	0.099102	0.012156	0.642127	0.172718	0.521849	0.121242	0.217644	0.161611	0.086925	0.034351	0.026659	0.079152	0.145726	0.076450	0.192731	0.042351	0.154675	0.047314	0.464311	0.139917	0.173099	0.056483	0.030701	0.042707	0.165193	0.135298	0.134241	0.049078	0.031793	0.035707	0.038274	0.045632	0.087457	0.031898	0.144882	0.178210	0.286930	0.066302	0.088853	0.083516	0.191070	0.005725	0.259540	0.240525	0.106625	0.064621	0.115236	0.125371	0.352837	0.027864	0.373102	0.107118	0.276062	0.020115	0.136377	0.069066	0.149333	0.127904	0.209134	0.061971	0.000345	0.031371	0.100544	0.027630	0.166707	0.046019	0.026161	0.150614	0.419224	0.042966	0.253874	0.097417	0.207010	0.102782	0.201710	0.190187	0.190667	0.049808	0.079581	0.021619	0.178302	0.052221	0.064484	0.164116	0.141782	0.032426	0.244924	0.017199	0.060202	0.041654	0.004826	0.053487	0.188983	0.000830	0.080706	0.037109	0.159157	0.108862	0.101391	0.031052	0.214889	0.063066	0.122832	0.033029	0.076737	0.144580	0.438143	0.241117	0.308339	0.233088	0.172227	0.026606	0.278008	0.026522	0.342293	0.083215	0.297468	0.039280	0.197717	0.037794	0.139541	0.069210	0.129224	0.012238	0.046534	0.088330	0.276632	0.157085	0.334898	0.018386	0.330241	0.003970	0.065315	0.116578	0.178642	0.054253	0.055805	0.038580	0.005563	0.051394	0.176505	0.009338	0.239879	0.143092	0.311550	0.071162	0.270036	0.081796	0.064799	0.000682	0.484692	0.087372	0.092786	0.275626	0.010088	0.176166	0.290964	0.015867	0.341388	0.098863	0.306652	0.151617	0.193951	0.205285	0.580274	0.119703	0.458773	0.220697	0.201097	0.024008	0.347263	0.039466	0.295130	0.151452	0.024160	0.094068	0.294712	0.058998	0.175124	0.033448	0.095808	0.053896	0.217265	0.037892	0.492583	0.648315	0.086987	0.098434	0.047662	0.102471	0.448049	0.091812	0.259453	0.190500	0.294918	0.121788	0.127886	0.009746	0.410123	0.017257	0.160350	0.070034	0.226814	0.034988	0.392878	0.126714	0.318664	0.038411	0.102721	0.141265	0.215492	0.037222	0.407747	0.181675	0.719099	0.129516	0.190866	0.076230	0.338191	0.112610	0.018697	0.132304	0.339068	0.102432	0.249903	0.237610	0.193710	0.090381	0.447791	0.277740	0.540854	0.377243	0.256930	0.022583	0.343714	0.064145	0.122290	0.219939	0.000291	0.093154	0.166625	0.119015	0.620967	0.037708	0.103014	0.086206	0.505700	0.260675	0.292581	0.102716	0.154050	0.204722	0.335070	0.010247	0.084402	0.025333	0.228376	0.073695	0.408080	0.060750	0.010265	0.118020	0.500518	0.033003	0.239081	0.005244	0.727703	0.134900	0.282475	0.030502	0.587377	0.161254	0.002836	0.104236	0.189312	0.208136	0.223629	0.118362	0.134189	0.001792	0.070262	0.007861	0.061413	0.007462	0.003738	0.016359	0.006954	0.017958	0.041154	0.004121	0.029383	0.028285	0.042894	0.002664	0.009038	0.003696	0.074500	0.009696	0.156910	0.027335	0.006736	0.013401	0.038890	0.004659	0.008005	0.005345	0.014255	0.002998	0.008991	0.002828	0.016102	0.051618	0.027608	0.051642	0.060128	0.008614	0.011588	0.035849	0.000068	0.005390	0.026179	0.000710	0.000423	0.026690	0.008448	0.014001	0.058000	0.005542	0.117185	0.016437	0.011663	0.000850	0.021692	0.019202	0.003606	0.008031	0.015018	0.003735	0.007503	0.003013	0.014695	0.012604	0.008386	0.011570	0.018960	0.004586	0.008909	0.004673	0.011555	0.001004	0.009745	0.001056	0.019984	0.029417	0.010768	0.007093	0.005852	0.012309	0.001815	0.002785	0.014930	0.006014	0.010167	0.004145	0.000208	0.017513	0.007348	0.008498	0.004663	0.011717	0.008577	0.005363	0.016430	0.022433	0.008672	0.029228	0.003022	0.009254	0.002085	0.008148	0.013055	0.010397	0.023263	0.002226	0.007493	0.012515	0.009581	0.015210	0.007199	0.006480	0.015667	0.014604	0.015146	0.019684	0.003380	0.003513	0.006478	0.019599	0.009319	0.016082	0.016821	0.015016	0.015474	0.013769	0.012171	0.000043	0.006050	0.019433	0.011719	0.006323	0.027805	0.017042	0.017091	0.000788	
766 1
0.003908	0.006562	0.010825	0.008683	0.005268	0.005340	0.005580	0.005659	0.005578	0.005882	0.006464	0.001617	0.002748	0.008272	0.006545	0.004094	0.003431	0.002149	0.001885	0.003023	0.003488	0.004209	0.003911	0.004592	0.004507	0.004060	0.004885	0.004100	0.003881	0.003350	0.002479	0.001794	0.001892	0.002930	0.005370	0.009749	0.010204	-0.005770	0.002090	0.005528	0.007206	0.017386	0.020579	0.016034	0.032178	0.021450	0.037764	0.048710	0.059319	0.075081	0.082307	0.088230	0.085969	0.097544	0.105356	0.103618	0.115669	0.128804	0.132696	0.133978	0.137313	0.141919	0.147065	0.145960	0.147647	0.157774	0.163355	0.165059	0.166941	0.168633	0.174001	0.174667	0.172164	0.165586	0.164580	0.163525	0.184447	0.203867	0.209102	0.217646	0.223376	0.221697	0.218726	0.223546	0.230713	0.230180	0.226836	0.234997	0.242522	0.241979	0.249952	0.256622	0.259467	0.269902	0.277420	0.285371	0.301999	0.309336	0.314376	0.329291	0.328387	0.328680	0.351271	0.363170	0.347412	0.356537	0.363663	0.357178	0.356821	0.348160	0.350469	0.337903	0.342628	0.327444	0.332218	0.327545	0.318330	0.313405	0.315839	0.320680	0.320075	0.339075	0.346193	0.322936	0.326417	0.329959	0.331487	0.320994	0.325696	0.312083	0.303329	0.322206	0.320481	0.328744	0.332971	0.318661	0.325799	0.320795	0.326615	0.317507	0.320151	0.315057	0.313785	0.297113	0.305646	0.294460	0.295529	0.291536	0.269550	0.263006	0.264379	0.248667	0.244276	0.237826	0.233973	0.223345	0.231733	0.237723	0.229784	0.229961	0.232794	0.244101	0.245072	0.250101	0.260623	0.248952	0.256575	0.278173	0.293061	0.298405	0.288108	0.303062	0.293571	0.304637	0.324650	0.322822	0.315499	0.325261	0.329248	0.335027	0.337473	0.323015	0.341215	0.333446	0.349663	0.355109	0.339520	0.344544	0.341569	0.351319	0.342917	0.331402	0.336141	0.320699	0.320769	0.338679	0.312847	0.343481	0.338020	0.321900	0.346852	0.347129	0.341823	0.338187	0.345318	0.347787	0.341453	0.346370	0.344848	0.360209	0.360783	0.363445	0.355292	0.372963	0.372455	0.361753	0.385690	0.384809	0.384546	0.378831	0.375010	0.386110	0.394584	0.369608	0.365326	0.374071	0.361269	0.348993	0.360264	0.350324	0.360321	0.357170	0.350635	0.346286	0.348695	0.344245	0.352246	0.365911	0.355562	0.343114	0.372897	0.357694	0.373678	0.361213	0.361874	0.384416	0.375263	0.368763	0.382811	0.386233	0.383446	0.377623	0.376054	0.390635	0.394704	0.382472	0.381329	0.370371	0.355763	0.364330	0.354872	0.368647	0.366745	0.356847	0.363647	0.361035	0.388219	0.368531	0.352109	0.375137	0.368793	0.377398	0.360880	0.375419	0.365272	0.374655	0.371875	0.345079	0.363988	0.334305	0.335629	0.338668	0.350471	0.352509	0.332796	0.346247	0.332810	0.337904	0.341158	0.329782	0.318998	0.317194	0.313612	0.308217	0.318712	0.319043	0.317299	0.331266	0.320414	0.331019	0.343330	0.348584	0.339673	0.336767	0.351536	0.349210	0.367118	0.336895	0.348992	0.352323	0.354744	0.352388	0.339543	0.355492	0.344061	0.359864	0.353711	0.346407	0.336867	0.325326	0.343412	0.330404	0.327542	0.334081	0.325827	0.335122	0.340098	0.346922	0.338650	0.346593	0.344343	0.334156	0.357200	0.343118	0.358053	0.344367	0.354420	0.348223	0.352193	0.338314	0.342314	0.352822	0.338392	0.350728	0.340298	0.341154	0.355614	0.344516	0.329158	0.344171	0.344907	0.341505	0.335331	0.312605	0.322681	0.326640	0.320743	0.309657	0.305085	0.287773	0.302079	0.294786	0.295779	0.302187	0.310211	0.316264	0.311076	0.316409	0.313764	0.319877	0.323616	0.335722	0.305994	0.316638	0.321541	0.319722	0.313964	0.327273	0.319621	0.341064	0.322919	0.335179	0.333171	0.331275	0.329837	0.343406	0.335620	0.335184	0.340661	0.328402	0.336250	0.318310	0.321479	0.319006	0.312931	0.328473	0.314445	0.335526	0.316939	0.315565	0.335208	0.337190	0.316701	0.332216	0.334877	0.326471	0.347448	0.332511	0.330145	0.327953	0.344174	0.340763	0.321399	0.331997	0.329600	0.326912	0.327526	0.330314	0.338540	0.339897	0.330785	0.336629	0.358333	0.322831	0.342439	0.338112	0.323291	0.333195	0.343123	0.311874	0.326101	0.332697	0.320781	0.320676	0.319163	0.328069	0.331265	0.324590	0.334030	0.342728	0.326617	0.345207	0.335305	0.343032	0.327343	0.323305	0.319160	0.310130	0.306658	0.311867	0.303759	0.306718	0.302439	0.291625	0.300315	0.298091	0.301346	0.306182	0.307781	0.318578	0.321351	0.326679	0.331934	0.321156	0.333106	0.333156	0.341721	0.334964	0.330578	0.335677	0.327740	0.329527	0.338927	0.329239	0.345637	0.330154	0.347249	0.347853	0.331093	0.363184	0.339422	0.352614	0.353095	0.339529	0.353509	0.348640	0.358870	0.348806	0.353431	0.367317	0.352610	0.343775	0.367354	0.365160	0.360459	0.344539	0.364174	0.355794	0.364306	0.358767	0.368425	0.342325	0.346647	0.354871	0.363871	0.359948	0.366488	0.350450	0.370396	0.372118	0.380291	0.358632	0.385893	0.367322	0.375464	0.379600	0.376040	0.388951	0.360856	0.375558	0.392699	0.378946	0.369708	0.377593	0.376534	0.388343	0.377231	0.381363	0.394439	0.374924	0.395265	0.371986	0.402023	0.387859	0.396471	0.400078	0.395260	0.406807	0.403720	0.399054	0.421925	0.405104	0.410066	0.428382	0.414432	0.409709	0.420781	0.423343	0.396472	0.411917	0.420052	0.406662	0.398677	0.403412	0.406461	0.404661	0.414355	0.407968	0.404829	0.380798	0.418738	0.404148	0.402316	0.396202	0.406671	0.417305	0.407549	0.399563	0.410036	0.383178	0.383482	0.401276	0.384504	0.382481	0.387406	0.381843	0.369700	0.354026	0.338984	0.347744	0.350377	0.331819	0.341793	0.350044	0.350442	0.345097	0.343999	0.351870	0.351965	0.340982	0.360057	0.351805	0.335369	0.344638	0.327436	0.329425	0.333882	0.330322	0.328786	0.343626	0.332051	0.331849	0.334949	0.321170	0.325851	0.330510	0.312488	0.312337	0.295186	0.301061	0.286741	0.288571	0.300873	0.298319	0.292168	0.304313	0.311905	0.311339	0.310806	0.314476	0.316863	0.318065	0.325383	0.315693	0.318726	0.309124	0.321462	0.313648	0.319954	0.325172	0.313574	0.306681	0.306166	0.294578	0.329162	0.308060	0.306485	0.323355	0.327296	0.329169	0.329246	0.345142	0.344657	0.341014	0.355094	0.356605	0.341247	0.368542	0.354005	0.357108	0.365033	0.370999	0.361457	0.357259	0.384373	0.371632	0.376019	0.366194	0.394129	0.374002	0.385253	0.394061	0.383855	0.378617	0.387797	0.400230	0.396507	0.389958	0.402308	0.385074	0.413193	0.403073	0.397810	0.414592	0.404397	0.411662	0.418640	0.412426	0.404024	0.425945	0.434303	0.403384	0.432651	0.418549	0.418498	0.426728	0.414558	0.437727	0.435099	0.407434	0.442868	0.416106	0.441672	0.424525	0.438845	0.417083	0.441206	0.433006	0.426593	0.435685	0.441914	0.435582	0.430040	0.416804	0.397586	0.378446	0.359068	0.345689	0.324564	0.295345	0.292346	0.273930	0.261580	0.244599	0.230029	0.212785	0.200033	0.186473	0.174850	0.165278	0.152318	0.141626	0.133722	0.127924	0.116038	0.112477	0.103192	0.097039	0.089006	0.082928	0.076459	0.071416	0.065783	0.060909	0.056143	0.053826	0.050603	0.047621	0.043952	0.041562	0.039031	0.036797	0.035043	0.033308	0.031773	0.031508	0.031438	0.030429	0.028731	0.027859	0.027586	0.026688	0.026240	0.025385	0.025241	0.025512	0.024579	0.023965	0.023857	0.024196	0.024321	0.023662	0.023015	0.022722	0.023621	0.023517	
698 2
0.011415	0.005597	0.006139	0.006737	0.010484	0.009034	0.003334	0.000146	0.006208	0.001061	0.004279	0.011979	0.001587	0.011235	0.001808	0.016808	0.003827	0.003056	0.006534	0.005244	0.003413	0.001202	0.004919	0.000600	0.013612	0.003520	0.004385	0.003485	0.018423	0.001050	0.012586	0.000592	0.005234	0.008883	0.013547	0.014941	0.000698	0.002482	0.004912	0.009024	0.001941	0.012377	0.007995	0.074328	0.002386	0.053270	0.028895	0.260214	0.196351	0.230644	0.648358	0.147582	0.112087	0.135146	0.251918	0.065640	0.086862	0.233708	0.013604	0.269634	0.405178	0.492778	0.316584	0.231465	0.002631	0.303672	0.057939	0.523572	0.617654	0.216970	0.102253	0.183737	0.246217	0.339264	0.230552	0.054093	0.123206	0.692310	0.444033	0.689979	0.061295	0.463922	0.774571	0.946876	0.470319	0.551503	0.179219	0.005997	0.292522	0.062327	0.384840	0.051655	0.148768	0.129148	0.547739	0.314470	0.816679	0.022970	0.167219	0.300678	0.372029	0.046520	0.103221	0.170838	0.228077	0.141123	0.122503	0.218314	0.040541	0.142001	0.052910	0.197163	0.204252	0.567152	0.236995	0.612748	0.094745	0.260664	0.000176	0.182272	0.263908	0.156939	0.614133	0.649016	0.210888	0.105086	0.261361	0.216253	0.467255	0.688862	0.016343	0.253062	0.288575	0.318696	0.252749	0.199584	0.031760	0.281632	0.517121	0.551615	0.315979	0.298975	0.799642	0.026823	0.483215	0.045650	0.019668	0.081695	0.137610	0.304866	0.570891	0.286031	0.949275	0.362172	0.439839	0.243569	0.570719	0.140900	0.091490	0.092767	0.124167	0.063441	0.206338	0.181787	0.297594	0.070241	0.315997	0.483407	0.043712	0.334601	0.594022	0.234518	0.332298	0.111931	0.351200	0.309213	0.348094	0.139101	0.446872	0.102513	0.328096	0.740170	0.560858	0.068631	0.756265	0.149981	1.000250	0.087439	0.855171	0.796211	0.768189	1.000439	0.186808	0.156624	0.879219	0.396567	0.083523	0.023608	0.533223	0.178995	0.698807	0.677706	0.433782	0.503225	0.272227	0.222925	0.625700	0.122446	0.353089	0.096503	0.420155	0.308077	0.817711	0.134633	0.312079	0.179401	0.846295	0.336384	0.393153	0.180499	0.182634	0.118391	0.217175	0.035806	0.225046	0.316491	0.094083	0.123910	0.760504	0.041223	0.069548	0.182601	0.481357	0.421203	0.401548	0.210250	0.395442	0.937122	0.123121	0.092793	0.053706	0.093031	0.153034	0.328864	0.053600	0.038437	0.026107	0.221988	0.019702	0.509490	0.544561	0.633030	0.417575	0.636951	0.039376	0.540561	0.739090	0.254614	0.368391	0.089199	0.005173	0.241802	0.167902	0.216203	0.132965	0.365198	0.026776	0.035769	0.553323	0.345244	0.620824	0.678315	0.268629	0.556617	0.368961	0.076653	0.079713	0.239687	0.399454	0.183040	0.109234	0.348660	0.105860	0.167264	0.085886	0.141214	0.277085	0.021239	0.085491	0.085809	0.753243	0.071454	0.312349	0.076064	0.240977	0.170856	0.757354	0.179908	0.196968	0.189985	0.034630	0.010891	0.439171	0.081459	0.259454	0.232911	0.065763	0.146255	0.429198	0.655077	0.901857	0.319304	0.119880	0.203233	0.184540	0.076417	0.195191	0.220802	0.282491	0.527678	0.198124	0.285571	0.375689	0.286640	0.316560	0.174386	0.464794	0.025556	0.012321	0.069908	0.806071	0.392518	1.000250	0.068721	0.653449	0.016124	0.757282	0.065635	0.114792	0.304561	0.123052	0.048569	0.296949	0.151559	0.363394	0.210025	0.544927	0.283858	0.817155	0.172890	0.862959	0.028468	0.651078	0.417658	0.075950	0.052203	0.717294	0.257598	0.388671	0.197387	0.266778	0.058753	0.157195	0.061881	0.118931	0.017558	0.835707	0.599036	0.438820	0.069653	0.402650	0.277778	0.635066	0.145704	0.185743	0.186200	0.378481	0.118147	0.208124	0.166282	0.407799	0.204678	0.053242	0.213610	0.516688	0.526973	0.554083	0.736316	0.030118	0.359599	0.471858	0.267678	0.085033	0.855487	0.318804	0.093883	0.766416	0.235621	0.295837	0.008063	0.179562	0.776515	0.013268	0.796728	0.189461	0.037813	0.834344	0.590660	0.659909	0.023268	0.280011	0.090686	0.248530	0.032156	0.195675	0.139360	0.726753	0.155686	0.932829	0.351141	1.000250	0.498643	0.512708	0.023332	0.789799	0.518579	0.548086	0.371351	0.680205	0.040045	0.180205	0.052532	0.256091	0.300789	0.474708	0.548583	0.729991	0.512388	0.386688	0.128230	0.645877	0.282202	0.516225	0.065296	0.381255	0.209011	0.303045	0.103630	0.726860	0.369671	0.383188	0.229729	0.067371	0.234867	0.153442	0.315475	0.451248	0.106596	0.687098	0.084684	0.571458	0.344948	0.912591	0.522711	0.975368	0.332391	0.065110	0.211425	0.556651	0.752976	1.000250	0.276034	0.445314	0.110124	0.246617	0.089852	0.175826	0.327050	0.971535	0.045930	0.479371	0.278288	0.102771	0.362855	0.288781	0.005331	0.520785	0.051777	0.242501	0.191667	0.361647	0.039063	0.381760	0.089347	0.806464	0.346664	0.281314	0.192405	0.034496	0.191033	0.202426	0.090274	0.577890	0.284794	0.176183	0.079784	0.310239	0.231143	0.137248	0.002916	0.404180	0.142772	0.254233	0.094238	0.339915	0.020515	0.299938	0.069056	0.330295	0.001123	0.021513	0.065051	0.114047	0.096948	0.251286	0.180207	0.071947	0.151131	0.140122	0.048020	0.071526	0.031268	0.432601	0.138449	0.464902	0.090420	0.045225	0.475691	0.546830	0.217570	0.004275	0.030562	0.220044	0.220456	0.035298	0.012511	0.015349	0.008550	0.313097	0.065852	0.788068	0.031729	0.307344	0.040473	0.205301	0.031871	0.140072	0.041651	0.339844	0.056844	0.030398	0.111494	0.090510	0.034614	0.558906	0.123915	1.000250	0.118326	0.191374	0.071540	0.534515	0.206764	0.117811	0.119717	0.353901	0.024209	0.220865	0.279248	0.235201	0.021610	0.277486	0.208547	0.399275	0.112139	0.127711	0.064557	0.363165	0.353903	0.550074	0.213544	0.344610	0.047088	0.416097	0.146549	0.088910	0.039024	0.406447	0.085391	0.377010	0.023862	0.082922	0.018581	0.274032	0.102931	0.106471	0.070041	0.091753	0.002268	0.165032	0.053207	0.394974	0.106482	0.114274	0.005206	0.233730	0.168905	0.000464	0.187346	0.240458	0.010412	0.182954	0.070756	0.005426	0.029991	0.183848	0.149557	0.120912	0.136123	0.128962	0.021637	0.353891	0.107734	0.268351	0.120843	0.059632	0.086832	0.217161	0.020542	0.159218	0.008536	0.043522	0.009421	0.167984	0.009441	0.224783	0.000317	0.025203	0.030050	0.284726	0.060999	0.803546	0.079894	0.127258	0.022950	0.213902	0.023144	0.154051	0.014674	0.010437	0.028338	0.014446	0.008244	0.024396	0.000528	0.003597	0.008600	0.142194	0.007793	0.214419	0.002279	0.270815	0.055292	0.366851	0.004869	0.168284	0.007920	0.158698	0.027764	0.050571	0.158915	0.000759	0.026428	0.023098	0.022635	0.019223	0.033988	0.161784	0.006491	0.136936	0.008457	0.014702	0.032759	0.128219	0.009365	0.055316	0.001610	0.091694	0.002700	0.058551	0.015206	0.029423	0.013498	0.022467	0.002699	0.133060	0.010805	0.155828	0.021074	0.205078	0.000682	0.023913	0.013085	0.073418	0.006323	0.046174	0.022108	0.008997	0.011235	0.009111	0.005001	0.015241	0.004867	0.060150	0.007588	0.050923	0.011804	0.020241	0.026276	0.035754	0.025962	0.042299	0.028728	0.214316	0.042589	0.031031	0.100356	0.060504	0.018202	0.077975	0.018937	0.054413	0.020735	0.010710	0.002011	0.155552	0.059470	0.023501	0.065105	0.052149	0.014791	0.047099	0.118741	0.067355	0.150275	0.142398	0.154749	0.234568	0.118003	0.113691	0.013649	0.427240	0.442764	0.373618	0.220153	0.000829	0.302635	0.217486	0.095020	0.115563	0.050381	0.148049	0.173117	0.001501	0.003658	0.299722	0.145620	0.047436	0.329404	0.312270	0.140434	0.412667	0.229677	0.423305	0.224206	0.017182	0.013991	0.017292	0.178637	0.305013	0.016525	0.243125	0.048980	0.149764	0.024888	0.118891	0.129287	0.250809	0.134898	0.226092	0.006587	0.580607	0.056148	0.429002	0.067825	0.466450	0.133194	0.208689	0.187342	0.016629	0.007877	0.336867	0.059063	0.306397	0.011319	0.317504	0.189536	0.095138	0.373373	0.125537	0.188209	0.487038	0.042313	0.042375	0.146530	0.081621	0.606157	0.109442	0.140053	0.211698	0.101302	0.257001	0.324528	0.160496	0.094099	0.345302	0.084601	0.066318	0.199819	0.470833	0.373133	0.087292	0.069381	0.195375	0.024312	0.017481	0.057371	0.329234	0.097808	0.217977	0.091322	0.145545	0.201136	0.022308	0.109430	0.690670	0.014524	0.398596	0.089298	0.189267	0.083139	0.319293	0.323951	0.170465	0.203030	0.280035	0.016055	0.387881	0.033184	0.013334	0.306759	0.028636	0.104274	0.180015	0.186241	0.156371	0.058478	0.815122	0.007178	0.059508	0.334968	0.507658	0.486633	0.810029	0.426225	0.305254	0.046673	0.334004	0.210648	0.157066	0.105980	0.153987	0.079383	0.118425	0.183204	0.028903	0.095162	0.198358	0.165596	0.973728	0.310489	0.406074	0.094159	0.201846	0.064852	0.123449	0.046302	0.047846	0.012447	0.101716	0.003634	0.388915	0.023435	0.008253	0.004908	0.059387	0.011171	0.186360	0.044869	0.156083	0.000748	0.126234	0.032126	0.140526	0.056895	0.075912	0.054951	0.137778	0.042304	0.054647	0.127854	0.026326	0.054799	0.295544	0.042225	0.556149	0.016521	0.175031	0.018742	0.233404	0.027531	0.275999	0.014115	0.192948	0.000829	0.045056	0.084327	0.031579	0.040403	0.000659	0.050320	0.027642	0.025444	0.102338	0.053483	0.104951	0.033988	0.003612	0.012679	0.059546	0.007025	0.014239	0.019706	0.088240	0.025023	0.111754	0.004657	0.244496	0.008061	0.042761	0.008290	0.002914	0.019498	0.122782	0.052984	0.057008	0.006592	0.019651	0.057307	0.020376	0.001616	0.101678	0.029814	0.040891	0.076863	0.096233	0.115196	0.026816	0.009977	0.074299	0.046654	0.007827	0.063646	0.030846	0.089571	0.091723	0.029610	0.035666	0.132791	0.455342	0.012867	0.233433	0.052146	0.103945	0.067460	0.377194	0.035586	0.434811	0.164555	0.066290	0.333009	0.317721	0.241060	0.217155	0.161601	0.311555	0.043445	0.091459	0.547348	0.243588	0.071943	0.024051	0.098109	0.159385	0.168034	0.631693	0.075822	0.323254	0.028558	0.324837	0.248058	0.354541	0.093345	0.063967	0.082560	0.017132	0.237570	0.121742	0.122237	0.091361	0.368835	0.463132	0.298475	0.018715	0.170696	0.100755	0.131663	0.410277	0.120006	0.184532	0.026555	0.357034	0.016958	0.388038	0.179881	0.097163	0.052458	0.019696	0.067967	0.014357	0.004477	0.126591	0.045617	0.061702	0.031433	0.110542	0.076934	0.257314	0.246907	0.536167	0.058880	0.249130	0.109769	0.272700	0.044242	0.159200	0.018043	0.073151	0.018517	0.027215	0.005006	0.103888	0.001647	0.081225	0.013545	0.118200	0.001987	0.118455	0.018674	0.040109	0.049870	0.061681	0.005507	0.054677	0.022007	0.051547	0.023289	0.048240	0.016799	0.133030	0.101521	0.047749	0.006197	0.033356	0.075933	0.044879	0.109133	0.100551	0.047323	0.099424	0.028205	0.055819	0.024479	0.143354	0.022945	0.099538	0.014366	0.083759	0.086816	0.011276	0.164442	0.142798	0.067765	0.156571	0.134143	0.225905	0.055937	0.102926	0.059295	0.048622	0.017883	0.212023	0.058067	0.309989	0.175945	0.254625	0.154510	0.133015	0.202440	0.248481	0.228435	0.054933	0.057516	0.545505	0.437762	0.602003	0.061674	0.165483	0.266874	0.297591	0.213840	0.634063	0.056801	0.231415	0.106930	0.452189	0.246727	0.738252	0.026833	0.327754	0.203980	0.333639	0.005902	0.071080	0.014801	0.337268	0.049126	0.056186	0.098116	0.499373	0.073852	0.801207	0.440883	0.013990	0.141219	0.410023	0.060538	0.467652	0.044008	0.166757	0.165370	0.460826	0.253003	0.181844	0.071063	0.122263	0.119161	0.124717	0.034670	0.133553	0.000355	0.076919	0.033141	0.001852	0.030516	0.013873	0.088751	0.235640	0.028430	0.030376	0.009288	0.010603	0.006273	0.113874	0.014961	0.086792	0.020619	0.085213	0.003610	0.014735	0.017250	0.020767	0.003627	0.002447	0.006561	0.000579	0.002784	0.085126	0.017138	0.015368	0.006215	0.049584	0.002837	0.004908	0.013118	0.061034	0.012902	0.009584	0.003746	0.008917	0.006664	0.055675	0.000655	0.071804	0.012194	0.069587	0.011213	0.071188	0.032502	0.048205	0.016809	0.033302	0.014951	0.020798	0.001790	0.022666	0.003264	0.003490	0.006667	0.014538	0.004051	0.008558	0.011218	0.011966	0.018985	0.002599	0.008404	0.003614	0.007567	0.001986	0.008265	0.006911	0.010166	0.007054	0.004843	0.020346	0.001039	0.002739	0.010129	0.008818	0.000442	0.006015	0.008208	0.009761	0.020417	0.003892	0.006375	0.043775	0.010707	0.000952	0.007116	0.006490	0.009334	0.003354	0.001551	0.006941	0.005418	0.007672	0.000093	0.015130	0.003205	0.011618	0.003088	0.004751	0.032068	0.012118	0.008752	0.012806	0.006590	0.009004	0.002429	0.000089	0.005938	0.002784	0.006783	0.002919	0.002222	0.015083	0.015146	0.002412	0.000219	0.008222	0.013726	0.003068	0.011566	0.001272	0.000518	0.007584	0.003781	0.001992	0.001110	0.016804	0.007501	0.007631	0.002459	0.010154	0.002995	0.006312	0.006053	0.006040	0.009511	0.009811	0.001303	0.001933	0.006258	0.000575	0.003941	0.013541	0.007643	0.005695	0.009725	0.016878	0.009945	0.008835	0.001763	0.000289	0.007448	0.007001	0.002109	0.006619	0.000705	0.009870	0.003108	0.000703	0.000427	0.011627	0.003749	0.005259	0.009636	0.007429	0.007224	0.011663	0.000891	0.000699	0.007449	0.009454	0.007737	0.011370	0.000231	0.005514	0.002862	0.012077	0.004072	0.000474	0.009582	0.000312	0.001505	0.003676	0.005555	0.001286	0.006866	0.014777	0.006208	0.011932	0.001999	0.007893	0.001038	0.004596	0.011363	0.000879	0.000580	0.021403	0.010638	0.004397	0.003358	0.006703	0.004874	
698 1
0.007913	0.007121	0.009649	0.007913	0.004989	0.004931	0.004959	0.005102	0.005032	0.005095	0.006157	0.002097	0.002604	0.007283	0.006702	0.004691	0.002641	0.001994	0.002891	0.002087	0.003374	0.003978	0.007995	0.005079	0.012335	0.011020	0.015228	0.000729	0.025068	0.042356	0.053833	0.077525	0.081394	0.111366	0.137158	0.145894	0.177548	0.200569	0.235921	0.237405	0.267234	0.245506	0.307000	0.368725	0.404668	0.424556	0.422920	0.454891	0.435491	0.438857	0.455366	0.459966	0.475601	0.474540	0.462820	0.462993	0.472216	0.457845	0.457474	0.451474	0.473178	0.485340	0.494348	0.504990	0.509920	0.524188	0.544991	0.543744	0.534116	0.568584	0.569058	0.577997	0.585951	0.552988	0.573038	0.595824	0.579298	0.614825	0.621040	0.596011	0.582434	0.586185	0.575680	0.605161	0.594387	0.615739	0.608974	0.620201	0.614457	0.618810	0.637547	0.639020	0.646038	0.649740	0.644704	0.670726	0.677043	0.692638	0.664482	0.694090	0.694616	0.708400	0.702709	0.706390	0.701677	0.708697	0.710553	0.711676	0.716389	0.722608	0.706114	0.696343	0.708893	0.679613	0.714553	0.688119	0.716347	0.712344	0.724417	0.705039	0.681510	0.695733	0.650097	0.653317	0.649061	0.666529	0.689266	0.683639	0.686820	0.675085	0.649417	0.653479	0.650830	0.609831	0.662855	0.661794	0.674904	0.655751	0.641066	0.651967	0.640801	0.622498	0.613489	0.613296	0.590310	0.626222	0.608123	0.606542	0.627070	0.613221	0.577996	0.618503	0.599106	0.578532	0.615556	0.615692	0.606317	0.590871	0.597662	0.605649	0.595566	0.599503	0.593432	0.592393	0.563113	0.611089	0.603277	0.606366	0.608095	0.599292	0.581056	0.600617	0.594550	0.597362	0.598803	0.602474	0.604770	0.588576	0.614082	0.603772	0.593634	0.589426	0.584422	0.611242	0.607887	0.602621	0.605495	0.597506	0.602766	0.594940	0.602123	0.582533	0.600461	0.591125	0.594997	0.597143	0.589895	0.590372	0.595013	0.591220	0.594236	0.585439	0.580943	0.590779	0.599647	0.592860	0.593089	0.596531	0.603108	0.584162	0.589291	0.612247	0.599146	0.609699	0.616693	0.612321	0.622633	0.607512	0.602243	0.621860	0.615784	0.622641	0.621154	0.621250	0.618901	0.621728	0.615777	0.621098	0.620688	0.617589	0.608453	0.600167	0.614377	0.633179	0.617616	0.623397	0.647113	0.644286	0.645468	0.639804	0.636221	0.635517	0.643186	0.655424	0.640597	0.644992	0.646459	0.630049	0.638272	0.631125	0.645536	0.644586	0.629519	0.638120	0.626228	0.652240	0.627882	0.634033	0.632526	0.631957	0.616449	0.637925	0.627269	0.591419	0.596389	0.591473	0.612298	0.574631	0.556952	0.559604	0.551592	0.580515	0.549985	0.570648	0.589747	0.561944	0.534212	0.537082	0.541179	0.556632	0.524222	0.537064	0.556159	0.512860	0.521015	0.525950	0.516615	0.532964	0.526570	0.520435	0.530582	0.524628	0.512733	0.532131	0.514514	0.518857	0.523779	0.512044	0.542541	0.526939	0.513553	0.542542	0.514022	0.519540	0.527155	0.519486	0.481775	0.503628	0.472775	0.488539	0.479660	0.466086	0.487142	0.454898	0.449567	0.462467	0.442049	0.429341	0.447145	0.438479	0.435686	0.446959	0.430532	0.409057	0.421941	0.414714	0.384164	0.399441	0.396031	0.394072	0.404745	0.400670	0.388617	0.379735	0.353200	0.334619	0.323441	0.309234	0.315549	0.310101	0.303855	0.312328	0.305612	0.302142	0.283738	0.272268	0.272761	0.255698	0.253625	0.240190	0.231334	0.221758	0.216297	0.201710	0.195080	0.182601	0.186757	0.177405	0.171035	0.164111	0.155040	0.147464	0.137455	0.128984	0.122498	0.115970	0.117466	0.106367	0.110885	0.109711	0.107726	0.104178	0.107701	0.098764	0.102676	0.100623	0.100659	0.105341	0.115087	0.116502	0.151513	0.177714	0.178615	0.186012	0.181897	0.196065	0.185746	0.216737	0.209916	0.230144	0.243434	0.253107	0.237763	0.250870	0.263685	0.262173	0.260835	0.267974	0.275855	0.271343	0.296498	0.292421	0.301889	0.301832	0.288945	0.324086	0.313099	0.324783	0.321138	0.322584	0.339288	0.322057	0.345171	0.335593	0.345251	0.354135	0.345487	0.361544	0.349638	0.371918	0.356204	0.368515	0.359994	0.388351	0.365853	0.368140	0.356134	0.394195	0.373413	0.371062	0.386513	0.377935	0.384113	0.394349	0.381361	0.379434	0.397235	0.383315	0.411976	0.384361	0.392534	0.386625	0.411380	0.410990	0.406738	0.411937	0.415760	0.405263	0.423179	0.416924	0.420073	0.415853	0.416728	0.419467	0.434893	0.440570	0.396490	0.420760	0.413049	0.390286	0.383766	0.374797	0.361085	0.359840	0.345404	0.336588	0.345693	0.341462	0.319631	0.333857	0.335653	0.331674	0.330274	0.332975	0.332272	0.328477	0.321200	0.303246	0.290330	0.289917	0.273669	0.267310	0.250803	0.244841	0.222721	0.225149	0.221752	0.205380	0.202645	0.193078	0.190944	0.176625	0.173650	0.162810	0.167109	0.156769	0.156368	0.151784	0.147562	0.157242	0.152650	0.157338	0.175993	0.192987	0.198956	0.217953	0.222124	0.229658	0.244370	0.248710	0.240033	0.258836	0.279446	0.273131	0.287042	0.291117	0.281097	0.292177	0.295442	0.303470	0.315822	0.303834	0.311899	0.330463	0.315658	0.335147	0.339806	0.323573	0.330176	0.337610	0.347898	0.328307	0.327212	0.318388	0.319767	0.311977	0.317397	0.313460	0.316354	0.323028	0.330057	0.317654	0.311267	0.299153	0.285627	0.279649	0.270766	0.260245	0.249660	0.242568	0.221944	0.223218	0.212515	0.206927	0.201575	0.196669	0.197427	0.188347	0.187260	0.179840	0.182648	0.182271	0.186428	0.184456	0.187242	0.199150	0.204017	0.211627	0.216603	0.232203	0.220449	0.259261	0.266471	0.269646	0.278918	0.289224	0.288097	0.303212	0.309258	0.313533	0.317180	0.306118	0.335301	0.312793	0.347328	0.335903	0.340983	0.354656	0.356223	0.351078	0.367324	0.357813	0.362351	0.363346	0.369294	0.369351	0.365115	0.364326	0.356206	0.326691	0.332110	0.327245	0.307715	0.297679	0.284262	0.276533	0.262885	0.249266	0.238569	0.216030	0.207927	0.190604	0.182555	0.165933	0.156524	0.146956	0.137907	0.129742	0.123962	0.117195	0.112469	0.106261	0.100551	0.092983	0.086822	0.080141	0.074886	0.068968	0.063773	0.058631	0.054519	0.050582	0.047779	0.044386	0.041577	0.038956	0.037623	0.035717	0.036461	0.034318	0.032857	0.030675	0.029090	0.027557	0.026788	0.026019	0.026135	0.026334	0.025907	0.024933	0.023515	0.022460	0.021428	0.021821	0.021201	0.021046	0.020880	0.020049	0.019469	0.018710	0.019202	0.019203	0.019110	0.018917	0.018946	0.018934	0.018427	0.017831	0.018260	0.018520	0.019401	0.019383	0.018709	0.018335	0.017897	0.017821	0.017182	0.017299	0.017541	0.017876	0.018068	0.017668	0.017942	0.018106	0.017781	0.017967	0.017764	0.017220	0.016890	0.016733	0.017480	0.017909	0.017784	0.017793	0.017365	0.018380	0.018416	0.018219	
166 2
0.009316	0.012070	0.008958	0.026848	0.004364	0.007576	0.006976	0.000449	0.009702	0.015300	0.003206	0.000436	0.008521	0.007998	0.005396	0.002286	0.000495	0.001478	0.002218	0.005269	0.006019	0.023943	0.008578	0.005452	0.066958	0.095339	0.040132	0.072148	0.102260	0.002765	0.044292	0.256723	0.251072	0.064023	0.220820	0.098762	0.013495	0.038863	0.194129	0.244184	0.318135	0.299602	0.105922	0.407010	0.077985	0.031444	0.130982	0.098639	0.094511	0.010640	0.322168	0.159164	0.005214	0.035465	0.227074	0.009161	0.185137	0.190126	0.046183	0.151212	0.368929	0.185337	0.499867	0.025424	0.066303	0.259858	0.008569	0.126666	0.183109	0.215120	0.073319	0.088563	0.003357	0.012558	0.224973	0.267376	0.246129	0.034242	0.116829	0.212761	0.279334	0.149569	0.167215	0.153522	0.279984	0.143311	0.232398	0.169681	0.141789	0.084224	0.044206	0.164709	0.059382	0.220452	0.191144	0.456487	0.283360	0.001875	0.142146	0.019180	0.175843	0.013426	0.066105	0.112618	0.071000	0.190917	0.424615	0.157113	0.287538	0.184206	0.070667	0.081638	0.003214	0.143644	0.109271	0.192073	0.120445	0.294843	0.039068	0.376471	0.258536	0.192907	0.475291	0.251207	0.420667	0.012640	0.274305	0.033167	0.081232	0.107810	0.107501	0.048392	0.276310	0.193735	0.186854	0.042101	0.113830	0.016179	0.227485	0.065907	0.037389	0.017881	0.258902	0.225585	0.033447	0.037311	0.257440	0.071652	0.094112	0.001256	0.316455	0.231449	0.771283	0.196744	0.276061	0.359128	0.487255	0.071314	0.040931	0.185762	0.298588	0.172907	0.264966	0.116704	0.256325	0.486154	0.462604	0.164719	0.173508	0.111986	0.709160	0.575121	0.753127	0.264062	0.025620	0.193669	0.469874	0.228400	0.029414	0.121397	0.043318	0.137719	0.021025	0.121566	0.103480	0.093788	0.071772	0.189904	0.092003	0.178221	0.160870	0.022960	0.132336	0.103153	0.134482	0.078894	0.165165	0.460160	0.248492	0.132785	0.154077	0.020027	0.357885	0.080503	0.189472	0.102589	0.096803	0.221606	0.033019	0.032297	0.103771	0.343406	0.570947	0.301076	0.913907	0.492967	0.364157	0.112138	0.323693	0.523555	0.234902	0.201292	0.286947	0.094790	0.182363	0.056191	0.339271	0.008323	0.544179	0.100376	0.039013	0.036927	0.485355	0.399236	0.520593	0.389920	0.094111	0.249593	0.723504	0.160726	0.410401	0.123823	0.250208	0.062685	0.069854	0.011759	0.033424	0.005859	0.026439	0.014286	0.081185	0.039182	0.021062	0.015066	0.132780	0.004634	0.067101	0.021735	0.176720	0.000602	0.012038	0.004588	0.043646	0.024255	0.010317	0.007333	0.015321	0.006109	0.020520	0.014458	0.005219	0.011424	0.001119	0.012019	0.012536	0.002292	0.010987	0.006357	0.095037	0.006459	0.007391	0.007309	0.062515	0.011721	0.057145	0.003003	0.020201	0.001799	0.024567	0.123858	0.017450	0.016753	0.044620	0.008507	0.104726	0.003145	0.032451	0.001314	0.002396	0.002051	0.004454	0.012001	0.011539	0.000542	0.136328	0.013065	0.013486	0.010591	0.005317	0.012689	0.015795	0.005640	0.017660	0.014384	0.012082	0.012707	0.007510	0.020873	0.013209	0.019435	0.043164	0.008259	0.070801	0.004653	0.002967	0.001360	0.017375	0.006619	0.024718	0.017588	0.015978	0.004251	
166 1
0.008509	0.010811	0.012684	0.010479	0.008362	0.007030	0.007818	0.007698	0.008289	0.008242	0.007370	0.004262	0.001080	0.010782	0.010317	0.000019	0.011582	0.002496	0.005229	0.010139	0.035531	0.042215	0.043105	0.056580	0.080381	0.097031	0.105167	0.113630	0.123486	0.126164	0.126911	0.133834	0.132658	0.137776	0.155797	0.164405	0.170836	0.182756	0.183778	0.178453	0.178911	0.178775	0.180965	0.185025	0.184427	0.190847	0.201765	0.210854	0.204617	0.196723	0.206725	0.216914	0.220967	0.222014	0.218485	0.203738	0.203282	0.214375	0.220026	0.219231	0.216053	0.220021	0.217209	0.210670	0.216878	0.233461	0.251609	0.246823	0.240001	0.241405	0.235388	0.239699	0.226814	0.228957	0.219839	0.227590	0.231529	0.236198	0.228844	0.222098	0.237834	0.251604	0.271292	0.277707	0.263164	0.280324	0.284619	0.303524	0.331851	0.319282	0.318536	0.330464	0.333219	0.324484	0.312403	0.300036	0.294821	0.287389	0.295381	0.292963	0.275393	0.282568	0.281645	0.280437	0.266623	0.281026	0.300746	0.290065	0.321859	0.323280	0.332560	0.320529	0.312901	0.324503	0.345444	0.319377	0.352775	0.372719	0.363410	0.374817	0.385399	0.360854	0.339517	0.354037	0.358483	0.347930	0.322998	0.309815	0.284642	0.273465	0.249549	0.241429	0.222392	0.209718	0.193222	0.177565	0.161657	0.146790	0.132970	0.125304	0.113686	0.105956	0.098514	0.090740	0.087122	0.082041	0.077251	0.075261	0.071681	0.064621	0.058498	0.053707	0.056493	0.054643	0.049008	0.044629	0.042434	0.039718	0.037274	0.035457	0.035208	0.036578	0.034284	0.030954	0.030403	0.029378	
211 2
0.002191	0.001082	0.010795	0.005165	0.014809	0.003431	0.011266	0.001647	0.015353	0.015653	0.037905	0.039119	0.074255	0.020065	0.047640	0.066458	0.074249	0.119317	0.009611	0.006227	0.046833	0.016422	0.080163	0.073516	0.064153	0.054221	0.021995	0.012669	0.038811	0.039843	0.004758	0.020369	0.013404	0.026554	0.009422	0.025303	0.087439	0.000682	0.009092	0.002861	0.009255	0.007941	0.006436	0.005613	0.007289	0.005327	0.001848	0.015070	0.009865	0.015500	0.002914	0.000685	0.011510	0.004548	0.001988	0.004427	0.003006	0.002185	0.005754	0.003466	0.000550	0.002658	0.014592	0.000612	0.002803	0.010295	0.043166	0.015354	0.174533	0.058716	0.305081	0.024788	0.380920	0.245261	0.251598	0.126215	0.386303	0.082042	0.240903	0.174259	0.128884	0.120499	0.169180	0.132807	0.163320	0.075741	0.120103	0.079985	0.035381	0.098776	0.003409	0.021099	0.013050	0.049494	0.150845	0.064967	0.560259	0.027218	0.071566	0.006265	0.273224	0.249971	0.265377	0.177588	0.268595	0.099734	0.173021	0.221768	0.018593	0.166553	0.309844	0.197235	0.324276	0.099913	0.100403	0.059323	0.089473	0.052425	0.301084	0.164746	0.012208	0.165797	0.248584	0.158043	0.246554	0.043827	0.564323	0.179293	0.512819	0.315479	0.439144	0.101408	0.031033	0.311990	0.270081	0.155528	0.025218	0.107660	0.002774	0.114888	0.116112	0.070034	0.234649	0.127149	0.300372	0.130242	0.060767	0.081897	0.169826	0.122937	0.025911	0.453345	0.171400	0.068081	0.055668	0.117337	0.081566	0.065109	0.172066	0.036902	0.078974	0.182021	0.062498	0.025703	0.070048	0.024329	0.354258	0.050907	0.292365	0.040575	0.372336	0.410374	0.786418	0.309889	0.204575	0.207326	0.247964	0.258426	0.265328	0.134897	0.340669	0.694183	0.876415	0.205573	0.338655	0.313320	0.229409	0.270800	0.771895	0.055050	0.155341	0.171552	0.135205	0.153833	0.116223	0.113743	0.027774	0.010710	0.019030	0.017766	0.091912	0.161517	0.054256	0.048442	0.285460	0.080723	0.223969	0.034795	0.214918	0.195646	0.681130	0.144494	0.239074	0.005880	0.189309	0.013957	0.062448	0.003213	0.007455	0.003067	0.003624	0.001080	0.422479	0.121508	0.316722	0.309933	0.216956	0.006339	0.080963	0.097560	0.093103	0.037952	0.200518	0.199298	0.025908	0.282336	0.538221	0.021103	0.390227	0.062516	0.160897	0.019137	0.037268	0.090982	0.306297	0.068405	0.014551	0.015071	0.029340	0.087028	0.031781	0.019497	0.087149	0.023780	0.258433	0.025606	0.023145	0.025364	0.461588	0.346099	0.835131	0.265300	0.316794	0.006557	0.430360	0.099150	0.173319	0.065678	0.025398	0.018880	0.085074	0.027416	0.042019	0.016570	0.053761	0.005146	0.023013	0.024637	0.016396	0.003060	0.013175	0.008989	0.024329	0.003068	0.025270	0.024128	0.028705	0.009527	0.053569	0.027456	0.011956	0.010849	0.019333	0.007075	0.001483	0.009658	0.004971	0.013367	0.001123	0.010567	0.023567	0.002263	0.002187	0.000190	0.004834	0.005962	0.003267	0.008730	0.003204	0.007160	0.001981	0.017399	0.003407	0.008411	0.018224	0.011963	0.000257	0.005232	0.000937	0.003830	0.007457	0.014307	0.004439	0.000344	0.007506	0.005838	0.004749	0.008274	0.000163	0.009480	0.013007	0.001604	0.007397	0.008877	0.002935	0.005774	0.013381	0.009216	0.003495	0.000121	0.005439	0.008024	0.001947	0.009532	0.012773	0.006220	0.001850	0.009469	0.007328	0.006086	0.003633	0.005744	0.004703	0.007883	0.013895	0.000142	0.005530	0.006822	0.004576	0.000329	0.000006	0.012341	0.001798	0.010438	0.007728	0.012833	0.002339	0.003627	0.001494	0.004185	0.003456	0.004972	0.007089	0.004860	0.004887	0.007901	0.004406	0.000556	0.007824	0.004118	0.001596	0.001212	0.000003	0.007649	0.011181	0.004258	0.005244	0.008715	0.004326	0.001281	0.001857	0.005990	0.001297	0.009587	0.006860	0.010086	0.009070	0.001612	0.007799	0.000986	0.000156	0.002162	0.002583	0.004172	0.014568	0.010043	0.001927	0.004200	0.006109	0.010833	0.000083	0.004925	0.003706	0.004453	0.004381	0.006778	0.004793	0.001272	0.010124	0.010409	0.000323	0.011828	
211 1
0.002551	0.003644	0.007274	0.006754	0.005114	0.006278	0.004761	0.002695	0.001048	-0.002893	-0.001387	-0.001002	0.005164	0.011797	0.015532	0.023545	0.021997	0.020172	0.017894	0.017539	0.014282	0.014439	0.014508	0.014155	0.014200	0.013935	0.011992	0.012118	0.010697	0.009928	0.009471	0.008505	0.008881	0.008988	0.015263	0.024775	0.021198	0.021635	0.003587	0.018809	0.027132	0.039843	0.058861	0.071211	0.082790	0.093057	0.102336	0.109175	0.113648	0.111778	0.100050	0.114827	0.112537	0.118635	0.127925	0.138584	0.153549	0.155235	0.164298	0.180381	0.185037	0.186395	0.190943	0.194241	0.196334	0.200906	0.210686	0.234787	0.244668	0.259003	0.272159	0.276284	0.273341	0.263239	0.265164	0.269287	0.264608	0.261621	0.264658	0.269098	0.267991	0.260557	0.259973	0.261639	0.255707	0.257286	0.248139	0.264315	0.270775	0.287086	0.304930	0.295829	0.331296	0.352137	0.371349	0.377128	0.372707	0.373959	0.368026	0.373102	0.369859	0.348864	0.348045	0.331487	0.332041	0.349330	0.342687	0.325604	0.324183	0.326366	0.325769	0.327050	0.320774	0.308875	0.300169	0.297954	0.306381	0.302220	0.313075	0.321173	0.305418	0.299857	0.312587	0.297932	0.302619	0.293968	0.292368	0.285042	0.266355	0.279582	0.306284	0.311958	0.305206	0.297947	0.279400	0.293461	0.291793	0.289745	0.280269	0.269772	0.257836	0.243527	0.228520	0.212277	0.199099	0.182514	0.170165	0.155697	0.143216	0.130277	0.119462	0.107865	0.097687	0.088444	0.080249	0.073209	0.066805	0.062027	0.056739	0.051370	0.047716	0.044152	0.040810	0.038189	0.035612	0.033615	0.032088	0.030240	0.029164	0.027702	0.026172	0.025187	0.024681	0.023933	0.023105	0.022307	0.021627	0.021354	0.020927	0.020116	0.019517	0.019334	0.019553	0.019242	0.018431	0.018015	0.017987	0.018026	0.017721	0.017569	0.017246	0.016853	0.017271	0.017634	0.017463	0.017143	0.017136	0.017553	0.017816	0.017679	0.017163	0.016836	0.017649	0.017834	0.017855	0.017715	0.017436	0.017451	0.017373	0.017761	0.018001	
232 2
0.019446	0.001557	0.001789	0.000753	0.001150	0.006191	0.004925	0.000297	0.004361	0.001161	0.011437	0.003808	0.006513	0.005179	0.003130	0.001602	0.000611	0.012942	0.016010	0.002072	0.003624	0.005501	0.001751	0.005556	0.001745	0.002189	0.004822	0.005440	0.000974	0.002696	0.012392	0.004521	0.010980	0.005005	0.006272	0.013905	0.010941	0.011401	0.013570	0.026397	0.006128	0.028503	0.015158	0.102817	0.133659	0.070044	0.188505	0.001474	0.035748	0.025978	0.045038	0.015120	0.016239	0.120466	0.230544	0.004856	0.748522	0.160675	0.112725	0.205834	0.306899	0.181334	0.105907	0.232300	0.228112	0.308251	0.106806	0.056713	0.082806	0.009080	0.039363	0.081979	0.289482	0.310356	0.222299	0.091621	0.186834	0.052735	0.293229	0.162736	0.078072	0.272653	0.009904	0.152157	0.173616	0.032259	0.211647	0.065476	0.002822	0.091020	0.024401	0.116538	0.259642	0.140366	0.253375	0.037819	0.230548	0.060791	0.114342	0.145087	0.080968	0.015743	0.080953	0.105770	0.199541	0.033389	0.069228	0.012873	0.185405	0.131937	0.253154	0.111735	0.373200	0.042783	0.229501	0.117381	0.152795	0.051395	0.005116	0.161895	0.145623	0.133291	0.083168	0.096737	0.161301	0.193638	0.121758	0.233862	0.095691	0.348256	0.102588	0.365508	0.041774	0.161226	0.352731	0.103755	0.212508	0.037784	0.061189	0.021194	0.092585	0.204153	0.037616	0.160654	0.047176	0.080999	0.014924	0.101662	0.084836	0.102156	0.249046	0.019665	0.031806	0.144388	0.421919	0.084430	0.004113	0.114462	0.461691	0.365122	0.108391	0.008502	0.198365	0.182124	0.091092	0.066949	0.032863	0.005741	0.043749	0.039325	0.101235	0.010088	0.079072	0.110373	0.080075	0.086731	0.067851	0.080809	0.005614	0.137397	0.144101	0.002610	0.041582	0.124521	0.084027	0.220095	0.044438	0.069073	0.247503	0.217461	0.080238	0.316966	0.054492	0.036326	0.008027	0.204717	0.337945	0.056453	0.162985	0.064068	0.161276	0.082041	0.113315	0.150029	0.212876	0.051578	0.034398	0.121616	0.034555	0.060184	0.185397	0.176254	0.161619	0.011745	0.143231	0.267076	0.099755	0.121188	0.030571	0.090274	0.149506	0.108488	0.085114	0.051623	0.041046	0.125072	0.016603	0.059483	0.143065	0.093176	0.356603	0.248274	0.092938	0.178583	0.218921	0.099838	0.031922	0.016457	0.346547	0.078546	0.120686	0.102617	0.260904	0.010176	0.230586	0.081200	0.151440	0.099045	0.270981	0.195840	0.590211	0.136888	0.287191	0.005657	0.059566	0.274153	0.133552	0.180815	0.056396	0.071414	0.039734	0.119704	0.151733	0.189047	0.216712	0.006247	0.156222	0.003514	0.118631	0.016151	0.164161	0.025991	0.241104	0.079591	0.123827	0.127419	0.155416	0.109362	0.127059	0.035684	0.104779	0.024055	0.230455	0.100040	0.106175	0.088353	0.025729	0.147179	0.061610	0.246056	0.011994	0.188802	0.171005	0.325249	0.014452	0.092243	0.120635	0.101345	0.210215	0.150626	0.217967	0.077817	0.044981	0.100816	0.038591	0.080479	0.078750	0.039004	0.007078	0.084917	0.232911	0.219983	0.057412	0.153887	0.239417	0.053031	0.010325	0.050291	0.224457	0.063869	0.155047	0.033520	0.151509	0.102894	0.036273	0.016958	0.070234	0.031887	0.027637	0.003403	0.013661	0.016929	0.061343	0.021808	0.011432	0.009351	0.008344	0.044598	0.008266	0.019511	0.011328	0.018464	0.056533	0.001112	0.009803	0.003993	0.000753	0.002510	0.003657	0.020383	0.011533	0.027987	0.025074	0.063526	0.012958	0.003697	0.035855	0.011458	0.007556	0.010569	0.020568	0.004458	0.009193	0.008076	0.087308	0.006622	0.051954	0.009088	0.007597	0.004746	0.005377	0.003503	0.000988	0.002808	0.034067	0.000496	0.000256	0.006231	0.017676	0.032453	0.011319	0.003960	0.034858	0.012066	0.054226	0.007751	0.043467	0.002011	0.001312	0.008347	0.000856	0.008652	0.002556	0.011034	0.013449	0.028810	0.005734	0.022673	0.002001	0.010866	0.003281	0.001534	0.010165	0.000207	0.005215	0.014425	0.006056	0.004650	0.008071	0.007478	0.001326	0.010340	0.013432	0.013246	0.007183	0.005120	0.012289	0.013749	0.005793	0.002346	0.007992	0.008332	0.002216	0.019127	0.008728	0.010188	0.014102	0.005967	0.010638	0.007405	0.002030	0.005237	0.005023	0.003013	0.001241	0.003571	0.007534	0.005494	0.012595	0.004455	0.005758	0.010673	0.004218	0.008152	0.006220	0.010313	0.007551	0.006036	0.001871	0.000408	0.004812	0.002511	0.007333	0.003963	0.005381	0.004267	0.004880	0.011588	0.006838	0.003403	0.014373	0.005805	0.004545	0.010421	
232 1
0.010657	0.007307	0.007862	0.006762	0.003751	0.003581	0.003470	0.003771	0.004228	0.004077	0.004691	0.001195	0.002757	0.006637	0.006450	0.003849	0.002368	0.001436	0.001843	0.002326	0.004039	0.004041	0.009041	0.011672	0.009889	0.007414	0.010136	0.017876	0.020406	0.039556	0.009488	0.032741	0.044181	0.061739	0.073797	0.097653	0.114936	0.123970	0.118235	0.128226	0.139357	0.141497	0.152497	0.165244	0.169159	0.173845	0.178004	0.177022	0.172735	0.172733	0.173950	0.179581	0.183850	0.182772	0.183431	0.182307	0.179281	0.177279	0.177289	0.181877	0.189860	0.192678	0.195726	0.197486	0.198554	0.201575	0.202264	0.211772	0.220273	0.221602	0.232799	0.234475	0.232763	0.232168	0.233050	0.230977	0.224975	0.224508	0.218475	0.220673	0.223922	0.226028	0.231438	0.233620	0.240057	0.241464	0.237409	0.228349	0.220879	0.213906	0.208935	0.204133	0.200183	0.191293	0.193392	0.196918	0.187359	0.191755	0.198673	0.200755	0.200886	0.204095	0.205905	0.205971	0.205564	0.211403	0.206757	0.210571	0.206560	0.205427	0.210133	0.208714	0.209865	0.205939	0.208823	0.208443	0.205381	0.203762	0.202522	0.214841	0.213692	0.215352	0.218131	0.218480	0.222867	0.225954	0.229398	0.234539	0.240582	0.241854	0.248386	0.251368	0.246010	0.246569	0.246950	0.247446	0.244306	0.236776	0.234673	0.232049	0.233817	0.235774	0.227867	0.227264	0.226209	0.220611	0.223150	0.216644	0.225467	0.226787	0.225384	0.225453	0.229322	0.231645	0.229855	0.227875	0.214548	0.217737	0.214551	0.223618	0.216877	0.218475	0.213833	0.220835	0.216306	0.215756	0.209907	0.198781	0.191730	0.179631	0.170097	0.160179	0.147638	0.136974	0.126252	0.116422	0.108884	0.099440	0.093756	0.085605	0.079636	0.072887	0.071014	0.066768	0.061787	0.056616	0.051678	0.048761	0.044591	0.042530	0.039823	0.038541	0.038246	0.037415	0.034562	0.031773	0.029534	0.028838	0.027988	0.026374	0.024325	0.022711	0.021686	0.020710	0.019829	0.018945	0.018890	0.018503	0.018340	0.017790	0.017204	0.017010	0.017046	0.017051	0.016882	0.016179	0.015464	0.014734	0.014492	0.014734	0.014810	0.014717	0.014731	0.014776	0.014218	0.013721	0.013681	0.013647	0.013803	0.013965	0.014360	0.014513	
222 2
0.002693	0.000048	0.000235	0.004024	0.008188	0.017115	0.009848	0.001769	0.006594	0.001876	0.004165	0.001474	0.000493	0.002041	0.008513	0.010242	0.008063	0.001777	0.009742	0.003053	0.000462	0.001654	0.000787	0.005194	0.001922	0.008291	0.002056	0.008505	0.005567	0.005942	0.010761	0.001122	0.001829	0.000444	0.003423	0.002866	0.000566	0.011795	0.007966	0.008962	0.009520	0.003118	0.002850	0.001448	0.001385	0.000985	0.006470	0.004187	0.004685	0.002005	0.000209	0.000244	0.006335	0.007512	0.000182	0.008248	0.008966	0.006755	0.006783	0.006781	0.007971	0.006720	0.003959	0.002239	0.004675	0.001760	0.006984	0.002635	0.003537	0.011191	0.003919	0.008990	0.005357	0.003215	0.003006	0.008458	0.005066	0.003966	0.004798	0.008384	0.009638	0.002558	0.009728	0.004054	0.004439	0.000860	0.001322	0.004051	0.003254	0.002337	0.013343	0.002531	0.006553	0.005353	0.002092	0.003623	0.000838	0.001963	0.001961	0.003083	0.013120	0.001149	0.005917	0.010617	0.002208	0.002005	0.005559	0.010155	0.005680	0.006478	0.002770	0.006146	0.007119	0.000840	0.004540	0.002337	0.000324	0.006116	0.010735	0.003856	0.003738	0.004522	0.011529	0.009220	0.008568	0.001305	0.000881	0.000617	0.002662	0.000973	0.000247	0.007058	0.010361	0.010644	0.006196	0.010098	0.002414	0.000411	0.004257	0.001964	0.001435	0.008297	0.012465	0.003271	0.009369	0.003524	0.001461	0.000820	0.004624	0.001881	0.008229	0.005931	0.006550	0.008190	0.009432	0.003915	0.003822	0.005213	0.006008	0.001915	0.001788	0.001295	0.000554	0.014271	0.051778	0.009716	0.070204	0.016245	0.074734	0.004501	0.058143	0.000340	0.080732	0.011475	0.002964	0.003769	0.190210	0.001629	0.215841	0.008733	0.034151	0.006534	0.046139	0.002505	0.038340	0.005243	0.013204	0.001214	0.015501	0.006707	0.017849	0.009717	0.033170	0.002306	0.121614	0.026444	0.090251	0.009687	0.167111	0.047888	0.039582	0.138993	0.131978	0.055886	0.064314	0.025548	0.071527	0.075565	0.022625	0.011901	0.031627	0.034932	0.301633	0.013625	0.344889	0.157245	0.024602	0.098429	0.264263	0.101252	0.219284	0.086530	0.059572	0.004040	0.145746	0.030035	0.128957	0.037174	0.046560	0.026946	0.148682	0.058768	0.095782	0.038475	0.026964	0.114001	0.251728	0.078890	0.485118	0.007223	0.007137	0.066571	0.102897	0.039912	0.106704	0.069751	0.166153	0.017329	0.068239	0.062628	0.034967	0.012645	0.011100	0.059078	0.132974	0.022845	0.222617	0.087446	0.163586	0.255730	0.220119	0.057355	0.063217	0.331692	0.012505	0.059849	0.101541	0.067512	0.060516	0.003808	0.140410	0.022245	0.186142	0.091674	0.537486	0.170261	0.103419	0.060423	0.113444	0.343802	0.075340	0.002513	0.236464	0.073136	0.103476	0.028746	0.146389	0.066218	0.166422	0.187873	0.252433	0.012189	0.040901	0.027511	0.051356	0.214093	0.033778	0.224031	0.077758	0.041752	0.183060	0.155827	0.030526	0.005493	0.111164	0.063285	0.071558	0.256367	0.111579	0.006091	0.040614	0.025535	0.257934	0.123450	0.226197	0.030571	0.078893	0.050532	0.470566	0.128925	0.180566	0.098160	0.332223	0.107827	0.293406	0.013111	0.144669	0.084085	0.237704	0.022464	0.356878	0.084842	0.214761	0.068979	0.315438	0.089289	0.258099	0.281245	0.116143	0.037247	0.235349	0.043060	0.033794	0.036000	0.041810	0.034227	0.049239	0.025035	0.063116	0.007042	0.001642	0.034606	0.014298	0.024124	0.027861	0.007937	0.007075	0.007830	0.050610	0.008491	0.076510	0.008090	0.032444	0.037422	0.011986	0.016046	0.022132	0.007636	0.015934	0.014459	0.007272	0.023886	0.005958	0.014314	0.013054	0.001695	0.004307	0.006810	0.010932	0.005584	0.003093	0.001840	0.013747	0.007893	0.002451	0.002333	0.002168	0.000139	0.004248	0.008873	0.002478	0.001874	0.006574	0.008936	0.007583	0.014926	0.004823	0.010768	0.001334	0.006283	0.002156	0.002499	0.004359	0.013552	0.000286	0.000653	0.023514	0.001357	0.027940	0.005565	0.001007	0.003905	0.011012	0.003683	0.004007	0.005516	0.009917	0.008545	0.004291	0.000311	0.005544	0.002857	0.007598	0.006491	0.013036	0.017756	0.006684	0.000037	0.001727	0.009834	0.006735	0.000560	0.006586	0.001664	0.000881	0.007182	0.007515	0.004873	0.000434	0.007663	0.000452	0.011491	0.004394	0.003853	
222 1
0.002533	0.000711	0.004805	0.005363	0.002529	0.002159	0.002866	0.003713	0.003486	0.003476	0.004613	0.000572	0.001879	0.006302	0.005862	0.003627	0.001741	0.000657	0.000859	0.001858	0.002671	0.003020	0.003064	0.003416	0.004132	0.003767	0.003362	0.004011	0.003352	0.003525	0.003024	0.002554	0.001537	0.001301	0.001380	0.001315	0.000690	0.000145	0.000038	-0.000279	-0.000160	-0.000298	-0.000506	-0.001423	-0.001579	-0.001294	-0.000398	-0.001053	-0.001867	-0.002094	-0.001586	-0.000476	-0.000774	-0.001650	-0.000730	-0.001174	-0.001589	-0.001603	-0.001711	-0.001549	-0.000850	-0.001013	-0.000210	-0.001383	-0.002204	-0.001768	-0.000943	0.000298	-0.000547	-0.001651	-0.001059	-0.000466	0.000254	-0.000189	-0.001007	-0.000165	0.000775	0.000878	0.000762	0.000375	0.000165	0.000198	0.002867	0.008049	0.009541	0.007629	0.006199	0.006038	0.004071	0.014824	0.012241	-0.000066	0.002756	0.004343	0.002594	0.003100	0.003009	0.006741	0.012285	0.010812	0.012137	0.007823	0.007232	0.008044	0.011610	0.012870	0.019285	0.027382	0.025232	0.015216	0.030565	0.034625	0.042290	0.055523	0.061954	0.066821	0.071407	0.073314	0.074396	0.074608	0.076324	0.079367	0.090131	0.096613	0.099424	0.102497	0.106806	0.109035	0.107323	0.100579	0.094683	0.096716	0.099684	0.112930	0.121296	0.130310	0.129805	0.118966	0.120538	0.124079	0.131077	0.146045	0.150797	0.159152	0.158607	0.156704	0.161303	0.168690	0.164482	0.164979	0.168927	0.165762	0.177206	0.170726	0.165656	0.172395	0.173276	0.163867	0.165405	0.162792	0.159904	0.163095	0.169133	0.179012	0.188051	0.189841	0.190464	0.194953	0.191989	0.200311	0.216190	0.221884	0.234962	0.237302	0.236419	0.230793	0.225724	0.216965	0.206289	0.196660	0.183634	0.170172	0.158798	0.149691	0.139225	0.128999	0.118786	0.109303	0.099701	0.090991	0.082182	0.075013	0.067490	0.060755	0.055010	0.049671	0.045332	0.041861	0.038580	0.035220	0.032076	0.029796	0.027324	0.026092	0.025621	0.023765	0.022224	0.020843	0.019955	0.018748	0.017553	0.016857	0.016963	0.016427	0.015465	0.014819	0.014166	0.013501	0.013249	0.012813	0.012489	0.012290	
109 2
0.007428	0.000412	0.012123	0.004168	0.010329	0.000417	0.011297	0.003381	0.002642	0.004008	0.001983	0.008342	0.013391	0.018553	0.007639	0.002679	0.019124	0.005854	0.012661	0.029418	0.083555	0.004703	0.014822	0.012733	0.019227	0.040401	0.020617	0.018330	0.031708	0.065368	0.019097	0.075075	0.030495	0.194987	0.014557	0.080681	0.034937	0.117687	0.100366	0.147457	0.087687	0.161388	0.063008	0.077406	0.187123	0.027853	0.111766	0.566187	0.059973	0.071803	0.025170	0.329179	0.153141	0.026915	0.127056	0.168395	0.046823	0.177588	0.152981	0.244472	0.077306	0.462403	0.024527	0.109257	0.244244	0.267323	0.133645	0.267381	0.258893	0.094297	0.001989	0.751173	0.226850	0.103046	0.043673	0.132442	0.141853	0.021732	0.002660	0.104659	0.194596	0.159532	0.475904	0.129597	0.082354	0.320768	0.091372	0.107827	0.044241	0.548868	0.486504	0.357020	0.101732	0.131357	0.446893	0.114333	0.389036	0.067303	0.100375	0.237754	0.058468	0.091605	0.110623	0.155351	0.145218	0.003063	0.014293	0.050431	0.030465	0.053078	0.048411	0.043923	0.076612	0.004095	0.014414	0.000462	0.062996	0.079320	0.011266	0.046171	0.029346	0.011554	0.002305	0.019079	0.020889	0.013214	0.003123	0.027886	0.008781	0.000456	0.017424	0.017507	0.006167	0.006299	0.041701	0.005258	0.001719	0.007357	0.017967	0.004634	0.015328	0.006815	0.009504	0.000459	0.012273	0.012484	0.016664	0.007841	0.116052	0.002221	0.075768	0.003196	0.012545	0.002437	0.011951	0.018211	0.008691	0.000547	0.026607	0.019578	0.004524	0.000732	0.014323	0.085293	0.010567	0.004883	0.005644	0.004610	0.025088	0.022870	0.019012	0.003908	0.001100	0.004095	0.014947	0.004478	0.029300	0.014654	0.019687	0.011980	0.002460	0.001037	0.007543	0.018797	0.007058	0.010338	0.009332	0.012167	0.008339	0.009166	0.000559	0.002665	0.009588	0.010359	0.004827	0.000000	0.005253	0.002759	0.002179	0.026236	0.004946	0.006035	0.006949	0.011109	0.005747	0.011570	0.000093	0.008829	0.014924	0.005623	0.011076	0.006828	0.004030	0.004305	0.013564	0.006435	0.002696	0.024762	
109 1
0.004814	0.005618	0.007878	0.007241	0.004056	0.003821	0.004552	0.003515	0.003314	0.002287	0.001583	0.000888	0.003033	0.010670	0.009550	0.010123	0.005857	0.011761	0.006453	0.009740	0.014179	0.016841	0.019546	0.028968	0.042138	0.032542	0.052358	0.061058	0.075395	0.084897	0.098224	0.100788	0.109532	0.129684	0.135033	0.150015	0.161442	0.166258	0.190320	0.209280	0.222351	0.226201	0.220308	0.213720	0.226072	0.236128	0.229488	0.252036	0.268611	0.273417	0.277293	0.293142	0.294985	0.295299	0.295354	0.289805	0.280336	0.267285	0.255122	0.238114	0.224696	0.208484	0.195245	0.179848	0.165055	0.150040	0.136939	0.124163	0.113035	0.100679	0.091032	0.081958	0.073112	0.066815	0.064470	0.065318	0.057041	0.047563	0.043546	0.039422	0.036854	0.034335	0.034569	0.026646	0.024327	0.024572	0.019750	0.016469	0.016778	0.016978	0.013568	0.010626	0.010536	0.009053	0.008067	0.006274	0.004776	0.004574	0.002881	0.003248	0.003477	0.002264	0.002311	0.001606	0.001046	0.001701	0.000957	0.000433	0.001480	
151 2
0.009169	0.005083	0.007203	0.004820	0.008153	0.001543	0.005884	0.009528	0.001535	0.002538	0.005344	0.009858	0.008650	0.000791	0.005439	0.002878	0.002079	0.005366	0.000085	0.001841	0.003385	0.009661	0.010559	0.002226	0.006652	0.002527	0.002471	0.000418	0.005919	0.014573	0.007758	0.002495	0.009492	0.004387	0.002217	0.001791	0.005797	0.010562	0.010037	0.013721	0.001199	0.006751	0.002890	0.004760	0.007441	0.004503	0.002151	0.009633	0.006218	0.001144	0.012087	0.003755	0.012316	0.000163	0.012723	0.000630	0.000011	0.004012	0.007080	0.005328	0.003896	0.002365	0.012711	0.013916	0.024801	0.057289	0.085729	0.036675	0.010272	0.174963	0.277270	0.096079	0.366971	0.135491	0.219465	0.342337	0.297731	0.038201	0.194172	0.040107	0.037308	0.194012	0.097229	0.076234	0.195611	0.094627	0.136428	0.155001	0.647253	0.107825	0.053084	0.134764	0.068775	0.325428	0.126476	0.039574	0.000674	0.200820	0.080165	0.148520	0.066415	0.034810	0.045767	0.083763	0.103832	0.110449	0.010808	0.135933	0.249587	0.013436	0.131768	0.031972	0.067253	0.019904	0.015488	0.084172	0.081964	0.155614	0.013931	0.024963	0.069561	0.029804	0.074772	0.017505	0.012481	0.029424	0.014111	0.026754	0.024571	0.015248	0.000740	0.008232	0.003931	0.037412	0.019801	0.001084	0.047930	0.023439	0.002578	0.030513	0.002117	0.050045	0.008044	0.003603	0.019622	0.075667	0.034970	0.063324	0.063513	0.025212	0.024481	0.000557	0.044220	0.002594	0.038610	0.011344	0.001268	0.025804	0.020420	0.000864	0.011438	0.013855	0.018958	0.060100	0.005239	0.028503	0.001358	0.005190	0.001487	0.013857	0.004933	0.007321	0.020309	0.002879	0.006383	0.001835	0.000377	0.007373	0.015228	0.017020	0.020086	0.026162	0.001068	0.023447	0.001673	0.008289	0.004123	0.001227	0.010119	0.008949	0.012251	0.008811	0.003046	0.009106	0.002264	0.003723	0.013533	0.003297	0.028736	0.006286	0.001569	0.000919	0.009011	0.002309	0.004666	0.009787	0.019724	0.017662	0.012934	0.008018	0.006546	0.002737	0.003190	0.009651	0.003198	0.013281	0.005378	0.014252	0.022836	0.005027	0.025987	0.002976	0.004362	0.002099	0.003873	0.009497	0.001139	0.006743	0.010334	0.011094	0.001588	0.010574	0.008366	0.013012	0.001582	0.003560	0.005228	0.004157	0.008291	0.001801	0.007656	0.012581	0.001331	0.002541	0.000853	0.003026	0.000704	0.000797	0.008351	0.004882	0.002040	0.008070	0.002806	0.009330	0.004856	0.005038	0.006356	0.002995	0.000067	0.004627	0.005645	0.003658	0.006652	0.000709	0.003376	0.010229	0.000879	0.015376	0.010147	0.006127	0.006180	0.007411	0.001937	0.001115	0.005104	0.000369	0.008338	0.009842	0.000560	0.005948	0.010814	0.017091	0.004730	0.001144	0.009528	0.002687	0.003029	0.000161	0.009434	0.005118	0.007614	0.005844	0.011383	0.011439	0.005568	0.007999	0.003528	0.009108	0.005730	0.014422	0.004930	0.000953	
151 1
0.006750	0.006235	0.008068	0.007368	0.004162	0.004214	0.004155	0.004553	0.004994	0.005583	0.005426	0.001302	0.002456	0.006706	0.005734	0.004635	0.002097	0.001572	0.001136	0.002353	0.003427	0.003167	0.003737	0.004362	0.004484	0.004280	0.004780	0.004355	0.003985	0.003003	0.003146	0.002676	0.004759	0.008491	0.009048	0.009456	0.013572	0.010993	0.004586	0.005306	0.021794	0.038510	0.052886	0.067517	0.070539	0.085697	0.084801	0.103415	0.115535	0.128755	0.136595	0.142808	0.148081	0.148607	0.147928	0.146575	0.145556	0.144655	0.145796	0.142437	0.139830	0.137470	0.135841	0.128642	0.123292	0.115552	0.106323	0.098201	0.090101	0.083569	0.074552	0.067079	0.061426	0.060529	0.056596	0.050684	0.044286	0.042159	0.038829	0.032922	0.029552	0.028641	0.028092	0.021622	0.017138	0.015409	0.013324	0.011855	0.008748	0.007828	0.009234	0.008507	0.005026	0.002547	0.001787	0.002060	0.001205	-0.000602	-0.001346	-0.000138	-0.000183	-0.002889	-0.002723	-0.001845	-0.001041	-0.002665	-0.003823	-0.003799	-0.003726	-0.003286	-0.002444	-0.003103	-0.004671	-0.004817	-0.004746	-0.004316	-0.004557	-0.004659	-0.005473	-0.005307	-0.004743	-0.004797	-0.005724	-0.005968	-0.005596	-0.004898	-0.004847	-0.004667	-0.004553	-0.004612	-0.004618	-0.004248	-0.003883	-0.003341	-0.002913	-0.002586	-0.002918	-0.003253	-0.002552	-0.002190	-0.001711	-0.001214	-0.001611	-0.001592	-0.001464	-0.000841	-0.000243	0.000123	-0.000043	0.000306	0.000361	
247 2
0.001703	0.005450	0.001609	0.007159	0.010756	0.003197	0.003259	0.003234	0.007627	0.017009	0.001459	0.001438	0.002175	0.008259	0.006679	0.005926	0.007527	0.002368	0.007318	0.006528	0.002963	0.003064	0.003482	0.004569	0.011346	0.002143	0.004294	0.003074	0.006022	0.003024	0.005875	0.005906	0.001620	0.003688	0.004548	0.008271	0.001514	0.001674	0.010700	0.000583	0.006836	0.002429	0.004879	0.001144	0.003794	0.006911	0.008690	0.001770	0.003750	0.011268	0.007739	0.005538	0.003041	0.003716	0.003910	0.000251	0.002622	0.003489	0.006369	0.008481	0.009523	0.008064	0.001146	0.002359	0.004281	0.002030	0.007093	0.006426	0.008176	0.004672	0.008041	0.004162	0.010715	0.000330	0.003644	0.003885	0.000113	0.004515	0.008654	0.004922	0.008187	0.001830	0.005996	0.009784	0.003571	0.000568	0.003023	0.004915	0.005720	0.005935	0.000583	0.007261	0.011787	0.003845	0.006791	0.000041	0.001964	0.001928	0.005008	0.009023	0.007991	0.004552	0.004954	0.001271	0.000296	0.006322	0.002059	0.007705	0.002618	0.001313	0.004331	0.007834	0.004750	0.001192	0.006114	0.003472	0.005211	0.001779	0.001531	0.005723	0.006672	0.014457	0.008345	0.002554	0.001364	0.000876	0.004474	0.000648	0.002343	0.002385	0.010895	0.002971	0.000814	0.008418	0.005851	0.000992	0.011343	0.003129	0.001114	0.013753	0.036412	0.036434	0.067948	0.032900	0.003379	0.000527	0.023389	0.103790	0.015081	0.197212	0.003922	0.028368	0.025838	0.084736	0.101312	0.039262	0.063960	0.059490	0.011227	0.092833	0.078838	0.026441	0.075922	0.128173	0.000608	0.080532	0.000824	0.027851	0.049142	0.064610	0.043087	0.045122	0.079470	0.003409	0.119406	0.122467	0.261804	0.000402	0.013829	0.053715	0.044675	0.114521	0.023802	0.046538	0.115707	0.044552	0.025611	0.017282	0.052816	0.121577	0.013714	0.137932	0.074683	0.218216	0.031694	0.140014	0.104516	0.018840	0.005290	0.017644	0.056434	0.051029	0.044425	0.020812	0.000606	0.083447	0.168882	0.140939	0.022814	0.053185	0.344950	0.008918	0.025544	0.234101	0.008397	0.228662	0.100144	0.393440	0.013929	0.067865	0.110224	0.063751	0.033730	0.096108	0.242552	0.238290	0.275869	0.260575	0.014717	0.116679	0.108172	0.037576	0.069177	0.121070	0.005187	0.032937	0.041931	0.088714	0.094584	0.361861	0.108563	0.126861	0.033953	0.303504	0.095860	0.055028	0.174662	0.082421	0.021664	0.024080	0.101379	0.036627	0.038300	0.037276	0.006054	0.074909	0.039507	0.048503	0.073286	0.018474	0.111648	0.151934	0.045042	0.085813	0.052954	0.121915	0.005460	0.051943	0.131089	0.078702	0.058199	0.149104	0.014442	0.136656	0.037725	0.054613	0.197789	0.161589	0.251862	0.113656	0.171259	0.012453	0.109854	0.008416	0.092652	0.118833	0.056716	0.041204	0.030203	0.029439	0.181655	0.076784	0.234195	0.310558	0.081044	0.089317	0.259580	0.045517	0.077670	0.049459	0.032275	0.013720	0.072718	0.040890	0.098237	0.046602	0.066409	0.129809	0.018389	0.014166	0.112505	0.045954	0.083354	0.012473	0.033366	0.062645	0.006944	0.106890	0.119963	0.060507	0.205043	0.061755	0.034707	0.028316	0.083573	0.004088	0.004810	0.078251	0.356332	0.048713	0.443857	0.002804	0.237265	0.100655	0.137265	0.004438	0.006567	0.050382	0.158161	0.031943	0.065936	0.060739	0.104786	0.089239	0.080443	0.068640	0.022325	0.040109	0.034333	0.065613	0.025020	0.064381	0.060362	0.022597	0.051322	0.004266	0.001007	0.001537	0.015822	0.011214	0.050046	0.004091	0.012393	0.014701	0.001465	0.020775	0.012561	0.003740	0.002044	0.019982	0.012275	0.003404	0.003399	0.018895	0.000048	0.024866	0.009170	0.052663	0.003878	0.013281	0.032085	0.004269	0.020387	0.015509	0.007180	0.017391	0.005618	0.019957	0.024278	0.011521	0.002906	0.012299	0.025969	0.000767	0.003707	0.000195	0.014402	0.033835	0.006763	0.016295	0.013772	0.016450	0.027542	0.052717	0.039096	0.032623	0.009004	0.013790	0.015802	0.004872	0.027330	0.001641	0.020652	0.003169	0.009533	0.005352	0.002774	0.003752	0.015884	0.003064	0.006805	0.012933	0.029037	0.000391	0.036776	0.002472	0.002595	0.001921	0.002288	0.003818	0.009709	0.010071	0.014708	0.004248	0.008951	0.005630	0.021356	0.012816	0.000387	0.019479	0.008682	0.010958	0.003040	0.008603	0.005159	0.001587	0.004206	0.008170	0.038103	0.003690	0.028933	0.001474	0.007761	0.008077	0.000817	0.004547	0.012006	0.002032	0.003222	0.008643	0.012470	0.006510	0.009286	0.002698	0.005744	0.003622	0.007957	0.007341	0.006333	0.001641	0.004379	0.002986	0.005686	0.006211	0.021940	0.012487	0.026522	0.007430	0.016148	0.009423	0.005922	0.007963	0.008576	0.003568	0.015482	0.000761	0.003277	0.005195	0.001671	0.001615	0.003259	0.010785	0.001275	0.001029	
247 1
0.003386	0.002410	0.005746	0.005032	0.003513	0.002358	0.003308	0.003723	0.003942	0.003877	0.005064	0.001092	0.001913	0.006404	0.006110	0.003954	0.002369	0.001181	0.001632	0.001582	0.002597	0.003170	0.003476	0.004190	0.004324	0.004641	0.004281	0.003588	0.003164	0.003146	0.003476	0.003016	0.001515	0.001582	0.001843	0.001438	0.001078	0.000684	-0.000010	-0.000328	0.000250	-0.000040	-0.000100	-0.001170	-0.000859	-0.000712	-0.001006	-0.000488	-0.001390	-0.001473	-0.000632	-0.000956	-0.001543	-0.001516	-0.001454	-0.001672	-0.001101	-0.001476	-0.001178	-0.001332	-0.000904	0.000030	-0.001102	-0.001845	-0.001481	-0.001125	-0.000252	-0.000788	-0.000635	0.000346	0.002162	0.007580	0.007087	0.001154	0.007996	0.007376	-0.003320	0.003860	0.007775	0.006362	0.006643	0.010195	0.014789	0.009501	0.010939	0.018497	0.018058	0.020691	0.027345	0.025275	0.017966	0.023388	0.026080	0.030056	0.030166	0.033597	0.034704	0.036199	0.034515	0.037275	0.042385	0.046995	0.048414	0.049596	0.052045	0.047510	0.054664	0.050968	0.053537	0.059888	0.063705	0.077152	0.084276	0.090487	0.091505	0.097384	0.113378	0.120661	0.128692	0.129729	0.125735	0.125311	0.126325	0.135012	0.139371	0.149158	0.150645	0.153083	0.150812	0.148866	0.144552	0.134920	0.132618	0.128313	0.131258	0.126202	0.123298	0.122360	0.124222	0.120257	0.119424	0.124808	0.131639	0.133236	0.138336	0.141222	0.133101	0.128210	0.133440	0.138846	0.148034	0.155906	0.156354	0.153197	0.148738	0.153184	0.147144	0.146192	0.141311	0.138376	0.132859	0.127085	0.131674	0.129431	0.128972	0.117960	0.115553	0.121156	0.132837	0.142338	0.141819	0.143913	0.141591	0.143399	0.146153	0.143953	0.142961	0.140125	0.136321	0.132553	0.126065	0.117413	0.109565	0.101437	0.093432	0.085571	0.078218	0.071362	0.066499	0.060746	0.056929	0.052688	0.048655	0.044915	0.042295	0.038883	0.036484	0.033155	0.031603	0.029823	0.028340	0.028384	0.028741	0.027480	0.026132	0.025215	0.024115	0.022515	0.020625	0.019490	0.018517	0.018415	0.018710	0.017373	0.015801	0.015223	0.015068	0.014540	0.014837	0.014572	0.014347	0.013778	0.013076	0.012505	0.013707	0.014432	0.013971	0.013092	0.012738	0.012324	0.012377	0.012239	0.011822	0.011691	0.011489	0.011088	0.010959	0.011945	0.013097	0.013463	0.013203	0.012902	0.012848	0.012355	0.011703	0.011421	0.011087	
191 2
0.043130	0.000852	0.069006	0.007916	0.000605	0.020268	0.010281	0.023165	0.016868	0.039793	0.077887	0.030626	0.135966	0.072651	0.024213	0.111491	0.134715	0.028287	0.054838	0.032559	0.088712	0.160421	0.011912	0.231788	0.046109	0.049230	0.085804	0.060768	0.225191	0.082283	0.025600	0.108540	0.087027	0.003730	0.136221	0.237202	0.314872	0.132757	0.066969	0.113548	0.131854	0.204695	0.059789	0.444448	0.043086	0.136551	0.178498	0.025112	0.017766	0.067904	0.003906	0.157231	0.008228	0.336834	0.008836	0.005530	0.190573	0.460732	0.057460	0.188136	0.172530	0.361303	0.030365	0.181847	0.036221	0.011123	0.083569	0.157519	0.059080	0.340365	0.019108	0.035199	0.015597	0.023257	0.080910	0.135039	0.107068	0.257347	0.081473	0.252420	0.032048	0.142289	0.330056	0.196870	0.221003	0.307469	0.063926	0.250184	0.234680	0.305978	0.054991	0.192936	0.035322	0.180633	0.085264	0.349657	0.066206	0.166266	0.033975	0.046035	0.173752	0.134686	0.072606	0.260371	0.111911	0.203146	0.216394	0.140335	0.049012	0.050208	0.142098	0.053932	0.099642	0.131154	0.115121	0.008086	0.044615	0.057551	0.223954	0.066798	0.283532	0.081479	0.039494	0.003330	0.117108	0.095129	0.057563	0.145731	0.114542	0.127111	0.256598	0.073494	0.087142	0.069268	0.156383	0.374272	0.179286	0.265324	0.106098	0.241114	0.131027	0.076179	0.030612	0.071198	0.124849	0.025448	0.195232	0.073937	0.045261	0.082316	0.129571	0.055482	0.242069	0.208674	0.399795	0.168806	0.040422	0.173972	0.063571	0.192043	0.232764	0.058888	0.128865	0.090683	0.046542	0.258176	0.055847	0.241575	0.140660	0.045222	0.042606	0.281164	0.172786	0.004912	0.066581	0.073125	0.114827	0.192840	0.005714	0.156543	0.031172	0.002798	0.173799	0.067619	0.122287	0.371779	0.128631	0.148429	0.034835	0.197440	0.083415	0.285893	0.141460	0.035720	0.065927	0.083019	0.115635	0.110466	0.131338	0.117969	0.260995	0.017905	0.038399	0.079731	0.319920	0.241430	0.094765	0.355138	0.164459	0.135302	0.379454	0.060600	0.249694	0.088531	0.338567	0.008935	0.027237	0.006121	0.081819	0.019708	0.047623	0.027234	0.308350	0.128388	0.293103	0.273808	0.027172	0.081959	0.190771	0.030093	0.293413	0.019913	0.061924	0.055249	0.075717	0.148470	0.142164	0.193350	0.130297	0.165219	0.276829	0.173173	0.029473	0.151702	0.004694	0.033492	0.082535	0.028551	0.041064	0.030584	0.113288	0.038483	0.032992	0.030035	0.022662	0.007347	0.054518	0.003394	0.047614	0.023045	0.012055	0.011194	0.012890	0.008693	0.007711	0.005270	0.003082	0.004555	0.010220	0.003332	0.006465	0.000010	0.014240	0.009160	0.002073	0.010046	0.001853	0.011004	0.000738	0.011096	0.015079	0.005263	0.002089	0.009142	0.029100	0.009225	0.019628	0.011253	0.006592	0.007080	0.007990	0.000027	0.006202	0.004861	0.005729	0.004640	0.000198	0.001756	0.001947	0.002701	0.004961	0.007743	0.006200	0.010817	0.006704	0.001501	0.006184	0.001298	0.009094	0.004139	0.006806	0.003331	0.007085	0.001286	0.007170	0.007388	0.008183	0.004825	0.000161	0.005957	0.007615	0.000785	0.012547	0.009739	0.004945	0.006997	0.004333	0.007485	0.002766	0.005821	0.003720	0.003805	0.009845	0.008365	0.003558	0.000118	0.003792	0.002714	0.002598	0.005908	0.007388	0.004987	0.007863	0.000814	0.006267	0.002103	0.007487	0.001143	0.000988	0.009970	0.001535	0.014454	0.000221	0.011289	0.006679	0.000113	0.005283	0.005074	0.001467	0.004452	0.001921	0.006648	0.005958	0.005374	0.006925	0.004477	0.010205	0.005239	0.003017	0.003292	0.000755	0.005770	0.007227	0.008944	0.005220	0.005858	0.009396	0.005438	0.005370	0.001402	0.000872	0.001514	
191 1
0.021471	0.033049	0.029948	0.025213	0.022336	0.021643	0.019362	0.016093	0.013319	0.012128	0.016118	0.021709	0.019103	0.018787	0.023151	0.029130	0.046148	0.049408	0.066047	0.059721	0.059061	0.075637	0.080360	0.079186	0.088841	0.102351	0.112743	0.115752	0.115344	0.127439	0.119929	0.128101	0.129259	0.145020	0.158451	0.155144	0.158629	0.165496	0.168061	0.163352	0.155456	0.157467	0.166368	0.163337	0.168673	0.173865	0.177101	0.193858	0.197512	0.196037	0.208740	0.213845	0.211421	0.208548	0.201489	0.205561	0.209495	0.209118	0.207084	0.207768	0.205511	0.194977	0.193060	0.191928	0.191632	0.189373	0.186526	0.189489	0.196858	0.193795	0.188659	0.188762	0.197443	0.205596	0.203920	0.202133	0.202842	0.206422	0.199587	0.193109	0.197386	0.200099	0.204065	0.205527	0.201432	0.205846	0.202010	0.202164	0.205737	0.202239	0.196996	0.200129	0.202582	0.197196	0.190352	0.193590	0.189540	0.189193	0.193463	0.195831	0.195398	0.190929	0.196915	0.203350	0.193418	0.194421	0.197487	0.198457	0.193351	0.206771	0.210790	0.214455	0.207916	0.193528	0.190546	0.194894	0.191768	0.194335	0.194999	0.192912	0.193699	0.188215	0.183179	0.193021	0.194333	0.194459	0.184710	0.179085	0.171272	0.162846	0.151947	0.141922	0.130935	0.120094	0.109360	0.098968	0.089905	0.081222	0.073168	0.065959	0.060166	0.054663	0.050865	0.047817	0.043677	0.039387	0.036029	0.033160	0.030154	0.027419	0.025696	0.024583	0.023167	0.021579	0.020584	0.019759	0.018758	0.018152	0.017758	0.016910	0.016142	0.016330	0.016271	0.015673	0.015166	0.014650	0.014698	0.014420	0.013730	0.013488	0.013549	0.013551	0.013359	0.013254	0.013199	0.013388	0.013505	0.013360	0.013255	0.013077	0.012903	0.013052	0.013248	0.013549	0.013478	0.013132	0.013388	0.013660	0.013845	0.013793	0.013314	
84 2
0.005942	0.006503	0.003356	0.004283	0.000932	0.003043	0.003443	0.008267	0.011620	0.009913	0.018172	0.007534	0.009775	0.003216	0.003111	0.002500	0.007105	0.002097	0.009820	0.010104	0.004522	0.001305	0.004554	0.011598	0.007736	0.011512	0.000069	0.005219	0.008285	0.007679	0.008262	0.004885	0.000551	0.004457	0.007892	0.000192	0.001806	0.006054	0.016937	0.009580	0.009275	0.062990	0.004034	0.032420	0.019895	0.053350	0.025919	0.041144	0.079244	0.097742	0.055012	0.115855	0.159399	0.041986	0.115924	0.188233	0.024871	0.035794	0.025950	0.086918	0.047211	0.046032	0.019206	0.059803	0.091956	0.085191	0.014719	0.350816	0.173899	0.125925	0.101597	0.085965	0.227093	0.174986	0.244664	0.034965	0.397007	0.028365	0.091129	0.054262	0.227939	0.133764	0.073575	0.039218	0.042067	0.038444	0.034252	0.112919	0.020834	0.126927	0.180376	0.292119	0.081865	0.066011	0.060764	0.006597	0.084756	0.048349	0.025292	0.025619	0.048295	0.017217	0.024149	0.017265	0.014564	0.016247	0.015058	0.003930	0.003367	0.006232	0.016958	0.019093	0.019602	0.061808	0.018110	0.010624	0.007610	0.001900	0.014500	0.011292	0.016767	0.013790	0.014462	0.033399	0.005522	0.010853	0.000330	0.002057	0.010966	0.007730	0.000742	0.005177	0.023835	0.000984	0.011331	0.011270	0.011863	0.008486	0.010054	0.010379	0.000007	0.006745	0.009271	0.004758	0.019064	0.001990	0.007807	0.013022	0.000911	0.008990	0.009111	0.003466	0.002083	0.002311	0.008466	0.004616	0.011204	0.002475	0.004159	0.005619	0.005485	0.004748	0.000048	0.010297	0.000425	0.004767	0.003736	0.000153	
84 1
0.005601	0.004361	0.005614	0.005368	0.003645	0.003304	0.002867	0.003474	0.004373	0.004144	0.005640	0.001441	0.002094	0.007255	0.006724	0.004971	0.002965	0.001836	0.001772	0.002371	0.003537	0.006871	0.004995	0.007560	0.007568	0.011574	0.010778	0.009934	0.013735	0.008047	0.017421	0.022891	0.025178	0.030206	0.034041	0.029162	0.030758	0.043023	0.043709	0.054003	0.058280	0.073546	0.080335	0.091016	0.100348	0.102586	0.104742	0.099050	0.104884	0.113326	0.114438	0.114395	0.111656	0.105474	0.098117	0.089523	0.083314	0.076834	0.066329	0.058664	0.053840	0.048980	0.044205	0.036954	0.032100	0.029387	0.025594	0.024417	0.021762	0.019245	0.016933	0.014112	0.013548	0.013102	0.011324	0.009198	0.008165	0.006810	0.006706	0.005974	0.004743	0.004057	0.003041	0.001814	
57 2
0.009214	0.006181	0.003840	0.002567	0.001197	0.003571	0.002754	0.003974	0.005446	0.017482	0.000102	0.004838	0.007029	0.005545	0.001035	0.001779	0.000390	0.017348	0.004630	0.032466	0.010362	0.043688	0.004784	0.076367	0.019602	0.044140	0.042582	0.154938	0.339758	0.032183	0.151193	0.401845	0.772994	0.392936	0.610766	0.153784	0.148181	0.155214	0.016033	0.092541	0.326550	0.010356	0.157158	0.132007	0.024871	0.071960	0.038096	0.022589	0.022635	0.096854	0.114332	0.178027	0.007635	0.150307	0.115194	0.019088	0.157973	0.041218	0.023815	0.028081	0.017670	0.018698	0.017863	0.001752	0.008000	0.071095	0.000452	0.007683	0.002044	0.005797	0.022205	0.018611	0.007190	0.027163	0.020500	0.009671	0.004458	0.067218	0.008080	0.024569	0.002163	0.007917	0.006892	0.009432	0.023027	0.005365	0.000503	0.064551	0.003443	0.097484	0.004641	0.040846	0.009143	0.002150	0.012443	0.022997	0.013635	0.037659	0.012905	0.008884	0.002003	0.011169	0.004218	0.022904	0.003604	0.061988	0.014972	0.076737	0.018751	0.058897	0.014022	0.071714	0.041071	0.011854	
57 1
0.007036	0.005418	0.006393	0.005612	0.003907	0.002771	0.003439	0.003793	0.004367	0.003607	0.004006	0.000663	0.005901	0.006629	0.012639	0.001887	0.011149	0.019780	0.024021	0.044764	0.080618	0.102875	0.115755	0.135376	0.151303	0.156398	0.150958	0.146238	0.141997	0.140311	0.137979	0.135324	0.130288	0.123549	0.112434	0.102618	0.094672	0.084774	0.076454	0.070375	0.060963	0.053485	0.048590	0.045024	0.042886	0.039639	0.032362	0.027912	0.027569	0.025440	0.020745	0.018148	0.018209	0.019597	0.019295	0.017022	0.015982	
58 2
0.025183	0.020450	0.037313	0.030523	0.007759	0.004584	0.010068	0.006627	0.023006	0.005798	0.001805	0.015783	0.011078	0.002444	0.017087	0.134954	0.029862	0.024860	0.023251	0.154557	0.003949	0.113654	0.316231	0.394581	0.155373	0.152959	0.086080	0.555521	0.348752	0.055604	0.208140	0.406799	0.283773	0.938167	0.493695	0.286013	0.320901	0.036614	0.374732	0.234606	0.111768	0.226497	0.034846	0.053659	0.130386	0.005490	0.072698	0.007356	0.075585	0.031116	0.078584	0.039971	0.079194	0.031765	0.093155	0.136421	0.102622	0.034606	0.150086	0.034579	0.005574	0.058213	0.008784	0.075811	0.004093	0.010172	0.005773	0.058776	0.016446	0.021823	0.017680	0.091043	0.037400	0.018662	0.023548	0.039968	0.121593	0.021045	0.152296	0.014560	0.108606	0.017439	0.144633	0.018397	0.031415	0.024971	0.037025	0.045598	0.016107	0.057556	0.014824	0.167640	0.010992	0.276652	0.004860	0.123445	0.008046	0.036683	0.019879	0.044401	0.006224	0.004340	0.007560	0.009881	0.075542	0.007290	0.010610	0.026984	0.051996	0.065238	0.008220	0.069826	0.079030	0.188529	0.000532	0.024513	
58 1
0.017856	0.025970	0.025210	0.020440	0.017348	0.015858	0.015361	0.015880	0.007733	0.004761	0.004949	0.014300	0.013220	0.028706	0.044290	0.046655	0.073196	0.095033	0.116373	0.152163	0.172854	0.181157	0.222456	0.251025	0.260624	0.250929	0.234217	0.214224	0.195435	0.180382	0.167095	0.158243	0.149691	0.140724	0.131601	0.121166	0.112880	0.102354	0.095078	0.091769	0.085753	0.078882	0.075457	0.068794	0.066462	0.064313	0.063988	0.062618	0.055539	0.055353	0.058771	0.055969	0.054715	0.055023	0.049647	0.049536	0.046963	0.049457	
70 2
0.006080	0.014021	0.007337	0.014108	0.014620	0.004725	0.004451	0.009103	0.013015	0.044739	0.071112	0.018756	0.007106	0.015402	0.021133	0.004487	0.022001	0.003408	0.014817	0.000625	0.026492	0.015379	0.037066	0.033293	0.000927	0.067935	0.145680	0.421833	0.168324	0.092197	0.169403	0.537377	0.142672	0.002130	0.126858	0.488117	0.310810	0.139405	0.083020	0.335362	0.320753	0.538059	0.164957	0.028445	0.079440	0.149480	0.056829	0.086188	0.069063	0.083434	0.113594	0.107680	0.024959	0.002245	0.080637	0.010965	0.041750	0.030784	0.014727	0.105761	0.084970	0.030607	0.027933	0.020039	0.014873	0.011641	0.053835	0.058222	0.014307	0.042058	0.031019	0.082323	0.032374	0.006504	0.054096	0.026846	0.035508	0.028800	0.039279	0.002875	0.025628	0.077301	0.026623	0.027128	0.071731	0.036693	0.021694	0.000540	0.022262	0.002301	0.059378	0.090936	0.087118	0.047130	0.048211	0.018780	0.001988	0.029945	0.018133	0.087247	0.018498	0.043282	0.100717	0.022110	0.119950	0.033944	0.002130	0.047098	0.051467	0.103039	0.039210	0.063811	0.027220	0.006036	0.003970	0.042627	0.008060	0.022825	0.023708	0.031626	0.003255	0.058962	0.017688	0.023078	0.010114	0.062230	0.004891	0.071747	0.045349	0.019525	0.022601	0.034669	0.015272	0.063093	0.008465	0.019423	0.008754	0.035860	0.029493	0.003196	
70 1
0.007489	0.008372	0.011335	0.009731	0.009222	0.009581	0.007193	0.007600	0.008081	0.008793	0.008767	0.007028	0.005370	0.005424	0.023711	0.011084	0.026737	0.015927	0.050168	0.050493	0.073365	0.078316	0.087793	0.121414	0.155233	0.174754	0.180483	0.181110	0.174864	0.166365	0.155612	0.145405	0.134131	0.124209	0.117233	0.106329	0.099454	0.090123	0.084676	0.077966	0.070897	0.068055	0.061136	0.058963	0.050293	0.048063	0.051869	0.046802	0.040054	0.036802	0.038593	0.035525	0.038489	0.038069	0.030911	0.035230	0.032177	0.027591	0.028252	0.026356	0.026956	0.025217	0.023026	0.024012	0.022761	0.021409	0.020643	0.019786	0.015916	0.015805	
79 2
0.017716	0.008346	0.024320	0.005566	0.004185	0.004374	0.017457	0.009296	0.025029	0.007201	0.000458	0.000842	0.022367	0.002888	0.008953	0.001178	0.010435	0.005101	0.005136	0.016506	0.012858	0.034181	0.010609	0.036218	0.011038	0.008127	0.024781	0.004614	0.008639	0.020256	0.014877	0.012317	0.003888	0.018180	0.001372	0.005978	0.006200	0.024008	0.017261	0.024238	0.021964	0.250596	0.012683	0.225866	0.005779	0.120986	0.272210	0.223538	0.037353	0.323307	0.502357	0.431769	0.540626	0.067822	0.044655	0.039683	0.075671	0.384443	0.086896	0.262172	0.107094	0.223034	0.113575	0.002969	0.001947	0.006520	0.009757	0.087015	0.097306	0.011171	0.008129	0.095046	0.183879	0.004003	0.043702	0.275331	0.002214	0.034132	0.013432	0.133327	0.063090	0.007974	0.004292	0.036767	0.002489	0.036821	0.082321	0.019192	0.044929	0.016612	0.031690	0.002258	0.005804	0.031668	0.019712	0.048724	0.009095	0.008882	0.014190	0.077326	0.016934	0.003995	0.013035	0.014151	0.028817	0.004474	0.013654	0.000311	0.023349	0.112897	0.004186	0.016652	0.045752	0.074527	0.021952	0.015132	0.013153	0.024302	0.006898	0.035427	0.005798	0.022249	0.005825	0.018389	0.010673	0.037320	0.017225	0.028739	0.009805	0.033818	0.010442	0.011777	0.005597	0.014746	0.007517	0.004014	0.002323	0.000509	0.014175	0.005995	0.004091	0.027671	0.047214	0.028321	0.018837	0.013513	0.040664	0.010837	0.009758	0.016106	0.005201	0.012052	0.003343	0.004213	0.014218	0.008654	0.009909	0.002765	
79 1
0.011490	0.014588	0.014298	0.013115	0.010611	0.008562	0.009429	0.008930	0.009188	0.008740	0.008606	0.005798	0.008353	0.011336	0.010959	0.009480	0.007198	0.006611	0.005395	0.007006	0.005636	0.013108	0.009373	0.005943	0.021104	0.008795	0.029937	0.024759	0.051975	0.090558	0.102354	0.114086	0.130546	0.149029	0.158381	0.158215	0.155382	0.148315	0.140561	0.134669	0.134631	0.134195	0.129475	0.125986	0.120479	0.112506	0.103261	0.096266	0.089054	0.080289	0.075668	0.066036	0.060046	0.054902	0.050795	0.050938	0.041975	0.042856	0.035898	0.032406	0.030662	0.026544	0.024818	0.024203	0.022238	0.019537	0.016300	0.014164	0.011623	0.009870	0.010606	0.011906	0.013490	0.009888	0.009688	0.006578	0.004075	0.003086	0.003052	
88 2
0.008511	0.002104	0.001563	0.003880	0.004368	0.014092	0.006933	0.072509	0.000773	0.175602	0.020393	0.015508	0.004357	0.004686	0.005554	0.027089	0.003229	0.015067	0.023745	0.010033	0.011015	0.004254	0.003943	0.001113	0.005855	0.011214	0.023539	0.005266	0.062264	0.028938	0.003014	0.001326	0.019190	0.066427	0.009111	0.002800	0.027984	0.017298	0.012349	0.008607	0.009368	0.016492	0.004463	0.064827	0.009407	0.012999	0.011327	0.022861	0.012433	0.058750	0.023331	0.013826	0.016524	0.152104	0.028768	0.054584	0.004022	0.179539	0.114849	0.222030	0.214184	0.066616	0.140875	0.058804	0.141597	0.026186	0.184430	0.493493	0.078313	0.425545	0.211603	0.128299	0.371538	0.443293	0.374784	0.415968	0.094374	0.213817	0.247123	0.204368	0.080214	0.117073	0.206986	0.063617	0.063230	0.009635	0.023089	0.088844	0.050125	0.036145	0.202494	0.008491	0.013901	0.016191	0.000935	0.084490	0.020901	0.104962	0.139096	0.098992	0.055281	0.113688	0.070508	0.026918	0.016325	0.070224	0.032839	0.019696	0.005625	0.035142	0.019306	0.059133	0.002861	0.013147	0.000568	0.017647	0.018426	0.008233	0.001839	0.029393	0.004261	0.016060	0.014437	0.023780	0.000134	0.009623	0.004646	0.050607	0.013507	0.065882	0.005089	0.043272	0.007757	0.072444	0.012447	0.104096	0.009346	0.013242	0.014053	0.007052	0.005161	0.003254	0.027850	0.022178	0.000712	0.013952	0.028055	0.028561	0.026567	0.000918	0.011116	0.009091	0.004338	0.087292	0.000048	0.129071	0.025164	0.001827	0.014336	0.007286	0.007306	0.055694	0.008256	0.069203	0.016500	0.065310	0.006811	0.051935	0.024573	0.004566	0.002824	0.009754	0.016726	0.006968	0.004946	0.058364	
88 1
0.005724	0.003691	0.006307	0.009829	0.011366	0.010847	0.011824	0.014300	0.015586	0.015322	0.015845	0.016195	0.010881	0.014049	0.015458	0.016580	0.009893	0.013368	0.008783	0.010662	0.010271	0.010809	0.014143	0.011338	0.012315	0.014407	0.011903	0.017770	0.011270	0.014370	0.018536	0.014256	0.014792	0.022580	0.048121	0.036604	0.045232	0.067975	0.078570	0.104845	0.132733	0.159109	0.178689	0.194373	0.200608	0.203634	0.196257	0.191918	0.182900	0.177267	0.166425	0.158486	0.151296	0.148201	0.142540	0.136472	0.129375	0.119263	0.110002	0.101594	0.092023	0.083157	0.075504	0.067653	0.064437	0.059910	0.053807	0.052413	0.049297	0.040651	0.037152	0.034572	0.033296	0.029257	0.028718	0.024588	0.023724	0.027671	0.025422	0.017760	0.017314	0.019365	0.018983	0.017751	0.014646	0.011594	0.009432	0.010401	
83 2
0.008771	0.012447	0.001605	0.017915	0.008847	0.007380	0.003363	0.038289	0.006683	0.045942	0.038785	0.048900	0.010881	0.021978	0.012037	0.033056	0.009920	0.021274	0.004993	0.034719	0.004299	0.063561	0.003772	0.035802	0.008106	0.007535	0.013797	0.061051	0.000767	0.032526	0.007113	0.147043	0.002226	0.023747	0.001861	0.003785	0.017348	0.010910	0.006960	0.047648	0.014252	0.008281	0.013700	0.001339	0.011355	0.046683	0.017692	0.093439	0.076272	0.160127	0.272318	0.224463	0.279619	0.412775	0.115694	0.511470	0.665206	0.154299	0.221047	0.293583	0.050595	0.471775	0.166631	0.442678	0.174740	0.016682	0.057220	0.028334	0.080152	0.096470	0.198293	0.011164	0.002849	0.051945	0.057599	0.116933	0.088343	0.038178	0.059820	0.136958	0.026975	0.022221	0.039182	0.007473	0.177415	0.094736	0.117697	0.004502	0.035036	0.014109	0.020712	0.068758	0.027914	0.024438	0.024976	0.007748	0.001043	0.026809	0.029683	0.073137	0.038244	0.001676	0.006110	0.077924	0.004019	0.123943	0.002281	0.013687	0.054538	0.023163	0.002083	0.075713	0.006710	0.046631	0.061201	0.062701	0.022739	0.046727	0.024349	0.013304	0.035947	0.044318	0.035253	0.038627	0.001335	0.004592	0.009143	0.056775	0.010380	0.034378	0.038715	0.017928	0.005736	0.029653	0.002442	0.055133	0.042221	0.023699	0.010190	0.028376	0.030804	0.016971	0.010085	0.004240	0.004339	0.032680	0.003702	0.001395	0.006498	0.018812	0.007119	0.016770	0.013408	0.054001	0.007673	0.045026	0.006200	0.000511	0.001940	0.052465	0.001383	0.002177	0.029978	0.007033	0.011365	0.014042	
83 1
0.008349	0.007905	0.010481	0.010807	0.009736	0.010413	0.008625	0.009002	0.008814	0.009108	0.009561	0.013223	0.011490	0.012020	0.019199	0.013892	0.019599	0.011782	0.010326	0.011565	0.014182	0.012725	0.012603	0.015022	0.016636	0.019393	0.026437	0.027454	0.015459	0.035089	0.058584	0.093918	0.109936	0.132304	0.170707	0.192834	0.196043	0.198056	0.194447	0.190258	0.182344	0.178678	0.173124	0.167241	0.158194	0.150400	0.146478	0.138828	0.130237	0.121928	0.114902	0.104603	0.098006	0.091780	0.081443	0.078913	0.073418	0.067583	0.066740	0.059573	0.054711	0.054285	0.049327	0.042858	0.042871	0.039221	0.036724	0.033363	0.032144	0.030738	0.026765	0.024689	0.020975	0.019208	0.015653	0.015129	0.015261	0.016499	0.012801	0.009570	0.010211	0.006487	0.007840	
84 2
0.014596	0.011457	0.010994	0.008442	0.018396	0.015803	0.002678	0.008550	0.007071	0.019178	0.010783	0.024931	0.000890	0.014631	0.008848	0.027466	0.012065	0.059471	0.024101	0.026825	0.024256	0.015047	0.016544	0.007412	0.007767	0.014537	0.009715	0.025079	0.009888	0.009716	0.017526	0.015709	0.005423	0.058914	0.013072	0.014083	0.002530	0.001541	0.017768	0.038374	0.018238	0.018623	0.023981	0.105971	0.033570	0.021347	0.139998	0.175499	0.405191	0.429467	0.358097	0.485963	0.557315	0.038000	0.115983	0.121169	0.413845	0.283731	0.254933	0.222660	0.387540	0.038075	0.192790	0.343930	0.336331	0.161772	0.022143	0.174033	0.196943	0.057376	0.020755	0.009958	0.054485	0.082309	0.027619	0.125838	0.105985	0.087650	0.082148	0.074422	0.014949	0.059986	0.073400	0.071008	0.006947	0.032802	0.050355	0.072757	0.142552	0.005506	0.032369	0.053903	0.006149	0.061024	0.046261	0.022307	0.026421	0.002304	0.022028	0.018758	0.007414	0.001942	0.016867	0.040063	0.007218	0.009025	0.009318	0.038305	0.032617	0.004002	0.052845	0.029052	0.028641	0.078780	0.006761	0.028053	0.003013	0.048843	0.002212	0.033269	0.012929	0.039203	0.062442	0.004257	0.001064	0.062079	0.015553	0.074440	0.002149	0.032265	0.026532	0.046440	0.030486	0.019918	0.034613	0.021055	0.015964	0.012765	0.007043	0.001642	0.004156	0.020775	0.008250	0.036231	0.017838	0.032556	0.009593	0.064411	0.003756	0.014983	0.000687	0.030829	0.013095	0.007537	0.050284	0.027863	0.069603	0.024969	0.011449	0.026053	0.077228	0.004564	0.003764	0.002422	0.005614	0.026904	0.021634	0.009152	
84 1
0.010799	0.011170	0.014340	0.012133	0.009677	0.009510	0.008720	0.008843	0.006960	0.005377	0.007319	0.008541	0.008016	0.013173	0.015560	0.012465	0.009751	0.010874	0.008124	0.006972	0.010373	0.009075	0.014497	0.009960	0.019290	0.030495	0.012517	0.018097	0.043050	0.079935	0.092177	0.119109	0.142805	0.152932	0.177845	0.197179	0.216763	0.219835	0.218210	0.209800	0.203660	0.198686	0.192337	0.186559	0.178679	0.170745	0.160828	0.152937	0.145429	0.136035	0.126417	0.115937	0.107056	0.096354	0.088450	0.081491	0.077131	0.070961	0.061497	0.057338	0.052556	0.049767	0.047721	0.044070	0.041276	0.036368	0.036032	0.033247	0.030524	0.026046	0.022273	0.021919	0.021484	0.021081	0.019360	0.014193	0.013058	0.013303	0.017316	0.016452	0.012045	0.012828	0.007102	0.006992	
123 2
0.001782	0.031327	0.001949	0.020414	0.005450	0.021788	0.005456	0.017308	0.010274	0.006849	0.005764	0.002994	0.016535	0.002115	0.027992	0.007387	0.007333	0.005184	0.014316	0.005885	0.004671	0.012640	0.002723	0.004189	0.022361	0.035106	0.025534	0.000940	0.008524	0.026410	0.000669	0.017030	0.004318	0.004453	0.005543	0.027829	0.020778	0.003351	0.019510	0.001383	0.008048	0.013745	0.007976	0.000101	0.008154	0.003930	0.008188	0.022323	0.001725	0.001137	0.001271	0.011661	0.002433	0.003196	0.004008	0.000239	0.001750	0.007957	0.033555	0.002999	0.076162	0.001357	0.006377	0.010843	0.027532	0.035237	0.013610	0.017315	0.031675	0.182235	0.006012	0.022974	0.017869	0.035354	0.073136	0.189742	0.139004	0.142032	0.237198	0.180245	0.350224	0.723661	0.754757	0.399085	0.063322	0.823588	0.272897	0.201577	0.228176	0.214967	0.223255	0.213082	0.162195	0.068914	0.137041	0.005669	0.102070	0.059155	0.074823	0.021391	0.084973	0.003373	0.162850	0.004268	0.005316	0.033127	0.021416	0.003048	0.010886	0.063950	0.030909	0.013150	0.066682	0.044763	0.046307	0.002503	0.077158	0.020142	0.027451	0.008457	0.013155	0.004398	0.023673	0.003765	0.009092	0.058418	0.013409	0.074622	0.006012	0.017603	0.009349	0.039056	0.007852	0.019386	0.064123	0.023705	0.008856	0.005242	0.003833	0.013673	0.027822	0.019763	0.008333	0.026742	0.005152	0.008695	0.013480	0.004764	0.011636	0.020031	0.012775	0.065135	0.017489	0.143252	0.041023	0.017557	0.004813	0.034922	0.011105	0.004074	0.055515	0.019045	0.039893	0.009548	0.002584	0.003306	0.009824	0.000592	0.014181	0.007964	0.014851	0.012962	0.015650	0.001765	0.003451	0.002725	0.018954	0.023979	0.017557	0.096626	0.027601	0.008019	0.004956	0.020474	0.003957	0.020894	0.016560	0.005830	0.004470	0.002353	0.006803	0.003377	0.001706	0.002615	0.005783	0.009173	0.001006	0.007496	0.005364	0.005972	0.001588	0.018993	0.007700	0.023744	0.006066	0.024008	0.011671	0.006642	0.043746	0.000962	0.020220	0.010758	0.022142	0.001597	0.017348	0.002878	0.016618	0.000987	0.003016	0.001269	0.007732	0.003210	0.002538	0.001091	0.005621	0.005271	0.007330	0.009434	0.009550	0.003885	0.001940	0.000699	0.017653	0.012748	0.003382	0.012079	0.002971	0.000989	0.003844	0.005599	0.001480	0.006127	0.001034	0.007801	0.006154	0.011222	
123 1
0.009725	0.010423	0.012913	0.012253	0.009427	0.008708	0.009274	0.008682	0.007764	0.007865	0.008909	0.006466	0.004739	0.011790	0.009531	0.008804	0.006411	0.004615	0.006182	0.005628	0.006035	0.006874	0.006476	0.007099	0.008054	0.006002	0.006319	0.005348	0.004844	0.005262	0.007812	0.009521	0.004678	0.006773	0.005863	0.012740	0.000388	0.003815	0.013626	0.009893	0.010692	0.001571	0.015663	0.047434	0.084810	0.124252	0.149474	0.174609	0.202504	0.215843	0.219338	0.217102	0.208355	0.199491	0.187671	0.177343	0.164263	0.152912	0.140643	0.129912	0.117455	0.105607	0.097887	0.091240	0.083149	0.073074	0.067525	0.062582	0.059537	0.049997	0.045697	0.044229	0.038511	0.033483	0.031268	0.031437	0.035025	0.035591	0.027583	0.023765	0.022912	0.025337	0.021051	0.015118	0.014079	0.013597	0.012170	0.009511	0.008691	0.013626	0.015279	0.009030	0.006893	0.006005	0.004336	0.002233	0.001109	0.000239	0.000049	-0.000859	-0.000683	0.000201	0.000835	0.000177	0.000425	0.002154	0.000802	-0.000117	-0.000629	-0.001680	-0.002833	-0.003092	-0.003574	-0.003060	-0.002758	-0.003394	-0.003013	-0.001659	-0.002953	-0.003587	-0.003388	-0.003510	-0.003065	
132 2
0.009805	0.004351	0.002319	0.000114	0.005854	0.004215	0.005951	0.011930	0.011242	0.004865	0.002893	0.001852	0.002191	0.004155	0.002058	0.005265	0.000863	0.007102	0.006177	0.014261	0.005802	0.002772	0.003920	0.006010	0.017663	0.016986	0.000857	0.008144	0.010833	0.001144	0.004843	0.005713	0.003536	0.005639	0.001764	0.010535	0.006312	0.001729	0.009016	0.006505	0.000379	0.001440	0.006416	0.002156	0.002420	0.015192	0.006399	0.006120	0.004279	0.006555	0.010469	0.008477	0.004411	0.005264	0.002312	0.002979	0.002270	0.001559	0.006589	0.008169	0.005482	0.005707	0.005182	0.002151	0.002152	0.007834	0.000922	0.002259	0.005251	0.002086	0.008081	0.003399	0.002267	0.002583	0.012354	0.007452	0.001160	0.004390	0.009823	0.005533	0.013451	0.008304	0.009380	0.010153	0.004394	0.002128	0.003060	0.008028	0.003752	0.016590	0.006135	0.003081	0.013020	0.000377	0.004752	0.000792	0.001128	0.003688	0.000831	0.004361	0.003786	0.006363	0.010415	0.000508	0.006940	0.004208	0.000310	0.007037	0.005899	0.004408	0.011631	0.081771	0.109504	0.161171	0.665666	0.288337	0.258608	0.094980	0.690264	0.011382	0.351903	0.105628	0.157195	0.303729	0.287833	0.211276	0.043828	0.159148	0.112150	0.069095	0.015121	0.016324	0.002528	0.101306	0.111494	0.031178	0.036812	0.093311	0.079086	0.015345	0.011806	0.054454	0.094868	0.033440	0.084065	0.054377	0.019136	0.011739	0.021253	0.016441	0.014183	0.043397	0.004500	0.022917	0.003728	0.000240	0.010735	0.002984	0.007173	0.001225	0.002562	0.001177	0.001074	0.017683	0.012257	0.011501	0.017094	0.017215	0.013378	0.004265	0.009546	0.007202	0.020805	0.001270	0.004292	0.017847	0.006057	0.030876	0.004003	0.011386	0.002273	0.014797	0.003499	0.001836	0.000038	0.000483	0.006593	0.000643	0.001694	0.004166	0.000996	0.000348	0.003848	0.010770	0.013915	0.010484	0.014339	0.012533	0.005740	0.000142	0.005523	0.018406	0.010367	0.011999	0.009898	0.005734	0.012329	0.000927	0.008987	0.001406	0.000824	0.007344	0.000932	0.009319	0.004676	0.024130	0.008398	0.013375	0.001871	0.005128	0.000548	0.004915	0.000898	0.002467	0.006181	0.009634	0.007046	0.000147	0.000274	0.006786	0.002811	0.004235	0.001087	0.001574	0.002419	0.000518	0.006404	0.008974	0.005429	0.002879	0.010247	0.005567	0.005678	0.014054	0.003741	0.012852	0.005903	0.000760	0.008536	0.013372	0.006439	0.001023	0.002376	0.005426	0.003950	0.007616	0.003892	0.009086	0.007383	0.001212	0.000840	0.003982	0.004167	0.004305	
132 1
0.006867	0.004515	0.006281	0.006363	0.004005	0.003031	0.003753	0.004550	0.005065	0.004668	0.005711	0.001404	0.002183	0.007721	0.006747	0.004417	0.002883	0.001979	0.002362	0.002411	0.003476	0.003299	0.004165	0.005038	0.004682	0.004666	0.004954	0.003972	0.003305	0.003060	0.003429	0.002636	0.001971	0.001602	0.000746	0.000934	0.000861	0.000345	0.001069	-0.000230	0.000622	0.000991	0.000143	-0.001068	-0.000624	-0.000352	-0.001294	-0.001057	-0.001891	-0.002108	-0.001954	-0.001479	-0.001238	-0.001352	-0.001740	0.001018	0.009361	0.005494	0.022633	-0.028001	0.001924	0.009245	0.029787	0.049129	0.062386	0.085687	0.103812	0.115347	0.120336	0.119757	0.118988	0.118267	0.116678	0.112916	0.106365	0.102512	0.097626	0.088785	0.080265	0.072664	0.064218	0.056793	0.051347	0.046546	0.041830	0.036194	0.032227	0.029320	0.026612	0.024002	0.019968	0.017082	0.013805	0.011468	0.010228	0.008269	0.007056	0.007438	0.007603	0.006164	0.004372	0.004697	0.003796	0.002496	0.001632	0.000623	-0.000240	0.000039	0.000642	-0.000623	-0.002209	-0.002917	-0.002965	-0.002730	-0.003456	-0.003868	-0.004213	-0.004703	-0.004307	-0.003796	-0.003849	-0.003203	-0.003063	-0.003597	-0.003525	-0.003204	-0.003913	-0.003936	-0.003648	-0.003683	-0.003971	-0.004129	
119 2
0.007017	0.004763	0.000812	0.000435	0.009036	0.002504	0.005933	0.003631	0.002045	0.004001	0.004973	0.024980	0.002639	0.002362	0.009917	0.002008	0.001883	0.000469	0.003814	0.002276	0.002632	0.014267	0.012722	0.018809	0.008035	0.004793	0.003610	0.005081	0.000538	0.001156	0.003671	0.003838	0.007994	0.004464	0.008528	0.026800	0.005807	0.005576	0.007857	0.010002	0.008856	0.000054	0.015941	0.014452	0.026407	0.002787	0.012125	0.000160	0.024384	0.004358	0.001313	0.014544	0.012460	0.005944	0.047045	0.014839	0.002888	0.007087	0.008022	0.014211	0.006418	0.010246	0.004023	0.009956	0.007360	0.009495	0.008638	0.010757	0.022450	0.018237	0.002343	0.004820	0.013779	0.001805	0.034278	0.007370	0.011598	0.013706	0.009452	0.043844	0.000140	0.043188	0.082013	0.410696	0.572631	0.203622	0.250963	0.379076	0.774497	0.785491	0.411134	0.028695	0.025013	0.099088	0.401761	0.160506	0.364457	0.168474	0.149668	0.024351	0.021274	0.124252	0.145053	0.054813	0.024415	0.167660	0.045584	0.068241	0.000373	0.066470	0.009255	0.000701	0.073205	0.037168	0.032321	0.006197	0.006007	0.030906	0.010075	0.016942	0.007726	0.002525	0.001980	0.024081	0.013357	0.023065	0.001394	0.024308	0.009501	0.002160	0.023117	0.027171	0.014685	0.003888	0.015102	0.012632	0.004356	0.006274	0.001320	0.008492	0.018922	0.008544	0.048563	0.016433	0.005499	0.033068	0.026020	0.007301	0.016003	0.018397	0.010785	0.006757	0.006489	0.008766	0.005204	0.001394	0.003657	0.013558	0.012626	0.014981	0.002731	0.005476	0.002219	0.008095	0.005438	0.006840	0.000979	0.012431	0.009460	0.014415	0.004647	0.002151	0.002599	0.012459	0.003019	0.025142	0.011680	0.005470	0.002250	0.013370	0.012652	0.004234	0.005063	0.002346	0.013802	0.013754	0.000752	0.017563	0.005741	0.021645	0.004012	0.009689	0.009270	0.003894	0.014367	0.003362	0.000093	0.002933	0.011944	0.023605	0.007663	0.022416	0.002182	0.003077	0.005861	0.004903	0.002026	0.009381	0.006138	0.010905	0.013101	0.006357	0.016181	0.003624	0.006613	0.001957	0.027905	0.002565	0.014115	0.013783	0.003032	0.018355	0.005228	0.016740	0.003858	0.004281	0.000018	0.002257	0.001089	0.004306	0.004560	0.004348	0.011196	0.004582	0.010591	0.001907	0.000103	0.002347	
119 1
0.005677	0.003238	0.005673	0.005312	0.002469	0.003184	0.002362	0.003029	0.003580	0.004195	0.004266	0.000127	0.002112	0.006225	0.006257	0.003886	0.002307	0.001318	0.002852	0.001870	0.003124	0.003376	0.005428	0.005661	0.005118	0.006209	0.005321	0.005944	0.008180	0.004021	0.004412	0.003638	0.002938	0.002829	0.002987	0.003603	0.000524	0.001642	0.003374	0.001909	0.003007	0.005110	0.019186	0.016087	-0.042254	0.002537	0.022847	0.069375	0.117893	0.122018	0.137103	0.162805	0.175665	0.177979	0.178341	0.178728	0.176429	0.170185	0.160245	0.148310	0.136836	0.123653	0.112590	0.101432	0.089937	0.080711	0.073978	0.064779	0.057873	0.050578	0.045400	0.043862	0.042299	0.036490	0.033019	0.030036	0.025815	0.022816	0.020195	0.019412	0.017911	0.014655	0.013256	0.012217	0.011437	0.010639	0.008533	0.008661	0.008466	0.006825	0.005813	0.004875	0.004159	0.004753	0.003691	0.003120	0.001592	0.001132	0.000534	-0.000009	0.001784	0.000214	-0.001964	-0.001957	-0.002114	-0.001895	-0.001733	-0.002260	-0.002414	-0.000916	-0.001460	-0.002289	-0.002877	-0.004189	-0.004845	-0.004772	-0.004336	-0.003919	-0.004481	
121 2
0.013515	0.004195	0.011624	0.010221	0.004689	0.014439	0.006996	0.000924	0.010987	0.018995	0.023712	0.002020	0.002690	0.003097	0.002301	0.002773	0.000580	0.000897	0.002560	0.003399	0.001299	0.003156	0.002564	0.014801	0.006681	0.017652	0.003633	0.013113	0.014810	0.005749	0.011558	0.006051	0.016331	0.007307	0.031455	0.000764	0.000573	0.004598	0.004701	0.007055	0.016532	0.006201	0.005775	0.004509	0.001456	0.013258	0.004942	0.004250	0.009804	0.019434	0.022511	0.000302	0.037770	0.001267	0.004141	0.003912	0.000324	0.000825	0.012185	0.012939	0.003059	0.007951	0.001598	0.013164	0.003827	0.007578	0.004094	0.008826	0.002241	0.019007	0.002539	0.003752	0.007333	0.003487	0.012646	0.001119	0.006152	0.003627	0.003708	0.025213	0.003214	0.000805	0.004858	0.088341	0.085103	0.099245	0.231372	0.269842	0.322672	0.521167	0.322037	0.009231	0.316507	0.177893	0.507714	0.211026	0.324183	0.151608	0.394643	0.169805	0.198865	0.044302	0.024165	0.012971	0.014369	0.019144	0.096603	0.015073	0.014926	0.003178	0.027859	0.013247	0.075591	0.044948	0.048525	0.051995	0.040418	0.003654	0.006992	0.016924	0.020201	0.046098	0.022300	0.015101	0.021187	0.011229	0.007258	0.024019	0.011348	0.011518	0.013033	0.001366	0.009773	0.002531	0.006808	0.027210	0.012001	0.007559	0.002600	0.003040	0.009037	0.010173	0.017810	0.010919	0.017359	0.011338	0.000787	0.012613	0.006914	0.010838	0.001523	0.021148	0.001348	0.005619	0.016096	0.006544	0.010101	0.009629	0.007500	0.007090	0.007002	0.002655	0.015091	0.000497	0.008318	0.002262	0.016968	0.000089	0.004720	0.013101	0.007680	0.013453	0.004025	0.008044	0.009077	0.009469	0.016476	0.008250	0.020008	0.007702	0.027240	0.004879	0.018769	0.003995	0.015573	0.001472	0.018270	0.009294	0.002254	0.007401	0.002399	0.005687	0.000610	0.004104	0.004289	0.011294	0.006491	0.007422	0.008624	0.006763	0.007704	0.016674	0.004115	0.001659	0.008663	0.005695	0.013872	0.006659	0.023737	0.001240	0.005717	0.009573	0.002304	0.001545	0.004723	0.010690	0.002907	0.003596	0.006272	0.008179	0.003720	0.009713	0.002982	0.016706	0.000060	0.000174	0.001122	0.011377	0.002419	0.007516	0.009516	0.002202	0.009830	0.001954	0.005793	0.002718	0.004255	0.008593	0.005930	0.006731	0.005188	0.011007	
121 1
0.008546	0.009308	0.011100	0.009543	0.007611	0.006805	0.006292	0.007269	0.008282	0.008381	0.008536	0.003363	0.004191	0.008823	0.008105	0.005623	0.003676	0.003148	0.003496	0.003187	0.004380	0.005684	0.005390	0.005959	0.005803	0.007049	0.006689	0.007272	0.004535	0.003977	0.005201	0.003535	0.003182	0.002473	0.002272	0.002073	0.000548	0.000789	0.000769	0.000561	0.001067	0.000780	0.007803	0.011043	0.015836	0.008183	-0.008777	0.012051	0.029975	0.040557	0.061688	0.077270	0.108602	0.132485	0.140861	0.139957	0.135869	0.131266	0.122112	0.112246	0.104098	0.097178	0.087644	0.079055	0.071180	0.063013	0.055718	0.050029	0.045579	0.039284	0.034227	0.031931	0.029675	0.026373	0.022564	0.020844	0.018655	0.016107	0.015995	0.014243	0.012183	0.010860	0.010195	0.009048	0.008806	0.008069	0.007072	0.005807	0.005837	0.005998	0.005857	0.005411	0.003781	0.002988	0.002515	0.000210	-0.000885	-0.001305	-0.001097	-0.001472	-0.001383	-0.001776	-0.003149	-0.002600	-0.002016	-0.002113	-0.003650	-0.004426	-0.004236	-0.004710	-0.004414	-0.004340	-0.004867	-0.005744	-0.005295	-0.005314	-0.005132	-0.005174	-0.005277	-0.005037	-0.004813	
141 2
0.018103	0.008520	0.023975	0.011667	0.005105	0.009946	0.001708	0.000750	0.005122	0.003961	0.004878	0.007126	0.013042	0.010813	0.009797	0.020864	0.005654	0.007607	0.005674	0.004592	0.002850	0.005823	0.007756	0.001201	0.009493	0.007758	0.020424	0.002492	0.004290	0.003682	0.013068	0.002484	0.000259	0.023542	0.003529	0.000730	0.006734	0.008095	0.004316	0.002399	0.025315	0.018836	0.005007	0.000230	0.008982	0.004789	0.014053	0.006550	0.004008	0.000978	0.002899	0.008362	0.018171	0.005875	0.002590	0.006063	0.011010	0.004619	0.003937	0.000218	0.004837	0.007351	0.000120	0.001513	0.008168	0.015456	0.003558	0.007554	0.000609	0.000439	0.000621	0.010386	0.003518	0.006127	0.000904	0.010165	0.015885	0.005616	0.000160	0.003760	0.003994	0.011690	0.002132	0.000226	0.006538	0.002512	0.011613	0.001785	0.000632	0.003853	0.000022	0.010719	0.001242	0.098755	0.019042	0.238399	0.009577	0.308445	0.380579	0.311566	0.293811	0.000106	0.980755	0.787808	0.122275	0.027845	0.037222	0.163122	0.088392	0.064515	0.286864	0.052466	0.175319	0.057917	0.035144	0.027802	0.011552	0.058282	0.316272	0.517102	0.045137	0.164499	0.477783	0.154464	0.230476	0.219325	0.201115	0.163102	0.207262	0.034371	0.132789	0.034668	0.070983	0.225414	0.172435	0.304512	0.014672	0.211722	0.019096	0.250431	0.096728	0.009709	0.095391	0.079053	0.027661	0.016422	0.021435	0.010297	0.009548	0.046532	0.002975	0.063796	0.010209	0.002492	0.007656	0.010303	0.013336	0.013793	0.011101	0.025969	0.028871	0.019572	0.001529	0.008221	0.019280	0.012833	0.014136	0.009605	0.006600	0.002291	0.008617	0.002548	0.010516	0.002584	0.008701	0.007973	0.005257	0.003490	0.002438	0.006933	0.001720	0.011605	0.001122	0.001209	0.005867	0.012998	0.013863	0.025474	0.021780	0.017511	0.007049	0.017487	0.011336	0.003136	0.002403	0.004834	0.000013	0.008106	0.003863	0.001539	0.002497	0.003718	0.001965	0.002125	0.014910	0.005306	0.009288	0.004521	0.009543	0.002328	0.004798	0.008729	0.008104	0.004579	0.005468	0.006699	0.004182	0.002495	0.001184	0.001662	0.018577	0.003497	0.006503	0.012048	0.010209	0.009209	0.006306	0.006942	0.003706	0.007698	0.002031	0.007094	0.011632	0.007875	0.021946	0.012446	0.000524	0.006766	0.002576	0.000047	0.001927	0.001445	0.001624	0.001202	0.005889	0.003932	0.004797	0.006505	0.005418	0.005850	0.002567	0.005871	0.009447	0.008771	0.005174	0.011086	0.005859	0.003802	0.006930	0.005824	0.000358	0.000163	0.025572	0.002542	0.037599	0.007753	0.002010	0.006240	0.009917	0.000068	0.003784	0.002403	0.003177	0.005297	0.010468	0.003023	0.005982	0.005098	0.007020	0.003281	0.000514	0.002276	
141 1
0.011711	0.015314	0.015693	0.012256	0.009063	0.008492	0.008547	0.007588	0.006782	0.007200	0.008367	0.004747	0.004913	0.009414	0.008961	0.006380	0.004234	0.004482	0.002893	0.003960	0.004003	0.006543	0.004676	0.005594	0.006130	0.005012	0.005474	0.005869	0.004404	0.004317	0.003151	0.003042	0.002177	0.003161	0.001431	0.000403	0.000836	0.000402	0.000457	0.000796	-0.000763	-0.000380	-0.001476	-0.000829	-0.000663	-0.001538	0.001143	0.007919	0.008818	0.000680	0.009323	-0.066356	0.010696	0.019298	0.062630	0.089515	0.108519	0.112435	0.120375	0.128682	0.141513	0.126834	0.143732	0.147101	0.157358	0.171305	0.186480	0.195891	0.195942	0.196627	0.200281	0.208658	0.211156	0.215323	0.213473	0.208929	0.199464	0.189091	0.176782	0.164029	0.150758	0.137084	0.123347	0.111863	0.099995	0.088274	0.078761	0.070200	0.062210	0.054571	0.048384	0.042584	0.037556	0.035507	0.033757	0.030330	0.025939	0.022175	0.018992	0.016403	0.014154	0.012179	0.011139	0.010932	0.009335	0.008142	0.007245	0.006318	0.005228	0.003860	0.003682	0.004569	0.003945	0.003317	0.002439	0.001673	0.001544	0.002663	0.002551	0.000266	-0.000555	-0.000946	-0.001059	-0.000708	-0.000683	-0.000841	-0.000642	-0.000060	-0.000344	-0.000559	-0.000921	-0.000474	0.002157	0.002262	0.000353	0.000129	-0.000138	0.000042	0.000307	0.000181	-0.000153	
193 2
0.007705	0.003511	0.002424	0.008325	0.011816	0.005169	0.003516	0.011535	0.001351	0.001469	0.002302	0.001029	0.011951	0.004090	0.008093	0.004241	0.000149	0.003366	0.001277	0.001410	0.005689	0.003163	0.005627	0.003143	0.010828	0.006527	0.007049	0.004290	0.001667	0.004093	0.003620	0.004146	0.003644	0.004049	0.010612	0.011531	0.006350	0.000411	0.003690	0.002945	0.004527	0.009299	0.000469	0.010239	0.009828	0.009254	0.004171	0.002319	0.005401	0.003384	0.003578	0.000408	0.004333	0.003874	0.012485	0.004041	0.009292	0.003982	0.011552	0.001202	0.004223	0.008977	0.001615	0.000016	0.009493	0.007832	0.002320	0.005183	0.009562	0.005117	0.005123	0.004982	0.000856	0.005499	0.009867	0.013996	0.014176	0.005971	0.011741	0.018153	0.022873	0.146826	0.010775	0.036087	0.047890	0.126737	0.162507	0.357052	0.064370	0.111936	0.321090	0.033521	0.078773	0.082358	0.083551	0.110218	0.119735	0.057569	0.042671	0.084758	0.007030	0.185332	0.131331	0.202580	0.074808	0.460656	0.078986	0.132166	0.037746	0.333470	0.199127	0.043577	0.040599	0.119675	0.037756	0.096424	0.180664	0.014759	0.096963	0.302419	0.048613	0.316828	0.207844	0.352934	0.385458	0.112467	0.348673	0.040318	0.011219	0.205865	0.030524	0.060554	0.153621	0.273436	0.195400	0.290118	0.091862	0.100538	0.038405	0.101131	0.089224	0.158281	0.105998	0.040273	0.117932	0.104345	0.296958	0.008302	0.174148	0.321355	0.015050	0.403545	0.237446	0.183890	0.092779	0.361350	0.149214	0.010422	0.320208	0.004951	0.070411	0.117610	0.056242	0.213827	0.034202	0.086693	0.037200	0.142996	0.087639	0.064096	0.056944	0.052094	0.091380	0.016295	0.084000	0.028873	0.189326	0.210093	0.153153	0.108128	0.084309	0.247971	0.013309	0.232356	0.030992	0.274811	0.175671	0.314541	0.004230	0.025983	0.139597	0.331360	0.215959	0.148966	0.579959	0.073297	0.424376	0.107046	0.585050	0.204765	0.022473	0.017230	0.069354	0.024619	0.142502	0.029918	0.004861	0.130713	0.032566	0.065862	0.092943	0.167237	0.184711	0.276093	0.428350	0.128977	0.019242	0.215423	0.065968	0.100113	0.064071	0.037269	0.137579	0.026969	0.002821	0.147201	0.095213	0.217499	0.124549	0.029367	0.048466	0.026529	0.046146	0.040824	0.022830	0.039623	0.005542	0.047212	0.016055	0.033237	0.020867	0.004325	0.003468	0.003494	0.005809	0.003578	0.018127	0.010284	0.012430	0.009096	0.016852	0.003880	0.025477	0.000808	0.037739	0.010531	0.003399	0.006230	0.005506	0.007892	0.002878	0.006919	0.003944	0.006255	0.011646	0.001013	0.006071	0.003020	0.001747	0.005056	0.003072	0.000987	0.000726	0.000888	0.000168	0.022257	0.011814	0.002488	0.005625	0.006813	0.003262	0.010169	0.006548	0.003729	0.009516	0.010863	0.002689	0.009010	0.011312	0.005376	0.005509	0.009441	0.004711	0.000992	0.001435	0.007893	0.007820	0.003454	0.006569	0.007346	0.005581	0.003285	0.000712	0.001541	0.007522	0.007983	0.006444	0.010707	0.010024	0.017624	0.005853	0.003402	0.002512	0.003100	0.004564	0.001334	0.009259	0.001600	0.007593	0.009958	0.002969	0.003541	0.002723	0.004849	0.004981	0.007320	0.004404	0.003153	0.007093	0.002102	0.009173	0.006774	0.002095	0.001600	0.002404	0.007237	0.011669	0.009793	0.004690	0.002626	0.006399	0.004043	0.005753	0.000663	0.001358	0.000550	0.004749	0.006706	0.001070	0.007407	0.006593	0.002471	0.004208	0.002545	0.001546	0.001906	0.005361	0.002075	0.002368	0.003133	0.007736	0.005616	0.003494	0.001384	0.000746	0.002737	0.008818	0.006976	0.007474	0.003670	0.002910	0.005166	0.008145	0.002189	0.008539	0.003362	0.001618	0.003446	0.007325	0.001952	0.004414	0.006215	0.004792	0.000312	0.003507	0.003611	
193 1
