1603.0,1972.0,2014.0,1881.0,0.0,0.0,
1616.0,1985.0,2026.0,1861.0,0.0,0.0,
1921.0,2029.0,2075.0,1979.0,0.0,0.0,
2316.0,2083.0,2135.0,2162.0,0.0,0.0,
2591.0,2117.0,2170.0,2296.0,0.0,0.0,
2533.0,2101.0,2153.0,2294.0,0,0,
2192.0,2050.0,2100.0,2159.0,0.0,0.0,
1807.0,2000.0,2043.0,1978.0,0.0,0.0,
1574.0,1972.0,2017.0,1859.0,0.0,0.0,
1676.0,1986.0,2038.0,1884.0,0.0,0.0,
2038.0,2049.0,2096.0,2027.0,0.0,0.0,
2422.0,2095.0,2151.0,2196.0,0.0,0.0,
2599.0,2114.0,2169.0,2308.0,0.0,0.0,
2455.0,2085.0,2136.0,2266.0,0.0,0.0,
2075.0,2032.0,2082.0,2103.0,0.0,0.0,
1708.0,1986.0,2028.0,1937.0,0.0,0.0,
1579.0,1979.0,2023.0,1853.0,0.0,0.0,
1782.0,2011.0,2053.0,1915.0,0.0,0.0,
2166.0,2064.0,2112.0,2087.0,0.0,0.0,
2526.0,2109.0,2161.0,2252.0,0.0,0.0,
2587.0,2106.0,2161.0,2307.0,0.0,0.0,
2354.0,2071.0,2122.0,2234.0,0.0,0.0,
1955.0,2019.0,2063.0,2048.0,0.0,0.0,
1633.0,1976.0,2017.0,1888.0,0.0,0.0,
1611.0,1981.0,2025.0,1857.0,0.0,0.0,
1885.0,2026.0,2068.0,1960.0,0.0,0.0,
2288.0,2082.0,2128.0,2141.0,0.0,0.0,
2571.0,2114.0,2167.0,2297.0,0.0,0.0,
2547.0,2103.0,2156.0,2301.0,0.0,0.0,
2236.0,2056.0,2103.0,2178.0,0.0,0.0,
1836.0,2005.0,2046.0,1993.0,0.0,0.0,
1584.0,1973.0,2014.0,1860.0,0.0,0.0,
1655.0,1991.0,2034.0,1871.0,0.0,0.0,
2002.0,2039.0,2087.0,2012.0,0.0,0.0,
2395.0,2100.0,2145.0,2191.0,0.0,0.0,
2606.0,2115.0,2170.0,2307.0,0.0,0.0,
2486.0,2091.0,2143.0,2275.0,0.0,0.0,
2126.0,2040.0,2088.0,2123.0,0.0,0.0,
1738.0,1986.0,2030.0,1944.0,0.0,0.0,
1580.0,1972.0,2014.0,1849.0,0.0,0.0,
1738.0,2013.0,2048.0,1902.0,0.0,0.0,
2117.0,2059.0,2105.0,2066.0,0.0,0.0,
2494.0,2101.0,2157.0,2238.0,0.0,0.0,
2594.0,2107.0,2162.0,2308.0,0.0,0.0,
2386.0,2075.0,2129.0,2243.0,0.0,0.0,
1991.0,2021.0,2066.0,2069.0,0.0,0.0,
1656.0,1985.0,2026.0,1905.0,0.0,0.0,
1599.0,1982.0,2022.0,1854.0,0.0,0.0,
1845.0,2022.0,2066.0,1944.0,0.0,0.0,
2229.0,2074.0,2122.0,2120.0,0.0,0.0,
2558.0,2111.0,2166.0,2274.0,0.0,0.0,
2564.0,2106.0,2153.0,2300.0,0.0,0.0,
2279.0,2062.0,2112.0,2197.0,0.0,0.0,
1870.0,2008.0,2054.0,2014.0,0.0,0.0,
1590.0,1972.0,2014.0,1869.0,0.0,0.0,
1627.0,1988.0,2029.0,1863.0,0.0,0.0,
1952.0,2035.0,2076.0,1991.0,0.0,0.0,
2343.0,2088.0,2136.0,2170.0,0.0,0.0,
2601.0,2120.0,2173.0,2302.0,0.0,0.0,
2513.0,2098.0,2148.0,2288.0,0.0,0.0,
2156.0,2044.0,2094.0,2145.0,0.0,0.0,
1766.0,1994.0,2036.0,1963.0,0.0,0.0,
1562.0,1973.0,2017.0,1854.0,0.0,0.0,
1689.0,1999.0,2042.0,1887.0,0.0,0.0,
2070.0,2056.0,2100.0,2046.0,0.0,0.0,
2446.0,2103.0,2153.0,2222.0,0.0,0.0,
2586.0,2115.0,2165.0,2310.0,0.0,0.0,
2424.0,2085.0,2134.0,2256.0,0.0,0.0,
2037.0,2027.0,2077.0,2091.0,0.0,0.0,
1682.0,1985.0,2025.0,1919.0,0.0,0.0,
1594.0,1980.0,2024.0,1852.0,0.0,0.0,
1798.0,2014.0,2059.0,1927.0,0.0,0.0,
2198.0,2068.0,2117.0,2101.0,0.0,0.0,
2530.0,2111.0,2161.0,2262.0,0.0,0.0,
2566.0,2104.0,2160.0,2307.0,0.0,0.0,
2317.0,2070.0,2118.0,2218.0,0.0,0.0,
1921.0,2017.0,2062.0,2039.0,0.0,0.0,
1614.0,1975.0,2014.0,1882.0,0.0,0.0,
1616.0,1985.0,2027.0,1859.0,0.0,0.0,
1906.0,2030.0,2073.0,1969.0,0.0,0.0,
2300.0,2083.0,2133.0,2151.0,0.0,0.0,
2585.0,2113.0,2167.0,2291.0,0.0,0.0,
2536.0,2110.0,2157.0,2298.0,0.0,0.0,
2208.0,2052.0,2099.0,2165.0,0.0,0.0,
1815.0,2001.0,2042.0,1981.0,0.0,0.0,
1578.0,1973.0,2015.0,1862.0,0.0,0.0,
1670.0,2000.0,2035.0,1879.0,0.0,0.0,
2026.0,2046.0,2094.0,2025.0,0.0,0.0,
2408.0,2105.0,2152.0,2206.0,0.0,0.0,
2607.0,2117.0,2169.0,2311.0,0.0,0.0,
2465.0,2088.0,2137.0,2272.0,0.0,0.0,
2094.0,2033.0,2083.0,2112.0,0.0,0.0,
1712.0,1986.0,2031.0,1936.0,0.0,0.0,
1578.0,1969.0,2016.0,1852.0,0.0,0.0,
1749.0,2006.0,2059.0,1914.0,0.0,0.0,
2137.0,2060.0,2109.0,2077.0,0.0,0.0,
2498.0,2111.0,2163.0,2247.0,0.0,0.0,
2585.0,2108.0,2164.0,2314.0,0.0,0.0,
2376.0,2073.0,2123.0,2233.0,0.0,0.0,
1971.0,2020.0,2066.0,2057.0,0.0,0.0,
1634.0,1980.0,2024.0,1903.0,0.0,0.0,
1599.0,1987.0,2025.0,1858.0,0.0,0.0,
1859.0,2024.0,2065.0,1950.0,0.0,0.0,
2263.0,2078.0,2125.0,2132.0,0.0,0.0,
2571.0,2114.0,2166.0,2281.0,0.0,0.0,
2555.0,2104.0,2155.0,2298.0,0.0,0.0,
2254.0,2059.0,2108.0,2196.0,0.0,0.0,
1864.0,2004.0,2053.0,2007.0,0.0,0.0,
1585.0,1973.0,2019.0,1864.0,0.0,0.0,
1645.0,1991.0,2030.0,1867.0,0.0,0.0,
1971.0,2035.0,2084.0,1996.0,0.0,0.0,
2361.0,2091.0,2139.0,2179.0,0.0,0.0,
2594.0,2112.0,2168.0,2302.0,0.0,0.0,
2503.0,2097.0,2147.0,2285.0,0.0,0.0,
2151.0,2042.0,2091.0,2137.0,0.0,0.0,
1766.0,1993.0,2037.0,1958.0,0.0,0.0,
1576.0,1976.0,2017.0,1852.0,0.0,0.0,
1713.0,1999.0,2045.0,1892.0,0.0,0.0,
2088.0,2053.0,2100.0,2050.0,0.0,0.0,
2467.0,2109.0,2158.0,2229.0,0.0,0.0,
2597.0,2118.0,2164.0,2313.0,0.0,0.0,
2416.0,2082.0,2131.0,2252.0,0.0,0.0,
2020.0,2028.0,2072.0,2081.0,0.0,0.0,
1673.0,1984.0,2022.0,1912.0,0.0,0.0,
1587.0,1979.0,2022.0,1851.0,0.0,0,
1818.0,2018.0,2061.0,1932.0,0.0,0.0,
2211.0,2070.0,2121.0,2106.0,0.0,0.0,
2539.0,2111.0,2163.0,2268.0,0.0,0.0,
2576.0,2107.0,2157.0,2304.0,0.0,0.0,
2306.0,2063.0,2115.0,2205.0,0.0,0.0,
1906.0,2010.0,2055.0,2026.0,0.0,0.0,
1605.0,1979.0,2018.0,1881.0,0.0,0.0,
1626.0,1984.0,2032.0,1862.0,0.0,0.0,
1925.0,2034.0,2076.0,1978.0,0.0,0.0,
2323.0,2083.0,2134.0,2161.0,0.0,0.0,
2588.0,2110.0,2169.0,2294.0,0.0,0.0,
2532.0,2101.0,2145.0,2293.0,0.0,0.0,
2202.0,2053.0,2099.0,2158.0,0.0,0.0,
1799.0,1997.0,2039.0,1977.0,0.0,0.0,
1574.0,1976.0,2013.0,1860.0,0.0,0.0,
1683.0,1994.0,2039.0,1880.0,0.0,0.0,
2041.0,2048.0,2095.0,2032.0,0.0,0.0,
2424.0,2096.0,2149.0,2206.0,0.0,0.0,
2612.0,2118.0,2163.0,2313.0,0.0,0.0,
2455.0,2086.0,2140.0,2265.0,0.0,0.0,
2069.0,2033.0,2082.0,2105.0,0.0,0.0,
1704.0,1985.0,2029.0,1929.0,0.0,0.0,
1582.0,1976.0,2018.0,1849.0,0.0,0.0,
1765.0,2008.0,2052.0,1914.0,0.0,0.0,
2165.0,2074.0,2113.0,2085.0,0.0,0.0,
2518.0,2107.0,2159.0,2253.0,0.0,0.0,
2581.0,2109.0,2161.0,2307.0,0.0,0.0,
2358.0,2065.0,2123.0,2229.0,0.0,0.0,
1951.0,2017.0,2063.0,2047.0,0.0,0.0,
1625.0,1975.0,2020.0,1887.0,0.0,0.0,
1612.0,1989.0,2031.0,1857.0,0.0,0.0,
1876.0,2027.0,2068.0,1958.0,0.0,0.0,
2279.0,2078.0,2129.0,2138.0,0.0,0.0,
2573.0,2118.0,2169.0,2286.0,0.0,0.0,
2544.0,2103.0,2155.0,2300.0,0.0,0.0,
2240.0,2055.0,2101.0,2176.0,0.0,0.0,
1833.0,2008.0,2054.0,1997.0,0.0,0.0,
1584.0,1973.0,2017.0,1864.0,0.0,0.0,
1651.0,1991.0,2039.0,1870.0,0.0,0.0,
2000.0,2039.0,2088.0,2009.0,0.0,0.0,
2383.0,2091.0,2142.0,2190.0,0.0,0.0,
2594.0,2111.0,2164.0,2302.0,0.0,0.0,
2478.0,2095.0,2151.0,2281.0,0.0,0.0,
2117.0,2041.0,2090.0,2126.0,0.0,0.0,
1731.0,1992.0,2032.0,1947.0,0.0,0.0,
1570.0,1979.0,2018.0,1853.0,0.0,0.0,
1730.0,2003.0,2047.0,1902.0,0.0,0.0,
2108.0,2056.0,2104.0,2061.0,0.0,0.0,
2476.0,2106.0,2166.0,2241.0,0.0,0.0,
2592.0,2111.0,2165.0,2313.0,0.0,0.0,
2394.0,2080.0,2129.0,2241.0,0.0,0.0,
2005.0,2022.0,2069.0,2068.0,0.0,0.0,
1644.0,1980.0,2021.0,1905.0,0.0,0.0,
1595.0,1981.0,2024.0,1853.0,0.0,0.0,
1840.0,2019.0,2071.0,1948.0,0.0,0.0,
2237.0,2073.0,2123.0,2120.0,0.0,0.0,
2562.0,2112.0,2163.0,2277.0,0.0,0.0,
2555.0,2104.0,2155.0,2303.0,0.0,0.0,
2271.0,2063.0,2108.0,2198.0,0.0,0.0,
1873.0,2007.0,2052.0,2014.0,0.0,0.0,
1588.0,1976.0,2018.0,1877.0,0.0,0.0,
1631.0,1988.0,2033.0,1866.0,0.0,0.0,
1956.0,2036.0,2083.0,1994.0,0.0,0.0,
2349.0,2089.0,2139.0,2173.0,0.0,0.0,
2595.0,2115.0,2171.0,2300.0,0.0,0.0,
2513.0,2098.0,2147.0,2288.0,0.0,0.0,
2162.0,2043.0,2097.0,2155.0,0.0,0.0,
1773.0,1997.0,2038.0,1964.0,0.0,0.0,
1579.0,1977.0,2013.0,1855.0,0.0,0.0,
1701.0,1997.0,2039.0,1889.0,0.0,0.0,
2062.0,2053.0,2099.0,2039.0,0.0,0.0,
2447.0,2101.0,2150.0,2219.0,0.0,0.0,
2596.0,2113.0,2166.0,2316.0,0.0,0.0,
2437.0,2083.0,2136.0,2262.0,0.0,0.0,
2052.0,2033.0,2076.0,2092.0,0.0,0.0,
1688.0,1986.0,2024.0,1921.0,0.0,0.0,
1588.0,1977.0,2021.0,1851.0,0.0,0.0,
1791.0,2012.0,2055.0,1914.0,0.0,0.0,
2188.0,2064.0,2112.0,2094.0,0.0,0.0,
2537.0,2111.0,2164.0,2265.0,0.0,0.0,
2585.0,2110.0,2161.0,2308.0,0.0,0.0,
2328.0,2070.0,2120.0,2216.0,0.0,0.0,
1930.0,2018.0,2061.0,2035.0,0.0,0.0,
1615.0,1975.0,2020.0,1884.0,0.0,0.0,
1617.0,1984.0,2024.0,1858.0,0.0,0.0,
1904.0,2032.0,2077.0,1968.0,0.0,0.0,
2297.0,2083.0,2131.0,2150.0,0.0,0.0,
2582.0,2115.0,2171.0,2291.0,0.0,0.0,
2536.0,2101.0,2152.0,2298.0,0.0,0.0,
2214.0,2052.0,2101.0,2168.0,0.0,0.0,
1818.0,2000.0,2044.0,1985.0,0.0,0.0,
1585.0,1979.0,2018.0,1863.0,0.0,0.0,
1665.0,1990.0,2037.0,1875.0,0.0,0.0,
2018.0,2045.0,2091.0,2017.0,0.0,0.0,
2402.0,2094.0,2147.0,2196.0,0.0,0.0,
2600.0,2118.0,2167.0,2307.0,0.0,0.0,
2474.0,2089.0,2137.0,2270.0,0.0,0.0,
2109.0,2042.0,2086.0,2115.0,0.0,0.0,
1726.0,1990.0,2032.0,1939.0,0.0,0.0,
1577.0,1978.0,2017.0,1851.0,0.0,0.0,
1750.0,2008.0,2047.0,1906.0,0.0,0.0,
2134.0,2069.0,2107.0,2072.0,0.0,0.0,
2499.0,2105.0,2158.0,2240.0,0.0,0.0,
2587.0,2122.0,2168.0,2314.0,0.0,0.0,
2382.0,2077.0,2129.0,2234.0,0.0,0.0,
1981.0,2021.0,2069.0,2061.0,0.0,0.0,
1639.0,1982.0,2025.0,1896.0,0.0,0.0,
1603.0,1980.0,2026.0,1855.0,0.0,0.0,
1844.0,2021.0,2064.0,1945.0,0.0,0.0,
2249.0,2074.0,2132.0,2129.0,0.0,0.0,
2565.0,2115.0,2171.0,2278.0,0.0,0.0,
2549.0,2106.0,2159.0,2303.0,0.0,0.0,
2275.0,2058.0,2108.0,2192.0,0.0,0.0,
1864.0,2003.0,2050.0,2010.0,0.0,0.0,
1586.0,1972.0,2016.0,1869.0,0.0,0.0,
1640.0,1989.0,2038.0,1874.0,0.0,0.0,
1959.0,2037.0,2086.0,1995.0,0.0,0.0,
2364.0,2090.0,2143.0,2176.0,0.0,0.0,
2598.0,2114.0,2166.0,2301.0,0.0,0.0,
2503.0,2094.0,2146.0,2287.0,0.0,0.0,
2149.0,2042.0,2092.0,2137.0,0.0,0.0,
1764.0,1992.0,2042.0,1962.0,0.0,0.0,
1575.0,1975.0,2014.0,1854.0,0.0,0.0,
1716.0,2002.0,2045.0,1891.0,0.0,0.0,
2086.0,2054.0,2103.0,2050.0,0.0,0.0,
2468.0,2099.0,2154.0,2227.0,0.0,0.0,
2595.0,2112.0,2162.0,2308.0,0.0,0.0,
2409.0,2085.0,2140.0,2254.0,0.0,0.0,
2024.0,2029.0,2079.0,2083.0,0.0,0.0,
1662.0,1996.0,2024.0,1913.0,0.0,0.0,
1597.0,1980.0,2021.0,1852.0,0.0,0.0,
1813.0,2015.0,2064.0,1933.0,0.0,0.0,
2207.0,2068.0,2119.0,2108.0,0.0,0.0,
2546.0,2116.0,2177.0,2274.0,0.0,0.0,
2575.0,2108.0,2164.0,2305.0,0.0,0.0,
2297.0,2064.0,2114.0,2208.0,0.0,0.0,
1901.0,2010.0,2058.0,2024.0,0.0,0.0,
1598.0,1973.0,2017.0,1876.0,0.0,0.0,
1623.0,1987.0,2029.0,1862.0,0.0,0.0,
1929.0,2037.0,2088.0,1984.0,0.0,0.0,
2330.0,2088.0,2137.0,2167.0,0.0,0.0,
2587.0,2114.0,2167.0,2296.0,0.0,0.0,
2524.0,2099.0,2150.0,2292.0,0.0,0.0,
2190.0,2048.0,2096.0,2153.0,0,0,
1795.0,1996.0,2041.0,1974.0,0.0,0.0,
1578.0,1973.0,2020.0,1862.0,0.0,0.0,
1684.0,1996.0,2042.0,1882.0,0.0,0.0,
2044.0,2049.0,2097.0,2032.0,0.0,0.0,
2416.0,2098.0,2147.0,2210.0,0.0,0.0,
2606.0,2112.0,2165.0,2308.0,0.0,0.0,
2448.0,2085.0,2135.0,2266.0,0.0,0.0,
2072.0,2028.0,2079.0,2109.0,0.0,0.0,
1709.0,1989.0,2032.0,1932.0,0.0,0.0,
1577.0,1977.0,2018.0,1853.0,0.0,0.0,
1767.0,2012.0,2052.0,1912.0,0.0,0.0,
2164.0,2068.0,2111.0,2083.0,0.0,0.0,
2516.0,2109.0,2158.0,2254.0,0.0,0.0,
2586.0,2112.0,2161.0,2307.0,0.0,0.0,
2353.0,2076.0,2121.0,2228.0,0.0,0.0,
1957.0,2021.0,2065.0,2050.0,0.0,0.0,
1627.0,1974.0,2019.0,1892.0,0.0,0.0,
1606.0,1981.0,2024.0,1854.0,0,0,
1879.0,2021.0,2072.0,1957.0,0.0,0.0,
2280.0,2079.0,2129.0,2138.0,0.0,0.0,
2588.0,2115.0,2172.0,2288.0,0.0,0.0,
2554.0,2106.0,2157.0,2302.0,0.0,0.0,
2236.0,2057.0,2104.0,2177.0,0.0,0.0,
1841.0,2003.0,2047.0,1996.0,0.0,0.0,
1587.0,1973.0,2013.0,1864.0,0.0,0.0,
1657.0,1990.0,2034.0,1870.0,0.0,0.0,
1995.0,2042.0,2087.0,2010.0,0.0,0.0,
2386.0,2094.0,2146.0,2190.0,0.0,0.0,
2601.0,2114.0,2171.0,2305.0,0.0,0.0,
2484.0,2094.0,2143.0,2278.0,0,0,
2119.0,2038.0,2087.0,2125.0,0.0,0.0,
1743.0,1991.0,2032.0,1948.0,0.0,0.0,
1578.0,1984.0,2020.0,1853.0,0.0,0.0,
1736.0,2006.0,2050.0,1903.0,0.0,0.0,
2107.0,2059.0,2109.0,2064.0,0.0,0.0,
2479.0,2105.0,2159.0,2238.0,0.0,0.0,
2587.0,2109.0,2165.0,2308.0,0.0,0.0,
2392.0,2077.0,2129.0,2243.0,0.0,0.0,
2004.0,2021.0,2072.0,2066.0,0.0,0.0,
1651.0,1981.0,2021.0,1906.0,0.0,0.0,
1603.0,1980.0,2023.0,1854.0,0.0,0.0,
1844.0,2019.0,2062.0,1941.0,0.0,0.0,
2234.0,2071.0,2119.0,2118.0,0.0,0.0,
2563.0,2114.0,2166.0,2274.0,0.0,0.0,
2573.0,2110.0,2159.0,2304.0,0.0,0.0,
2277.0,2063.0,2110.0,2199.0,0.0,0.0,
1882.0,2008.0,2050.0,2014.0,0.0,0.0,
1590.0,1971.0,2015.0,1870.0,0.0,0.0,
1633.0,1987.0,2028.0,1865.0,0.0,0.0,
1953.0,2035.0,2080.0,1990.0,0.0,0.0,
2362.0,2090.0,2139.0,2175.0,0.0,0.0,
2594.0,2115.0,2170.0,2299.0,0.0,0.0,
2507.0,2096.0,2149.0,2287.0,0.0,0.0,
2156.0,2045.0,2093.0,2144.0,0.0,0.0,
1771.0,1998.0,2035.0,1963.0,0.0,0.0,
1565.0,1974.0,2016.0,1855.0,0.0,0.0,
1704.0,2005.0,2049.0,1890.0,0.0,0.0,
2065.0,2053.0,2099.0,2044.0,0.0,0.0,
2448.0,2100.0,2151.0,2220.0,0.0,0.0,
2598.0,2112.0,2165.0,2314.0,0.0,0.0,
2425.0,2082.0,2133.0,2257.0,0.0,0.0,
2043.0,2022.0,2075.0,2093.0,0.0,0.0,
1679.0,1992.0,2030.0,1917.0,0.0,0.0,
1585.0,1979.0,2022.0,1852.0,0.0,0.0,
1794.0,2009.0,2057.0,1925.0,0.0,0.0,
2186.0,2066.0,2116.0,2101.0,0.0,0.0,
2535.0,2109.0,2164.0,2262.0,0.0,0.0,
2574.0,2105.0,2160.0,2308.0,0.0,0.0,
2325.0,2074.0,2123.0,2219.0,0.0,0.0,
1924.0,2013.0,2063.0,2038.0,0.0,0.0,
1605.0,1978.0,2019.0,1882.0,0.0,0.0,
1616.0,1986.0,2027.0,1859.0,0.0,0.0,
1905.0,2029.0,2074.0,1970.0,0.0,0.0,
2307.0,2082.0,2132.0,2150.0,0.0,0.0,
2586.0,2118.0,2180.0,2297.0,0.0,0.0,
2536.0,2101.0,2155.0,2297.0,0.0,0.0,
2218.0,2055.0,2100.0,2165.0,0.0,0.0,
1824.0,1999.0,2046.0,1983.0,0.0,0.0,
1576.0,1974.0,2016.0,1860.0,0.0,0.0,
1674.0,1989.0,2036.0,1873.0,0.0,0.0,
2026.0,2049.0,2103.0,2024.0,0.0,0.0,
2409.0,2096.0,2150.0,2202.0,0,0,
2605.0,2114.0,2168.0,2307.0,0.0,0.0,
2466.0,2087.0,2141.0,2270.0,0.0,0.0,
2086.0,2033.0,2084.0,2111.0,0.0,0.0,
1714.0,1985.0,2028.0,1935.0,0.0,0.0,
1581.0,1978.0,2025.0,1855.0,0.0,0.0,
1763.0,2009.0,2050.0,1909.0,0.0,0.0,
2148.0,2059.0,2109.0,2080.0,0.0,0.0,
2515.0,2107.0,2160.0,2246.0,0.0,0.0,
2590.0,2108.0,2162.0,2311.0,0.0,0.0,
2365.0,2072.0,2125.0,2228.0,0.0,0.0,
1964.0,2019.0,2076.0,2059.0,0.0,0.0,
1624.0,1978.0,2022.0,1893.0,0.0,0.0,
1601.0,1982.0,2028.0,1855.0,0.0,0.0,
1860.0,2020.0,2068.0,1953.0,0.0,0.0,
2265.0,2077.0,2126.0,2134.0,0.0,0.0,
2571.0,2114.0,2169.0,2283.0,0.0,0.0,
2547.0,2102.0,2164.0,2306.0,0.0,0.0,
2247.0,2058.0,2108.0,2186.0,0.0,0.0,
1851.0,2006.0,2050.0,2002.0,0.0,0.0,
1587.0,1976.0,2013.0,1868.0,0.0,0.0,
1645.0,1990.0,2032.0,1870.0,0.0,0.0,
1981.0,2041.0,2086.0,2001.0,0.0,0.0,
2376.0,2089.0,2146.0,2195.0,0,0,
2596.0,2117.0,2169.0,2304.0,0.0,0.0,
2496.0,2091.0,2147.0,2280.0,0.0,0.0,
2133.0,2043.0,2090.0,2133.0,0.0,0.0,
1751.0,1993.0,2033.0,1954.0,0.0,0.0,
1574.0,1970.0,2020.0,1851.0,0.0,0.0,
1724.0,1999.0,2045.0,1897.0,0.0,0.0,
2096.0,2054.0,2103.0,2056.0,0.0,0.0,
2469.0,2105.0,2154.0,2230.0,0.0,0.0,
2595.0,2114.0,2166.0,2308.0,0.0,0.0,
2411.0,2077.0,2132.0,2248.0,0.0,0.0,
2023.0,2024.0,2074.0,2079.0,0.0,0.0,
1667.0,1984.0,2025.0,1909.0,0.0,0.0,
1596.0,1984.0,2024.0,1856.0,0.0,0.0,
1821.0,2017.0,2061.0,1931.0,0.0,0.0,
2221.0,2071.0,2120.0,2107.0,0.0,0.0,
2548.0,2112.0,2164.0,2266.0,0.0,0.0,
2567.0,2106.0,2157.0,2304.0,0.0,0.0,
2306.0,2064.0,2116.0,2204.0,0.0,0.0,
1906.0,2013.0,2059.0,2026.0,0.0,0.0,
1605.0,1977.0,2019.0,1875.0,0,0,
1619.0,1988.0,2033.0,1863.0,0.0,0.0,
1923.0,2034.0,2078.0,1979.0,0.0,0.0,
2325.0,2083.0,2137.0,2160.0,0.0,0.0,
2582.0,2115.0,2167.0,2293.0,0.0,0.0,
2537.0,2102.0,2154.0,2294.0,0.0,0.0,
2195.0,2050.0,2098.0,2159.0,0.0,0.0,
1795.0,1998.0,2043.0,1976.0,0.0,0.0,
1575.0,1974.0,2014.0,1857.0,0.0,0.0,
1677.0,1994.0,2039.0,1880.0,0.0,0.0,
2037.0,2043.0,2097.0,2031.0,0.0,0.0,
2422.0,2101.0,2151.0,2210.0,0.0,0.0,
2596.0,2116.0,2166.0,2310.0,0.0,0.0,
2448.0,2085.0,2136.0,2265.0,0.0,0.0,
2072.0,2035.0,2079.0,2105.0,0.0,0.0,
1703.0,1983.0,2027.0,1932.0,0.0,0.0,
1576.0,1977.0,2020.0,1849.0,0.0,0.0,
1769.0,2016.0,2060.0,1920.0,0.0,0.0,
2161.0,2068.0,2113.0,2088.0,0.0,0.0,
2512.0,2109.0,2163.0,2253.0,0.0,0.0,
2573.0,2110.0,2163.0,2310.0,0.0,0.0,
2343.0,2071.0,2120.0,2223.0,0.0,0.0,
1953.0,2017.0,2063.0,2049.0,0.0,0.0,
1623.0,1976.0,2025.0,1895.0,0.0,0.0,
1611.0,1987.0,2029.0,1856.0,0.0,0.0,
1876.0,2028.0,2071.0,1957.0,0.0,0.0,
2269.0,2078.0,2131.0,2137.0,0.0,0.0,
2566.0,2113.0,2170.0,2284.0,0.0,0.0,
2539.0,2099.0,2155.0,2298.0,0.0,0.0,
2237.0,2056.0,2109.0,2189.0,0.0,0.0,
1842.0,2003.0,2048.0,2001.0,0.0,0.0,
1582.0,1970.0,2015.0,1864.0,0.0,0.0,
1650.0,1993.0,2033.0,1871.0,0.0,0.0,
1986.0,2042.0,2086.0,2009.0,0.0,0.0,
2381.0,2093.0,2144.0,2189.0,0.0,0.0,
2595.0,2118.0,2167.0,2309.0,0.0,0.0,
2492.0,2094.0,2146.0,2279.0,0.0,0.0,
2128.0,2042.0,2090.0,2128.0,0.0,0.0,
1747.0,1989.0,2034.0,1951.0,0.0,0.0,
1575.0,1976.0,2016.0,1850.0,0.0,0.0,
1723.0,2002.0,2043.0,1895.0,0.0,0.0,
2109.0,2056.0,2103.0,2063.0,0.0,0.0,
2482.0,2104.0,2159.0,2238.0,0.0,0.0,
2594.0,2111.0,2166.0,2313.0,0.0,0.0,
2400.0,2078.0,2131.0,2243.0,0.0,0,
2005.0,2024.0,2072.0,2074.0,0.0,0.0,
1651.0,1978.0,2022.0,1908.0,0.0,0.0,
1602.0,1977.0,2021.0,1851.0,0.0,0.0,
1827.0,2019.0,2065.0,1942.0,0.0,0.0,
2230.0,2073.0,2123.0,2115.0,0.0,0.0,
2547.0,2112.0,2166.0,2271.0,0.0,0.0,
2567.0,2105.0,2157.0,2303.0,0.0,0.0,
2279.0,2060.0,2109.0,2197.0,0.0,1.0,
1879.0,2004.0,2054.0,2017.0,0.0,1.0,
1597.0,1980.0,2017.0,1876.0,0.0,1.0,
1637.0,1989.0,2028.0,1863.0,0.0,1.0,
1947.0,2035.0,2082.0,1987.0,0.0,1.0,
2340.0,2088.0,2138.0,2167.0,0.0,1.0,
2611.0,2117.0,2166.0,2298.0,0.0,1.0,
2513.0,2097.0,2146.0,2287.0,0.0,1.0,
2185.0,2052.0,2097.0,2149.0,0.0,1.0,
1786.0,1995.0,2040.0,1968.0,0.0,1.0,
1577.0,1976.0,2017.0,1854.0,0.0,1.0,
1700.0,1995.0,2041.0,1885.0,0.0,1.0,
2057.0,2050.0,2096.0,2038.0,0.0,1.0,
2438.0,2098.0,2152.0,2216.0,0.0,1.0,
2605.0,2115.0,2168.0,2313.0,0.0,1.0,
2436.0,2085.0,2134.0,2258.0,0.0,1.0,
2055.0,2034.0,2077.0,2093.0,0.0,1.0,
1689.0,1986.0,2026.0,1919.0,0.0,1.0,
1579.0,1978.0,2018.0,1850.0,0.0,1.0,
1783.0,2014.0,2055.0,1920.0,0.0,1.0,
2182.0,2074.0,2117.0,2096.0,0.0,1.0,
2529.0,2110.0,2163.0,2258.0,0.0,1.0,
2572.0,2109.0,2160.0,2308.0,0.0,1.0,
2330.0,2069.0,2118.0,2217.0,0.0,0,
1934.0,2013.0,2059.0,2041.0,0.0,1.0,
1618.0,1975.0,2017.0,1887.0,0.0,1.0,
1612.0,1987.0,2033.0,1862.0,0.0,1.0,
1889.0,2030.0,2075.0,1965.0,0.0,1.0,
2290.0,2082.0,2126.0,2144.0,0.0,1.0,
2581.0,2116.0,2173.0,2289.0,0.0,0.0,
2541.0,2100.0,2155.0,2296.0,0.0,0.0,
2219.0,2051.0,2101.0,2176.0,0.0,0.0,
1831.0,1999.0,2043.0,1999.0,0.0,0.0,
1587.0,1969.0,2018.0,1864.0,0.0,0.0,
1664.0,1993.0,2038.0,1874.0,0.0,0.0,
2009.0,2045.0,2090.0,2015.0,0.0,-1.0,
2393.0,2090.0,2144.0,2193.0,0.0,-1.0,
2604.0,2118.0,2167.0,2304.0,0.0,-1.0,
2481.0,2088.0,2143.0,2279.0,0.0,-1.0,
2115.0,2042.0,2087.0,2125.0,0.0,-1.0,
1734.0,1991.0,2034.0,1945.0,0.0,-1.0,
1575.0,1978.0,2017.0,1850.0,0.0,-1.0,
1740.0,2006.0,2047.0,1903.0,0.0,-1.0,
2118.0,2058.0,2105.0,2067.0,0.0,-1.0,
2482.0,2106.0,2155.0,2237.0,0.0,-2.0,
2595.0,2116.0,2163.0,2310.0,0.0,-2.0,
2393.0,2081.0,2125.0,2242.0,0,0,
1992.0,2024.0,2069.0,2070.0,0.0,-2.0,
1652.0,1977.0,2022.0,1903.0,0.0,-2.0,
1595.0,1979.0,2023.0,1854.0,0.0,-2.0,
1838.0,2016.0,2064.0,1940.0,0.0,-1.0,
2241.0,2077.0,2125.0,2120.0,0.0,-2.0,
2557.0,2113.0,2169.0,2276.0,0.0,-2.0,
2566.0,2105.0,2155.0,2303.0,-1.0,-2.0,
2279.0,2061.0,2114.0,2198.0,-1.0,-2.0,
1875.0,2007.0,2053.0,2015.0,-1.0,-2.0,
1589.0,1974.0,2013.0,1873.0,-1.0,-2.0,
1631.0,2000.0,2032.0,1866.0,-1.0,-2.0,
1948.0,2035.0,2082.0,1991.0,-1.0,-2.0,
2341.0,2088.0,2138.0,2171.0,-1.0,-3.0,
2590.0,2120.0,2169.0,2301.0,-1.0,-3.0,
2507.0,2096.0,2148.0,2289.0,-1.0,-3.0,
2171.0,2047.0,2097.0,2146.0,-1.0,-4.0,
1776.0,2006.0,2047.0,1968.0,0,0,
1577.0,1977.0,2019.0,1855.0,-2.0,-4.0,
1692.0,2000.0,2042.0,1885.0,-2.0,-4.0,
2060.0,2054.0,2098.0,2038.0,-2.0,-5.0,
2443.0,2101.0,2151.0,2216.0,-2.0,-5.0,
2600.0,2114.0,2168.0,2309.0,-3.0,-5.0,
2439.0,2087.0,2139.0,2270.0,-3.0,-6.0,
2058.0,2033.0,2082.0,2097.0,-3.0,-6.0,
1693.0,1985.0,2027.0,1925.0,-3.0,-7.0,
1578.0,1977.0,2020.0,1851.0,-3.0,-8.0,
1780.0,2013.0,2053.0,1920.0,-3.0,-8.0,
2166.0,2065.0,2111.0,2090.0,-3.0,-9.0,
2528.0,2109.0,2161.0,2253.0,-4.0,-10.0,
2589.0,2110.0,2163.0,2311.0,-4.0,-10.0,
2344.0,2073.0,2123.0,2220.0,-4.0,-11.0,
1944.0,2016.0,2060.0,2043.0,-4.0,-12.0,
1619.0,1978.0,2018.0,1886.0,-4.0,-13.0,
1615.0,1985.0,2029.0,1858.0,-4.0,-14.0,
1883.0,2028.0,2072.0,1963.0,-5.0,-15.0,
2296.0,2085.0,2132.0,2148.0,-5.0,-15.0,
2582.0,2116.0,2170.0,2288.0,-5.0,-16.0,
2543.0,2098.0,2154.0,2297.0,-5.0,-17.0,
2233.0,2053.0,2105.0,2173.0,-5.0,-18.0,
1815.0,2002.0,2044.0,1988.0,-5.0,-18.0,
1581.0,1979.0,2018.0,1861.0,-6.0,-19.0,
1676.0,1997.0,2039.0,1882.0,-6.0,-20.0,
2047.0,2049.0,2097.0,2035.0,-6.0,-20.0,
2441.0,2099.0,2154.0,2216.0,-6.0,-21.0,
2597.0,2114.0,2166.0,2318.0,-6.0,-21.0,
2417.0,2086.0,2134.0,2251.0,-6.0,-21.0,
2012.0,2031.0,2075.0,2077.0,-7.0,-22.0,
1649.0,1979.0,2023.0,1905.0,-7.0,-22.0,
1595.0,1980.0,2021.0,1852.0,-7.0,-22.0,
1857.0,2024.0,2071.0,1951.0,-7.0,-22.0,
2258.0,2079.0,2128.0,2131.0,-7.0,-22.0,
2577.0,2114.0,2168.0,2287.0,-7.0,-22.0,
2541.0,2102.0,2153.0,2297.0,-7.0,-22.0,
2216.0,2056.0,2109.0,2172.0,-8.0,-22.0,
1813.0,2001.0,2046.0,1984.0,-8.0,-22.0,
1575.0,1972.0,2014.0,1858.0,-8.0,-22.0,
1681.0,1996.0,2040.0,1883.0,-8.0,-22.0,
2056.0,2052.0,2096.0,2038.0,-8.0,-22.0,
2457.0,2102.0,2154.0,2224.0,-8.0,-22.0,
2599.0,2112.0,2166.0,2310.0,-8.0,-22.0,
2413.0,2084.0,2133.0,2248.0,-9.0,-22.0,
1999.0,2022.0,2071.0,2072.0,-9.0,-22.0,
1649.0,1985.0,2024.0,1904.0,-9.0,-22.0,
1599.0,1983.0,2026.0,1856.0,-9.0,-22.0,
1870.0,2021.0,2071.0,1951.0,-9.0,-23.0,
2282.0,2079.0,2131.0,2139.0,-9.0,-23.0,
2578.0,2114.0,2174.0,2298.0,-9.0,-24.0,
2539.0,2101.0,2152.0,2298.0,-10.0,-24.0,
2205.0,2054.0,2098.0,2164.0,-10.0,-25.0,
1798.0,1994.0,2042.0,1978.0,-10.0,-26.0,
1569.0,1974.0,2013.0,1854.0,-10.0,-26.0,
1699.0,2001.0,2042.0,1887.0,-10.0,-27.0,
2077.0,2053.0,2099.0,2045.0,-10.0,-28.0,
2449.0,2105.0,2154.0,2224.0,-10.0,-29.0,
2591.0,2111.0,2169.0,2310.0,-10.0,-30.0,
2393.0,2084.0,2136.0,2248.0,-11.0,-32.0,
1995.0,2023.0,2071.0,2066.0,-11.0,-33.0,
1639.0,1979.0,2018.0,1900.0,-11.0,-34.0,
1600.0,1982.0,2024.0,1854.0,-11.0,-35.0,
1869.0,2024.0,2071.0,1956.0,-11.0,-36.0,
2286.0,2083.0,2130.0,2146.0,-12.0,-37.0,
2583.0,2117.0,2168.0,2289.0,-12.0,-38.0,
2533.0,2092.0,2153.0,2296.0,-12.0,-40.0,
2194.0,2051.0,2097.0,2159.0,-12.0,-41.0,
1798.0,2005.0,2044.0,1978.0,-12.0,-42.0,
1575.0,1975.0,2017.0,1858.0,-12.0,-43.0,
1693.0,2003.0,2041.0,1888.0,-12.0,-43.0,
2069.0,2051.0,2103.0,2047.0,-12.0,-43.0,
2458.0,2102.0,2154.0,2233.0,-12.0,-44.0,
2593.0,2114.0,2166.0,2313.0,-13.0,-44.0,
2386.0,2078.0,2128.0,2244.0,-13.0,-44.0,
1985.0,2021.0,2067.0,2063.0,-13.0,-42.0,
1635.0,1979.0,2017.0,1895.0,-13.0,-42.0,
1606.0,1986.0,2027.0,1857.0,-13.0,-41.0,
1873.0,2026.0,2070.0,1960.0,-13.0,-40.0,
2298.0,2084.0,2131.0,2147.0,-13.0,-39.0,
2593.0,2117.0,2169.0,2289.0,-13.0,-39.0,
2526.0,2105.0,2162.0,2298.0,-13.0,-38.0,
2183.0,2051.0,2097.0,2156.0,-14.0,-37.0,
1780.0,1998.0,2039.0,1971.0,-14.0,-37.0,
1573.0,1975.0,2013.0,1854.0,-14.0,-36.0,
1699.0,2000.0,2044.0,1892.0,-14.0,-36.0,
2092.0,2054.0,2099.0,2056.0,-14.0,-36.0,
2470.0,2103.0,2155.0,2231.0,-14.0,-36.0,
2590.0,2111.0,2166.0,2308.0,-14.0,-37.0,
2376.0,2075.0,2125.0,2238.0,-14.0,-38.0,
1977.0,2022.0,2066.0,2059.0,-15.0,-39.0,
1620.0,1977.0,2019.0,1893.0,-15.0,-40.0,
1609.0,1983.0,2029.0,1859.0,-15.0,-41.0,
1891.0,2034.0,2073.0,1966.0,-15.0,-44.0,
2309.0,2087.0,2139.0,2159.0,-15.0,-48.0,
2592.0,2111.0,2170.0,2300.0,-15.0,-48.0,
2522.0,2098.0,2150.0,2293.0,0,0,
2163.0,2046.0,2095.0,2146.0,-15.0,-50.0,
1756.0,1992.0,2036.0,1969.0,-16.0,-51.0,
1572.0,1976.0,2017.0,1855.0,-16.0,-53.0,
1729.0,2002.0,2047.0,1898.0,-16.0,-54.0,
2118.0,2058.0,2107.0,2065.0,-16.0,-55.0,
2485.0,2106.0,2156.0,2241.0,-16.0,-55.0,
2580.0,2111.0,2165.0,2310.0,-16.0,-56.0,
2344.0,2072.0,2122.0,2227.0,-16.0,-58.0,
1940.0,2015.0,2063.0,2041.0,-16.0,-58.0,
1606.0,1973.0,2017.0,1883.0,-16.0,-54.0,
1618.0,1989.0,2027.0,1863.0,-17.0,-61.0,
1928.0,2033.0,2076.0,1984.0,-17.0,-62.0,
2341.0,2088.0,2135.0,2170.0,-17.0,-62.0,
2594.0,2118.0,2166.0,2301.0,-17.0,-61.0,
2506.0,2099.0,2145.0,2284.0,-17.0,-61.0,
2128.0,2040.0,2088.0,2131.0,-17.0,-60.0,
1730.0,1995.0,2030.0,1943.0,-17.0,-59.0,
1571.0,1978.0,2017.0,1850.0,-17.0,-58.0,
1763.0,2017.0,2055.0,1915.0,-17.0,-58.0,
2161.0,2066.0,2112.0,2092.0,-17.0,0,
2518.0,2111.0,2161.0,2257.0,-17.0,-58.0,
2574.0,2104.0,2158.0,2306.0,-17.0,-57.0,
2297.0,2069.0,2121.0,2209.0,-17.0,-57.0,
1884.0,2011.0,2056.0,2019.0,-17.0,-57.0,
1587.0,1974.0,2013.0,1869.0,-17.0,-57.0,
1641.0,1990.0,2033.0,1866.0,-17.0,-57.0,
1985.0,2038.0,2087.0,2012.0,-17.0,-57.0,
2389.0,2094.0,2144.0,2196.0,-18.0,-56.0,
2597.0,2115.0,2167.0,2309.0,-18.0,-51.0,
2459.0,2088.0,2139.0,2271.0,-18.0,-61.0,
2069.0,2031.0,2079.0,2112.0,-18.0,-54.0,
1681.0,1988.0,2028.0,1927.0,-18.0,-48.0,
1578.0,1975.0,2020.0,1850.0,-18.0,-52.0,
1802.0,2012.0,2059.0,1931.0,-18.0,-52.0,
2212.0,2072.0,2120.0,2111.0,-18.0,-52.0,
2553.0,2114.0,2167.0,2278.0,-18.0,-53.0,
2556.0,2104.0,2154.0,2302.0,-18.0,-54.0,
2243.0,2057.0,2107.0,2183.0,-18.0,-55.0,
1830.0,2002.0,2049.0,1994.0,-18.0,-55.0,
1566.0,1975.0,2015.0,1864.0,-18.0,-56.0,
1676.0,1997.0,2038.0,1878.0,-18.0,-56.0,
2045.0,2048.0,2098.0,2033.0,-18.0,-57.0,
2440.0,2102.0,2149.0,2215.0,-18.0,-57.0,
2592.0,2116.0,2168.0,2309.0,-18.0,-57.0,
2420.0,2082.0,2131.0,2252.0,-18.0,-58.0,
2006.0,2026.0,2072.0,2074.0,-19.0,-58.0,
1650.0,1979.0,2022.0,1906.0,-19.0,-58.0,
1598.0,1981.0,2024.0,1859.0,-19.0,-58.0,
1857.0,2023.0,2067.0,1952.0,-19.0,-64.0,
2278.0,2079.0,2126.0,2138.0,-19.0,-58.0,
2574.0,2114.0,2167.0,2289.0,-19.0,-57.0,
2552.0,2106.0,2159.0,2301.0,-19.0,-62.0,
2197.0,2053.0,2100.0,2164.0,-19.0,-59.0,
1790.0,1997.0,2041.0,1975.0,-19.0,-58.0,
1569.0,1977.0,2014.0,1855.0,-19.0,-58.0,
1696.0,2005.0,2051.0,1891.0,-19.0,-57.0,
2086.0,2055.0,2102.0,2052.0,-19.0,-57.0,
2466.0,2108.0,2153.0,2232.0,-19.0,-56.0,
2589.0,2110.0,2162.0,2310.0,-19.0,-56.0,
2384.0,2077.0,2125.0,2248.0,-19.0,-55.0,
1971.0,2021.0,2069.0,2057.0,-19.0,-54.0,
1623.0,1977.0,2016.0,1893.0,-19.0,-53.0,
1609.0,1988.0,2024.0,1857.0,-19.0,-53.0,
1899.0,2029.0,2074.0,1968.0,-19.0,-52.0,
2317.0,2088.0,2136.0,2158.0,-19.0,-52.0,
2593.0,2117.0,2169.0,2297.0,-19.0,-51.0,
2524.0,2100.0,2152.0,2287.0,-19.0,-50.0,
2162.0,2052.0,2094.0,2144.0,-19.0,-50.0,
1763.0,1994.0,2039.0,1961.0,-19.0,-50.0,
1573.0,1975.0,2017.0,1850.0,-19.0,-49.0,
1721.0,2003.0,2047.0,1895.0,-19.0,-49.0,
2115.0,2058.0,2107.0,2062.0,-19.0,-49.0,
2504.0,2115.0,2164.0,2247.0,-19.0,-49.0,
2588.0,2113.0,2160.0,2311.0,-19.0,-50.0,
2346.0,2070.0,2121.0,2225.0,-19.0,-50.0,
1939.0,2007.0,2061.0,2042.0,-19.0,-50.0,
1599.0,1975.0,2024.0,1885.0,-19.0,-50.0,
1612.0,1986.0,2030.0,1864.0,-19.0,-51.0,
1923.0,2035.0,2077.0,1983.0,-19.0,-51.0,
2340.0,2086.0,2135.0,2170.0,-19.0,-51.0,
2600.0,2116.0,2167.0,2306.0,-19.0,-52.0,
2502.0,2095.0,2144.0,2283.0,-19.0,-52.0,
2134.0,2045.0,2087.0,2132.0,-19.0,-53.0,
1733.0,1989.0,2034.0,1947.0,-19.0,-53.0,
1565.0,1975.0,2016.0,1849.0,-19.0,-54.0,
1758.0,2009.0,2053.0,1912.0,-19.0,-54.0,
2153.0,2063.0,2111.0,2084.0,-19.0,-55.0,
2522.0,2107.0,2160.0,2255.0,-19.0,-55.0,
2568.0,2109.0,2159.0,2305.0,-19.0,-55.0,
2315.0,2068.0,2117.0,2216.0,-19.0,-55.0,
1898.0,2008.0,2057.0,2028.0,-19.0,-56.0,
1594.0,1972.0,2015.0,1875.0,-19.0,-56.0,
1632.0,1986.0,2030.0,1863.0,-19.0,-55.0,
1960.0,2039.0,2091.0,2001.0,-19.0,-55.0,
2367.0,2092.0,2142.0,2184.0,0,0,
2604.0,2116.0,2167.0,2291.0,-19.0,-55.0,
2480.0,2094.0,2143.0,2276.0,-19.0,-54.0,
2095.0,2035.0,2083.0,2118.0,-19.0,-54.0,
1712.0,1990.0,2031.0,1936.0,-19.0,-54.0,
1579.0,1974.0,2022.0,1851.0,-19.0,-53.0,
1780.0,2012.0,2056.0,1921.0,-19.0,-53.0,
2185.0,2069.0,2114.0,2100.0,-19.0,-52.0,
2548.0,2113.0,2170.0,2268.0,-19.0,-52.0,
2565.0,2108.0,2162.0,2304.0,-19.0,-51.0,
2280.0,2056.0,2113.0,2197.0,-19.0,-51.0,
1871.0,2008.0,2052.0,2011.0,-19.0,-51.0,
1588.0,1977.0,2018.0,1871.0,-19.0,-50.0,
1652.0,1993.0,2033.0,1870.0,-19.0,-50.0,
2002.0,2039.0,2090.0,2009.0,-19.0,-50.0,
2396.0,2093.0,2158.0,2194.0,-19.0,-50.0,
2598.0,2116.0,2178.0,2314.0,-19.0,-50.0,
2453.0,2092.0,2138.0,2265.0,-19.0,-50.0,
2062.0,2034.0,2081.0,2100.0,-19.0,-50.0,
1686.0,1984.0,2028.0,1920.0,-19.0,-50.0,
1586.0,1980.0,2021.0,1853.0,-19.0,-50.0,
1814.0,2018.0,2060.0,1930.0,-19.0,-51.0,
2210.0,2072.0,2120.0,2113.0,-19.0,-51.0,
2555.0,2111.0,2163.0,2275.0,-19.0,-51.0,
2555.0,2104.0,2156.0,2303.0,-19.0,-52.0,
2254.0,2061.0,2109.0,2187.0,-19.0,-52.0,
1844.0,2004.0,2046.0,1997.0,-19.0,-53.0,
1578.0,1974.0,2014.0,1860.0,-19.0,-53.0,
1669.0,1995.0,2034.0,1873.0,-19.0,-53.0,
2031.0,2047.0,2091.0,2027.0,-19.0,-54.0,
2423.0,2097.0,2148.0,2210.0,-19.0,-54.0,
2594.0,2113.0,2168.0,2304.0,-19.0,-54.0,
2426.0,2086.0,2134.0,2255.0,-20.0,-55.0,
2032.0,2035.0,2077.0,2086.0,-20.0,-55.0,
1665.0,1983.0,2023.0,1911.0,-20.0,-55.0,
1598.0,1981.0,2023.0,1852.0,-20.0,-55.0,
1843.0,2022.0,2064.0,1942.0,-20.0,-55.0,
2250.0,2072.0,2125.0,2136.0,-20.0,-55.0,
2576.0,2116.0,2169.0,2284.0,-19.0,-55.0,
2542.0,2104.0,2154.0,2300.0,-19.0,-55.0,
2214.0,2053.0,2100.0,2169.0,-19.0,-55.0,
1806.0,1998.0,2044.0,1981.0,-19.0,-54.0,
1570.0,1977.0,2016.0,1858.0,-19.0,-54.0,
1689.0,1999.0,2041.0,1881.0,-19.0,-54.0,
2064.0,2050.0,2098.0,2040.0,-19.0,-53.0,
2452.0,2102.0,2150.0,2224.0,-19.0,-53.0,
2591.0,2115.0,2168.0,2315.0,-19.0,-52.0,
2398.0,2077.0,2129.0,2244.0,-19.0,-52.0,
1988.0,2020.0,2067.0,2065.0,0,0,
1633.0,1978.0,2018.0,1896.0,-19.0,-52.0,
1611.0,1985.0,2027.0,1860.0,-19.0,-52.0,
1883.0,2023.0,2071.0,1963.0,-19.0,-52.0,
2294.0,2082.0,2128.0,2148.0,-19.0,-52.0,
2585.0,2112.0,2167.0,2290.0,-19.0,-51.0,
2537.0,2107.0,2155.0,2294.0,-19.0,-51.0,
2178.0,2048.0,2098.0,2152.0,-19.0,-51.0,
1774.0,1993.0,2037.0,1966.0,-19.0,-51.0,
1572.0,1972.0,2015.0,1854.0,-19.0,-51.0,
1711.0,2001.0,2049.0,1899.0,-19.0,-51.0,
2105.0,2057.0,2110.0,2063.0,-19.0,-51.0,
2486.0,2104.0,2159.0,2238.0,-19.0,-51.0,
2586.0,2111.0,2161.0,2306.0,-19.0,-51.0,
2356.0,2072.0,2124.0,2227.0,-19.0,-52.0,
1947.0,2020.0,2064.0,2049.0,-19.0,-52.0,
1605.0,1977.0,2017.0,1885.0,0,0,
1611.0,1982.0,2026.0,1857.0,-19.0,-52.0,
1913.0,2031.0,2077.0,1978.0,-19.0,-52.0,
2328.0,2088.0,2139.0,2165.0,-19.0,-52.0,
2600.0,2120.0,2172.0,2300.0,-19.0,-52.0,
2510.0,2087.0,2149.0,2287.0,-19.0,-53.0,
2139.0,2040.0,2090.0,2135.0,-19.0,-53.0,
1751.0,1992.0,2036.0,1953.0,-19.0,-53.0,
1573.0,1977.0,2015.0,1851.0,-19.0,-53.0,
1735.0,2002.0,2047.0,1903.0,-19.0,-53.0,
2140.0,2062.0,2111.0,2078.0,-19.0,-53.0,
2506.0,2117.0,2163.0,2254.0,-19.0,-53.0,
2569.0,2111.0,2162.0,2308.0,-18.0,-53.0,
2328.0,2071.0,2118.0,2217.0,0,0,
1912.0,2012.0,2057.0,2031.0,-19.0,-53.0,
1593.0,1977.0,2015.0,1885.0,-19.0,-53.0,
1624.0,1990.0,2028.0,1864.0,-19.0,-53.0,
1951.0,2037.0,2080.0,1993.0,-19.0,-53.0,
2363.0,2090.0,2142.0,2180.0,-19.0,-53.0,
2601.0,2111.0,2169.0,2307.0,-19.0,-53.0,
2481.0,2096.0,2143.0,2277.0,-19.0,-52.0,
2101.0,2037.0,2084.0,2117.0,-19.0,-52.0,
1717.0,1985.0,2029.0,1937.0,-19.0,-52.0,
1579.0,1977.0,2016.0,1849.0,-19.0,-52.0,
1780.0,2014.0,2056.0,1920.0,-19.0,-52.0,
2172.0,2067.0,2118.0,2095.0,-19.0,-52.0,
2520.0,2112.0,2163.0,2263.0,-19.0,-52.0,
2553.0,2105.0,2158.0,2304.0,-19.0,-52.0,
2296.0,2067.0,2114.0,2202.0,-19.0,-52.0,
1877.0,2007.0,2051.0,2013.0,-19.0,-52.0,
1584.0,1974.0,2016.0,1871.0,-19.0,-52.0,
1639.0,1989.0,2033.0,1869.0,-19.0,-52.0,
1988.0,2036.0,2095.0,2014.0,-19.0,-52.0,
2389.0,2094.0,2145.0,2194.0,-19.0,-52.0,
2598.0,2115.0,2167.0,2306.0,-19.0,-52.0,
2455.0,2089.0,2138.0,2268.0,-19.0,-52.0,
2071.0,2039.0,2081.0,2104.0,-19.0,-52.0,
1691.0,1985.0,2029.0,1926.0,-19.0,-52.0,
1584.0,1978.0,2020.0,1853.0,-19.0,-52.0,
1799.0,2013.0,2057.0,1932.0,-19.0,-52.0,
2211.0,2072.0,2118.0,2113.0,-19.0,-52.0,
2557.0,2114.0,2167.0,2273.0,-19.0,-53.0,
2554.0,2108.0,2156.0,2301.0,-19.0,-53.0,
2258.0,2059.0,2106.0,2187.0,-19.0,-53.0,
1849.0,2002.0,2049.0,2000.0,-19.0,-53.0,
1595.0,1974.0,2016.0,1865.0,-19.0,-53.0,
1652.0,1994.0,2036.0,1876.0,-19.0,-54.0,
2023.0,2045.0,2091.0,2020.0,-19.0,-54.0,
2418.0,2096.0,2149.0,2206.0,-19.0,-54.0,
2596.0,2116.0,2178.0,2313.0,-19.0,-55.0,
2439.0,2086.0,2136.0,2259.0,-19.0,-56.0,
2045.0,2030.0,2076.0,2086.0,-19.0,-56.0,
1662.0,1981.0,2024.0,1913.0,0,0,
1587.0,1981.0,2023.0,1850.0,-19.0,-57.0,
1825.0,2022.0,2065.0,1944.0,-19.0,-57.0,
2239.0,2077.0,2121.0,2125.0,-19.0,-57.0,
2563.0,2113.0,2161.0,2282.0,-19.0,-57.0,
2539.0,2102.0,2151.0,2301.0,-19.0,-57.0,
2233.0,2055.0,2104.0,2175.0,-19.0,-57.0,
1816.0,2001.0,2042.0,1985.0,-19.0,-57.0,
1571.0,1972.0,2013.0,1860.0,-19.0,-57.0,
1676.0,1993.0,2038.0,1880.0,-19.0,-56.0,
2064.0,2050.0,2100.0,2044.0,-19.0,-56.0,
2451.0,2100.0,2149.0,2225.0,-19.0,-55.0,
2600.0,2113.0,2162.0,2313.0,0,0,
2405.0,2080.0,2129.0,2247.0,-19.0,-55.0,
2001.0,2027.0,2072.0,2071.0,-19.0,-54.0,
1634.0,1979.0,2020.0,1901.0,-19.0,-54.0,
1603.0,1982.0,2024.0,1857.0,-19.0,-53.0,
1873.0,2025.0,2070.0,1959.0,-19.0,-53.0,
2294.0,2087.0,2136.0,2149.0,-19.0,-52.0,
2585.0,2116.0,2170.0,2292.0,-19.0,-51.0,
2528.0,2094.0,2151.0,2293.0,-19.0,-51.0,
2174.0,2048.0,2094.0,2154.0,-19.0,-50.0,
1780.0,1993.0,2046.0,1974.0,-19.0,-50.0,
1573.0,1975.0,2014.0,1856.0,-19.0,-49.0,
1720.0,2000.0,2045.0,1896.0,-19.0,-49.0,
2110.0,2056.0,2103.0,2063.0,-19.0,-49.0,
2479.0,2105.0,2156.0,2248.0,-19.0,-49.0,
2587.0,2110.0,2164.0,2311.0,-19.0,-49.0,
2348.0,2072.0,2123.0,2229.0,-19.0,-49.0,
1947.0,2008.0,2062.0,2047.0,-19.0,-50.0,
1601.0,1974.0,2019.0,1886.0,-19.0,-50.0,
1619.0,1984.0,2028.0,1862.0,-19.0,-51.0,
1924.0,2034.0,2078.0,1981.0,-19.0,-51.0,
2332.0,2087.0,2135.0,2164.0,-19.0,-52.0,
2602.0,2113.0,2169.0,2299.0,-19.0,-52.0,
2504.0,2096.0,2148.0,2286.0,-19.0,-53.0,
2140.0,2042.0,2091.0,2135.0,-19.0,-53.0,
1742.0,1992.0,2032.0,1951.0,-19.0,-55.0,
1577.0,1974.0,2016.0,1851.0,-19.0,-55.0,
1749.0,2012.0,2051.0,1909.0,-19.0,-56.0,
2144.0,2061.0,2109.0,2080.0,0,0,
2517.0,2108.0,2157.0,2254.0,-19.0,-56.0,
2574.0,2104.0,2157.0,2308.0,-19.0,-57.0,
2328.0,2066.0,2123.0,2226.0,-19.0,-57.0,
1926.0,2016.0,2058.0,2032.0,-19.0,-57.0,
1597.0,1974.0,2015.0,1879.0,-18.0,-58.0,
1629.0,1987.0,2031.0,1860.0,-19.0,-58.0,
1954.0,2036.0,2079.0,1992.0,-18.0,-58.0,
2354.0,2093.0,2142.0,2181.0,-18.0,-58.0,
2595.0,2115.0,2169.0,2307.0,-18.0,-58.0,
2487.0,2090.0,2139.0,2278.0,-18.0,-58.0,
2102.0,2035.0,2084.0,2121.0,-18.0,-58.0,
1722.0,1991.0,2033.0,1940.0,-18.0,-57.0,
1577.0,1977.0,2019.0,1850.0,-18.0,-57.0,
1770.0,2010.0,2051.0,1916.0,-18.0,-56.0,
2174.0,2065.0,2113.0,2093.0,0,0,
2539.0,2113.0,2164.0,2266.0,-17.0,-55.0,
2566.0,2107.0,2160.0,2308.0,-17.0,-55.0,
2287.0,2064.0,2113.0,2202.0,-17.0,-54.0,
1873.0,2005.0,2049.0,2013.0,-17.0,-53.0,
1591.0,1980.0,2019.0,1871.0,-17.0,-52.0,
1648.0,1991.0,2032.0,1869.0,-17.0,-51.0,
1997.0,2039.0,2085.0,2013.0,-17.0,-50.0,
2392.0,2091.0,2144.0,2198.0,-17.0,-49.0,
2597.0,2118.0,2173.0,2312.0,-17.0,-48.0,
2451.0,2089.0,2137.0,2265.0,-16.0,-47.0,
2059.0,2032.0,2078.0,2096.0,-16.0,-46.0,
1678.0,1985.0,2023.0,1919.0,-16.0,-45.0,
1587.0,1980.0,2018.0,1855.0,-16.0,-44.0,
1812.0,2019.0,2062.0,1932.0,-16.0,-43.0,
2213.0,2071.0,2122.0,2114.0,-16.0,-41.0,
2552.0,2115.0,2165.0,2273.0,-16.0,-40.0,
2547.0,2102.0,2156.0,2303.0,-15.0,-39.0,
2262.0,2062.0,2109.0,2191.0,-15.0,-38.0,
1851.0,2004.0,2049.0,2003.0,-15.0,-38.0,
1580.0,1972.0,2018.0,1864.0,-15.0,-37.0,
1661.0,1994.0,2035.0,1873.0,-15.0,-36.0,
2012.0,2042.0,2093.0,2028.0,-15.0,-35.0,
2404.0,2096.0,2151.0,2204.0,-15.0,-35.0,
2594.0,2113.0,2164.0,2310.0,-14.0,-34.0,
2440.0,2083.0,2138.0,2264.0,-14.0,-34.0,
2060.0,2030.0,2077.0,2096.0,-14.0,-33.0,
1680.0,1985.0,2026.0,1919.0,-14.0,-33.0,
1589.0,1980.0,2023.0,1851.0,-14.0,-32.0,
1819.0,2020.0,2059.0,1931.0,-13.0,-32.0,
2216.0,2073.0,2119.0,2113.0,-13.0,-32.0,
2556.0,2110.0,2172.0,2284.0,-13.0,-31.0,
2556.0,2105.0,2159.0,2306.0,-13.0,-31.0,
2253.0,2060.0,2104.0,2192.0,-13.0,-31.0,
1861.0,2004.0,2047.0,2003.0,-13.0,-31.0,
1583.0,1975.0,2011.0,1866.0,-12.0,-30.0,
1659.0,1993.0,2037.0,1877.0,-12.0,-29.0,
2013.0,2043.0,2093.0,2021.0,-12.0,-29.0,
2413.0,2100.0,2144.0,2204.0,-12.0,0,
2595.0,2112.0,2166.0,2307.0,-11.0,-28.0,
2435.0,2095.0,2142.0,2267.0,-11.0,-28.0,
2048.0,2032.0,2077.0,2094.0,-11.0,-27.0,
1680.0,1982.0,2025.0,1920.0,-11.0,-27.0,
1585.0,1979.0,2021.0,1851.0,-10.0,-26.0,
1819.0,2016.0,2064.0,1939.0,-10.0,-25.0,
2229.0,2074.0,2120.0,2120.0,-10.0,-25.0,
2556.0,2110.0,2166.0,2277.0,-9.0,-24.0,
2538.0,2101.0,2155.0,2301.0,-9.0,-23.0,
2238.0,2056.0,2109.0,2184.0,-9.0,-22.0,
1841.0,2007.0,2049.0,1999.0,-8.0,-21.0,
1574.0,1975.0,2014.0,1862.0,-8.0,-19.0,
1667.0,1992.0,2038.0,1876.0,-8.0,-18.0,
2022.0,2042.0,2091.0,2019.0,-7.0,-17.0,
2410.0,2092.0,2147.0,2202.0,-7.0,-16.0,
2608.0,2117.0,2168.0,2311.0,-7.0,-14.0,
2463.0,2092.0,2140.0,2273.0,-7.0,-13.0,
2092.0,2040.0,2081.0,2116.0,-6.0,-12.0,
1714.0,1987.0,2030.0,1938.0,-6.0,-11.0,
1569.0,1980.0,2015.0,1853.0,-5.0,-9.0,
1741.0,2005.0,2051.0,1908.0,-5.0,-8.0,
2148.0,2065.0,2110.0,2080.0,-5.0,-7.0,
2496.0,2109.0,2159.0,2249.0,-5.0,-6.0,
2580.0,2112.0,2161.0,2311.0,-4.0,-5.0,
2375.0,2077.0,2123.0,2233.0,-4.0,-4.0,
1974.0,2020.0,2066.0,2059.0,-4.0,-3.0,
1639.0,1977.0,2018.0,1898.0,-3.0,-2.0,
1600.0,1987.0,2027.0,1859.0,-3.0,-1.0,
1854.0,2025.0,2066.0,1951.0,-3.0,0.0,
2256.0,2077.0,2123.0,2128.0,-3.0,1.0,
2567.0,2111.0,2163.0,2280.0,-2.0,2.0,
2548.0,2107.0,2154.0,2302.0,-2.0,2.0,
2258.0,2059.0,2106.0,2191.0,-2.0,3.0,
1857.0,2007.0,2056.0,2017.0,-1.0,4.0,
1587.0,1977.0,2018.0,1870.0,-1.0,4.0,
1637.0,1989.0,2034.0,1865.0,-1.0,5.0,
1965.0,2037.0,2084.0,1995.0,-1.0,5.0,
2360.0,2091.0,2127.0,2179.0,0.0,6.0,
2593.0,2113.0,2164.0,2303.0,0.0,6.0,
2495.0,2093.0,2152.0,2291.0,0.0,7.0,
2137.0,2045.0,2092.0,2138.0,0.0,8.0,
1756.0,1994.0,2035.0,1958.0,0.0,8.0,
1569.0,1975.0,2013.0,1852.0,0.0,9.0,
1708.0,1997.0,2040.0,1894.0,0.0,9.0,
2082.0,2052.0,2097.0,2048.0,0.0,10.0,
2448.0,2102.0,2152.0,2233.0,1.0,10.0,
2586.0,2113.0,2168.0,2312.0,1.0,12.0,
2411.0,2077.0,2134.0,2255.0,1.0,13.0,
2013.0,2025.0,2074.0,2083.0,1.0,13.0,
1669.0,1982.0,2024.0,1908.0,2.0,13.0,
1590.0,1980.0,2022.0,1850.0,2.0,12.0,
1802.0,2014.0,2057.0,1931.0,2.0,12.0,
2203.0,2074.0,2118.0,2104.0,3.0,13.0,
2534.0,2110.0,2165.0,2264.0,3.0,13.0,
2556.0,2105.0,2161.0,2307.0,3.0,14.0,
2300.0,2068.0,2114.0,2210.0,3.0,14.0,
1909.0,2011.0,2058.0,2029.0,4.0,14.0,
1610.0,1971.0,2018.0,1878.0,4.0,14.0,
1629.0,1989.0,2029.0,1860.0,4.0,14.0,
1919.0,2031.0,2072.0,1974.0,4.0,14.0,
2316.0,2083.0,2133.0,2140.0,5.0,14.0,
2585.0,2120.0,2169.0,2292.0,5.0,15.0,
2525.0,2100.0,2149.0,2292.0,6.0,17.0,
2195.0,2051.0,2097.0,2163.0,6.0,17.0,
1797.0,2005.0,2044.0,1980.0,6.0,0,
1586.0,1975.0,2014.0,1857.0,6.0,17.0,
1672.0,1995.0,2038.0,1878.0,7.0,15.0,
2035.0,2045.0,2090.0,2026.0,7.0,15.0,
2415.0,2099.0,2145.0,2203.0,7.0,16.0,
2597.0,2114.0,2167.0,2308.0,7.0,17.0,
2464.0,2091.0,2145.0,2269.0,8.0,19.0,
2082.0,2037.0,2085.0,2111.0,8.0,20.0,
1712.0,1984.0,2030.0,1935.0,8.0,20.0,
1576.0,1977.0,2018.0,1852.0,9.0,20.0,
1752.0,2008.0,2049.0,1908.0,9.0,21.0,
2137.0,2061.0,2109.0,2075.0,9.0,22.0,
2496.0,2112.0,2169.0,2250.0,9.0,22.0,
2582.0,2115.0,2162.0,2312.0,10.0,22.0,
2361.0,2076.0,2127.0,2232.0,10.0,21.0,
1964.0,2022.0,2067.0,2055.0,10.0,21.0,
1626.0,1975.0,2018.0,1892.0,10.0,22.0,
1603.0,1985.0,2022.0,1856.0,10.0,23.0,
1861.0,2025.0,2077.0,1954.0,11.0,23.0,
2263.0,2080.0,2128.0,2133.0,11.0,23.0,
2567.0,2115.0,2167.0,2283.0,11.0,24.0,
2545.0,2105.0,2153.0,2301.0,11.0,24.0,
2248.0,2056.0,2107.0,2185.0,12.0,26.0,
1846.0,2002.0,2048.0,2000.0,12.0,23.0,
1588.0,1971.0,2017.0,1873.0,12.0,23.0,
1648.0,1992.0,2035.0,1868.0,12.0,25.0,
1985.0,2041.0,2085.0,2002.0,13.0,25.0,
2393.0,2095.0,2144.0,2184.0,13.0,25.0,
2597.0,2115.0,2174.0,2303.0,13.0,26.0,
2490.0,2093.0,2143.0,2281.0,13.0,25.0,
2126.0,2047.0,2095.0,2136.0,14.0,25.0,
1742.0,1993.0,2036.0,1954.0,14.0,24.0,
1575.0,1975.0,2017.0,1853.0,14.0,26.0,
1726.0,2003.0,2047.0,1896.0,14.0,29.0,
2109.0,2059.0,2101.0,2064.0,15.0,30.0,
2481.0,2105.0,2153.0,2245.0,0,0,
2579.0,2114.0,2164.0,2308.0,15.0,29.0,
2351.0,2075.0,2122.0,2229.0,15.0,28.0,
1950.0,2020.0,2065.0,2052.0,15.0,28.0,
1627.0,1976.0,2019.0,1891.0,16.0,25.0,
1605.0,1983.0,2022.0,1867.0,16.0,26.0,
1874.0,2030.0,2070.0,1955.0,16.0,27.0,
2278.0,2078.0,2131.0,2141.0,16.0,28.0,
2575.0,2114.0,2168.0,2288.0,16.0,32.0,
2525.0,2103.0,2149.0,2294.0,16.0,31.0,
2192.0,2050.0,2105.0,2163.0,17.0,0,
1788.0,2000.0,2042.0,1975.0,17.0,30.0,
1579.0,1974.0,2014.0,1857.0,17.0,30.0,
1690.0,1997.0,2037.0,1883.0,17.0,28.0,
2060.0,2051.0,2099.0,2040.0,18.0,30.0,
2456.0,2103.0,2157.0,2226.0,18.0,31.0,
2581.0,2112.0,2166.0,2308.0,18.0,32.0,
2390.0,2079.0,2128.0,2243.0,18.0,33.0,
1994.0,2022.0,2069.0,2069.0,18.0,32.0,
1639.0,1981.0,2025.0,1906.0,19.0,30.0,
1602.0,1984.0,2024.0,1855.0,19.0,30.0,
1872.0,2022.0,2070.0,1955.0,19.0,30.0,
2276.0,2076.0,2130.0,2140.0,19.0,31.0,
2577.0,2113.0,2168.0,2291.0,20.0,31.0,
2525.0,2102.0,2155.0,2297.0,0,0,
2183.0,2049.0,2098.0,2163.0,20.0,32.0,
1781.0,1998.0,2037.0,1971.0,20.0,31.0,
1577.0,1978.0,2014.0,1853.0,20.0,31.0,
1706.0,2001.0,2041.0,1891.0,20.0,31.0,
2081.0,2055.0,2099.0,2051.0,21.0,31.0,
2464.0,2103.0,2153.0,2229.0,21.0,31.0,
2583.0,2109.0,2164.0,2308.0,21.0,31.0,
2367.0,2081.0,2135.0,2243.0,21.0,32.0,
1973.0,2025.0,2065.0,2058.0,22.0,34.0,
1635.0,1975.0,2019.0,1896.0,22.0,34.0,
1621.0,1985.0,2024.0,1855.0,22.0,33.0,
1893.0,2029.0,2073.0,1964.0,22.0,33.0,
2307.0,2084.0,2134.0,2151.0,22.0,33.0,
2587.0,2114.0,2167.0,2294.0,22.0,33.0,
2522.0,2098.0,2150.0,2294.0,23.0,33.0,
2165.0,2051.0,2094.0,2151.0,23.0,32.0,
1783.0,2001.0,2040.0,1968.0,23.0,34.0,
1579.0,1972.0,2016.0,1854.0,23.0,34.0,
1717.0,1999.0,2044.0,1893.0,24.0,34.0,
2104.0,2057.0,2104.0,2056.0,24.0,37.0,
2476.0,2105.0,2163.0,2245.0,24.0,36.0,
2576.0,2113.0,2163.0,2311.0,24.0,36.0,
2358.0,2075.0,2124.0,2233.0,25.0,36.0,
1957.0,2015.0,2065.0,2053.0,25.0,36.0,
1620.0,1974.0,2016.0,1888.0,0,0,
1623.0,1984.0,2028.0,1860.0,25.0,36.0,
1916.0,2029.0,2075.0,1973.0,25.0,37.0,
2316.0,2084.0,2134.0,2159.0,25.0,37.0,
2585.0,2116.0,2164.0,2297.0,25.0,37.0,
2527.0,2101.0,2149.0,2290.0,26.0,36.0,
2148.0,2047.0,2093.0,2146.0,26.0,36.0,
1764.0,1992.0,2035.0,1962.0,26.0,37.0,
1572.0,1980.0,2017.0,1853.0,26.0,37.0,
1732.0,2000.0,2043.0,1907.0,26.0,37.0,
2122.0,2057.0,2106.0,2069.0,26.0,36.0,
2488.0,2105.0,2157.0,2243.0,27.0,40.0,
2574.0,2110.0,2160.0,2310.0,27.0,38.0,
2352.0,2072.0,2120.0,2230.0,27.0,38.0,
1947.0,2021.0,2062.0,2047.0,0,0,
1613.0,1975.0,2012.0,1889.0,27.0,38.0,
1617.0,1986.0,2026.0,1861.0,27.0,38.0,
1923.0,2031.0,2076.0,1976.0,27.0,38.0,
2326.0,2095.0,2139.0,2166.0,27.0,38.0,
2592.0,2120.0,2168.0,2298.0,28.0,38.0,
2503.0,2098.0,2147.0,2285.0,28.0,38.0,
2147.0,2044.0,2089.0,2140.0,28.0,38.0,
1755.0,1987.0,2034.0,1953.0,28.0,38.0,
1572.0,1979.0,2018.0,1853.0,28.0,38.0,
1735.0,2004.0,2048.0,1901.0,28.0,38.0,
2129.0,2060.0,2105.0,2074.0,28.0,39.0,
2500.0,2108.0,2157.0,2248.0,29.0,39.0,
2583.0,2113.0,2163.0,2315.0,29.0,39.0,
2342.0,2071.0,2119.0,2221.0,29.0,39.0,
1930.0,2014.0,2060.0,2041.0,29.0,39.0,
1601.0,1972.0,2019.0,1883.0,29.0,41.0,
1616.0,1985.0,2032.0,1869.0,0,0,
1929.0,2034.0,2078.0,1982.0,29.0,39.0,
2335.0,2087.0,2136.0,2166.0,29.0,39.0,
2599.0,2114.0,2167.0,2299.0,29.0,39.0,
2501.0,2100.0,2146.0,2283.0,29.0,39.0,
2141.0,2044.0,2090.0,2138.0,29.0,39.0,
1742.0,1992.0,2035.0,1951.0,0,0,
1570.0,1978.0,2016.0,1852.0,30.0,39.0,
1733.0,2006.0,2049.0,1900.0,30.0,40.0,
2132.0,2058.0,2116.0,2078.0,30.0,40.0,
2507.0,2108.0,2158.0,2248.0,30.0,40.0,
2581.0,2109.0,2160.0,2310.0,30.0,40.0,
2337.0,2069.0,2119.0,2222.0,30.0,41.0,
1929.0,2016.0,2060.0,2040.0,30.0,41.0,
1585.0,1977.0,2018.0,1884.0,30.0,0,
1610.0,1986.0,2028.0,1861.0,30.0,41.0,
1915.0,2034.0,2077.0,1978.0,30.0,41.0,
2336.0,2088.0,2133.0,2165.0,30.0,41.0,
2595.0,2122.0,2158.0,2302.0,30.0,41.0,
2503.0,2096.0,2148.0,2286.0,30.0,41.0,
2132.0,2042.0,2088.0,2136.0,30.0,41.0,
1737.0,1991.0,2033.0,1954.0,30.0,41.0,
1558.0,1975.0,2016.0,1850.0,30.0,42.0,
1729.0,2005.0,2051.0,1900.0,30.0,42.0,
2127.0,2063.0,2109.0,2072.0,30.0,42.0,
2505.0,2105.0,2158.0,2244.0,30.0,42.0,
2588.0,2109.0,2160.0,2309.0,30.0,42.0,
2348.0,2080.0,2124.0,2229.0,30.0,42.0,
1930.0,2017.0,2060.0,2046.0,30.0,42.0,
1599.0,1979.0,2018.0,1884.0,30.0,42.0,
1604.0,1986.0,2027.0,1860.0,30.0,42.0,
1917.0,2034.0,2075.0,1975.0,31.0,42.0,
2328.0,2088.0,2135.0,2163.0,31.0,42.0,
2600.0,2119.0,2165.0,2299.0,31.0,42.0,
2515.0,2096.0,2147.0,2291.0,31.0,42.0,
2145.0,2046.0,2091.0,2139.0,31.0,42.0,
1742.0,1986.0,2043.0,1960.0,31.0,42.0,
1561.0,1974.0,2015.0,1857.0,31.0,42.0,
1721.0,2003.0,2047.0,1900.0,31.0,42.0,
2120.0,2058.0,2105.0,2066.0,31.0,42.0,
2506.0,2107.0,2155.0,2244.0,31.0,42.0,
2597.0,2112.0,2164.0,2314.0,31.0,42.0,
2355.0,2073.0,2122.0,2226.0,31.0,42.0,
1956.0,2019.0,2060.0,2045.0,31.0,42.0,
1593.0,1974.0,2017.0,1885.0,31.0,42.0,
1600.0,1994.0,2038.0,1861.0,31.0,42.0,
1909.0,2033.0,2075.0,1977.0,31.0,42.0,
2324.0,2088.0,2133.0,2159.0,31.0,42.0,
2597.0,2116.0,2167.0,2298.0,31.0,42.0,
2508.0,2093.0,2144.0,2288.0,31.0,43.0,
2149.0,2045.0,2093.0,2143.0,31.0,43.0,
1744.0,1992.0,2045.0,1962.0,31.0,43.0,
1568.0,1977.0,2017.0,1854.0,31.0,43.0,
1723.0,2004.0,2047.0,1900.0,31.0,43.0,
2136.0,2070.0,2108.0,2071.0,31.0,43.0,
2499.0,2108.0,2158.0,2248.0,31.0,43.0,
2585.0,2110.0,2162.0,2310.0,31.0,43.0,
2352.0,2074.0,2121.0,2227.0,31.0,43.0,
1929.0,2017.0,2059.0,2049.0,31.0,43.0,
1596.0,1977.0,2016.0,1886.0,31.0,43.0,
1616.0,1987.0,2028.0,1861.0,32.0,43.0,
1915.0,2033.0,2076.0,1978.0,32.0,43.0,
2338.0,2085.0,2134.0,2162.0,32.0,43.0,
2611.0,2121.0,2169.0,2304.0,32.0,43.0,
2512.0,2097.0,2144.0,2288.0,32.0,43.0,
2142.0,2042.0,2088.0,2138.0,32.0,43.0,
1745.0,1991.0,2038.0,1954.0,32.0,43.0,
1564.0,1973.0,2016.0,1859.0,32.0,43.0,
1727.0,2008.0,2051.0,1902.0,32.0,43.0,
2121.0,2061.0,2105.0,2070.0,32.0,43.0,
2498.0,2107.0,2156.0,2242.0,0,0,
2588.0,2107.0,2161.0,2310.0,32.0,43.0,
2356.0,2077.0,2124.0,2230.0,32.0,44.0,
1944.0,2019.0,2063.0,2046.0,32.0,44.0,
1603.0,1974.0,2020.0,1885.0,32.0,44.0,
1611.0,1985.0,2027.0,1859.0,0,0,
1921.0,2033.0,2084.0,1986.0,32.0,44.0,
2332.0,2089.0,2135.0,2162.0,32.0,44.0,
2599.0,2116.0,2168.0,2301.0,32.0,44.0,
2514.0,2097.0,2147.0,2287.0,32.0,44.0,
2140.0,2045.0,2089.0,2137.0,32.0,44.0,
1745.0,1997.0,2039.0,1958.0,32.0,44.0,
1563.0,1976.0,2017.0,1852.0,32.0,44.0,
1726.0,2003.0,2047.0,1901.0,32.0,44.0,
2127.0,2063.0,2106.0,2070.0,32.0,44.0,
2495.0,2110.0,2168.0,2249.0,32.0,44.0,
2586.0,2114.0,2162.0,2309.0,32.0,44.0,
2339.0,2071.0,2121.0,2227.0,32.0,44.0,
1931.0,2017.0,2061.0,2041.0,32.0,44.0,
1603.0,1977.0,2016.0,1883.0,32.0,44.0,
1612.0,1987.0,2028.0,1860.0,32.0,44.0,
1922.0,2033.0,2076.0,1978.0,32.0,44.0,
2328.0,2084.0,2135.0,2164.0,32.0,43.0,
2597.0,2116.0,2167.0,2298.0,32.0,43.0,
2515.0,2102.0,2152.0,2291.0,32.0,43.0,
2144.0,2044.0,2091.0,2138.0,32.0,43.0,
1747.0,1993.0,2037.0,1953.0,32.0,43.0,
1570.0,1976.0,2016.0,1852.0,32.0,43.0,
1725.0,2003.0,2048.0,1900.0,32.0,43.0,
2129.0,2063.0,2107.0,2068.0,32.0,43.0,
2508.0,2110.0,2159.0,2247.0,32.0,44.0,
2584.0,2110.0,2161.0,2308.0,32.0,44.0,
2344.0,2070.0,2119.0,2225.0,32.0,44.0,
1935.0,2021.0,2079.0,2046.0,32.0,44.0,
1598.0,1976.0,2019.0,1883.0,32.0,44.0,
1609.0,1984.0,2029.0,1859.0,32.0,44.0,
1923.0,2038.0,2075.0,1978.0,32.0,44.0,
2332.0,2088.0,2134.0,2164.0,32.0,44.0,
2605.0,2121.0,2168.0,2301.0,32.0,44.0,
2504.0,2098.0,2146.0,2286.0,32.0,44.0,
2142.0,2044.0,2090.0,2142.0,32.0,44.0,
1742.0,1991.0,2038.0,1953.0,32.0,44.0,
1573.0,1978.0,2020.0,1853.0,32.0,44.0,
1734.0,2003.0,2048.0,1901.0,32.0,44.0,
2135.0,2060.0,2106.0,2072.0,32.0,44.0,
2510.0,2104.0,2156.0,2243.0,32.0,44.0,
2587.0,2108.0,2168.0,2314.0,32.0,44.0,
2345.0,2074.0,2121.0,2225.0,32.0,44.0,
1935.0,2019.0,2061.0,2042.0,32.0,44.0,
1603.0,1975.0,2018.0,1878.0,32.0,44.0,
1612.0,1983.0,2026.0,1858.0,32.0,44.0,
1927.0,2034.0,2081.0,1979.0,32.0,0,
2344.0,2088.0,2138.0,2168.0,32.0,44.0,
2594.0,2114.0,2169.0,2300.0,33.0,44.0,
2501.0,2096.0,2145.0,2285.0,33.0,44.0,
2132.0,2048.0,2100.0,2139.0,32.0,44.0,
1737.0,1993.0,2036.0,1952.0,0,0,
1566.0,1972.0,2018.0,1852.0,32.0,44.0,
1731.0,2003.0,2049.0,1900.0,32.0,44.0,
2134.0,2062.0,2104.0,2070.0,33.0,44.0,
2514.0,2112.0,2160.0,2248.0,33.0,44.0,
2580.0,2110.0,2157.0,2308.0,32.0,44.0,
2334.0,2071.0,2118.0,2223.0,32.0,44.0,
1922.0,2014.0,2058.0,2036.0,32.0,44.0,
1606.0,1980.0,2022.0,1885.0,32.0,44.0,
1619.0,1987.0,2030.0,1862.0,33.0,44.0,
1924.0,2034.0,2079.0,1979.0,32.0,44.0,
2336.0,2085.0,2137.0,2168.0,33.0,44.0,
2593.0,2115.0,2169.0,2300.0,32.0,44.0,
2501.0,2097.0,2148.0,2288.0,33.0,44.0,
2138.0,2043.0,2090.0,2135.0,33.0,44.0,
1740.0,1991.0,2035.0,1951.0,32.0,44.0,
1564.0,1971.0,2016.0,1850.0,32.0,44.0,
1749.0,2010.0,2051.0,1906.0,32.0,44.0,
2138.0,2060.0,2105.0,2073.0,32.0,44.0,
2513.0,2108.0,2158.0,2249.0,32.0,44.0,
2578.0,2109.0,2158.0,2308.0,32.0,44.0,
2337.0,2071.0,2119.0,2227.0,33.0,44.0,
1932.0,2023.0,2060.0,2041.0,32.0,44.0,
1604.0,1978.0,2017.0,1881.0,32.0,44.0,
1616.0,1982.0,2027.0,1858.0,32.0,44.0,
1929.0,2032.0,2076.0,1981.0,33.0,44.0,
2352.0,2092.0,2136.0,2168.0,33.0,44.0,
2604.0,2119.0,2168.0,2300.0,33.0,45.0,
2503.0,2095.0,2145.0,2286.0,33.0,45.0,
2132.0,2043.0,2087.0,2131.0,33.0,0,
1737.0,1992.0,2035.0,1960.0,33.0,45.0,
1573.0,1977.0,2019.0,1854.0,33.0,45.0,
1738.0,2005.0,2048.0,1906.0,33.0,44.0,
2145.0,2058.0,2104.0,2076.0,33.0,44.0,
2503.0,2109.0,2160.0,2251.0,33.0,44.0,
2580.0,2109.0,2162.0,2314.0,33.0,44.0,
2336.0,2072.0,2119.0,2226.0,33.0,44.0,
1923.0,2016.0,2059.0,2039.0,33.0,44.0,
1598.0,1976.0,2021.0,1882.0,32.0,44.0,
1620.0,1984.0,2032.0,1865.0,32.0,44.0,
1935.0,2035.0,2080.0,1982.0,32.0,44.0,
2338.0,2088.0,2135.0,2169.0,32.0,44.0,
2592.0,2112.0,2167.0,2301.0,32.0,44.0,
2500.0,2095.0,2145.0,2285.0,33.0,44.0,
2131.0,2042.0,2091.0,2139.0,33.0,44.0,
1742.0,1992.0,2036.0,1951.0,0,0,
1571.0,1974.0,2018.0,1851.0,33.0,44.0,
1725.0,2004.0,2046.0,1901.0,33.0,44.0,
2124.0,2060.0,2107.0,2078.0,33.0,44.0,
2503.0,2108.0,2159.0,2248.0,33.0,44.0,
2580.0,2110.0,2161.0,2306.0,33.0,44.0,
2342.0,2070.0,2120.0,2223.0,33.0,44.0,
1927.0,2018.0,2061.0,2041.0,33.0,44.0,
1601.0,1977.0,2020.0,1884.0,33.0,44.0,
1611.0,1985.0,2026.0,1862.0,33.0,43.0,
1920.0,2034.0,2074.0,1978.0,33.0,43.0,
2336.0,2086.0,2138.0,2165.0,33.0,43.0,
2593.0,2114.0,2174.0,2305.0,33.0,43.0,
2512.0,2098.0,2149.0,2285.0,33.0,43.0,
2144.0,2044.0,2091.0,2136.0,0,0,
1737.0,1992.0,2037.0,1952.0,33.0,43.0,
1568.0,1976.0,2017.0,1851.0,33.0,43.0,
1734.0,2009.0,2051.0,1901.0,33.0,43.0,
2134.0,2059.0,2108.0,2072.0,33.0,43.0,
2504.0,2105.0,2159.0,2244.0,33.0,43.0,
2584.0,2106.0,2163.0,2308.0,33.0,43.0,
2342.0,2066.0,2124.0,2238.0,33.0,43.0,
1934.0,2017.0,2061.0,2047.0,33.0,43.0,
1598.0,1977.0,2018.0,1884.0,33.0,43.0,
1609.0,1984.0,2032.0,1860.0,33.0,43.0,
1913.0,2036.0,2074.0,1976.0,33.0,43.0,
2339.0,2088.0,2137.0,2166.0,33.0,43.0,
2597.0,2117.0,2168.0,2299.0,33.0,43.0,
2510.0,2095.0,2145.0,2289.0,33.0,43.0,
2141.0,2046.0,2091.0,2139.0,33.0,43.0,
1741.0,2001.0,2041.0,1959.0,33.0,43.0,
1555.0,1974.0,2019.0,1851.0,33.0,43.0,
1720.0,2001.0,2048.0,1904.0,33.0,43.0,
2122.0,2058.0,2104.0,2070.0,33.0,43.0,
2505.0,2106.0,2156.0,2247.0,33.0,43.0,
2589.0,2110.0,2162.0,2307.0,33.0,43.0,
2348.0,2075.0,2120.0,2228.0,33.0,43.0,
1927.0,2016.0,2060.0,2044.0,33.0,43.0,
1591.0,1976.0,2018.0,1884.0,33.0,43.0,
1610.0,1990.0,2034.0,1862.0,33.0,43.0,
1914.0,2033.0,2077.0,1982.0,33.0,43.0,
2328.0,2088.0,2135.0,2166.0,33.0,43.0,
2593.0,2117.0,2169.0,2300.0,33.0,43.0,
2511.0,2092.0,2145.0,2288.0,33.0,43.0,
2147.0,2043.0,2094.0,2140.0,33.0,43.0,
1740.0,1992.0,2034.0,1954.0,33.0,43.0,
1556.0,1975.0,2016.0,1853.0,33.0,43.0,
1724.0,2005.0,2048.0,1899.0,33.0,42.0,
2135.0,2061.0,2108.0,2076.0,33.0,42.0,
2505.0,2110.0,2161.0,2248.0,33.0,42.0,
2586.0,2112.0,2162.0,2311.0,33.0,42.0,
2358.0,2071.0,2117.0,2226.0,33.0,42.0,
1923.0,2014.0,2062.0,2048.0,33.0,42.0,
1600.0,1978.0,2020.0,1881.0,33.0,41.0,
1611.0,1984.0,2029.0,1859.0,33.0,41.0,
1928.0,2035.0,2077.0,1980.0,32.0,41.0,
2338.0,2084.0,2135.0,2167.0,33.0,41.0,
2611.0,2119.0,2166.0,2305.0,32.0,41.0,
2504.0,2093.0,2147.0,2286.0,32.0,41.0,
2140.0,2042.0,2091.0,2135.0,32.0,40.0,
1733.0,1991.0,2035.0,1948.0,32.0,40.0,
1564.0,1982.0,2029.0,1854.0,32.0,40.0,
1741.0,2008.0,2052.0,1903.0,32.0,40.0,
2133.0,2061.0,2109.0,2074.0,32.0,40.0,
2513.0,2107.0,2158.0,2249.0,32.0,40.0,
2583.0,2107.0,2158.0,2306.0,32.0,40.0,
2332.0,2071.0,2122.0,2222.0,32.0,40.0,
1916.0,2011.0,2059.0,2038.0,32.0,40.0,
1593.0,1975.0,2017.0,1881.0,32.0,40.0,
1611.0,1984.0,2032.0,1862.0,32.0,39.0,
1942.0,2042.0,2081.0,1986.0,32.0,39.0,
2357.0,2090.0,2138.0,2172.0,32.0,39.0,
2606.0,2116.0,2167.0,2302.0,32.0,39.0,
2498.0,2096.0,2146.0,2283.0,32.0,39.0,
2124.0,2042.0,2088.0,2136.0,32.0,39.0,
1738.0,1990.0,2037.0,1951.0,31.0,39.0,
1571.0,1976.0,2021.0,1850.0,31.0,39.0,
1742.0,2008.0,2052.0,1903.0,31.0,39.0,
2144.0,2061.0,2109.0,2076.0,31.0,39.0,
2520.0,2109.0,2164.0,2250.0,31.0,39.0,
2586.0,2110.0,2161.0,2313.0,31.0,39.0,
2332.0,2069.0,2121.0,2220.0,31.0,38.0,
1923.0,2015.0,2062.0,2034.0,31.0,38.0,
1603.0,1974.0,2024.0,1884.0,30.0,38.0,
1620.0,1987.0,2031.0,1865.0,30.0,38.0,
1947.0,2037.0,2082.0,1986.0,30.0,38.0,
2349.0,2086.0,2137.0,2172.0,30.0,38.0,
2598.0,2114.0,2167.0,2301.0,30.0,37.0,
2501.0,2097.0,2146.0,2284.0,30.0,37.0,
2120.0,2039.0,2090.0,2133.0,30.0,37.0,
1731.0,1989.0,2034.0,1948.0,30.0,37.0,
1568.0,1976.0,2018.0,1850.0,29.0,37.0,
1751.0,2015.0,2058.0,1911.0,29.0,36.0,
2153.0,2064.0,2107.0,2081.0,29.0,36.0,
2514.0,2107.0,2159.0,2254.0,29.0,36.0,
2580.0,2113.0,2160.0,2306.0,29.0,35.0,
2322.0,2067.0,2117.0,2216.0,28.0,35.0,
1911.0,2017.0,2060.0,2034.0,28.0,35.0,
1600.0,1974.0,2018.0,1880.0,28.0,35.0,
1623.0,1987.0,2027.0,1861.0,28.0,34.0,
1942.0,2034.0,2083.0,1989.0,28.0,34.0,
2361.0,2094.0,2141.0,2178.0,28.0,34.0,
2595.0,2115.0,2168.0,2305.0,27.0,34.0,
2492.0,2092.0,2146.0,2286.0,27.0,33.0,
2120.0,2038.0,2087.0,2125.0,26.0,33.0,
1728.0,1989.0,2032.0,1948.0,0,0,
1578.0,1983.0,2017.0,1853.0,26.0,33.0,
1755.0,2006.0,2050.0,1908.0,26.0,33.0,
2162.0,2059.0,2110.0,2083.0,25.0,33.0,
2521.0,2113.0,2160.0,2255.0,25.0,33.0,
2581.0,2111.0,2162.0,2310.0,25.0,32.0,
2314.0,2068.0,2118.0,2214.0,24.0,32.0,
1895.0,2013.0,2057.0,2026.0,24.0,32.0,
1593.0,1977.0,2016.0,1875.0,24.0,32.0,
1619.0,1993.0,2033.0,1865.0,23.0,31.0,
1958.0,2036.0,2084.0,1994.0,23.0,32.0,
2364.0,2094.0,2138.0,2180.0,23.0,32.0,
2603.0,2115.0,2174.0,2304.0,22.0,31.0,
2490.0,2093.0,2144.0,2280.0,22.0,31.0,
2109.0,2038.0,2092.0,2121.0,21.0,30.0,
1713.0,1989.0,2030.0,1941.0,21.0,30.0,
1566.0,1977.0,2016.0,1850.0,21.0,30.0,
1762.0,2006.0,2053.0,1915.0,20.0,29.0,
2180.0,2067.0,2116.0,2095.0,20.0,29.0,
2533.0,2108.0,2160.0,2261.0,20.0,29.0,
2575.0,2103.0,2158.0,2308.0,19.0,28.0,
2321.0,2067.0,2119.0,2214.0,19.0,27.0,
1929.0,2013.0,2062.0,2035.0,19.0,26.0,
1608.0,1975.0,2023.0,1889.0,19.0,26.0,
1614.0,1983.0,2030.0,1858.0,18.0,25.0,
1908.0,2025.0,2076.0,1969.0,18.0,25.0,
2303.0,2083.0,2133.0,2152.0,18.0,24.0,
2582.0,2113.0,2167.0,2289.0,17.0,24.0,
2532.0,2100.0,2152.0,2293.0,17.0,23.0,
2210.0,2051.0,2101.0,2173.0,17.0,23.0,
1814.0,2003.0,2047.0,1986.0,16.0,23.0,
1572.0,1974.0,2019.0,1862.0,16.0,22.0,
1667.0,1992.0,2037.0,1874.0,16.0,21.0,
2013.0,2044.0,2089.0,2017.0,15.0,21.0,
2404.0,2093.0,2146.0,2196.0,15.0,21.0,
2602.0,2113.0,2168.0,2307.0,15.0,20.0,
2471.0,2094.0,2142.0,2273.0,14.0,20.0,
2100.0,2038.0,2084.0,2119.0,14.0,20.0,
1719.0,1992.0,2030.0,1941.0,13.0,19.0,
1567.0,1974.0,2017.0,1850.0,13.0,18.0,
1741.0,2008.0,2048.0,1904.0,13.0,18.0,
2123.0,2060.0,2105.0,2069.0,0,0,
2497.0,2109.0,2161.0,2246.0,12.0,18.0,
2588.0,2111.0,2165.0,2310.0,12.0,17.0,
2383.0,2078.0,2129.0,2236.0,12.0,16.0,
1978.0,2024.0,2068.0,2065.0,11.0,15.0,
1642.0,1975.0,2025.0,1900.0,11.0,15.0,
1590.0,1982.0,2020.0,1853.0,11.0,14.0,
1852.0,2026.0,2070.0,1946.0,10.0,13.0,
2246.0,2077.0,2125.0,2123.0,10.0,12.0,
2566.0,2116.0,2165.0,2279.0,9.0,11.0,
2553.0,2105.0,2158.0,2302.0,9.0,11.0,
2275.0,2059.0,2108.0,2192.0,9.0,9.0,
1863.0,2008.0,2052.0,2014.0,8.0,8.0,
1585.0,1980.0,2024.0,1871.0,8.0,7.0,
1625.0,1989.0,2031.0,1868.0,8.0,6.0,
1957.0,2035.0,2082.0,1995.0,7.0,5.0,
2351.0,2090.0,2138.0,2177.0,7.0,5.0,
2591.0,2112.0,2169.0,2300.0,7.0,4.0,
2509.0,2095.0,2144.0,2284.0,6.0,3.0,
2161.0,2053.0,2096.0,2143.0,6.0,2.0,
1758.0,1994.0,2037.0,1958.0,6.0,0.0,
1563.0,1974.0,2016.0,1852.0,5.0,0.0,
1698.0,1998.0,2044.0,1890.0,5.0,-1.0,
2076.0,2053.0,2099.0,2048.0,5.0,-2.0,
2454.0,2097.0,2152.0,2224.0,4.0,-3.0,
2607.0,2119.0,2173.0,2315.0,4.0,-3.0,
2437.0,2081.0,2135.0,2254.0,4.0,-4.0,
2038.0,2028.0,2076.0,2085.0,4.0,-4.0,
1671.0,1985.0,2025.0,1914.0,3.0,-5.0,
1568.0,1965.0,2021.0,1851.0,3.0,-5.0,
1778.0,2015.0,2058.0,1926.0,3.0,-5.0,
2191.0,2077.0,2126.0,2107.0,3.0,-6.0,
2548.0,2110.0,2165.0,2266.0,2.0,-6.0,
2590.0,2106.0,2160.0,2307.0,0,0,
2324.0,2064.0,2117.0,2209.0,2.0,-6.0,
1914.0,2012.0,2060.0,2033.0,1.0,-7.0,
1594.0,1974.0,2014.0,1877.0,1.0,-6.0,
1593.0,1990.0,2032.0,1861.0,1.0,-6.0,
1913.0,2032.0,2081.0,1978.0,1.0,-7.0,
2314.0,2084.0,2135.0,2159.0,0.0,-8.0,
2611.0,2114.0,2172.0,2298.0,0.0,-8.0,
2549.0,2100.0,2152.0,2290.0,0.0,-9.0,
2201.0,2048.0,2098.0,2156.0,0.0,-9.0,
1796.0,2000.0,2045.0,1973.0,0.0,-10.0,
1556.0,1972.0,2014.0,1855.0,0.0,-11.0,
1657.0,1995.0,2041.0,1883.0,0.0,-12.0,
2034.0,2049.0,2094.0,2034.0,-1.0,-14.0,
2422.0,2097.0,2149.0,2212.0,-1.0,-15.0,
2607.0,2113.0,2169.0,2306.0,0,0,
2471.0,2089.0,2141.0,2264.0,-1.0,-16.0,
2069.0,2035.0,2079.0,2099.0,-1.0,-17.0,
1691.0,1983.0,2027.0,1926.0,-2.0,-18.0,
1571.0,1978.0,2018.0,1851.0,-2.0,-19.0,
1774.0,2015.0,2059.0,1927.0,-2.0,-22.0,
2201.0,2074.0,2123.0,2111.0,-2.0,-22.0,
2558.0,2112.0,2166.0,2272.0,-2.0,-23.0,
2577.0,2105.0,2156.0,2303.0,-3.0,-24.0,
2278.0,2055.0,2109.0,2190.0,-3.0,-25.0,
1855.0,2008.0,2052.0,2006.0,-3.0,-27.0,
1564.0,1976.0,2011.0,1864.0,-3.0,-27.0,
1632.0,1993.0,2034.0,1871.0,-3.0,-28.0,
1994.0,2045.0,2088.0,2017.0,-4.0,-28.0,
2409.0,2095.0,2144.0,2206.0,-4.0,-29.0,
2616.0,2114.0,2170.0,2310.0,-4.0,-30.0,
2464.0,2083.0,2140.0,2263.0,-4.0,-30.0,
2062.0,2034.0,2077.0,2095.0,-4.0,-30.0,
1674.0,1985.0,2025.0,1922.0,-4.0,-29.0,
1575.0,1982.0,2024.0,1840.0,-5.0,-29.0,
1792.0,2015.0,2062.0,1933.0,-5.0,-30.0,
2215.0,2068.0,2119.0,2110.0,-5.0,-29.0,
2556.0,2110.0,2167.0,2270.0,-5.0,-29.0,
2573.0,2102.0,2158.0,2302.0,-5.0,-29.0,
2282.0,2061.0,2107.0,2193.0,-5.0,-29.0,
1863.0,2007.0,2052.0,2003.0,-6.0,-29.0,
1570.0,1976.0,2017.0,1866.0,-6.0,-28.0,
1634.0,1988.0,2035.0,1871.0,-6.0,-28.0,
1996.0,2046.0,2093.0,2018.0,-6.0,-29.0,
2408.0,2096.0,2151.0,2203.0,-6.0,-29.0,
2621.0,2112.0,2170.0,2309.0,-6.0,-29.0,
2463.0,2080.0,2138.0,2264.0,-6.0,-29.0,
2070.0,2029.0,2081.0,2106.0,-7.0,-29.0,
1681.0,1986.0,2026.0,1922.0,-7.0,-29.0,
1570.0,1977.0,2022.0,1851.0,-7.0,-30.0,
1796.0,2014.0,2059.0,1932.0,-7.0,-31.0,
2206.0,2070.0,2120.0,2107.0,-7.0,-32.0,
2564.0,2110.0,2167.0,2276.0,-7.0,-32.0,
2581.0,2104.0,2159.0,2303.0,-7.0,-33.0,
2283.0,2058.0,2109.0,2191.0,-7.0,-30.0,
1856.0,2005.0,2053.0,2005.0,-8.0,-34.0,
1570.0,1974.0,2015.0,1869.0,-8.0,-36.0,
1638.0,1994.0,2035.0,1870.0,-8.0,-37.0,
1995.0,2043.0,2093.0,2017.0,-8.0,-38.0,
2402.0,2094.0,2146.0,2199.0,-8.0,-38.0,
2611.0,2112.0,2168.0,2308.0,-8.0,-39.0,
2469.0,2089.0,2138.0,2267.0,-8.0,-40.0,
2069.0,2032.0,2077.0,2101.0,-9.0,-40.0,
1688.0,1983.0,2026.0,1925.0,-9.0,-40.0,
1566.0,1976.0,2018.0,1850.0,-9.0,-41.0,
1784.0,2015.0,2064.0,1937.0,-9.0,-41.0,
2204.0,2074.0,2122.0,2113.0,-9.0,-42.0,
2557.0,2111.0,2167.0,2270.0,-9.0,-42.0,
2580.0,2106.0,2156.0,2304.0,-10.0,-42.0,
2285.0,2058.0,2108.0,2192.0,-10.0,-42.0,
1864.0,2009.0,2052.0,2008.0,-10.0,-42.0,
1570.0,1974.0,2017.0,1868.0,-10.0,-41.0,
1625.0,1986.0,2034.0,1870.0,-10.0,-41.0,
1988.0,2042.0,2087.0,2014.0,-10.0,-41.0,
2401.0,2094.0,2152.0,2201.0,-10.0,-45.0,
2616.0,2120.0,2170.0,2309.0,-10.0,-41.0,
2478.0,2090.0,2138.0,2268.0,-11.0,-41.0,
2072.0,2030.0,2083.0,2101.0,-11.0,-41.0,
1685.0,1983.0,2027.0,1925.0,-11.0,-41.0,
1568.0,1980.0,2022.0,1854.0,-11.0,-42.0,
1780.0,2014.0,2062.0,1930.0,-11.0,-42.0,
2202.0,2069.0,2118.0,2106.0,-11.0,-42.0,
2563.0,2111.0,2162.0,2272.0,-11.0,-43.0,
2572.0,2108.0,2169.0,2309.0,-11.0,-43.0,
2281.0,2061.0,2110.0,2195.0,-12.0,-44.0,
1856.0,2004.0,2050.0,2008.0,-12.0,-44.0,
1567.0,1974.0,2013.0,1867.0,-12.0,-45.0,
1640.0,1991.0,2030.0,1870.0,-12.0,-45.0,
2000.0,2045.0,2090.0,2016.0,-12.0,-46.0,
2412.0,2097.0,2147.0,2204.0,-12.0,-46.0,
2610.0,2113.0,2167.0,2306.0,-12.0,-47.0,
2460.0,2083.0,2136.0,2259.0,-12.0,-47.0,
2050.0,2026.0,2078.0,2094.0,-12.0,-48.0,
1656.0,1982.0,2025.0,1915.0,-12.0,-48.0,
1571.0,1979.0,2019.0,1851.0,-12.0,-49.0,
1811.0,2018.0,2063.0,1938.0,-13.0,-49.0,
2244.0,2077.0,2131.0,2123.0,-13.0,-49.0,
2572.0,2115.0,2167.0,2283.0,-13.0,-49.0,
2557.0,2103.0,2154.0,2297.0,-13.0,-50.0,
2236.0,2054.0,2104.0,2176.0,-13.0,-49.0,
1815.0,2011.0,2047.0,1994.0,-13.0,-49.0,
1565.0,1974.0,2016.0,1861.0,-13.0,-49.0,
1662.0,1994.0,2037.0,1881.0,-13.0,-49.0,
2049.0,2051.0,2096.0,2038.0,-13.0,-50.0,
2452.0,2100.0,2161.0,2228.0,-13.0,-50.0,
2609.0,2114.0,2167.0,2310.0,-13.0,-50.0,
2417.0,2081.0,2135.0,2252.0,-13.0,-50.0,
1998.0,2023.0,2070.0,2074.0,-13.0,-50.0,
1634.0,1976.0,2023.0,1899.0,-13.0,-50.0,
1589.0,1984.0,2024.0,1859.0,-13.0,-45.0,
1859.0,2025.0,2070.0,1956.0,-13.0,-48.0,
2283.0,2078.0,2128.0,2142.0,-13.0,-48.0,
2593.0,2112.0,2166.0,2290.0,-14.0,-48.0,
2541.0,2102.0,2155.0,2296.0,0,0,
2194.0,2049.0,2100.0,2158.0,-14.0,-48.0,
1779.0,1996.0,2039.0,1969.0,-14.0,-49.0,
1559.0,1977.0,2016.0,1855.0,-14.0,-49.0,
1696.0,2000.0,2046.0,1894.0,-14.0,-49.0,
2086.0,2056.0,2102.0,2057.0,-14.0,-49.0,
2484.0,2106.0,2156.0,2236.0,-14.0,-49.0,
2593.0,2111.0,2163.0,2307.0,-14.0,-50.0,
2380.0,2076.0,2126.0,2236.0,-14.0,-50.0,
1952.0,2018.0,2068.0,2054.0,-14.0,-50.0,
1608.0,1976.0,2019.0,1890.0,-14.0,-50.0,
1599.0,1985.0,2022.0,1859.0,-14.0,-50.0,
1904.0,2030.0,2085.0,1975.0,-14.0,-50.0,
2321.0,2085.0,2137.0,2163.0,-14.0,-50.0,
2604.0,2112.0,2167.0,2299.0,-14.0,-50.0,
2514.0,2096.0,2144.0,2287.0,-14.0,-50.0,
2150.0,2045.0,2094.0,2148.0,-14.0,-55.0,
1745.0,1994.0,2036.0,1954.0,-14.0,-52.0,
1566.0,1974.0,2017.0,1853.0,-14.0,-52.0,
1725.0,2004.0,2050.0,1900.0,-14.0,-52.0,
2133.0,2060.0,2106.0,2072.0,-14.0,-52.0,
2507.0,2109.0,2161.0,2248.0,-14.0,-52.0,
2584.0,2109.0,2166.0,2313.0,-14.0,-52.0,
2340.0,2066.0,2117.0,2221.0,-14.0,-52.0,
1919.0,2013.0,2048.0,2038.0,-14.0,-52.0,
1591.0,1977.0,2019.0,1879.0,-15.0,-52.0,
1622.0,1986.0,2031.0,1859.0,-15.0,-52.0,
1935.0,2034.0,2080.0,1983.0,-15.0,-52.0,
2356.0,2089.0,2138.0,2173.0,-15.0,-52.0,
2600.0,2122.0,2173.0,2305.0,-15.0,-52.0,
2498.0,2116.0,2147.0,2282.0,-15.0,-52.0,
2118.0,2039.0,2089.0,2124.0,-15.0,-52.0,
1720.0,1991.0,2030.0,1944.0,-15.0,-52.0,
1573.0,1974.0,2015.0,1857.0,-15.0,-52.0,
1759.0,2010.0,2057.0,1913.0,-15.0,-52.0,
2163.0,2064.0,2114.0,2084.0,-15.0,-52.0,
2523.0,2101.0,2163.0,2256.0,-15.0,-52.0,
2569.0,2104.0,2161.0,2309.0,-15.0,-53.0,
2306.0,2068.0,2117.0,2212.0,0,0,
1882.0,2011.0,2056.0,2022.0,-15.0,-53.0,
1592.0,1973.0,2016.0,1871.0,-15.0,-53.0,
1635.0,1990.0,2030.0,1865.0,-15.0,-53.0,
1977.0,2040.0,2088.0,2002.0,-15.0,-53.0,
2383.0,2095.0,2144.0,2187.0,-15.0,-53.0,
2602.0,2114.0,2166.0,2305.0,-15.0,-53.0,
2464.0,2089.0,2139.0,2273.0,-15.0,-52.0,
2088.0,2044.0,2089.0,2115.0,-15.0,-52.0,
1712.0,1990.0,2031.0,1933.0,-15.0,-52.0,
1586.0,1980.0,2023.0,1853.0,-15.0,-52.0,
1788.0,2011.0,2056.0,1923.0,-15.0,-52.0,
2192.0,2068.0,2116.0,2110.0,-15.0,-51.0,
2549.0,2116.0,2166.0,2269.0,-15.0,-51.0,
2564.0,2106.0,2157.0,2307.0,-15.0,-51.0,
2273.0,2062.0,2111.0,2194.0,-15.0,-51.0,
1860.0,2003.0,2050.0,2008.0,-15.0,-51.0,
1584.0,1974.0,2018.0,1867.0,-15.0,-51.0,
1652.0,1989.0,2037.0,1872.0,-15.0,-51.0,
2001.0,2042.0,2088.0,2011.0,-15.0,-50.0,
2396.0,2096.0,2146.0,2199.0,-15.0,-50.0,
2609.0,2117.0,2169.0,2312.0,-15.0,-50.0,
2445.0,2084.0,2139.0,2265.0,-15.0,-50.0,
2057.0,2030.0,2080.0,2094.0,-15.0,-50.0,
1677.0,1985.0,2025.0,1920.0,-15.0,-50.0,
1581.0,1987.0,2026.0,1852.0,-15.0,-50.0,
1813.0,2017.0,2061.0,1935.0,-15.0,-50.0,
2218.0,2071.0,2121.0,2114.0,-15.0,-50.0,
2549.0,2112.0,2166.0,2276.0,0,0,
2550.0,2102.0,2156.0,2304.0,-15.0,-50.0,
2249.0,2038.0,2109.0,2187.0,-15.0,-50.0,
1834.0,2004.0,2052.0,1994.0,-15.0,-50.0,
1578.0,1975.0,2015.0,1862.0,-15.0,-51.0,
1667.0,1994.0,2036.0,1877.0,-15.0,-51.0,
2038.0,2050.0,2098.0,2029.0,-15.0,-51.0,
2426.0,2097.0,2149.0,2211.0,-15.0,-51.0,
2590.0,2112.0,2166.0,2310.0,-15.0,-51.0,
2424.0,2082.0,2132.0,2255.0,-15.0,-51.0,
2023.0,2030.0,2077.0,2079.0,-15.0,-52.0,
1650.0,1981.0,2022.0,1906.0,-15.0,-52.0,
1596.0,1979.0,2024.0,1852.0,-15.0,-52.0,
1847.0,2021.0,2067.0,1947.0,-15.0,-52.0,
2274.0,2081.0,2129.0,2136.0,-15.0,-52.0,
2581.0,2115.0,2170.0,2288.0,-15.0,-52.0,
2548.0,2101.0,2156.0,2297.0,-15.0,-52.0,
2219.0,2050.0,2101.0,2166.0,-15.0,-52.0,
1807.0,1996.0,2049.0,1986.0,-15.0,-52.0,
1577.0,1976.0,2016.0,1857.0,-15.0,-52.0,
1688.0,1997.0,2043.0,1881.0,-15.0,-52.0,
2066.0,2054.0,2099.0,2044.0,-15.0,-52.0,
2448.0,2098.0,2151.0,2223.0,-15.0,-52.0,
2602.0,2115.0,2164.0,2312.0,0,0,
2401.0,2080.0,2129.0,2244.0,-15.0,-52.0,
1997.0,2024.0,2069.0,2069.0,-15.0,-51.0,
1640.0,1976.0,2018.0,1899.0,-15.0,-51.0,
1597.0,1984.0,2024.0,1855.0,-15.0,-51.0,
1873.0,2028.0,2069.0,1958.0,-15.0,-51.0,
2290.0,2082.0,2129.0,2147.0,-15.0,-50.0,
2585.0,2112.0,2165.0,2290.0,-15.0,-50.0,
2539.0,2106.0,2157.0,2296.0,-15.0,-50.0,
2197.0,2050.0,2099.0,2157.0,-15.0,-50.0,
1786.0,1997.0,2037.0,1970.0,-15.0,-50.0,
1569.0,1973.0,2017.0,1855.0,-15.0,-49.0,
1707.0,1999.0,2049.0,1899.0,-15.0,-49.0,
2096.0,2056.0,2107.0,2056.0,-15.0,-49.0,
2478.0,2105.0,2159.0,2237.0,-15.0,-49.0,
2591.0,2115.0,2165.0,2310.0,-15.0,-49.0,
2374.0,2072.0,2127.0,2235.0,-15.0,-49.0,
1959.0,2021.0,2065.0,2054.0,-15.0,-49.0,
1623.0,1977.0,2017.0,1888.0,-15.0,-49.0,
1605.0,1985.0,2025.0,1857.0,-15.0,-50.0,
1903.0,2030.0,2074.0,1972.0,-15.0,-50.0,
2326.0,2089.0,2136.0,2161.0,-16.0,-50.0,
2603.0,2114.0,2170.0,2298.0,-16.0,-50.0,
2513.0,2097.0,2150.0,2289.0,-16.0,-50.0,
2152.0,2046.0,2090.0,2140.0,-16.0,-50.0,
1758.0,1999.0,2038.0,1957.0,-16.0,-51.0,
1570.0,1977.0,2018.0,1852.0,-16.0,-51.0,
1725.0,2003.0,2048.0,1903.0,-16.0,-51.0,
2130.0,2062.0,2105.0,2071.0,-16.0,-51.0,
2502.0,2106.0,2169.0,2253.0,-16.0,-52.0,
2584.0,2109.0,2162.0,2310.0,-16.0,-52.0,
2340.0,2068.0,2119.0,2221.0,-16.0,-52.0,
1926.0,2013.0,2062.0,2035.0,-16.0,-52.0,
1593.0,1977.0,2016.0,1879.0,-16.0,-52.0,
1610.0,1987.0,2030.0,1865.0,-16.0,-52.0,
1931.0,2036.0,2081.0,1989.0,-16.0,-52.0,
2353.0,2084.0,2141.0,2172.0,-16.0,-52.0,
2617.0,2113.0,2169.0,2301.0,-16.0,-52.0,
2511.0,2094.0,2146.0,2282.0,-16.0,-52.0,
2124.0,2039.0,2087.0,2124.0,-16.0,-52.0,
1727.0,1989.0,2035.0,1941.0,-16.0,-52.0,
1563.0,1974.0,2017.0,1852.0,-16.0,-51.0,
1748.0,2011.0,2058.0,1915.0,-16.0,-51.0,
2159.0,2068.0,2115.0,2089.0,-16.0,-51.0,
2541.0,2111.0,2162.0,2259.0,-16.0,-51.0,
2585.0,2110.0,2159.0,2306.0,-16.0,-50.0,
2327.0,2072.0,2126.0,2214.0,0,0,
1894.0,2011.0,2053.0,2023.0,-16.0,-50.0,
1582.0,1974.0,2015.0,1875.0,-16.0,-50.0,
1618.0,1989.0,2030.0,1864.0,-16.0,-50.0,
1960.0,2039.0,2083.0,1999.0,-16.0,-50.0,
2381.0,2094.0,2144.0,2188.0,-16.0,-50.0,
2623.0,2118.0,2170.0,2304.0,-16.0,-50.0,
2486.0,2090.0,2140.0,2275.0,-16.0,-50.0,
2104.0,2034.0,2080.0,2113.0,0,0,
1705.0,1989.0,2032.0,1931.0,-16.0,-50.0,
1561.0,1978.0,2018.0,1852.0,-16.0,-50.0,
1763.0,2009.0,2054.0,1921.0,-16.0,-50.0,
2176.0,2065.0,2114.0,2098.0,-16.0,-50.0,
2546.0,2118.0,2171.0,2269.0,-16.0,-50.0,
2585.0,2106.0,2159.0,2306.0,-15.0,-50.0,
2290.0,2062.0,2112.0,2201.0,-15.0,-51.0,
1868.0,2006.0,2051.0,2014.0,0,0,
1570.0,1975.0,2016.0,1877.0,-15.0,-51.0,
1627.0,1992.0,2037.0,1873.0,-16.0,-51.0,
1983.0,2044.0,2091.0,2012.0,-15.0,0,
2398.0,2091.0,2148.0,2199.0,-15.0,-51.0,
2614.0,2115.0,2168.0,2307.0,-15.0,-52.0,
2475.0,2088.0,2139.0,2269.0,-15.0,-52.0,
2072.0,2033.0,2075.0,2097.0,-15.0,-52.0,
1675.0,1984.0,2025.0,1921.0,-15.0,-52.0,
1580.0,1980.0,2019.0,1851.0,-15.0,-52.0,
1796.0,2020.0,2064.0,1935.0,-15.0,-52.0,
2222.0,2074.0,2125.0,2116.0,-15.0,-52.0,
2573.0,2108.0,2167.0,2274.0,-15.0,-53.0,
2572.0,2101.0,2153.0,2299.0,-15.0,-53.0,
2268.0,2062.0,2110.0,2186.0,-15.0,-53.0,
1842.0,2006.0,2048.0,1995.0,-15.0,-53.0,
1568.0,1975.0,2014.0,1861.0,-15.0,-53.0,
1656.0,1995.0,2035.0,1878.0,-15.0,-52.0,
2028.0,2047.0,2100.0,2031.0,-15.0,-52.0,
2439.0,2102.0,2150.0,2212.0,-16.0,-52.0,
2615.0,2114.0,2168.0,2310.0,-16.0,-52.0,
2441.0,2081.0,2136.0,2256.0,-16.0,-52.0,
2019.0,2025.0,2074.0,2086.0,-16.0,-51.0,
1654.0,1980.0,2025.0,1907.0,-16.0,-51.0,
1589.0,1981.0,2024.0,1855.0,-16.0,-51.0,
1845.0,2020.0,2069.0,1951.0,-16.0,-50.0,
2264.0,2081.0,2127.0,2130.0,-16.0,-50.0,
2589.0,2114.0,2171.0,2286.0,-16.0,-50.0,
2558.0,2099.0,2156.0,2295.0,-16.0,-50.0,
2221.0,2052.0,2103.0,2168.0,-16.0,-49.0,
1805.0,1998.0,2040.0,1979.0,-16.0,-49.0,
1559.0,1974.0,2014.0,1857.0,-16.0,-49.0,
1668.0,1996.0,2040.0,1887.0,-16.0,-49.0,
2059.0,2051.0,2097.0,2041.0,-16.0,-49.0,
2465.0,2100.0,2152.0,2225.0,-16.0,-49.0,
2612.0,2110.0,2169.0,2318.0,-16.0,-49.0,
2418.0,2081.0,2131.0,2247.0,-16.0,-48.0,
2002.0,2021.0,2070.0,2070.0,-16.0,-49.0,
1629.0,1976.0,2022.0,1898.0,-16.0,-49.0,
1587.0,1986.0,2024.0,1853.0,-16.0,-49.0,
1865.0,2024.0,2070.0,1956.0,-16.0,-49.0,
2294.0,2082.0,2130.0,2146.0,-16.0,-49.0,
2598.0,2114.0,2167.0,2292.0,-16.0,-49.0,
2548.0,2101.0,2151.0,2293.0,-16.0,-50.0,
2195.0,2050.0,2100.0,2159.0,-16.0,-50.0,
1776.0,1995.0,2041.0,1968.0,-16.0,-50.0,
1560.0,1974.0,2014.0,1853.0,-16.0,-51.0,
1702.0,2000.0,2043.0,1893.0,-16.0,-51.0,
2110.0,2058.0,2105.0,2058.0,-16.0,-52.0,
2485.0,2105.0,2156.0,2234.0,-16.0,-52.0,
2616.0,2111.0,2163.0,2307.0,-16.0,-52.0,
2391.0,2075.0,2122.0,2234.0,-16.0,-53.0,
1965.0,2025.0,2073.0,2057.0,-16.0,-53.0,
1610.0,1979.0,2021.0,1888.0,-16.0,-54.0,
1602.0,1986.0,2026.0,1858.0,-16.0,-54.0,
1905.0,2029.0,2077.0,1973.0,-16.0,-54.0,
2325.0,2084.0,2135.0,2166.0,-15.0,-55.0,
2602.0,2117.0,2172.0,2298.0,-15.0,-55.0,
2517.0,2095.0,2150.0,2287.0,-15.0,-55.0,
2151.0,2044.0,2093.0,2138.0,-15.0,-56.0,
1747.0,1992.0,2034.0,1954.0,-15.0,-56.0,
1554.0,1979.0,2020.0,1855.0,-15.0,-56.0,
1723.0,2005.0,2050.0,1903.0,-15.0,-56.0,
2132.0,2057.0,2107.0,2076.0,-15.0,-56.0,
2509.0,2106.0,2159.0,2248.0,-15.0,-56.0,
2593.0,2111.0,2164.0,2312.0,-15.0,-56.0,
2339.0,2072.0,2121.0,2220.0,-15.0,-55.0,
1918.0,2016.0,2061.0,2035.0,-15.0,-55.0,
1593.0,1976.0,2017.0,1878.0,-15.0,-54.0,
1624.0,1991.0,2032.0,1867.0,-15.0,-54.0,
1943.0,2036.0,2082.0,1988.0,-15.0,-53.0,
2358.0,2090.0,2140.0,2178.0,-15.0,-52.0,
2605.0,2114.0,2168.0,2302.0,-15.0,-51.0,
2494.0,2101.0,2148.0,2282.0,-15.0,-49.0,
2110.0,2038.0,2089.0,2120.0,-15.0,-47.0,
1715.0,1988.0,2029.0,1939.0,-15.0,-46.0,
1571.0,1976.0,2017.0,1850.0,0,0,
1772.0,2009.0,2060.0,1924.0,-15.0,-45.0,
2185.0,2067.0,2115.0,2094.0,-15.0,-43.0,
2533.0,2112.0,2166.0,2262.0,-15.0,-42.0,
2574.0,2105.0,2161.0,2305.0,-15.0,-41.0,
2290.0,2062.0,2113.0,2204.0,-15.0,-40.0,
1875.0,2009.0,2056.0,2019.0,-15.0,-40.0,
1582.0,1975.0,2015.0,1870.0,-14.0,-39.0,
1634.0,1988.0,2030.0,1868.0,-14.0,-38.0,
1976.0,2039.0,2084.0,2002.0,-14.0,-38.0,
2392.0,2094.0,2147.0,2193.0,-14.0,-38.0,
2599.0,2114.0,2168.0,2308.0,-14.0,-38.0,
2468.0,2090.0,2141.0,2273.0,-14.0,-38.0,
2078.0,2037.0,2080.0,2108.0,-14.0,-38.0,
1699.0,1986.0,2028.0,1936.0,-14.0,-38.0,
1583.0,1979.0,2019.0,1852.0,-14.0,-38.0,
1786.0,2012.0,2058.0,1922.0,-14.0,-40.0,
2191.0,2065.0,2116.0,2102.0,-14.0,-41.0,
2545.0,2111.0,2164.0,2269.0,-14.0,-41.0,
2565.0,2111.0,2161.0,2309.0,-14.0,0,
2284.0,2064.0,2111.0,2200.0,-13.0,-42.0,
1867.0,2007.0,2052.0,2012.0,-13.0,-43.0,
1584.0,1976.0,2016.0,1867.0,-13.0,-44.0,
1650.0,1994.0,2037.0,1871.0,-13.0,-45.0,
2000.0,2041.0,2089.0,2011.0,-13.0,-45.0,
2398.0,2092.0,2147.0,2196.0,-13.0,-46.0,
2605.0,2114.0,2167.0,2305.0,-13.0,-47.0,
2447.0,2087.0,2141.0,2273.0,-13.0,-47.0,
2064.0,2034.0,2079.0,2103.0,-13.0,-47.0,
1689.0,1985.0,2029.0,1922.0,-13.0,-48.0,
1587.0,1983.0,2019.0,1852.0,-13.0,-48.0,
1808.0,2014.0,2057.0,1930.0,-12.0,-48.0,
2223.0,2072.0,2119.0,2112.0,-12.0,-48.0,
2558.0,2115.0,2167.0,2272.0,-12.0,-47.0,
2562.0,2103.0,2155.0,2303.0,-12.0,-47.0,
2258.0,2059.0,2106.0,2190.0,-12.0,-47.0,
1849.0,2008.0,2048.0,2003.0,-12.0,-46.0,
1578.0,1976.0,2014.0,1865.0,-12.0,-45.0,
1652.0,1990.0,2034.0,1874.0,-11.0,-44.0,
2020.0,2044.0,2090.0,2021.0,-11.0,-43.0,
2418.0,2099.0,2158.0,2211.0,-11.0,-42.0,
2602.0,2115.0,2168.0,2308.0,-11.0,-41.0,
2442.0,2088.0,2137.0,2262.0,-11.0,-39.0,
2039.0,2029.0,2076.0,2090.0,-11.0,-38.0,
1664.0,1981.0,2023.0,1912.0,-10.0,-36.0,
1592.0,1981.0,2025.0,1853.0,-10.0,-32.0,
1818.0,2020.0,2062.0,1936.0,-10.0,-30.0,
2232.0,2073.0,2123.0,2118.0,-10.0,-28.0,
2567.0,2114.0,2166.0,2277.0,-10.0,0,
2559.0,2110.0,2159.0,2304.0,-10.0,-26.0,
2246.0,2059.0,2107.0,2184.0,-9.0,-23.0,
1829.0,2002.0,2048.0,1996.0,-9.0,-21.0,
1570.0,1974.0,2017.0,1863.0,0,0,
1669.0,1993.0,2043.0,1883.0,-9.0,-20.0,
2031.0,2048.0,2094.0,2027.0,-9.0,-19.0,
2413.0,2098.0,2147.0,2206.0,-9.0,-18.0,
2598.0,2112.0,2168.0,2309.0,-9.0,-17.0,
2453.0,2089.0,2142.0,2268.0,-8.0,-16.0,
2080.0,2034.0,2083.0,2108.0,-8.0,-15.0,
1708.0,1994.0,2038.0,1937.0,-8.0,-15.0,
1571.0,1979.0,2021.0,1854.0,-8.0,-15.0,
1765.0,2011.0,2054.0,1911.0,-8.0,-14.0,
2154.0,2063.0,2113.0,2079.0,-8.0,-15.0,
2505.0,2107.0,2161.0,2250.0,-8.0,-15.0,
2577.0,2109.0,2164.0,2306.0,0,0,
2358.0,2070.0,2129.0,2242.0,-7.0,-16.0,
1963.0,2023.0,2066.0,2057.0,-7.0,-16.0,
1631.0,1979.0,2021.0,1897.0,-7.0,-17.0,
1602.0,1984.0,2022.0,1856.0,-7.0,-18.0,
1879.0,2026.0,2071.0,1955.0,-7.0,-19.0,
2288.0,2081.0,2130.0,2143.0,-7.0,-19.0,
2578.0,2115.0,2169.0,2291.0,-7.0,-20.0,
2525.0,2099.0,2154.0,2295.0,-7.0,-21.0,
2180.0,2049.0,2097.0,2155.0,-6.0,-22.0,
1775.0,1997.0,2041.0,1972.0,-6.0,-22.0,
1572.0,1978.0,2019.0,1856.0,-6.0,-23.0,
1701.0,1998.0,2042.0,1890.0,-6.0,-23.0,
2084.0,2052.0,2101.0,2051.0,-6.0,-24.0,
2464.0,2102.0,2153.0,2230.0,-6.0,-24.0,
2574.0,2110.0,2169.0,2322.0,-5.0,-24.0,
2383.0,2078.0,2129.0,2243.0,-5.0,-24.0,
1977.0,2021.0,2068.0,2060.0,-5.0,-23.0,
1629.0,1978.0,2020.0,1895.0,-5.0,-23.0,
1600.0,1983.0,2025.0,1856.0,-5.0,-23.0,
1891.0,2030.0,2074.0,1965.0,-5.0,-22.0,
2295.0,2082.0,2132.0,2148.0,-4.0,-22.0,
2588.0,2117.0,2167.0,2293.0,-4.0,-21.0,
2532.0,2103.0,2151.0,2293.0,-4.0,-20.0,
2189.0,2052.0,2107.0,2158.0,-4.0,-19.0,
1791.0,1999.0,2042.0,1976.0,-3.0,-18.0,
1568.0,1972.0,2013.0,1857.0,-3.0,-17.0,
1673.0,1995.0,2041.0,1882.0,-3.0,-15.0,
2038.0,2050.0,2094.0,2028.0,-3.0,-13.0,
2427.0,2097.0,2149.0,2206.0,-2.0,-11.0,
2610.0,2115.0,2172.0,2319.0,-2.0,-10.0,
2461.0,2088.0,2139.0,2268.0,-2.0,-9.0,
2073.0,2034.0,2081.0,2106.0,-2.0,-7.0,
1694.0,1985.0,2029.0,1931.0,-2.0,-6.0,
1566.0,1977.0,2016.0,1851.0,-1.0,-3.0,
1755.0,2010.0,2053.0,1911.0,-1.0,-1.0,
2152.0,2062.0,2108.0,2082.0,-1.0,0.0,
2518.0,2109.0,2163.0,2251.0,0.0,0.0,
2595.0,2111.0,2167.0,2310.0,0.0,2.0,
2361.0,2074.0,2123.0,2227.0,0.0,3.0,
1955.0,2020.0,2066.0,2051.0,0,0,
1615.0,1978.0,2021.0,1890.0,0.0,4.0,
1595.0,1983.0,2025.0,1854.0,0.0,5.0,
1864.0,2026.0,2074.0,1959.0,0.0,5.0,
2279.0,2079.0,2128.0,2139.0,0.0,3.0,
2589.0,2112.0,2168.0,2284.0,1.0,5.0,
2551.0,2103.0,2157.0,2299.0,1.0,5.0,
2243.0,2056.0,2104.0,2176.0,1.0,5.0,
1831.0,2003.0,2048.0,2000.0,1.0,5.0,
1572.0,1977.0,2018.0,1865.0,1.0,5.0,
1645.0,1990.0,2035.0,1873.0,1.0,5.0,
1996.0,2043.0,2090.0,2012.0,2.0,5.0,
2390.0,2092.0,2144.0,2193.0,2.0,5.0,
2608.0,2113.0,2166.0,2305.0,2.0,5.0,
2488.0,2092.0,2146.0,2287.0,2.0,4.0,
2107.0,2040.0,2089.0,2127.0,2.0,3.0,
1725.0,1988.0,2033.0,1946.0,2.0,3.0,
1558.0,1975.0,2018.0,1853.0,2.0,4.0,
1727.0,2004.0,2048.0,1903.0,3.0,4.0,
2118.0,2057.0,2106.0,2065.0,3.0,4.0,
2487.0,2106.0,2166.0,2245.0,3.0,3.0,
2597.0,2114.0,2164.0,2312.0,3.0,3.0,
2384.0,2076.0,2128.0,2241.0,3.0,3.0,
1982.0,2021.0,2067.0,2063.0,3.0,5.0,
1636.0,1979.0,2023.0,1900.0,4.0,5.0,
1588.0,1986.0,2022.0,1855.0,4.0,5.0,
1841.0,2022.0,2077.0,1950.0,4.0,5.0,
2253.0,2077.0,2129.0,2129.0,4.0,5.0,
2571.0,2115.0,2168.0,2280.0,5.0,5.0,
2567.0,2107.0,2158.0,2299.0,5.0,6.0,
2271.0,2059.0,2108.0,2188.0,5.0,7.0,
1847.0,2004.0,2051.0,2010.0,5.0,7.0,
1577.0,1975.0,2023.0,1873.0,6.0,8.0,
1627.0,1991.0,2032.0,1867.0,6.0,9.0,
1956.0,2036.0,2097.0,1996.0,6.0,10.0,
2362.0,2091.0,2141.0,2180.0,7.0,11.0,
2600.0,2118.0,2165.0,2300.0,7.0,12.0,
2521.0,2098.0,2142.0,2285.0,0,0,
2153.0,2045.0,2095.0,2148.0,7.0,13.0,
1761.0,1998.0,2038.0,1961.0,7.0,13.0,
1565.0,1976.0,2016.0,1854.0,7.0,15.0,
1689.0,2001.0,2042.0,1890.0,8.0,17.0,
2068.0,2053.0,2098.0,2045.0,8.0,17.0,
2459.0,2100.0,2153.0,2224.0,8.0,18.0,
2612.0,2114.0,2164.0,2310.0,9.0,18.0,
2441.0,2086.0,2138.0,2259.0,9.0,18.0,
2041.0,2030.0,2081.0,2092.0,9.0,18.0,
1676.0,1980.0,2028.0,1923.0,9.0,18.0,
1574.0,1979.0,2021.0,1852.0,9.0,19.0,
1787.0,2014.0,2059.0,1927.0,10.0,20.0,
2178.0,2068.0,2115.0,2097.0,10.0,21.0,
2543.0,2116.0,2167.0,2266.0,10.0,22.0,
2584.0,2109.0,2163.0,2308.0,10.0,22.0,
2328.0,2068.0,2117.0,2217.0,11.0,22.0,
1914.0,2014.0,2060.0,2038.0,11.0,22.0,
1595.0,1977.0,2018.0,1883.0,11.0,22.0,
1609.0,1987.0,2026.0,1859.0,11.0,20.0,
1901.0,2039.0,2078.0,1970.0,11.0,21.0,
2305.0,2085.0,2131.0,2152.0,12.0,22.0,
2587.0,2114.0,2169.0,2290.0,12.0,23.0,
2546.0,2100.0,2152.0,2296.0,12.0,23.0,
2207.0,2051.0,2101.0,2163.0,12.0,23.0,
1801.0,1997.0,2043.0,1983.0,12.0,22.0,
1565.0,1977.0,2021.0,1860.0,12.0,22.0,
1657.0,1997.0,2041.0,1875.0,13.0,22.0,
2008.0,2046.0,2090.0,2020.0,13.0,21.0,
2405.0,2094.0,2148.0,2199.0,13.0,23.0,
2607.0,2111.0,2173.0,2310.0,13.0,23.0,
2468.0,2092.0,2143.0,2271.0,0,0,
2090.0,2033.0,2088.0,2126.0,13.0,23.0,
1713.0,1990.0,2033.0,1943.0,13.0,22.0,
1563.0,1978.0,2018.0,1849.0,14.0,22.0,
1738.0,2010.0,2049.0,1904.0,14.0,21.0,
2127.0,2059.0,2106.0,2069.0,14.0,20.0,
2499.0,2107.0,2156.0,2242.0,14.0,21.0,
2594.0,2107.0,2163.0,2314.0,14.0,23.0,
2378.0,2080.0,2126.0,2238.0,14.0,26.0,
1975.0,2023.0,2069.0,2065.0,15.0,25.0,
1636.0,1977.0,2022.0,1901.0,15.0,25.0,
1594.0,1982.0,2024.0,1855.0,15.0,25.0,
1844.0,2020.0,2067.0,1944.0,15.0,24.0,
2247.0,2073.0,2124.0,2126.0,15.0,22.0,
2577.0,2114.0,2168.0,2283.0,15.0,23.0,
2566.0,2106.0,2157.0,2303.0,16.0,24.0,
2265.0,2059.0,2109.0,2189.0,16.0,26.0,
1851.0,2003.0,2036.0,2003.0,16.0,29.0,
1574.0,1974.0,2014.0,1864.0,16.0,29.0,
1651.0,1994.0,2037.0,1871.0,16.0,27.0,
1991.0,2043.0,2088.0,2009.0,16.0,27.0,
2383.0,2093.0,2142.0,2189.0,16.0,24.0,
2601.0,2118.0,2168.0,2304.0,17.0,25.0,
2495.0,2091.0,2146.0,2280.0,17.0,26.0,
2121.0,2047.0,2091.0,2128.0,17.0,28.0,
1733.0,1989.0,2036.0,1949.0,17.0,30.0,
1572.0,1976.0,2020.0,1851.0,17.0,29.0,
1752.0,2007.0,2051.0,1908.0,17.0,28.0,
2150.0,2059.0,2109.0,2075.0,18.0,28.0,
2508.0,2105.0,2158.0,2244.0,18.0,27.0,
2599.0,2113.0,2166.0,2312.0,18.0,27.0,
2373.0,2074.0,2125.0,2233.0,18.0,26.0,
1963.0,2020.0,2068.0,2057.0,18.0,30.0,
1622.0,1973.0,2019.0,1888.0,18.0,30.0,
1607.0,1982.0,2025.0,1855.0,19.0,30.0,
1894.0,2031.0,2076.0,1968.0,0,0,
2314.0,2084.0,2136.0,2156.0,19.0,29.0,
2592.0,2116.0,2169.0,2294.0,19.0,29.0,
2525.0,2098.0,2151.0,2288.0,19.0,29.0,
2166.0,2049.0,2104.0,2150.0,19.0,29.0,
1767.0,1999.0,2039.0,1963.0,19.0,30.0,
1568.0,1972.0,2019.0,1851.0,19.0,33.0,
1714.0,2002.0,2045.0,1898.0,20.0,32.0,
2117.0,2058.0,2103.0,2065.0,20.0,30.0,
2500.0,2106.0,2157.0,2242.0,20.0,30.0,
2587.0,2112.0,2165.0,2311.0,20.0,31.0,
2362.0,2073.0,2122.0,2228.0,20.0,31.0,
1946.0,2014.0,2061.0,2048.0,20.0,31.0,
1609.0,1979.0,2023.0,1888.0,20.0,31.0,
1617.0,1987.0,2028.0,1858.0,20.0,32.0,
1906.0,2031.0,2077.0,1976.0,20.0,32.0,
2330.0,2086.0,2136.0,2159.0,20.0,33.0,
2589.0,2117.0,2177.0,2304.0,21.0,34.0,
2512.0,2098.0,2147.0,2289.0,21.0,32.0,
2148.0,2045.0,2092.0,2140.0,21.0,31.0,
1746.0,1989.0,2038.0,1961.0,21.0,32.0,
1570.0,1977.0,2016.0,1852.0,21.0,32.0,
1732.0,2009.0,2050.0,1901.0,21.0,29.0,
2126.0,2059.0,2109.0,2070.0,21.0,31.0,
2492.0,2104.0,2157.0,2245.0,21.0,32.0,
2578.0,2109.0,2160.0,2308.0,22.0,33.0,
2343.0,2074.0,2126.0,2229.0,22.0,33.0,
1940.0,2017.0,2065.0,2042.0,22.0,34.0,
1613.0,1977.0,2017.0,1884.0,22.0,0,
1622.0,1985.0,2029.0,1859.0,22.0,33.0,
1931.0,2037.0,2081.0,1990.0,22.0,33.0,
2340.0,2088.0,2138.0,2170.0,22.0,33.0,
2591.0,2115.0,2168.0,2300.0,22.0,33.0,
2493.0,2096.0,2147.0,2285.0,22.0,33.0,
2128.0,2043.0,2089.0,2134.0,22.0,33.0,
1739.0,1989.0,2038.0,1949.0,23.0,33.0,
1577.0,1975.0,2018.0,1852.0,23.0,33.0,
1744.0,2005.0,2049.0,1903.0,0,0,
2141.0,2060.0,2110.0,2077.0,23.0,34.0,
2505.0,2120.0,2162.0,2254.0,23.0,34.0,
2567.0,2110.0,2162.0,2308.0,23.0,33.0,
2323.0,2068.0,2119.0,2220.0,23.0,32.0,
1911.0,2012.0,2062.0,2036.0,23.0,36.0,
1599.0,1977.0,2017.0,1877.0,23.0,35.0,
1625.0,1986.0,2030.0,1863.0,23.0,34.0,
1931.0,2034.0,2080.0,1983.0,23.0,34.0,
2348.0,2087.0,2136.0,2163.0,23.0,34.0,
2586.0,2115.0,2169.0,2300.0,23.0,34.0,
2506.0,2097.0,2148.0,2284.0,23.0,34.0,
2124.0,2041.0,2090.0,2130.0,24.0,34.0,
1733.0,1989.0,2034.0,1948.0,24.0,34.0,
1573.0,1975.0,2014.0,1850.0,24.0,34.0,
1748.0,2008.0,2055.0,1912.0,24.0,34.0,
2146.0,2063.0,2109.0,2081.0,24.0,34.0,
2502.0,2106.0,2161.0,2253.0,24.0,34.0,
2566.0,2107.0,2161.0,2309.0,24.0,35.0,
2322.0,2067.0,2118.0,2214.0,24.0,35.0,
1915.0,2013.0,2061.0,2031.0,24.0,35.0,
1597.0,1975.0,2017.0,1877.0,24.0,35.0,
1624.0,1985.0,2031.0,1861.0,25.0,35.0,
1942.0,2030.0,2083.0,1987.0,25.0,35.0,
2342.0,2095.0,2144.0,2177.0,25.0,38.0,
2596.0,2116.0,2170.0,2302.0,25.0,36.0,
2487.0,2094.0,2146.0,2281.0,25.0,36.0,
2120.0,2020.0,2088.0,2127.0,25.0,0,
1726.0,1989.0,2032.0,1945.0,25.0,36.0,
1571.0,1976.0,2020.0,1851.0,25.0,36.0,
1745.0,2007.0,2052.0,1907.0,25.0,36.0,
2147.0,2063.0,2109.0,2077.0,25.0,36.0,
2520.0,2111.0,2159.0,2255.0,25.0,36.0,
2586.0,2117.0,2162.0,2310.0,26.0,36.0,
2323.0,2070.0,2119.0,2214.0,26.0,36.0,
1911.0,2011.0,2058.0,2027.0,26.0,35.0,
1594.0,1973.0,2016.0,1873.0,26.0,37.0,
1627.0,1986.0,2032.0,1866.0,26.0,37.0,
1953.0,2038.0,2085.0,1990.0,26.0,37.0,
2357.0,2085.0,2141.0,2177.0,26.0,37.0,
2601.0,2115.0,2169.0,2301.0,26.0,37.0,
2483.0,2089.0,2145.0,2277.0,26.0,37.0,
2114.0,2040.0,2089.0,2124.0,26.0,37.0,
1723.0,1991.0,2034.0,1941.0,27.0,37.0,
1564.0,1977.0,2020.0,1849.0,27.0,38.0,
1766.0,2007.0,2055.0,1910.0,27.0,38.0,
2167.0,2065.0,2120.0,2088.0,27.0,38.0,
2520.0,2111.0,2163.0,2262.0,27.0,38.0,
2571.0,2109.0,2160.0,2306.0,27.0,38.0,
2305.0,2065.0,2115.0,2210.0,27.0,38.0,
1891.0,2008.0,2056.0,2022.0,27.0,38.0,
1590.0,1973.0,2020.0,1875.0,0,0,
1632.0,1989.0,2031.0,1864.0,27.0,38.0,
1966.0,2035.0,2081.0,1997.0,27.0,38.0,
2370.0,2091.0,2140.0,2183.0,27.0,39.0,
2599.0,2121.0,2172.0,2307.0,27.0,40.0,
2471.0,2092.0,2145.0,2277.0,27.0,38.0,
2095.0,2040.0,2087.0,2117.0,27.0,38.0,
1704.0,1984.0,2031.0,1935.0,27.0,38.0,
1566.0,1983.0,2028.0,1851.0,27.0,38.0,
1775.0,2013.0,2059.0,1916.0,27.0,38.0,
2180.0,2066.0,2115.0,2096.0,27.0,38.0,
2529.0,2112.0,2161.0,2262.0,27.0,38.0,
2567.0,2109.0,2159.0,2305.0,27.0,39.0,
2292.0,2065.0,2114.0,2205.0,28.0,38.0,
1881.0,2010.0,2054.0,2019.0,28.0,38.0,
1589.0,1974.0,2016.0,1871.0,28.0,38.0,
1637.0,1989.0,2033.0,1867.0,28.0,39.0,
1987.0,2042.0,2090.0,2004.0,28.0,39.0,
2388.0,2092.0,2145.0,2186.0,28.0,39.0,
2593.0,2115.0,2167.0,2305.0,28.0,38.0,
2473.0,2090.0,2142.0,2272.0,28.0,39.0,
2081.0,2036.0,2083.0,2118.0,28.0,39.0,
1701.0,1989.0,2032.0,1933.0,28.0,39.0,
1570.0,1983.0,2022.0,1850.0,28.0,39.0,
1778.0,2012.0,2056.0,1921.0,28.0,39.0,
2179.0,2066.0,2116.0,2100.0,28.0,39.0,
2541.0,2113.0,2167.0,2269.0,28.0,39.0,
2566.0,2105.0,2162.0,2307.0,28.0,39.0,
2282.0,2063.0,2116.0,2200.0,28.0,39.0,
1868.0,2006.0,2054.0,2014.0,28.0,39.0,
1580.0,1978.0,2021.0,1872.0,28.0,39.0,
1641.0,1991.0,2035.0,1867.0,28.0,39.0,
1979.0,2038.0,2086.0,2006.0,28.0,39.0,
2383.0,2091.0,2145.0,2188.0,28.0,40.0,
2600.0,2112.0,2169.0,2306.0,28.0,40.0,
2474.0,2091.0,2145.0,2271.0,29.0,40.0,
2079.0,2036.0,2086.0,2110.0,29.0,40.0,
1700.0,1986.0,2033.0,1927.0,29.0,40.0,
1579.0,1976.0,2018.0,1850.0,29.0,40.0,
1785.0,2019.0,2066.0,1923.0,29.0,40.0,
2197.0,2070.0,2118.0,2097.0,29.0,40.0,
2535.0,2117.0,2167.0,2265.0,29.0,40.0,
2565.0,2105.0,2157.0,2305.0,29.0,40.0,
2288.0,2064.0,2115.0,2201.0,29.0,40.0,
1866.0,2012.0,2056.0,2018.0,29.0,0,
1585.0,1975.0,2015.0,1867.0,29.0,40.0,
1639.0,1988.0,2032.0,1866.0,29.0,40.0,
1975.0,2038.0,2085.0,2000.0,30.0,40.0,
2379.0,2097.0,2150.0,2191.0,30.0,40.0,
2601.0,2113.0,2170.0,2304.0,30.0,40.0,
2471.0,2091.0,2140.0,2274.0,30.0,40.0,
2084.0,2033.0,2084.0,2111.0,30.0,40.0,
1701.0,1986.0,2031.0,1932.0,30.0,40.0,
1576.0,1979.0,2018.0,1854.0,30.0,40.0,
1772.0,2010.0,2055.0,1919.0,30.0,40.0,
2183.0,2066.0,2115.0,2094.0,30.0,40.0,
2531.0,2113.0,2162.0,2265.0,30.0,40.0,
2569.0,2113.0,2163.0,2309.0,30.0,40.0,
2271.0,2070.0,2113.0,2203.0,30.0,40.0,
1879.0,2007.0,2054.0,2015.0,30.0,40.0,
1577.0,1974.0,2016.0,1869.0,30.0,40.0,
1632.0,1988.0,2031.0,1868.0,30.0,40.0,
1977.0,2039.0,2088.0,2004.0,30.0,40.0,
2381.0,2092.0,2144.0,2188.0,30.0,40.0,
2602.0,2116.0,2168.0,2305.0,30.0,40.0,
2471.0,2090.0,2139.0,2273.0,30.0,41.0,
2088.0,2041.0,2086.0,2110.0,30.0,41.0,
1700.0,1988.0,2032.0,1933.0,30.0,41.0,
1573.0,1977.0,2017.0,1850.0,30.0,41.0,
1770.0,2012.0,2054.0,1923.0,30.0,41.0,
2192.0,2070.0,2114.0,2101.0,30.0,41.0,
2538.0,2113.0,2162.0,2267.0,30.0,41.0,
2569.0,2108.0,2157.0,2307.0,30.0,41.0,
2290.0,2061.0,2111.0,2201.0,30.0,41.0,
1871.0,2003.0,2056.0,2015.0,30.0,41.0,
1584.0,1977.0,2016.0,1871.0,30.0,41.0,
1635.0,1989.0,2031.0,1870.0,30.0,41.0,
1981.0,2041.0,2085.0,2002.0,30.0,41.0,
2384.0,2091.0,2143.0,2189.0,30.0,41.0,
2592.0,2115.0,2171.0,2317.0,30.0,41.0,
2468.0,2092.0,2140.0,2275.0,30.0,41.0,
2083.0,2041.0,2083.0,2110.0,30.0,41.0,
1698.0,1987.0,2030.0,1931.0,30.0,41.0,
1568.0,1976.0,2018.0,1851.0,30.0,41.0,
1783.0,2014.0,2057.0,1926.0,31.0,41.0,
2188.0,2069.0,2117.0,2103.0,31.0,41.0,
2537.0,2110.0,2167.0,2266.0,31.0,41.0,
2565.0,2106.0,2160.0,2306.0,31.0,41.0,
2285.0,2062.0,2119.0,2206.0,31.0,41.0,
1873.0,2010.0,2057.0,2016.0,31.0,41.0,
1587.0,1975.0,2019.0,1868.0,31.0,41.0,
1636.0,1988.0,2032.0,1866.0,31.0,41.0,
1973.0,2037.0,2086.0,2004.0,31.0,41.0,
2386.0,2098.0,2146.0,2192.0,31.0,41.0,
2601.0,2122.0,2171.0,2306.0,31.0,41.0,
2468.0,2092.0,2143.0,2272.0,31.0,40.0,
2077.0,2036.0,2081.0,2110.0,31.0,40.0,
1703.0,1984.0,2036.0,1938.0,31.0,40.0,
1581.0,1981.0,2021.0,1850.0,31.0,40.0,
1771.0,2009.0,2055.0,1919.0,31.0,40.0,
2181.0,2064.0,2114.0,2098.0,31.0,40.0,
2534.0,2107.0,2161.0,2263.0,0,0,
2576.0,2111.0,2158.0,2310.0,31.0,40.0,
2286.0,2064.0,2115.0,2206.0,31.0,41.0,
1879.0,2007.0,2055.0,2020.0,31.0,41.0,
1578.0,1976.0,2016.0,1872.0,31.0,41.0,
1629.0,1986.0,2041.0,1869.0,31.0,41.0,
1974.0,2041.0,2088.0,2001.0,31.0,41.0,
2384.0,2096.0,2144.0,2188.0,31.0,41.0,
2602.0,2115.0,2167.0,2304.0,31.0,41.0,
2466.0,2091.0,2141.0,2273.0,31.0,41.0,
2091.0,2039.0,2085.0,2117.0,31.0,41.0,
1700.0,1990.0,2031.0,1934.0,31.0,41.0,
1572.0,1976.0,2020.0,1850.0,31.0,41.0,
1772.0,2009.0,2056.0,1920.0,31.0,41.0,
2179.0,2072.0,2121.0,2101.0,31.0,41.0,
2531.0,2112.0,2167.0,2263.0,31.0,41.0,
2557.0,2105.0,2161.0,2306.0,31.0,41.0,
2285.0,2062.0,2112.0,2204.0,31.0,41.0,
1874.0,2004.0,2053.0,2019.0,31.0,41.0,
1589.0,1954.0,2019.0,1873.0,31.0,41.0,
1629.0,1990.0,2032.0,1866.0,31.0,41.0,
1965.0,2040.0,2085.0,2003.0,31.0,41.0,
2377.0,2094.0,2140.0,2188.0,31.0,41.0,
2594.0,2121.0,2177.0,2310.0,31.0,41.0,
2473.0,2091.0,2142.0,2275.0,31.0,41.0,
2090.0,2037.0,2083.0,2115.0,31.0,41.0,
1706.0,1983.0,2029.0,1933.0,31.0,40.0,
1580.0,1978.0,2020.0,1850.0,31.0,40.0,
1781.0,2013.0,2058.0,1920.0,31.0,0,
2186.0,2070.0,2118.0,2100.0,31.0,40.0,
2538.0,2110.0,2163.0,2266.0,31.0,40.0,
2571.0,2108.0,2157.0,2305.0,31.0,40.0,
2296.0,2066.0,2114.0,2203.0,31.0,40.0,
1872.0,2008.0,2055.0,2018.0,31.0,40.0,
1586.0,1973.0,2015.0,1869.0,31.0,40.0,
1632.0,1990.0,2033.0,1867.0,31.0,40.0,
1973.0,2036.0,2086.0,2010.0,31.0,40.0,
2386.0,2097.0,2146.0,2189.0,31.0,40.0,
2599.0,2115.0,2169.0,2308.0,31.0,40.0,
2470.0,2090.0,2141.0,2275.0,31.0,40.0,
2077.0,2035.0,2086.0,2111.0,31.0,40.0,
1695.0,1987.0,2034.0,1935.0,31.0,40.0,
1567.0,1979.0,2022.0,1856.0,30.0,40.0,
1785.0,2013.0,2057.0,1923.0,30.0,40.0,
2188.0,2066.0,2115.0,2097.0,30.0,39.0,
2532.0,2106.0,2181.0,2273.0,30.0,39.0,
2575.0,2106.0,2161.0,2307.0,30.0,39.0,
2284.0,2061.0,2117.0,2200.0,30.0,39.0,
1872.0,2006.0,2053.0,2016.0,30.0,39.0,
1583.0,1972.0,2013.0,1868.0,30.0,39.0,
1629.0,1991.0,2037.0,1869.0,30.0,39.0,
1978.0,2041.0,2087.0,2001.0,30.0,39.0,
2376.0,2091.0,2141.0,2193.0,30.0,39.0,
2593.0,2112.0,2168.0,2305.0,30.0,39.0,
2472.0,2092.0,2150.0,2278.0,30.0,39.0,
2080.0,2031.0,2085.0,2114.0,30.0,39.0,
1700.0,1985.0,2032.0,1931.0,30.0,39.0,
1569.0,1974.0,2021.0,1853.0,30.0,39.0,
1785.0,2013.0,2056.0,1922.0,30.0,39.0,
2190.0,2069.0,2118.0,2102.0,30.0,39.0,
2536.0,2114.0,2167.0,2269.0,30.0,39.0,
2558.0,2106.0,2161.0,2305.0,30.0,39.0,
2277.0,2063.0,2112.0,2200.0,30.0,39.0,
1873.0,2016.0,2058.0,2015.0,30.0,39.0,
1575.0,1973.0,2017.0,1870.0,30.0,39.0,
1632.0,1990.0,2032.0,1868.0,30.0,39.0,
1976.0,2036.0,2084.0,2006.0,30.0,38.0,
2377.0,2091.0,2143.0,2193.0,30.0,38.0,
2594.0,2115.0,2171.0,2309.0,30.0,38.0,
2465.0,2087.0,2142.0,2273.0,30.0,38.0,
2076.0,2033.0,2082.0,2108.0,30.0,38.0,
1687.0,1982.0,2030.0,1928.0,30.0,38.0,
1579.0,1979.0,2024.0,1853.0,30.0,38.0,
1790.0,2013.0,2061.0,1925.0,30.0,38.0,
2194.0,2069.0,2118.0,2105.0,30.0,37.0,
2540.0,2108.0,2165.0,2269.0,30.0,37.0,
2554.0,2109.0,2166.0,2308.0,30.0,37.0,
2274.0,2061.0,2112.0,2196.0,30.0,37.0,
1859.0,2005.0,2052.0,2009.0,30.0,36.0,
1575.0,1974.0,2014.0,1865.0,30.0,36.0,
1641.0,1989.0,2033.0,1868.0,30.0,36.0,
2002.0,2040.0,2091.0,2012.0,30.0,36.0,
2394.0,2093.0,2147.0,2199.0,30.0,35.0,
2600.0,2111.0,2168.0,2303.0,30.0,35.0,
2445.0,2087.0,2137.0,2269.0,29.0,35.0,
2068.0,2039.0,2083.0,2107.0,29.0,34.0,
1683.0,1981.0,2024.0,1924.0,29.0,34.0,
1579.0,1975.0,2021.0,1850.0,29.0,34.0,
1798.0,2012.0,2060.0,1927.0,29.0,34.0,
2201.0,2067.0,2117.0,2118.0,29.0,34.0,
2547.0,2110.0,2166.0,2274.0,29.0,34.0,
2557.0,2084.0,2156.0,2305.0,29.0,34.0,
2258.0,2056.0,2109.0,2195.0,28.0,33.0,
1841.0,2007.0,2050.0,2004.0,28.0,33.0,
1579.0,1976.0,2017.0,1865.0,28.0,33.0,
1650.0,1990.0,2036.0,1873.0,28.0,33.0,
2000.0,2043.0,2090.0,2014.0,28.0,32.0,
2403.0,2098.0,2147.0,2198.0,28.0,32.0,
2603.0,2113.0,2177.0,2314.0,28.0,32.0,
2448.0,2090.0,2138.0,2267.0,27.0,32.0,
2053.0,2033.0,2080.0,2103.0,27.0,32.0,
1671.0,1980.0,2029.0,1923.0,27.0,32.0,
1574.0,1977.0,2020.0,1853.0,27.0,32.0,
1807.0,2018.0,2063.0,1931.0,26.0,32.0,
2210.0,2070.0,2120.0,2110.0,26.0,32.0,
2556.0,2114.0,2165.0,2274.0,26.0,31.0,
2564.0,2102.0,2157.0,2302.0,26.0,31.0,
2260.0,2069.0,2111.0,2194.0,26.0,31.0,
1844.0,2003.0,2049.0,2005.0,25.0,31.0,
1570.0,1978.0,2015.0,1864.0,25.0,31.0,
1651.0,1989.0,2036.0,1871.0,25.0,30.0,
2002.0,2042.0,2090.0,2024.0,25.0,29.0,
2408.0,2097.0,2149.0,2203.0,25.0,29.0,
2601.0,2117.0,2167.0,2309.0,25.0,29.0,
2438.0,2083.0,2132.0,2264.0,24.0,29.0,
2044.0,2029.0,2078.0,2094.0,24.0,29.0,
1665.0,1986.0,2029.0,1920.0,24.0,28.0,
1572.0,1980.0,2021.0,1852.0,24.0,28.0,
1787.0,2018.0,2060.0,1926.0,23.0,27.0,
2184.0,2069.0,2116.0,2099.0,23.0,28.0,
2536.0,2108.0,2160.0,2261.0,23.0,26.0,
2574.0,2107.0,2160.0,2308.0,23.0,26.0,
2315.0,2068.0,2120.0,2214.0,22.0,27.0,
1912.0,2014.0,2063.0,2035.0,0,0,
1593.0,1974.0,2018.0,1880.0,22.0,27.0,
1605.0,1985.0,2027.0,1858.0,22.0,27.0,
1900.0,2031.0,2071.0,1974.0,22.0,27.0,
2306.0,2084.0,2133.0,2155.0,22.0,26.0,
2599.0,2118.0,2171.0,2297.0,21.0,26.0,
2532.0,2099.0,2152.0,2296.0,21.0,26.0,
2198.0,2049.0,2099.0,2166.0,21.0,26.0,
1806.0,1996.0,2044.0,1985.0,21.0,27.0,
1564.0,1970.0,2015.0,1861.0,20.0,27.0,
1661.0,1992.0,2039.0,1876.0,20.0,27.0,
2022.0,2049.0,2095.0,2024.0,20.0,26.0,
2414.0,2096.0,2147.0,2206.0,20.0,25.0,
2604.0,2118.0,2167.0,2308.0,19.0,26.0,
2461.0,2089.0,2140.0,2269.0,19.0,25.0,
2095.0,2035.0,2084.0,2112.0,19.0,25.0,
1712.0,1988.0,2029.0,1939.0,19.0,23.0,
1567.0,1979.0,2026.0,1854.0,18.0,23.0,
1737.0,2007.0,2052.0,1910.0,18.0,23.0,
2129.0,2061.0,2110.0,2075.0,18.0,21.0,
2499.0,2109.0,2157.0,2242.0,17.0,20.0,
2589.0,2108.0,2161.0,2308.0,17.0,19.0,
2374.0,2074.0,2124.0,2236.0,17.0,18.0,
1972.0,2019.0,2074.0,2068.0,0,0,
1632.0,1979.0,2021.0,1900.0,17.0,18.0,
1595.0,1981.0,2026.0,1853.0,16.0,17.0,
1835.0,2021.0,2067.0,1949.0,16.0,16.0,
2246.0,2072.0,2124.0,2127.0,16.0,14.0,
2569.0,2111.0,2165.0,2280.0,16.0,13.0,
2559.0,2103.0,2156.0,2311.0,15.0,13.0,
2269.0,2058.0,2110.0,2191.0,15.0,12.0,
1858.0,2011.0,2053.0,2008.0,15.0,12.0,
1581.0,1980.0,2016.0,1871.0,14.0,12.0,
1621.0,1988.0,2031.0,1865.0,14.0,11.0,
1948.0,2040.0,2084.0,1994.0,14.0,11.0,
2355.0,2089.0,2140.0,2177.0,14.0,12.0,
2605.0,2116.0,2172.0,2302.0,13.0,12.0,
2518.0,2096.0,2148.0,2285.0,13.0,12.0,
2152.0,2043.0,2091.0,2139.0,13.0,12.0,
1753.0,1992.0,2038.0,1960.0,13.0,12.0,
1562.0,1975.0,2016.0,1852.0,12.0,13.0,
1688.0,1996.0,2042.0,1888.0,12.0,13.0,
2074.0,2061.0,2103.0,2048.0,12.0,13.0,
2460.0,2102.0,2152.0,2223.0,11.0,14.0,
2606.0,2112.0,2166.0,2311.0,11.0,14.0,
2425.0,2081.0,2133.0,2251.0,11.0,14.0,
2020.0,2028.0,2074.0,2082.0,11.0,13.0,
1654.0,1981.0,2027.0,1912.0,10.0,13.0,
1563.0,1982.0,2021.0,1854.0,10.0,13.0,
1797.0,2016.0,2058.0,1931.0,10.0,12.0,
2199.0,2069.0,2119.0,2107.0,10.0,12.0,
2554.0,2112.0,2164.0,2268.0,9.0,11.0,
2591.0,2104.0,2158.0,2305.0,9.0,10.0,
2315.0,2061.0,2114.0,2209.0,9.0,9.0,
1904.0,2010.0,2055.0,2026.0,8.0,8.0,
1578.0,1976.0,2017.0,1879.0,8.0,7.0,
1593.0,1987.0,2029.0,1859.0,8.0,5.0,
1904.0,2033.0,2076.0,1986.0,8.0,5.0,
2318.0,2085.0,2133.0,2160.0,7.0,3.0,
2601.0,2115.0,2167.0,2296.0,7.0,2.0,
2549.0,2099.0,2150.0,2291.0,7.0,1.0,
2196.0,2050.0,2099.0,2157.0,6.0,-1.0,
1784.0,1997.0,2043.0,1976.0,6.0,-3.0,
1551.0,1976.0,2015.0,1855.0,6.0,-4.0,
1653.0,1996.0,2038.0,1881.0,5.0,-5.0,
2026.0,2049.0,2095.0,2038.0,5.0,-7.0,
2425.0,2098.0,2152.0,2212.0,5.0,-7.0,
2622.0,2114.0,2169.0,2310.0,4.0,-9.0,
2468.0,2087.0,2136.0,2266.0,4.0,-10.0,
2068.0,2031.0,2078.0,2103.0,4.0,-10.0,
1689.0,1983.0,2029.0,1930.0,3.0,0,
1555.0,1976.0,2018.0,1853.0,3.0,-10.0,
1749.0,2013.0,2055.0,1917.0,3.0,-11.0,
2148.0,2065.0,2112.0,2089.0,3.0,-11.0,
2527.0,2107.0,2166.0,2254.0,3.0,-11.0,
2590.0,2107.0,2159.0,2310.0,2.0,-12.0,
2363.0,2069.0,2120.0,2222.0,2.0,-12.0,
1947.0,2017.0,2060.0,2045.0,2.0,-11.0,
1605.0,1980.0,2020.0,1888.0,2.0,-11.0,
1586.0,1985.0,2029.0,1857.0,1.0,-11.0,
1863.0,2027.0,2071.0,1962.0,1.0,-11.0,
2272.0,2079.0,2128.0,2144.0,1.0,-11.0,
2583.0,2113.0,2168.0,2289.0,1.0,-12.0,
2555.0,2103.0,2156.0,2296.0,0.0,-11.0,
2236.0,2057.0,2104.0,2178.0,0.0,-12.0,
1828.0,2002.0,2048.0,1994.0,0.0,-11.0,
1558.0,1972.0,2015.0,1862.0,0.0,-12.0,
1641.0,1992.0,2035.0,1871.0,0.0,-12.0,
1984.0,2043.0,2090.0,2016.0,0.0,-13.0,
2388.0,2092.0,2142.0,2193.0,0.0,-14.0,
2606.0,2117.0,2169.0,2312.0,0.0,-15.0,
2483.0,2093.0,2142.0,2278.0,0.0,-16.0,
2109.0,2036.0,2086.0,2122.0,-1.0,-17.0,
1714.0,1988.0,2028.0,1940.0,-1.0,-18.0,
1558.0,1974.0,2017.0,1850.0,-1.0,-19.0,
1753.0,2012.0,2053.0,1920.0,-1.0,-20.0,
2164.0,2068.0,2112.0,2096.0,-1.0,-21.0,
2526.0,2110.0,2161.0,2263.0,-2.0,-22.0,
2573.0,2107.0,2155.0,2302.0,-2.0,-23.0,
2293.0,2065.0,2113.0,2207.0,-2.0,-24.0,
1874.0,2006.0,2052.0,2019.0,-2.0,-25.0,
1579.0,1974.0,2014.0,1869.0,-2.0,-25.0,
1626.0,1988.0,2032.0,1868.0,-2.0,-26.0,
1974.0,2047.0,2089.0,2011.0,-3.0,-27.0,
2390.0,2094.0,2143.0,2193.0,-3.0,-27.0,
2602.0,2114.0,2165.0,2310.0,-3.0,-29.0,
2472.0,2086.0,2144.0,2272.0,-3.0,-29.0,
2078.0,2035.0,2078.0,2115.0,-3.0,-29.0,
1692.0,1987.0,2028.0,1930.0,-4.0,-29.0,
1569.0,1981.0,2019.0,1855.0,-4.0,-29.0,
1774.0,2013.0,2058.0,1925.0,-4.0,-29.0,
2194.0,2067.0,2115.0,2105.0,-4.0,-29.0,
2552.0,2115.0,2165.0,2272.0,-4.0,-29.0,
2570.0,2106.0,2155.0,2307.0,-4.0,-29.0,
2286.0,2063.0,2109.0,2199.0,-5.0,-29.0,
1865.0,2007.0,2052.0,2013.0,-5.0,-29.0,
1572.0,1974.0,2019.0,1872.0,-5.0,-30.0,
1613.0,1992.0,2035.0,1869.0,-5.0,-30.0,
1975.0,2045.0,2089.0,2011.0,-5.0,-32.0,
2396.0,2095.0,2146.0,2195.0,-5.0,-33.0,
2611.0,2114.0,2168.0,2308.0,-5.0,-33.0,
2470.0,2093.0,2143.0,2269.0,0,-34.0,
2072.0,2036.0,2080.0,2102.0,-6.0,-35.0,
1685.0,1982.0,2028.0,1927.0,-6.0,-35.0,
1570.0,1981.0,2020.0,1850.0,-6.0,0,
1797.0,2017.0,2060.0,1932.0,-6.0,-36.0,
2211.0,2069.0,2119.0,2109.0,-6.0,-37.0,
2550.0,2111.0,2167.0,2274.0,-6.0,-38.0,
2562.0,2105.0,2154.0,2302.0,-6.0,-39.0,
2265.0,2060.0,2112.0,2200.0,-6.0,-39.0,
1850.0,2007.0,2048.0,2007.0,-6.0,-40.0,
1569.0,1977.0,2015.0,1866.0,-6.0,-41.0,
1637.0,1987.0,2034.0,1871.0,-7.0,-41.0,
1999.0,2043.0,2089.0,2016.0,-7.0,-41.0,
2403.0,2098.0,2150.0,2204.0,-7.0,-42.0,
2599.0,2114.0,2167.0,2308.0,-7.0,-42.0,
2449.0,2085.0,2137.0,2266.0,-7.0,-42.0,
2056.0,2031.0,2079.0,2102.0,-7.0,-42.0,
1688.0,1985.0,2029.0,1930.0,-7.0,-42.0,
1576.0,1981.0,2019.0,1853.0,-7.0,-42.0,
1797.0,2013.0,2060.0,1928.0,-8.0,-42.0,
2202.0,2067.0,2120.0,2109.0,-8.0,-42.0,
2547.0,2109.0,2164.0,2273.0,-8.0,-41.0,
2562.0,2108.0,2163.0,2307.0,-8.0,-43.0,
2263.0,2062.0,2113.0,2192.0,-8.0,-43.0,
1848.0,2008.0,2049.0,2004.0,-8.0,-43.0,
1580.0,1976.0,2016.0,1864.0,-8.0,-44.0,
1646.0,1989.0,2045.0,1875.0,-8.0,-43.0,
1999.0,2043.0,2094.0,2016.0,-8.0,-43.0,
2394.0,2097.0,2147.0,2203.0,-9.0,-43.0,
2598.0,2113.0,2171.0,2310.0,-9.0,-44.0,
2449.0,2086.0,2137.0,2262.0,-9.0,-44.0,
2059.0,2032.0,2081.0,2100.0,-9.0,-45.0,
1681.0,1984.0,2029.0,1922.0,-9.0,-45.0,
1577.0,1980.0,2023.0,1851.0,-9.0,-45.0,
1808.0,2017.0,2063.0,1933.0,-9.0,-46.0,
2235.0,2074.0,2123.0,2117.0,-9.0,-46.0,
2566.0,2114.0,2167.0,2279.0,-9.0,-46.0,
2564.0,2101.0,2154.0,2300.0,-9.0,-47.0,
2246.0,2057.0,2105.0,2185.0,-9.0,-47.0,
1835.0,2008.0,2055.0,2000.0,-10.0,-47.0,
1566.0,1977.0,2014.0,1867.0,-10.0,-48.0,
1654.0,1993.0,2037.0,1878.0,-10.0,-48.0,
2024.0,2046.0,2094.0,2030.0,-10.0,-47.0,
2432.0,2095.0,2149.0,2222.0,-10.0,-46.0,
2610.0,2115.0,2169.0,2312.0,-10.0,-47.0,
2427.0,2085.0,2135.0,2254.0,-10.0,-47.0,
2022.0,2027.0,2075.0,2083.0,-10.0,-47.0,
1650.0,1982.0,2023.0,1911.0,-10.0,-47.0,
1579.0,1980.0,2023.0,1857.0,-10.0,-47.0,
1834.0,2021.0,2065.0,1947.0,-10.0,-47.0,
2251.0,2077.0,2126.0,2130.0,-10.0,-47.0,
2574.0,2115.0,2167.0,2282.0,-10.0,-46.0,
2552.0,2106.0,2158.0,2299.0,-10.0,-46.0,
2210.0,2053.0,2101.0,2168.0,-10.0,-46.0,
1798.0,1998.0,2043.0,1977.0,-10.0,-46.0,
1567.0,1975.0,2015.0,1854.0,-10.0,-46.0,
1692.0,2002.0,2041.0,1890.0,-11.0,-45.0,
2070.0,2053.0,2100.0,2044.0,-11.0,-45.0,
2462.0,2101.0,2149.0,2227.0,-11.0,-45.0,
2599.0,2112.0,2164.0,2310.0,-11.0,-45.0,
2391.0,2077.0,2140.0,2248.0,-11.0,-44.0,
1988.0,2027.0,2072.0,2065.0,-11.0,-44.0,
1625.0,1979.0,2020.0,1890.0,-11.0,-44.0,
1593.0,1983.0,2025.0,1858.0,-11.0,-44.0,
1871.0,2023.0,2070.0,1959.0,-11.0,-44.0,
2285.0,2083.0,2132.0,2147.0,-11.0,-44.0,
2596.0,2115.0,2168.0,2290.0,-11.0,-44.0,
2533.0,2099.0,2152.0,2291.0,-11.0,-44.0,
2186.0,2049.0,2095.0,2153.0,-11.0,-45.0,
1778.0,1999.0,2041.0,1970.0,-11.0,-45.0,
1564.0,1973.0,2018.0,1857.0,-11.0,-46.0,
1701.0,2002.0,2045.0,1893.0,-11.0,-46.0,
2087.0,2057.0,2102.0,2059.0,-11.0,-47.0,
2490.0,2109.0,2160.0,2238.0,-12.0,-47.0,
2594.0,2110.0,2167.0,2312.0,-12.0,-48.0,
2362.0,2072.0,2132.0,2232.0,-12.0,-49.0,
1954.0,2021.0,2061.0,2050.0,-12.0,-50.0,
1601.0,1974.0,2026.0,1890.0,-12.0,-50.0,
1597.0,1987.0,2028.0,1859.0,-12.0,-51.0,
1893.0,2033.0,2076.0,1977.0,-12.0,-51.0,
2325.0,2084.0,2133.0,2161.0,-12.0,-52.0,
2601.0,2114.0,2169.0,2302.0,-12.0,-53.0,
2520.0,2100.0,2148.0,2286.0,-12.0,-49.0,
2150.0,2044.0,2092.0,2140.0,-12.0,0,
1741.0,1990.0,2033.0,1954.0,-12.0,-50.0,
1563.0,1978.0,2016.0,1853.0,-12.0,-51.0,
1726.0,2006.0,2052.0,1906.0,-12.0,-51.0,
2128.0,2059.0,2109.0,2074.0,-13.0,-51.0,
2514.0,2107.0,2161.0,2252.0,-13.0,-51.0,
2588.0,2107.0,2161.0,2306.0,-13.0,-51.0,
2344.0,2073.0,2120.0,2217.0,-13.0,-51.0,
1912.0,2013.0,2057.0,2032.0,-13.0,-50.0,
1587.0,1975.0,2017.0,1878.0,-13.0,-50.0,
1610.0,1984.0,2027.0,1866.0,-13.0,-50.0,
1945.0,2043.0,2084.0,1993.0,-13.0,-50.0,
2356.0,2087.0,2141.0,2177.0,-13.0,-49.0,
2611.0,2114.0,2168.0,2302.0,-13.0,-49.0,
2502.0,2089.0,2144.0,2280.0,-13.0,-49.0,
2115.0,2039.0,2097.0,2130.0,-13.0,-48.0,
1710.0,1991.0,2033.0,1942.0,-13.0,-49.0,
1565.0,1977.0,2020.0,1853.0,-13.0,-48.0,
1765.0,2008.0,2055.0,1918.0,-13.0,-48.0,
2177.0,2065.0,2111.0,2098.0,-13.0,-48.0,
2544.0,2113.0,2164.0,2263.0,-13.0,-52.0,
2575.0,2110.0,2157.0,2307.0,-13.0,-51.0,
2298.0,2065.0,2112.0,2203.0,-13.0,-51.0,
1868.0,2006.0,2052.0,2017.0,-13.0,-51.0,
1579.0,1976.0,2016.0,1868.0,-13.0,-51.0,
1630.0,1992.0,2032.0,1870.0,-13.0,-52.0,
1972.0,2042.0,2087.0,2006.0,-13.0,-52.0,
2384.0,2097.0,2143.0,2195.0,-13.0,-52.0,
2612.0,2119.0,2170.0,2310.0,-13.0,-53.0,
2472.0,2087.0,2140.0,2270.0,-13.0,-53.0,
2073.0,2033.0,2081.0,2103.0,-13.0,-53.0,
1687.0,1987.0,2027.0,1926.0,-13.0,-54.0,
1575.0,1987.0,2024.0,1857.0,-13.0,-54.0,
1794.0,2041.0,2059.0,1930.0,-13.0,-55.0,
2211.0,2070.0,2118.0,2110.0,-13.0,-55.0,
2564.0,2112.0,2165.0,2269.0,-13.0,-56.0,
2565.0,2104.0,2157.0,2308.0,-13.0,-56.0,
2268.0,2061.0,2112.0,2191.0,-13.0,-57.0,
1841.0,2001.0,2049.0,2002.0,-13.0,-57.0,
1566.0,1975.0,2019.0,1865.0,-13.0,-57.0,
1638.0,1993.0,2034.0,1873.0,-13.0,-57.0,
2005.0,2042.0,2091.0,2024.0,-13.0,-57.0,
2414.0,2096.0,2147.0,2204.0,-13.0,-57.0,
2607.0,2114.0,2166.0,2308.0,-13.0,-57.0,
2441.0,2085.0,2137.0,2260.0,-13.0,-57.0,
2057.0,2031.0,2079.0,2093.0,-13.0,-56.0,
1665.0,1984.0,2023.0,1919.0,-13.0,-56.0,
1581.0,1981.0,2023.0,1855.0,-13.0,-56.0,
1823.0,2015.0,2062.0,1937.0,-13.0,-55.0,
2236.0,2076.0,2131.0,2125.0,-14.0,-55.0,
2572.0,2116.0,2167.0,2281.0,-14.0,-54.0,
2554.0,2103.0,2155.0,2301.0,-14.0,-53.0,
2241.0,2058.0,2102.0,2180.0,-14.0,-52.0,
1820.0,2000.0,2043.0,1992.0,-14.0,-52.0,
1571.0,1972.0,2015.0,1864.0,0,0,
1669.0,1994.0,2040.0,1880.0,-14.0,-51.0,
2039.0,2047.0,2095.0,2032.0,-14.0,-50.0,
2444.0,2098.0,2151.0,2215.0,-14.0,-50.0,
2602.0,2114.0,2169.0,2315.0,-14.0,-50.0,
2426.0,2083.0,2132.0,2254.0,-14.0,-49.0,
2019.0,2030.0,2067.0,2077.0,-14.0,-49.0,
1637.0,1979.0,2024.0,1908.0,-14.0,-49.0,
1586.0,1990.0,2028.0,1857.0,-14.0,-49.0,
1848.0,2022.0,2067.0,1950.0,-14.0,-49.0,
2251.0,2077.0,2128.0,2132.0,-13.0,-49.0,
2578.0,2116.0,2169.0,2287.0,-14.0,-49.0,
2530.0,2100.0,2155.0,2307.0,-13.0,-49.0,
2208.0,2053.0,2102.0,2167.0,-14.0,-49.0,
1797.0,1998.0,2042.0,1979.0,-14.0,-50.0,
1563.0,1973.0,2014.0,1857.0,-14.0,-50.0,
1685.0,1996.0,2040.0,1887.0,-14.0,0,
2069.0,2053.0,2102.0,2049.0,-13.0,-50.0,
2453.0,2102.0,2155.0,2228.0,-13.0,-50.0,
2595.0,2112.0,2162.0,2312.0,-14.0,-50.0,
2397.0,2077.0,2126.0,2240.0,-13.0,-51.0,
1986.0,2022.0,2068.0,2069.0,-13.0,-51.0,
1626.0,1979.0,2020.0,1898.0,-13.0,-51.0,
1596.0,1982.0,2026.0,1855.0,-13.0,-51.0,
1879.0,2024.0,2070.0,1962.0,-13.0,-51.0,
2290.0,2090.0,2136.0,2149.0,-13.0,-52.0,
2587.0,2119.0,2169.0,2293.0,-13.0,-52.0,
2520.0,2099.0,2151.0,2290.0,-13.0,-52.0,
2172.0,2046.0,2096.0,2151.0,-13.0,-52.0,
1767.0,1994.0,2044.0,1975.0,-13.0,-51.0,
1570.0,1975.0,2014.0,1857.0,-13.0,-51.0,
1707.0,2002.0,2046.0,1895.0,-13.0,-51.0,
2110.0,2054.0,2103.0,2064.0,-13.0,-51.0,
2486.0,2106.0,2158.0,2238.0,-13.0,-51.0,
2592.0,2113.0,2164.0,2311.0,-13.0,-51.0,
2354.0,2073.0,2119.0,2229.0,-13.0,-51.0,
1942.0,2021.0,2061.0,2045.0,-13.0,-50.0,
1604.0,1972.0,2018.0,1885.0,-13.0,-50.0,
1605.0,1986.0,2031.0,1861.0,-13.0,-49.0,
1916.0,2033.0,2076.0,1979.0,-13.0,-49.0,
2332.0,2085.0,2135.0,2164.0,-13.0,-49.0,
2598.0,2111.0,2170.0,2298.0,-13.0,-49.0,
2523.0,2099.0,2148.0,2288.0,-13.0,-48.0,
2140.0,2043.0,2088.0,2135.0,-14.0,-48.0,
1737.0,1989.0,2035.0,1951.0,0,0,
1563.0,1973.0,2013.0,1852.0,-14.0,-48.0,
1740.0,2015.0,2054.0,1910.0,-14.0,-48.0,
2138.0,2064.0,2108.0,2078.0,-14.0,-48.0,
2519.0,2106.0,2161.0,2256.0,-14.0,-48.0,
2581.0,2106.0,2165.0,2312.0,-14.0,-48.0,
2330.0,2065.0,2122.0,2227.0,-14.0,-49.0,
1908.0,2009.0,2057.0,2031.0,-14.0,-49.0,
1588.0,1976.0,2015.0,1878.0,-14.0,-49.0,
1619.0,1988.0,2031.0,1865.0,-14.0,-49.0,
1948.0,2036.0,2093.0,1993.0,-14.0,-49.0,
2348.0,2090.0,2145.0,2186.0,-14.0,-49.0,
2600.0,2114.0,2169.0,2305.0,-14.0,-50.0,
2490.0,2090.0,2143.0,2279.0,-14.0,-50.0,
2109.0,2032.0,2086.0,2104.0,-14.0,-50.0,
1711.0,1989.0,2034.0,1938.0,-14.0,-50.0,
1569.0,1975.0,2020.0,1852.0,-14.0,-51.0,
1766.0,2011.0,2054.0,1920.0,-14.0,-51.0,
2181.0,2066.0,2116.0,2098.0,-13.0,-51.0,
2541.0,2113.0,2167.0,2267.0,-13.0,-51.0,
2575.0,2105.0,2160.0,2307.0,-13.0,-51.0,
2286.0,2064.0,2113.0,2197.0,-13.0,-51.0,
1866.0,2006.0,2053.0,2010.0,-13.0,-52.0,
1573.0,1983.0,2021.0,1868.0,-13.0,-52.0,
1640.0,1993.0,2035.0,1871.0,-13.0,-52.0,
1989.0,2041.0,2089.0,2009.0,-13.0,-51.0,
2392.0,2094.0,2146.0,2195.0,-13.0,-51.0,
2601.0,2112.0,2167.0,2313.0,-13.0,-51.0,
2466.0,2092.0,2140.0,2269.0,-13.0,-51.0,
2070.0,2035.0,2081.0,2099.0,-13.0,-51.0,
1685.0,1986.0,2026.0,1923.0,-13.0,-51.0,
1579.0,1979.0,2022.0,1852.0,-13.0,-51.0,
1803.0,2020.0,2062.0,1931.0,-13.0,-51.0,
2212.0,2074.0,2120.0,2112.0,-13.0,-51.0,
2557.0,2111.0,2167.0,2275.0,-13.0,-51.0,
2567.0,2100.0,2157.0,2303.0,-13.0,-51.0,
2263.0,2062.0,2112.0,2189.0,-13.0,-51.0,
1843.0,2004.0,2049.0,1998.0,-13.0,-51.0,
1572.0,1974.0,2013.0,1865.0,-13.0,-50.0,
1652.0,1995.0,2036.0,1874.0,-13.0,-50.0,
2025.0,2054.0,2095.0,2028.0,-13.0,-50.0,
2426.0,2097.0,2150.0,2213.0,-13.0,-50.0,
2605.0,2113.0,2169.0,2312.0,-13.0,-50.0,
2433.0,2080.0,2134.0,2257.0,-14.0,-50.0,
2034.0,2030.0,2079.0,2094.0,-14.0,-50.0,
1659.0,1983.0,2025.0,1910.0,-14.0,-50.0,
1580.0,1978.0,2024.0,1852.0,-14.0,-50.0,
1830.0,2021.0,2064.0,1945.0,-14.0,-50.0,
2244.0,2075.0,2122.0,2125.0,-14.0,-50.0,
2580.0,2116.0,2171.0,2285.0,-14.0,-50.0,
2550.0,2101.0,2154.0,2299.0,-14.0,-51.0,
2222.0,2053.0,2103.0,2172.0,-14.0,-51.0,
1805.0,2001.0,2043.0,1987.0,-14.0,-51.0,
1570.0,1975.0,2017.0,1863.0,-14.0,-51.0,
1673.0,1997.0,2043.0,1884.0,-14.0,-52.0,
2056.0,2051.0,2099.0,2037.0,-14.0,-52.0,
2448.0,2102.0,2155.0,2222.0,-14.0,-52.0,
2606.0,2116.0,2168.0,2312.0,-14.0,-52.0,
2407.0,2080.0,2135.0,2247.0,-14.0,-53.0,
1994.0,2023.0,2071.0,2068.0,-14.0,-53.0,
1622.0,1978.0,2021.0,1902.0,-14.0,-53.0,
1591.0,1983.0,2029.0,1861.0,-14.0,-54.0,
1861.0,2026.0,2072.0,1959.0,-14.0,-54.0,
2283.0,2076.0,2130.0,2143.0,-14.0,-54.0,
2595.0,2115.0,2168.0,2293.0,-14.0,-54.0,
2538.0,2098.0,2149.0,2296.0,-14.0,-55.0,
2189.0,2048.0,2099.0,2162.0,-14.0,-55.0,
1779.0,1995.0,2043.0,1972.0,-14.0,-55.0,
1557.0,1973.0,2012.0,1854.0,-13.0,-55.0,
1690.0,2001.0,2043.0,1888.0,-13.0,-54.0,
2089.0,2056.0,2104.0,2057.0,-13.0,-54.0,
2478.0,2107.0,2153.0,2234.0,-13.0,-54.0,
2596.0,2108.0,2163.0,2310.0,-14.0,-54.0,
2381.0,2075.0,2126.0,2235.0,-13.0,-53.0,
1972.0,2025.0,2068.0,2054.0,-13.0,-52.0,
1608.0,1979.0,2020.0,1889.0,-13.0,-52.0,
1594.0,1986.0,2025.0,1854.0,-14.0,-51.0,
1896.0,2028.0,2076.0,1971.0,-13.0,-50.0,
2318.0,2087.0,2145.0,2163.0,-13.0,-49.0,
2608.0,2118.0,2169.0,2296.0,-13.0,-48.0,
2527.0,2100.0,2149.0,2287.0,-13.0,-47.0,
2158.0,2044.0,2092.0,2142.0,-13.0,-46.0,
1751.0,2009.0,2037.0,1956.0,-13.0,-45.0,
1560.0,1980.0,2017.0,1854.0,-13.0,-45.0,
1705.0,2007.0,2048.0,1900.0,-13.0,-44.0,
2114.0,2059.0,2108.0,2065.0,-13.0,-43.0,
2501.0,2106.0,2160.0,2242.0,-13.0,-43.0,
2602.0,2115.0,2163.0,2309.0,-13.0,-42.0,
2359.0,2071.0,2125.0,2228.0,-13.0,-42.0,
1943.0,2020.0,2063.0,2045.0,-13.0,-42.0,
1601.0,1979.0,2019.0,1885.0,-13.0,-42.0,
1603.0,1983.0,2033.0,1866.0,-13.0,-42.0,
1912.0,2032.0,2079.0,1978.0,-13.0,-42.0,
2328.0,2086.0,2135.0,2166.0,-13.0,-42.0,
2606.0,2113.0,2172.0,2296.0,-13.0,-42.0,
2524.0,2095.0,2150.0,2284.0,-13.0,-43.0,
2155.0,2049.0,2093.0,2140.0,-13.0,-43.0,
1745.0,1997.0,2034.0,1956.0,-13.0,-44.0,
1563.0,1977.0,2017.0,1852.0,-13.0,-44.0,
1727.0,2005.0,2048.0,1901.0,-13.0,-45.0,
2125.0,2069.0,2112.0,2072.0,-13.0,-45.0,
2506.0,2110.0,2163.0,2246.0,-13.0,-46.0,
2590.0,2112.0,2164.0,2309.0,-13.0,-47.0,
2346.0,2068.0,2121.0,2221.0,-13.0,-47.0,
1932.0,2016.0,2063.0,2043.0,-13.0,-48.0,
1599.0,1977.0,2020.0,1877.0,-13.0,-48.0,
1614.0,1986.0,2031.0,1860.0,-13.0,-49.0,
1932.0,2034.0,2079.0,1984.0,-13.0,-49.0,
2343.0,2088.0,2139.0,2170.0,-13.0,-49.0,
2600.0,2119.0,2169.0,2303.0,-13.0,-50.0,
2500.0,2094.0,2145.0,2282.0,-13.0,-50.0,
2120.0,2040.0,2089.0,2126.0,-13.0,-50.0,
1720.0,1986.0,2033.0,1942.0,-13.0,-51.0,
1568.0,1977.0,2021.0,1853.0,-13.0,-51.0,
1764.0,2011.0,2055.0,1911.0,-13.0,-51.0,
2162.0,2065.0,2111.0,2087.0,-13.0,-51.0,
2536.0,2111.0,2163.0,2257.0,-13.0,-51.0,
2586.0,2110.0,2162.0,2309.0,-12.0,-50.0,
2308.0,2068.0,2114.0,2206.0,-12.0,-50.0,
1888.0,2007.0,2053.0,2016.0,-12.0,-50.0,
1580.0,1974.0,2016.0,1870.0,-12.0,-49.0,
1653.0,1996.0,2036.0,1869.0,-12.0,-48.0,
1977.0,2045.0,2088.0,2006.0,-12.0,-48.0,
2387.0,2094.0,2143.0,2195.0,-12.0,-47.0,
2605.0,2116.0,2169.0,2306.0,-12.0,-46.0,
2462.0,2090.0,2148.0,2273.0,0,0,
2071.0,2035.0,2081.0,2106.0,-12.0,-44.0,
1688.0,1987.0,2027.0,1927.0,-12.0,-43.0,
1574.0,1978.0,2018.0,1853.0,-11.0,-42.0,
1788.0,2013.0,2055.0,1926.0,-11.0,-41.0,
2204.0,2072.0,2119.0,2108.0,-11.0,-39.0,
2546.0,2116.0,2167.0,2272.0,-11.0,-38.0,
2563.0,2106.0,2155.0,2304.0,-11.0,-37.0,
2274.0,2060.0,2109.0,2193.0,-11.0,-36.0,
1860.0,2008.0,2051.0,2010.0,-11.0,-34.0,
1572.0,1972.0,2016.0,1866.0,-11.0,-33.0,
1646.0,1992.0,2031.0,1871.0,-11.0,-32.0,
1999.0,2044.0,2090.0,2015.0,-10.0,-31.0,
2405.0,2092.0,2154.0,2205.0,-10.0,-30.0,
2604.0,2117.0,2173.0,2308.0,-10.0,-30.0,
2456.0,2086.0,2137.0,2264.0,-10.0,-29.0,
2051.0,2031.0,2078.0,2097.0,-10.0,-29.0,
1668.0,1984.0,2024.0,1921.0,-10.0,-29.0,
1578.0,1981.0,2022.0,1854.0,-10.0,-29.0,
1810.0,2017.0,2060.0,1930.0,-10.0,-28.0,
2219.0,2070.0,2119.0,2111.0,-10.0,-29.0,
2569.0,2115.0,2166.0,2276.0,-9.0,-29.0,
2573.0,2109.0,2160.0,2306.0,-9.0,-29.0,
2261.0,2058.0,2109.0,2187.0,-9.0,-29.0,
1844.0,2004.0,2048.0,1998.0,-9.0,-30.0,
1573.0,1974.0,2012.0,1864.0,-9.0,-30.0,
1653.0,1991.0,2033.0,1878.0,-9.0,-31.0,
2017.0,2046.0,2090.0,2020.0,-9.0,-31.0,
2412.0,2097.0,2146.0,2204.0,-9.0,-32.0,
2617.0,2113.0,2164.0,2311.0,-9.0,-32.0,
2445.0,2083.0,2134.0,2261.0,-9.0,-33.0,
2054.0,2034.0,2082.0,2100.0,-9.0,-34.0,
1674.0,1982.0,2025.0,1921.0,-9.0,-34.0,
1582.0,1979.0,2022.0,1850.0,-8.0,-35.0,
1812.0,2017.0,2057.0,1932.0,-8.0,-35.0,
2226.0,2072.0,2120.0,2120.0,-8.0,-35.0,
2565.0,2116.0,2167.0,2277.0,-8.0,-35.0,
2565.0,2108.0,2156.0,2300.0,-8.0,-36.0,
2254.0,2056.0,2109.0,2186.0,-8.0,-36.0,
1837.0,2006.0,2048.0,1998.0,-8.0,-36.0,
1574.0,1976.0,2017.0,1865.0,-8.0,-36.0,
1650.0,1996.0,2035.0,1874.0,-8.0,-35.0,
2012.0,2045.0,2090.0,2019.0,-7.0,-35.0,
2416.0,2098.0,2144.0,2205.0,-7.0,-35.0,
2601.0,2117.0,2167.0,2315.0,-7.0,-34.0,
2452.0,2088.0,2139.0,2263.0,-7.0,-33.0,
2060.0,2032.0,2078.0,2098.0,-7.0,-33.0,
1672.0,1984.0,2025.0,1919.0,-7.0,-32.0,
1579.0,1982.0,2024.0,1851.0,-6.0,-31.0,
1801.0,2018.0,2063.0,1936.0,-6.0,-30.0,
2219.0,2075.0,2123.0,2113.0,-6.0,-29.0,
2559.0,2113.0,2165.0,2274.0,-6.0,-28.0,
2564.0,2106.0,2157.0,2302.0,-6.0,-27.0,
2257.0,2059.0,2115.0,2196.0,-5.0,-26.0,
1843.0,2007.0,2047.0,2004.0,-5.0,-25.0,
1571.0,1975.0,2016.0,1866.0,-5.0,-24.0,
1649.0,1994.0,2035.0,1871.0,-5.0,-23.0,
2008.0,2044.0,2093.0,2023.0,-5.0,-21.0,
2419.0,2097.0,2151.0,2207.0,-4.0,-20.0,
2611.0,2113.0,2170.0,2314.0,-4.0,-18.0,
2456.0,2086.0,2141.0,2267.0,-4.0,-17.0,
2075.0,2033.0,2084.0,2104.0,-4.0,-16.0,
1695.0,1987.0,2028.0,1933.0,-4.0,-15.0,
1568.0,1982.0,2030.0,1854.0,-3.0,-14.0,
1766.0,2010.0,2058.0,1914.0,-3.0,-13.0,
2156.0,2062.0,2111.0,2084.0,-3.0,-12.0,
2509.0,2110.0,2160.0,2250.0,-3.0,-11.0,
2583.0,2107.0,2180.0,2307.0,-3.0,-9.0,
2353.0,2071.0,2123.0,2226.0,-2.0,-9.0,
1955.0,2019.0,2067.0,2060.0,-2.0,-8.0,
1618.0,1978.0,2023.0,1894.0,-2.0,-7.0,
1597.0,1982.0,2027.0,1855.0,-2.0,-6.0,
1867.0,2023.0,2072.0,1955.0,-2.0,-7.0,
2281.0,2079.0,2127.0,2137.0,-1.0,-6.0,
2571.0,2113.0,2166.0,2286.0,-1.0,-5.0,
2547.0,2103.0,2155.0,2298.0,-1.0,-4.0,
2250.0,2059.0,2109.0,2183.0,-1.0,-4.0,
1842.0,2006.0,2051.0,2003.0,-1.0,-5.0,
1577.0,1979.0,2018.0,1869.0,0.0,-5.0,
1641.0,1990.0,2035.0,1869.0,0.0,-5.0,
1982.0,2036.0,2088.0,2003.0,0.0,-4.0,
2372.0,2090.0,2140.0,2186.0,0.0,-4.0,
2605.0,2117.0,2169.0,2305.0,0.0,-4.0,
2492.0,2098.0,2149.0,2282.0,0.0,-4.0,
2127.0,2042.0,2092.0,2131.0,0.0,-3.0,
1746.0,1987.0,2035.0,1951.0,0.0,-3.0,
1570.0,1973.0,2016.0,1854.0,0.0,-4.0,
1713.0,1998.0,2045.0,1895.0,1.0,-4.0,
2097.0,2060.0,2105.0,2057.0,1.0,-3.0,
2469.0,2104.0,2154.0,2229.0,1.0,-3.0,
2596.0,2113.0,2164.0,2307.0,1.0,-3.0,
2409.0,2089.0,2130.0,2248.0,1.0,-2.0,
2011.0,2026.0,2071.0,2080.0,1.0,-1.0,
1654.0,1980.0,2022.0,1910.0,2.0,-1.0,
1576.0,1982.0,2030.0,1856.0,2.0,-1.0,
1810.0,2017.0,2061.0,1931.0,2.0,0.0,
2210.0,2071.0,2119.0,2107.0,2.0,0.0,
2550.0,2111.0,2165.0,2266.0,2.0,2.0,
2574.0,2105.0,2159.0,2306.0,3.0,3.0,
2311.0,2064.0,2114.0,2204.0,3.0,3.0,
1896.0,2010.0,2065.0,2030.0,3.0,4.0,
1591.0,1976.0,2020.0,1879.0,4.0,5.0,
1613.0,1986.0,2029.0,1860.0,4.0,6.0,
1923.0,2031.0,2079.0,1975.0,4.0,7.0,
2322.0,2083.0,2133.0,2161.0,4.0,8.0,
2600.0,2115.0,2167.0,2293.0,4.0,8.0,
2527.0,2100.0,2152.0,2300.0,4.0,10.0,
2197.0,2051.0,2100.0,2158.0,5.0,12.0,
1793.0,2001.0,2044.0,1977.0,5.0,12.0,
1561.0,1975.0,2016.0,1858.0,5.0,13.0,
1657.0,1993.0,2039.0,1879.0,5.0,14.0,
2033.0,2048.0,2096.0,2029.0,6.0,14.0,
2422.0,2096.0,2147.0,2205.0,6.0,15.0,
2616.0,2120.0,2169.0,2310.0,6.0,15.0,
2463.0,2087.0,2139.0,2267.0,6.0,16.0,
2078.0,2035.0,2083.0,2106.0,7.0,17.0,
1704.0,1987.0,2028.0,1931.0,7.0,17.0,
1564.0,1976.0,2017.0,1850.0,7.0,18.0,
1743.0,2008.0,2052.0,1910.0,7.0,19.0,
2149.0,2066.0,2114.0,2082.0,8.0,19.0,
2506.0,2111.0,2162.0,2250.0,8.0,19.0,
2588.0,2108.0,2162.0,2308.0,8.0,19.0,
2369.0,2071.0,2122.0,2230.0,8.0,19.0,
1967.0,2022.0,2065.0,2053.0,0,0,
1628.0,1979.0,2020.0,1893.0,8.0,20.0,
1588.0,1985.0,2034.0,1859.0,9.0,21.0,
1850.0,2025.0,2069.0,1953.0,9.0,21.0,
2262.0,2077.0,2126.0,2131.0,9.0,21.0,
2578.0,2115.0,2168.0,2280.0,9.0,21.0,
2555.0,2100.0,2153.0,2299.0,9.0,20.0,
2262.0,2056.0,2107.0,2185.0,10.0,20.0,
1849.0,2004.0,2055.0,2012.0,10.0,18.0,
1573.0,1977.0,2020.0,1867.0,10.0,19.0,
1629.0,1991.0,2032.0,1869.0,10.0,20.0,
1973.0,2040.0,2087.0,1998.0,10.0,21.0,
2373.0,2088.0,2141.0,2184.0,10.0,21.0,
2600.0,2112.0,2170.0,2302.0,11.0,21.0,
2500.0,2092.0,2150.0,2292.0,11.0,21.0,
2136.0,2044.0,2090.0,2133.0,11.0,21.0,
1743.0,1995.0,2038.0,1957.0,11.0,21.0,
1567.0,1972.0,2018.0,1854.0,11.0,18.0,
1705.0,2001.0,2047.0,1895.0,12.0,19.0,
2089.0,2053.0,2104.0,2055.0,12.0,20.0,
2467.0,2102.0,2157.0,2242.0,12.0,20.0,
2598.0,2112.0,2169.0,2307.0,12.0,20.0,
2415.0,2082.0,2129.0,2248.0,12.0,20.0,
2013.0,2026.0,2075.0,2079.0,12.0,20.0,
1648.0,1980.0,2020.0,1909.0,13.0,20.0,
1588.0,1981.0,2020.0,1852.0,13.0,19.0,
1814.0,2017.0,2061.0,1937.0,13.0,18.0,
2216.0,2069.0,2118.0,2112.0,13.0,20.0,
2555.0,2110.0,2167.0,2271.0,13.0,23.0,
2570.0,2104.0,2156.0,2306.0,13.0,23.0,
2305.0,2063.0,2114.0,2204.0,13.0,23.0,
1893.0,2012.0,2055.0,2025.0,14.0,23.0,
1583.0,1973.0,2017.0,1881.0,14.0,23.0,
1618.0,1994.0,2033.0,1864.0,14.0,23.0,
1935.0,2037.0,2077.0,1982.0,14.0,22.0,
2332.0,2087.0,2137.0,2163.0,14.0,22.0,
2601.0,2112.0,2168.0,2297.0,14.0,22.0,
2519.0,2098.0,2151.0,2290.0,14.0,28.0,
2163.0,2052.0,2100.0,2151.0,15.0,28.0,
1762.0,1992.0,2038.0,1961.0,15.0,28.0,
1559.0,1971.0,2017.0,1854.0,15.0,28.0,
1698.0,1999.0,2043.0,1891.0,15.0,28.0,
2074.0,2050.0,2098.0,2045.0,15.0,28.0,
2451.0,2099.0,2154.0,2219.0,15.0,28.0,
2609.0,2116.0,2168.0,2312.0,16.0,27.0,
2427.0,2087.0,2134.0,2258.0,16.0,26.0,
2018.0,2025.0,2075.0,2085.0,16.0,29.0,
1650.0,1979.0,2024.0,1910.0,16.0,29.0,
1592.0,1981.0,2023.0,1853.0,16.0,30.0,
1851.0,2019.0,2065.0,1949.0,16.0,30.0,
2251.0,2077.0,2125.0,2131.0,17.0,29.0,
2571.0,2111.0,2166.0,2284.0,17.0,29.0,
2542.0,2102.0,2154.0,2300.0,17.0,29.0,
2234.0,2057.0,2106.0,2177.0,17.0,29.0,
1814.0,2000.0,2047.0,1988.0,17.0,29.0,
1567.0,1975.0,2013.0,1859.0,18.0,29.0,
1683.0,1994.0,2039.0,1880.0,18.0,28.0,
2053.0,2048.0,2102.0,2045.0,18.0,29.0,
2449.0,2101.0,2152.0,2220.0,18.0,29.0,
2604.0,2110.0,2166.0,2312.0,18.0,28.0,
2432.0,2082.0,2132.0,2259.0,18.0,28.0,
2044.0,2026.0,2075.0,2091.0,18.0,28.0,
1677.0,1981.0,2026.0,1920.0,18.0,28.0,
1581.0,1985.0,2023.0,1853.0,19.0,28.0,
1799.0,2013.0,2060.0,1929.0,19.0,31.0,
2209.0,2069.0,2119.0,2109.0,19.0,30.0,
2544.0,2115.0,2165.0,2273.0,0,0,
2544.0,2105.0,2156.0,2317.0,19.0,30.0,
2266.0,2062.0,2110.0,2192.0,19.0,31.0,
1851.0,2005.0,2048.0,2003.0,19.0,31.0,
1572.0,1970.0,2012.0,1865.0,19.0,32.0,
1640.0,1987.0,2033.0,1874.0,20.0,32.0,
2007.0,2045.0,2091.0,2019.0,20.0,32.0,
2410.0,2095.0,2147.0,2205.0,20.0,32.0,
2595.0,2118.0,2166.0,2307.0,20.0,33.0,
2439.0,2085.0,2135.0,2263.0,20.0,34.0,
2053.0,2032.0,2078.0,2098.0,20.0,36.0,
1672.0,1984.0,2025.0,1917.0,20.0,34.0,
1591.0,1971.0,2019.0,1852.0,20.0,34.0,
1827.0,2017.0,2061.0,1937.0,20.0,34.0,
2225.0,2073.0,2127.0,2129.0,21.0,31.0,
2563.0,2115.0,2167.0,2279.0,21.0,33.0,
2542.0,2103.0,2154.0,2301.0,21.0,33.0,
2235.0,2055.0,2104.0,2181.0,21.0,34.0,
1832.0,2001.0,2045.0,1994.0,21.0,34.0,
1579.0,1973.0,2018.0,1865.0,21.0,34.0,
1663.0,1993.0,2037.0,1874.0,21.0,35.0,
2025.0,2045.0,2091.0,2025.0,22.0,35.0,
2428.0,2098.0,2147.0,2208.0,22.0,34.0,
2597.0,2124.0,2169.0,2316.0,22.0,33.0,
2432.0,2085.0,2137.0,2258.0,22.0,33.0,
2029.0,2027.0,2076.0,2086.0,22.0,33.0,
1665.0,1980.0,2027.0,1912.0,23.0,32.0,
1594.0,1979.0,2022.0,1853.0,23.0,32.0,
1837.0,2020.0,2062.0,1943.0,23.0,34.0,
2242.0,2075.0,2125.0,2124.0,23.0,33.0,
2565.0,2113.0,2166.0,2280.0,23.0,33.0,
2554.0,2100.0,2156.0,2300.0,23.0,34.0,
2244.0,2053.0,2106.0,2180.0,23.0,34.0,
1827.0,1999.0,2046.0,1990.0,24.0,37.0,
1576.0,1972.0,2019.0,1860.0,24.0,36.0,
1669.0,1996.0,2038.0,1877.0,0,0,
2037.0,2043.0,2102.0,2036.0,24.0,35.0,
2437.0,2100.0,2152.0,2214.0,24.0,35.0,
2597.0,2116.0,2167.0,2308.0,24.0,36.0,
2414.0,2082.0,2132.0,2252.0,25.0,36.0,
2010.0,2024.0,2075.0,2076.0,25.0,36.0,
1647.0,1983.0,2024.0,1907.0,25.0,36.0,
1592.0,1978.0,2022.0,1851.0,25.0,36.0,
1839.0,2021.0,2067.0,1945.0,25.0,36.0,
2257.0,2076.0,2124.0,2127.0,25.0,36.0,
2587.0,2117.0,2170.0,2284.0,25.0,36.0,
2542.0,2104.0,2154.0,2299.0,25.0,38.0,
2210.0,2053.0,2104.0,2173.0,25.0,38.0,
1813.0,1998.0,2044.0,1985.0,25.0,37.0,
1567.0,1970.0,2016.0,1864.0,26.0,36.0,
1672.0,1993.0,2042.0,1881.0,26.0,36.0,
2053.0,2050.0,2096.0,2036.0,26.0,37.0,
2448.0,2099.0,2150.0,2221.0,26.0,37.0,
2590.0,2110.0,2163.0,2312.0,26.0,37.0,
2399.0,2084.0,2132.0,2251.0,26.0,37.0,
1998.0,2025.0,2074.0,2074.0,26.0,37.0,
1640.0,1977.0,2022.0,1903.0,26.0,37.0,
1597.0,1976.0,2025.0,1853.0,26.0,38.0,
1858.0,2030.0,2074.0,1954.0,26.0,38.0,
2265.0,2077.0,2129.0,2137.0,26.0,38.0,
2577.0,2116.0,2166.0,2287.0,26.0,38.0,
2522.0,2101.0,2151.0,2299.0,27.0,38.0,
2203.0,2054.0,2099.0,2165.0,27.0,39.0,
1803.0,1998.0,2045.0,1980.0,27.0,39.0,
1576.0,1972.0,2016.0,1857.0,27.0,39.0,
1688.0,1998.0,2038.0,1884.0,27.0,39.0,
2075.0,2050.0,2097.0,2039.0,27.0,39.0,
2449.0,2108.0,2157.0,2224.0,27.0,39.0,
2586.0,2115.0,2164.0,2313.0,27.0,39.0,
2390.0,2078.0,2133.0,2250.0,27.0,39.0,
1993.0,2023.0,2072.0,2070.0,27.0,40.0,
1645.0,1977.0,2022.0,1914.0,27.0,40.0,
1601.0,1980.0,2027.0,1853.0,27.0,40.0,
1867.0,2024.0,2069.0,1952.0,27.0,40.0,
2266.0,2076.0,2128.0,2139.0,28.0,40.0,
2571.0,2115.0,2167.0,2284.0,28.0,41.0,
2534.0,2102.0,2158.0,2298.0,28.0,40.0,
2203.0,2047.0,2101.0,2167.0,28.0,39.0,
1796.0,2000.0,2045.0,1979.0,28.0,39.0,
1574.0,1975.0,2018.0,1857.0,28.0,39.0,
1691.0,1997.0,2041.0,1889.0,28.0,40.0,
2067.0,2032.0,2101.0,2043.0,28.0,39.0,
2444.0,2102.0,2154.0,2221.0,28.0,40.0,
2595.0,2109.0,2166.0,2312.0,28.0,39.0,
2394.0,2081.0,2131.0,2247.0,28.0,39.0,
2001.0,2026.0,2075.0,2076.0,29.0,39.0,
1639.0,1981.0,2023.0,1903.0,29.0,39.0,
1590.0,1983.0,2023.0,1854.0,29.0,39.0,
1863.0,2021.0,2071.0,1953.0,29.0,0,
2273.0,2080.0,2138.0,2141.0,29.0,39.0,
2582.0,2117.0,2170.0,2288.0,29.0,39.0,
2534.0,2102.0,2151.0,2298.0,29.0,39.0,
2190.0,2048.0,2099.0,2166.0,29.0,39.0,
1791.0,2000.0,2044.0,1978.0,29.0,39.0,
1564.0,1975.0,2019.0,1859.0,29.0,39.0,
1682.0,1998.0,2043.0,1883.0,29.0,39.0,
2065.0,2049.0,2098.0,2044.0,29.0,39.0,
2456.0,2100.0,2155.0,2225.0,29.0,39.0,
2588.0,2121.0,2169.0,2314.0,30.0,39.0,
2399.0,2082.0,2130.0,2250.0,30.0,39.0,
1992.0,2024.0,2073.0,2072.0,30.0,39.0,
1638.0,1979.0,2023.0,1905.0,30.0,40.0,
1593.0,1984.0,2024.0,1854.0,30.0,40.0,
1862.0,2026.0,2071.0,1957.0,30.0,39.0,
2272.0,2081.0,2130.0,2138.0,30.0,40.0,
2577.0,2117.0,2168.0,2289.0,30.0,40.0,
2534.0,2101.0,2154.0,2296.0,30.0,41.0,
2206.0,2053.0,2103.0,2165.0,30.0,41.0,
1790.0,2001.0,2045.0,1978.0,30.0,41.0,
1560.0,1976.0,2014.0,1856.0,30.0,41.0,
1690.0,2003.0,2040.0,1882.0,30.0,41.0,
2072.0,2053.0,2096.0,2044.0,30.0,41.0,
2458.0,2104.0,2154.0,2226.0,30.0,41.0,
2595.0,2112.0,2164.0,2311.0,30.0,41.0,
2398.0,2078.0,2129.0,2247.0,30.0,41.0,
1991.0,2027.0,2068.0,2070.0,30.0,41.0,
1646.0,1984.0,2027.0,1903.0,30.0,41.0,
1591.0,1984.0,2025.0,1854.0,30.0,41.0,
1858.0,2023.0,2070.0,1952.0,30.0,41.0,
2274.0,2077.0,2128.0,2135.0,30.0,41.0,
2578.0,2115.0,2165.0,2285.0,30.0,41.0,
2541.0,2104.0,2154.0,2298.0,30.0,41.0,
2212.0,2055.0,2100.0,2167.0,30.0,41.0,
1800.0,2000.0,2045.0,1982.0,30.0,42.0,
1567.0,1973.0,2015.0,1856.0,30.0,42.0,
1676.0,2002.0,2044.0,1886.0,30.0,42.0,
2058.0,2052.0,2098.0,2040.0,30.0,42.0,
2451.0,2100.0,2154.0,2222.0,30.0,42.0,
2598.0,2111.0,2166.0,2308.0,30.0,42.0,
2407.0,2083.0,2130.0,2247.0,31.0,42.0,
2000.0,2026.0,2069.0,2076.0,31.0,42.0,
1640.0,1981.0,2020.0,1903.0,31.0,42.0,
1587.0,1979.0,2024.0,1852.0,31.0,42.0,
1856.0,2025.0,2069.0,1951.0,31.0,42.0,
2284.0,2080.0,2133.0,2137.0,31.0,42.0,
2589.0,2114.0,2168.0,2287.0,31.0,42.0,
2543.0,2102.0,2153.0,2298.0,31.0,42.0,
2205.0,2051.0,2101.0,2168.0,31.0,42.0,
1786.0,1999.0,2044.0,1986.0,31.0,42.0,
1560.0,1976.0,2018.0,1860.0,31.0,42.0,
1673.0,1996.0,2043.0,1882.0,0,0,
2058.0,2049.0,2096.0,2038.0,31.0,42.0,
2460.0,2102.0,2151.0,2225.0,31.0,42.0,
2616.0,2118.0,2167.0,2314.0,31.0,42.0,
2418.0,2084.0,2133.0,2250.0,31.0,42.0,
1999.0,2027.0,2074.0,2076.0,31.0,42.0,
1629.0,1979.0,2022.0,1904.0,31.0,42.0,
1582.0,1980.0,2024.0,1855.0,31.0,42.0,
1849.0,2026.0,2074.0,1949.0,31.0,42.0,
2262.0,2078.0,2128.0,2133.0,31.0,42.0,
2589.0,2115.0,2166.0,2285.0,31.0,42.0,
