2066.0,2077.0,21.0,-9.0,
2081.0,2092.0,21.0,-9.0,
2087.0,2093.0,21.0,-9.0,
2087.0,2099.0,21.0,-9.0,
2081.0,2096.0,21.0,-9.0,
2084.0,2083.0,21.0,-9.0,
2075.0,2074.0,21.0,-9.0,
2070.0,2074.0,21.0,-9.0,
2064.0,2075.0,21.0,-9.0,
2068.0,2073.0,21.0,-9.0,
2066.0,2075.0,21.0,-9.0,
2068.0,2089.0,21.0,-9.0,
2111.0,2081.0,21.0,-9.0,
2064.0,2075.0,0,
2083.0,2082.0,21.0,-9.0,
2074.0,2077.0,21.0,-9.0,
2073.0,2079.0,21.0,-9.0,
2069.0,2081.0,21.0,-9.0,
2065.0,2078.0,21.0,-9.0,
2063.0,2076.0,21.0,-9.0,
2072.0,2077.0,21.0,-9.0,
2066.0,2083.0,21.0,-9.0,
2069.0,2086.0,21.0,-9.0,
2081.0,2086.0,21.0,-9.0,
2073.0,2077.0,21.0,-9.0,
2059.0,2073.0,21.0,-9.0,
2060.0,2068.0,21.0,-9.0,
2068.0,2074.0,21.0,-9.0,
2076.0,2085.0,21.0,-9.0,
2070.0,2088.0,21.0,-9.0,
2082.0,2092.0,21.0,-9.0,
2066.0,2086.0,21.0,-9.0,
2076.0,2082.0,21.0,-9.0,
2075.0,2078.0,21.0,-9.0,
2065.0,2076.0,21.0,-9.0,
2068.0,2083.0,21.0,-9.0,
2072.0,2080.0,21.0,-9.0,
2061.0,2083.0,21.0,-9.0,
2062.0,2091.0,21.0,-9.0,
2069.0,2084.0,21.0,-9.0,
2066.0,2091.0,21.0,-9.0,
2077.0,2080.0,21.0,-9.0,
2085.0,2077.0,21.0,-9.0,
2072.0,2084.0,21.0,-9.0,
2068.0,2079.0,21.0,-9.0,
2066.0,2080.0,21.0,-9.0,
2061.0,2083.0,21.0,-9.0,
2068.0,2082.0,21.0,-9.0,
2069.0,2091.0,21.0,-9.0,
2082.0,2089.0,21.0,-9.0,
2076.0,2088.0,21.0,-9.0,
2073.0,2082.0,21.0,-9.0,
2068.0,2084.0,21.0,-9.0,
2074.0,2080.0,21.0,-9.0,
2070.0,2076.0,21.0,-9.0,
2067.0,2085.0,21.0,-9.0,
2073.0,2092.0,21.0,-9.0,
2079.0,2090.0,21.0,-9.0,
2077.0,2095.0,21.0,-9.0,
2087.0,2085.0,21.0,-9.0,
2072.0,2083.0,21.0,-9.0,
2088.0,2080.0,21.0,-9.0,
2085.0,2087.0,21.0,-9.0,
2073.0,2078.0,21.0,-9.0,
2067.0,2077.0,21.0,-9.0,
2071.0,2080.0,21.0,-9.0,
2077.0,2089.0,21.0,-9.0,
2078.0,2087.0,21.0,-9.0,
2081.0,2088.0,21.0,-9.0,
2074.0,2080.0,21.0,-9.0,
2079.0,2081.0,21.0,-9.0,
2071.0,2074.0,21.0,-9.0,
2069.0,2100.0,21.0,-9.0,
2080.0,2079.0,21.0,-9.0,
2069.0,2085.0,20.0,-9.0,
2066.0,2095.0,20.0,-9.0,
2076.0,2080.0,20.0,-9.0,
2069.0,2083.0,20.0,-9.0,
2073.0,2078.0,20.0,-9.0,
2074.0,2079.0,20.0,-9.0,
2076.0,2083.0,20.0,-9.0,
2075.0,2081.0,20.0,-9.0,
2068.0,2081.0,20.0,-9.0,
2071.0,2085.0,20.0,-9.0,
2065.0,2081.0,20.0,-9.0,
2074.0,2087.0,20.0,-9.0,
2084.0,2090.0,20.0,-9.0,
2084.0,2083.0,21.0,-9.0,
2075.0,2074.0,21.0,-9.0,
2073.0,2075.0,21.0,-9.0,
2075.0,2080.0,21.0,-9.0,
2064.0,2080.0,21.0,-9.0,
2070.0,2086.0,21.0,-9.0,
2075.0,2082.0,21.0,-9.0,
2078.0,2098.0,21.0,-9.0,
2074.0,2078.0,21.0,-9.0,
2069.0,2078.0,21.0,-9.0,
2076.0,2075.0,21.0,-9.0,
2071.0,2078.0,21.0,-9.0,
2062.0,2078.0,21.0,-9.0,
2069.0,2081.0,21.0,-9.0,
2069.0,2078.0,21.0,-9.0,
2074.0,2083.0,21.0,-9.0,
2068.0,2086.0,21.0,-9.0,
2070.0,2086.0,21.0,-9.0,
2064.0,2082.0,21.0,-9.0,
2067.0,2080.0,21.0,-9.0,
2063.0,2078.0,20.0,-9.0,
2063.0,2081.0,21.0,-9.0,
2061.0,2080.0,20.0,-9.0,
2063.0,2082.0,21.0,-9.0,
2069.0,2094.0,21.0,-9.0,
2073.0,2087.0,21.0,-9.0,
2079.0,2090.0,20.0,-9.0,
2071.0,2082.0,20.0,-9.0,
2070.0,2081.0,20.0,-9.0,
2078.0,2075.0,20.0,-9.0,
2073.0,2073.0,21.0,-9.0,
2061.0,2075.0,21.0,-9.0,
2064.0,2086.0,21.0,-9.0,
2077.0,2082.0,21.0,-9.0,
2069.0,2086.0,21.0,-9.0,
2070.0,2084.0,21.0,-9.0,
2071.0,2079.0,21.0,-9.0,
2073.0,2074.0,21.0,-9.0,
2068.0,2076.0,21.0,-9.0,
2067.0,2089.0,21.0,-9.0,
2061.0,2082.0,21.0,-9.0,
2074.0,2083.0,21.0,-9.0,
2072.0,2085.0,21.0,-9.0,
2070.0,2077.0,21.0,-9.0,
2067.0,2089.0,21.0,-9.0,
2074.0,2082.0,21.0,-9.0,
2071.0,2078.0,21.0,-9.0,
2061.0,2078.0,21.0,-9.0,
2062.0,2078.0,21.0,-9.0,
2076.0,2077.0,21.0,-9.0,
2078.0,2090.0,21.0,-9.0,
2074.0,2089.0,21.0,-9.0,
2072.0,2099.0,20.0,-9.0,
2081.0,2078.0,20.0,-9.0,
2072.0,2080.0,20.0,-9.0,
2081.0,2072.0,20.0,-9.0,
2072.0,2078.0,20.0,-9.0,
2066.0,2079.0,20.0,-9.0,
2066.0,2082.0,20.0,-9.0,
2064.0,2082.0,20.0,-9.0,
2064.0,2082.0,20.0,-9.0,
2071.0,2089.0,21.0,-9.0,
2083.0,2087.0,21.0,-9.0,
2078.0,2087.0,21.0,-9.0,
2089.0,2082.0,21.0,-9.0,
2069.0,2076.0,21.0,-9.0,
2070.0,2074.0,21.0,-9.0,
2063.0,2078.0,21.0,-9.0,
2068.0,2090.0,21.0,-9.0,
2074.0,2089.0,21.0,-9.0,
2070.0,2089.0,21.0,-9.0,
2084.0,2096.0,21.0,-9.0,
2076.0,2081.0,21.0,-9.0,
2074.0,2077.0,21.0,-9.0,
2078.0,2077.0,21.0,-9.0,
2069.0,2080.0,21.0,-9.0,
2074.0,2079.0,21.0,-9.0,
2069.0,2082.0,21.0,-9.0,
2070.0,2083.0,21.0,-9.0,
2068.0,2081.0,21.0,-9.0,
2072.0,2080.0,21.0,-9.0,
2083.0,2082.0,21.0,-9.0,
2067.0,2078.0,21.0,-9.0,
2066.0,2073.0,21.0,-9.0,
2063.0,2085.0,21.0,-9.0,
2063.0,2077.0,21.0,-9.0,
2057.0,2087.0,21.0,-9.0,
2064.0,2085.0,21.0,-9.0,
2062.0,2085.0,21.0,-9.0,
2073.0,2090.0,21.0,-9.0,
2079.0,2087.0,21.0,-9.0,
2068.0,2075.0,21.0,-9.0,
2074.0,2080.0,21.0,-9.0,
2065.0,2079.0,21.0,-9.0,
2061.0,2083.0,21.0,-9.0,
2065.0,2083.0,21.0,-9.0,
2078.0,2085.0,21.0,-9.0,
2077.0,2085.0,21.0,-9.0,
2072.0,2084.0,21.0,-9.0,
2083.0,2071.0,21.0,-9.0,
2074.0,2081.0,21.0,-9.0,
2080.0,2075.0,21.0,-9.0,
2071.0,2076.0,21.0,-9.0,
2065.0,2076.0,21.0,-9.0,
2075.0,2078.0,21.0,-9.0,
2071.0,2086.0,21.0,-9.0,
2081.0,2088.0,21.0,-9.0,
2075.0,2084.0,21.0,-9.0,
2070.0,2086.0,21.0,-9.0,
2081.0,2084.0,21.0,-9.0,
2076.0,2074.0,21.0,-9.0,
2064.0,2073.0,21.0,-9.0,
2065.0,2076.0,21.0,-9.0,
2064.0,2086.0,21.0,-9.0,
2068.0,2087.0,21.0,-9.0,
2070.0,2090.0,21.0,-9.0,
2074.0,2087.0,21.0,-9.0,
2074.0,2090.0,21.0,-9.0,
2069.0,2065.0,21.0,-9.0,
2066.0,2078.0,20.0,-9.0,
2078.0,2078.0,20.0,-9.0,
2072.0,2069.0,20.0,-9.0,
2069.0,2090.0,21.0,-9.0,
2064.0,2089.0,21.0,-9.0,
2070.0,2086.0,21.0,-9.0,
2067.0,2084.0,21.0,-9.0,
2073.0,2083.0,20.0,-9.0,
2069.0,2081.0,20.0,-9.0,
2072.0,2083.0,20.0,-9.0,
2071.0,2076.0,20.0,-9.0,
2059.0,2080.0,20.0,-9.0,
2063.0,2082.0,20.0,-9.0,
2070.0,2081.0,0,
2073.0,2088.0,20.0,-9.0,
2077.0,2088.0,20.0,-9.0,
2076.0,2083.0,20.0,-9.0,
2071.0,2082.0,20.0,-9.0,
2079.0,2076.0,20.0,-9.0,
2071.0,2078.0,20.0,-9.0,
2070.0,2089.0,20.0,-9.0,
2070.0,2083.0,20.0,-9.0,
2079.0,2092.0,20.0,-9.0,
2073.0,2086.0,20.0,-9.0,
2068.0,2084.0,20.0,-9.0,
2071.0,2082.0,20.0,-9.0,
2073.0,2074.0,21.0,-9.0,
2074.0,2083.0,21.0,-9.0,
2073.0,2080.0,21.0,-9.0,
2062.0,2076.0,21.0,-9.0,
2067.0,2082.0,21.0,-9.0,
2068.0,2082.0,21.0,-9.0,
2054.0,2085.0,21.0,-9.0,
2063.0,2083.0,21.0,-9.0,
2066.0,2078.0,21.0,-9.0,
2071.0,2085.0,21.0,-9.0,
2077.0,2073.0,21.0,-9.0,
2064.0,2074.0,21.0,-9.0,
2065.0,2077.0,21.0,-9.0,
2066.0,2079.0,21.0,-9.0,
2058.0,2095.0,21.0,-9.0,
2076.0,2090.0,21.0,-9.0,
2071.0,2086.0,21.0,-9.0,
2072.0,2083.0,21.0,-9.0,
2070.0,2081.0,21.0,-9.0,
2067.0,2077.0,21.0,-9.0,
2070.0,2080.0,21.0,-9.0,
2065.0,2077.0,21.0,-9.0,
2070.0,2094.0,21.0,-9.0,
2072.0,2084.0,21.0,-9.0,
2068.0,2088.0,21.0,-9.0,
2074.0,2088.0,21.0,-9.0,
2077.0,2086.0,21.0,-9.0,
2075.0,2078.0,21.0,-9.0,
2080.0,2083.0,21.0,-9.0,
2062.0,2082.0,21.0,-9.0,
2059.0,2079.0,21.0,-9.0,
2063.0,2082.0,21.0,-9.0,
2071.0,2087.0,21.0,-9.0,
2071.0,2095.0,21.0,-9.0,
2076.0,2090.0,21.0,-9.0,
2075.0,2083.0,21.0,-9.0,
2078.0,2080.0,21.0,-9.0,
2074.0,2080.0,21.0,-9.0,
2074.0,2077.0,21.0,-9.0,
2067.0,2076.0,20.0,-9.0,
2078.0,2074.0,20.0,-9.0,
2078.0,2089.0,20.0,-9.0,
2074.0,2085.0,20.0,-9.0,
2069.0,2085.0,20.0,-9.0,
2075.0,2084.0,20.0,-9.0,
2070.0,2073.0,20.0,-9.0,
2070.0,2075.0,20.0,-9.0,
2083.0,2077.0,20.0,-9.0,
2065.0,2075.0,20.0,-9.0,
2071.0,2082.0,20.0,-9.0,
2076.0,2080.0,20.0,-9.0,
2087.0,2088.0,20.0,-9.0,
2072.0,2089.0,21.0,-9.0,
2076.0,2085.0,21.0,-9.0,
2065.0,2085.0,21.0,-9.0,
2062.0,2078.0,21.0,-9.0,
2063.0,2077.0,21.0,-9.0,
2066.0,2071.0,0,
2055.0,2080.0,21.0,-9.0,
2063.0,2084.0,21.0,-9.0,
2078.0,2085.0,21.0,-9.0,
2070.0,2083.0,21.0,-9.0,
2070.0,2080.0,21.0,-9.0,
2071.0,2081.0,21.0,-9.0,
2069.0,2076.0,21.0,-9.0,
2066.0,2080.0,21.0,-9.0,
2061.0,2077.0,21.0,-9.0,
2058.0,2077.0,21.0,-9.0,
2059.0,2082.0,21.0,-9.0,
2064.0,2084.0,21.0,-9.0,
2066.0,2081.0,21.0,-9.0,
2074.0,2085.0,21.0,-9.0,
2070.0,2083.0,21.0,-9.0,
2073.0,2080.0,21.0,-9.0,
2073.0,2077.0,21.0,-9.0,
2057.0,2080.0,21.0,-9.0,
2064.0,2086.0,21.0,-9.0,
2073.0,2093.0,21.0,-9.0,
2073.0,2083.0,21.0,-9.0,
2076.0,2089.0,21.0,-9.0,
2074.0,2082.0,21.0,-9.0,
2072.0,2087.0,21.0,-9.0,
2074.0,2077.0,21.0,-9.0,
2071.0,2081.0,21.0,-9.0,
2074.0,2079.0,21.0,-9.0,
2069.0,2081.0,21.0,-9.0,
2071.0,2100.0,21.0,-9.0,
2067.0,2090.0,21.0,-9.0,
2070.0,2088.0,21.0,-9.0,
2075.0,2082.0,21.0,-9.0,
2073.0,2083.0,21.0,-9.0,
2070.0,2085.0,21.0,-9.0,
2071.0,2082.0,21.0,-9.0,
2066.0,2081.0,21.0,-9.0,
2072.0,2082.0,21.0,-9.0,
2077.0,2078.0,21.0,-9.0,
2073.0,2092.0,21.0,-9.0,
2071.0,2090.0,21.0,-9.0,
2076.0,2089.0,21.0,-9.0,
2070.0,2078.0,21.0,-9.0,
2057.0,2079.0,21.0,-9.0,
2071.0,2061.0,21.0,-9.0,
2065.0,2074.0,21.0,-9.0,
2065.0,2077.0,21.0,-9.0,
2070.0,2092.0,21.0,-9.0,
2081.0,2089.0,21.0,-9.0,
2070.0,2092.0,21.0,-9.0,
2072.0,2084.0,21.0,-9.0,
2072.0,2080.0,21.0,-9.0,
2069.0,2082.0,21.0,-9.0,
2071.0,2077.0,21.0,-9.0,
2077.0,2081.0,21.0,-9.0,
2064.0,2079.0,21.0,-9.0,
2066.0,2087.0,21.0,-9.0,
2067.0,2083.0,21.0,-9.0,
2071.0,2090.0,21.0,-9.0,
2061.0,2088.0,21.0,-9.0,
2067.0,2082.0,21.0,-9.0,
2066.0,2088.0,21.0,-9.0,
2066.0,2078.0,21.0,-9.0,
2058.0,2085.0,20.0,-9.0,
2070.0,2082.0,20.0,-9.0,
2074.0,2083.0,20.0,-9.0,
2077.0,2094.0,20.0,-9.0,
2073.0,2089.0,20.0,-9.0,
2071.0,2083.0,20.0,-9.0,
2081.0,2079.0,20.0,-9.0,
2078.0,2075.0,20.0,-9.0,
2076.0,2078.0,20.0,-9.0,
2067.0,2078.0,20.0,-9.0,
2068.0,2080.0,21.0,-9.0,
2073.0,2087.0,21.0,-9.0,
2070.0,2088.0,21.0,-9.0,
2073.0,2089.0,21.0,-9.0,
2066.0,2088.0,21.0,-9.0,
2068.0,2083.0,21.0,-9.0,
2073.0,2085.0,21.0,-9.0,
2076.0,2079.0,21.0,-9.0,
2064.0,2072.0,21.0,-9.0,
2059.0,2075.0,21.0,-9.0,
2066.0,2083.0,21.0,-9.0,
2070.0,2084.0,21.0,-9.0,
2072.0,2087.0,21.0,-9.0,
2077.0,2090.0,21.0,-9.0,
2074.0,2080.0,21.0,-9.0,
2066.0,2070.0,21.0,-9.0,
2064.0,2075.0,21.0,-9.0,
2070.0,2082.0,21.0,-9.0,
2070.0,2083.0,21.0,-9.0,
2072.0,2090.0,21.0,-9.0,
2072.0,2084.0,21.0,-9.0,
2078.0,2086.0,21.0,-9.0,
2073.0,2085.0,21.0,-9.0,
2078.0,2078.0,21.0,-9.0,
2085.0,2080.0,21.0,-9.0,
2077.0,2078.0,21.0,-9.0,
2073.0,2082.0,21.0,-9.0,
2069.0,2075.0,21.0,-9.0,
2067.0,2085.0,21.0,-9.0,
2076.0,2090.0,21.0,-9.0,
2068.0,2083.0,21.0,-9.0,
2077.0,2086.0,21.0,-9.0,
2077.0,2087.0,21.0,-9.0,
2074.0,2075.0,21.0,-9.0,
2061.0,2075.0,21.0,-9.0,
2067.0,2078.0,21.0,-9.0,
2067.0,2080.0,21.0,-9.0,
2062.0,2083.0,21.0,-9.0,
2067.0,2086.0,21.0,-9.0,
2072.0,2083.0,21.0,-9.0,
2071.0,2085.0,21.0,-9.0,
2068.0,2084.0,21.0,-9.0,
2072.0,2083.0,21.0,-9.0,
2070.0,2081.0,21.0,-9.0,
2070.0,2080.0,21.0,-9.0,
2068.0,2085.0,21.0,-9.0,
2069.0,2085.0,21.0,-9.0,
2065.0,2086.0,21.0,-9.0,
2072.0,2086.0,21.0,-9.0,
2073.0,2096.0,21.0,-9.0,
2078.0,2082.0,21.0,-9.0,
2081.0,2085.0,21.0,-9.0,
2065.0,2072.0,21.0,-9.0,
2069.0,2080.0,21.0,-9.0,
2071.0,2072.0,21.0,-9.0,
2065.0,2085.0,0,
2078.0,2087.0,20.0,-9.0,
2072.0,2085.0,21.0,-9.0,
2070.0,2089.0,21.0,-9.0,
2066.0,2078.0,0,
2071.0,2080.0,21.0,-9.0,
2072.0,2083.0,21.0,-9.0,
2063.0,2076.0,21.0,-9.0,
2067.0,2076.0,21.0,-9.0,
2076.0,2086.0,21.0,-9.0,
2067.0,2087.0,21.0,-9.0,
2074.0,2094.0,21.0,-9.0,
2082.0,2089.0,21.0,-9.0,
2081.0,2084.0,21.0,-9.0,
2068.0,2084.0,21.0,-9.0,
2078.0,2086.0,21.0,-9.0,
2067.0,2081.0,21.0,-9.0,
2070.0,2079.0,21.0,-9.0,
2068.0,2080.0,21.0,-9.0,
2076.0,2087.0,21.0,-9.0,
2080.0,2090.0,21.0,-9.0,
2041.0,2090.0,21.0,-9.0,
2079.0,2082.0,21.0,-9.0,
2071.0,2078.0,21.0,-9.0,
2069.0,2075.0,21.0,-9.0,
2072.0,2077.0,21.0,-9.0,
2069.0,2079.0,21.0,-9.0,
2059.0,2081.0,21.0,-9.0,
2074.0,2081.0,21.0,-9.0,
2065.0,2079.0,21.0,-9.0,
2074.0,2083.0,21.0,-9.0,
2076.0,2083.0,21.0,-9.0,
2074.0,2080.0,21.0,-9.0,
2061.0,2080.0,21.0,-9.0,
2065.0,2080.0,21.0,-9.0,
2074.0,2084.0,21.0,-9.0,
2056.0,2087.0,21.0,-9.0,
2069.0,2086.0,21.0,-9.0,
2069.0,2090.0,21.0,-9.0,
2071.0,2089.0,21.0,-9.0,
2067.0,2085.0,21.0,-9.0,
2078.0,2081.0,21.0,-9.0,
2072.0,2082.0,21.0,-9.0,
2070.0,2077.0,21.0,-9.0,
2068.0,2077.0,21.0,-9.0,
2069.0,2081.0,21.0,-9.0,
2069.0,2086.0,21.0,-9.0,
2079.0,2088.0,21.0,-9.0,
2067.0,2098.0,21.0,-9.0,
2072.0,2085.0,21.0,-9.0,
2072.0,2084.0,21.0,-9.0,
2079.0,2085.0,21.0,-9.0,
2073.0,2077.0,21.0,-9.0,
2066.0,2083.0,21.0,-9.0,
2066.0,2087.0,21.0,-9.0,
2062.0,2086.0,21.0,-9.0,
2065.0,2083.0,21.0,-9.0,
2065.0,2078.0,21.0,-9.0,
2072.0,2088.0,21.0,-9.0,
2072.0,2079.0,21.0,-9.0,
2063.0,2083.0,21.0,-9.0,
2065.0,2083.0,21.0,-9.0,
2063.0,2077.0,21.0,-9.0,
2073.0,2079.0,21.0,-9.0,
2069.0,2085.0,21.0,-9.0,
2065.0,2082.0,21.0,-9.0,
2068.0,2089.0,21.0,-9.0,
2072.0,2089.0,21.0,-9.0,
2065.0,2083.0,21.0,-9.0,
2072.0,2080.0,21.0,-9.0,
2077.0,2078.0,21.0,-9.0,
2070.0,2090.0,21.0,-9.0,
2063.0,2087.0,21.0,-9.0,
2066.0,2094.0,21.0,-9.0,
2069.0,2090.0,21.0,-9.0,
2070.0,2084.0,20.0,-9.0,
2066.0,2079.0,20.0,-9.0,
2082.0,2083.0,20.0,-9.0,
2074.0,2078.0,20.0,-9.0,
2071.0,2078.0,20.0,-9.0,
2060.0,2086.0,20.0,-9.0,
2065.0,2081.0,20.0,-9.0,
2068.0,2081.0,20.0,-9.0,
2071.0,2090.0,20.0,-9.0,
2070.0,2090.0,20.0,-9.0,
2079.0,2090.0,20.0,-9.0,
2077.0,2086.0,21.0,-9.0,
2065.0,2080.0,21.0,-9.0,
2067.0,2079.0,21.0,-9.0,
2060.0,2081.0,21.0,-9.0,
2061.0,2081.0,21.0,-9.0,
2066.0,2082.0,21.0,-9.0,
2063.0,2076.0,21.0,-9.0,
2066.0,2086.0,21.0,-9.0,
2072.0,2082.0,21.0,-9.0,
2070.0,2082.0,21.0,-9.0,
2063.0,2079.0,21.0,-9.0,
2068.0,2075.0,21.0,-9.0,
2068.0,2081.0,0,
2071.0,2089.0,21.0,-9.0,
2066.0,2085.0,21.0,-9.0,
2068.0,2086.0,21.0,-9.0,
2070.0,2082.0,21.0,-9.0,
2077.0,2087.0,21.0,-9.0,
2076.0,2085.0,21.0,-9.0,
2079.0,2092.0,21.0,-9.0,
2062.0,2076.0,21.0,-9.0,
2066.0,2070.0,21.0,-9.0,
2063.0,2083.0,21.0,-9.0,
2061.0,2082.0,21.0,-9.0,
2071.0,2084.0,21.0,-9.0,
2075.0,2085.0,21.0,-9.0,
2082.0,2091.0,21.0,-9.0,
2073.0,2079.0,21.0,-9.0,
2072.0,2077.0,21.0,-9.0,
2062.0,2089.0,21.0,-9.0,
2065.0,2077.0,21.0,-9.0,
2066.0,2075.0,20.0,-9.0,
2069.0,2085.0,20.0,-9.0,
2062.0,2086.0,20.0,-9.0,
2064.0,2084.0,20.0,-9.0,
2072.0,2081.0,20.0,-9.0,
2074.0,2080.0,20.0,-9.0,
2075.0,2079.0,20.0,-9.0,
2071.0,2078.0,20.0,-9.0,
2065.0,2085.0,20.0,-9.0,
2064.0,2085.0,20.0,-9.0,
2069.0,2091.0,20.0,-9.0,
2072.0,2084.0,20.0,-9.0,
2074.0,2091.0,20.0,-9.0,
2083.0,2090.0,20.0,-9.0,
2080.0,2086.0,20.0,-9.0,
2065.0,2078.0,20.0,-9.0,
2068.0,2076.0,21.0,-9.0,
2065.0,2082.0,21.0,-9.0,
2055.0,2080.0,21.0,-9.0,
2064.0,2088.0,21.0,-9.0,
2060.0,2090.0,21.0,-9.0,
2058.0,2085.0,21.0,-9.0,
2065.0,2084.0,21.0,-9.0,
2060.0,2077.0,21.0,-9.0,
2072.0,2079.0,21.0,-9.0,
2067.0,2081.0,21.0,-9.0,
2067.0,2077.0,21.0,-9.0,
2078.0,2081.0,21.0,-9.0,
2074.0,2085.0,21.0,-9.0,
2074.0,2083.0,21.0,-9.0,
2073.0,2081.0,21.0,-9.0,
2082.0,2087.0,21.0,-9.0,
2078.0,2083.0,21.0,-9.0,
2076.0,2077.0,21.0,-9.0,
2069.0,2075.0,21.0,-9.0,
2058.0,2076.0,21.0,-9.0,
2067.0,2081.0,21.0,-9.0,
2066.0,2086.0,21.0,-9.0,
2069.0,2091.0,21.0,-9.0,
2068.0,2091.0,21.0,-9.0,
2070.0,2080.0,21.0,-9.0,
2072.0,2080.0,21.0,-9.0,
2057.0,2075.0,20.0,-9.0,
2065.0,2074.0,20.0,-9.0,
2072.0,2077.0,20.0,-9.0,
2069.0,2083.0,20.0,-9.0,
2087.0,2085.0,20.0,-9.0,
2083.0,2086.0,20.0,-9.0,
2073.0,2089.0,20.0,-9.0,
2077.0,2085.0,20.0,-9.0,
2083.0,2082.0,20.0,-9.0,
2065.0,2084.0,20.0,-9.0,
2071.0,2080.0,20.0,-9.0,
2066.0,2076.0,21.0,-9.0,
2073.0,2080.0,21.0,-9.0,
2066.0,2080.0,21.0,-9.0,
2078.0,2084.0,21.0,-9.0,
2084.0,2088.0,21.0,-9.0,
2075.0,2084.0,21.0,-9.0,
2075.0,2088.0,21.0,-9.0,
2069.0,2078.0,21.0,-9.0,
2066.0,2071.0,21.0,-9.0,
2062.0,2070.0,21.0,-9.0,
2061.0,2077.0,21.0,-9.0,
2073.0,2088.0,21.0,-9.0,
2070.0,2091.0,21.0,-9.0,
2071.0,2090.0,21.0,-9.0,
2077.0,2090.0,21.0,-9.0,
2072.0,2088.0,21.0,-9.0,
2072.0,2082.0,21.0,-9.0,
2069.0,2075.0,21.0,-9.0,
2068.0,2077.0,21.0,-9.0,
2059.0,2085.0,21.0,-9.0,
2072.0,2081.0,21.0,-9.0,
2075.0,2084.0,21.0,-9.0,
2068.0,2089.0,21.0,-9.0,
2067.0,2085.0,21.0,-9.0,
2077.0,2085.0,21.0,-9.0,
2077.0,2080.0,21.0,-9.0,
2058.0,2078.0,20.0,-9.0,
2076.0,2071.0,21.0,-9.0,
2064.0,2075.0,21.0,-9.0,
2066.0,2079.0,21.0,-9.0,
2072.0,2088.0,21.0,-9.0,
2068.0,2090.0,21.0,-9.0,
2065.0,2081.0,21.0,-9.0,
2067.0,2087.0,21.0,-9.0,
2062.0,2079.0,21.0,-9.0,
2075.0,2074.0,21.0,-9.0,
2068.0,2077.0,21.0,-9.0,
2064.0,2076.0,20.0,-9.0,
2072.0,2081.0,21.0,-9.0,
2078.0,2085.0,21.0,-9.0,
2080.0,2088.0,21.0,-9.0,
2080.0,2089.0,20.0,-9.0,
2081.0,2087.0,21.0,-9.0,
2075.0,2082.0,21.0,-9.0,
2079.0,2082.0,21.0,-9.0,
2063.0,2076.0,21.0,-9.0,
2072.0,2078.0,21.0,-9.0,
2065.0,2083.0,21.0,-9.0,
2071.0,2061.0,21.0,-9.0,
2072.0,2090.0,21.0,-9.0,
2079.0,2089.0,21.0,-9.0,
2075.0,2083.0,21.0,-9.0,
2074.0,2081.0,21.0,-9.0,
2076.0,2078.0,21.0,-9.0,
2065.0,2077.0,21.0,-9.0,
2076.0,2079.0,21.0,-9.0,
2068.0,2084.0,21.0,-9.0,
2077.0,2096.0,21.0,-9.0,
2076.0,2082.0,21.0,-9.0,
2084.0,2089.0,21.0,-9.0,
2062.0,2086.0,21.0,-9.0,
2070.0,2081.0,21.0,-9.0,
2061.0,2082.0,21.0,-9.0,
2065.0,2080.0,21.0,-9.0,
2065.0,2077.0,21.0,-9.0,
2072.0,2080.0,20.0,-9.0,
2073.0,2083.0,21.0,-9.0,
2074.0,2088.0,21.0,-9.0,
2077.0,2088.0,20.0,-9.0,
2083.0,2085.0,21.0,-9.0,
2076.0,2083.0,21.0,-9.0,
2068.0,2078.0,21.0,-9.0,
2068.0,2078.0,21.0,-9.0,
2063.0,2079.0,21.0,-9.0,
2073.0,2080.0,21.0,-9.0,
2079.0,2090.0,21.0,-9.0,
2087.0,2090.0,21.0,-9.0,
2070.0,2079.0,21.0,-9.0,
2105.0,2083.0,21.0,-9.0,
2074.0,2078.0,21.0,-9.0,
2069.0,2073.0,21.0,-9.0,
2067.0,2079.0,21.0,-9.0,
2060.0,2072.0,21.0,-9.0,
2063.0,2079.0,21.0,-9.0,
2077.0,2085.0,21.0,-9.0,
2072.0,2089.0,21.0,-9.0,
2077.0,2092.0,21.0,-9.0,
2076.0,2087.0,21.0,-9.0,
2079.0,2084.0,21.0,-9.0,
2071.0,2076.0,21.0,-9.0,
2068.0,2082.0,20.0,-9.0,
2061.0,2078.0,20.0,-9.0,
2063.0,2086.0,20.0,-9.0,
2069.0,2087.0,20.0,-9.0,
2067.0,2090.0,20.0,-9.0,
2086.0,2079.0,20.0,-9.0,
2076.0,2080.0,20.0,-9.0,
2071.0,2079.0,20.0,-9.0,
2072.0,2077.0,20.0,-9.0,
2076.0,2074.0,20.0,-9.0,
2061.0,2076.0,20.0,-9.0,
2062.0,2085.0,21.0,-9.0,
2050.0,2090.0,21.0,-9.0,
2083.0,2087.0,21.0,-9.0,
2082.0,2088.0,21.0,-9.0,
2083.0,2085.0,21.0,-9.0,
2080.0,2083.0,21.0,-9.0,
2077.0,2067.0,21.0,-9.0,
2076.0,2089.0,21.0,-9.0,
2064.0,2076.0,20.0,-9.0,
2070.0,2078.0,20.0,-9.0,
2062.0,2091.0,20.0,-9.0,
2068.0,2086.0,20.0,-9.0,
2088.0,2085.0,21.0,-9.0,
2088.0,2087.0,21.0,-9.0,
2077.0,2082.0,21.0,-9.0,
2078.0,2076.0,21.0,-9.0,
2067.0,2072.0,21.0,-9.0,
2059.0,2078.0,21.0,-9.0,
2065.0,2080.0,21.0,-9.0,
2069.0,2086.0,21.0,-9.0,
2068.0,2087.0,21.0,-9.0,
2069.0,2081.0,21.0,-9.0,
2075.0,2087.0,21.0,-9.0,
2078.0,2079.0,21.0,-9.0,
2077.0,2081.0,21.0,-9.0,
2074.0,2078.0,21.0,-9.0,
2077.0,2086.0,21.0,-9.0,
2073.0,2081.0,21.0,-9.0,
2072.0,2082.0,21.0,-9.0,
2069.0,2084.0,21.0,-9.0,
2071.0,2081.0,21.0,-9.0,
2074.0,2080.0,21.0,-9.0,
2072.0,2088.0,21.0,-9.0,
2067.0,2072.0,21.0,-9.0,
2068.0,2070.0,21.0,-9.0,
2066.0,2074.0,21.0,-9.0,
2062.0,2082.0,21.0,-9.0,
2069.0,2085.0,21.0,-9.0,
2079.0,2086.0,21.0,-9.0,
2074.0,2089.0,21.0,-9.0,
2081.0,2080.0,21.0,-9.0,
2077.0,2079.0,21.0,-9.0,
2070.0,2073.0,21.0,-9.0,
2072.0,2078.0,21.0,-9.0,
2063.0,2078.0,20.0,-9.0,
2086.0,2083.0,20.0,-9.0,
2077.0,2082.0,20.0,-9.0,
2070.0,2081.0,20.0,-9.0,
2066.0,2081.0,20.0,-9.0,
2072.0,2082.0,20.0,-9.0,
2077.0,2083.0,20.0,-9.0,
2078.0,2075.0,20.0,-9.0,
2064.0,2071.0,20.0,-9.0,
2073.0,2073.0,20.0,-9.0,
2069.0,2081.0,20.0,-9.0,
2074.0,2083.0,20.0,-9.0,
2071.0,2085.0,20.0,-9.0,
2066.0,2090.0,20.0,-9.0,
2068.0,2086.0,20.0,-9.0,
2064.0,2080.0,20.0,-9.0,
2062.0,2079.0,21.0,-9.0,
2066.0,2078.0,21.0,-9.0,
2058.0,2080.0,21.0,-9.0,
2064.0,2084.0,20.0,-9.0,
2065.0,2087.0,21.0,-9.0,
2059.0,2086.0,21.0,-9.0,
2070.0,2090.0,21.0,-9.0,
2072.0,2083.0,20.0,-9.0,
2069.0,2081.0,20.0,-9.0,
2076.0,2078.0,20.0,-9.0,
2072.0,2080.0,20.0,-9.0,
2066.0,2093.0,20.0,-9.0,
2058.0,2084.0,20.0,-9.0,
2088.0,2080.0,21.0,-9.0,
2079.0,2090.0,21.0,-9.0,
2075.0,2087.0,21.0,-9.0,
2082.0,2085.0,21.0,-9.0,
2086.0,2085.0,21.0,-9.0,
2082.0,2082.0,21.0,-9.0,
2066.0,2079.0,21.0,-9.0,
2062.0,2080.0,21.0,-9.0,
2066.0,2079.0,21.0,-9.0,
2065.0,2081.0,21.0,-9.0,
2072.0,2087.0,21.0,-9.0,
2072.0,2094.0,21.0,-9.0,
2074.0,2079.0,21.0,-9.0,
2078.0,2078.0,21.0,-9.0,
2081.0,2078.0,21.0,-9.0,
2070.0,2076.0,21.0,-9.0,
2068.0,2086.0,21.0,-9.0,
2060.0,2086.0,21.0,-9.0,
2074.0,2084.0,21.0,-9.0,
2072.0,2088.0,21.0,-9.0,
2076.0,2096.0,21.0,-9.0,
2085.0,2087.0,21.0,-9.0,
2086.0,2084.0,21.0,-9.0,
2076.0,2078.0,21.0,-9.0,
2072.0,2081.0,21.0,-9.0,
2063.0,2078.0,21.0,-9.0,
2055.0,2082.0,21.0,-9.0,
2068.0,2088.0,21.0,-9.0,
2075.0,2086.0,21.0,-9.0,
2075.0,2093.0,21.0,-9.0,
2094.0,2087.0,20.0,-9.0,
2073.0,2084.0,20.0,-9.0,
2068.0,2080.0,20.0,-9.0,
2076.0,2073.0,20.0,-9.0,
2072.0,2073.0,20.0,-9.0,
2075.0,2080.0,20.0,-9.0,
2075.0,2086.0,20.0,-9.0,
2073.0,2088.0,20.0,-9.0,
2075.0,2086.0,20.0,-9.0,
2067.0,2081.0,20.0,-9.0,
2063.0,2080.0,21.0,-9.0,
2067.0,2085.0,21.0,-9.0,
2060.0,2080.0,21.0,-9.0,
2055.0,2077.0,21.0,-9.0,
2059.0,2078.0,21.0,-9.0,
2080.0,2089.0,21.0,-9.0,
2070.0,2095.0,21.0,-9.0,
2070.0,2086.0,21.0,-9.0,
2076.0,2089.0,21.0,-9.0,
2086.0,2085.0,21.0,-9.0,
2055.0,2077.0,21.0,-9.0,
2071.0,2077.0,21.0,-9.0,
2058.0,2076.0,21.0,-9.0,
2071.0,2082.0,21.0,-9.0,
2071.0,2084.0,21.0,-9.0,
2064.0,2089.0,21.0,-9.0,
2067.0,2086.0,21.0,-9.0,
2070.0,2091.0,21.0,-9.0,
2078.0,2088.0,21.0,-9.0,
2071.0,2079.0,21.0,-9.0,
2069.0,2075.0,21.0,-9.0,
2070.0,2092.0,21.0,-9.0,
2066.0,2088.0,21.0,-9.0,
2064.0,2087.0,21.0,-9.0,
2067.0,2083.0,21.0,-9.0,
2075.0,2083.0,21.0,-9.0,
2071.0,2083.0,21.0,-9.0,
2068.0,2077.0,21.0,-9.0,
2062.0,2079.0,21.0,-9.0,
2082.0,2075.0,21.0,-9.0,
2064.0,2075.0,21.0,-9.0,
2067.0,2077.0,21.0,-9.0,
2071.0,2092.0,21.0,-9.0,
2062.0,2090.0,21.0,-9.0,
2075.0,2091.0,21.0,-9.0,
2078.0,2090.0,21.0,-9.0,
2072.0,2087.0,21.0,-9.0,
2080.0,2078.0,21.0,-9.0,
2067.0,2079.0,20.0,-9.0,
2063.0,2079.0,21.0,-9.0,
2066.0,2079.0,21.0,-9.0,
2067.0,2079.0,21.0,-9.0,
2069.0,2084.0,21.0,-9.0,
2069.0,2090.0,20.0,-9.0,
2083.0,2086.0,20.0,-9.0,
2080.0,2081.0,21.0,-9.0,
2080.0,2081.0,20.0,-9.0,
2073.0,2084.0,20.0,-9.0,
2065.0,2076.0,20.0,-9.0,
2065.0,2080.0,20.0,-9.0,
2061.0,2082.0,21.0,-9.0,
2070.0,2086.0,21.0,-9.0,
2069.0,2094.0,21.0,-9.0,
2071.0,2089.0,21.0,-9.0,
2083.0,2092.0,21.0,-9.0,
2075.0,2076.0,21.0,-9.0,
2033.0,2071.0,21.0,-9.0,
2070.0,2078.0,21.0,-9.0,
2071.0,2081.0,21.0,-9.0,
2076.0,2088.0,21.0,-9.0,
2076.0,2089.0,21.0,-9.0,
2075.0,2086.0,21.0,-9.0,
2067.0,2083.0,21.0,-9.0,
2068.0,2079.0,21.0,-9.0,
2072.0,2073.0,21.0,-9.0,
2073.0,2075.0,21.0,-9.0,
2063.0,2079.0,21.0,-9.0,
2062.0,2092.0,21.0,-9.0,
2064.0,2082.0,21.0,-9.0,
2068.0,2086.0,21.0,-9.0,
2067.0,2085.0,21.0,-9.0,
2074.0,2087.0,21.0,-9.0,
2077.0,2085.0,21.0,-9.0,
2085.0,2085.0,21.0,-9.0,
2067.0,2075.0,21.0,-9.0,
2064.0,2089.0,21.0,-9.0,
2067.0,2082.0,21.0,-9.0,
2069.0,2091.0,21.0,-9.0,
2075.0,2087.0,21.0,-9.0,
2072.0,2092.0,21.0,-9.0,
2077.0,2086.0,21.0,-9.0,
2085.0,2086.0,21.0,-9.0,
2073.0,2082.0,21.0,-9.0,
2071.0,2078.0,21.0,-9.0,
2065.0,2078.0,21.0,-9.0,
2076.0,2080.0,21.0,-9.0,
2073.0,2094.0,20.0,-9.0,
2072.0,2084.0,20.0,-9.0,
2071.0,2086.0,20.0,-9.0,
2070.0,2083.0,21.0,-9.0,
2106.0,2080.0,21.0,-9.0,
2066.0,2079.0,21.0,-9.0,
2067.0,2088.0,21.0,-9.0,
2065.0,2077.0,21.0,-9.0,
2062.0,2079.0,21.0,-9.0,
2069.0,2085.0,21.0,-9.0,
2070.0,2084.0,21.0,-9.0,
2076.0,2094.0,21.0,-9.0,
2079.0,2087.0,21.0,-9.0,
2081.0,2083.0,21.0,-9.0,
2069.0,2081.0,21.0,-9.0,
2070.0,2077.0,21.0,-9.0,
2068.0,2078.0,21.0,-9.0,
2064.0,2079.0,21.0,-9.0,
2066.0,2080.0,21.0,-9.0,
2074.0,2099.0,21.0,-9.0,
2065.0,2094.0,21.0,-9.0,
2072.0,2083.0,21.0,-9.0,
2069.0,2087.0,21.0,-9.0,
2074.0,2081.0,21.0,-9.0,
2070.0,2080.0,21.0,-9.0,
2073.0,2079.0,21.0,-9.0,
2054.0,2074.0,21.0,-9.0,
2071.0,2079.0,21.0,-9.0,
2072.0,2092.0,21.0,-9.0,
2074.0,2088.0,21.0,-9.0,
2084.0,2093.0,21.0,-9.0,
2087.0,2089.0,21.0,-9.0,
2075.0,2081.0,21.0,-9.0,
2068.0,2077.0,21.0,-9.0,
2065.0,2075.0,21.0,-9.0,
2083.0,2075.0,21.0,-9.0,
2064.0,2087.0,21.0,-9.0,
2092.0,2094.0,21.0,-9.0,
2085.0,2097.0,21.0,-9.0,
2077.0,2084.0,21.0,-9.0,
2076.0,2086.0,21.0,-9.0,
2073.0,2088.0,21.0,-9.0,
2069.0,2080.0,21.0,-9.0,
2068.0,2078.0,21.0,-9.0,
2071.0,2083.0,21.0,-9.0,
2063.0,2084.0,21.0,-9.0,
2073.0,2087.0,21.0,-9.0,
2068.0,2086.0,21.0,-9.0,
2076.0,2085.0,21.0,-9.0,
2082.0,2088.0,21.0,-9.0,
2075.0,2076.0,21.0,-9.0,
2071.0,2082.0,21.0,-9.0,
2070.0,2074.0,21.0,-9.0,
2065.0,2076.0,21.0,-9.0,
2069.0,2083.0,21.0,-9.0,
2074.0,2086.0,21.0,-9.0,
2074.0,2085.0,21.0,-9.0,
2086.0,2088.0,21.0,-9.0,
2075.0,2078.0,21.0,-9.0,
2067.0,2071.0,21.0,-9.0,
2064.0,2071.0,21.0,-9.0,
2066.0,2078.0,21.0,-9.0,
2065.0,2098.0,21.0,-9.0,
2067.0,2090.0,21.0,-9.0,
2067.0,2094.0,20.0,-9.0,
2077.0,2087.0,20.0,-9.0,
2076.0,2080.0,21.0,-9.0,
2085.0,2081.0,0,
2069.0,2081.0,21.0,-9.0,
2079.0,2088.0,21.0,-9.0,
2071.0,2081.0,21.0,-9.0,
2059.0,2082.0,21.0,-9.0,
2074.0,2094.0,21.0,-9.0,
2066.0,2074.0,21.0,-9.0,
2067.0,2078.0,21.0,-9.0,
2077.0,2086.0,21.0,-9.0,
2087.0,2086.0,21.0,-9.0,
2077.0,2080.0,21.0,-9.0,
2073.0,2082.0,21.0,-9.0,
2068.0,2084.0,21.0,-9.0,
2061.0,2077.0,21.0,-9.0,
2064.0,2083.0,21.0,-9.0,
2072.0,2091.0,21.0,-9.0,
2065.0,2120.0,21.0,-9.0,
2083.0,2105.0,20.0,-9.0,
2078.0,2024.0,20.0,-9.0,
2077.0,1977.0,20.0,-9.0,
2080.0,2034.0,20.0,-9.0,
2077.0,2192.0,20.0,-9.0,
2063.0,2111.0,20.0,-9.0,
2081.0,2107.0,20.0,-9.0,
2092.0,2100.0,20.0,-9.0,
2078.0,2092.0,20.0,-9.0,
2075.0,2092.0,20.0,-9.0,
2082.0,2101.0,20.0,-9.0,
2085.0,2112.0,20.0,-9.0,
2082.0,2096.0,20.0,-9.0,
2074.0,2057.0,20.0,-9.0,
2068.0,2029.0,20.0,-9.0,
2066.0,2057.0,21.0,-9.0,
2066.0,2093.0,21.0,-9.0,
2076.0,2090.0,21.0,-9.0,
2086.0,2094.0,21.0,-9.0,
2085.0,2086.0,21.0,-9.0,
2074.0,2085.0,21.0,-9.0,
2064.0,2082.0,21.0,-9.0,
2063.0,2082.0,21.0,-9.0,
2084.0,2081.0,21.0,-9.0,
2082.0,2092.0,21.0,-9.0,
2058.0,2106.0,21.0,-9.0,
2069.0,2105.0,21.0,-9.0,
2102.0,2108.0,21.0,-9.0,
2114.0,2080.0,21.0,-9.0,
2108.0,2087.0,21.0,-9.0,
2096.0,2052.0,21.0,-9.0,
2086.0,2021.0,21.0,-9.0,
2070.0,2061.0,21.0,-9.0,
2042.0,2083.0,21.0,-9.0,
2030.0,2080.0,21.0,-9.0,
2039.0,2092.0,21.0,-9.0,
2052.0,2094.0,21.0,-9.0,
2064.0,2086.0,21.0,-9.0,
2054.0,2079.0,21.0,-9.0,
2043.0,2076.0,21.0,-9.0,
2050.0,2082.0,21.0,-9.0,
2056.0,2089.0,21.0,-9.0,
2067.0,2058.0,21.0,-9.0,
2080.0,2063.0,21.0,-9.0,
2073.0,2073.0,21.0,-9.0,
2083.0,2172.0,21.0,-9.0,
2082.0,2102.0,21.0,-9.0,
2100.0,2042.0,21.0,-9.0,
2100.0,2026.0,21.0,-9.0,
2100.0,2024.0,21.0,-9.0,
2063.0,2204.0,21.0,-9.0,
2057.0,2162.0,21.0,-9.0,
2063.0,2133.0,21.0,-9.0,
2066.0,2063.0,21.0,-9.0,
2066.0,2082.0,21.0,-9.0,
2076.0,2093.0,21.0,-9.0,
2059.0,2083.0,21.0,-9.0,
2057.0,2069.0,21.0,-9.0,
2067.0,2032.0,21.0,-10.0,
2060.0,2076.0,21.0,-10.0,
2077.0,2107.0,20.0,-10.0,
2089.0,2109.0,20.0,-10.0,
2076.0,2085.0,20.0,-10.0,
2075.0,2062.0,20.0,-10.0,
2078.0,2050.0,20.0,-10.0,
2074.0,2070.0,20.0,-10.0,
2081.0,2077.0,20.0,-10.0,
2065.0,2090.0,20.0,-10.0,
2055.0,2099.0,21.0,-10.0,
2087.0,2098.0,21.0,-10.0,
2090.0,2059.0,21.0,-10.0,
2076.0,2054.0,21.0,-10.0,
2090.0,2067.0,21.0,-10.0,
2116.0,2073.0,21.0,-9.0,
2069.0,2113.0,21.0,-9.0,
2083.0,2098.0,21.0,-9.0,
2058.0,2092.0,21.0,-9.0,
2031.0,2081.0,21.0,-9.0,
2047.0,2086.0,21.0,-9.0,
2064.0,2030.0,21.0,-9.0,
2034.0,2011.0,21.0,-9.0,
2040.0,2056.0,21.0,-9.0,
2054.0,2104.0,21.0,-8.0,
2048.0,2039.0,21.0,-8.0,
2093.0,2064.0,21.0,-8.0,
2143.0,2169.0,21.0,-8.0,
2120.0,2171.0,21.0,-8.0,
2072.0,2102.0,21.0,-8.0,
2073.0,2036.0,21.0,-8.0,
2074.0,1970.0,21.0,-9.0,
2065.0,1947.0,21.0,-9.0,
2051.0,2152.0,21.0,-9.0,
2043.0,2313.0,21.0,-9.0,
2047.0,2172.0,21.0,-9.0,
2066.0,2076.0,21.0,-9.0,
2070.0,2039.0,21.0,-10.0,
2080.0,2055.0,21.0,-10.0,
2063.0,2115.0,21.0,-9.0,
2052.0,2067.0,22.0,-9.0,
2051.0,2088.0,22.0,-9.0,
2061.0,2092.0,22.0,-9.0,
2073.0,2095.0,22.0,-9.0,
2094.0,2064.0,22.0,-9.0,
2096.0,2069.0,22.0,-9.0,
2077.0,2051.0,22.0,-9.0,
2086.0,2057.0,22.0,-9.0,
2092.0,2078.0,22.0,-9.0,
2063.0,2098.0,23.0,-9.0,
2073.0,2054.0,23.0,-8.0,
2102.0,2045.0,23.0,-8.0,
2070.0,2029.0,23.0,-7.0,
2095.0,2077.0,22.0,-7.0,
2092.0,2106.0,22.0,-8.0,
2095.0,2084.0,22.0,-8.0,
2151.0,2106.0,21.0,-8.0,
2041.0,2096.0,21.0,-8.0,
1951.0,2100.0,21.0,-7.0,
2029.0,2118.0,21.0,-7.0,
2091.0,2110.0,21.0,-7.0,
2087.0,2089.0,21.0,-7.0,
2079.0,2060.0,21.0,-6.0,
2077.0,2090.0,21.0,-6.0,
2095.0,2054.0,20.0,-6.0,
2147.0,2021.0,20.0,-5.0,
2141.0,2010.0,20.0,-5.0,
2107.0,2083.0,20.0,-5.0,
2039.0,2121.0,20.0,-5.0,
2063.0,2136.0,20.0,-5.0,
1998.0,2094.0,19.0,-6.0,
1962.0,2038.0,19.0,-6.0,
1959.0,2010.0,19.0,-6.0,
2068.0,2015.0,20.0,-5.0,
2087.0,2156.0,20.0,-5.0,
2091.0,2174.0,20.0,-5.0,
2103.0,2135.0,20.0,-5.0,
2061.0,2062.0,20.0,-4.0,
2114.0,2027.0,20.0,-5.0,
2100.0,2134.0,20.0,-4.0,
2075.0,2087.0,20.0,-5.0,
2103.0,2098.0,19.0,-5.0,
2068.0,2027.0,19.0,-5.0,
2046.0,2076.0,19.0,-5.0,
2046.0,2006.0,19.0,-5.0,
2048.0,2124.0,19.0,-4.0,
2144.0,2236.0,19.0,-4.0,
2159.0,2071.0,19.0,-4.0,
2143.0,2015.0,19.0,-4.0,
2067.0,2001.0,19.0,-4.0,
2004.0,2063.0,19.0,-4.0,
2008.0,2184.0,18.0,-4.0,
2022.0,2104.0,18.0,-4.0,
2026.0,2138.0,18.0,-4.0,
2151.0,2148.0,18.0,-4.0,
2106.0,2090.0,18.0,-3.0,
2045.0,2026.0,18.0,-3.0,
2116.0,2067.0,17.0,-3.0,
2069.0,2062.0,18.0,-2.0,
2029.0,2025.0,17.0,-2.0,
2002.0,2031.0,17.0,-2.0,
2013.0,1995.0,17.0,-2.0,
2078.0,2019.0,17.0,-2.0,
2109.0,2006.0,17.0,-2.0,
2055.0,1957.0,16.0,-2.0,
2087.0,2013.0,17.0,-1.0,
2090.0,2133.0,17.0,-1.0,
2154.0,2254.0,17.0,-1.0,
2095.0,2159.0,17.0,-2.0,
2098.0,2097.0,17.0,-1.0,
2158.0,2252.0,17.0,0.0,
2275.0,2136.0,17.0,0.0,
2122.0,2103.0,18.0,0.0,
2086.0,2098.0,18.0,0.0,
2028.0,2098.0,18.0,0.0,
1816.0,2108.0,18.0,0.0,
1955.0,2046.0,18.0,0.0,
2080.0,2052.0,18.0,0.0,
2153.0,2086.0,18.0,0.0,
2078.0,2037.0,18.0,0.0,
2099.0,2072.0,18.0,0.0,
2095.0,2059.0,18.0,0.0,
2149.0,2071.0,18.0,1.0,
2242.0,2065.0,17.0,1.0,
2168.0,2069.0,17.0,0.0,
1899.0,2061.0,17.0,0.0,
1726.0,2026.0,16.0,1.0,
1881.0,2056.0,16.0,1.0,
1967.0,2050.0,16.0,1.0,
1938.0,2053.0,16.0,1.0,
2024.0,2057.0,16.0,1.0,
2099.0,2087.0,16.0,1.0,
2129.0,1986.0,15.0,1.0,
2098.0,2149.0,15.0,1.0,
2122.0,2409.0,15.0,1.0,
2136.0,2222.0,15.0,1.0,
2091.0,2119.0,15.0,1.0,
2075.0,1975.0,15.0,2.0,
2062.0,1953.0,15.0,2.0,
2109.0,1867.0,15.0,2.0,
2155.0,1941.0,16.0,3.0,
2033.0,2029.0,16.0,3.0,
2030.0,2221.0,16.0,3.0,
2057.0,2253.0,16.0,3.0,
2092.0,2126.0,16.0,4.0,
2165.0,2198.0,17.0,6.0,
2211.0,2068.0,17.0,6.0,
2216.0,2104.0,17.0,4.0,
2226.0,2149.0,17.0,5.0,
2111.0,2109.0,17.0,5.0,
2100.0,2115.0,17.0,5.0,
1988.0,2027.0,17.0,6.0,
1956.0,1952.0,17.0,6.0,
2044.0,1940.0,16.0,7.0,
1872.0,1969.0,16.0,6.0,
2092.0,2122.0,16.0,5.0,
2094.0,2066.0,15.0,6.0,
2271.0,2127.0,15.0,7.0,
2208.0,2105.0,15.0,7.0,
2010.0,2068.0,15.0,7.0,
1861.0,2063.0,15.0,7.0,
1900.0,2117.0,15.0,7.0,
2011.0,2099.0,15.0,7.0,
2256.0,2064.0,15.0,6.0,
2282.0,2056.0,15.0,7.0,
2225.0,2131.0,15.0,7.0,
1910.0,2131.0,15.0,7.0,
1762.0,2070.0,15.0,7.0,
1888.0,2067.0,15.0,8.0,
2133.0,2106.0,15.0,7.0,
2136.0,2115.0,15.0,7.0,
1958.0,2047.0,15.0,7.0,
2015.0,2038.0,15.0,7.0,
2035.0,2096.0,15.0,7.0,
2081.0,1980.0,16.0,8.0,
2118.0,1972.0,16.0,9.0,
2261.0,2179.0,16.0,9.0,
2297.0,2205.0,16.0,9.0,
2291.0,2144.0,16.0,9.0,
2090.0,2149.0,16.0,9.0,
2151.0,2233.0,15.0,10.0,
1775.0,2011.0,15.0,11.0,
1850.0,1967.0,16.0,11.0,
1990.0,2161.0,16.0,12.0,
2121.0,2075.0,16.0,11.0,
1959.0,2093.0,16.0,10.0,
1913.0,2029.0,16.0,11.0,
2091.0,1987.0,16.0,12.0,
2051.0,1881.0,17.0,12.0,
2067.0,2064.0,17.0,11.0,
2093.0,2293.0,17.0,11.0,
2213.0,2256.0,17.0,11.0,
2154.0,2098.0,17.0,11.0,
2280.0,2168.0,16.0,11.0,
2106.0,1884.0,16.0,12.0,
2229.0,2022.0,15.0,12.0,
2044.0,2178.0,15.0,12.0,
2015.0,2218.0,15.0,12.0,
1964.0,2160.0,15.0,14.0,
1946.0,2021.0,14.0,15.0,
1913.0,1926.0,14.0,14.0,
2073.0,2057.0,0,
2051.0,2015.0,12.0,14.0,
2023.0,1933.0,12.0,14.0,
2102.0,2051.0,12.0,14.0,
2201.0,2113.0,12.0,15.0,
2247.0,2114.0,12.0,16.0,
2278.0,2034.0,12.0,16.0,
2311.0,2020.0,11.0,14.0,
2285.0,2086.0,11.0,14.0,
1882.0,2181.0,11.0,14.0,
1894.0,2088.0,11.0,14.0,
1945.0,2050.0,12.0,15.0,
1985.0,1999.0,12.0,15.0,
2029.0,2100.0,12.0,15.0,
1741.0,2224.0,12.0,15.0,
2027.0,2278.0,12.0,15.0,
2116.0,2127.0,12.0,15.0,
2287.0,2125.0,12.0,15.0,
2386.0,2054.0,12.0,15.0,
2056.0,2009.0,12.0,15.0,
1947.0,1971.0,12.0,15.0,
1965.0,1865.0,12.0,15.0,
2100.0,1971.0,11.0,15.0,
2163.0,2283.0,11.0,15.0,
2192.0,2286.0,11.0,16.0,
1868.0,2151.0,11.0,16.0,
1729.0,2042.0,11.0,16.0,
1997.0,2057.0,11.0,16.0,
2060.0,2022.0,11.0,16.0,
2060.0,1984.0,11.0,17.0,
2093.0,1915.0,11.0,17.0,
1971.0,1941.0,11.0,17.0,
2074.0,2091.0,11.0,18.0,
2037.0,2126.0,11.0,18.0,
2048.0,2108.0,11.0,19.0,
2176.0,2503.0,11.0,19.0,
2078.0,2290.0,11.0,19.0,
2082.0,1959.0,10.0,19.0,
2167.0,1947.0,10.0,19.0,
2134.0,1773.0,10.0,19.0,
2078.0,1773.0,10.0,19.0,
2174.0,1957.0,9.0,20.0,
1882.0,2144.0,9.0,21.0,
1962.0,2146.0,9.0,21.0,
2111.0,2229.0,9.0,20.0,
2083.0,2052.0,9.0,21.0,
2058.0,2272.0,9.0,21.0,
2095.0,2269.0,10.0,21.0,
2245.0,1966.0,10.0,21.0,
2228.0,1964.0,9.0,21.0,
2261.0,2311.0,9.0,21.0,
2171.0,2023.0,9.0,21.0,
2391.0,2219.0,9.0,20.0,
2290.0,2468.0,9.0,21.0,
1968.0,2205.0,9.0,21.0,
1458.0,2029.0,9.0,21.0,
2089.0,2107.0,9.0,21.0,
1923.0,2043.0,8.0,22.0,
1970.0,2052.0,8.0,22.0,
1960.0,2023.0,8.0,22.0,
2087.0,2062.0,8.0,22.0,
2034.0,2028.0,8.0,21.0,
2271.0,1961.0,7.0,21.0,
1892.0,1995.0,7.0,21.0,
2298.0,2039.0,7.0,20.0,
2456.0,2032.0,7.0,20.0,
2388.0,2049.0,7.0,20.0,
2091.0,2063.0,0,
1650.0,1968.0,7.0,21.0,
1704.0,1971.0,7.0,21.0,
1866.0,1987.0,7.0,21.0,
1923.0,2036.0,7.0,22.0,
2101.0,2092.0,7.0,22.0,
2112.0,2136.0,7.0,23.0,
2011.0,2118.0,7.0,22.0,
2162.0,2096.0,7.0,23.0,
2231.0,2097.0,7.0,23.0,
2272.0,1999.0,7.0,24.0,
2007.0,1956.0,8.0,24.0,
2069.0,2001.0,8.0,23.0,
2078.0,2307.0,8.0,24.0,
1760.0,2022.0,8.0,24.0,
1985.0,1944.0,9.0,24.0,
2039.0,1986.0,9.0,24.0,
2050.0,2028.0,9.0,25.0,
2028.0,2067.0,9.0,25.0,
1983.0,2366.0,10.0,25.0,
2264.0,2219.0,9.0,25.0,
2293.0,1888.0,9.0,26.0,
2382.0,2308.0,9.0,25.0,
2330.0,2054.0,9.0,26.0,
2007.0,2241.0,9.0,26.0,
2073.0,1847.0,9.0,26.0,
2248.0,2061.0,9.0,26.0,
1926.0,2601.0,9.0,26.0,
2132.0,2394.0,8.0,26.0,
1632.0,2260.0,8.0,27.0,
1899.0,2110.0,8.0,26.0,
2302.0,1989.0,8.0,26.0,
2169.0,2037.0,9.0,26.0,
1988.0,1867.0,8.0,26.0,
1820.0,1812.0,8.0,26.0,
2189.0,2108.0,8.0,26.0,
2348.0,1871.0,8.0,26.0,
2409.0,2116.0,8.0,26.0,
2473.0,2189.0,8.0,26.0,
1708.0,2087.0,7.0,26.0,
1960.0,2124.0,7.0,26.0,
2379.0,2210.0,7.0,26.0,
1787.0,2137.0,7.0,27.0,
1562.0,1891.0,7.0,26.0,
1799.0,1993.0,8.0,27.0,
2025.0,2179.0,7.0,27.0,
1715.0,2105.0,7.0,27.0,
2010.0,2176.0,8.0,27.0,
1939.0,2160.0,8.0,27.0,
1964.0,2096.0,8.0,28.0,
2105.0,2041.0,8.0,28.0,
2381.0,2016.0,8.0,27.0,
2205.0,2061.0,7.0,28.0,
2001.0,1996.0,7.0,28.0,
2077.0,2049.0,7.0,29.0,
2514.0,1993.0,7.0,29.0,
2083.0,2010.0,6.0,29.0,
1825.0,1906.0,7.0,29.0,
2019.0,1982.0,7.0,30.0,
2172.0,2023.0,8.0,30.0,
2076.0,1956.0,8.0,30.0,
2180.0,1783.0,8.0,31.0,
2203.0,1958.0,0,
2281.0,2148.0,9.0,31.0,
2261.0,2804.0,10.0,31.0,
1929.0,2297.0,10.0,31.0,
2011.0,2513.0,10.0,32.0,
2244.0,2246.0,11.0,32.0,
2113.0,2230.0,11.0,32.0,
1948.0,2268.0,11.0,32.0,
1973.0,2043.0,11.0,32.0,
2425.0,1892.0,11.0,32.0,
2005.0,1939.0,11.0,32.0,
1666.0,2158.0,12.0,32.0,
1950.0,1963.0,12.0,32.0,
1802.0,1820.0,12.0,31.0,
2253.0,1985.0,13.0,31.0,
2099.0,1951.0,13.0,31.0,
2335.0,2136.0,13.0,30.0,
2768.0,2382.0,13.0,29.0,
1991.0,1976.0,13.0,30.0,
1715.0,1896.0,13.0,30.0,
1764.0,2213.0,13.0,29.0,
1711.0,2008.0,12.0,29.0,
2186.0,2121.0,12.0,29.0,
2424.0,2252.0,12.0,29.0,
2088.0,2336.0,12.0,28.0,
1823.0,2095.0,12.0,28.0,
2323.0,1972.0,12.0,29.0,
1860.0,2092.0,11.0,28.0,
1689.0,1961.0,11.0,28.0,
2011.0,1905.0,11.0,28.0,
2091.0,2084.0,11.0,28.0,
1913.0,1983.0,10.0,28.0,
2093.0,1859.0,10.0,28.0,
2192.0,2034.0,10.0,28.0,
2230.0,2094.0,9.0,28.0,
2376.0,2155.0,9.0,28.0,
1987.0,2125.0,8.0,29.0,
1897.0,2065.0,8.0,29.0,
2179.0,1933.0,8.0,29.0,
2139.0,2040.0,8.0,29.0,
2151.0,2004.0,8.0,30.0,
2083.0,2191.0,8.0,30.0,
2072.0,2283.0,8.0,31.0,
2086.0,2369.0,7.0,31.0,
2162.0,2125.0,8.0,31.0,
2444.0,2113.0,8.0,31.0,
2215.0,2214.0,8.0,32.0,
1606.0,1956.0,8.0,32.0,
2281.0,2092.0,8.0,32.0,
2480.0,2266.0,8.0,32.0,
1621.0,2264.0,8.0,33.0,
1822.0,2097.0,8.0,32.0,
1840.0,2050.0,8.0,33.0,
1897.0,1990.0,9.0,33.0,
2258.0,1844.0,9.0,33.0,
2051.0,1918.0,9.0,33.0,
2177.0,1968.0,9.0,32.0,
1926.0,2001.0,9.0,32.0,
1954.0,1993.0,9.0,32.0,
1922.0,1975.0,9.0,33.0,
2262.0,1993.0,10.0,32.0,
2130.0,1960.0,9.0,33.0,
2102.0,2550.0,9.0,32.0,
2308.0,2233.0,9.0,32.0,
2159.0,2101.0,9.0,32.0,
2547.0,2177.0,9.0,32.0,
1602.0,2117.0,9.0,33.0,
1762.0,1817.0,9.0,32.0,
1895.0,1845.0,9.0,32.0,
1996.0,2098.0,9.0,32.0,
1979.0,2404.0,9.0,32.0,
2198.0,2368.0,9.0,32.0,
2201.0,2170.0,10.0,32.0,
2225.0,2046.0,10.0,32.0,
2179.0,2011.0,9.0,32.0,
2163.0,2103.0,10.0,31.0,
2204.0,2000.0,10.0,31.0,
2253.0,2027.0,9.0,32.0,
1763.0,2064.0,9.0,32.0,
1745.0,2036.0,9.0,32.0,
2197.0,2093.0,9.0,32.0,
2073.0,1983.0,9.0,32.0,
2218.0,2029.0,9.0,32.0,
2013.0,1984.0,9.0,32.0,
1971.0,1893.0,9.0,32.0,
1912.0,1973.0,9.0,32.0,
2016.0,1813.0,9.0,32.0,
2384.0,2235.0,9.0,32.0,
2357.0,2289.0,9.0,32.0,
1826.0,2065.0,9.0,32.0,
1624.0,2114.0,9.0,32.0,
2025.0,1988.0,9.0,32.0,
2078.0,1916.0,9.0,32.0,
2331.0,2589.0,9.0,32.0,
2112.0,2514.0,9.0,32.0,
2051.0,2089.0,9.0,32.0,
2115.0,1891.0,8.0,33.0,
2112.0,2115.0,8.0,33.0,
2128.0,2326.0,8.0,33.0,
2189.0,2190.0,8.0,33.0,
2043.0,2061.0,8.0,33.0,
2162.0,2197.0,7.0,34.0,
1994.0,1848.0,7.0,34.0,
1906.0,1826.0,7.0,34.0,
2002.0,2002.0,6.0,34.0,
2283.0,2371.0,6.0,34.0,
2186.0,2246.0,6.0,34.0,
1537.0,2158.0,6.0,34.0,
2089.0,2118.0,6.0,35.0,
2282.0,1858.0,7.0,34.0,
2778.0,1750.0,7.0,35.0,
2007.0,1832.0,7.0,35.0,
1714.0,1713.0,7.0,35.0,
1746.0,1861.0,7.0,35.0,
1831.0,2084.0,7.0,34.0,
2038.0,2570.0,7.0,35.0,
2136.0,2320.0,7.0,35.0,
1825.0,2205.0,7.0,35.0,
2018.0,1849.0,7.0,34.0,
2017.0,2102.0,7.0,35.0,
2187.0,2223.0,7.0,34.0,
2181.0,1730.0,7.0,35.0,
2280.0,1846.0,7.0,35.0,
2154.0,2255.0,7.0,35.0,
2140.0,2426.0,8.0,35.0,
2077.0,2484.0,8.0,35.0,
2162.0,2101.0,8.0,35.0,
2287.0,2065.0,8.0,35.0,
2349.0,2061.0,8.0,35.0,
1772.0,2037.0,7.0,35.0,
1746.0,2093.0,7.0,35.0,
2025.0,2208.0,7.0,35.0,
2106.0,1853.0,7.0,35.0,
2120.0,1876.0,7.0,35.0,
1961.0,1899.0,7.0,35.0,
2074.0,1824.0,7.0,35.0,
2295.0,1872.0,8.0,35.0,
2196.0,2058.0,8.0,35.0,
2118.0,1915.0,8.0,35.0,
2067.0,2224.0,8.0,35.0,
2240.0,2621.0,8.0,35.0,
1621.0,2286.0,8.0,35.0,
1764.0,1930.0,8.0,35.0,
2191.0,1874.0,8.0,35.0,
1993.0,2212.0,8.0,35.0,
1997.0,2199.0,8.0,35.0,
1945.0,1835.0,8.0,35.0,
2094.0,2324.0,8.0,35.0,
2044.0,2159.0,9.0,34.0,
2138.0,2117.0,9.0,35.0,
2166.0,1951.0,9.0,35.0,
2136.0,1890.0,8.0,34.0,
2304.0,1861.0,8.0,34.0,
2016.0,2272.0,8.0,34.0,
2134.0,2116.0,8.0,34.0,
2188.0,2029.0,8.0,34.0,
1874.0,2069.0,7.0,34.0,
1944.0,2250.0,7.0,34.0,
2657.0,2153.0,7.0,34.0,
2501.0,2110.0,7.0,34.0,
1658.0,2034.0,7.0,34.0,
1788.0,2057.0,8.0,34.0,
2267.0,1897.0,8.0,34.0,
2219.0,1941.0,8.0,34.0,
1874.0,1906.0,8.0,34.0,
1627.0,2076.0,8.0,34.0,
2159.0,2343.0,8.0,34.0,
2276.0,2603.0,8.0,34.0,
2127.0,2339.0,8.0,34.0,
1995.0,1822.0,8.0,34.0,
2008.0,2243.0,8.0,35.0,
1865.0,2093.0,8.0,35.0,
1968.0,2005.0,8.0,35.0,
2227.0,1872.0,8.0,35.0,
2204.0,2113.0,8.0,35.0,
2098.0,2008.0,8.0,35.0,
2189.0,1847.0,8.0,35.0,
2019.0,1851.0,8.0,35.0,
1928.0,1920.0,8.0,35.0,
2035.0,2400.0,8.0,35.0,
2040.0,2402.0,8.0,35.0,
2131.0,2194.0,8.0,35.0,
2196.0,1980.0,8.0,35.0,
2212.0,2026.0,8.0,35.0,
2002.0,2040.0,8.0,35.0,
1963.0,2080.0,8.0,35.0,
2024.0,1970.0,8.0,35.0,
2048.0,1944.0,8.0,35.0,
2028.0,1983.0,8.0,35.0,
2254.0,2014.0,8.0,35.0,
2129.0,2267.0,8.0,35.0,
2092.0,2237.0,8.0,35.0,
2110.0,2072.0,8.0,35.0,
1904.0,2068.0,8.0,35.0,
2110.0,2058.0,8.0,35.0,
1988.0,2174.0,8.0,35.0,
1925.0,2018.0,8.0,35.0,
2155.0,2192.0,8.0,35.0,
2058.0,2145.0,8.0,35.0,
2258.0,2073.0,8.0,35.0,
2134.0,2075.0,8.0,35.0,
1997.0,1858.0,7.0,35.0,
2190.0,2111.0,7.0,35.0,
2075.0,2287.0,7.0,35.0,
2086.0,2101.0,7.0,35.0,
2236.0,1945.0,7.0,35.0,
2119.0,1922.0,6.0,35.0,
2126.0,2057.0,6.0,35.0,
2064.0,2277.0,6.0,35.0,
1789.0,2206.0,6.0,34.0,
1984.0,2038.0,6.0,34.0,
2110.0,1966.0,6.0,34.0,
2517.0,1972.0,6.0,34.0,
2107.0,2061.0,7.0,34.0,
1751.0,2088.0,7.0,34.0,
1921.0,2001.0,7.0,34.0,
2172.0,2013.0,7.0,34.0,
1937.0,2105.0,7.0,34.0,
2083.0,2025.0,7.0,34.0,
2254.0,2048.0,7.0,35.0,
2003.0,2131.0,7.0,35.0,
1941.0,2113.0,7.0,35.0,
2087.0,2134.0,8.0,35.0,
2384.0,2142.0,8.0,35.0,
1908.0,2150.0,8.0,35.0,
2226.0,2167.0,8.0,35.0,
2293.0,2273.0,8.0,35.0,
1653.0,2014.0,8.0,35.0,
1952.0,2269.0,8.0,35.0,
1858.0,2104.0,9.0,35.0,
2014.0,1886.0,9.0,35.0,
2141.0,1708.0,9.0,35.0,
1872.0,1744.0,9.0,35.0,
2210.0,2295.0,9.0,35.0,
2413.0,2208.0,9.0,35.0,
2060.0,1982.0,9.0,35.0,
1970.0,2125.0,9.0,35.0,
2162.0,2436.0,9.0,35.0,
1787.0,2041.0,8.0,35.0,
2208.0,2186.0,8.0,35.0,
2082.0,1995.0,8.0,35.0,
2224.0,2283.0,8.0,35.0,
2100.0,2089.0,8.0,35.0,
1872.0,2082.0,7.0,35.0,
1941.0,1979.0,7.0,35.0,
1956.0,1967.0,7.0,35.0,
2101.0,2292.0,7.0,35.0,
2143.0,2203.0,7.0,35.0,
2092.0,1855.0,7.0,35.0,
2161.0,1811.0,7.0,35.0,
2372.0,1825.0,7.0,35.0,
2037.0,2299.0,7.0,35.0,
2181.0,2203.0,7.0,35.0,
2103.0,2055.0,7.0,35.0,
2384.0,1956.0,7.0,35.0,
1731.0,1889.0,7.0,35.0,
2019.0,1880.0,7.0,35.0,
2105.0,2049.0,7.0,35.0,
2059.0,2172.0,7.0,35.0,
2217.0,2486.0,8.0,35.0,
2184.0,2281.0,8.0,35.0,
2190.0,2191.0,8.0,35.0,
1612.0,2123.0,8.0,35.0,
2303.0,1975.0,8.0,35.0,
2069.0,1987.0,8.0,36.0,
2028.0,2120.0,8.0,36.0,
1924.0,2219.0,8.0,36.0,
2005.0,2062.0,9.0,36.0,
2288.0,1988.0,9.0,36.0,
1889.0,1939.0,9.0,36.0,
1963.0,2062.0,9.0,36.0,
1742.0,1968.0,9.0,36.0,
2096.0,2140.0,9.0,36.0,
1851.0,2236.0,9.0,36.0,
2214.0,2074.0,9.0,36.0,
2135.0,1890.0,9.0,36.0,
2436.0,1992.0,9.0,35.0,
2003.0,2084.0,9.0,35.0,
2096.0,2391.0,9.0,35.0,
1783.0,1998.0,9.0,35.0,
2016.0,2020.0,9.0,35.0,
2013.0,1875.0,9.0,35.0,
2021.0,2103.0,8.0,35.0,
2250.0,2192.0,8.0,35.0,
2212.0,2445.0,8.0,35.0,
2074.0,2272.0,8.0,35.0,
2104.0,2193.0,8.0,35.0,
2144.0,2236.0,7.0,35.0,
2052.0,2133.0,7.0,35.0,
2066.0,2140.0,7.0,35.0,
2090.0,1973.0,7.0,35.0,
2049.0,1942.0,7.0,35.0,
2156.0,1907.0,7.0,35.0,
2052.0,1767.0,7.0,35.0,
2029.0,1843.0,7.0,35.0,
2113.0,1958.0,7.0,35.0,
2141.0,2395.0,7.0,35.0,
2132.0,2332.0,7.0,35.0,
2041.0,2046.0,7.0,35.0,
2213.0,1913.0,7.0,35.0,
2433.0,1868.0,7.0,35.0,
1750.0,2174.0,7.0,35.0,
1908.0,2052.0,7.0,35.0,
2252.0,2187.0,7.0,35.0,
2144.0,2124.0,7.0,35.0,
2115.0,2109.0,7.0,35.0,
2232.0,2275.0,8.0,35.0,
1895.0,2191.0,8.0,35.0,
1736.0,1957.0,8.0,36.0,
2105.0,2044.0,9.0,36.0,
2140.0,2102.0,9.0,36.0,
2300.0,2266.0,9.0,36.0,
1964.0,2095.0,9.0,35.0,
1736.0,1987.0,9.0,35.0,
2239.0,2072.0,9.0,35.0,
2277.0,1994.0,9.0,35.0,
1730.0,1811.0,9.0,35.0,
1685.0,2156.0,9.0,35.0,
2104.0,2206.0,9.0,36.0,
2306.0,2199.0,9.0,36.0,
1753.0,2262.0,9.0,36.0,
2452.0,2059.0,9.0,36.0,
2116.0,2058.0,9.0,36.0,
2020.0,2043.0,9.0,36.0,
1873.0,1892.0,9.0,36.0,
1848.0,1812.0,8.0,36.0,
2051.0,2191.0,8.0,36.0,
2173.0,2007.0,8.0,36.0,
2040.0,2138.0,8.0,36.0,
2155.0,2335.0,8.0,35.0,
2346.0,2032.0,8.0,35.0,
2363.0,2135.0,8.0,35.0,
2097.0,2215.0,8.0,35.0,
1712.0,2090.0,8.0,35.0,
1995.0,2029.0,8.0,35.0,
2123.0,2038.0,8.0,35.0,
2018.0,1720.0,8.0,35.0,
2093.0,1891.0,8.0,35.0,
2072.0,2144.0,8.0,35.0,
2139.0,2289.0,8.0,35.0,
2120.0,2236.0,7.0,35.0,
2131.0,1930.0,7.0,35.0,
1994.0,1675.0,6.0,35.0,
2207.0,2164.0,6.0,36.0,
2544.0,2607.0,6.0,36.0,
2316.0,2130.0,6.0,36.0,
1718.0,1866.0,6.0,36.0,
1830.0,1897.0,7.0,36.0,
1996.0,1969.0,7.0,36.0,
2194.0,2375.0,8.0,36.0,
1965.0,2446.0,8.0,36.0,
2112.0,2323.0,8.0,36.0,
2200.0,2195.0,9.0,36.0,
2225.0,2051.0,9.0,35.0,
1832.0,2014.0,10.0,35.0,
1783.0,1893.0,9.0,35.0,
2316.0,1872.0,9.0,35.0,
2049.0,1897.0,9.0,35.0,
2090.0,1818.0,9.0,35.0,
2260.0,2189.0,9.0,35.0,
1877.0,2152.0,9.0,35.0,
1870.0,2131.0,9.0,35.0,
2280.0,2053.0,9.0,35.0,
2104.0,2012.0,9.0,35.0,
1881.0,2128.0,9.0,35.0,
1980.0,1881.0,9.0,36.0,
2031.0,2031.0,8.0,36.0,
2203.0,2606.0,8.0,36.0,
2141.0,2110.0,8.0,36.0,
2242.0,2302.0,8.0,36.0,
1695.0,2317.0,8.0,36.0,
1847.0,1981.0,7.0,36.0,
2297.0,2011.0,7.0,36.0,
2135.0,2136.0,7.0,36.0,
1962.0,2113.0,7.0,36.0,
1962.0,1933.0,7.0,36.0,
2078.0,1997.0,7.0,35.0,
1868.0,2022.0,7.0,35.0,
2376.0,1731.0,7.0,35.0,
2168.0,1649.0,7.0,35.0,
1952.0,1869.0,7.0,35.0,
2040.0,2235.0,7.0,35.0,
1926.0,2501.0,7.0,35.0,
2194.0,2630.0,7.0,35.0,
2156.0,2197.0,7.0,35.0,
2166.0,2010.0,7.0,35.0,
2052.0,2060.0,7.0,35.0,
2042.0,2046.0,7.0,35.0,
2117.0,1903.0,7.0,35.0,
2132.0,2179.0,7.0,35.0,
2218.0,2098.0,7.0,35.0,
2172.0,2113.0,7.0,35.0,
1954.0,1914.0,7.0,35.0,
2133.0,1864.0,7.0,35.0,
2160.0,2105.0,7.0,35.0,
2209.0,2492.0,7.0,35.0,
1863.0,2095.0,7.0,35.0,
2112.0,2073.0,8.0,35.0,
1895.0,2031.0,8.0,35.0,
1864.0,2068.0,8.0,35.0,
2168.0,2093.0,8.0,35.0,
2060.0,2046.0,8.0,35.0,
2200.0,2082.0,8.0,35.0,
1892.0,2080.0,8.0,35.0,
1826.0,1796.0,8.0,36.0,
2012.0,1766.0,8.0,36.0,
2316.0,2076.0,8.0,36.0,
2277.0,2225.0,8.0,36.0,
2222.0,2624.0,8.0,36.0,
1475.0,2332.0,8.0,36.0,
2066.0,2079.0,8.0,36.0,
2469.0,2016.0,8.0,36.0,
1985.0,1966.0,8.0,36.0,
1851.0,1872.0,8.0,36.0,
1919.0,2091.0,8.0,36.0,
2194.0,2259.0,8.0,36.0,
1970.0,2302.0,8.0,36.0,
2206.0,2240.0,8.0,36.0,
2405.0,1988.0,9.0,36.0,
2186.0,1876.0,0,
1715.0,1886.0,9.0,36.0,
1896.0,2064.0,9.0,36.0,
1746.0,1924.0,9.0,36.0,
1963.0,2086.0,9.0,36.0,
2112.0,2074.0,8.0,36.0,
2098.0,2210.0,8.0,36.0,
2104.0,2219.0,8.0,36.0,
2170.0,1942.0,8.0,36.0,
2180.0,2171.0,8.0,35.0,
2204.0,2159.0,8.0,35.0,
2213.0,2006.0,8.0,35.0,
2159.0,2029.0,8.0,35.0,
2070.0,2075.0,8.0,35.0,
2248.0,2146.0,8.0,35.0,
1865.0,2101.0,8.0,35.0,
2125.0,2058.0,8.0,35.0,
1951.0,2004.0,8.0,35.0,
1886.0,2009.0,7.0,35.0,
2027.0,2029.0,7.0,35.0,
2219.0,2240.0,7.0,35.0,
1981.0,2335.0,7.0,35.0,
2012.0,2277.0,7.0,35.0,
2335.0,2014.0,7.0,35.0,
2373.0,2070.0,7.0,35.0,
1634.0,1798.0,7.0,35.0,
1951.0,1835.0,7.0,35.0,
2330.0,2113.0,7.0,35.0,
2038.0,2173.0,7.0,35.0,
1864.0,1981.0,7.0,35.0,
2027.0,2090.0,7.0,35.0,
2150.0,2045.0,8.0,35.0,
2402.0,1970.0,7.0,35.0,
2284.0,2449.0,7.0,35.0,
2061.0,2526.0,8.0,36.0,
2296.0,2088.0,8.0,36.0,
2173.0,1910.0,8.0,36.0,
1916.0,1994.0,8.0,36.0,
1876.0,1916.0,8.0,36.0,
1617.0,1791.0,8.0,36.0,
1879.0,1923.0,8.0,36.0,
2050.0,1975.0,8.0,36.0,
1802.0,2069.0,8.0,36.0,
2106.0,2323.0,9.0,36.0,
2114.0,2101.0,9.0,36.0,
2270.0,2233.0,9.0,36.0,
2263.0,2185.0,9.0,36.0,
1865.0,2107.0,9.0,36.0,
2092.0,2215.0,9.0,36.0,
2173.0,1937.0,9.0,36.0,
2075.0,1842.0,9.0,36.0,
2094.0,1666.0,9.0,36.0,
1932.0,2072.0,9.0,36.0,
2146.0,1932.0,9.0,36.0,
2239.0,2475.0,8.0,36.0,
2353.0,2353.0,8.0,36.0,
1854.0,2101.0,8.0,36.0,
1736.0,2007.0,8.0,36.0,
2048.0,2476.0,8.0,35.0,
2188.0,2253.0,8.0,35.0,
2280.0,2155.0,8.0,35.0,
2159.0,1995.0,8.0,35.0,
1881.0,1970.0,8.0,35.0,
1964.0,1859.0,8.0,35.0,
2083.0,1716.0,8.0,35.0,
2070.0,1995.0,8.0,35.0,
2217.0,2728.0,8.0,35.0,
2319.0,2138.0,7.0,35.0,
1929.0,2042.0,7.0,35.0,
2173.0,1989.0,7.0,35.0,
2146.0,2028.0,7.0,35.0,
2077.0,1870.0,7.0,35.0,
2018.0,2148.0,6.0,35.0,
2023.0,1879.0,6.0,36.0,
1901.0,1894.0,6.0,36.0,
1992.0,2197.0,6.0,36.0,
2007.0,2212.0,7.0,36.0,
1994.0,2293.0,7.0,36.0,
2256.0,1941.0,8.0,36.0,
2318.0,1946.0,8.0,36.0,
1840.0,2096.0,8.0,36.0,
2020.0,2203.0,8.0,36.0,
2084.0,2006.0,8.0,36.0,
2049.0,2052.0,8.0,36.0,
2101.0,2010.0,8.0,35.0,
2150.0,2162.0,8.0,35.0,
2341.0,1754.0,7.0,35.0,
2470.0,2065.0,7.0,35.0,
2195.0,2313.0,7.0,35.0,
1762.0,2000.0,7.0,35.0,
1846.0,2250.0,7.0,36.0,
1966.0,2070.0,7.0,36.0,
1758.0,2109.0,8.0,36.0,
2171.0,2208.0,8.0,36.0,
2208.0,2170.0,8.0,36.0,
2138.0,2060.0,9.0,35.0,
2366.0,2095.0,9.0,35.0,
2032.0,2100.0,9.0,35.0,
1792.0,2007.0,9.0,35.0,
2024.0,1968.0,9.0,35.0,
2210.0,2040.0,8.0,35.0,
1964.0,2045.0,8.0,35.0,
1695.0,1912.0,8.0,36.0,
2053.0,2064.0,8.0,36.0,
2284.0,2218.0,8.0,36.0,
2197.0,2207.0,8.0,36.0,
1937.0,2230.0,9.0,36.0,
1838.0,2172.0,9.0,36.0,
1992.0,1945.0,9.0,36.0,
2017.0,1943.0,9.0,36.0,
2073.0,2072.0,8.0,36.0,
2189.0,1828.0,8.0,36.0,
2134.0,1909.0,8.0,36.0,
2042.0,2229.0,8.0,36.0,
2079.0,2345.0,8.0,36.0,
2089.0,2132.0,8.0,36.0,
2082.0,2140.0,8.0,36.0,
2090.0,2166.0,8.0,36.0,
2232.0,2129.0,8.0,36.0,
2445.0,1963.0,7.0,36.0,
2459.0,2011.0,7.0,36.0,
1573.0,1978.0,7.0,36.0,
2106.0,2158.0,7.0,36.0,
2054.0,2252.0,7.0,35.0,
1997.0,1905.0,7.0,35.0,
2072.0,1750.0,7.0,35.0,
1822.0,1703.0,7.0,35.0,
1992.0,2250.0,7.0,35.0,
2194.0,2330.0,7.0,35.0,
2129.0,2362.0,7.0,35.0,
1943.0,2194.0,7.0,35.0,
2230.0,2125.0,7.0,35.0,
2217.0,1957.0,7.0,35.0,
1777.0,1917.0,7.0,36.0,
2243.0,2070.0,7.0,36.0,
2051.0,2072.0,7.0,36.0,
2019.0,2191.0,7.0,36.0,
2136.0,2188.0,7.0,36.0,
1878.0,2095.0,7.0,36.0,
2091.0,2023.0,7.0,36.0,
2150.0,1964.0,8.0,36.0,
1915.0,2215.0,8.0,36.0,
2068.0,2058.0,8.0,36.0,
2068.0,2117.0,8.0,36.0,
2038.0,2074.0,8.0,36.0,
2014.0,1839.0,8.0,36.0,
2056.0,1985.0,9.0,36.0,
2158.0,2018.0,9.0,36.0,
2241.0,2055.0,9.0,36.0,
1952.0,2025.0,9.0,36.0,
2317.0,2193.0,9.0,36.0,
2282.0,2236.0,9.0,36.0,
1570.0,2219.0,9.0,36.0,
2128.0,2061.0,9.0,36.0,
2004.0,1968.0,9.0,35.0,
1888.0,2055.0,9.0,35.0,
2017.0,2129.0,9.0,36.0,
2092.0,1890.0,9.0,36.0,
2115.0,2019.0,9.0,36.0,
2065.0,2333.0,9.0,36.0,
2024.0,2275.0,9.0,36.0,
2263.0,2159.0,9.0,36.0,
2379.0,2015.0,9.0,36.0,
2114.0,2087.0,8.0,36.0,
1969.0,2066.0,8.0,36.0,
1890.0,2026.0,8.0,36.0,
2042.0,2069.0,8.0,36.0,
2232.0,1762.0,8.0,36.0,
2025.0,2013.0,8.0,36.0,
1866.0,2413.0,8.0,36.0,
1962.0,2149.0,8.0,36.0,
2073.0,2060.0,8.0,36.0,
2084.0,1825.0,8.0,36.0,
2228.0,1886.0,8.0,36.0,
1894.0,2214.0,7.0,36.0,
2064.0,2151.0,7.0,36.0,
2103.0,2143.0,7.0,36.0,
2151.0,2198.0,7.0,36.0,
2155.0,2008.0,7.0,36.0,
1997.0,1999.0,7.0,36.0,
2040.0,2020.0,7.0,36.0,
2141.0,2214.0,7.0,35.0,
2048.0,2138.0,7.0,35.0,
2066.0,2120.0,7.0,35.0,
2094.0,2043.0,7.0,35.0,
2123.0,2074.0,7.0,35.0,
2362.0,2127.0,7.0,35.0,
2229.0,2127.0,7.0,35.0,
1928.0,1985.0,7.0,35.0,
1934.0,2017.0,7.0,35.0,
2092.0,1874.0,7.0,35.0,
2104.0,1800.0,7.0,35.0,
2019.0,2002.0,7.0,35.0,
1983.0,2448.0,7.0,35.0,
1995.0,2273.0,8.0,35.0,
1953.0,2493.0,8.0,35.0,
1990.0,2184.0,8.0,35.0,
2043.0,2010.0,8.0,35.0,
2094.0,1990.0,8.0,35.0,
2216.0,1894.0,9.0,35.0,
2219.0,2086.0,9.0,35.0,
2324.0,2092.0,9.0,35.0,
1991.0,2117.0,9.0,35.0,
2068.0,2010.0,9.0,34.0,
1680.0,2022.0,9.0,34.0,
2153.0,2107.0,9.0,34.0,
2184.0,2093.0,9.0,34.0,
2069.0,2048.0,9.0,34.0,
1790.0,2125.0,9.0,34.0,
1792.0,2022.0,9.0,35.0,
1951.0,1923.0,9.0,35.0,
2156.0,2030.0,8.0,35.0,
2141.0,2046.0,8.0,35.0,
2136.0,1853.0,8.0,35.0,
2001.0,2103.0,8.0,35.0,
2112.0,2199.0,8.0,36.0,
2106.0,2174.0,8.0,36.0,
2261.0,2180.0,8.0,36.0,
2182.0,2140.0,7.0,36.0,
2009.0,2277.0,8.0,36.0,
2101.0,2089.0,8.0,36.0,
2068.0,1994.0,8.0,36.0,
2063.0,1963.0,7.0,36.0,
2170.0,2120.0,7.0,36.0,
2124.0,2121.0,7.0,36.0,
2123.0,2230.0,7.0,36.0,
2094.0,2354.0,8.0,36.0,
2003.0,2092.0,8.0,36.0,
2137.0,1880.0,8.0,36.0,
2207.0,1992.0,8.0,36.0,
2046.0,2040.0,8.0,36.0,
2076.0,2120.0,8.0,36.0,
2322.0,2279.0,8.0,36.0,
1742.0,1978.0,8.0,36.0,
1853.0,2289.0,8.0,36.0,
1956.0,1995.0,8.0,37.0,
2101.0,1993.0,8.0,34.0,
2117.0,2238.0,8.0,31.0,
1988.0,2041.0,8.0,30.0,
2140.0,1860.0,7.0,30.0,
2076.0,2157.0,8.0,30.0,
1924.0,2077.0,8.0,30.0,
2070.0,2068.0,8.0,30.0,
2080.0,1932.0,8.0,30.0,
2117.0,2066.0,8.0,30.0,
2156.0,2291.0,7.0,29.0,
2104.0,2149.0,8.0,31.0,
2104.0,1913.0,8.0,35.0,
2035.0,2023.0,8.0,35.0,
2088.0,2069.0,9.0,35.0,
2071.0,2045.0,9.0,36.0,
2074.0,2010.0,9.0,35.0,
2134.0,2063.0,9.0,35.0,
2059.0,2194.0,9.0,35.0,
2075.0,2059.0,9.0,35.0,
2179.0,2026.0,9.0,35.0,
2255.0,1977.0,9.0,35.0,
1808.0,2280.0,9.0,35.0,
2042.0,2013.0,9.0,35.0,
2106.0,2047.0,9.0,36.0,
2017.0,2193.0,8.0,33.0,
2242.0,2037.0,8.0,34.0,
2106.0,1936.0,8.0,34.0,
2325.0,2088.0,8.0,34.0,
2116.0,2264.0,8.0,35.0,
1896.0,2185.0,8.0,34.0,
2236.0,2101.0,8.0,34.0,
1769.0,2004.0,8.0,34.0,
1661.0,1895.0,8.0,33.0,
2005.0,2259.0,8.0,31.0,
2314.0,2182.0,8.0,34.0,
2145.0,2289.0,8.0,34.0,
1996.0,2005.0,8.0,34.0,
1740.0,1940.0,8.0,34.0,
2034.0,2112.0,8.0,33.0,
2066.0,2284.0,8.0,34.0,
2091.0,2045.0,8.0,35.0,
2184.0,2169.0,8.0,35.0,
2157.0,2051.0,8.0,36.0,
1963.0,1953.0,8.0,36.0,
2062.0,2121.0,7.0,35.0,
2113.0,2238.0,7.0,35.0,
2130.0,1994.0,7.0,35.0,
2133.0,1926.0,7.0,36.0,
2118.0,2023.0,7.0,36.0,
2105.0,2098.0,6.0,36.0,
2085.0,1959.0,6.0,35.0,
2051.0,1883.0,6.0,35.0,
2110.0,1996.0,6.0,34.0,
2110.0,1981.0,6.0,34.0,
2120.0,2220.0,6.0,35.0,
2074.0,2103.0,7.0,35.0,
2065.0,2115.0,7.0,35.0,
2145.0,2066.0,7.0,34.0,
2134.0,2186.0,7.0,34.0,
2092.0,2195.0,7.0,34.0,
2037.0,2234.0,7.0,34.0,
1933.0,2017.0,7.0,34.0,
1970.0,1979.0,8.0,34.0,
1974.0,2023.0,7.0,35.0,
2135.0,2124.0,7.0,33.0,
2125.0,2076.0,7.0,33.0,
2308.0,2064.0,7.0,33.0,
2319.0,2037.0,8.0,33.0,
2179.0,2024.0,8.0,33.0,
1811.0,2222.0,8.0,33.0,
1639.0,2152.0,8.0,32.0,
2043.0,2117.0,8.0,32.0,
2153.0,2168.0,7.0,32.0,
1915.0,2075.0,8.0,31.0,
2029.0,2212.0,8.0,32.0,
2054.0,1963.0,8.0,33.0,
2131.0,1987.0,8.0,32.0,
2120.0,1998.0,8.0,32.0,
2066.0,2165.0,8.0,32.0,
2176.0,2123.0,8.0,32.0,
2084.0,2093.0,8.0,33.0,
1981.0,2134.0,8.0,34.0,
2081.0,2028.0,8.0,34.0,
1993.0,2156.0,8.0,34.0,
2018.0,2013.0,7.0,34.0,
2102.0,2035.0,7.0,34.0,
2080.0,2009.0,7.0,35.0,
2084.0,2085.0,7.0,35.0,
2125.0,2114.0,7.0,35.0,
2132.0,1963.0,7.0,35.0,
2096.0,1974.0,7.0,35.0,
2113.0,2255.0,7.0,35.0,
2142.0,2268.0,7.0,34.0,
2146.0,2229.0,7.0,35.0,
2032.0,2037.0,7.0,34.0,
2019.0,2013.0,7.0,34.0,
2064.0,1974.0,8.0,34.0,
2079.0,1929.0,8.0,34.0,
2050.0,2003.0,8.0,34.0,
2095.0,1925.0,8.0,34.0,
2100.0,2038.0,8.0,34.0,
2111.0,2229.0,8.0,34.0,
1951.0,2094.0,8.0,33.0,
2070.0,2074.0,8.0,33.0,
2046.0,2073.0,8.0,32.0,
2081.0,2174.0,8.0,32.0,
2173.0,2286.0,9.0,32.0,
2196.0,2130.0,9.0,31.0,
2191.0,2111.0,9.0,30.0,
1999.0,2278.0,9.0,30.0,
2118.0,2059.0,8.0,29.0,
1976.0,2117.0,8.0,28.0,
1880.0,2145.0,9.0,27.0,
2041.0,2079.0,9.0,28.0,
2086.0,2075.0,8.0,28.0,
2046.0,1822.0,9.0,26.0,
2010.0,1974.0,8.0,26.0,
2081.0,2007.0,7.0,26.0,
2020.0,2041.0,7.0,25.0,
2057.0,2011.0,7.0,25.0,
2091.0,2073.0,8.0,26.0,
2193.0,2139.0,8.0,27.0,
2235.0,2126.0,9.0,28.0,
2055.0,2120.0,9.0,28.0,
2154.0,2098.0,10.0,29.0,
1883.0,2091.0,9.0,31.0,
2088.0,2089.0,9.0,30.0,
2102.0,2092.0,11.0,31.0,
1930.0,2101.0,10.0,31.0,
1938.0,1996.0,10.0,32.0,
2007.0,2073.0,9.0,32.0,
2025.0,2040.0,9.0,31.0,
2064.0,1980.0,9.0,31.0,
2114.0,1935.0,9.0,30.0,
1973.0,2126.0,8.0,29.0,
2046.0,2204.0,8.0,29.0,
2138.0,2152.0,9.0,30.0,
2124.0,2061.0,0,
2214.0,2125.0,9.0,29.0,
2252.0,2176.0,9.0,29.0,
1858.0,2100.0,9.0,28.0,
2023.0,2028.0,9.0,28.0,
2028.0,2048.0,9.0,28.0,
2044.0,2053.0,8.0,29.0,
2069.0,1995.0,9.0,30.0,
2079.0,1777.0,9.0,30.0,
2098.0,2288.0,8.0,29.0,
2060.0,2194.0,8.0,29.0,
2093.0,2279.0,7.0,28.0,
2093.0,2120.0,8.0,29.0,
2066.0,2082.0,8.0,28.0,
2143.0,2078.0,8.0,28.0,
2135.0,2266.0,3.0,26.0,
2090.0,2109.0,5.0,25.0,
2092.0,2072.0,3.0,27.0,
2061.0,1923.0,1.0,28.0,
2070.0,1944.0,1.0,27.0,
2057.0,2008.0,2.0,27.0,
2066.0,2152.0,3.0,28.0,
2077.0,2234.0,2.0,27.0,
2105.0,2103.0,2.0,28.0,
2180.0,2093.0,2.0,28.0,
2083.0,2088.0,7.0,29.0,
2020.0,2056.0,5.0,30.0,
2009.0,1973.0,6.0,26.0,
2029.0,2019.0,8.0,25.0,
2139.0,2045.0,7.0,25.0,
2257.0,1984.0,7.0,25.0,
2045.0,1942.0,6.0,24.0,
1953.0,2085.0,6.0,24.0,
2004.0,2317.0,5.0,25.0,
2306.0,2193.0,5.0,24.0,
2208.0,2102.0,5.0,24.0,
1739.0,2011.0,5.0,24.0,
1913.0,2055.0,6.0,23.0,
1890.0,2042.0,6.0,22.0,
2026.0,2114.0,6.0,24.0,
2034.0,2116.0,7.0,22.0,
2110.0,2057.0,9.0,23.0,
2123.0,2051.0,9.0,23.0,
2123.0,2089.0,10.0,22.0,
2035.0,2068.0,10.0,22.0,
1966.0,2048.0,9.0,22.0,
2062.0,2118.0,9.0,21.0,
2123.0,2111.0,10.0,22.0,
2149.0,2237.0,10.0,23.0,
2102.0,2161.0,11.0,21.0,
2080.0,2067.0,10.0,22.0,
2031.0,1992.0,9.0,22.0,
2040.0,2078.0,10.0,21.0,
2062.0,2019.0,10.0,22.0,
2061.0,1979.0,9.0,22.0,
2079.0,1974.0,9.0,22.0,
2096.0,2015.0,10.0,22.0,
2122.0,2259.0,8.0,23.0,
2084.0,2019.0,8.0,22.0,
2073.0,2118.0,7.0,22.0,
2080.0,2128.0,6.0,23.0,
2073.0,2090.0,6.0,22.0,
2078.0,2084.0,5.0,23.0,
2097.0,2160.0,5.0,23.0,
2089.0,2045.0,5.0,23.0,
2094.0,2121.0,5.0,24.0,
2112.0,2155.0,5.0,24.0,
2089.0,2087.0,6.0,24.0,
2084.0,2008.0,6.0,24.0,
2098.0,2056.0,6.0,25.0,
2088.0,1972.0,6.0,25.0,
2105.0,2094.0,6.0,25.0,
2114.0,2284.0,6.0,25.0,
2065.0,2294.0,6.0,25.0,
2052.0,2117.0,7.0,25.0,
2050.0,2130.0,7.0,25.0,
2070.0,2089.0,7.0,25.0,
2069.0,2037.0,6.0,24.0,
2050.0,2110.0,6.0,24.0,
2084.0,2045.0,6.0,23.0,
2061.0,2041.0,7.0,23.0,
2021.0,2047.0,7.0,23.0,
2072.0,2057.0,7.0,23.0,
2136.0,2094.0,7.0,22.0,
2172.0,2008.0,7.0,21.0,
2155.0,2032.0,7.0,20.0,
2029.0,2057.0,7.0,20.0,
1997.0,2018.0,7.0,20.0,
2119.0,2034.0,8.0,19.0,
2177.0,2037.0,8.0,19.0,
1977.0,2081.0,8.0,18.0,
2035.0,2083.0,8.0,18.0,
1940.0,2073.0,8.0,18.0,
2042.0,2078.0,8.0,18.0,
2050.0,2114.0,9.0,18.0,
2109.0,2095.0,10.0,18.0,
2108.0,2064.0,10.0,17.0,
2003.0,2058.0,11.0,17.0,
1985.0,2121.0,11.0,17.0,
2088.0,2082.0,12.0,17.0,
2138.0,2052.0,13.0,16.0,
2165.0,2118.0,13.0,16.0,
2042.0,2165.0,14.0,16.0,
2043.0,2136.0,14.0,16.0,
2079.0,2131.0,14.0,16.0,
2130.0,2130.0,14.0,16.0,
2174.0,2049.0,14.0,16.0,
2119.0,2037.0,14.0,16.0,
2023.0,2037.0,14.0,16.0,
1994.0,2059.0,14.0,16.0,
2040.0,2109.0,13.0,15.0,
2038.0,2104.0,13.0,15.0,
2070.0,2188.0,13.0,15.0,
2068.0,2041.0,12.0,14.0,
2044.0,2000.0,12.0,14.0,
2066.0,2002.0,12.0,15.0,
2084.0,2103.0,12.0,14.0,
2087.0,2035.0,12.0,14.0,
2073.0,2124.0,12.0,14.0,
2074.0,2172.0,12.0,14.0,
2086.0,2121.0,12.0,14.0,
2119.0,2038.0,11.0,15.0,
2077.0,2089.0,11.0,15.0,
2056.0,2214.0,11.0,15.0,
2033.0,2152.0,11.0,15.0,
2064.0,2090.0,11.0,15.0,
2075.0,2049.0,11.0,15.0,
2088.0,2044.0,10.0,14.0,
2093.0,1974.0,10.0,14.0,
2100.0,2080.0,9.0,14.0,
2069.0,2204.0,9.0,15.0,
2057.0,2103.0,9.0,15.0,
2057.0,2076.0,8.0,14.0,
2082.0,1997.0,8.0,14.0,
2050.0,1942.0,8.0,14.0,
2064.0,2060.0,7.0,14.0,
2098.0,2169.0,7.0,14.0,
2100.0,2135.0,7.0,14.0,
2070.0,2124.0,7.0,13.0,
2111.0,2131.0,7.0,13.0,
2096.0,2064.0,6.0,13.0,
2051.0,2024.0,6.0,12.0,
2035.0,2051.0,6.0,13.0,
2031.0,2085.0,6.0,13.0,
2076.0,2076.0,6.0,13.0,
2046.0,2018.0,6.0,12.0,
2068.0,2055.0,6.0,12.0,
2082.0,2065.0,6.0,11.0,
2041.0,2108.0,6.0,11.0,
2043.0,2107.0,7.0,11.0,
2069.0,2090.0,7.0,11.0,
2063.0,2093.0,8.0,11.0,
2080.0,2086.0,8.0,11.0,
2075.0,2077.0,8.0,10.0,
2055.0,2105.0,9.0,10.0,
2089.0,2069.0,9.0,10.0,
2082.0,2092.0,10.0,10.0,
2101.0,2070.0,11.0,10.0,
2089.0,2092.0,12.0,9.0,
2057.0,2092.0,12.0,9.0,
2067.0,2097.0,12.0,8.0,
2074.0,2088.0,13.0,8.0,
2084.0,2048.0,13.0,9.0,
2063.0,2069.0,14.0,9.0,
2076.0,2112.0,14.0,9.0,
2093.0,2109.0,14.0,9.0,
2059.0,2100.0,14.0,8.0,
2073.0,2084.0,14.0,8.0,
2069.0,2139.0,13.0,8.0,
2077.0,2077.0,13.0,8.0,
2073.0,2038.0,13.0,7.0,
2070.0,2019.0,13.0,7.0,
2067.0,2087.0,13.0,6.0,
2079.0,2067.0,13.0,6.0,
2072.0,2084.0,12.0,6.0,
2081.0,2139.0,12.0,6.0,
2101.0,2195.0,12.0,6.0,
2074.0,2010.0,12.0,6.0,
2050.0,2014.0,12.0,6.0,
2060.0,2150.0,12.0,5.0,
2075.0,2250.0,11.0,5.0,
2111.0,2107.0,11.0,5.0,
2069.0,1950.0,11.0,5.0,
2060.0,1982.0,10.0,4.0,
2054.0,1923.0,10.0,3.0,
2076.0,2066.0,9.0,3.0,
2070.0,2236.0,9.0,3.0,
2057.0,2061.0,9.0,3.0,
2089.0,2302.0,8.0,3.0,
2069.0,2149.0,8.0,3.0,
2054.0,2142.0,8.0,3.0,
2048.0,2077.0,8.0,2.0,
2066.0,2135.0,7.0,1.0,
2062.0,2087.0,7.0,1.0,
2065.0,2071.0,7.0,2.0,
2062.0,1996.0,7.0,2.0,
2090.0,2025.0,7.0,1.0,
2078.0,2062.0,7.0,0.0,
2080.0,2030.0,7.0,0.0,
2073.0,2021.0,7.0,-1.0,
2093.0,1934.0,7.0,-1.0,
2078.0,1977.0,7.0,-1.0,
2056.0,1973.0,7.0,0.0,
2053.0,2191.0,8.0,0.0,
2067.0,2196.0,8.0,-1.0,
2060.0,2118.0,8.0,-2.0,
2053.0,2171.0,8.0,-2.0,
2068.0,2161.0,8.0,-2.0,
2085.0,2063.0,9.0,-1.0,
2082.0,2045.0,9.0,0.0,
2073.0,2140.0,10.0,0.0,
2100.0,2108.0,10.0,0.0,
2067.0,2020.0,10.0,0.0,
2064.0,2026.0,11.0,0.0,
2068.0,2072.0,11.0,-1.0,
2100.0,2050.0,11.0,-1.0,
2094.0,2109.0,11.0,-1.0,
2053.0,2354.0,12.0,-2.0,
2055.0,2173.0,12.0,-2.0,
2074.0,2022.0,12.0,-2.0,
2066.0,1964.0,12.0,-2.0,
2068.0,1905.0,12.0,-2.0,
2071.0,2167.0,12.0,-2.0,
2084.0,2269.0,12.0,-1.0,
2092.0,2237.0,12.0,-1.0,
2080.0,2009.0,12.0,-1.0,
2100.0,2040.0,12.0,-1.0,
2121.0,2095.0,12.0,-1.0,
2088.0,1998.0,12.0,-1.0,
2085.0,1983.0,12.0,-1.0,
2071.0,2086.0,11.0,-1.0,
2038.0,2066.0,11.0,-1.0,
2063.0,2183.0,11.0,-1.0,
2065.0,2008.0,11.0,-2.0,
2084.0,2191.0,10.0,-2.0,
2062.0,2214.0,10.0,-3.0,
2088.0,1964.0,9.0,-3.0,
2102.0,1967.0,9.0,-2.0,
2083.0,2053.0,9.0,-2.0,
2056.0,2063.0,9.0,-2.0,
2071.0,2056.0,8.0,-3.0,
2059.0,2041.0,8.0,-3.0,
2066.0,1989.0,7.0,-3.0,
2069.0,2137.0,7.0,-3.0,
2068.0,2163.0,7.0,-3.0,
2075.0,2117.0,7.0,-3.0,
2097.0,2097.0,7.0,-3.0,
2090.0,2118.0,7.0,-4.0,
2071.0,2119.0,7.0,-4.0,
2064.0,2118.0,7.0,-4.0,
2052.0,2082.0,7.0,-4.0,
2067.0,2040.0,8.0,-4.0,
2083.0,2059.0,8.0,-4.0,
2071.0,2081.0,9.0,-4.0,
2072.0,2094.0,9.0,-4.0,
2081.0,2118.0,10.0,-4.0,
2075.0,2058.0,10.0,-4.0,
2077.0,2093.0,11.0,-4.0,
2074.0,1977.0,12.0,-4.0,
2058.0,2053.0,12.0,-4.0,
2072.0,2103.0,13.0,-4.0,
2078.0,2171.0,14.0,-4.0,
2080.0,2115.0,15.0,-5.0,
2077.0,2056.0,15.0,-5.0,
2065.0,2105.0,16.0,-5.0,
2077.0,2110.0,16.0,-5.0,
2054.0,2092.0,16.0,-5.0,
2081.0,2051.0,17.0,-5.0,
2057.0,2072.0,17.0,-5.0,
2075.0,2087.0,17.0,-5.0,
2084.0,2064.0,17.0,-5.0,
2067.0,2057.0,17.0,-5.0,
2084.0,2076.0,17.0,-5.0,
2064.0,2175.0,17.0,-5.0,
2067.0,2094.0,16.0,-5.0,
2059.0,2043.0,16.0,-5.0,
2059.0,1990.0,16.0,-5.0,
2068.0,2051.0,16.0,-6.0,
2070.0,2053.0,15.0,-6.0,
2071.0,2084.0,14.0,-6.0,
2076.0,2108.0,14.0,-6.0,
2061.0,2177.0,14.0,-7.0,
2072.0,2121.0,13.0,-8.0,
2081.0,2098.0,12.0,-7.0,
2069.0,2069.0,11.0,-7.0,
2077.0,2074.0,11.0,-7.0,
2062.0,2069.0,10.0,-6.0,
2070.0,2059.0,10.0,-6.0,
2065.0,2078.0,10.0,-6.0,
2080.0,2110.0,9.0,-6.0,
2077.0,2075.0,9.0,-6.0,
2091.0,2142.0,9.0,-5.0,
2057.0,2129.0,8.0,-4.0,
2070.0,2080.0,9.0,-4.0,
2049.0,2102.0,9.0,-4.0,
2083.0,2083.0,9.0,-4.0,
2073.0,2089.0,9.0,-5.0,
2059.0,2064.0,9.0,-5.0,
2079.0,2035.0,9.0,-5.0,
2075.0,2053.0,9.0,-5.0,
2078.0,2071.0,11.0,-4.0,
2075.0,2071.0,12.0,-5.0,
2079.0,2064.0,13.0,-5.0,
2071.0,2076.0,13.0,-5.0,
2089.0,2094.0,14.0,-5.0,
2075.0,2062.0,15.0,-5.0,
2067.0,2103.0,0,
2053.0,2094.0,16.0,-5.0,
2069.0,2148.0,17.0,-5.0,
2084.0,2071.0,18.0,-6.0,
2089.0,2060.0,18.0,-6.0,
2078.0,2074.0,19.0,-6.0,
2074.0,2076.0,19.0,-6.0,
2070.0,2074.0,20.0,-6.0,
2076.0,2085.0,20.0,-7.0,
2056.0,2092.0,20.0,-7.0,
2077.0,2142.0,21.0,-7.0,
2070.0,2091.0,21.0,-7.0,
2088.0,2204.0,21.0,-7.0,
2051.0,1992.0,21.0,-7.0,
2085.0,2048.0,21.0,-7.0,
2072.0,2129.0,21.0,-7.0,
2075.0,1981.0,20.0,-7.0,
2086.0,2060.0,20.0,-7.0,
2078.0,2082.0,19.0,-7.0,
2080.0,2113.0,19.0,-7.0,
2077.0,2121.0,18.0,-7.0,
2081.0,2074.0,18.0,-8.0,
2098.0,2081.0,17.0,-8.0,
2076.0,2037.0,17.0,-8.0,
2058.0,2080.0,16.0,-8.0,
2060.0,2046.0,15.0,-8.0,
2077.0,2075.0,15.0,-8.0,
2072.0,2098.0,14.0,-8.0,
2081.0,2121.0,14.0,-8.0,
2079.0,2128.0,13.0,-8.0,
2077.0,2102.0,13.0,-8.0,
2083.0,2036.0,13.0,-8.0,
2080.0,2068.0,12.0,-8.0,
2062.0,2060.0,12.0,-8.0,
2033.0,2076.0,12.0,-7.0,
2055.0,2096.0,12.0,-7.0,
2074.0,2095.0,12.0,-7.0,
2066.0,2098.0,12.0,-7.0,
2077.0,2107.0,13.0,-7.0,
2081.0,2097.0,13.0,-7.0,
2068.0,2087.0,13.0,-6.0,
2075.0,2093.0,13.0,-6.0,
2084.0,2091.0,14.0,-6.0,
2069.0,2080.0,14.0,-6.0,
2063.0,2087.0,14.0,-6.0,
2059.0,2093.0,14.0,-6.0,
2063.0,2075.0,15.0,-6.0,
2084.0,2089.0,15.0,-7.0,
2084.0,2086.0,15.0,-8.0,
2076.0,2089.0,16.0,-7.0,
2081.0,2082.0,16.0,-7.0,
2074.0,2077.0,16.0,-7.0,
2061.0,2076.0,17.0,-8.0,
2071.0,2078.0,17.0,-8.0,
2066.0,2089.0,17.0,-8.0,
2074.0,2088.0,17.0,-8.0,
2073.0,2079.0,17.0,-8.0,
2071.0,2078.0,17.0,-8.0,
2073.0,2077.0,17.0,-7.0,
2069.0,2079.0,17.0,-8.0,
2083.0,2080.0,17.0,-8.0,
2072.0,2092.0,17.0,-9.0,
2066.0,2080.0,17.0,-9.0,
2073.0,2090.0,17.0,-9.0,
2072.0,2100.0,16.0,-9.0,
2074.0,2085.0,16.0,-9.0,
2079.0,2081.0,16.0,-9.0,
2071.0,2083.0,16.0,-10.0,
2084.0,2087.0,16.0,-10.0,
2052.0,2090.0,16.0,-10.0,
2097.0,2062.0,15.0,-10.0,
2076.0,2086.0,15.0,-10.0,
2079.0,2085.0,15.0,-10.0,
2069.0,2092.0,15.0,-10.0,
2091.0,2090.0,14.0,-10.0,
2085.0,2093.0,14.0,-10.0,
2080.0,2080.0,14.0,-10.0,
2085.0,2079.0,14.0,-11.0,
2071.0,2109.0,13.0,-11.0,
2081.0,2093.0,13.0,-10.0,
2076.0,2053.0,13.0,-10.0,
2072.0,2071.0,13.0,-10.0,
2070.0,2080.0,14.0,-10.0,
2073.0,2088.0,14.0,-10.0,
2084.0,2082.0,14.0,-9.0,
2088.0,2116.0,14.0,-9.0,
2056.0,2062.0,14.0,-9.0,
2070.0,2111.0,14.0,-9.0,
2077.0,2053.0,14.0,-9.0,
2070.0,2074.0,14.0,-9.0,
2058.0,2084.0,14.0,-9.0,
2074.0,2087.0,14.0,-9.0,
2066.0,2090.0,15.0,-9.0,
2081.0,2094.0,15.0,-9.0,
2073.0,2088.0,15.0,-9.0,
2077.0,2083.0,15.0,-9.0,
2072.0,2082.0,16.0,-9.0,
2071.0,2084.0,16.0,-9.0,
2064.0,2085.0,16.0,-10.0,
2059.0,2086.0,16.0,-10.0,
2059.0,2114.0,17.0,-9.0,
2077.0,2080.0,17.0,-9.0,
2072.0,2084.0,17.0,-9.0,
2070.0,2087.0,18.0,-10.0,
2061.0,2080.0,18.0,-9.0,
2062.0,2079.0,18.0,-9.0,
2067.0,2083.0,18.0,-9.0,
2055.0,2101.0,18.0,-9.0,
2078.0,2077.0,19.0,-9.0,
2070.0,2085.0,19.0,-9.0,
2075.0,2086.0,19.0,-9.0,
2074.0,2088.0,19.0,-9.0,
2076.0,2074.0,19.0,-9.0,
2073.0,2076.0,19.0,-9.0,
2069.0,2067.0,19.0,-9.0,
2050.0,2077.0,19.0,-9.0,
2053.0,2086.0,19.0,-9.0,
2065.0,2092.0,19.0,-9.0,
2068.0,2093.0,19.0,-9.0,
2082.0,2097.0,19.0,-9.0,
2071.0,2092.0,19.0,-9.0,
2071.0,2089.0,19.0,-9.0,
2084.0,2070.0,19.0,-9.0,
2082.0,2078.0,19.0,-9.0,
2074.0,2115.0,19.0,-9.0,
2069.0,2052.0,19.0,-9.0,
2073.0,2078.0,19.0,-9.0,
2086.0,2064.0,19.0,-9.0,
2080.0,2080.0,18.0,-9.0,
2085.0,2086.0,18.0,-9.0,
2081.0,2075.0,18.0,-9.0,
2097.0,2088.0,18.0,-9.0,
2082.0,2081.0,18.0,-9.0,
2067.0,2074.0,18.0,-9.0,
2055.0,2081.0,18.0,-9.0,
2072.0,2083.0,18.0,-9.0,
2076.0,2090.0,18.0,-9.0,
2081.0,2095.0,18.0,-9.0,
2083.0,2094.0,18.0,-9.0,
2065.0,2085.0,17.0,-9.0,
2076.0,2085.0,18.0,-9.0,
2075.0,2086.0,18.0,-9.0,
2060.0,2104.0,18.0,-9.0,
2086.0,2067.0,18.0,-9.0,
2067.0,2077.0,18.0,-9.0,
2079.0,2099.0,18.0,-9.0,
2086.0,2091.0,18.0,-9.0,
2070.0,2088.0,18.0,-9.0,
2069.0,2088.0,18.0,-9.0,
2063.0,2086.0,18.0,-9.0,
2072.0,2095.0,18.0,-9.0,
2076.0,2068.0,18.0,-9.0,
2057.0,2075.0,18.0,-9.0,
2067.0,2082.0,18.0,-9.0,
2068.0,2091.0,18.0,-9.0,
2075.0,2089.0,18.0,-9.0,
2078.0,2083.0,18.0,-9.0,
2076.0,2083.0,19.0,-9.0,
2088.0,2094.0,19.0,-9.0,
2071.0,2084.0,19.0,-9.0,
2087.0,2109.0,19.0,-9.0,
2074.0,2052.0,19.0,-9.0,
2051.0,2081.0,19.0,-9.0,
2070.0,2091.0,19.0,-10.0,
2081.0,2090.0,19.0,-9.0,
2071.0,2073.0,19.0,-9.0,
2083.0,2074.0,20.0,-9.0,
2082.0,2082.0,20.0,-9.0,
2074.0,2076.0,20.0,-9.0,
2073.0,2084.0,20.0,-9.0,
2079.0,2078.0,20.0,-9.0,
2080.0,2084.0,20.0,-9.0,
2078.0,2079.0,20.0,-9.0,
2074.0,2085.0,20.0,-8.0,
2077.0,2085.0,20.0,-8.0,
2066.0,2095.0,20.0,-8.0,
2074.0,2078.0,19.0,-9.0,
2084.0,2074.0,19.0,-9.0,
2059.0,2071.0,19.0,-9.0,
2054.0,2079.0,19.0,-9.0,
2056.0,2076.0,19.0,-9.0,
2072.0,2087.0,20.0,-9.0,
2068.0,2093.0,20.0,-9.0,
2074.0,2082.0,20.0,-9.0,
2061.0,2079.0,20.0,-9.0,
2065.0,2078.0,20.0,-9.0,
2068.0,2077.0,20.0,-9.0,
2067.0,2082.0,20.0,-9.0,
2069.0,2086.0,20.0,-9.0,
2066.0,2089.0,20.0,-9.0,
2071.0,2095.0,20.0,-9.0,
2073.0,2090.0,20.0,-9.0,
2072.0,2095.0,20.0,-9.0,
2073.0,2079.0,20.0,-9.0,
2081.0,2087.0,20.0,-9.0,
2064.0,2090.0,19.0,-9.0,
2077.0,2066.0,19.0,-9.0,
2071.0,2071.0,19.0,-9.0,
2080.0,2076.0,19.0,-9.0,
2076.0,2086.0,19.0,-9.0,
2073.0,2087.0,19.0,-9.0,
2069.0,2092.0,19.0,-9.0,
2073.0,2094.0,19.0,-9.0,
2078.0,2102.0,19.0,-9.0,
2073.0,2049.0,19.0,-9.0,
2068.0,2075.0,19.0,-9.0,
2067.0,2081.0,19.0,-9.0,
2076.0,2081.0,19.0,-9.0,
2081.0,2083.0,19.0,-10.0,
2072.0,2101.0,19.0,-10.0,
2079.0,2082.0,19.0,-10.0,
2072.0,2078.0,19.0,-10.0,
2082.0,2081.0,19.0,-9.0,
2081.0,2079.0,19.0,-9.0,
2077.0,2078.0,19.0,-9.0,
2067.0,2069.0,19.0,-9.0,
2058.0,2083.0,19.0,-9.0,
2077.0,2088.0,19.0,-9.0,
2072.0,2085.0,19.0,-9.0,
2069.0,2108.0,19.0,-8.0,
2055.0,2069.0,19.0,-9.0,
2063.0,2083.0,19.0,-9.0,
2069.0,2079.0,19.0,-9.0,
2086.0,2070.0,19.0,-9.0,
2059.0,2079.0,19.0,-9.0,
2056.0,2099.0,19.0,-9.0,
2085.0,2065.0,19.0,-9.0,
2060.0,2094.0,19.0,-9.0,
2076.0,2090.0,19.0,-9.0,
2077.0,2080.0,19.0,-9.0,
2074.0,2083.0,19.0,-9.0,
2067.0,2081.0,19.0,-9.0,
2070.0,2088.0,19.0,-9.0,
2060.0,2073.0,19.0,-9.0,
2060.0,2080.0,19.0,-9.0,
2067.0,2092.0,19.0,-9.0,
2064.0,2086.0,19.0,-9.0,
2068.0,2089.0,19.0,-9.0,
2075.0,2085.0,19.0,-9.0,
2076.0,2083.0,19.0,-9.0,
2074.0,2079.0,19.0,-9.0,
2069.0,2077.0,19.0,-9.0,
2066.0,2080.0,19.0,-9.0,
2066.0,2083.0,19.0,-9.0,
2073.0,2089.0,19.0,-9.0,
2072.0,2091.0,19.0,-9.0,
2075.0,2091.0,19.0,-9.0,
2080.0,2091.0,19.0,-9.0,
2078.0,2078.0,19.0,-9.0,
2073.0,2079.0,19.0,-9.0,
2072.0,2078.0,19.0,-9.0,
2073.0,2082.0,19.0,-9.0,
2079.0,2090.0,19.0,-9.0,
2078.0,2092.0,19.0,-9.0,
2065.0,2094.0,19.0,-9.0,
2067.0,2088.0,19.0,-9.0,
2074.0,2086.0,19.0,-9.0,
2109.0,2083.0,19.0,-9.0,
2078.0,2087.0,20.0,-9.0,
2079.0,2084.0,20.0,-9.0,
2078.0,2087.0,20.0,-9.0,
2075.0,2075.0,20.0,-9.0,
2070.0,2084.0,20.0,-9.0,
2078.0,2088.0,20.0,-9.0,
2090.0,2100.0,20.0,-9.0,
2086.0,2087.0,20.0,-9.0,
2069.0,2097.0,20.0,-9.0,
2074.0,2063.0,20.0,-9.0,
2077.0,2067.0,20.0,-9.0,
2077.0,2065.0,20.0,-9.0,
2065.0,2078.0,20.0,-9.0,
2062.0,2089.0,20.0,-9.0,
2063.0,2085.0,20.0,-9.0,
2066.0,2084.0,20.0,-9.0,
2072.0,2084.0,20.0,-9.0,
2091.0,2087.0,20.0,-9.0,
2063.0,2081.0,20.0,-9.0,
2074.0,2078.0,20.0,-9.0,
2073.0,2076.0,20.0,-9.0,
2066.0,2088.0,20.0,-9.0,
2070.0,2083.0,20.0,-9.0,
2075.0,2089.0,20.0,-9.0,
2076.0,2083.0,19.0,-9.0,
2075.0,2088.0,19.0,-9.0,
2083.0,2087.0,19.0,-9.0,
2085.0,2086.0,19.0,-9.0,
2065.0,2076.0,19.0,-9.0,
2058.0,2084.0,19.0,-9.0,
2067.0,2085.0,19.0,-9.0,
2078.0,2080.0,19.0,-9.0,
2105.0,2082.0,19.0,-9.0,
2073.0,2083.0,19.0,-9.0,
2060.0,2085.0,19.0,-9.0,
2080.0,2079.0,19.0,-9.0,
2069.0,2094.0,19.0,-9.0,
2069.0,2071.0,19.0,-9.0,
2076.0,2074.0,19.0,-9.0,
2071.0,2078.0,19.0,-9.0,
2077.0,2084.0,19.0,-9.0,
2072.0,2084.0,19.0,-9.0,
2073.0,2088.0,19.0,-9.0,
2080.0,2081.0,19.0,-9.0,
2077.0,2077.0,19.0,-9.0,
2082.0,2081.0,19.0,-9.0,
2072.0,2082.0,19.0,-9.0,
2060.0,2076.0,19.0,-9.0,
2071.0,2085.0,19.0,-9.0,
2075.0,2090.0,19.0,-9.0,
2070.0,2086.0,19.0,-9.0,
2072.0,2087.0,19.0,-9.0,
2075.0,2088.0,19.0,-9.0,
2084.0,2076.0,19.0,-9.0,
2076.0,2077.0,19.0,-9.0,
2080.0,2073.0,19.0,-9.0,
2072.0,2084.0,19.0,-9.0,
2075.0,2085.0,19.0,-9.0,
2083.0,2086.0,19.0,-9.0,
2079.0,2090.0,19.0,-9.0,
2074.0,2091.0,19.0,-9.0,
2078.0,2083.0,19.0,-9.0,
2075.0,2083.0,19.0,-9.0,
2074.0,2084.0,19.0,-9.0,
2068.0,2075.0,19.0,-9.0,
2079.0,2073.0,19.0,-9.0,
2068.0,2078.0,19.0,-9.0,
2081.0,2085.0,19.0,-9.0,
2071.0,2090.0,19.0,-9.0,
2074.0,2092.0,19.0,-9.0,
2091.0,2082.0,19.0,-9.0,
2079.0,2087.0,19.0,-9.0,
2072.0,2077.0,19.0,-9.0,
2075.0,2082.0,19.0,-9.0,
2077.0,2070.0,19.0,-9.0,
2065.0,2082.0,19.0,-9.0,
2071.0,2086.0,20.0,-9.0,
2077.0,2092.0,20.0,-9.0,
2073.0,2095.0,20.0,-9.0,
2076.0,2088.0,20.0,-9.0,
2082.0,2083.0,20.0,-9.0,
2083.0,2079.0,20.0,-9.0,
2076.0,2079.0,20.0,-9.0,
2082.0,2075.0,20.0,-9.0,
2075.0,2084.0,20.0,-9.0,
2069.0,2084.0,20.0,-9.0,
2079.0,2087.0,20.0,-9.0,
2076.0,2095.0,20.0,-9.0,
2085.0,2080.0,20.0,-9.0,
2080.0,2081.0,20.0,-9.0,
2073.0,2076.0,20.0,-9.0,
2074.0,2071.0,20.0,-9.0,
2066.0,2074.0,20.0,-9.0,
2067.0,2081.0,20.0,-9.0,
2074.0,2082.0,20.0,-9.0,
2077.0,2086.0,20.0,-9.0,
2078.0,2088.0,0,
2072.0,2090.0,20.0,-9.0,
2067.0,2080.0,20.0,-9.0,
2061.0,2077.0,20.0,-9.0,
2069.0,2075.0,20.0,-9.0,
2077.0,2082.0,20.0,-9.0,
2061.0,2080.0,20.0,-9.0,
2083.0,2086.0,20.0,-9.0,
2070.0,2089.0,20.0,-9.0,
2070.0,2094.0,20.0,-9.0,
2071.0,2084.0,20.0,-9.0,
2074.0,2084.0,20.0,-9.0,
2084.0,2072.0,20.0,-9.0,
2079.0,2079.0,20.0,-9.0,
2063.0,2074.0,20.0,-9.0,
2068.0,2075.0,20.0,-9.0,
2071.0,2078.0,20.0,-9.0,
2068.0,2087.0,20.0,-9.0,
2077.0,2089.0,20.0,-9.0,
2088.0,2082.0,19.0,-9.0,
2073.0,2086.0,19.0,-9.0,
2071.0,2080.0,19.0,-9.0,
2077.0,2081.0,19.0,-9.0,
2075.0,2082.0,19.0,-9.0,
2072.0,2102.0,19.0,-9.0,
2079.0,2075.0,19.0,-9.0,
2073.0,2088.0,19.0,-9.0,
2066.0,2088.0,19.0,-9.0,
2069.0,2087.0,19.0,-9.0,
2077.0,2083.0,19.0,-9.0,
2080.0,2097.0,19.0,-9.0,
2081.0,2075.0,19.0,-9.0,
2067.0,2089.0,19.0,-9.0,
2077.0,2076.0,19.0,-9.0,
2068.0,2085.0,19.0,-9.0,
2092.0,2088.0,19.0,-9.0,
2101.0,2104.0,19.0,-9.0,
2070.0,2087.0,19.0,-9.0,
2057.0,2081.0,19.0,-9.0,
2070.0,2094.0,19.0,-9.0,
2075.0,2066.0,19.0,-9.0,
2066.0,2087.0,19.0,-9.0,
2056.0,2075.0,19.0,-9.0,
2059.0,2083.0,19.0,-9.0,
2068.0,2090.0,19.0,-9.0,
2063.0,2090.0,19.0,-9.0,
2083.0,2082.0,19.0,-9.0,
2073.0,2076.0,19.0,-9.0,
2069.0,2081.0,19.0,-9.0,
2071.0,2082.0,19.0,-9.0,
2067.0,2080.0,19.0,-10.0,
2070.0,2082.0,19.0,-10.0,
2071.0,2086.0,19.0,-10.0,
2078.0,2093.0,19.0,-10.0,
2082.0,2077.0,19.0,-9.0,
2072.0,2098.0,20.0,-9.0,
2080.0,2103.0,20.0,-8.0,
2100.0,2068.0,20.0,-8.0,
2067.0,2082.0,20.0,-9.0,
2082.0,2072.0,20.0,-8.0,
2081.0,2070.0,20.0,-7.0,
2075.0,2066.0,20.0,-7.0,
2074.0,2078.0,20.0,-7.0,
2078.0,2082.0,20.0,-8.0,
2072.0,2090.0,20.0,-8.0,
2080.0,2086.0,20.0,-9.0,
2082.0,2075.0,20.0,-9.0,
2074.0,2081.0,20.0,-9.0,
2066.0,2082.0,20.0,-9.0,
2069.0,2082.0,20.0,-8.0,
2072.0,2100.0,20.0,-9.0,
2072.0,2136.0,20.0,-9.0,
2102.0,2030.0,20.0,-9.0,
2094.0,2097.0,20.0,-9.0,
2082.0,2102.0,20.0,-8.0,
2076.0,2109.0,20.0,-8.0,
2087.0,2082.0,20.0,-8.0,
2096.0,2021.0,20.0,-9.0,
2061.0,2052.0,20.0,-8.0,
2058.0,2191.0,20.0,-9.0,
2049.0,2076.0,20.0,-9.0,
2081.0,2109.0,20.0,-9.0,
2059.0,2058.0,20.0,-9.0,
2040.0,2060.0,20.0,-9.0,
2057.0,2113.0,20.0,-9.0,
2056.0,2124.0,20.0,-9.0,
2062.0,2142.0,20.0,-9.0,
2101.0,1998.0,20.0,-9.0,
2086.0,2019.0,20.0,-9.0,
2074.0,2052.0,20.0,-9.0,
2092.0,2066.0,20.0,-9.0,
2076.0,2082.0,20.0,-9.0,
2047.0,2088.0,20.0,-9.0,
2055.0,2103.0,19.0,-9.0,
2077.0,2113.0,19.0,-9.0,
2070.0,2108.0,19.0,-9.0,
2065.0,2028.0,19.0,-9.0,
2046.0,2043.0,19.0,-9.0,
2089.0,2047.0,19.0,-9.0,
2117.0,2165.0,20.0,-9.0,
2072.0,2197.0,19.0,-9.0,
2058.0,2025.0,19.0,-9.0,
2058.0,2015.0,20.0,-9.0,
2076.0,2066.0,20.0,-9.0,
2024.0,2126.0,20.0,-9.0,
2029.0,2195.0,20.0,-9.0,
2055.0,2104.0,20.0,-9.0,
2060.0,2129.0,21.0,-9.0,
2081.0,2129.0,21.0,-9.0,
2104.0,2061.0,21.0,-9.0,
2067.0,1960.0,21.0,-9.0,
2054.0,1981.0,22.0,-9.0,
2069.0,2090.0,22.0,-9.0,
2095.0,1970.0,22.0,-9.0,
2101.0,2157.0,22.0,-9.0,
2058.0,2042.0,22.0,-9.0,
2066.0,2179.0,22.0,-9.0,
2095.0,2105.0,22.0,-9.0,
2089.0,2142.0,22.0,-9.0,
2088.0,2107.0,22.0,-9.0,
2090.0,2052.0,22.0,-9.0,
2083.0,2117.0,22.0,-9.0,
2059.0,2069.0,21.0,-9.0,
2067.0,2072.0,21.0,-8.0,
2080.0,2094.0,21.0,-8.0,
2079.0,2110.0,21.0,-8.0,
2065.0,2101.0,21.0,-8.0,
2067.0,2088.0,21.0,-8.0,
2087.0,2047.0,21.0,-8.0,
2085.0,2063.0,20.0,-8.0,
2113.0,1997.0,20.0,-8.0,
2096.0,2145.0,20.0,-8.0,
2077.0,2181.0,20.0,-8.0,
2074.0,2058.0,20.0,-8.0,
2096.0,2026.0,20.0,-8.0,
2074.0,2000.0,20.0,-8.0,
2097.0,2200.0,20.0,-8.0,
2105.0,2140.0,20.0,-8.0,
2038.0,2083.0,20.0,-8.0,
2085.0,2106.0,20.0,-8.0,
2088.0,2181.0,20.0,-8.0,
2094.0,2018.0,20.0,-8.0,
2081.0,1977.0,20.0,-8.0,
2173.0,2056.0,20.0,-8.0,
2146.0,2093.0,20.0,-8.0,
2055.0,2119.0,20.0,-8.0,
2100.0,2114.0,20.0,-8.0,
2072.0,2000.0,19.0,-8.0,
1936.0,2066.0,19.0,-8.0,
2046.0,2082.0,20.0,-8.0,
2005.0,2081.0,20.0,-9.0,
1986.0,2131.0,20.0,-9.0,
1978.0,2115.0,20.0,-9.0,
1883.0,2135.0,20.0,-9.0,
1981.0,2052.0,20.0,-10.0,
2116.0,2094.0,20.0,-10.0,
2123.0,2072.0,20.0,-10.0,
2085.0,2064.0,20.0,-10.0,
2114.0,2037.0,20.0,-11.0,
2074.0,2042.0,20.0,-11.0,
2128.0,2182.0,20.0,-11.0,
2166.0,2045.0,20.0,-11.0,
2155.0,2065.0,20.0,-11.0,
2030.0,2112.0,19.0,-11.0,
1874.0,2085.0,20.0,-11.0,
1995.0,2044.0,20.0,-11.0,
2043.0,2145.0,20.0,-10.0,
2104.0,2191.0,20.0,-10.0,
2146.0,2077.0,20.0,-10.0,
2032.0,2072.0,19.0,-10.0,
1982.0,2098.0,19.0,-9.0,
2123.0,2125.0,19.0,-9.0,
2051.0,2109.0,19.0,-9.0,
2012.0,2077.0,18.0,-9.0,
2119.0,2028.0,18.0,-8.0,
2133.0,2033.0,17.0,-8.0,
2165.0,2164.0,17.0,-7.0,
2115.0,2053.0,16.0,-7.0,
2104.0,2057.0,16.0,-6.0,
2103.0,2050.0,15.0,-6.0,
2190.0,2018.0,14.0,-6.0,
2317.0,2161.0,14.0,-5.0,
2225.0,2031.0,13.0,-4.0,
2114.0,2035.0,13.0,-4.0,
2067.0,2049.0,12.0,-4.0,
2014.0,2219.0,12.0,-4.0,
1942.0,2132.0,11.0,-3.0,
1904.0,2070.0,11.0,-3.0,
1932.0,2104.0,11.0,-2.0,
2082.0,2075.0,11.0,-2.0,
2147.0,2092.0,11.0,-2.0,
2034.0,2110.0,12.0,-1.0,
2048.0,2035.0,12.0,-1.0,
1984.0,1972.0,13.0,-1.0,
2141.0,2125.0,13.0,-1.0,
2248.0,2118.0,14.0,0.0,
2246.0,2082.0,14.0,-1.0,
2189.0,2049.0,15.0,-1.0,
2037.0,2063.0,15.0,0.0,
1886.0,2087.0,15.0,-1.0,
1793.0,2081.0,16.0,-2.0,
1791.0,2084.0,16.0,-2.0,
1900.0,2078.0,17.0,-2.0,
2117.0,2099.0,17.0,-1.0,
2194.0,2119.0,18.0,-1.0,
2262.0,2073.0,19.0,-1.0,
2277.0,2114.0,19.0,-1.0,
2152.0,2037.0,19.0,-2.0,
2144.0,2166.0,19.0,-2.0,
2042.0,2045.0,20.0,-2.0,
1965.0,2109.0,19.0,-2.0,
1904.0,2081.0,19.0,-3.0,
2002.0,2052.0,18.0,-4.0,
2045.0,2068.0,18.0,-4.0,
2063.0,1988.0,17.0,-3.0,
2080.0,2077.0,17.0,-2.0,
2041.0,2121.0,17.0,-1.0,
1979.0,2156.0,17.0,0.0,
2070.0,2115.0,17.0,0.0,
2075.0,2101.0,16.0,0.0,
2127.0,2089.0,16.0,1.0,
2181.0,2093.0,16.0,3.0,
2224.0,2052.0,16.0,4.0,
2177.0,2036.0,16.0,4.0,
2141.0,2129.0,16.0,3.0,
2046.0,2076.0,16.0,3.0,
1962.0,1995.0,15.0,4.0,
2041.0,2014.0,15.0,3.0,
2026.0,2054.0,15.0,3.0,
2126.0,2109.0,15.0,4.0,
2181.0,2058.0,15.0,5.0,
2111.0,1986.0,14.0,5.0,
2165.0,2167.0,14.0,6.0,
2244.0,2141.0,14.0,6.0,
2230.0,2071.0,14.0,7.0,
2109.0,2070.0,13.0,7.0,
1941.0,2131.0,13.0,7.0,
1947.0,2151.0,13.0,7.0,
2095.0,2183.0,13.0,7.0,
2074.0,2098.0,13.0,7.0,
2054.0,2064.0,14.0,7.0,
2038.0,2070.0,14.0,7.0,
2075.0,2009.0,14.0,7.0,
1969.0,2030.0,15.0,8.0,
1968.0,2014.0,15.0,8.0,
2046.0,2057.0,16.0,8.0,
2136.0,2283.0,16.0,8.0,
2079.0,2171.0,16.0,7.0,
2109.0,2077.0,16.0,7.0,
2000.0,2044.0,16.0,7.0,
2227.0,2082.0,16.0,7.0,
2090.0,2056.0,16.0,7.0,
2092.0,2134.0,16.0,7.0,
2064.0,2106.0,16.0,7.0,
2081.0,2049.0,16.0,7.0,
2096.0,2054.0,15.0,7.0,
1951.0,2018.0,15.0,7.0,
2096.0,1957.0,14.0,7.0,
2136.0,2228.0,14.0,7.0,
2091.0,2087.0,13.0,7.0,
2002.0,2107.0,13.0,6.0,
1919.0,2180.0,12.0,6.0,
1972.0,2087.0,12.0,6.0,
2078.0,2104.0,12.0,6.0,
2025.0,2051.0,12.0,6.0,
2030.0,2026.0,11.0,5.0,
1998.0,2035.0,11.0,5.0,
2220.0,1993.0,11.0,5.0,
2265.0,2019.0,11.0,5.0,
2266.0,2012.0,11.0,5.0,
2024.0,2082.0,11.0,5.0,
1946.0,2123.0,10.0,5.0,
2074.0,2093.0,10.0,5.0,
2145.0,2261.0,10.0,6.0,
2063.0,2189.0,10.0,6.0,
2052.0,2157.0,9.0,6.0,
1952.0,2095.0,9.0,7.0,
1993.0,2032.0,9.0,7.0,
2050.0,2028.0,9.0,7.0,
2116.0,2081.0,9.0,7.0,
2039.0,2019.0,9.0,7.0,
2067.0,2109.0,9.0,7.0,
2144.0,1930.0,9.0,8.0,
2240.0,1899.0,9.0,8.0,
2231.0,2046.0,9.0,8.0,
2326.0,2220.0,9.0,8.0,
2047.0,2288.0,9.0,8.0,
2004.0,2283.0,9.0,9.0,
2027.0,2076.0,9.0,9.0,
2110.0,2068.0,9.0,9.0,
1998.0,2008.0,10.0,10.0,
1901.0,1920.0,10.0,11.0,
2010.0,1966.0,11.0,11.0,
2025.0,2039.0,11.0,11.0,
2059.0,2185.0,12.0,10.0,
2064.0,2199.0,12.0,10.0,
2120.0,2185.0,12.0,10.0,
2385.0,2025.0,12.0,11.0,
2352.0,2112.0,12.0,11.0,
2204.0,2129.0,12.0,11.0,
1910.0,2304.0,12.0,11.0,
1830.0,2214.0,12.0,10.0,
2001.0,2082.0,12.0,10.0,
1848.0,1959.0,12.0,10.0,
1994.0,1989.0,12.0,11.0,
2111.0,2081.0,12.0,10.0,
1841.0,2026.0,12.0,10.0,
1906.0,1996.0,12.0,10.0,
2077.0,2085.0,12.0,10.0,
2060.0,2020.0,12.0,10.0,
2193.0,2037.0,12.0,10.0,
2114.0,1865.0,12.0,10.0,
2191.0,1999.0,11.0,9.0,
2159.0,2419.0,11.0,9.0,
1940.0,2083.0,11.0,9.0,
1999.0,2168.0,10.0,9.0,
2106.0,2092.0,10.0,9.0,
2016.0,2088.0,9.0,9.0,
2087.0,2205.0,9.0,9.0,
2121.0,2102.0,9.0,10.0,
2223.0,2136.0,8.0,10.0,
2208.0,1962.0,8.0,10.0,
2188.0,2003.0,8.0,10.0,
1994.0,2046.0,8.0,10.0,
2083.0,2125.0,8.0,10.0,
1995.0,2009.0,8.0,10.0,
2041.0,1983.0,8.0,12.0,
2151.0,2085.0,8.0,11.0,
2167.0,2211.0,8.0,11.0,
2139.0,2024.0,8.0,10.0,
2033.0,1960.0,7.0,11.0,
2166.0,2146.0,7.0,11.0,
2203.0,2268.0,7.0,11.0,
2057.0,2185.0,8.0,11.0,
1800.0,2055.0,8.0,11.0,
2047.0,2139.0,8.0,11.0,
2011.0,1967.0,8.0,11.0,
2031.0,2031.0,8.0,11.0,
2008.0,2063.0,9.0,12.0,
2020.0,1932.0,9.0,13.0,
2104.0,2081.0,9.0,13.0,
2083.0,1943.0,10.0,13.0,
2140.0,1998.0,10.0,14.0,
2247.0,2101.0,10.0,14.0,
2245.0,2126.0,10.0,14.0,
2212.0,2369.0,10.0,16.0,
2349.0,2386.0,10.0,16.0,
2162.0,2198.0,10.0,15.0,
1783.0,2014.0,10.0,15.0,
1691.0,1967.0,10.0,15.0,
1881.0,1995.0,10.0,15.0,
1884.0,2009.0,10.0,15.0,
2033.0,2046.0,10.0,15.0,
2092.0,2061.0,10.0,15.0,
2052.0,2012.0,11.0,16.0,
2159.0,1900.0,10.0,15.0,
2054.0,2255.0,10.0,15.0,
2088.0,2099.0,10.0,15.0,
2258.0,2031.0,10.0,16.0,
2100.0,2022.0,10.0,15.0,
2022.0,2163.0,9.0,15.0,
1926.0,2350.0,9.0,15.0,
2124.0,2134.0,9.0,15.0,
2253.0,2074.0,8.0,15.0,
2296.0,1963.0,8.0,15.0,
2064.0,2136.0,8.0,15.0,
2043.0,2189.0,7.0,15.0,
1696.0,1992.0,7.0,16.0,
1900.0,2072.0,7.0,16.0,
2027.0,2046.0,7.0,17.0,
2083.0,2030.0,7.0,17.0,
2151.0,2017.0,7.0,17.0,
2152.0,2066.0,7.0,17.0,
2152.0,2080.0,6.0,16.0,
2156.0,2109.0,6.0,16.0,
2123.0,2082.0,6.0,16.0,
2111.0,2229.0,6.0,16.0,
2033.0,2149.0,5.0,16.0,
2283.0,1933.0,5.0,16.0,
2198.0,1937.0,5.0,15.0,
1932.0,1844.0,5.0,16.0,
2087.0,2027.0,5.0,17.0,
2071.0,2169.0,5.0,17.0,
2125.0,2205.0,5.0,18.0,
2192.0,2203.0,5.0,18.0,
2100.0,2137.0,6.0,18.0,
2023.0,2011.0,6.0,18.0,
1955.0,1823.0,6.0,19.0,
2052.0,1896.0,6.0,19.0,
2236.0,2224.0,6.0,20.0,
2029.0,2436.0,6.0,20.0,
1864.0,2293.0,7.0,21.0,
2041.0,2106.0,7.0,21.0,
2198.0,1970.0,7.0,21.0,
2180.0,1876.0,7.0,21.0,
2126.0,2165.0,7.0,21.0,
1850.0,2183.0,7.0,21.0,
2032.0,2487.0,7.0,21.0,
2055.0,2437.0,8.0,21.0,
2143.0,2051.0,8.0,21.0,
2012.0,2010.0,8.0,21.0,
1954.0,2038.0,8.0,21.0,
2104.0,1864.0,9.0,21.0,
2251.0,1975.0,9.0,21.0,
2152.0,2024.0,9.0,21.0,
2130.0,1957.0,10.0,21.0,
1975.0,1956.0,10.0,21.0,
2042.0,2069.0,10.0,21.0,
1987.0,1981.0,10.0,21.0,
2155.0,2167.0,10.0,21.0,
2252.0,2083.0,11.0,21.0,
2319.0,2045.0,11.0,21.0,
1822.0,2007.0,11.0,21.0,
1651.0,1890.0,11.0,21.0,
2064.0,2164.0,10.0,21.0,
1915.0,2231.0,10.0,21.0,
2234.0,2219.0,10.0,21.0,
2283.0,2211.0,9.0,21.0,
2223.0,2196.0,9.0,21.0,
2062.0,2078.0,8.0,21.0,
2222.0,1956.0,8.0,21.0,
1850.0,2021.0,7.0,21.0,
1919.0,1945.0,7.0,21.0,
2108.0,1887.0,6.0,21.0,
2063.0,2204.0,6.0,21.0,
2112.0,2012.0,5.0,21.0,
2142.0,2374.0,5.0,22.0,
1720.0,2168.0,5.0,22.0,
1919.0,2191.0,5.0,22.0,
2086.0,2002.0,5.0,22.0,
2152.0,1963.0,4.0,22.0,
2165.0,1982.0,4.0,23.0,
2117.0,2167.0,5.0,23.0,
2083.0,2070.0,5.0,23.0,
2178.0,1869.0,5.0,23.0,
2058.0,1808.0,5.0,23.0,
2075.0,2252.0,5.0,23.0,
2124.0,2320.0,5.0,24.0,
1992.0,2240.0,5.0,24.0,
2127.0,2080.0,5.0,24.0,
2228.0,2131.0,5.0,25.0,
2084.0,2281.0,5.0,25.0,
2122.0,2120.0,5.0,25.0,
2154.0,2043.0,5.0,25.0,
2155.0,1772.0,5.0,25.0,
2020.0,1818.0,6.0,25.0,
1990.0,2188.0,6.0,25.0,
2047.0,2245.0,6.0,25.0,
2116.0,2321.0,7.0,25.0,
2000.0,2216.0,7.0,25.0,
2169.0,2128.0,8.0,25.0,
2385.0,2050.0,8.0,25.0,
2275.0,2025.0,9.0,25.0,
2508.0,1928.0,9.0,26.0,
2047.0,2056.0,9.0,26.0,
1809.0,2120.0,10.0,26.0,
1990.0,1973.0,10.0,25.0,
1237.0,1981.0,11.0,26.0,
1761.0,1990.0,11.0,25.0,
2011.0,1938.0,11.0,26.0,
2122.0,2101.0,11.0,26.0,
1969.0,1966.0,10.0,25.0,
2105.0,2340.0,10.0,26.0,
1882.0,2304.0,10.0,25.0,
2416.0,2214.0,10.0,25.0,
2158.0,2070.0,9.0,25.0,
2028.0,2138.0,9.0,25.0,
1846.0,2042.0,9.0,25.0,
2154.0,1986.0,8.0,25.0,
2545.0,2085.0,8.0,25.0,
1978.0,2031.0,8.0,25.0,
2009.0,2101.0,7.0,25.0,
1912.0,2161.0,7.0,25.0,
2017.0,2080.0,6.0,26.0,
2234.0,1846.0,6.0,26.0,
1853.0,2095.0,6.0,26.0,
2046.0,1845.0,5.0,26.0,
2144.0,2174.0,5.0,26.0,
2035.0,2160.0,5.0,26.0,
2108.0,2094.0,4.0,26.0,
2101.0,2009.0,4.0,26.0,
2126.0,1811.0,4.0,26.0,
2257.0,1923.0,3.0,26.0,
2191.0,1960.0,3.0,26.0,
2144.0,2349.0,3.0,27.0,
1964.0,2089.0,3.0,27.0,
2131.0,2449.0,3.0,27.0,
2181.0,2420.0,3.0,27.0,
2048.0,2146.0,3.0,27.0,
2033.0,1975.0,4.0,28.0,
2152.0,1916.0,4.0,28.0,
1971.0,2322.0,4.0,28.0,
2031.0,2082.0,4.0,28.0,
2130.0,1939.0,4.0,28.0,
2272.0,2259.0,5.0,28.0,
2023.0,2127.0,5.0,28.0,
2084.0,2058.0,5.0,28.0,
1809.0,2063.0,5.0,28.0,
1988.0,1761.0,5.0,28.0,
2490.0,1797.0,5.0,28.0,
2187.0,2107.0,5.0,28.0,
2063.0,2275.0,6.0,28.0,
1715.0,2326.0,6.0,29.0,
2108.0,2279.0,7.0,29.0,
2032.0,2145.0,7.0,28.0,
1896.0,2007.0,7.0,28.0,
2064.0,2001.0,7.0,29.0,
2182.0,2037.0,8.0,29.0,
3009.0,2205.0,8.0,29.0,
1616.0,2197.0,8.0,29.0,
1539.0,2085.0,9.0,29.0,
1747.0,1892.0,8.0,29.0,
1701.0,1914.0,9.0,29.0,
2014.0,1966.0,9.0,29.0,
2458.0,2029.0,9.0,29.0,
1928.0,1745.0,8.0,30.0,
1986.0,2055.0,9.0,30.0,
1881.0,2530.0,8.0,30.0,
1890.0,2094.0,8.0,30.0,
2346.0,2076.0,8.0,29.0,
2234.0,2048.0,7.0,30.0,
2194.0,2105.0,7.0,30.0,
2213.0,2100.0,7.0,30.0,
2039.0,2037.0,7.0,30.0,
1937.0,2118.0,7.0,30.0,
2369.0,2022.0,6.0,30.0,
2344.0,2234.0,6.0,30.0,
1848.0,2177.0,6.0,31.0,
1888.0,1960.0,6.0,31.0,
1986.0,1891.0,5.0,31.0,
2085.0,2317.0,5.0,31.0,
2193.0,2732.0,5.0,31.0,
2327.0,2089.0,4.0,31.0,
2240.0,1877.0,4.0,31.0,
2174.0,2004.0,4.0,32.0,
2131.0,1960.0,4.0,31.0,
1714.0,1928.0,4.0,31.0,
2036.0,1831.0,4.0,31.0,
2328.0,1856.0,4.0,31.0,
2280.0,2295.0,4.0,32.0,
2262.0,2308.0,4.0,32.0,
1511.0,2110.0,5.0,32.0,
1959.0,2056.0,5.0,31.0,
1993.0,2142.0,5.0,31.0,
2130.0,2228.0,5.0,32.0,
2291.0,1986.0,6.0,31.0,
2381.0,2183.0,6.0,31.0,
2102.0,2263.0,6.0,31.0,
2202.0,2191.0,6.0,31.0,
1859.0,2049.0,7.0,31.0,
1776.0,1997.0,7.0,31.0,
2016.0,2127.0,7.0,31.0,
1906.0,1958.0,7.0,31.0,
2029.0,1863.0,7.0,31.0,
1971.0,2046.0,7.0,31.0,
2202.0,1966.0,7.0,31.0,
2067.0,2191.0,7.0,31.0,
1902.0,1743.0,7.0,31.0,
2150.0,1990.0,6.0,31.0,
2094.0,2145.0,6.0,31.0,
2506.0,2469.0,6.0,31.0,
2181.0,2369.0,5.0,31.0,
1562.0,1997.0,5.0,31.0,
1968.0,2004.0,5.0,31.0,
2108.0,2000.0,5.0,31.0,
1968.0,2115.0,5.0,31.0,
2174.0,1946.0,5.0,32.0,
2161.0,1932.0,5.0,32.0,
2101.0,1986.0,5.0,32.0,
2071.0,2225.0,5.0,32.0,
2309.0,2099.0,5.0,32.0,
2019.0,2064.0,5.0,32.0,
1968.0,2141.0,5.0,32.0,
2248.0,2003.0,5.0,33.0,
2303.0,2163.0,5.0,33.0,
2226.0,2226.0,5.0,33.0,
1792.0,2115.0,5.0,33.0,
1856.0,2235.0,5.0,33.0,
2083.0,1715.0,5.0,33.0,
2121.0,1636.0,5.0,34.0,
2239.0,1704.0,5.0,34.0,
2053.0,2592.0,4.0,34.0,
2308.0,2437.0,5.0,34.0,
2048.0,2176.0,4.0,35.0,
2012.0,2185.0,5.0,34.0,
2227.0,2030.0,4.0,35.0,
2331.0,1871.0,4.0,35.0,
1724.0,1954.0,4.0,35.0,
2151.0,2384.0,5.0,35.0,
1798.0,2252.0,4.0,35.0,
1838.0,2173.0,5.0,35.0,
2069.0,2034.0,5.0,35.0,
2149.0,2041.0,5.0,36.0,
1961.0,2022.0,5.0,35.0,
2287.0,2048.0,5.0,36.0,
2049.0,2276.0,6.0,36.0,
1892.0,2057.0,6.0,36.0,
2020.0,1977.0,7.0,36.0,
2360.0,2102.0,7.0,36.0,
2387.0,2086.0,7.0,36.0,
2036.0,2164.0,7.0,36.0,
1713.0,2002.0,7.0,36.0,
2379.0,1953.0,7.0,36.0,
2435.0,1824.0,8.0,36.0,
2390.0,2089.0,8.0,35.0,
1567.0,2323.0,8.0,36.0,
1939.0,2105.0,8.0,35.0,
1700.0,1985.0,9.0,35.0,
2141.0,1942.0,9.0,35.0,
2053.0,1911.0,9.0,35.0,
1951.0,1743.0,8.0,35.0,
1660.0,1767.0,9.0,35.0,
1968.0,2282.0,9.0,35.0,
2160.0,2748.0,8.0,35.0,
2684.0,2350.0,8.0,35.0,
2027.0,2263.0,8.0,35.0,
2356.0,2155.0,8.0,35.0,
2282.0,2032.0,8.0,35.0,
2264.0,2034.0,7.0,35.0,
1720.0,1970.0,7.0,35.0,
2166.0,2010.0,7.0,35.0,
1687.0,1892.0,7.0,35.0,
1378.0,2492.0,7.0,35.0,
1958.0,2274.0,6.0,36.0,
2341.0,1945.0,6.0,36.0,
2362.0,1641.0,6.0,36.0,
1762.0,1760.0,6.0,36.0,
1983.0,2191.0,6.0,36.0,
2051.0,2092.0,6.0,36.0,
2284.0,2105.0,6.0,36.0,
2063.0,2171.0,6.0,36.0,
1989.0,2097.0,5.0,37.0,
1928.0,2026.0,5.0,37.0,
2057.0,2166.0,5.0,37.0,
2131.0,2056.0,5.0,37.0,
2140.0,2044.0,5.0,37.0,
2074.0,1854.0,5.0,38.0,
1997.0,1868.0,5.0,38.0,
2146.0,2347.0,5.0,38.0,
2116.0,2515.0,5.0,38.0,
2336.0,2274.0,4.0,38.0,
2470.0,2111.0,5.0,38.0,
1703.0,1940.0,5.0,38.0,
1948.0,1912.0,5.0,38.0,
2009.0,1941.0,5.0,38.0,
2225.0,2154.0,5.0,38.0,
2538.0,2205.0,6.0,38.0,
2147.0,2224.0,6.0,38.0,
1924.0,2125.0,6.0,38.0,
2470.0,2031.0,6.0,37.0,
2088.0,2082.0,7.0,37.0,
1856.0,2135.0,7.0,37.0,
1901.0,1913.0,7.0,37.0,
2100.0,1993.0,7.0,37.0,
2197.0,2146.0,7.0,37.0,
1689.0,2152.0,7.0,37.0,
1497.0,2191.0,7.0,37.0,
2222.0,2078.0,7.0,36.0,
2169.0,1981.0,7.0,36.0,
2420.0,1787.0,7.0,36.0,
2158.0,1866.0,7.0,36.0,
2266.0,2092.0,6.0,37.0,
1524.0,2059.0,6.0,37.0,
2069.0,2012.0,6.0,37.0,
2086.0,2264.0,6.0,36.0,
2229.0,2498.0,6.0,36.0,
2154.0,2237.0,5.0,36.0,
1790.0,2054.0,5.0,37.0,
1858.0,2015.0,5.0,37.0,
1870.0,2019.0,5.0,37.0,
2218.0,2203.0,4.0,38.0,
1776.0,1986.0,4.0,37.0,
2394.0,2161.0,4.0,37.0,
2257.0,2152.0,4.0,38.0,
2019.0,2169.0,3.0,38.0,
2134.0,2153.0,3.0,38.0,
2142.0,1963.0,3.0,38.0,
2191.0,1888.0,4.0,38.0,
2396.0,2027.0,4.0,38.0,
2370.0,2142.0,3.0,38.0,
1968.0,2052.0,4.0,38.0,
1771.0,2027.0,4.0,38.0,
2104.0,2067.0,4.0,39.0,
1960.0,2127.0,4.0,39.0,
2328.0,2073.0,5.0,38.0,
2104.0,1880.0,4.0,39.0,
2088.0,2181.0,5.0,38.0,
2195.0,2269.0,5.0,39.0,
2180.0,2319.0,5.0,39.0,
1648.0,2083.0,6.0,39.0,
1596.0,1929.0,6.0,39.0,
1917.0,1919.0,7.0,38.0,
2259.0,2123.0,7.0,38.0,
2654.0,2233.0,7.0,38.0,
2510.0,2187.0,8.0,38.0,
1792.0,1976.0,9.0,38.0,
1778.0,2010.0,9.0,38.0,
1640.0,2180.0,9.0,38.0,
2334.0,1973.0,9.0,38.0,
2137.0,2144.0,9.0,38.0,
1418.0,2248.0,9.0,37.0,
1901.0,2085.0,8.0,38.0,
2160.0,1897.0,8.0,38.0,
2520.0,1942.0,8.0,38.0,
2172.0,2034.0,8.0,37.0,
1863.0,2100.0,8.0,38.0,
2289.0,2187.0,8.0,37.0,
1770.0,2194.0,8.0,37.0,
2180.0,2016.0,7.0,37.0,
2475.0,1877.0,7.0,37.0,
2423.0,2067.0,7.0,38.0,
1655.0,2151.0,6.0,37.0,
1907.0,2117.0,6.0,37.0,
1929.0,2033.0,5.0,37.0,
1899.0,2132.0,5.0,37.0,
2145.0,2158.0,5.0,37.0,
2190.0,1962.0,4.0,38.0,
2813.0,1833.0,4.0,37.0,
2071.0,2023.0,4.0,37.0,
1844.0,2345.0,4.0,37.0,
1843.0,1963.0,4.0,38.0,
1902.0,2245.0,4.0,38.0,
1868.0,2035.0,3.0,38.0,
2184.0,2175.0,3.0,38.0,
2318.0,2175.0,3.0,38.0,
1698.0,2194.0,3.0,38.0,
2288.0,2135.0,3.0,38.0,
2017.0,2154.0,3.0,38.0,
2093.0,2048.0,3.0,38.0,
2194.0,2233.0,3.0,39.0,
2206.0,2167.0,3.0,39.0,
2369.0,2000.0,3.0,39.0,
2166.0,2123.0,3.0,39.0,
2263.0,1967.0,3.0,39.0,
1831.0,1878.0,4.0,40.0,
2283.0,1689.0,4.0,40.0,
1980.0,1879.0,5.0,40.0,
1702.0,1881.0,5.0,40.0,
2288.0,2444.0,5.0,40.0,
1956.0,2392.0,6.0,40.0,
1828.0,2415.0,6.0,40.0,
1847.0,2046.0,6.0,40.0,
1888.0,2063.0,6.0,40.0,
1721.0,1995.0,6.0,39.0,
2132.0,2107.0,6.0,39.0,
2402.0,2032.0,6.0,39.0,
2706.0,2181.0,6.0,39.0,
1928.0,2082.0,6.0,39.0,
1748.0,2296.0,6.0,39.0,
2448.0,1929.0,6.0,39.0,
1826.0,1935.0,7.0,39.0,
2256.0,2125.0,7.0,39.0,
1972.0,2019.0,7.0,39.0,
1939.0,1960.0,7.0,39.0,
2288.0,1948.0,8.0,39.0,
2120.0,2065.0,8.0,39.0,
2044.0,2296.0,8.0,39.0,
1849.0,2133.0,8.0,39.0,
1747.0,1825.0,8.0,39.0,
1884.0,2238.0,8.0,39.0,
2389.0,2203.0,8.0,39.0,
2963.0,2138.0,8.0,39.0,
2001.0,2042.0,7.0,39.0,
1420.0,1975.0,7.0,39.0,
1631.0,2272.0,7.0,39.0,
2164.0,1821.0,6.0,39.0,
2431.0,1831.0,6.0,39.0,
2149.0,2106.0,6.0,39.0,
1974.0,2313.0,6.0,39.0,
1986.0,2245.0,5.0,39.0,
2008.0,1848.0,5.0,39.0,
2194.0,1949.0,5.0,39.0,
2529.0,2291.0,4.0,40.0,
2108.0,2620.0,3.0,40.0,
1751.0,1883.0,4.0,40.0,
1776.0,1527.0,4.0,41.0,
2163.0,1989.0,4.0,41.0,
2154.0,2382.0,4.0,41.0,
2434.0,2295.0,4.0,41.0,
2417.0,1956.0,4.0,41.0,
2066.0,1861.0,4.0,41.0,
1821.0,2146.0,5.0,41.0,
2068.0,1990.0,5.0,41.0,
1794.0,2159.0,5.0,40.0,
1749.0,2275.0,5.0,40.0,
2302.0,2232.0,5.0,40.0,
1905.0,2013.0,5.0,40.0,
1998.0,2109.0,5.0,40.0,
2124.0,2118.0,5.0,40.0,
2518.0,2213.0,5.0,40.0,
2216.0,2092.0,5.0,40.0,
2042.0,1929.0,5.0,40.0,
2072.0,1908.0,5.0,40.0,
1596.0,1942.0,6.0,40.0,
2033.0,2019.0,6.0,40.0,
2033.0,1968.0,6.0,39.0,
2263.0,2131.0,6.0,39.0,
2272.0,1697.0,7.0,39.0,
2186.0,2463.0,6.0,39.0,
1832.0,2458.0,7.0,39.0,
1907.0,2316.0,7.0,39.0,
2065.0,2077.0,6.0,39.0,
2331.0,1976.0,6.0,39.0,
2368.0,1943.0,6.0,39.0,
2056.0,2080.0,6.0,39.0,
2896.0,2110.0,6.0,39.0,
2272.0,2159.0,6.0,39.0,
1823.0,2118.0,6.0,39.0,
1384.0,1794.0,5.0,39.0,
1645.0,2051.0,5.0,39.0,
2732.0,2362.0,5.0,39.0,
2449.0,2200.0,5.0,39.0,
1040.0,1809.0,5.0,39.0,
1736.0,1939.0,5.0,39.0,
2259.0,2028.0,4.0,39.0,
2498.0,1852.0,4.0,39.0,
1910.0,1912.0,4.0,39.0,
1577.0,1972.0,4.0,39.0,
1824.0,1941.0,4.0,39.0,
2067.0,2426.0,3.0,39.0,
2287.0,2265.0,3.0,39.0,
2047.0,2005.0,3.0,39.0,
3049.0,2283.0,3.0,39.0,
2476.0,2139.0,3.0,39.0,
986.0,2191.0,3.0,39.0,
2102.0,2280.0,4.0,39.0,
2070.0,1955.0,4.0,39.0,
2148.0,2009.0,4.0,39.0,
2037.0,2064.0,4.0,39.0,
2114.0,2239.0,4.0,39.0,
2447.0,2137.0,4.0,40.0,
1832.0,2122.0,4.0,40.0,
2172.0,1927.0,4.0,40.0,
1732.0,1806.0,4.0,40.0,
1919.0,2178.0,4.0,40.0,
1926.0,2225.0,4.0,40.0,
2044.0,2132.0,4.0,40.0,
2250.0,2061.0,4.0,40.0,
1854.0,1969.0,5.0,40.0,
2322.0,1723.0,5.0,41.0,
2269.0,2321.0,6.0,41.0,
2279.0,2142.0,5.0,42.0,
2273.0,2142.0,6.0,42.0,
1603.0,2337.0,6.0,42.0,
2245.0,2161.0,6.0,42.0,
2060.0,1969.0,7.0,42.0,
2070.0,1817.0,7.0,42.0,
1929.0,1870.0,7.0,42.0,
2057.0,1898.0,6.0,42.0,
2068.0,2441.0,6.0,41.0,
2549.0,2268.0,6.0,41.0,
1850.0,1939.0,7.0,40.0,
1615.0,2233.0,7.0,40.0,
1737.0,2064.0,7.0,40.0,
1938.0,1869.0,7.0,40.0,
2630.0,2062.0,7.0,40.0,
2037.0,2188.0,7.0,40.0,
2067.0,2024.0,8.0,40.0,
2371.0,2042.0,8.0,40.0,
2040.0,2119.0,8.0,39.0,
2093.0,2074.0,8.0,39.0,
2052.0,1849.0,7.0,40.0,
1773.0,1873.0,7.0,39.0,
1986.0,2019.0,7.0,39.0,
1902.0,2427.0,7.0,39.0,
2355.0,2311.0,6.0,39.0,
2533.0,2232.0,6.0,39.0,
1911.0,2010.0,6.0,39.0,
2232.0,2003.0,6.0,40.0,
1952.0,1890.0,6.0,40.0,
2596.0,2135.0,6.0,40.0,
1561.0,2134.0,6.0,40.0,
1395.0,2009.0,6.0,40.0,
2022.0,2147.0,6.0,40.0,
1935.0,2555.0,6.0,40.0,
2064.0,1959.0,5.0,40.0,
2025.0,1892.0,5.0,40.0,
2331.0,1888.0,5.0,40.0,
2995.0,1876.0,5.0,40.0,
2112.0,2090.0,4.0,40.0,
1392.0,2088.0,4.0,40.0,
1946.0,2418.0,4.0,40.0,
1940.0,2344.0,4.0,40.0,
2117.0,2087.0,3.0,40.0,
2544.0,1895.0,3.0,40.0,
1831.0,1984.0,3.0,40.0,
2325.0,1970.0,4.0,40.0,
2165.0,1902.0,4.0,41.0,
2051.0,2027.0,4.0,41.0,
2060.0,1893.0,4.0,41.0,
2353.0,2111.0,5.0,41.0,
2197.0,2255.0,5.0,41.0,
2237.0,2212.0,5.0,41.0,
1891.0,2417.0,5.0,41.0,
1280.0,2236.0,5.0,41.0,
1829.0,2035.0,5.0,41.0,
2255.0,2056.0,6.0,40.0,
2380.0,1939.0,6.0,40.0,
2446.0,1961.0,6.0,40.0,
2137.0,2070.0,6.0,40.0,
1821.0,2105.0,6.0,40.0,
1902.0,2150.0,6.0,40.0,
2362.0,1920.0,6.0,40.0,
1329.0,1740.0,6.0,40.0,
2223.0,2015.0,6.0,40.0,
2680.0,1964.0,6.0,40.0,
2626.0,2224.0,6.0,40.0,
2097.0,2261.0,6.0,40.0,
1279.0,2101.0,6.0,40.0,
1595.0,2293.0,6.0,40.0,
1967.0,2194.0,6.0,41.0,
2143.0,2106.0,6.0,41.0,
2510.0,2065.0,6.0,41.0,
2117.0,2032.0,6.0,41.0,
2065.0,2133.0,6.0,41.0,
2295.0,2342.0,6.0,41.0,
2297.0,1893.0,6.0,41.0,
1705.0,1922.0,6.0,41.0,
1552.0,1912.0,6.0,41.0,
2141.0,2080.0,6.0,41.0,
2536.0,1981.0,6.0,40.0,
2658.0,1864.0,6.0,40.0,
1941.0,2177.0,5.0,40.0,
1244.0,2275.0,5.0,40.0,
1823.0,2054.0,5.0,40.0,
2273.0,2339.0,5.0,40.0,
2126.0,2292.0,5.0,40.0,
1909.0,1771.0,5.0,40.0,
2022.0,1614.0,5.0,40.0,
2048.0,2266.0,5.0,40.0,
2258.0,2515.0,5.0,40.0,
2370.0,2361.0,5.0,40.0,
1982.0,2156.0,5.0,40.0,
1939.0,1861.0,5.0,40.0,
2033.0,2116.0,5.0,40.0,
2034.0,2124.0,5.0,40.0,
2337.0,2097.0,5.0,40.0,
2076.0,1942.0,5.0,40.0,
2017.0,2101.0,5.0,40.0,
2049.0,2086.0,5.0,41.0,
1990.0,1772.0,5.0,41.0,
2040.0,1706.0,5.0,41.0,
2381.0,2105.0,5.0,41.0,
3110.0,2630.0,5.0,41.0,
2696.0,2401.0,5.0,41.0,
1279.0,2041.0,5.0,41.0,
1924.0,1972.0,5.0,41.0,
2513.0,1957.0,5.0,41.0,
1802.0,2126.0,5.0,41.0,
1762.0,2164.0,6.0,41.0,
1512.0,2256.0,6.0,41.0,
1378.0,2116.0,6.0,42.0,
2119.0,1589.0,6.0,42.0,
2680.0,1478.0,6.0,42.0,
2163.0,1897.0,6.0,42.0,
2683.0,2614.0,6.0,42.0,
2101.0,2623.0,6.0,41.0,
1412.0,2340.0,6.0,41.0,
2077.0,2190.0,6.0,41.0,
2875.0,2228.0,6.0,41.0,
2334.0,1989.0,6.0,41.0,
1022.0,1888.0,6.0,40.0,
1873.0,1976.0,5.0,41.0,
2089.0,2084.0,5.0,41.0,
1507.0,1875.0,5.0,41.0,
2339.0,1916.0,5.0,41.0,
1972.0,2110.0,5.0,41.0,
2397.0,1933.0,5.0,41.0,
3030.0,2139.0,5.0,41.0,
2652.0,2266.0,5.0,41.0,
2025.0,1854.0,5.0,41.0,
1472.0,1889.0,5.0,41.0,
2179.0,2460.0,5.0,41.0,
1984.0,2056.0,5.0,41.0,
1743.0,2231.0,5.0,41.0,
2623.0,2217.0,5.0,41.0,
2431.0,2046.0,5.0,41.0,
1938.0,1768.0,5.0,41.0,
2065.0,2060.0,5.0,41.0,
1830.0,2011.0,5.0,41.0,
1319.0,1905.0,5.0,41.0,
2242.0,1925.0,5.0,41.0,
2190.0,2251.0,5.0,42.0,
1786.0,2162.0,5.0,42.0,
1492.0,2226.0,5.0,41.0,
1965.0,2149.0,5.0,42.0,
2167.0,2146.0,5.0,42.0,
2102.0,2314.0,7.0,41.0,
2005.0,1999.0,4.0,41.0,
2143.0,2246.0,4.0,41.0,
2216.0,1994.0,4.0,42.0,
2328.0,1930.0,4.0,41.0,
1838.0,2039.0,4.0,42.0,
2014.0,1958.0,4.0,42.0,
2270.0,2172.0,4.0,42.0,
2643.0,2163.0,4.0,41.0,
2118.0,2132.0,4.0,41.0,
1751.0,2087.0,2.0,41.0,
2604.0,2044.0,5.0,41.0,
2164.0,1928.0,5.0,41.0,
1816.0,1984.0,6.0,40.0,
1220.0,2105.0,6.0,40.0,
1677.0,2044.0,6.0,40.0,
2033.0,2325.0,6.0,40.0,
2433.0,1975.0,6.0,40.0,
1796.0,1902.0,7.0,40.0,
2106.0,1922.0,7.0,40.0,
1775.0,1953.0,7.0,40.0,
2054.0,2326.0,7.0,40.0,
2181.0,2453.0,7.0,40.0,
2243.0,2068.0,7.0,40.0,
2375.0,2029.0,7.0,40.0,
2270.0,2156.0,7.0,40.0,
1971.0,2006.0,7.0,41.0,
2261.0,2101.0,7.0,41.0,
2981.0,2399.0,7.0,41.0,
1986.0,2074.0,6.0,41.0,
1474.0,2057.0,6.0,41.0,
1885.0,1865.0,6.0,41.0,
1860.0,1981.0,6.0,41.0,
2087.0,2001.0,6.0,41.0,
2389.0,2088.0,6.0,41.0,
2648.0,2047.0,6.0,41.0,
1738.0,2065.0,6.0,41.0,
1624.0,2018.0,6.0,41.0,
1885.0,2047.0,0,
1886.0,2238.0,6.0,41.0,
2096.0,2232.0,6.0,41.0,
2684.0,2209.0,5.0,41.0,
2277.0,2111.0,5.0,41.0,
1804.0,2103.0,5.0,41.0,
1817.0,2010.0,5.0,41.0,
2586.0,1933.0,5.0,41.0,
2472.0,2043.0,5.0,41.0,
1605.0,2158.0,5.0,41.0,
1572.0,2238.0,5.0,41.0,
2010.0,2072.0,5.0,41.0,
2086.0,1971.0,4.0,41.0,
1952.0,1822.0,4.0,41.0,
2078.0,2025.0,4.0,41.0,
2360.0,2499.0,4.0,41.0,
2488.0,2295.0,4.0,41.0,
1984.0,2017.0,5.0,41.0,
2506.0,2014.0,5.0,41.0,
2258.0,2153.0,0,
1724.0,2063.0,5.0,41.0,
1801.0,2085.0,5.0,41.0,
1702.0,2079.0,5.0,41.0,
1870.0,1993.0,5.0,41.0,
2388.0,1987.0,6.0,41.0,
2437.0,2038.0,5.0,41.0,
1830.0,2018.0,5.0,41.0,
2282.0,2266.0,5.0,41.0,
2492.0,1892.0,6.0,41.0,
2246.0,2062.0,6.0,41.0,
1422.0,2059.0,6.0,41.0,
1682.0,2065.0,6.0,41.0,
1657.0,2011.0,7.0,41.0,
2284.0,2181.0,7.0,42.0,
2196.0,2189.0,6.0,42.0,
2192.0,2150.0,7.0,42.0,
1598.0,2073.0,8.0,42.0,
2024.0,2065.0,8.0,42.0,
2235.0,2043.0,8.0,42.0,
2101.0,2054.0,8.0,42.0,
1880.0,2147.0,8.0,42.0,
2179.0,2003.0,7.0,41.0,
2177.0,1977.0,7.0,41.0,
2024.0,1952.0,7.0,41.0,
2063.0,2144.0,7.0,41.0,
2399.0,2189.0,6.0,41.0,
2347.0,1990.0,6.0,41.0,
1673.0,2066.0,6.0,41.0,
2110.0,2287.0,5.0,40.0,
2197.0,2139.0,5.0,40.0,
2276.0,2068.0,5.0,40.0,
2089.0,2258.0,5.0,40.0,
1776.0,2062.0,0,
1853.0,2122.0,4.0,41.0,
2090.0,2029.0,4.0,40.0,
2115.0,2100.0,4.0,40.0,
2172.0,2086.0,4.0,40.0,
2196.0,1987.0,3.0,39.0,
1962.0,2050.0,3.0,39.0,
2421.0,2099.0,3.0,39.0,
2186.0,2110.0,2.0,39.0,
1817.0,2058.0,2.0,39.0,
2371.0,2074.0,2.0,40.0,
2056.0,1997.0,2.0,39.0,
2138.0,2088.0,2.0,39.0,
1828.0,2122.0,1.0,40.0,
1633.0,1998.0,0,
2074.0,2119.0,2.0,40.0,
2087.0,2123.0,2.0,40.0,
2007.0,2033.0,3.0,40.0,
1995.0,2076.0,3.0,40.0,
2097.0,2116.0,4.0,40.0,
2140.0,2065.0,5.0,40.0,
2152.0,2082.0,6.0,39.0,
2148.0,2095.0,7.0,40.0,
2120.0,1960.0,7.0,40.0,
2137.0,2076.0,8.0,40.0,
2162.0,2235.0,9.0,40.0,
2085.0,2100.0,10.0,40.0,
2214.0,2125.0,10.0,39.0,
2095.0,2195.0,10.0,39.0,
1819.0,2027.0,10.0,39.0,
1925.0,2073.0,10.0,39.0,
2028.0,2187.0,10.0,39.0,
2066.0,1973.0,10.0,39.0,
2053.0,2045.0,10.0,39.0,
2101.0,2058.0,10.0,39.0,
2105.0,2052.0,10.0,39.0,
2124.0,2125.0,10.0,39.0,
2127.0,2040.0,10.0,38.0,
2158.0,2101.0,10.0,38.0,
2255.0,2072.0,9.0,39.0,
2219.0,2069.0,9.0,39.0,
1973.0,2066.0,8.0,38.0,
1848.0,2077.0,8.0,38.0,
1996.0,2055.0,7.0,37.0,
2092.0,2055.0,7.0,36.0,
2130.0,2116.0,6.0,36.0,
1868.0,2067.0,5.0,35.0,
2182.0,2073.0,5.0,35.0,
2239.0,2239.0,5.0,34.0,
1877.0,2100.0,4.0,33.0,
2071.0,2131.0,4.0,32.0,
2154.0,2136.0,4.0,31.0,
2009.0,1995.0,4.0,32.0,
2078.0,1940.0,5.0,33.0,
2114.0,2010.0,5.0,33.0,
2121.0,2221.0,5.0,33.0,
2077.0,2168.0,5.0,33.0,
2061.0,2131.0,6.0,33.0,
2054.0,2053.0,5.0,34.0,
2047.0,2053.0,5.0,34.0,
2002.0,2126.0,5.0,35.0,
2104.0,2063.0,5.0,36.0,
2140.0,2068.0,5.0,35.0,
1980.0,2108.0,6.0,35.0,
2069.0,2104.0,4.0,36.0,
2064.0,2017.0,2.0,33.0,
2107.0,2079.0,2.0,32.0,
2106.0,2081.0,1.0,33.0,
2087.0,2084.0,0.0,32.0,
2054.0,2072.0,0.0,32.0,
2029.0,2065.0,0.0,31.0,
2049.0,2071.0,0.0,31.0,
2060.0,2071.0,0.0,33.0,
2077.0,2087.0,-1.0,32.0,
2108.0,2089.0,1.0,31.0,
2135.0,2096.0,3.0,34.0,
1968.0,2077.0,4.0,34.0,
2230.0,2087.0,5.0,34.0,
2199.0,2091.0,7.0,35.0,
1785.0,2076.0,10.0,34.0,
1975.0,2090.0,11.0,37.0,
2095.0,2103.0,10.0,35.0,
2089.0,2061.0,12.0,34.0,
1994.0,2043.0,11.0,34.0,
2040.0,2148.0,10.0,35.0,
2113.0,2108.0,10.0,36.0,
2027.0,2147.0,9.0,35.0,
2152.0,2095.0,10.0,35.0,
2144.0,1976.0,10.0,35.0,
1971.0,2010.0,9.0,35.0,
2061.0,2052.0,11.0,33.0,
2044.0,2089.0,11.0,35.0,
2086.0,2290.0,11.0,33.0,
2079.0,2106.0,13.0,33.0,
2065.0,2092.0,15.0,33.0,
2096.0,2023.0,14.0,33.0,
2099.0,1990.0,15.0,31.0,
2099.0,1992.0,13.0,28.0,
2100.0,2089.0,13.0,32.0,
2102.0,2118.0,13.0,28.0,
2100.0,2126.0,10.0,28.0,
2127.0,2096.0,9.0,28.0,
2095.0,2020.0,7.0,29.0,
2084.0,1998.0,6.0,31.0,
2062.0,1988.0,6.0,30.0,
2065.0,2100.0,7.0,27.0,
2087.0,2164.0,4.0,29.0,
2064.0,2182.0,5.0,32.0,
2069.0,2173.0,5.0,27.0,
2060.0,2108.0,3.0,31.0,
2048.0,2153.0,4.0,30.0,
2122.0,2179.0,4.0,29.0,
2098.0,2075.0,4.0,28.0,
2063.0,2055.0,4.0,27.0,
2078.0,1972.0,3.0,27.0,
2056.0,2082.0,2.0,28.0,
2082.0,1999.0,4.0,27.0,
2072.0,2078.0,4.0,27.0,
2091.0,2151.0,4.0,27.0,
2103.0,2110.0,5.0,27.0,
2022.0,2041.0,5.0,27.0,
2006.0,2002.0,5.0,28.0,
2070.0,2034.0,5.0,28.0,
2021.0,2058.0,5.0,28.0,
2060.0,2125.0,6.0,28.0,
2034.0,2143.0,6.0,28.0,
2033.0,2126.0,6.0,28.0,
2021.0,2083.0,7.0,28.0,
2047.0,2072.0,7.0,28.0,
2037.0,2105.0,7.0,28.0,
2053.0,2065.0,8.0,28.0,
2074.0,2063.0,8.0,27.0,
2137.0,2076.0,9.0,27.0,
2145.0,2073.0,9.0,27.0,
2016.0,2096.0,10.0,27.0,
2055.0,2097.0,10.0,27.0,
2095.0,2092.0,10.0,27.0,
2091.0,2091.0,11.0,27.0,
2090.0,2087.0,11.0,27.0,
2126.0,2045.0,12.0,27.0,
2094.0,2055.0,12.0,26.0,
2055.0,2035.0,12.0,26.0,
2054.0,2051.0,13.0,26.0,
2078.0,2080.0,13.0,26.0,
2081.0,2113.0,13.0,26.0,
2085.0,2133.0,13.0,26.0,
2061.0,2152.0,13.0,26.0,
2082.0,2020.0,13.0,25.0,
2077.0,2082.0,13.0,25.0,
2078.0,2093.0,13.0,25.0,
2132.0,2004.0,14.0,24.0,
2081.0,2051.0,13.0,24.0,
2087.0,2062.0,13.0,22.0,
2097.0,2093.0,12.0,22.0,
2098.0,2126.0,12.0,21.0,
2082.0,2157.0,12.0,21.0,
2107.0,2150.0,12.0,21.0,
2079.0,2070.0,12.0,21.0,
2074.0,2095.0,11.0,20.0,
2050.0,1989.0,11.0,20.0,
2046.0,2017.0,11.0,20.0,
2062.0,2071.0,10.0,19.0,
2082.0,2157.0,10.0,20.0,
2064.0,2081.0,10.0,20.0,
2075.0,2076.0,10.0,19.0,
2065.0,2033.0,9.0,19.0,
2052.0,2032.0,9.0,19.0,
2056.0,2093.0,9.0,18.0,
2060.0,2192.0,8.0,18.0,
2071.0,2083.0,8.0,18.0,
2093.0,2200.0,7.0,18.0,
2058.0,2075.0,7.0,18.0,
2059.0,2131.0,7.0,18.0,
2108.0,2087.0,7.0,19.0,
2084.0,2118.0,7.0,18.0,
2077.0,2073.0,7.0,18.0,
2098.0,2000.0,7.0,17.0,
2091.0,1840.0,6.0,17.0,
2118.0,1886.0,7.0,17.0,
2118.0,2073.0,7.0,17.0,
2060.0,2400.0,7.0,17.0,
2080.0,2330.0,7.0,17.0,
2111.0,2149.0,7.0,17.0,
2043.0,2054.0,8.0,18.0,
2000.0,2033.0,8.0,18.0,
1990.0,2114.0,8.0,18.0,
2024.0,2036.0,8.0,18.0,
2086.0,2053.0,9.0,18.0,
2067.0,2149.0,10.0,18.0,
2066.0,2158.0,10.0,18.0,
2046.0,2063.0,11.0,18.0,
2075.0,2025.0,12.0,18.0,
2005.0,2027.0,12.0,18.0,
2058.0,1998.0,13.0,18.0,
2085.0,1938.0,14.0,17.0,
2071.0,2043.0,14.0,17.0,
2072.0,2173.0,15.0,17.0,
2088.0,2129.0,15.0,17.0,
2098.0,2093.0,15.0,17.0,
2113.0,2091.0,16.0,16.0,
2093.0,2021.0,16.0,16.0,
2091.0,1968.0,17.0,16.0,
2095.0,2117.0,17.0,16.0,
2107.0,2028.0,17.0,15.0,
2083.0,2052.0,17.0,15.0,
2069.0,2149.0,17.0,15.0,
2068.0,1986.0,17.0,15.0,
2070.0,2186.0,17.0,14.0,
2119.0,2130.0,17.0,14.0,
2087.0,2066.0,16.0,14.0,
2082.0,2237.0,16.0,13.0,
2088.0,2254.0,15.0,13.0,
2077.0,2064.0,15.0,12.0,
2081.0,1972.0,14.0,12.0,
2081.0,1941.0,14.0,11.0,
2051.0,2022.0,14.0,11.0,
2081.0,2106.0,13.0,10.0,
2116.0,2185.0,12.0,10.0,
2116.0,2157.0,12.0,9.0,
2116.0,2103.0,11.0,9.0,
2060.0,2079.0,10.0,8.0,
2050.0,2109.0,9.0,7.0,
2060.0,2052.0,9.0,7.0,
2051.0,2144.0,8.0,6.0,
2063.0,2032.0,8.0,6.0,
2076.0,2070.0,7.0,6.0,
2081.0,2170.0,7.0,5.0,
2067.0,2154.0,7.0,5.0,
2062.0,2049.0,6.0,5.0,
2082.0,1917.0,6.0,4.0,
2080.0,1911.0,5.0,4.0,
2075.0,1915.0,5.0,5.0,
2089.0,2038.0,4.0,4.0,
2099.0,2248.0,4.0,3.0,
2085.0,2263.0,3.0,3.0,
2045.0,2104.0,3.0,3.0,
2052.0,1969.0,0,
2071.0,1956.0,3.0,2.0,
2095.0,2179.0,3.0,2.0,
2108.0,2350.0,3.0,2.0,
2050.0,2164.0,3.0,2.0,
2069.0,2060.0,4.0,2.0,
2091.0,1913.0,4.0,2.0,
2075.0,1931.0,4.0,2.0,
2036.0,2049.0,5.0,2.0,
2035.0,2234.0,5.0,1.0,
2115.0,2055.0,6.0,2.0,
2120.0,2098.0,6.0,2.0,
2124.0,2163.0,7.0,2.0,
2038.0,1974.0,8.0,3.0,
2053.0,2065.0,9.0,3.0,
2044.0,2328.0,9.0,3.0,
2007.0,2184.0,10.0,3.0,
2018.0,2157.0,11.0,3.0,
2067.0,2158.0,11.0,3.0,
2041.0,1983.0,12.0,3.0,
2048.0,2008.0,12.0,3.0,
2062.0,2071.0,12.0,3.0,
2059.0,2014.0,12.0,3.0,
2048.0,1998.0,12.0,3.0,
2075.0,1999.0,13.0,2.0,
2091.0,2004.0,13.0,2.0,
2109.0,2052.0,13.0,2.0,
2117.0,2094.0,13.0,2.0,
2109.0,2042.0,13.0,1.0,
2093.0,2063.0,13.0,0.0,
2042.0,2066.0,13.0,0.0,
2065.0,2083.0,13.0,0.0,
2067.0,2040.0,12.0,0.0,
2076.0,2087.0,12.0,0.0,
2074.0,2107.0,12.0,0.0,
2074.0,2067.0,12.0,0.0,
2076.0,2124.0,11.0,-1.0,
2076.0,2166.0,11.0,-1.0,
2077.0,2154.0,10.0,-2.0,
2072.0,2136.0,9.0,-2.0,
2078.0,2079.0,9.0,-2.0,
2075.0,2063.0,9.0,-3.0,
2081.0,2019.0,8.0,-4.0,
2085.0,2054.0,8.0,-4.0,
2090.0,2055.0,8.0,-4.0,
2092.0,2177.0,8.0,-4.0,
2083.0,2235.0,7.0,-4.0,
2065.0,2131.0,7.0,-4.0,
2059.0,2066.0,7.0,-5.0,
2080.0,2043.0,7.0,-5.0,
2093.0,2038.0,7.0,-5.0,
2073.0,1991.0,7.0,-4.0,
2071.0,1991.0,7.0,-4.0,
2075.0,2111.0,7.0,-5.0,
2068.0,2063.0,7.0,-5.0,
2061.0,2096.0,8.0,-5.0,
2070.0,2078.0,8.0,-4.0,
2062.0,2088.0,8.0,-4.0,
2076.0,2043.0,9.0,-4.0,
2076.0,2021.0,9.0,-4.0,
2060.0,2043.0,10.0,-3.0,
2088.0,2010.0,10.0,-3.0,
2103.0,2247.0,11.0,-3.0,
2088.0,2164.0,11.0,-3.0,
2023.0,1998.0,12.0,-2.0,
2040.0,2160.0,12.0,-2.0,
2074.0,2127.0,12.0,-2.0,
2070.0,2144.0,13.0,-2.0,
2121.0,2212.0,13.0,-2.0,
2103.0,2094.0,13.0,-3.0,
2045.0,2096.0,14.0,-3.0,
2055.0,2002.0,14.0,-2.0,
2067.0,1979.0,14.0,-2.0,
2047.0,1935.0,14.0,-2.0,
2049.0,2103.0,15.0,-2.0,
2061.0,2169.0,15.0,-1.0,
2061.0,2122.0,15.0,-1.0,
2071.0,2092.0,15.0,-2.0,
2063.0,2097.0,15.0,-2.0,
2082.0,2079.0,15.0,-1.0,
2093.0,2083.0,15.0,-1.0,
2091.0,2087.0,15.0,-2.0,
2090.0,2077.0,15.0,-3.0,
2090.0,2062.0,15.0,-3.0,
2081.0,2072.0,15.0,-3.0,
2061.0,2071.0,15.0,-3.0,
2076.0,2082.0,14.0,-3.0,
2073.0,2087.0,14.0,-4.0,
2066.0,2081.0,14.0,-4.0,
2108.0,2089.0,14.0,-4.0,
2099.0,2098.0,14.0,-4.0,
2097.0,2085.0,13.0,-4.0,
2100.0,2078.0,13.0,-4.0,
2056.0,2073.0,13.0,-4.0,
2051.0,2071.0,13.0,-4.0,
2061.0,2066.0,13.0,-5.0,
2074.0,2086.0,13.0,-5.0,
2064.0,2087.0,13.0,-6.0,
2065.0,2092.0,13.0,-6.0,
2091.0,2082.0,13.0,-6.0,
2082.0,2078.0,14.0,-6.0,
2076.0,2076.0,14.0,-5.0,
2072.0,2075.0,14.0,-5.0,
2068.0,2078.0,15.0,-5.0,
2068.0,2085.0,15.0,-5.0,
2085.0,2088.0,15.0,-5.0,
2071.0,2091.0,16.0,-5.0,
2073.0,2083.0,16.0,-4.0,
2072.0,2078.0,16.0,-5.0,
2079.0,2100.0,16.0,-5.0,
2071.0,2075.0,16.0,-5.0,
2079.0,2073.0,16.0,-5.0,
2079.0,2081.0,16.0,-5.0,
2058.0,2123.0,17.0,-5.0,
2067.0,2066.0,17.0,-5.0,
2086.0,2073.0,17.0,-5.0,
2088.0,2086.0,17.0,-5.0,
2086.0,2081.0,16.0,-5.0,
2088.0,2079.0,16.0,-5.0,
2070.0,2080.0,16.0,-5.0,
2064.0,2082.0,16.0,-5.0,
2064.0,2090.0,16.0,-5.0,
2074.0,2069.0,15.0,-5.0,
2069.0,2090.0,15.0,-6.0,
2061.0,2074.0,15.0,-6.0,
2076.0,2075.0,14.0,-6.0,
2077.0,2090.0,14.0,-6.0,
2079.0,2073.0,14.0,-6.0,
2067.0,2074.0,13.0,-6.0,
2056.0,2094.0,13.0,-6.0,
2079.0,2053.0,12.0,-6.0,
2059.0,2083.0,12.0,-6.0,
2071.0,2088.0,11.0,-6.0,
2075.0,2086.0,10.0,-7.0,
2068.0,2097.0,10.0,-6.0,
2083.0,2092.0,9.0,-6.0,
2070.0,2101.0,9.0,-6.0,
2076.0,2099.0,9.0,-6.0,
2091.0,2050.0,8.0,-7.0,
2070.0,2063.0,8.0,-8.0,
2065.0,2078.0,7.0,-8.0,
2060.0,2089.0,7.0,-7.0,
2067.0,2092.0,7.0,-6.0,
2086.0,2092.0,7.0,-6.0,
2074.0,2095.0,8.0,-6.0,
2075.0,2072.0,7.0,-6.0,
2071.0,2087.0,8.0,-7.0,
2071.0,2074.0,7.0,-7.0,
2065.0,2072.0,7.0,-7.0,
2067.0,2080.0,8.0,-6.0,
2072.0,2082.0,8.0,-7.0,
2066.0,2081.0,8.0,-7.0,
2123.0,2085.0,9.0,-7.0,
2070.0,2090.0,9.0,-7.0,
2075.0,2088.0,9.0,-6.0,
2076.0,2083.0,10.0,-6.0,
2083.0,2089.0,10.0,-6.0,
2081.0,2081.0,11.0,-6.0,
2070.0,2086.0,11.0,-6.0,
2075.0,2095.0,11.0,-6.0,
2078.0,2100.0,12.0,-6.0,
2082.0,2092.0,12.0,-6.0,
2082.0,2093.0,13.0,-7.0,
2081.0,2096.0,13.0,-7.0,
2078.0,2074.0,13.0,-7.0,
2077.0,2076.0,14.0,-7.0,
2079.0,2087.0,14.0,-7.0,
2076.0,2083.0,14.0,-7.0,
2074.0,2089.0,15.0,-7.0,
2075.0,2096.0,15.0,-7.0,
2059.0,2104.0,16.0,-7.0,
2077.0,2087.0,16.0,-7.0,
2068.0,2086.0,17.0,-7.0,
2069.0,2077.0,17.0,-7.0,
2068.0,2101.0,17.0,-7.0,
2070.0,2082.0,17.0,-8.0,
2070.0,2086.0,18.0,-8.0,
2067.0,2086.0,18.0,-8.0,
2063.0,2087.0,18.0,-8.0,
2064.0,2086.0,19.0,-9.0,
2062.0,2091.0,19.0,-10.0,
2073.0,2088.0,19.0,-11.0,
2072.0,2087.0,19.0,-11.0,
2067.0,2088.0,19.0,-11.0,
2068.0,2074.0,19.0,-10.0,
2067.0,2075.0,20.0,-10.0,
2075.0,2085.0,20.0,-9.0,
2065.0,2090.0,20.0,-9.0,
2079.0,2092.0,20.0,-9.0,
2076.0,2071.0,20.0,-8.0,
2076.0,2081.0,21.0,-8.0,
2072.0,2085.0,21.0,-7.0,
2083.0,2065.0,21.0,-7.0,
2071.0,2069.0,21.0,-8.0,
2071.0,2083.0,21.0,-9.0,
2073.0,2077.0,20.0,-11.0,
2072.0,2084.0,20.0,-11.0,
2082.0,2081.0,20.0,-11.0,
2075.0,2089.0,20.0,-10.0,
2071.0,2090.0,20.0,-9.0,
2083.0,2087.0,20.0,-9.0,
2072.0,2090.0,21.0,-9.0,
2063.0,2077.0,20.0,-9.0,
2080.0,2072.0,20.0,-9.0,
2072.0,2082.0,20.0,-8.0,
2075.0,2089.0,20.0,-7.0,
2072.0,2090.0,21.0,-7.0,
2075.0,2090.0,21.0,-8.0,
2075.0,2086.0,21.0,-9.0,
2080.0,2078.0,21.0,-9.0,
2069.0,2084.0,21.0,-9.0,
2069.0,2080.0,21.0,-9.0,
2083.0,2105.0,21.0,-9.0,
2066.0,2090.0,21.0,-9.0,
2075.0,2094.0,21.0,-9.0,
2080.0,2086.0,21.0,-10.0,
2079.0,2091.0,21.0,-11.0,
2083.0,2085.0,21.0,-11.0,
2073.0,2087.0,21.0,-11.0,
2078.0,2079.0,21.0,-10.0,
2076.0,2082.0,21.0,-9.0,
2069.0,2081.0,21.0,-9.0,
2070.0,2082.0,21.0,-9.0,
2072.0,2086.0,22.0,-9.0,
2080.0,2090.0,22.0,-8.0,
2077.0,2089.0,21.0,-8.0,
2080.0,2091.0,22.0,-7.0,
2078.0,2080.0,22.0,-7.0,
2066.0,2075.0,22.0,-7.0,
2072.0,2077.0,22.0,-8.0,
2061.0,2081.0,22.0,-8.0,
2066.0,2087.0,22.0,-9.0,
2074.0,2089.0,22.0,-9.0,
2086.0,2091.0,22.0,-9.0,
2080.0,2092.0,22.0,-8.0,
2076.0,2082.0,22.0,-8.0,
2068.0,2090.0,22.0,-8.0,
2072.0,2085.0,22.0,-8.0,
2071.0,2081.0,22.0,-8.0,
2067.0,2084.0,22.0,-8.0,
2065.0,2089.0,22.0,-8.0,
2067.0,2093.0,22.0,-8.0,
2082.0,2082.0,22.0,-8.0,
2077.0,2082.0,21.0,-8.0,
2075.0,2083.0,21.0,-8.0,
2082.0,2084.0,21.0,-8.0,
2086.0,2081.0,21.0,-8.0,
2069.0,2085.0,21.0,-8.0,
2059.0,2080.0,21.0,-8.0,
2064.0,2086.0,21.0,-8.0,
2076.0,2087.0,21.0,-8.0,
2078.0,2086.0,21.0,-8.0,
2078.0,2092.0,20.0,-8.0,
2068.0,2098.0,20.0,-8.0,
2076.0,2070.0,20.0,-8.0,
2068.0,2085.0,20.0,-8.0,
2074.0,2077.0,20.0,-8.0,
2073.0,2069.0,20.0,-8.0,
2072.0,2081.0,19.0,-8.0,
2071.0,2092.0,19.0,-8.0,
2074.0,2080.0,19.0,-8.0,
2076.0,2082.0,19.0,-8.0,
2079.0,2083.0,19.0,-8.0,
2076.0,2079.0,19.0,-8.0,
2080.0,2088.0,19.0,-8.0,
2079.0,2086.0,19.0,-8.0,
2064.0,2077.0,19.0,-8.0,
2050.0,2091.0,18.0,-9.0,
2085.0,2075.0,18.0,-9.0,
2071.0,2086.0,18.0,-9.0,
2073.0,2083.0,18.0,-9.0,
2080.0,2079.0,18.0,-9.0,
2073.0,2083.0,18.0,-9.0,
2068.0,2083.0,18.0,-9.0,
2082.0,2082.0,18.0,-9.0,
2077.0,2079.0,18.0,-9.0,
2074.0,2087.0,18.0,-9.0,
2073.0,2087.0,18.0,-9.0,
2067.0,2086.0,18.0,-8.0,
2072.0,2087.0,18.0,-8.0,
2074.0,2081.0,18.0,-8.0,
2078.0,2085.0,18.0,-8.0,
2063.0,2082.0,18.0,-8.0,
2068.0,2082.0,18.0,-8.0,
2067.0,2083.0,18.0,-8.0,
2074.0,2081.0,19.0,-8.0,
2074.0,2082.0,19.0,-9.0,
2073.0,2093.0,19.0,-9.0,
2077.0,2088.0,19.0,-10.0,
2074.0,2084.0,19.0,-11.0,
2079.0,2088.0,19.0,-10.0,
2072.0,2079.0,19.0,-8.0,
2063.0,2077.0,19.0,-8.0,
2069.0,2087.0,19.0,-8.0,
2067.0,2089.0,19.0,-8.0,
2068.0,2088.0,19.0,-8.0,
2069.0,2090.0,19.0,-7.0,
2074.0,2086.0,19.0,-7.0,
2069.0,2088.0,19.0,-6.0,
2075.0,2087.0,20.0,-5.0,
2077.0,2076.0,20.0,-6.0,
2071.0,2076.0,20.0,-8.0,
2067.0,2090.0,20.0,-8.0,
2094.0,2084.0,19.0,-8.0,
2067.0,2080.0,19.0,-8.0,
2073.0,2085.0,20.0,-8.0,
2075.0,2082.0,20.0,-8.0,
2078.0,2087.0,20.0,-8.0,
2076.0,2083.0,20.0,-8.0,
2077.0,2078.0,20.0,-8.0,
2072.0,2069.0,20.0,-8.0,
2074.0,2074.0,20.0,-8.0,
2065.0,2076.0,20.0,-8.0,
2068.0,2087.0,20.0,-8.0,
2071.0,2088.0,20.0,-8.0,
2069.0,2092.0,20.0,-8.0,
2078.0,2082.0,20.0,-8.0,
2086.0,2078.0,20.0,-8.0,
2071.0,2074.0,20.0,-8.0,
2074.0,2072.0,20.0,-8.0,
2062.0,2076.0,20.0,-8.0,
2070.0,2074.0,20.0,-8.0,
2090.0,2092.0,20.0,-8.0,
2069.0,2086.0,20.0,-8.0,
2076.0,2084.0,20.0,-8.0,
2082.0,2082.0,20.0,-8.0,
2087.0,2090.0,20.0,-8.0,
2082.0,2089.0,20.0,-8.0,
2084.0,2086.0,20.0,-8.0,
2070.0,2079.0,20.0,-8.0,
2061.0,2084.0,20.0,-8.0,
2071.0,2095.0,20.0,-8.0,
2088.0,2070.0,20.0,-8.0,
2085.0,2078.0,20.0,-8.0,
2083.0,2094.0,20.0,-8.0,
2087.0,2084.0,20.0,-8.0,
2081.0,2076.0,20.0,-8.0,
2084.0,2080.0,20.0,-8.0,
2071.0,2079.0,20.0,-8.0,
2064.0,2079.0,20.0,-8.0,
2058.0,2089.0,20.0,-8.0,
2071.0,2097.0,20.0,-8.0,
2081.0,2080.0,20.0,-8.0,
2076.0,2085.0,20.0,-8.0,
2071.0,2089.0,20.0,-8.0,
2078.0,2100.0,20.0,-8.0,
2070.0,2101.0,20.0,-8.0,
2064.0,2082.0,20.0,-8.0,
2071.0,2068.0,20.0,-8.0,
2074.0,2065.0,20.0,-8.0,
2074.0,2077.0,20.0,-8.0,
2080.0,2032.0,20.0,-8.0,
2075.0,2081.0,20.0,-8.0,
2085.0,2085.0,20.0,-8.0,
2073.0,2078.0,20.0,-8.0,
2081.0,2079.0,20.0,-8.0,
2074.0,2081.0,20.0,-8.0,
2064.0,2088.0,20.0,-8.0,
2068.0,2106.0,20.0,-8.0,
2074.0,2091.0,20.0,-8.0,
2078.0,2106.0,20.0,-8.0,
2078.0,2090.0,20.0,-8.0,
2080.0,2085.0,20.0,-8.0,
2073.0,2088.0,20.0,-8.0,
2070.0,2074.0,20.0,-8.0,
2068.0,2078.0,20.0,-8.0,
2078.0,2089.0,20.0,-8.0,
2076.0,2086.0,20.0,-8.0,
2072.0,2092.0,20.0,-8.0,
2062.0,2094.0,20.0,-8.0,
2069.0,2105.0,20.0,-8.0,
2075.0,2076.0,20.0,-8.0,
2065.0,2078.0,20.0,-8.0,
2060.0,2070.0,20.0,-8.0,
2075.0,2073.0,20.0,-8.0,
2070.0,2070.0,20.0,-8.0,
2072.0,2079.0,20.0,-8.0,
2080.0,2087.0,20.0,-8.0,
2090.0,2089.0,19.0,-8.0,
2080.0,2087.0,19.0,-8.0,
2077.0,2086.0,19.0,-8.0,
2082.0,2083.0,19.0,-8.0,
2077.0,2084.0,19.0,-8.0,
2067.0,2076.0,19.0,-8.0,
2067.0,2085.0,19.0,-8.0,
2075.0,2094.0,19.0,-8.0,
2065.0,2088.0,19.0,-8.0,
2068.0,2085.0,19.0,-8.0,
2074.0,2088.0,19.0,-8.0,
2077.0,2086.0,20.0,-8.0,
2066.0,2084.0,20.0,-8.0,
2064.0,2081.0,20.0,-8.0,
2077.0,2070.0,20.0,-8.0,
2072.0,2074.0,20.0,-8.0,
2059.0,2078.0,20.0,-8.0,
2077.0,2091.0,20.0,-8.0,
2082.0,2083.0,20.0,-8.0,
2081.0,2086.0,20.0,-8.0,
2083.0,2080.0,20.0,-8.0,
2079.0,2084.0,20.0,-8.0,
2085.0,2081.0,20.0,-8.0,
2077.0,2079.0,20.0,-8.0,
2070.0,2079.0,20.0,-8.0,
2073.0,2086.0,20.0,-8.0,
2070.0,2096.0,20.0,-8.0,
2061.0,2092.0,20.0,-8.0,
2073.0,2086.0,20.0,-8.0,
2078.0,2081.0,21.0,-8.0,
2083.0,2081.0,21.0,-8.0,
2073.0,2085.0,21.0,-8.0,
2071.0,2090.0,21.0,-8.0,
2075.0,2066.0,21.0,-8.0,
2066.0,2078.0,21.0,-8.0,
2066.0,2079.0,21.0,-8.0,
2070.0,2086.0,21.0,-8.0,
2077.0,2092.0,21.0,-8.0,
2069.0,2081.0,21.0,-8.0,
2073.0,2082.0,21.0,-8.0,
2071.0,2073.0,21.0,-8.0,
2072.0,2081.0,21.0,-8.0,
2075.0,2076.0,21.0,-8.0,
2071.0,2089.0,21.0,-8.0,
2075.0,2090.0,21.0,-7.0,
2084.0,2096.0,21.0,-8.0,
2060.0,2090.0,21.0,-8.0,
2076.0,2088.0,21.0,-7.0,
2078.0,2079.0,21.0,-7.0,
2080.0,2087.0,21.0,-7.0,
2077.0,2081.0,21.0,-7.0,
2069.0,2082.0,21.0,-8.0,
2067.0,2082.0,21.0,-8.0,
2069.0,2081.0,21.0,-8.0,
2072.0,2087.0,21.0,-8.0,
2077.0,2088.0,21.0,-8.0,
2070.0,2088.0,21.0,-8.0,
2076.0,2084.0,21.0,-8.0,
2075.0,2079.0,21.0,-8.0,
2080.0,2073.0,21.0,-8.0,
2068.0,2076.0,21.0,-8.0,
2065.0,2078.0,20.0,-8.0,
2084.0,2082.0,20.0,-8.0,
2083.0,2090.0,20.0,-8.0,
2084.0,2088.0,20.0,-8.0,
2078.0,2082.0,20.0,-8.0,
2081.0,2083.0,20.0,-8.0,
2071.0,2083.0,20.0,-8.0,
2071.0,2077.0,20.0,-8.0,
2068.0,2073.0,20.0,-8.0,
2078.0,2079.0,20.0,-8.0,
2043.0,2071.0,20.0,-8.0,
2078.0,2085.0,20.0,-8.0,
2072.0,2084.0,20.0,-8.0,
2067.0,2087.0,20.0,-8.0,
2072.0,2084.0,20.0,-8.0,
2074.0,2080.0,20.0,-8.0,
2063.0,2088.0,20.0,-8.0,
2062.0,2076.0,20.0,-8.0,
2056.0,2078.0,20.0,-8.0,
2061.0,2087.0,20.0,-8.0,
2065.0,2086.0,20.0,-8.0,
2074.0,2087.0,20.0,-8.0,
2088.0,2086.0,20.0,-8.0,
2085.0,2083.0,20.0,-8.0,
2070.0,2068.0,20.0,-8.0,
2076.0,2079.0,20.0,-8.0,
2072.0,2080.0,20.0,-8.0,
2068.0,2086.0,20.0,-8.0,
2077.0,2081.0,20.0,-8.0,
2079.0,2081.0,20.0,-8.0,
2076.0,2084.0,20.0,-8.0,
2082.0,2089.0,20.0,-8.0,
2085.0,2081.0,20.0,-8.0,
2081.0,2076.0,20.0,-8.0,
2073.0,2070.0,20.0,-8.0,
2066.0,2084.0,20.0,-8.0,
2072.0,2077.0,20.0,-8.0,
2073.0,2088.0,20.0,-8.0,
2068.0,2086.0,20.0,-8.0,
2056.0,2099.0,20.0,-8.0,
2092.0,2071.0,20.0,-8.0,
2092.0,2086.0,20.0,-8.0,
2077.0,2061.0,20.0,-8.0,
2077.0,2082.0,20.0,-8.0,
2058.0,2078.0,20.0,-8.0,
2065.0,2083.0,20.0,-8.0,
2073.0,2089.0,20.0,-8.0,
2075.0,2091.0,20.0,-8.0,
2082.0,2086.0,20.0,-8.0,
2077.0,2085.0,20.0,-8.0,
2067.0,2085.0,20.0,-8.0,
2068.0,2087.0,20.0,-8.0,
2067.0,2078.0,20.0,-8.0,
2070.0,2079.0,20.0,-8.0,
2064.0,2088.0,20.0,-8.0,
2068.0,2082.0,20.0,-8.0,
2064.0,2084.0,20.0,-8.0,
2068.0,2090.0,20.0,-8.0,
2073.0,2091.0,20.0,-8.0,
2072.0,2082.0,20.0,-8.0,
2070.0,2079.0,20.0,-8.0,
2064.0,2076.0,20.0,-8.0,
2060.0,2080.0,20.0,-8.0,
2064.0,2080.0,20.0,-8.0,
2063.0,2090.0,20.0,-8.0,
2067.0,2090.0,20.0,-8.0,
2076.0,2090.0,20.0,-8.0,
2073.0,2086.0,21.0,-8.0,
2077.0,2086.0,21.0,-8.0,
2090.0,2077.0,21.0,-8.0,
2081.0,2065.0,21.0,-8.0,
2070.0,2086.0,21.0,-8.0,
2077.0,2080.0,21.0,-8.0,
2076.0,2093.0,21.0,-8.0,
2074.0,2088.0,21.0,-8.0,
2072.0,2090.0,21.0,-8.0,
2075.0,2082.0,21.0,-8.0,
2079.0,2077.0,21.0,-8.0,
2071.0,2077.0,21.0,-8.0,
2075.0,2085.0,21.0,-8.0,
2083.0,2075.0,21.0,-8.0,
2073.0,2084.0,21.0,-8.0,
2072.0,2079.0,21.0,-8.0,
2076.0,2083.0,21.0,-8.0,
2070.0,2087.0,21.0,-8.0,
2080.0,2083.0,21.0,-8.0,
2078.0,2091.0,0,
2076.0,2071.0,21.0,-8.0,
2074.0,2079.0,20.0,-8.0,
2077.0,2084.0,20.0,-8.0,
2062.0,2081.0,20.0,-8.0,
2072.0,2088.0,20.0,-8.0,
2085.0,2095.0,20.0,-8.0,
2073.0,2088.0,20.0,-8.0,
2069.0,2092.0,20.0,-8.0,
2070.0,2082.0,20.0,-8.0,
2069.0,2082.0,20.0,-8.0,
2083.0,2080.0,20.0,-8.0,
2075.0,2078.0,20.0,-8.0,
2068.0,2080.0,20.0,-8.0,
2065.0,2091.0,20.0,-8.0,
2068.0,2077.0,20.0,-8.0,
2080.0,2087.0,20.0,-8.0,
2075.0,2089.0,20.0,-8.0,
2075.0,2088.0,20.0,-8.0,
2095.0,2084.0,20.0,-8.0,
2068.0,2074.0,20.0,-8.0,
2071.0,2080.0,20.0,-8.0,
2070.0,2083.0,20.0,-8.0,
2073.0,2085.0,20.0,-8.0,
2082.0,2091.0,20.0,-8.0,
2084.0,2093.0,20.0,-8.0,
2075.0,2085.0,20.0,-7.0,
2072.0,2086.0,20.0,-7.0,
2079.0,2080.0,20.0,-7.0,
2074.0,2077.0,20.0,-7.0,
2072.0,2076.0,20.0,-8.0,
2072.0,2085.0,20.0,-8.0,
2065.0,2085.0,20.0,-8.0,
2074.0,2089.0,20.0,-8.0,
2072.0,2084.0,20.0,-8.0,
2075.0,2089.0,20.0,-8.0,
2082.0,2088.0,20.0,-8.0,
2083.0,2083.0,20.0,-8.0,
2070.0,2080.0,20.0,-8.0,
2070.0,2075.0,20.0,-8.0,
2075.0,2081.0,20.0,-8.0,
2067.0,2084.0,20.0,-8.0,
2073.0,2085.0,20.0,-8.0,
2077.0,2092.0,20.0,-8.0,
2084.0,2091.0,20.0,-8.0,
2078.0,2082.0,20.0,-8.0,
2083.0,2073.0,20.0,-8.0,
2077.0,2076.0,20.0,-8.0,
2071.0,2080.0,20.0,-8.0,
2068.0,2079.0,20.0,-8.0,
2074.0,2088.0,20.0,-8.0,
2059.0,2092.0,20.0,-8.0,
2070.0,2079.0,20.0,-8.0,
2071.0,2091.0,20.0,-8.0,
2082.0,2087.0,20.0,-8.0,
2080.0,2079.0,20.0,-8.0,
2071.0,2084.0,20.0,-8.0,
2074.0,2070.0,0,
2075.0,2073.0,20.0,-8.0,
2073.0,2083.0,20.0,-8.0,
2075.0,2085.0,20.0,-8.0,
2066.0,2089.0,20.0,-8.0,
2070.0,2085.0,20.0,-8.0,
2077.0,2086.0,20.0,-8.0,
2091.0,2074.0,20.0,-8.0,
2076.0,2073.0,20.0,-8.0,
2071.0,2072.0,20.0,-8.0,
2059.0,2081.0,20.0,-8.0,
2069.0,2076.0,20.0,-8.0,
2076.0,2087.0,20.0,-8.0,
2069.0,2094.0,20.0,-8.0,
2079.0,2092.0,20.0,-8.0,
2086.0,2073.0,20.0,-8.0,
2080.0,2077.0,20.0,-8.0,
2082.0,2078.0,20.0,-8.0,
2075.0,2080.0,20.0,-8.0,
2073.0,2088.0,20.0,-8.0,
2073.0,2078.0,20.0,-8.0,
2075.0,2085.0,20.0,-8.0,
2067.0,2087.0,20.0,-8.0,
2076.0,2092.0,20.0,-8.0,
2073.0,2084.0,20.0,-8.0,
2081.0,2083.0,21.0,-8.0,
2066.0,2073.0,21.0,-8.0,
2073.0,2070.0,21.0,-8.0,
2066.0,2078.0,21.0,-8.0,
2075.0,2087.0,21.0,-8.0,
2079.0,2086.0,21.0,-8.0,
2071.0,2087.0,21.0,-8.0,
2080.0,2097.0,21.0,-7.0,
2071.0,2085.0,21.0,-7.0,
2074.0,2077.0,21.0,-7.0,
2074.0,2084.0,21.0,-7.0,
2074.0,2079.0,21.0,-7.0,
2071.0,2080.0,21.0,-7.0,
2080.0,2088.0,21.0,-7.0,
2076.0,2077.0,21.0,-7.0,
2075.0,2084.0,21.0,-7.0,
2066.0,2084.0,21.0,-7.0,
2074.0,2084.0,21.0,-7.0,
2080.0,2085.0,21.0,-7.0,
2079.0,2086.0,21.0,-7.0,
2063.0,2083.0,21.0,-7.0,
2065.0,2072.0,21.0,-7.0,
2068.0,2081.0,21.0,-7.0,
2056.0,2091.0,21.0,-7.0,
2066.0,2092.0,21.0,-7.0,
2077.0,2091.0,21.0,-8.0,
2068.0,2097.0,21.0,-8.0,
2083.0,2077.0,21.0,-8.0,
2077.0,2081.0,21.0,-8.0,
2077.0,2074.0,21.0,-8.0,
2073.0,2071.0,21.0,-8.0,
2074.0,2089.0,20.0,-8.0,
2083.0,2089.0,20.0,-8.0,
2089.0,2084.0,20.0,-8.0,
2077.0,2083.0,20.0,-8.0,
2077.0,2083.0,20.0,-8.0,
2080.0,2076.0,20.0,-8.0,
2082.0,2085.0,20.0,-8.0,
2080.0,2080.0,20.0,-8.0,
2073.0,2072.0,20.0,-8.0,
2066.0,2079.0,20.0,-8.0,
2071.0,2082.0,20.0,-8.0,
2073.0,2089.0,20.0,-8.0,
2065.0,2092.0,20.0,-8.0,
2086.0,2084.0,20.0,-8.0,
2083.0,2090.0,20.0,-8.0,
2080.0,2075.0,20.0,-8.0,
2066.0,2071.0,20.0,-8.0,
2071.0,2073.0,20.0,-8.0,
2064.0,2082.0,20.0,-8.0,
2040.0,2082.0,20.0,-8.0,
2073.0,2093.0,21.0,-8.0,
2068.0,2084.0,21.0,-8.0,
2075.0,2078.0,21.0,-8.0,
2077.0,2079.0,21.0,-8.0,
2066.0,2074.0,21.0,-8.0,
2065.0,2078.0,21.0,-8.0,
2067.0,2077.0,21.0,-8.0,
2065.0,2079.0,21.0,-7.0,
2068.0,2087.0,21.0,-8.0,
2074.0,2085.0,21.0,-8.0,
2072.0,2089.0,21.0,-8.0,
2080.0,2086.0,21.0,-8.0,
2087.0,2085.0,21.0,-8.0,
2074.0,2090.0,21.0,-8.0,
2061.0,2078.0,21.0,-8.0,
2077.0,2080.0,21.0,-8.0,
2063.0,2077.0,21.0,-8.0,
2070.0,2087.0,21.0,-8.0,
2078.0,2087.0,21.0,-8.0,
2085.0,2091.0,21.0,-8.0,
2078.0,2082.0,21.0,-8.0,
2068.0,2079.0,21.0,-8.0,
2074.0,2081.0,21.0,-8.0,
2058.0,2077.0,21.0,-8.0,
2072.0,2087.0,21.0,-8.0,
2066.0,2084.0,21.0,-8.0,
2064.0,2096.0,21.0,-8.0,
2063.0,2084.0,21.0,-8.0,
2060.0,2088.0,21.0,-8.0,
2068.0,2088.0,20.0,-8.0,
2073.0,2080.0,20.0,-8.0,
2066.0,2081.0,20.0,-8.0,
2067.0,2080.0,20.0,-8.0,
2056.0,2077.0,20.0,-8.0,
2056.0,2084.0,20.0,-8.0,
2085.0,2077.0,20.0,-8.0,
2079.0,2085.0,20.0,-8.0,
2073.0,2090.0,20.0,-8.0,
2093.0,2078.0,20.0,-8.0,
2079.0,2078.0,20.0,-8.0,
2071.0,2077.0,0,
2075.0,2074.0,20.0,-8.0,
2059.0,2074.0,20.0,-8.0,
2072.0,2085.0,20.0,-8.0,
2075.0,2069.0,20.0,-8.0,
2059.0,2086.0,20.0,-8.0,
2064.0,2088.0,20.0,-8.0,
2065.0,2089.0,20.0,-8.0,
2071.0,2087.0,20.0,-8.0,
2075.0,2089.0,20.0,-8.0,
2075.0,2083.0,20.0,-8.0,
2067.0,2092.0,20.0,-8.0,
2060.0,2083.0,20.0,-8.0,
2056.0,2084.0,20.0,-8.0,
2067.0,2095.0,20.0,-8.0,
2075.0,2091.0,20.0,-8.0,
2072.0,2097.0,21.0,-8.0,
2087.0,2087.0,21.0,-8.0,
2078.0,2078.0,21.0,-8.0,
2076.0,2080.0,21.0,-8.0,
2074.0,2084.0,21.0,-8.0,
2064.0,2083.0,21.0,-8.0,
2067.0,2092.0,21.0,-8.0,
2072.0,2091.0,21.0,-8.0,
2066.0,2088.0,21.0,-8.0,
2079.0,2084.0,21.0,-8.0,
2072.0,2088.0,21.0,-8.0,
2080.0,2082.0,21.0,-8.0,
2076.0,2079.0,21.0,-8.0,
2063.0,2080.0,21.0,-8.0,
2069.0,2089.0,21.0,-8.0,
2067.0,2084.0,21.0,-8.0,
2065.0,2080.0,21.0,-8.0,
2072.0,2082.0,21.0,-8.0,
2072.0,2081.0,21.0,-8.0,
2068.0,2080.0,21.0,-8.0,
2072.0,2082.0,21.0,-8.0,
2072.0,2075.0,21.0,-8.0,
2064.0,2076.0,21.0,-8.0,
2062.0,2077.0,21.0,-8.0,
2066.0,2087.0,21.0,-8.0,
2081.0,2084.0,21.0,-8.0,
2052.0,2084.0,21.0,-8.0,
2074.0,2084.0,21.0,-8.0,
2072.0,2083.0,21.0,-8.0,
2080.0,2080.0,21.0,-8.0,
2075.0,2078.0,21.0,-8.0,
2068.0,2075.0,21.0,-8.0,
2063.0,2086.0,21.0,-7.0,
2071.0,2090.0,21.0,-7.0,
2070.0,2085.0,21.0,-7.0,
2071.0,2085.0,21.0,-7.0,
2077.0,2082.0,21.0,-7.0,
2082.0,2084.0,21.0,-7.0,
2077.0,2080.0,21.0,-7.0,
2073.0,2077.0,20.0,-7.0,
2064.0,2073.0,20.0,-7.0,
2066.0,2077.0,20.0,-7.0,
2066.0,2077.0,20.0,-7.0,
2061.0,2089.0,20.0,-7.0,
2079.0,2085.0,20.0,-7.0,
2086.0,2087.0,20.0,-7.0,
2076.0,2089.0,20.0,-7.0,
2070.0,2080.0,20.0,-7.0,
2076.0,2075.0,20.0,-7.0,
2062.0,2086.0,20.0,-8.0,
2082.0,2081.0,20.0,-8.0,
2081.0,2087.0,20.0,-8.0,
