2371.0,2145.0,26.0,-18.0,
2319.0,2207.0,26.0,-18.0,
2162.0,1867.0,26.0,-18.0,
1961.0,1890.0,26.0,-18.0,
1769.0,1781.0,26.0,-18.0,
1765.0,1697.0,26.0,-18.0,
1939.0,1862.0,26.0,-18.0,
2151.0,2218.0,26.0,-18.0,
2318.0,2499.0,26.0,-18.0,
2371.0,2121.0,26.0,-18.0,
2265.0,2157.0,26.0,-18.0,
2091.0,1975.0,26.0,-18.0,
1864.0,2011.0,26.0,-18.0,
1747.0,1963.0,26.0,-18.0,
1813.0,1738.0,26.0,-18.0,
2011.0,2108.0,26.0,-18.0,
2217.0,2447.0,26.0,-18.0,
2348.0,2157.0,26.0,-18.0,
2341.0,2275.0,25.0,-18.0,
2234.0,1951.0,25.0,-18.0,
2024.0,1931.0,25.0,-18.0,
1812.0,1824.0,25.0,-18.0,
1733.0,1629.0,25.0,-18.0,
1848.0,2145.0,25.0,-18.0,
2068.0,2144.0,25.0,-18.0,
2267.0,2127.0,25.0,-18.0,
2359.0,2324.0,25.0,-18.0,
2327.0,2214.0,25.0,-18.0,
2181.0,2063.0,25.0,-18.0,
1955.0,1896.0,25.0,-18.0,
1776.0,1607.0,25.0,-18.0,
1764.0,2025.0,25.0,-18.0,
1926.0,2026.0,25.0,-18.0,
2130.0,2201.0,25.0,-18.0,
2316.0,2313.0,25.0,-18.0,
2367.0,2475.0,25.0,-18.0,
2286.0,2001.0,25.0,-18.0,
2127.0,1831.0,26.0,-18.0,
1892.0,2008.0,26.0,-18.0,
1752.0,1970.0,26.0,-18.0,
1787.0,1889.0,26.0,-18.0,
1977.0,2253.0,26.0,-18.0,
2192.0,2268.0,26.0,-18.0,
2335.0,2144.0,26.0,-18.0,
2336.0,2276.0,26.0,-18.0,
2240.0,1969.0,26.0,-18.0,
2082.0,1956.0,26.0,-18.0,
1833.0,1805.0,26.0,-18.0,
1738.0,1971.0,26.0,-18.0,
1832.0,1777.0,26.0,-18.0,
2047.0,2158.0,26.0,-18.0,
2260.0,2460.0,26.0,-18.0,
2365.0,2494.0,26.0,-18.0,
2346.0,2235.0,26.0,-18.0,
2186.0,1906.0,26.0,-18.0,
1988.0,2076.0,26.0,-18.0,
1781.0,1605.0,26.0,-18.0,
1762.0,1657.0,26.0,-18.0,
1896.0,2001.0,26.0,-18.0,
2119.0,2209.0,26.0,-18.0,
2291.0,2314.0,26.0,-18.0,
2354.0,2482.0,26.0,-18.0,
2299.0,2024.0,26.0,-18.0,
2121.0,2204.0,26.0,-18.0,
1899.0,1867.0,26.0,-18.0,
1750.0,1626.0,26.0,-18.0,
1777.0,1865.0,26.0,-18.0,
1957.0,1882.0,26.0,-18.0,
2181.0,2251.0,26.0,-18.0,
2320.0,2328.0,26.0,-18.0,
2362.0,2465.0,26.0,-18.0,
2254.0,2165.0,26.0,-18.0,
2061.0,1791.0,26.0,-18.0,
1849.0,2009.0,26.0,-18.0,
1747.0,1789.0,26.0,-18.0,
1810.0,2100.0,26.0,-18.0,
2021.0,2128.0,26.0,-18.0,
2240.0,2290.0,26.0,-18.0,
2353.0,2511.0,25.0,-18.0,
2345.0,2254.0,25.0,-18.0,
2210.0,2280.0,25.0,-18.0,
2002.0,1908.0,25.0,-18.0,
1809.0,1629.0,25.0,-18.0,
1739.0,1808.0,25.0,-18.0,
1862.0,1798.0,25.0,-18.0,
2094.0,2012.0,25.0,-18.0,
2280.0,2123.0,25.0,-18.0,
2366.0,2324.0,25.0,-18.0,
2318.0,2032.0,25.0,-18.0,
2183.0,2055.0,25.0,-18.0,
1954.0,2057.0,25.0,-18.0,
1777.0,1979.0,25.0,-18.0,
1753.0,1853.0,26.0,-18.0,
1910.0,2219.0,26.0,-18.0,
2135.0,2395.0,26.0,-18.0,
2303.0,2486.0,26.0,-18.0,
2363.0,2111.0,26.0,-18.0,
2277.0,2167.0,26.0,-18.0,
2104.0,2174.0,26.0,-18.0,
1886.0,1658.0,26.0,-18.0,
1750.0,1814.0,26.0,-18.0,
1792.0,2081.0,26.0,-18.0,
1978.0,2097.0,26.0,-18.0,
2216.0,2084.0,26.0,-18.0,
2344.0,2152.0,26.0,-18.0,
2354.0,2281.0,26.0,-18.0,
2229.0,2126.0,26.0,-18.0,
2040.0,1932.0,26.0,-18.0,
1812.0,1825.0,26.0,-18.0,
1742.0,1827.0,26.0,-18.0,
1819.0,1947.0,26.0,-18.0,
2046.0,1964.0,26.0,-18.0,
2242.0,2298.0,26.0,-18.0,
2347.0,2504.0,26.0,-18.0,
2338.0,2399.0,26.0,-18.0,
2188.0,2251.0,26.0,-18.0,
1969.0,1735.0,26.0,-18.0,
1773.0,1806.0,26.0,-18.0,
1748.0,1676.0,26.0,-18.0,
1887.0,2032.0,26.0,-18.0,
2122.0,2384.0,26.0,-18.0,
2305.0,2328.0,26.0,-18.0,
2371.0,2479.0,26.0,-18.0,
2282.0,2025.0,26.0,-18.0,
2120.0,2198.0,26.0,-18.0,
1911.0,1669.0,26.0,-18.0,
1749.0,1793.0,26.0,-18.0,
1779.0,2063.0,26.0,-18.0,
1942.0,2249.0,26.0,-18.0,
2182.0,2416.0,26.0,-18.0,
2342.0,2328.0,26.0,-18.0,
2366.0,2109.0,26.0,-18.0,
2259.0,2147.0,26.0,-18.0,
2058.0,1986.0,26.0,-18.0,
1855.0,1989.0,26.0,-18.0,
1742.0,1622.0,26.0,-18.0,
1828.0,1766.0,26.0,-18.0,
2035.0,2130.0,26.0,-18.0,
2244.0,2104.0,26.0,-18.0,
2365.0,2489.0,26.0,-18.0,
2341.0,2268.0,26.0,-18.0,
2212.0,1929.0,26.0,-18.0,
1989.0,1914.0,26.0,-18.0,
1800.0,1803.0,26.0,-18.0,
1737.0,2010.0,26.0,-18.0,
1882.0,1820.0,26.0,-18.0,
2089.0,2367.0,26.0,-18.0,
2281.0,2428.0,26.0,-18.0,
2360.0,2337.0,26.0,-18.0,
2309.0,2025.0,26.0,-18.0,
2148.0,1873.0,26.0,-18.0,
1911.0,1866.0,26.0,-18.0,
1766.0,1617.0,26.0,-18.0,
1762.0,1883.0,26.0,-18.0,
1941.0,2054.0,26.0,-18.0,
2164.0,2060.0,26.0,-18.0,
2328.0,2327.0,26.0,-18.0,
2371.0,2472.0,26.0,-18.0,
2259.0,2186.0,26.0,-18.0,
2085.0,1991.0,26.0,-18.0,
1859.0,2011.0,26.0,-18.0,
1742.0,1629.0,26.0,-18.0,
1796.0,1933.0,26.0,-18.0,
1996.0,2123.0,26.0,-18.0,
2210.0,2103.0,26.0,-18.0,
2335.0,2335.0,26.0,-18.0,
2346.0,2084.0,26.0,-18.0,
2215.0,2135.0,26.0,-18.0,
2014.0,1757.0,26.0,-18.0,
1811.0,1792.0,26.0,-18.0,
1738.0,1994.0,26.0,-18.0,
1860.0,1962.0,26.0,-18.0,
2081.0,2345.0,26.0,-18.0,
2271.0,2310.0,26.0,-18.0,
2365.0,2305.0,26.0,-18.0,
2319.0,2215.0,26.0,-18.0,
2160.0,2052.0,26.0,-18.0,
1956.0,1708.0,26.0,-18.0,
1772.0,1818.0,26.0,-18.0,
1757.0,1681.0,26.0,-18.0,
1919.0,2209.0,26.0,-18.0,
2147.0,2208.0,26.0,-18.0,
2307.0,2142.0,26.0,-18.0,
2378.0,2305.0,26.0,-18.0,
2301.0,2362.0,26.0,-18.0,
2122.0,2182.0,26.0,-18.0,
1899.0,1653.0,26.0,-18.0,
1748.0,1797.0,26.0,-18.0,
1790.0,1728.0,26.0,-18.0,
1980.0,2102.0,26.0,-18.0,
2204.0,2426.0,26.0,-18.0,
2340.0,2308.0,26.0,-18.0,
2365.0,2279.0,26.0,-18.0,
2244.0,2308.0,25.0,-18.0,
2038.0,2133.0,25.0,-18.0,
1830.0,1816.0,25.0,-18.0,
1755.0,1830.0,26.0,-18.0,
1834.0,2121.0,26.0,-18.0,
2050.0,2148.0,26.0,-18.0,
2254.0,2305.0,26.0,-18.0,
2371.0,2309.0,26.0,-18.0,
2336.0,2244.0,26.0,-18.0,
2182.0,2077.0,26.0,-18.0,
1975.0,1730.0,26.0,-18.0,
1784.0,1625.0,26.0,-18.0,
1759.0,1995.0,26.0,-18.0,
1892.0,2006.0,26.0,-18.0,
2116.0,2307.0,26.0,-18.0,
2291.0,2333.0,26.0,-18.0,
2372.0,2476.0,26.0,-18.0,
2291.0,2192.0,26.0,-18.0,
2139.0,1845.0,26.0,-18.0,
1909.0,1874.0,26.0,-18.0,
1756.0,1800.0,26.0,-18.0,
1768.0,1882.0,26.0,-18.0,
1945.0,2091.0,26.0,-18.0,
2172.0,2241.0,26.0,-18.0,
2324.0,2317.0,26.0,-18.0,
2356.0,2468.0,26.0,-18.0,
2248.0,2147.0,26.0,-18.0,
2060.0,2003.0,26.0,-18.0,
1850.0,1826.0,26.0,-18.0,
1737.0,1812.0,26.0,-18.0,
1816.0,1925.0,26.0,-18.0,
2013.0,2134.0,26.0,-18.0,
2233.0,2091.0,26.0,-18.0,
2351.0,2326.0,26.0,-18.0,
2335.0,2058.0,26.0,-18.0,
2218.0,1928.0,26.0,-18.0,
2008.0,2099.0,26.0,-18.0,
1804.0,1980.0,26.0,-18.0,
1758.0,2012.0,26.0,-18.0,
1883.0,2002.0,26.0,-18.0,
2092.0,2184.0,26.0,-18.0,
2288.0,2476.0,26.0,-18.0,
2343.0,2504.0,26.0,-18.0,
2311.0,2216.0,26.0,-18.0,
2147.0,1888.0,26.0,-18.0,
1925.0,2059.0,26.0,-18.0,
1761.0,1814.0,26.0,-18.0,
1756.0,2037.0,26.0,-18.0,
1925.0,2033.0,26.0,-18.0,
2158.0,2398.0,26.0,-18.0,
2328.0,2505.0,26.0,-18.0,
2378.0,2122.0,26.0,-18.0,
2273.0,1985.0,26.0,-18.0,
2097.0,2178.0,26.0,-18.0,
1874.0,1654.0,26.0,-18.0,
1751.0,1809.0,26.0,-18.0,
1800.0,1924.0,26.0,-18.0,
1998.0,2280.0,26.0,-18.0,
2213.0,2266.0,26.0,-18.0,
2344.0,2324.0,26.0,-18.0,
2345.0,2445.0,26.0,-18.0,
2223.0,2124.0,26.0,-18.0,
2037.0,1947.0,26.0,-18.0,
1828.0,1996.0,26.0,-18.0,
1738.0,1626.0,26.0,-18.0,
1859.0,1970.0,26.0,-18.0,
2067.0,2336.0,26.0,-18.0,
2268.0,2287.0,26.0,-18.0,
2366.0,2145.0,26.0,-18.0,
2331.0,2217.0,26.0,-18.0,
2173.0,1888.0,26.0,-18.0,
1954.0,1869.0,26.0,-18.0,
1782.0,1622.0,26.0,-18.0,
1753.0,1675.0,26.0,-18.0,
1921.0,2214.0,26.0,-18.0,
2143.0,2224.0,26.0,-18.0,
2312.0,2131.0,26.0,-18.0,
2354.0,2311.0,26.0,-18.0,
2287.0,2188.0,26.0,-18.0,
2128.0,2029.0,26.0,-18.0,
1895.0,1837.0,26.0,-18.0,
1756.0,1796.0,26.0,-18.0,
1783.0,1905.0,26.0,-18.0,
1982.0,2263.0,0,
2198.0,2426.0,26.0,-18.0,
2343.0,2157.0,26.0,-18.0,
2363.0,2269.0,26.0,-18.0,
2246.0,2325.0,26.0,-18.0,
2059.0,1945.0,26.0,-18.0,
1842.0,1984.0,25.0,-18.0,
1750.0,1981.0,25.0,-18.0,
1827.0,1963.0,25.0,-18.0,
2036.0,2125.0,25.0,-18.0,
2251.0,2120.0,25.0,-18.0,
2363.0,2334.0,25.0,-18.0,
2333.0,2072.0,24.0,-18.0,
2192.0,1904.0,24.0,-18.0,
1971.0,1898.0,24.0,-18.0,
1805.0,1809.0,24.0,-18.0,
1750.0,1652.0,24.0,-18.0,
1880.0,1993.0,23.0,-18.0,
2103.0,2200.0,23.0,-18.0,
2292.0,2289.0,23.0,-18.0,
2370.0,2313.0,22.0,-18.0,
2317.0,2047.0,22.0,-18.0,
2174.0,2076.0,22.0,-18.0,
1972.0,1899.0,22.0,-19.0,
1791.0,1627.0,21.0,-19.0,
1740.0,1833.0,21.0,-19.0,
1878.0,1815.0,21.0,-19.0,
2104.0,2205.0,21.0,-19.0,
2276.0,2315.0,21.0,-19.0,
2372.0,2146.0,20.0,-19.0,
2326.0,2045.0,20.0,-19.0,
2172.0,2088.0,20.0,-19.0,
1969.0,2068.0,20.0,-18.0,
1801.0,1984.0,19.0,-18.0,
1755.0,2002.0,19.0,-18.0,
1879.0,1820.0,19.0,-18.0,
2086.0,2191.0,19.0,-18.0,
2263.0,2126.0,19.0,-18.0,
2374.0,2146.0,19.0,-18.0,
2328.0,2225.0,19.0,-18.0,
2194.0,2074.0,19.0,-18.0,
1984.0,1707.0,19.0,-18.0,
1798.0,1798.0,19.0,-18.0,
1744.0,1643.0,20.0,-18.0,
1861.0,1971.0,20.0,-18.0,
2073.0,1990.0,19.0,-18.0,
2282.0,2117.0,19.0,-18.0,
2365.0,2149.0,20.0,-18.0,
2319.0,2417.0,20.0,-18.0,
2193.0,2259.0,20.0,-18.0,
1978.0,1734.0,20.0,-18.0,
1793.0,1821.0,20.0,-18.0,
1744.0,1654.0,20.0,-18.0,
1862.0,2156.0,20.0,-18.0,
2069.0,2344.0,21.0,-18.0,
2257.0,2286.0,21.0,-18.0,
2357.0,2139.0,21.0,-18.0,
2334.0,2415.0,21.0,-18.0,
2192.0,1909.0,0,
1995.0,1904.0,22.0,-20.0,
1809.0,1973.0,22.0,-21.0,
1750.0,1819.0,22.0,-20.0,
1863.0,2146.0,23.0,-19.0,
2063.0,2143.0,23.0,-19.0,
2268.0,2282.0,24.0,-18.0,
2359.0,2305.0,24.0,-19.0,
2325.0,2209.0,24.0,-19.0,
2209.0,2077.0,24.0,-19.0,
1963.0,1897.0,24.0,-19.0,
1787.0,1787.0,25.0,-18.0,
1755.0,1846.0,24.0,-17.0,
1903.0,2039.0,24.0,-18.0,
2125.0,2392.0,24.0,-19.0,
2304.0,2318.0,24.0,-20.0,
2352.0,2295.0,23.0,-20.0,
2294.0,2208.0,23.0,-20.0,
2119.0,1845.0,23.0,-20.0,
1890.0,1683.0,24.0,-20.0,
1752.0,1969.0,24.0,-20.0,
1776.0,2072.0,24.0,-20.0,
1957.0,2067.0,24.0,-20.0,
2191.0,2416.0,24.0,-19.0,
2321.0,2331.0,24.0,-19.0,
2355.0,2109.0,24.0,-19.0,
2254.0,2329.0,25.0,-19.0,
2055.0,1781.0,26.0,-19.0,
1838.0,1642.0,26.0,-19.0,
1745.0,1626.0,28.0,-19.0,
1820.0,2126.0,29.0,-19.0,
2024.0,2305.0,30.0,-18.0,
2228.0,2116.0,32.0,-18.0,
2353.0,2510.0,33.0,-17.0,
2334.0,2073.0,35.0,-17.0,
2204.0,2292.0,36.0,-17.0,
1995.0,1961.0,37.0,-16.0,
1806.0,1818.0,38.0,-16.0,
1752.0,1824.0,39.0,-15.0,
1873.0,1987.0,40.0,-15.0,
2115.0,2356.0,41.0,-15.0,
2273.0,2124.0,41.0,-15.0,
2359.0,2482.0,41.0,-15.0,
2298.0,2389.0,42.0,-15.0,
2158.0,2214.0,42.0,-14.0,
1955.0,1871.0,43.0,-13.0,
1774.0,1782.0,44.0,-14.0,
1762.0,1886.0,44.0,-14.0,
1922.0,2026.0,44.0,-14.0,
2157.0,2210.0,44.0,-14.0,
2312.0,2317.0,45.0,-13.0,
2361.0,2292.0,45.0,-13.0,
2272.0,2177.0,46.0,-13.0,
2110.0,1835.0,46.0,-13.0,
1882.0,1852.0,46.0,-14.0,
1766.0,1624.0,46.0,-14.0,
1788.0,1912.0,46.0,-14.0,
1984.0,2103.0,46.0,-13.0,
2200.0,2250.0,47.0,-13.0,
2339.0,2321.0,48.0,-14.0,
2360.0,2285.0,47.0,-14.0,
2228.0,2125.0,48.0,-14.0,
2041.0,1964.0,48.0,-14.0,
1833.0,1823.0,49.0,-14.0,
1741.0,1629.0,50.0,-14.0,
1826.0,1958.0,51.0,-14.0,
2053.0,2314.0,52.0,-14.0,
2244.0,2307.0,53.0,-14.0,
2359.0,2494.0,54.0,-13.0,
2326.0,2245.0,55.0,-13.0,
2185.0,2071.0,56.0,-12.0,
1973.0,1913.0,58.0,-12.0,
1803.0,1819.0,59.0,-11.0,
1748.0,2011.0,59.0,-11.0,
1893.0,2193.0,60.0,-10.0,
2122.0,2022.0,61.0,-10.0,
2290.0,2303.0,62.0,-9.0,
2360.0,2493.0,63.0,-8.0,
2297.0,2204.0,63.0,-8.0,
2127.0,1856.0,64.0,-8.0,
1900.0,1840.0,64.0,-7.0,
1759.0,1812.0,64.0,-7.0,
1775.0,1705.0,65.0,-6.0,
1973.0,2065.0,65.0,-6.0,
2191.0,2078.0,66.0,-5.0,
2341.0,2326.0,66.0,-5.0,
2361.0,2090.0,66.0,-5.0,
2243.0,2135.0,66.0,-5.0,
2063.0,2136.0,66.0,-4.0,
1846.0,1835.0,66.0,-4.0,
1737.0,1978.0,66.0,-4.0,
1823.0,1953.0,66.0,-5.0,
2035.0,2314.0,66.0,-5.0,
2241.0,2459.0,65.0,-5.0,
2363.0,2324.0,65.0,-5.0,
2341.0,2071.0,65.0,-5.0,
2207.0,2217.0,65.0,-5.0,
1990.0,1920.0,65.0,-6.0,
1795.0,1812.0,64.0,-6.0,
1750.0,1826.0,64.0,-6.0,
1867.0,2013.0,64.0,-7.0,
2097.0,2194.0,64.0,-8.0,
2289.0,2466.0,64.0,-8.0,
2358.0,2141.0,64.0,-9.0,
2297.0,2370.0,64.0,-9.0,
2149.0,2035.0,64.0,-9.0,
1917.0,1874.0,65.0,-9.0,
1765.0,1965.0,65.0,-10.0,
1776.0,1696.0,66.0,-10.0,
1947.0,2083.0,66.0,-10.0,
2163.0,2414.0,67.0,-10.0,
2332.0,2317.0,68.0,-9.0,
2360.0,2301.0,68.0,-9.0,
2262.0,2003.0,69.0,-8.0,
2088.0,1825.0,70.0,-9.0,
1861.0,1838.0,71.0,-9.0,
1746.0,1792.0,72.0,-8.0,
1804.0,1931.0,72.0,-8.0,
1982.0,2111.0,73.0,-7.0,
2226.0,2440.0,74.0,-7.0,
2345.0,2332.0,74.0,-7.0,
2353.0,2449.0,75.0,-7.0,
2229.0,2150.0,76.0,-8.0,
2033.0,1956.0,77.0,-7.0,
1821.0,1812.0,77.0,-7.0,
1737.0,1629.0,78.0,-7.0,
1839.0,1975.0,78.0,-7.0,
2049.0,2314.0,78.0,-7.0,
2238.0,2279.0,79.0,-7.0,
2379.0,2322.0,79.0,-7.0,
2332.0,2241.0,79.0,-7.0,
2203.0,2097.0,79.0,-6.0,
1998.0,2076.0,80.0,-6.0,
1796.0,1818.0,80.0,-6.0,
1744.0,1646.0,80.0,-7.0,
1864.0,1827.0,80.0,-7.0,
2083.0,2011.0,80.0,-7.0,
2275.0,2473.0,80.0,-7.0,
2361.0,2505.0,79.0,-6.0,
2316.0,2200.0,79.0,-6.0,
2155.0,2056.0,79.0,-7.0,
1935.0,1870.0,79.0,-8.0,
1782.0,1976.0,79.0,-7.0,
1757.0,2032.0,78.0,-7.0,
1917.0,2210.0,78.0,-7.0,
2149.0,2382.0,78.0,-7.0,
2297.0,2492.0,78.0,-7.0,
2371.0,2472.0,78.0,-6.0,
2295.0,2014.0,78.0,-6.0,
2120.0,2036.0,78.0,-6.0,
1889.0,1873.0,78.0,-6.0,
1751.0,1975.0,79.0,-5.0,
1774.0,1920.0,79.0,-5.0,
1972.0,1901.0,79.0,-4.0,
2187.0,2069.0,80.0,-4.0,
2345.0,2321.0,80.0,-4.0,
2366.0,2113.0,81.0,-4.0,
2257.0,2342.0,81.0,-4.0,
2056.0,1967.0,82.0,-3.0,
1841.0,1827.0,83.0,-3.0,
1732.0,1641.0,83.0,-3.0,
1803.0,1764.0,84.0,-3.0,
2012.0,2305.0,84.0,-3.0,
2221.0,2268.0,0,
2349.0,2146.0,84.0,-3.0,
2340.0,2432.0,85.0,-3.0,
2218.0,2296.0,85.0,-3.0,
2016.0,2103.0,85.0,-3.0,
1824.0,1642.0,0,
1750.0,2010.0,86.0,-3.0,
1843.0,1808.0,86.0,-3.0,
2064.0,1990.0,87.0,-3.0,
2257.0,2302.0,87.0,-3.0,
2354.0,2314.0,87.0,-3.0,
2323.0,2060.0,87.0,-3.0,
2183.0,1916.0,88.0,-3.0,
1968.0,1893.0,88.0,-3.0,
1798.0,1635.0,88.0,-3.0,
1750.0,1666.0,89.0,-3.0,
1898.0,1833.0,89.0,-2.0,
2118.0,2197.0,89.0,-2.0,
2289.0,2494.0,89.0,-1.0,
2368.0,2130.0,89.0,-1.0,
2301.0,2011.0,90.0,-1.0,
2130.0,2023.0,90.0,-1.0,
1909.0,2042.0,90.0,-1.0,
1763.0,1802.0,90.0,-1.0,
1776.0,1871.0,90.0,0.0,
1948.0,2083.0,90.0,0.0,
2168.0,2242.0,91.0,0.0,
2336.0,2327.0,91.0,0.0,
2363.0,2282.0,91.0,0.0,
2258.0,1993.0,91.0,0.0,
2080.0,1973.0,91.0,0.0,
1841.0,1834.0,91.0,0.0,
1746.0,1968.0,92.0,0.0,
1816.0,1937.0,92.0,0.0,
2016.0,2126.0,92.0,0.0,
2225.0,2253.0,92.0,0.0,
2342.0,2346.0,92.0,0.0,
2340.0,2261.0,92.0,0.0,
2219.0,2245.0,93.0,0.0,
2014.0,1933.0,93.0,0.0,
1811.0,1810.0,93.0,0.0,
1743.0,1803.0,93.0,0.0,
1867.0,1805.0,94.0,0.0,
2087.0,2156.0,94.0,0.0,
2280.0,2112.0,94.0,0.0,
2367.0,2491.0,94.0,0.0,
2351.0,2395.0,94.0,0.0,
2165.0,2234.0,94.0,0.0,
1942.0,1882.0,94.0,0.0,
1776.0,1812.0,95.0,0.0,
1759.0,1878.0,95.0,0.0,
1911.0,2210.0,95.0,0.0,
2139.0,2396.0,95.0,0.0,
2298.0,2304.0,95.0,0.0,
2378.0,2293.0,95.0,0.0,
2281.0,2364.0,95.0,0.0,
2104.0,2003.0,95.0,0.0,
1893.0,1852.0,95.0,0.0,
1752.0,1788.0,95.0,0.0,
1799.0,2079.0,95.0,0.0,
1992.0,2110.0,95.0,0.0,
2206.0,2283.0,95.0,0.0,
2345.0,2144.0,95.0,0.0,
2352.0,2253.0,95.0,0.0,
2239.0,2124.0,95.0,0.0,
2032.0,1784.0,95.0,0.0,
1821.0,1993.0,95.0,0.0,
1743.0,1822.0,95.0,0.0,
1829.0,1775.0,95.0,0.0,
2054.0,2157.0,95.0,0.0,
2263.0,2277.0,95.0,0.0,
2362.0,2156.0,95.0,0.0,
2325.0,2228.0,95.0,1.0,
2192.0,1911.0,95.0,1.0,
1976.0,1892.0,96.0,1.0,
1786.0,1805.0,96.0,2.0,
1752.0,1661.0,96.0,2.0,
1882.0,2008.0,96.0,2.0,
2115.0,2209.0,97.0,3.0,
2300.0,2326.0,97.0,3.0,
2360.0,2318.0,97.0,3.0,
2310.0,2041.0,98.0,3.0,
2135.0,1856.0,98.0,3.0,
1923.0,1686.0,98.0,3.0,
1765.0,1969.0,99.0,3.0,
1787.0,1880.0,99.0,3.0,
1951.0,2231.0,99.0,3.0,
2172.0,2055.0,100.0,3.0,
2341.0,2336.0,100.0,2.0,
2366.0,2313.0,101.0,2.0,
2272.0,1988.0,101.0,2.0,
2080.0,1976.0,101.0,2.0,
1848.0,1854.0,102.0,2.0,
1760.0,1798.0,102.0,1.0,
1805.0,2095.0,102.0,1.0,
2011.0,2114.0,103.0,1.0,
2230.0,2106.0,103.0,1.0,
2354.0,2337.0,103.0,1.0,
2348.0,2277.0,104.0,1.0,
2221.0,2119.0,104.0,1.0,
2020.0,1920.0,104.0,1.0,
1813.0,1806.0,104.0,1.0,
1743.0,1993.0,104.0,1.0,
1839.0,1796.0,105.0,1.0,
2070.0,2324.0,105.0,1.0,
2266.0,2284.0,105.0,1.0,
2366.0,2144.0,105.0,1.0,
2329.0,2400.0,105.0,1.0,
2173.0,2249.0,105.0,1.0,
1958.0,1896.0,105.0,1.0,
1780.0,1624.0,105.0,1.0,
1756.0,1671.0,105.0,1.0,
1899.0,2205.0,105.0,1.0,
2127.0,2378.0,105.0,1.0,
2307.0,2302.0,105.0,1.0,
2375.0,2134.0,105.0,1.0,
2294.0,2207.0,105.0,1.0,
2131.0,2212.0,105.0,1.0,
1910.0,1872.0,105.0,1.0,
1761.0,1622.0,105.0,1.0,
1791.0,1887.0,105.0,1.0,
1977.0,2077.0,104.0,2.0,
2185.0,2417.0,104.0,2.0,
2330.0,2497.0,104.0,2.0,
2365.0,2460.0,104.0,2.0,
2262.0,2158.0,104.0,2.0,
2068.0,1807.0,104.0,2.0,
1853.0,2015.0,104.0,3.0,
1736.0,1812.0,104.0,3.0,
1804.0,1758.0,104.0,3.0,
2018.0,2114.0,105.0,3.0,
2225.0,2291.0,105.0,3.0,
2339.0,2151.0,105.0,2.0,
2345.0,2250.0,105.0,2.0,
2216.0,2288.0,105.0,2.0,
2006.0,1756.0,105.0,2.0,
1821.0,1633.0,104.0,2.0,
1742.0,2007.0,104.0,1.0,
1865.0,2159.0,104.0,1.0,
2070.0,2172.0,104.0,1.0,
2279.0,2132.0,103.0,1.0,
2359.0,2327.0,103.0,1.0,
2306.0,2043.0,102.0,1.0,
2163.0,1898.0,102.0,1.0,
1947.0,1867.0,101.0,1.0,
1770.0,1824.0,101.0,1.0,
1762.0,2024.0,100.0,1.0,
1914.0,2022.0,100.0,1.0,
2134.0,2390.0,99.0,1.0,
2313.0,2307.0,99.0,0.0,
2362.0,2320.0,98.0,0.0,
2285.0,2201.0,97.0,0.0,
2107.0,2035.0,97.0,0.0,
1887.0,1845.0,96.0,0.0,
1754.0,1619.0,96.0,0.0,
1785.0,1889.0,95.0,0.0,
1974.0,2101.0,95.0,0.0,
2188.0,2439.0,95.0,0.0,
2336.0,2148.0,95.0,0.0,
2357.0,2271.0,94.0,0.0,
2245.0,2131.0,94.0,0.0,
2055.0,1948.0,94.0,0.0,
1846.0,1991.0,94.0,0.0,
1748.0,1804.0,94.0,0.0,
1829.0,2124.0,94.0,0.0,
2043.0,1974.0,93.0,0.0,
2255.0,2296.0,93.0,0.0,
2361.0,2457.0,93.0,0.0,
2332.0,2071.0,93.0,0.0,
2197.0,1918.0,93.0,0.0,
1996.0,2089.0,93.0,0.0,
1799.0,1813.0,93.0,0.0,
1745.0,1649.0,93.0,0.0,
1881.0,2010.0,93.0,0.0,
2102.0,2370.0,93.0,0.0,
2287.0,2491.0,93.0,0.0,
2371.0,2334.0,93.0,0.0,
2309.0,2375.0,92.0,0.0,
2150.0,2045.0,92.0,0.0,
1921.0,1703.0,91.0,0.0,
1758.0,1786.0,90.0,0.0,
1772.0,1887.0,90.0,0.0,
1937.0,1864.0,88.0,0.0,
2159.0,2214.0,87.0,-1.0,
2331.0,2328.0,85.0,-1.0,
2370.0,2478.0,82.0,-2.0,
2280.0,2001.0,79.0,-2.0,
2091.0,1997.0,75.0,-4.0,
1871.0,1841.0,70.0,-5.0,
1758.0,1794.0,64.0,-6.0,
1797.0,1927.0,58.0,-8.0,
1999.0,2109.0,52.0,-9.0,
2211.0,2265.0,47.0,-10.0,
2346.0,2346.0,42.0,-10.0,
2362.0,2278.0,39.0,-11.0,
2242.0,1953.0,38.0,-11.0,
2047.0,1766.0,37.0,-11.0,
1820.0,1998.0,37.0,-11.0,
1747.0,1811.0,38.0,-10.0,
1842.0,2131.0,40.0,-10.0,
2047.0,2323.0,41.0,-10.0,
2253.0,2299.0,43.0,-9.0,
2356.0,2334.0,44.0,-8.0,
2325.0,2410.0,46.0,-8.0,
2193.0,2254.0,47.0,-7.0,
1975.0,1901.0,49.0,-7.0,
1796.0,1623.0,50.0,-7.0,
1757.0,1828.0,51.0,-7.0,
1897.0,2019.0,52.0,-6.0,
2121.0,2031.0,53.0,-7.0,
2292.0,2316.0,54.0,-7.0,
2364.0,2485.0,55.0,-7.0,
2289.0,2370.0,56.0,-7.0,
2128.0,2207.0,57.0,-8.0,
1902.0,2026.0,57.0,-8.0,
1761.0,1627.0,57.0,-8.0,
1777.0,1874.0,57.0,-8.0,
1958.0,2258.0,58.0,-9.0,
2183.0,2080.0,58.0,-9.0,
2340.0,2155.0,58.0,-9.0,
2357.0,2298.0,57.0,-10.0,
2256.0,2168.0,57.0,-10.0,
2064.0,1798.0,57.0,-11.0,
1849.0,2007.0,56.0,-12.0,
1747.0,1979.0,56.0,-12.0,
1827.0,1747.0,55.0,-13.0,
2020.0,2121.0,55.0,-13.0,
2238.0,2101.0,55.0,-14.0,
2347.0,2315.0,54.0,-15.0,
2341.0,2260.0,54.0,-15.0,
2217.0,1933.0,53.0,-16.0,
2003.0,1744.0,52.0,-17.0,
1800.0,1791.0,52.0,-17.0,
1737.0,1991.0,51.0,-17.0,
1869.0,2166.0,51.0,-17.0,
2087.0,2345.0,50.0,-18.0,
2277.0,2303.0,49.0,-19.0,
2373.0,2316.0,48.0,-20.0,
2310.0,2200.0,47.0,-20.0,
2156.0,2069.0,46.0,-20.0,
1935.0,1703.0,45.0,-21.0,
1778.0,1795.0,44.0,-21.0,
1767.0,1866.0,43.0,-21.0,
1920.0,2225.0,41.0,-22.0,
2153.0,2209.0,39.0,-22.0,
2327.0,2334.0,36.0,-22.0,
2363.0,2476.0,34.0,-21.0,
2269.0,2166.0,31.0,-21.0,
2100.0,2000.0,29.0,-20.0,
1871.0,1665.0,27.0,-20.0,
1752.0,1620.0,24.0,-20.0,
1778.0,1917.0,21.0,-20.0,
1979.0,2086.0,19.0,-20.0,
2187.0,2074.0,16.0,-20.0,
2331.0,2323.0,13.0,-20.0,
2361.0,2293.0,11.0,-21.0,
2264.0,2181.0,7.0,-23.0,
2088.0,1987.0,3.0,-24.0,
1856.0,1654.0,-1.0,-24.0,
1749.0,1619.0,-5.0,-24.0,
1811.0,1907.0,-8.0,-24.0,
2026.0,2311.0,-11.0,-24.0,
2222.0,2091.0,-14.0,-23.0,
2346.0,2331.0,-16.0,-22.0,
2353.0,2277.0,-17.0,-22.0,
2239.0,1953.0,-18.0,-21.0,
2057.0,1955.0,-18.0,-20.0,
1850.0,1998.0,-17.0,-19.0,
1740.0,1805.0,-16.0,-18.0,
1809.0,1930.0,-14.0,-18.0,
2003.0,2098.0,-12.0,-18.0,
2212.0,2265.0,-10.0,-17.0,
2341.0,2139.0,-7.0,-17.0,
2348.0,2454.0,-4.0,-17.0,
2259.0,2147.0,-1.0,-17.0,
2062.0,1971.0,2.0,-17.0,
1859.0,1815.0,4.0,-18.0,
1745.0,1976.0,6.0,-18.0,
1801.0,1922.0,8.0,-19.0,
1999.0,2291.0,9.0,-19.0,
2207.0,2438.0,11.0,-20.0,
2336.0,2326.0,12.0,-20.0,
2363.0,2294.0,13.0,-21.0,
2250.0,2137.0,15.0,-22.0,
2073.0,2160.0,16.0,-23.0,
1849.0,1843.0,17.0,-23.0,
1748.0,1984.0,19.0,-23.0,
1802.0,2104.0,21.0,-22.0,
1997.0,2104.0,22.0,-22.0,
2212.0,2086.0,24.0,-22.0,
2342.0,2501.0,26.0,-22.0,
2347.0,2278.0,27.0,-21.0,
2229.0,2115.0,29.0,-21.0,
2020.0,2109.0,30.0,-20.0,
1822.0,1626.0,31.0,-18.0,
1739.0,1636.0,32.0,-17.0,
1840.0,1778.0,32.0,-17.0,
2064.0,2143.0,33.0,-17.0,
2270.0,2312.0,33.0,-17.0,
2368.0,2315.0,34.0,-17.0,
2334.0,2055.0,34.0,-17.0,
2182.0,2084.0,0,
1970.0,2075.0,34.0,-17.0,
1783.0,1612.0,35.0,-17.0,
1751.0,1849.0,35.0,-17.0,
1903.0,2191.0,35.0,-17.0,
2094.0,2029.0,35.0,-17.0,
2308.0,2316.0,35.0,-17.0,
2380.0,2312.0,35.0,-17.0,
2308.0,2029.0,35.0,-17.0,
2137.0,2025.0,35.0,-18.0,
1911.0,2027.0,35.0,-18.0,
1766.0,1770.0,35.0,-18.0,
1771.0,1865.0,35.0,-18.0,
1960.0,2068.0,35.0,-18.0,
2175.0,2227.0,34.0,-19.0,
2330.0,2320.0,34.0,-19.0,
2367.0,2295.0,34.0,-20.0,
2255.0,2154.0,33.0,-20.0,
2078.0,1961.0,32.0,-19.0,
1869.0,2003.0,31.0,-19.0,
1732.0,1815.0,31.0,-19.0,
1804.0,1933.0,30.0,-20.0,
2011.0,2289.0,29.0,-20.0,
2223.0,2108.0,29.0,-20.0,
2349.0,2324.0,28.0,-20.0,
2337.0,2261.0,27.0,-21.0,
2219.0,2105.0,27.0,-21.0,
2009.0,1939.0,26.0,-21.0,
1816.0,1625.0,26.0,-21.0,
1739.0,1806.0,25.0,-21.0,
1855.0,1987.0,25.0,-21.0,
2093.0,2001.0,25.0,-21.0,
2272.0,2300.0,24.0,-21.0,
2358.0,2328.0,24.0,-21.0,
2319.0,2392.0,24.0,-20.0,
2163.0,2228.0,24.0,-20.0,
1938.0,1875.0,24.0,-20.0,
1786.0,1607.0,23.0,-20.0,
1761.0,2032.0,23.0,-20.0,
1911.0,2205.0,23.0,-21.0,
2137.0,2038.0,23.0,-21.0,
2299.0,2137.0,23.0,-21.0,
2374.0,2140.0,23.0,-20.0,
2314.0,2026.0,23.0,-20.0,
2155.0,2229.0,23.0,-20.0,
1952.0,1707.0,22.0,-20.0,
1788.0,1623.0,22.0,-20.0,
1756.0,1864.0,22.0,-20.0,
1912.0,1845.0,22.0,-20.0,
2116.0,2025.0,22.0,-20.0,
2299.0,2483.0,22.0,-20.0,
2368.0,2316.0,22.0,-20.0,
2318.0,2229.0,22.0,-20.0,
2159.0,1868.0,22.0,-19.0,
1940.0,1858.0,23.0,-19.0,
1786.0,1602.0,23.0,-19.0,
1765.0,1842.0,23.0,-19.0,
1905.0,2004.0,23.0,-19.0,
2116.0,2358.0,23.0,-19.0,
2292.0,2477.0,23.0,-19.0,
2373.0,2312.0,23.0,-19.0,
2304.0,2020.0,0,
2136.0,1851.0,24.0,-19.0,
1910.0,1868.0,24.0,-19.0,
1757.0,1810.0,24.0,-19.0,
1771.0,1712.0,24.0,-19.0,
1969.0,1895.0,25.0,-19.0,
2187.0,2067.0,25.0,-19.0,
2331.0,2306.0,25.0,-19.0,
2362.0,2110.0,26.0,-19.0,
2263.0,2336.0,26.0,-19.0,
2061.0,1791.0,26.0,-19.0,
1858.0,1643.0,27.0,-19.0,
1748.0,1969.0,27.0,-20.0,
1824.0,1929.0,27.0,-19.0,
2023.0,2130.0,28.0,-19.0,
2243.0,2459.0,28.0,-19.0,
2362.0,2334.0,28.0,-19.0,
2356.0,2254.0,29.0,-19.0,
2229.0,2277.0,29.0,-19.0,
2008.0,2105.0,29.0,-19.0,
1816.0,1818.0,29.0,-19.0,
1750.0,1818.0,29.0,-19.0,
1867.0,1808.0,29.0,-18.0,
2090.0,1986.0,30.0,-19.0,
2289.0,2295.0,30.0,-19.0,
2370.0,2499.0,30.0,-19.0,
2322.0,2239.0,30.0,-19.0,
2169.0,1885.0,30.0,-19.0,
1947.0,1692.0,30.0,-19.0,
1782.0,1963.0,30.0,-19.0,
1768.0,1847.0,30.0,-19.0,
1925.0,2220.0,30.0,-19.0,
2149.0,2391.0,30.0,-19.0,
2328.0,2495.0,30.0,-19.0,
2375.0,2305.0,30.0,-19.0,
2304.0,2316.0,30.0,-19.0,
2116.0,1846.0,29.0,-19.0,
1886.0,2010.0,0,
1753.0,1623.0,29.0,-19.0,
1801.0,2084.0,29.0,-19.0,
1997.0,2117.0,29.0,-19.0,
2214.0,2284.0,29.0,-19.0,
2344.0,2512.0,28.0,-19.0,
2361.0,2097.0,28.0,-19.0,
2250.0,2304.0,28.0,-19.0,
2053.0,1785.0,28.0,-19.0,
1837.0,1839.0,28.0,-19.0,
1756.0,1793.0,28.0,-19.0,
1838.0,1772.0,27.0,-19.0,
2036.0,2322.0,27.0,-19.0,
2276.0,2108.0,27.0,-19.0,
2370.0,2494.0,27.0,-19.0,
2336.0,2247.0,27.0,-19.0,
2194.0,2089.0,27.0,-20.0,
1980.0,2078.0,26.0,-20.0,
1793.0,1812.0,26.0,-19.0,
1751.0,1841.0,26.0,-19.0,
1901.0,2184.0,26.0,-19.0,
2116.0,2385.0,26.0,-19.0,
2307.0,2144.0,26.0,-19.0,
2370.0,2140.0,26.0,-19.0,
2296.0,2212.0,26.0,-19.0,
2139.0,2045.0,26.0,-19.0,
1907.0,2021.0,26.0,-18.0,
1757.0,1964.0,26.0,-19.0,
1770.0,1695.0,26.0,-19.0,
1952.0,2250.0,26.0,-19.0,
2174.0,2060.0,26.0,-19.0,
2326.0,2324.0,26.0,-19.0,
2372.0,2471.0,26.0,-19.0,
2259.0,2158.0,26.0,-19.0,
2077.0,1812.0,26.0,-20.0,
1856.0,1664.0,26.0,-20.0,
1740.0,1979.0,27.0,-20.0,
1820.0,1923.0,27.0,-20.0,
2011.0,2117.0,27.0,-19.0,
2238.0,2102.0,27.0,-19.0,
2347.0,2159.0,27.0,-19.0,
2366.0,2435.0,27.0,-19.0,
2233.0,2296.0,28.0,-19.0,
2003.0,1743.0,28.0,-19.0,
1822.0,1799.0,28.0,-19.0,
1749.0,1644.0,28.0,-19.0,
1861.0,1996.0,29.0,-20.0,
2079.0,2162.0,29.0,-20.0,
2290.0,2286.0,29.0,-20.0,
2371.0,2316.0,29.0,-20.0,
2321.0,2386.0,30.0,-20.0,
2176.0,1890.0,30.0,-20.0,
1941.0,1879.0,30.0,-20.0,
1781.0,1981.0,30.0,-20.0,
1754.0,2029.0,30.0,-20.0,
1928.0,2042.0,30.0,-20.0,
2140.0,2393.0,30.0,-20.0,
2310.0,2306.0,31.0,-20.0,
2369.0,2477.0,31.0,-19.0,
2290.0,2199.0,31.0,-19.0,
2118.0,2007.0,32.0,-19.0,
1880.0,1842.0,32.0,-19.0,
1750.0,1808.0,32.0,-19.0,
1788.0,2084.0,33.0,-19.0,
1978.0,2100.0,33.0,-19.0,
2196.0,2254.0,33.0,-18.0,
2343.0,2162.0,34.0,-18.0,
2372.0,2459.0,34.0,-18.0,
2251.0,2124.0,35.0,-18.0,
2044.0,1953.0,36.0,-18.0,
1830.0,1820.0,36.0,-17.0,
1732.0,1793.0,37.0,-17.0,
1836.0,1945.0,37.0,-17.0,
2049.0,2158.0,38.0,-17.0,
2260.0,2301.0,39.0,-17.0,
2365.0,2328.0,40.0,-17.0,
2349.0,2418.0,41.0,-17.0,
2207.0,2280.0,42.0,-17.0,
1996.0,1741.0,43.0,-17.0,
1798.0,1806.0,43.0,-17.0,
1756.0,1841.0,44.0,-17.0,
1886.0,2013.0,44.0,-18.0,
2105.0,2179.0,45.0,-18.0,
2297.0,2502.0,45.0,-18.0,
2366.0,2327.0,45.0,-18.0,
2306.0,2384.0,44.0,-19.0,
2159.0,2052.0,44.0,-19.0,
1928.0,2037.0,43.0,-20.0,
1771.0,1812.0,42.0,-21.0,
1766.0,1897.0,41.0,-21.0,
1939.0,2055.0,40.0,-22.0,
2163.0,2058.0,39.0,-22.0,
2293.0,2502.0,38.0,-22.0,
2364.0,2471.0,37.0,-22.0,
2266.0,2143.0,35.0,-22.0,
2079.0,1808.0,34.0,-22.0,
1867.0,1651.0,33.0,-22.0,
1749.0,1610.0,32.0,-22.0,
1807.0,2085.0,32.0,-21.0,
2003.0,1915.0,31.0,-21.0,
2221.0,2268.0,30.0,-21.0,
2352.0,2152.0,30.0,-21.0,
2343.0,2391.0,29.0,-21.0,
2228.0,1954.0,28.0,-20.0,
2018.0,2106.0,28.0,-20.0,
1818.0,1972.0,28.0,-20.0,
1746.0,1806.0,28.0,-19.0,
1859.0,1979.0,28.0,-19.0,
2077.0,1993.0,27.0,-18.0,
2284.0,2128.0,27.0,-18.0,
2371.0,2499.0,27.0,-18.0,
2316.0,2251.0,26.0,-18.0,
2171.0,2094.0,25.0,-17.0,
1964.0,1877.0,24.0,-17.0,
1796.0,1608.0,22.0,-17.0,
1755.0,2011.0,21.0,-16.0,
1888.0,2009.0,20.0,-16.0,
2092.0,2007.0,19.0,-15.0,
2282.0,2472.0,19.0,-15.0,
2364.0,2140.0,18.0,-14.0,
2311.0,2398.0,18.0,-13.0,
2171.0,2246.0,17.0,-13.0,
1958.0,2063.0,18.0,-13.0,
1782.0,1976.0,18.0,-13.0,
1751.0,1657.0,19.0,-12.0,
1879.0,1820.0,19.0,-12.0,
2093.0,2010.0,19.0,-13.0,
2293.0,2489.0,19.0,-14.0,
2329.0,2337.0,18.0,-15.0,
2319.0,2393.0,17.0,-16.0,
2168.0,2254.0,16.0,-17.0,
1961.0,1885.0,15.0,-17.0,
1792.0,1821.0,13.0,-17.0,
1741.0,2003.0,12.0,-18.0,
1865.0,1824.0,9.0,-18.0,
2087.0,2165.0,7.0,-19.0,
2271.0,2315.0,5.0,-18.0,
2370.0,2491.0,3.0,-17.0,
2326.0,2223.0,1.0,-16.0,
2184.0,2092.0,0.0,-16.0,
1968.0,1906.0,-2.0,-16.0,
1810.0,1795.0,-4.0,-15.0,
1742.0,1661.0,-6.0,-15.0,
1860.0,2163.0,-7.0,-15.0,
2083.0,2200.0,-9.0,-14.0,
2272.0,2126.0,-10.0,-14.0,
2371.0,2505.0,-11.0,-14.0,
2322.0,2059.0,-12.0,-14.0,
2186.0,1908.0,-13.0,-14.0,
1982.0,2080.0,-14.0,-14.0,
1798.0,1645.0,-14.0,-14.0,
1747.0,1830.0,-15.0,-14.0,
1867.0,2171.0,-16.0,-15.0,
2081.0,2345.0,-17.0,-15.0,
2269.0,2295.0,-17.0,-15.0,
2369.0,2325.0,-18.0,-15.0,
2331.0,2233.0,-19.0,-15.0,
2200.0,2104.0,-19.0,-15.0,
2001.0,1899.0,-19.0,-14.0,
1808.0,1995.0,-20.0,-13.0,
1753.0,2002.0,-21.0,-14.0,
1853.0,2155.0,-21.0,-14.0,
2063.0,2171.0,-22.0,-14.0,
2260.0,2126.0,-23.0,-13.0,
2361.0,2337.0,-23.0,-13.0,
2329.0,2398.0,-24.0,-12.0,
2184.0,1903.0,-25.0,-12.0,
1969.0,1907.0,-25.0,-11.0,
1786.0,1788.0,-26.0,-11.0,
1754.0,1672.0,-26.0,-11.0,
1903.0,1845.0,-26.0,-11.0,
2145.0,2194.0,-27.0,-10.0,
2315.0,2320.0,-27.0,-9.0,
2361.0,2320.0,-27.0,-9.0,
2291.0,2374.0,-27.0,-9.0,
2116.0,2031.0,-27.0,-8.0,
1906.0,1869.0,-27.0,-8.0,
1757.0,1778.0,-27.0,-8.0,
1782.0,1879.0,-26.0,-8.0,
1964.0,2260.0,-26.0,-7.0,
2198.0,2088.0,-27.0,-7.0,
2330.0,2313.0,-26.0,-6.0,
2354.0,2287.0,-26.0,-7.0,
2251.0,2153.0,-26.0,-7.0,
2047.0,1799.0,-26.0,-7.0,
1838.0,1653.0,-26.0,-7.0,
1739.0,1618.0,-26.0,-6.0,
1816.0,1749.0,-26.0,-6.0,
2032.0,2144.0,-26.0,-7.0,
2250.0,2456.0,-26.0,-8.0,
2354.0,2145.0,-26.0,-8.0,
2337.0,2277.0,-26.0,-8.0,
2207.0,1931.0,-26.0,-8.0,
1985.0,1928.0,-27.0,-8.0,
1799.0,1997.0,-27.0,-8.0,
1757.0,1822.0,-27.0,-9.0,
1880.0,2003.0,-28.0,-9.0,
2109.0,2375.0,-28.0,-10.0,
2294.0,2131.0,-29.0,-10.0,
2391.0,2332.0,-29.0,-11.0,
2324.0,2390.0,-30.0,-11.0,
2161.0,2049.0,-30.0,-11.0,
1943.0,1888.0,-31.0,-11.0,
1784.0,1894.0,-31.0,-12.0,
1787.0,1854.0,-31.0,-12.0,
1957.0,1879.0,-31.0,-12.0,
2169.0,2248.0,-31.0,-12.0,
2325.0,2490.0,-31.0,-12.0,
2373.0,2310.0,-30.0,-12.0,
2270.0,1991.0,-30.0,-12.0,
2092.0,1988.0,-29.0,-12.0,
1870.0,1664.0,-29.0,-13.0,
1758.0,1625.0,-28.0,-13.0,
1803.0,1929.0,-27.0,-12.0,
2000.0,2118.0,-26.0,-12.0,
2220.0,2450.0,-25.0,-12.0,
2356.0,2150.0,-24.0,-12.0,
2345.0,2438.0,-22.0,-12.0,
2223.0,2302.0,-22.0,-11.0,
2041.0,1770.0,-21.0,-12.0,
1837.0,1803.0,-20.0,-12.0,
1742.0,1635.0,-18.0,-12.0,
1809.0,1961.0,-18.0,-12.0,
2008.0,2120.0,-17.0,-12.0,
2227.0,2273.0,-16.0,-12.0,
2346.0,2307.0,-15.0,-12.0,
2347.0,2432.0,-15.0,-12.0,
2240.0,1958.0,-15.0,-13.0,
2034.0,1969.0,-14.0,-13.0,
1831.0,1983.0,-13.0,-12.0,
1737.0,1624.0,-13.0,-12.0,
1812.0,1934.0,-13.0,-11.0,
2015.0,2287.0,-13.0,-11.0,
2212.0,2275.0,-12.0,-11.0,
2331.0,2307.0,-12.0,-11.0,
2348.0,2442.0,-12.0,-11.0,
2237.0,2303.0,-12.0,-10.0,
2048.0,1960.0,-12.0,-10.0,
1839.0,1621.0,-12.0,-10.0,
1742.0,1802.0,-13.0,-10.0,
1818.0,1914.0,-13.0,-9.0,
2017.0,2281.0,-13.0,-9.0,
2220.0,2435.0,-14.0,-9.0,
2343.0,2317.0,-14.0,-10.0,
2339.0,2250.0,-14.0,-11.0,
2242.0,2139.0,-15.0,-11.0,
2041.0,1934.0,-16.0,-11.0,
1840.0,1982.0,-17.0,-12.0,
1738.0,1621.0,-18.0,-12.0,
1800.0,1914.0,-19.0,-12.0,
1994.0,2094.0,-21.0,-13.0,
2207.0,2242.0,-21.0,-14.0,
2333.0,2146.0,-23.0,-14.0,
2329.0,2091.0,-24.0,-13.0,
2233.0,2129.0,-25.0,-13.0,
2030.0,1956.0,-26.0,-13.0,
1827.0,1980.0,-27.0,-13.0,
1735.0,1627.0,-28.0,-13.0,
1837.0,2136.0,-29.0,-14.0,
2064.0,2152.0,-29.0,-14.0,
2253.0,2463.0,-29.0,-13.0,
2352.0,2133.0,-30.0,-13.0,
2319.0,2051.0,-30.0,-13.0,
2173.0,2066.0,-31.0,-13.0,
1951.0,1699.0,-31.0,-13.0,
1768.0,1620.0,-31.0,-13.0,
1746.0,1828.0,-32.0,-13.0,
1890.0,2030.0,-32.0,-13.0,
2109.0,2218.0,-32.0,-12.0,
2292.0,2316.0,-32.0,-12.0,
2355.0,2315.0,-33.0,-12.0,
2298.0,2021.0,-33.0,-12.0,
2112.0,2040.0,-33.0,-12.0,
1891.0,1662.0,-33.0,-11.0,
1753.0,1813.0,-33.0,-11.0,
1767.0,1897.0,-33.0,-11.0,
1966.0,2060.0,-33.0,-11.0,
2192.0,2053.0,-33.0,-10.0,
2330.0,2492.0,-33.0,-10.0,
2367.0,2285.0,-33.0,-10.0,
2254.0,2153.0,-33.0,-9.0,
2062.0,1789.0,-32.0,-9.0,
1837.0,1988.0,-32.0,-9.0,
1741.0,1803.0,-32.0,-9.0,
1809.0,1947.0,-31.0,-8.0,
2041.0,2132.0,-31.0,-8.0,
2249.0,2265.0,-30.0,-8.0,
2362.0,2322.0,-30.0,-8.0,
2348.0,2233.0,-30.0,-7.0,
2214.0,2283.0,-29.0,-7.0,
1991.0,1907.0,-29.0,-7.0,
1801.0,1797.0,-29.0,-7.0,
1740.0,1642.0,-28.0,-7.0,
1875.0,1988.0,-28.0,-7.0,
2098.0,2195.0,-28.0,-7.0,
2285.0,2477.0,-28.0,-6.0,
2364.0,2316.0,-28.0,-6.0,
2315.0,2208.0,-28.0,-6.0,
2141.0,2056.0,-28.0,-6.0,
1922.0,1879.0,0,
1769.0,1814.0,-29.0,-6.0,
1770.0,1861.0,-29.0,-6.0,
1934.0,2045.0,-30.0,-6.0,
2156.0,2222.0,-30.0,-6.0,
2333.0,2305.0,-31.0,-6.0,
2361.0,2115.0,-31.0,-7.0,
2273.0,2160.0,-32.0,-7.0,
2076.0,2004.0,-32.0,-7.0,
1863.0,1665.0,-33.0,-7.0,
1745.0,1603.0,-33.0,-7.0,
1812.0,1737.0,-33.0,-7.0,
1991.0,2112.0,-34.0,-8.0,
2220.0,2282.0,-34.0,-8.0,
2347.0,2504.0,-34.0,-8.0,
2348.0,2090.0,-35.0,-8.0,
2239.0,2126.0,-35.0,-8.0,
2036.0,1765.0,-36.0,-8.0,
1826.0,1812.0,-36.0,-8.0,
1722.0,1794.0,-36.0,-8.0,
1837.0,1780.0,-37.0,-8.0,
2054.0,1971.0,-37.0,-8.0,
2261.0,2298.0,-38.0,-8.0,
2363.0,2321.0,-38.0,-8.0,
2333.0,2398.0,-38.0,-8.0,
2180.0,2076.0,-38.0,-8.0,
1972.0,2073.0,-38.0,-8.0,
1783.0,1977.0,-37.0,-8.0,
1735.0,1838.0,-37.0,-8.0,
1900.0,2016.0,-37.0,-7.0,
2111.0,2371.0,-36.0,-7.0,
2298.0,2478.0,-35.0,-7.0,
2374.0,2482.0,-35.0,-7.0,
2298.0,2367.0,-34.0,-7.0,
2136.0,1851.0,-34.0,-6.0,
1908.0,1866.0,-34.0,-6.0,
1751.0,1621.0,-33.0,-6.0,
1768.0,2044.0,-33.0,-6.0,
1956.0,1887.0,-33.0,-6.0,
2191.0,2244.0,-32.0,-6.0,
2337.0,2485.0,-32.0,-6.0,
2377.0,2112.0,-32.0,-6.0,
2257.0,2144.0,-32.0,-6.0,
2071.0,1971.0,-32.0,-6.0,
1845.0,1642.0,-31.0,-6.0,
1739.0,1956.0,-31.0,-6.0,
1814.0,2097.0,-31.0,-6.0,
2015.0,2277.0,-31.0,-6.0,
2236.0,2286.0,-31.0,-6.0,
2369.0,2498.0,-31.0,-6.0,
2357.0,2233.0,-30.0,-6.0,
2220.0,2277.0,-30.0,-6.0,
2020.0,2094.0,-30.0,-6.0,
1808.0,1806.0,-30.0,-6.0,
1742.0,1624.0,-30.0,-6.0,
1860.0,1988.0,-29.0,-6.0,
2089.0,2162.0,-29.0,-6.0,
2285.0,2478.0,-29.0,-6.0,
2380.0,2489.0,-29.0,-6.0,
2317.0,2212.0,-29.0,-7.0,
2178.0,2077.0,-30.0,-7.0,
1942.0,1854.0,-30.0,-7.0,
1762.0,1785.0,-30.0,-7.0,
1754.0,1839.0,-30.0,-7.0,
1933.0,2045.0,-31.0,-7.0,
2141.0,2236.0,-31.0,-7.0,
2326.0,2500.0,-31.0,-7.0,
2366.0,2324.0,-32.0,-7.0,
2291.0,2347.0,-32.0,-7.0,
2108.0,2180.0,-33.0,-7.0,
1882.0,1843.0,-33.0,-8.0,
1754.0,1621.0,-34.0,-8.0,
1803.0,1902.0,-34.0,-8.0,
1990.0,2272.0,-35.0,-8.0,
2218.0,2268.0,-35.0,-8.0,
2365.0,2326.0,-36.0,-8.0,
2352.0,2104.0,-36.0,-8.0,
2235.0,1959.0,-37.0,-8.0,
2030.0,2125.0,-37.0,-8.0,
1819.0,1996.0,-38.0,-8.0,
1743.0,1808.0,-38.0,-8.0,
1825.0,1969.0,-39.0,-8.0,
2041.0,2166.0,-39.0,-8.0,
2263.0,2305.0,-40.0,-8.0,
2367.0,2326.0,-40.0,-8.0,
2348.0,2067.0,-40.0,-8.0,
2201.0,2102.0,-40.0,-8.0,
1967.0,1896.0,-40.0,-8.0,
1767.0,1780.0,-40.0,-8.0,
1720.0,1986.0,-40.0,-8.0,
1884.0,2183.0,-40.0,-7.0,
2115.0,2205.0,-39.0,-7.0,
2303.0,2135.0,-39.0,-7.0,
2393.0,2318.0,-39.0,-7.0,
2315.0,2039.0,-38.0,-7.0,
2154.0,2228.0,-38.0,-7.0,
1921.0,1847.0,-37.0,-7.0,
1766.0,1790.0,-36.0,-7.0,
1749.0,2045.0,-36.0,-7.0,
1940.0,2064.0,-35.0,-6.0,
2173.0,2072.0,-34.0,-7.0,
2334.0,2511.0,-34.0,-7.0,
2386.0,2299.0,-33.0,-7.0,
2283.0,2337.0,-33.0,-7.0,
2089.0,1996.0,-32.0,-7.0,
1849.0,1816.0,-32.0,-7.0,
1741.0,1954.0,-31.0,-7.0,
1785.0,2093.0,-31.0,-7.0,
1999.0,2108.0,-31.0,-7.0,
2207.0,2090.0,-30.0,-7.0,
2357.0,2151.0,-30.0,-7.0,
2357.0,2083.0,-29.0,-7.0,
2237.0,2106.0,-29.0,-7.0,
2020.0,1925.0,-29.0,-7.0,
1798.0,1811.0,-29.0,-7.0,
1720.0,1814.0,-29.0,-7.0,
1823.0,2129.0,-29.0,-7.0,
2057.0,2164.0,-29.0,-7.0,
2271.0,2484.0,-29.0,-6.0,
2382.0,2342.0,-29.0,-6.0,
2327.0,2046.0,-29.0,-6.0,
2171.0,2070.0,-29.0,-6.0,
1962.0,1691.0,-29.0,-6.0,
1753.0,1766.0,-29.0,-6.0,
1734.0,1997.0,-29.0,-6.0,
1899.0,1842.0,-29.0,-6.0,
2155.0,2229.0,-29.0,-6.0,
2333.0,2509.0,-30.0,-6.0,
2392.0,2506.0,-30.0,-7.0,
2303.0,2188.0,-31.0,-7.0,
2121.0,2016.0,-31.0,-7.0,
1886.0,2013.0,-31.0,-7.0,
1735.0,1773.0,-32.0,-8.0,
1762.0,1696.0,-32.0,-8.0,
1960.0,2250.0,-33.0,-8.0,
2193.0,2449.0,-33.0,-9.0,
2339.0,2157.0,-33.0,-9.0,
2367.0,2466.0,-33.0,-9.0,
2254.0,2136.0,-33.0,-9.0,
2062.0,1951.0,-33.0,-9.0,
1819.0,1799.0,-32.0,-9.0,
1721.0,1777.0,-32.0,-9.0,
1807.0,1762.0,-32.0,-9.0,
2019.0,1945.0,-32.0,-9.0,
2244.0,2301.0,-31.0,-8.0,
2361.0,2508.0,-31.0,-9.0,
2354.0,2423.0,-31.0,-9.0,
2212.0,2272.0,-31.0,-9.0,
1996.0,1889.0,-31.0,-9.0,
1792.0,1602.0,-31.0,-9.0,
1724.0,1989.0,-31.0,-9.0,
1854.0,1984.0,-31.0,-10.0,
2104.0,2177.0,-31.0,-10.0,
2298.0,2145.0,-31.0,-11.0,
2389.0,2501.0,-31.0,-11.0,
2312.0,2395.0,-30.0,-12.0,
2158.0,2057.0,-30.0,-12.0,
1923.0,1873.0,-29.0,-12.0,
1788.0,1612.0,-29.0,-13.0,
1745.0,2028.0,-28.0,-13.0,
1931.0,2046.0,-28.0,-13.0,
2158.0,2067.0,-27.0,-13.0,
2330.0,2323.0,-27.0,-13.0,
2378.0,2299.0,-26.0,-14.0,
2276.0,2183.0,-24.0,-14.0,
2093.0,1996.0,-23.0,-14.0,
1872.0,1652.0,-21.0,-15.0,
1730.0,1760.0,-19.0,-16.0,
1769.0,2048.0,-17.0,-16.0,
1953.0,1897.0,-14.0,-17.0,
2183.0,2248.0,-12.0,-17.0,
2357.0,2327.0,-9.0,-17.0,
2385.0,2319.0,-6.0,-17.0,
2276.0,1992.0,-3.0,-17.0,
2097.0,2157.0,-1.0,-16.0,
1871.0,1840.0,1.0,-15.0,
1738.0,1589.0,3.0,-15.0,
1764.0,1695.0,5.0,-14.0,
1967.0,2085.0,8.0,-13.0,
2187.0,2259.0,10.0,-12.0,
2349.0,2511.0,12.0,-11.0,
2379.0,2125.0,14.0,-10.0,
2288.0,2353.0,15.0,-9.0,
2105.0,1985.0,17.0,-8.0,
1869.0,2016.0,19.0,-8.0,
1729.0,1756.0,20.0,-8.0,
1760.0,2038.0,22.0,-8.0,
1959.0,2253.0,23.0,-7.0,
2188.0,2258.0,24.0,-7.0,
2339.0,2347.0,24.0,-8.0,
2373.0,2481.0,25.0,-8.0,
2300.0,2167.0,26.0,-9.0,
2072.0,1957.0,27.0,-9.0,
1841.0,1818.0,27.0,-9.0,
1726.0,1595.0,28.0,-10.0,
1796.0,1916.0,28.0,-10.0,
2020.0,1953.0,28.0,-10.0,
2242.0,2274.0,28.0,-10.0,
2375.0,2515.0,28.0,-10.0,
2351.0,2085.0,28.0,-10.0,
2217.0,2128.0,28.0,-10.0,
2005.0,1738.0,27.0,-10.0,
1790.0,1608.0,26.0,-11.0,
1729.0,1977.0,25.0,-11.0,
1856.0,2084.0,24.0,-12.0,
2076.0,2180.0,23.0,-12.0,
2284.0,2326.0,21.0,-13.0,
2379.0,2512.0,20.0,-15.0,
2334.0,2066.0,19.0,-16.0,
2199.0,2088.0,18.0,-17.0,
1979.0,1720.0,18.0,-18.0,
1784.0,1801.0,18.0,-18.0,
1720.0,1822.0,17.0,-19.0,
1835.0,2150.0,17.0,-19.0,
2071.0,1998.0,17.0,-19.0,
2281.0,2136.0,17.0,-20.0,
2372.0,2347.0,18.0,-20.0,
2347.0,2075.0,18.0,-20.0,
2204.0,1912.0,18.0,-20.0,
1985.0,1918.0,18.0,-20.0,
1788.0,1806.0,18.0,-20.0,
1716.0,1970.0,18.0,-20.0,
1824.0,1976.0,18.0,-20.0,
2069.0,2338.0,18.0,-20.0,
2280.0,2297.0,18.0,-20.0,
2401.0,2339.0,18.0,-21.0,
2352.0,2427.0,18.0,-20.0,
2197.0,2275.0,18.0,-20.0,
2007.0,1732.0,19.0,-19.0,
1786.0,1789.0,19.0,-19.0,
1702.0,1624.0,19.0,-19.0,
1838.0,2127.0,19.0,-19.0,
2068.0,2336.0,0,
2272.0,2475.0,19.0,-18.0,
2384.0,2340.0,19.0,-18.0,
2356.0,2248.0,20.0,-18.0,
2220.0,1929.0,20.0,-19.0,
2023.0,2090.0,20.0,-19.0,
1819.0,1965.0,20.0,-19.0,
1726.0,1966.0,20.0,-18.0,
1831.0,1767.0,20.0,-18.0,
2042.0,2160.0,20.0,-18.0,
2266.0,2290.0,20.0,-18.0,
2378.0,2164.0,20.0,-18.0,
2352.0,2246.0,21.0,-18.0,
2212.0,2278.0,21.0,-18.0,
2005.0,1912.0,21.0,-16.0,
1803.0,1964.0,21.0,-16.0,
1706.0,1776.0,22.0,-16.0,
1814.0,1775.0,22.0,-16.0,
2040.0,2317.0,22.0,-17.0,
2258.0,2120.0,22.0,-16.0,
2374.0,2344.0,22.0,-16.0,
2371.0,2432.0,22.0,-16.0,
2220.0,2119.0,22.0,-16.0,
2023.0,1746.0,22.0,-15.0,
1815.0,1616.0,22.0,-16.0,
1730.0,1786.0,22.0,-17.0,
1807.0,1766.0,22.0,-18.0,
2024.0,2154.0,21.0,-19.0,
2255.0,2294.0,21.0,-19.0,
2378.0,2159.0,20.0,-18.0,
2368.0,2450.0,20.0,-18.0,
2239.0,2295.0,20.0,-19.0,
2031.0,2107.0,19.0,-19.0,
1806.0,1795.0,18.0,-19.0,
1732.0,1771.0,18.0,-19.0,
1814.0,1911.0,17.0,-19.0,
2029.0,1936.0,17.0,-19.0,
2249.0,2452.0,17.0,-19.0,
2373.0,2149.0,17.0,-19.0,
2360.0,2274.0,16.0,-20.0,
2236.0,2116.0,16.0,-21.0,
2028.0,1942.0,15.0,-22.0,
1815.0,1777.0,15.0,-21.0,
1719.0,1801.0,15.0,-21.0,
1802.0,2097.0,15.0,-21.0,
2025.0,2305.0,15.0,-21.0,
2234.0,2265.0,15.0,-21.0,
2361.0,2350.0,15.0,-21.0,
2359.0,2454.0,15.0,-21.0,
2236.0,2140.0,15.0,-21.0,
2037.0,1772.0,15.0,-20.0,
1820.0,1618.0,15.0,-19.0,
1723.0,1948.0,15.0,-19.0,
1797.0,1741.0,15.0,-20.0,
2021.0,1952.0,14.0,-20.0,
2241.0,2115.0,14.0,-21.0,
2374.0,2363.0,14.0,-21.0,
2367.0,2298.0,14.0,-20.0,
2252.0,2126.0,14.0,-20.0,
2052.0,1772.0,14.0,-19.0,
1818.0,1806.0,14.0,-19.0,
1724.0,1769.0,14.0,-19.0,
1784.0,1926.0,14.0,-19.0,
2024.0,2112.0,15.0,-18.0,
2239.0,2289.0,15.0,-18.0,
2381.0,2358.0,15.0,-17.0,
2367.0,2270.0,15.0,-17.0,
2266.0,2126.0,15.0,-17.0,
2043.0,1962.0,15.0,-17.0,
1821.0,1821.0,15.0,-17.0,
1730.0,1794.0,16.0,-17.0,
1794.0,1742.0,16.0,-17.0,
1997.0,1937.0,17.0,-17.0,
2221.0,2301.0,17.0,-17.0,
2362.0,2526.0,17.0,-17.0,
2369.0,2297.0,18.0,-16.0,
2254.0,2146.0,19.0,-15.0,
2060.0,2134.0,19.0,-15.0,
1842.0,1638.0,20.0,-16.0,
1717.0,1782.0,21.0,-17.0,
1784.0,1728.0,21.0,-17.0,
1999.0,2281.0,22.0,-17.0,
2227.0,2293.0,22.0,-17.0,
2372.0,2157.0,23.0,-18.0,
2373.0,2274.0,24.0,-18.0,
2246.0,1946.0,24.0,-18.0,
2050.0,2045.0,25.0,-17.0,
1811.0,1620.0,25.0,-17.0,
1721.0,1773.0,26.0,-17.0,
1817.0,1943.0,26.0,-18.0,
2068.0,2339.0,26.0,-18.0,
2278.0,2299.0,27.0,-18.0,
2386.0,2173.0,27.0,-18.0,
2345.0,2237.0,27.0,-17.0,
2199.0,2071.0,27.0,-17.0,
1963.0,2061.0,28.0,-17.0,
1776.0,1610.0,28.0,-18.0,
1718.0,1838.0,28.0,-18.0,
1885.0,2028.0,28.0,-18.0,
2125.0,2220.0,28.0,-18.0,
2313.0,2333.0,28.0,-18.0,
2381.0,2333.0,28.0,-18.0,
2296.0,2032.0,28.0,-18.0,
2131.0,1844.0,28.0,-18.0,
1901.0,2018.0,28.0,-18.0,
1747.0,1776.0,28.0,-18.0,
1754.0,1866.0,27.0,-18.0,
1949.0,2252.0,27.0,-18.0,
2189.0,2240.0,27.0,-18.0,
2361.0,2156.0,26.0,-18.0,
2392.0,2136.0,26.0,-18.0,
2254.0,1976.0,26.0,-18.0,
2055.0,1788.0,25.0,-18.0,
1815.0,1982.0,0,
1717.0,1603.0,25.0,-18.0,
1791.0,2094.0,24.0,-18.0,
2024.0,1960.0,24.0,-19.0,
2254.0,2315.0,23.0,-19.0,
2376.0,2157.0,23.0,-19.0,
2375.0,2087.0,23.0,-19.0,
2237.0,2131.0,22.0,-19.0,
2026.0,1919.0,22.0,-19.0,
1808.0,1606.0,21.0,-19.0,
1721.0,1796.0,21.0,-19.0,
1821.0,1757.0,21.0,-19.0,
2036.0,2138.0,20.0,-19.0,
2256.0,2470.0,20.0,-19.0,
2377.0,2349.0,20.0,-19.0,
2359.0,2443.0,19.0,-20.0,
2228.0,2139.0,19.0,-20.0,
2023.0,1942.0,18.0,-20.0,
1809.0,1805.0,18.0,-20.0,
1725.0,1960.0,18.0,-20.0,
1809.0,1954.0,18.0,-20.0,
2025.0,2302.0,18.0,-20.0,
2250.0,2287.0,17.0,-20.0,
2375.0,2156.0,17.0,-20.0,
2363.0,2263.0,17.0,-20.0,
2245.0,1956.0,17.0,-19.0,
2048.0,1758.0,17.0,-19.0,
1824.0,1807.0,17.0,-19.0,
1730.0,1796.0,17.0,-19.0,
1811.0,1919.0,17.0,-19.0,
2014.0,1941.0,17.0,-19.0,
2237.0,2114.0,17.0,-19.0,
2371.0,2342.0,17.0,-19.0,
2376.0,2100.0,17.0,-19.0,
2241.0,2311.0,17.0,-19.0,
2054.0,1756.0,17.0,-19.0,
1829.0,1817.0,17.0,-19.0,
1730.0,1957.0,17.0,-19.0,
1798.0,1908.0,18.0,-19.0,
2010.0,2110.0,18.0,-19.0,
2235.0,2277.0,18.0,-19.0,
2367.0,2163.0,19.0,-19.0,
2363.0,2291.0,19.0,-19.0,
2246.0,1948.0,20.0,-19.0,
2048.0,2121.0,20.0,-19.0,
1824.0,1979.0,21.0,-19.0,
1724.0,1772.0,21.0,-19.0,
1791.0,1909.0,22.0,-19.0,
2001.0,2107.0,22.0,-19.0,
2214.0,2298.0,23.0,-19.0,
2354.0,2532.0,23.0,-19.0,
2375.0,2457.0,24.0,-19.0,
2233.0,2123.0,24.0,-19.0,
2024.0,1933.0,25.0,-19.0,
1793.0,1804.0,25.0,-19.0,
1714.0,1955.0,26.0,-18.0,
1833.0,2117.0,26.0,-18.0,
2059.0,2153.0,26.0,-18.0,
2283.0,2297.0,27.0,-18.0,
2385.0,2170.0,27.0,-18.0,
2337.0,2257.0,27.0,-18.0,
2185.0,2252.0,28.0,-18.0,
1950.0,1874.0,28.0,-18.0,
1759.0,1792.0,28.0,-18.0,
1720.0,1832.0,28.0,-18.0,
1887.0,2201.0,29.0,-17.0,
2135.0,2393.0,29.0,-17.0,
2327.0,2352.0,29.0,-17.0,
2403.0,2340.0,29.0,-17.0,
2297.0,2029.0,29.0,-17.0,
2122.0,1997.0,29.0,-17.0,
1876.0,1810.0,29.0,-17.0,
1722.0,1581.0,29.0,-17.0,
1743.0,1883.0,29.0,-17.0,
1958.0,2267.0,29.0,-17.0,
2200.0,2098.0,29.0,-17.0,
2370.0,2350.0,29.0,-17.0,
2375.0,2302.0,28.0,-17.0,
2270.0,2325.0,28.0,-17.0,
2050.0,1766.0,28.0,-17.0,
1822.0,1622.0,28.0,-17.0,
1712.0,1947.0,28.0,-17.0,
1811.0,2096.0,28.0,-17.0,
2044.0,2312.0,27.0,-17.0,
2267.0,2317.0,27.0,-18.0,
2377.0,2533.0,27.0,-18.0,
2361.0,2073.0,27.0,-18.0,
2209.0,1914.0,26.0,-18.0,
1977.0,1895.0,26.0,-18.0,
1765.0,1769.0,26.0,-18.0,
1723.0,1625.0,26.0,-18.0,
1865.0,1990.0,25.0,-18.0,
2108.0,2205.0,25.0,-18.0,
2325.0,2506.0,25.0,-18.0,
2402.0,2508.0,24.0,-18.0,
2331.0,2388.0,24.0,-18.0,
2147.0,1854.0,24.0,-18.0,
1911.0,1661.0,24.0,-18.0,
1732.0,1764.0,24.0,-19.0,
1730.0,1851.0,23.0,-19.0,
1929.0,2035.0,23.0,-19.0,
2171.0,2420.0,23.0,-19.0,
2344.0,2529.0,23.0,-19.0,
2394.0,2336.0,23.0,-19.0,
2312.0,2206.0,23.0,-19.0,
2118.0,1834.0,22.0,-19.0,
1879.0,1651.0,22.0,-19.0,
1728.0,1947.0,22.0,-19.0,
1747.0,1831.0,23.0,-19.0,
1922.0,2036.0,23.0,-19.0,
2184.0,2238.0,23.0,-19.0,
2347.0,2348.0,23.0,-19.0,
2407.0,2342.0,23.0,-19.0,
2302.0,2013.0,23.0,-19.0,
2105.0,2017.0,23.0,-19.0,
1872.0,1815.0,23.0,-19.0,
1713.0,1579.0,24.0,-19.0,
1766.0,1862.0,24.0,-19.0,
1992.0,1915.0,24.0,-19.0,
2225.0,2117.0,24.0,-19.0,
2375.0,2164.0,24.0,-19.0,
2393.0,2314.0,24.0,-19.0,
2256.0,1953.0,24.0,-19.0,
2030.0,1932.0,24.0,-19.0,
1798.0,1788.0,24.0,-19.0,
1697.0,1757.0,25.0,-18.0,
1822.0,2101.0,25.0,-18.0,
2050.0,2153.0,25.0,-18.0,
2293.0,2135.0,25.0,-18.0,
2405.0,2158.0,25.0,-18.0,
2369.0,2260.0,25.0,-18.0,
2207.0,2084.0,25.0,-18.0,
1953.0,1882.0,25.0,-18.0,
1753.0,1768.0,25.0,-18.0,
1710.0,1805.0,25.0,-18.0,
1868.0,2012.0,25.0,-18.0,
2108.0,2377.0,25.0,-18.0,
2324.0,2330.0,25.0,-18.0,
2405.0,2340.0,25.0,-18.0,
2328.0,2034.0,25.0,-18.0,
2148.0,1858.0,25.0,-18.0,
1895.0,1820.0,25.0,-18.0,
1735.0,1589.0,25.0,-18.0,
1753.0,1860.0,25.0,-18.0,
1941.0,2249.0,25.0,-18.0,
2188.0,2440.0,25.0,-18.0,
2346.0,2356.0,25.0,-18.0,
2381.0,2126.0,25.0,-19.0,
2275.0,1981.0,25.0,-18.0,
2062.0,2139.0,25.0,-18.0,
1836.0,1810.0,25.0,-18.0,
1726.0,1596.0,25.0,-18.0,
1805.0,1932.0,25.0,-18.0,
2025.0,1953.0,25.0,-18.0,
2259.0,2490.0,25.0,-18.0,
2378.0,2158.0,25.0,-19.0,
2348.0,2074.0,25.0,-18.0,
2209.0,2079.0,25.0,-19.0,
1979.0,1712.0,25.0,-19.0,
1791.0,1958.0,25.0,-19.0,
1720.0,1981.0,25.0,-19.0,
1861.0,2164.0,25.0,-19.0,
2096.0,2175.0,25.0,-19.0,
2295.0,2500.0,25.0,-19.0,
2383.0,2316.0,25.0,-19.0,
2319.0,2222.0,25.0,-19.0,
2162.0,2044.0,25.0,-19.0,
1903.0,2013.0,25.0,-19.0,
1754.0,1591.0,25.0,-19.0,
1741.0,1870.0,25.0,-19.0,
1926.0,1866.0,25.0,-19.0,
2163.0,2233.0,25.0,-19.0,
2332.0,2168.0,25.0,-19.0,
2376.0,2293.0,25.0,-19.0,
2281.0,2191.0,25.0,-19.0,
2092.0,2168.0,25.0,-19.0,
1861.0,1633.0,25.0,-19.0,
1731.0,1801.0,25.0,-19.0,
1783.0,2080.0,25.0,-19.0,
2001.0,2295.0,26.0,-19.0,
2236.0,2275.0,26.0,-19.0,
2351.0,2344.0,26.0,-19.0,
2358.0,2444.0,26.0,-19.0,
2224.0,2113.0,26.0,-19.0,
2012.0,1921.0,26.0,-19.0,
1800.0,1781.0,26.0,-19.0,
1718.0,1804.0,26.0,-18.0,
1837.0,1960.0,26.0,-18.0,
2078.0,2166.0,26.0,-18.0,
2284.0,2309.0,26.0,-18.0,
2392.0,2168.0,26.0,-18.0,
2331.0,2402.0,26.0,-18.0,
2174.0,2047.0,26.0,-18.0,
1933.0,1870.0,26.0,-18.0,
1754.0,1785.0,26.0,-18.0,
1729.0,1668.0,26.0,-18.0,
1905.0,1852.0,26.0,-18.0,
2138.0,2050.0,26.0,-18.0,
2338.0,2159.0,26.0,-18.0,
2391.0,2319.0,26.0,-18.0,
2299.0,2352.0,26.0,-18.0,
2119.0,2016.0,0,
1887.0,2003.0,26.0,-19.0,
1738.0,1755.0,26.0,-19.0,
1772.0,2061.0,26.0,-18.0,
1980.0,2257.0,26.0,-18.0,
2213.0,2097.0,26.0,-18.0,
2368.0,2353.0,26.0,-18.0,
2377.0,2469.0,26.0,-18.0,
2255.0,2144.0,26.0,-18.0,
2048.0,1956.0,26.0,-19.0,
1821.0,1973.0,25.0,-18.0,
1720.0,1785.0,25.0,-19.0,
1814.0,2121.0,25.0,-19.0,
2054.0,2328.0,25.0,-19.0,
2272.0,2288.0,25.0,-19.0,
2384.0,2518.0,25.0,-19.0,
2359.0,2428.0,25.0,-19.0,
2205.0,2079.0,25.0,-19.0,
1971.0,1891.0,25.0,-19.0,
1767.0,1770.0,25.0,-19.0,
1718.0,1819.0,25.0,-19.0,
1897.0,2186.0,25.0,-19.0,
2123.0,2204.0,25.0,-18.0,
2330.0,2153.0,25.0,-18.0,
2392.0,2154.0,25.0,-18.0,
2321.0,2025.0,26.0,-18.0,
2131.0,1853.0,26.0,-18.0,
1893.0,1644.0,26.0,-18.0,
1722.0,1939.0,26.0,-18.0,
1740.0,1692.0,26.0,-18.0,
1957.0,2251.0,26.0,-18.0,
2179.0,2433.0,26.0,-18.0,
2344.0,2363.0,26.0,-18.0,
2382.0,2303.0,26.0,-18.0,
2258.0,2345.0,26.0,-18.0,
2066.0,1980.0,26.0,-18.0,
1840.0,1803.0,26.0,-18.0,
1718.0,1957.0,26.0,-18.0,
1797.0,1908.0,26.0,-18.0,
2024.0,2145.0,26.0,-18.0,
2266.0,2099.0,26.0,-18.0,
2387.0,2513.0,26.0,-18.0,
2358.0,2432.0,26.0,-18.0,
2219.0,2095.0,26.0,-18.0,
2005.0,1718.0,26.0,-19.0,
1781.0,1598.0,26.0,-19.0,
1719.0,1965.0,26.0,-19.0,
1852.0,1993.0,26.0,-19.0,
2103.0,2009.0,26.0,-19.0,
2315.0,2151.0,25.0,-19.0,
2394.0,2329.0,25.0,-19.0,
2326.0,2388.0,25.0,-19.0,
2160.0,2047.0,25.0,-19.0,
1921.0,1656.0,25.0,-19.0,
1739.0,1580.0,25.0,-19.0,
1734.0,1861.0,25.0,-19.0,
1931.0,2219.0,25.0,-19.0,
2170.0,2239.0,25.0,-19.0,
2337.0,2342.0,25.0,-19.0,
2393.0,2312.0,25.0,-19.0,
2290.0,2166.0,25.0,-19.0,
2102.0,1819.0,25.0,-19.0,
1856.0,1796.0,25.0,-19.0,
1722.0,1591.0,25.0,-19.0,
1781.0,1894.0,25.0,-19.0,
1997.0,2107.0,25.0,-19.0,
2240.0,2111.0,24.0,-19.0,
2370.0,2531.0,24.0,-19.0,
2368.0,2291.0,24.0,-19.0,
2252.0,2308.0,25.0,-19.0,
2019.0,1914.0,25.0,-19.0,
1799.0,1604.0,25.0,-19.0,
1716.0,1782.0,25.0,-18.0,
1830.0,1779.0,25.0,-19.0,
2072.0,1994.0,25.0,-19.0,
2295.0,2497.0,25.0,-18.0,
2386.0,2361.0,25.0,-18.0,
2334.0,2063.0,25.0,-18.0,
2180.0,2062.0,25.0,-18.0,
1932.0,1850.0,25.0,-18.0,
1742.0,1579.0,25.0,-18.0,
1714.0,1815.0,25.0,-18.0,
1899.0,1845.0,25.0,-18.0,
2140.0,2220.0,25.0,-18.0,
2338.0,2337.0,25.0,-18.0,
2407.0,2150.0,25.0,-18.0,
2299.0,2181.0,25.0,-18.0,
2106.0,2172.0,26.0,-18.0,
1872.0,1831.0,26.0,-18.0,
1739.0,1930.0,26.0,-18.0,
1767.0,1701.0,26.0,-18.0,
1974.0,1907.0,26.0,-18.0,
2209.0,2276.0,26.0,-18.0,
2358.0,2355.0,26.0,-18.0,
2394.0,2291.0,26.0,-18.0,
2264.0,2159.0,26.0,-18.0,
2039.0,1953.0,26.0,-18.0,
1817.0,1978.0,26.0,-18.0,
1708.0,1956.0,26.0,-18.0,
1805.0,1939.0,26.0,-18.0,
2044.0,2149.0,26.0,-18.0,
2274.0,2117.0,26.0,-18.0,
2388.0,2154.0,26.0,-18.0,
2352.0,2248.0,26.0,-18.0,
2208.0,2093.0,26.0,-18.0,
1978.0,1707.0,26.0,-18.0,
1769.0,1765.0,26.0,-18.0,
1723.0,1795.0,26.0,-18.0,
1878.0,2007.0,26.0,-19.0,
2133.0,2024.0,26.0,-18.0,
2321.0,2152.0,26.0,-18.0,
2385.0,2154.0,26.0,-18.0,
2332.0,2187.0,26.0,-18.0,
2126.0,2020.0,26.0,-18.0,
1896.0,1817.0,26.0,-18.0,
1729.0,1756.0,26.0,-18.0,
1736.0,2020.0,26.0,-18.0,
1952.0,1891.0,26.0,-18.0,
2191.0,2433.0,26.0,-18.0,
2346.0,2334.0,26.0,-18.0,
2393.0,2485.0,26.0,-18.0,
2272.0,1982.0,26.0,-18.0,
2066.0,1786.0,26.0,-18.0,
1835.0,1620.0,26.0,-18.0,
1727.0,1770.0,26.0,-18.0,
1790.0,1915.0,26.0,-18.0,
2019.0,2301.0,26.0,-18.0,
2236.0,2305.0,26.0,-18.0,
2370.0,2356.0,26.0,-18.0,
2363.0,2247.0,26.0,-18.0,
2234.0,2096.0,26.0,-18.0,
2005.0,1893.0,26.0,-18.0,
1777.0,1604.0,26.0,-18.0,
1720.0,1808.0,26.0,-18.0,
1857.0,1990.0,26.0,-18.0,
2091.0,2178.0,26.0,-18.0,
2305.0,2321.0,26.0,-18.0,
2406.0,2359.0,26.0,-18.0,
2341.0,2040.0,26.0,-18.0,
2168.0,2054.0,26.0,-18.0,
1925.0,2034.0,26.0,-18.0,
1740.0,1958.0,26.0,-18.0,
1750.0,1858.0,26.0,-18.0,
1917.0,2224.0,26.0,-18.0,
2163.0,2235.0,26.0,-18.0,
2357.0,2329.0,26.0,-18.0,
2400.0,2139.0,26.0,-18.0,
2302.0,2170.0,26.0,-18.0,
2100.0,1991.0,0,
1864.0,1840.0,26.0,-18.0,
1728.0,1776.0,26.0,-18.0,
1772.0,2070.0,26.0,-18.0,
2003.0,2102.0,26.0,-18.0,
2233.0,2109.0,26.0,-18.0,
2373.0,2535.0,26.0,-18.0,
2395.0,2287.0,26.0,-18.0,
2256.0,1955.0,26.0,-18.0,
2033.0,1945.0,0,
1807.0,1961.0,26.0,-18.0,
1724.0,1777.0,26.0,-18.0,
1815.0,1764.0,26.0,-18.0,
2056.0,2337.0,26.0,-18.0,
2283.0,2481.0,26.0,-18.0,
2382.0,2340.0,25.0,-18.0,
2362.0,2221.0,25.0,-18.0,
2189.0,2088.0,25.0,-18.0,
1947.0,2040.0,25.0,-18.0,
1763.0,1793.0,25.0,-18.0,
1730.0,1911.0,25.0,-18.0,
1878.0,2037.0,25.0,-18.0,
2124.0,2209.0,25.0,-18.0,
2323.0,2351.0,25.0,-18.0,
2388.0,2495.0,25.0,-18.0,
2295.0,2367.0,25.0,-18.0,
2121.0,1997.0,25.0,-18.0,
1877.0,2009.0,25.0,-18.0,
1741.0,1771.0,25.0,-18.0,
1766.0,2040.0,25.0,-18.0,
1979.0,2081.0,25.0,-19.0,
2215.0,2287.0,25.0,-19.0,
2367.0,2185.0,25.0,-18.0,
2396.0,2478.0,25.0,-18.0,
2267.0,2317.0,25.0,-18.0,
2051.0,1956.0,25.0,-19.0,
1823.0,1798.0,25.0,-18.0,
1714.0,1954.0,25.0,-18.0,
1812.0,1924.0,25.0,-19.0,
2030.0,2141.0,25.0,-19.0,
2258.0,2297.0,25.0,-19.0,
2390.0,2177.0,25.0,-19.0,
2365.0,2273.0,25.0,-19.0,
2208.0,1928.0,25.0,-19.0,
1978.0,2059.0,25.0,-19.0,
1775.0,1777.0,25.0,-19.0,
1727.0,1985.0,26.0,-19.0,
1876.0,1990.0,26.0,-19.0,
2110.0,2202.0,26.0,-19.0,
2313.0,2316.0,26.0,-19.0,
2399.0,2155.0,26.0,-19.0,
2315.0,2204.0,26.0,-19.0,
2129.0,1853.0,26.0,-19.0,
1896.0,1817.0,26.0,-19.0,
1738.0,1764.0,26.0,-19.0,
1742.0,1860.0,26.0,-19.0,
1941.0,2238.0,26.0,-19.0,
2185.0,2423.0,26.0,-19.0,
2355.0,2524.0,26.0,-19.0,
2401.0,2119.0,26.0,-19.0,
2276.0,1983.0,25.0,-19.0,
2068.0,1959.0,25.0,-19.0,
1836.0,1617.0,26.0,-19.0,
1726.0,1766.0,26.0,-19.0,
1792.0,1901.0,26.0,-19.0,
2008.0,2111.0,26.0,-19.0,
2236.0,2481.0,26.0,-19.0,
2377.0,2357.0,26.0,-19.0,
2362.0,2447.0,26.0,-19.0,
2218.0,2102.0,26.0,-19.0,
2003.0,1930.0,26.0,-19.0,
1787.0,1784.0,26.0,-19.0,
1715.0,1796.0,26.0,-19.0,
1845.0,1796.0,26.0,-19.0,
2089.0,2352.0,26.0,-19.0,
2290.0,2319.0,26.0,-19.0,
2395.0,2159.0,26.0,-19.0,
2336.0,2412.0,26.0,-19.0,
2164.0,2062.0,25.0,-19.0,
1926.0,2034.0,25.0,-19.0,
1747.0,1783.0,25.0,-19.0,
1739.0,1860.0,25.0,-19.0,
1921.0,2025.0,25.0,-19.0,
2156.0,2239.0,25.0,-19.0,
2338.0,2509.0,25.0,-19.0,
2392.0,2152.0,25.0,-19.0,
2289.0,2167.0,25.0,-19.0,
2100.0,2173.0,25.0,-19.0,
1859.0,1811.0,25.0,-19.0,
1725.0,1776.0,25.0,-19.0,
1769.0,1883.0,25.0,-19.0,
1985.0,2104.0,25.0,-19.0,
2216.0,2107.0,25.0,-19.0,
2361.0,2522.0,25.0,-19.0,
2375.0,2100.0,25.0,-19.0,
2254.0,2111.0,25.0,-19.0,
2029.0,1928.0,25.0,-19.0,
1794.0,1597.0,25.0,-19.0,
1713.0,1765.0,25.0,-19.0,
1817.0,2123.0,25.0,-19.0,
2058.0,1988.0,25.0,-19.0,
2275.0,2330.0,25.0,-19.0,
2391.0,2324.0,25.0,-19.0,
2348.0,2425.0,25.0,-19.0,
2188.0,2102.0,25.0,-19.0,
1966.0,1896.0,25.0,-19.0,
1757.0,1778.0,25.0,-19.0,
1734.0,1987.0,25.0,-19.0,
1897.0,1984.0,25.0,-19.0,
2133.0,2195.0,25.0,-19.0,
2324.0,2332.0,25.0,-19.0,
2398.0,2150.0,25.0,-19.0,
2307.0,2208.0,25.0,-19.0,
2140.0,2019.0,25.0,-19.0,
1894.0,1852.0,25.0,-19.0,
1737.0,1953.0,25.0,-19.0,
1746.0,1865.0,25.0,-19.0,
1952.0,2080.0,25.0,-19.0,
2182.0,2084.0,25.0,-19.0,
2321.0,2365.0,25.0,-19.0,
2383.0,2490.0,25.0,-19.0,
2271.0,2165.0,26.0,-19.0,
2087.0,2140.0,26.0,-19.0,
1828.0,1791.0,26.0,-19.0,
1715.0,1590.0,26.0,-19.0,
1792.0,1725.0,26.0,-19.0,
2021.0,1941.0,26.0,-19.0,
2251.0,2291.0,26.0,-19.0,
2403.0,2370.0,26.0,-19.0,
2380.0,2256.0,26.0,-19.0,
2216.0,2100.0,26.0,-19.0,
1989.0,1734.0,26.0,-18.0,
1791.0,1607.0,26.0,-18.0,
1723.0,1802.0,26.0,-18.0,
1880.0,1797.0,26.0,-18.0,
2104.0,2178.0,26.0,-18.0,
2307.0,2499.0,26.0,-18.0,
2388.0,2360.0,26.0,-18.0,
2329.0,2058.0,26.0,-18.0,
2173.0,2053.0,26.0,-18.0,
1928.0,1681.0,26.0,-18.0,
1738.0,1579.0,26.0,-18.0,
1738.0,1672.0,26.0,-18.0,
1922.0,1871.0,26.0,-18.0,
2168.0,2426.0,26.0,-18.0,
2340.0,2173.0,26.0,-18.0,
2402.0,2332.0,26.0,-18.0,
2287.0,2198.0,26.0,-18.0,
2106.0,2001.0,26.0,-18.0,
1858.0,1642.0,26.0,-18.0,
1718.0,1795.0,26.0,-18.0,
1755.0,1886.0,26.0,-18.0,
1993.0,1934.0,26.0,-18.0,
2233.0,2093.0,26.0,-18.0,
2363.0,2341.0,26.0,-18.0,
2373.0,2100.0,26.0,-18.0,
2231.0,2140.0,26.0,-18.0,
2016.0,1751.0,26.0,-18.0,
1803.0,1792.0,26.0,-18.0,
1717.0,1601.0,26.0,-18.0,
1829.0,2135.0,25.0,-18.0,
2066.0,2153.0,25.0,-18.0,
2285.0,2337.0,25.0,-18.0,
2386.0,2351.0,25.0,-18.0,
2347.0,2420.0,25.0,-18.0,
2186.0,2087.0,25.0,-18.0,
1939.0,1881.0,25.0,-18.0,
1766.0,1761.0,25.0,-18.0,
1721.0,1654.0,25.0,-18.0,
1904.0,2193.0,25.0,-18.0,
2141.0,2227.0,25.0,-18.0,
2336.0,2322.0,25.0,-18.0,
2399.0,2511.0,25.0,-18.0,
2305.0,2009.0,25.0,-18.0,
2122.0,1845.0,25.0,-18.0,
1875.0,1993.0,25.0,-18.0,
1728.0,1599.0,25.0,-18.0,
1763.0,1884.0,25.0,-18.0,
1971.0,2074.0,25.0,-18.0,
2205.0,2101.0,25.0,-18.0,
2365.0,2355.0,25.0,-18.0,
2382.0,2121.0,25.0,-18.0,
2249.0,2164.0,26.0,-18.0,
2055.0,1760.0,26.0,-18.0,
1808.0,1970.0,26.0,-18.0,
1717.0,1957.0,26.0,-18.0,
1807.0,2104.0,26.0,-18.0,
2037.0,2138.0,26.0,-18.0,
2264.0,2137.0,26.0,-18.0,
2375.0,2524.0,26.0,-18.0,
2346.0,2255.0,26.0,-18.0,
2192.0,1923.0,26.0,-18.0,
1968.0,1708.0,26.0,-18.0,
1763.0,1946.0,26.0,-18.0,
1712.0,1633.0,26.0,-18.0,
1859.0,2004.0,26.0,-18.0,
2110.0,2198.0,26.0,-18.0,
2322.0,2506.0,26.0,-18.0,
2394.0,2319.0,26.0,-18.0,
2315.0,2201.0,26.0,-18.0,
2149.0,1858.0,26.0,-18.0,
1902.0,1823.0,26.0,-18.0,
1726.0,1935.0,26.0,-18.0,
1737.0,2028.0,26.0,-18.0,
1942.0,1882.0,26.0,-18.0,
2187.0,2419.0,26.0,-18.0,
2354.0,2525.0,26.0,-18.0,
2379.0,2480.0,26.0,-18.0,
2273.0,2168.0,26.0,-18.0,
2074.0,1973.0,26.0,-18.0,
1836.0,1973.0,26.0,-18.0,
1719.0,1942.0,26.0,-18.0,
1801.0,1904.0,26.0,-19.0,
2031.0,2135.0,25.0,-19.0,
2249.0,2477.0,25.0,-19.0,
2380.0,2169.0,25.0,-19.0,
2366.0,2265.0,25.0,-19.0,
2225.0,2114.0,25.0,-19.0,
1993.0,2073.0,25.0,-19.0,
1819.0,1599.0,25.0,-19.0,
1711.0,1780.0,25.0,-19.0,
1848.0,1797.0,24.0,-19.0,
2093.0,2009.0,24.0,-19.0,
2306.0,2143.0,24.0,-19.0,
2397.0,2327.0,24.0,-19.0,
2332.0,2395.0,24.0,-19.0,
2164.0,2223.0,24.0,-19.0,
1917.0,2018.0,24.0,-19.0,
1734.0,1935.0,24.0,-19.0,
1717.0,1654.0,24.0,-19.0,
1913.0,1867.0,24.0,-19.0,
2166.0,2419.0,24.0,-19.0,
2348.0,2329.0,24.0,-19.0,
2377.0,2333.0,23.0,-19.0,
2280.0,2179.0,23.0,-19.0,
2095.0,1807.0,23.0,-19.0,
1862.0,1625.0,23.0,-19.0,
1722.0,1582.0,23.0,-19.0,
1776.0,2061.0,23.0,-19.0,
1995.0,1929.0,23.0,-19.0,
2227.0,2299.0,23.0,-19.0,
2364.0,2355.0,24.0,-19.0,
2370.0,2098.0,24.0,-19.0,
2225.0,2140.0,24.0,-19.0,
2017.0,1750.0,24.0,-19.0,
1785.0,1777.0,24.0,-19.0,
1709.0,1608.0,24.0,-19.0,
1829.0,2117.0,24.0,-19.0,
2066.0,1994.0,24.0,-19.0,
2296.0,2139.0,24.0,-19.0,
2391.0,2362.0,24.0,-19.0,
2353.0,2248.0,24.0,-19.0,
2192.0,2061.0,25.0,-19.0,
1955.0,2051.0,25.0,-19.0,
1764.0,1597.0,25.0,-19.0,
1726.0,1808.0,25.0,-18.0,
1913.0,2180.0,25.0,-18.0,
2145.0,2222.0,25.0,-18.0,
2335.0,2514.0,25.0,-18.0,
2401.0,2317.0,25.0,-18.0,
2313.0,2031.0,25.0,-18.0,
2124.0,2196.0,0,
1888.0,1823.0,25.0,-18.0,
1725.0,1954.0,25.0,-18.0,
1751.0,1885.0,25.0,-18.0,
1960.0,2073.0,25.0,-18.0,
2207.0,2092.0,25.0,-18.0,
2360.0,2354.0,25.0,-18.0,
2367.0,2305.0,25.0,-19.0,
2247.0,2333.0,25.0,-19.0,
2057.0,1765.0,25.0,-19.0,
1823.0,1791.0,25.0,-18.0,
1721.0,1774.0,25.0,-19.0,
1806.0,1934.0,25.0,-19.0,
2038.0,1957.0,25.0,-19.0,
2269.0,2325.0,25.0,-19.0,
2389.0,2342.0,25.0,-19.0,
2361.0,2077.0,25.0,-19.0,
2197.0,2273.0,25.0,-19.0,
1964.0,1892.0,25.0,-19.0,
1768.0,1588.0,25.0,-19.0,
1718.0,1808.0,25.0,-19.0,
1871.0,1992.0,25.0,-19.0,
2108.0,2376.0,25.0,-19.0,
2324.0,2325.0,25.0,-19.0,
2397.0,2157.0,25.0,-19.0,
2319.0,2223.0,25.0,-19.0,
2138.0,2020.0,25.0,-19.0,
1890.0,2012.0,25.0,-19.0,
1731.0,1599.0,25.0,-19.0,
1742.0,2033.0,25.0,-19.0,
1946.0,2070.0,25.0,-19.0,
2185.0,2435.0,25.0,-19.0,
2351.0,2361.0,25.0,-19.0,
2388.0,2317.0,25.0,-19.0,
2269.0,1985.0,25.0,-19.0,
2081.0,2144.0,25.0,-19.0,
1838.0,1987.0,25.0,-19.0,
1711.0,1792.0,25.0,-19.0,
1804.0,1920.0,25.0,-19.0,
2015.0,1960.0,25.0,-19.0,
2255.0,2293.0,25.0,-19.0,
2384.0,2532.0,25.0,-19.0,
2371.0,2259.0,25.0,-19.0,
2224.0,2130.0,25.0,-19.0,
2007.0,1918.0,25.0,-19.0,
1785.0,1594.0,25.0,-19.0,
1716.0,1783.0,25.0,-19.0,
1844.0,1790.0,25.0,-19.0,
2080.0,2166.0,25.0,-19.0,
2312.0,2305.0,24.0,-18.0,
2392.0,2354.0,25.0,-18.0,
2357.0,2056.0,25.0,-19.0,
2182.0,2075.0,24.0,-19.0,
1933.0,1682.0,24.0,-19.0,
1754.0,1753.0,24.0,-19.0,
1729.0,1824.0,24.0,-19.0,
1915.0,2052.0,24.0,-19.0,
2155.0,2071.0,24.0,-19.0,
2338.0,2171.0,24.0,-19.0,
2403.0,2507.0,24.0,-19.0,
2288.0,2192.0,24.0,-19.0,
2097.0,2184.0,24.0,-19.0,
1862.0,1994.0,24.0,-19.0,
1724.0,1770.0,24.0,-19.0,
1799.0,1906.0,24.0,-19.0,
1988.0,1921.0,24.0,-19.0,
2245.0,2266.0,24.0,-19.0,
2376.0,2363.0,24.0,-19.0,
2367.0,2303.0,25.0,-19.0,
2249.0,2135.0,25.0,-19.0,
2038.0,1938.0,25.0,-19.0,
1806.0,1791.0,25.0,-19.0,
1722.0,1600.0,25.0,-19.0,
1838.0,1772.0,25.0,-19.0,
2065.0,1991.0,25.0,-19.0,
2290.0,2493.0,25.0,-19.0,
2392.0,2342.0,25.0,-19.0,
2351.0,2434.0,25.0,-19.0,
2193.0,2253.0,25.0,-19.0,
1955.0,1869.0,25.0,-19.0,
1769.0,1771.0,25.0,-19.0,
1721.0,1996.0,25.0,-19.0,
1894.0,2034.0,25.0,-19.0,
2139.0,2403.0,25.0,-19.0,
2327.0,2159.0,25.0,-19.0,
2391.0,2315.0,25.0,-19.0,
2306.0,2378.0,25.0,-19.0,
2138.0,1851.0,25.0,-19.0,
1870.0,1991.0,25.0,-19.0,
1734.0,1594.0,25.0,-19.0,
1744.0,1693.0,25.0,-19.0,
1965.0,2074.0,25.0,-19.0,
2200.0,2446.0,25.0,-19.0,
2376.0,2338.0,25.0,-19.0,
2388.0,2289.0,25.0,-19.0,
2274.0,2142.0,25.0,-19.0,
2050.0,1964.0,25.0,-19.0,
1823.0,1982.0,25.0,-19.0,
1711.0,1944.0,25.0,-19.0,
1805.0,1750.0,25.0,-19.0,
2028.0,2149.0,25.0,-19.0,
2259.0,2292.0,25.0,-19.0,
2376.0,2531.0,25.0,-19.0,
2354.0,2443.0,25.0,-19.0,
2200.0,2270.0,24.0,-19.0,
1988.0,1912.0,24.0,-19.0,
1777.0,1793.0,24.0,-19.0,
1716.0,1623.0,25.0,-19.0,
1866.0,2168.0,25.0,-19.0,
2103.0,2219.0,24.0,-19.0,
2318.0,2317.0,24.0,-19.0,
2391.0,2334.0,24.0,-19.0,
2327.0,2238.0,24.0,-19.0,
2152.0,2040.0,24.0,-19.0,
1905.0,1854.0,24.0,-19.0,
1737.0,1581.0,24.0,-19.0,
1742.0,1847.0,24.0,-19.0,
1939.0,2074.0,24.0,-19.0,
2171.0,2078.0,24.0,-19.0,
2367.0,2530.0,24.0,-19.0,
2393.0,2493.0,24.0,-19.0,
2270.0,2181.0,24.0,-19.0,
2072.0,2147.0,24.0,-19.0,
1839.0,1792.0,24.0,-19.0,
1710.0,1768.0,24.0,-19.0,
1789.0,2085.0,24.0,-19.0,
2018.0,2282.0,24.0,-19.0,
2241.0,2119.0,24.0,-19.0,
2369.0,2342.0,24.0,-19.0,
2361.0,2286.0,24.0,-19.0,
2228.0,2291.0,24.0,-19.0,
2013.0,1915.0,24.0,-19.0,
1789.0,1947.0,25.0,-19.0,
1718.0,1599.0,25.0,-19.0,
1831.0,2148.0,25.0,-19.0,
2083.0,2008.0,25.0,-19.0,
2293.0,2306.0,25.0,-19.0,
2387.0,2522.0,25.0,-19.0,
2323.0,2061.0,25.0,-19.0,
2195.0,1884.0,25.0,-19.0,
1932.0,1868.0,25.0,-19.0,
1756.0,1593.0,25.0,-18.0,
1718.0,1849.0,25.0,-18.0,
1920.0,2212.0,25.0,-18.0,
2157.0,2414.0,25.0,-18.0,
2339.0,2524.0,25.0,-18.0,
2383.0,2326.0,25.0,-18.0,
2297.0,2198.0,25.0,-18.0,
2098.0,1998.0,25.0,-18.0,
1863.0,1823.0,25.0,-18.0,
1721.0,1769.0,25.0,-18.0,
1765.0,2056.0,25.0,-18.0,
1975.0,2108.0,25.0,-19.0,
2218.0,2294.0,25.0,-19.0,
2377.0,2372.0,25.0,-19.0,
2385.0,2120.0,25.0,-19.0,
2238.0,2155.0,25.0,-19.0,
2032.0,1927.0,25.0,-19.0,
1814.0,1594.0,25.0,-19.0,
1712.0,1956.0,25.0,-19.0,
1818.0,1757.0,25.0,-19.0,
2044.0,1971.0,25.0,-19.0,
2267.0,2323.0,25.0,-19.0,
2398.0,2518.0,25.0,-19.0,
2360.0,2074.0,25.0,-19.0,
2205.0,1910.0,25.0,-19.0,
1984.0,1885.0,0,
1768.0,1785.0,25.0,-19.0,
1720.0,1804.0,25.0,-19.0,
1888.0,1999.0,25.0,-19.0,
2137.0,2205.0,25.0,-19.0,
2331.0,2151.0,25.0,-19.0,
2394.0,2152.0,25.0,-19.0,
2318.0,2018.0,25.0,-19.0,
2136.0,2180.0,25.0,-19.0,
1883.0,1838.0,25.0,-19.0,
1729.0,1582.0,25.0,-19.0,
1748.0,1853.0,25.0,-19.0,
1962.0,2080.0,25.0,-19.0,
2201.0,2095.0,25.0,-19.0,
2360.0,2185.0,25.0,-19.0,
2396.0,2118.0,25.0,-19.0,
2268.0,2322.0,25.0,-19.0,
2063.0,1970.0,25.0,-19.0,
1814.0,1807.0,25.0,-19.0,
1701.0,1760.0,25.0,-19.0,
1795.0,1735.0,25.0,-19.0,
2015.0,2113.0,26.0,-19.0,
2255.0,2110.0,26.0,-18.0,
2389.0,2152.0,26.0,-18.0,
2365.0,2271.0,27.0,-18.0,
2227.0,1929.0,27.0,-18.0,
1988.0,2064.0,28.0,-18.0,
1778.0,1591.0,28.0,-18.0,
1720.0,1960.0,29.0,-18.0,
1862.0,1791.0,29.0,-18.0,
2079.0,2369.0,29.0,-18.0,
2317.0,2500.0,30.0,-19.0,
2395.0,2163.0,30.0,-19.0,
2331.0,2040.0,30.0,-19.0,
2153.0,1868.0,31.0,-19.0,
1910.0,1829.0,31.0,-19.0,
1737.0,1755.0,31.0,-19.0,
1744.0,1825.0,30.0,-19.0,
1930.0,2039.0,30.0,-18.0,
2172.0,2242.0,30.0,-18.0,
2343.0,2343.0,29.0,-18.0,
2393.0,2325.0,29.0,-18.0,
2286.0,2156.0,29.0,-18.0,
2094.0,1962.0,28.0,-18.0,
1854.0,1981.0,28.0,-18.0,
1713.0,1931.0,27.0,-18.0,
1775.0,2062.0,27.0,-18.0,
2003.0,2118.0,26.0,-18.0,
2243.0,2111.0,26.0,-18.0,
2372.0,2344.0,25.0,-19.0,
2377.0,2295.0,24.0,-19.0,
2245.0,2142.0,24.0,-19.0,
2016.0,1942.0,23.0,-19.0,
1802.0,1948.0,23.0,-19.0,
1695.0,1766.0,22.0,-19.0,
1787.0,1946.0,22.0,-19.0,
2021.0,2125.0,21.0,-19.0,
2240.0,2123.0,21.0,-19.0,
2372.0,2355.0,21.0,-19.0,
2357.0,2107.0,21.0,-19.0,
2241.0,1947.0,21.0,-22.0,
2029.0,2100.0,21.0,-22.0,
1810.0,1801.0,20.0,-21.0,
1711.0,1948.0,20.0,-20.0,
1794.0,1924.0,20.0,-19.0,
2022.0,2135.0,21.0,-19.0,
2249.0,2113.0,20.0,-19.0,
2397.0,2353.0,20.0,-19.0,
2380.0,2101.0,20.0,-19.0,
2252.0,2123.0,20.0,-19.0,
2031.0,1941.0,20.0,-17.0,
1813.0,1797.0,20.0,-16.0,
1715.0,1600.0,20.0,-17.0,
1783.0,1740.0,20.0,-18.0,
2020.0,2119.0,20.0,-19.0,
2242.0,2306.0,19.0,-19.0,
2359.0,2358.0,19.0,-19.0,
2382.0,2296.0,19.0,-19.0,
2245.0,2310.0,19.0,-18.0,
2036.0,1945.0,19.0,-19.0,
1823.0,1601.0,19.0,-19.0,
1719.0,1943.0,19.0,-19.0,
1787.0,1736.0,19.0,-19.0,
2011.0,1950.0,19.0,-19.0,
2232.0,2281.0,19.0,-19.0,
2371.0,2168.0,19.0,-19.0,
2376.0,2109.0,19.0,-19.0,
2259.0,1963.0,18.0,-19.0,
2050.0,1937.0,18.0,-19.0,
1834.0,1619.0,18.0,-18.0,
1712.0,1587.0,18.0,-19.0,
1784.0,1714.0,18.0,-19.0,
2011.0,1935.0,18.0,-19.0,
2233.0,2455.0,18.0,-19.0,
2374.0,2331.0,18.0,-19.0,
2390.0,2100.0,18.0,-19.0,
2255.0,2160.0,18.0,-19.0,
2061.0,1959.0,18.0,-19.0,
1831.0,1790.0,18.0,-19.0,
1714.0,1781.0,18.0,-19.0,
1775.0,1925.0,18.0,-19.0,
1999.0,2285.0,18.0,-19.0,
2226.0,2270.0,18.0,-19.0,
2375.0,2359.0,18.0,-19.0,
2383.0,2305.0,18.0,-19.0,
2271.0,2328.0,18.0,-19.0,
2065.0,2129.0,18.0,-19.0,
1839.0,1975.0,18.0,-19.0,
1715.0,1582.0,18.0,-19.0,
1793.0,1885.0,19.0,-19.0,
2001.0,1924.0,19.0,-19.0,
2226.0,2261.0,19.0,-19.0,
2363.0,2166.0,19.0,-19.0,
2381.0,2292.0,19.0,-19.0,
2264.0,1979.0,19.0,-19.0,
2069.0,1795.0,20.0,-19.0,
1836.0,1972.0,20.0,-19.0,
1713.0,1943.0,20.0,-19.0,
1763.0,1897.0,20.0,-18.0,
1983.0,2086.0,20.0,-19.0,
2222.0,2444.0,21.0,-18.0,
2361.0,2352.0,21.0,-18.0,
2395.0,2133.0,21.0,-18.0,
2279.0,2338.0,21.0,-18.0,
2065.0,1981.0,21.0,-18.0,
1836.0,1799.0,21.0,-18.0,
1714.0,1584.0,22.0,-18.0,
1752.0,1885.0,22.0,-18.0,
1993.0,2270.0,22.0,-18.0,
2212.0,2279.0,22.0,-18.0,
2365.0,2176.0,22.0,-18.0,
2382.0,2293.0,22.0,-18.0,
2266.0,2138.0,22.0,-18.0,
2071.0,2141.0,22.0,-19.0,
1841.0,1624.0,22.0,-18.0,
1720.0,1585.0,22.0,-18.0,
1770.0,2059.0,22.0,-19.0,
1975.0,2077.0,22.0,-19.0,
2216.0,2444.0,22.0,-19.0,
2366.0,2175.0,22.0,-19.0,
2397.0,2475.0,22.0,-19.0,
2259.0,1988.0,22.0,-19.0,
2077.0,2158.0,22.0,-19.0,
1831.0,1621.0,22.0,-19.0,
1716.0,1745.0,22.0,-19.0,
1764.0,1709.0,22.0,-19.0,
1987.0,2093.0,22.0,-19.0,
2204.0,2441.0,22.0,-19.0,
2362.0,2338.0,22.0,-19.0,
2390.0,2128.0,22.0,-19.0,
2280.0,1989.0,22.0,-19.0,
2083.0,1784.0,21.0,-19.0,
1838.0,1804.0,21.0,-19.0,
1719.0,1935.0,21.0,-19.0,
1766.0,1896.0,21.0,-19.0,
2012.0,2266.0,21.0,-19.0,
2212.0,2101.0,21.0,-19.0,
2357.0,2336.0,21.0,-19.0,
2387.0,2317.0,21.0,-19.0,
2274.0,2150.0,21.0,-19.0,
2076.0,1976.0,21.0,-19.0,
1857.0,1804.0,21.0,-19.0,
1721.0,1765.0,21.0,-19.0,
1769.0,1873.0,21.0,-19.0,
1970.0,2102.0,21.0,-19.0,
2205.0,2098.0,21.0,-19.0,
2359.0,2178.0,22.0,-19.0,
2397.0,2481.0,22.0,-19.0,
2282.0,2161.0,22.0,-19.0,
2100.0,1808.0,22.0,-19.0,
1853.0,1975.0,22.0,-19.0,
1716.0,1596.0,22.0,-19.0,
1754.0,1690.0,22.0,-19.0,
1967.0,2086.0,22.0,-19.0,
2206.0,2445.0,22.0,-19.0,
2361.0,2515.0,22.0,-19.0,
2376.0,2131.0,22.0,-19.0,
2277.0,2342.0,22.0,-19.0,
2079.0,1986.0,22.0,-19.0,
1847.0,1985.0,22.0,-19.0,
1717.0,1764.0,22.0,-19.0,
1759.0,1870.0,22.0,-19.0,
1964.0,2096.0,22.0,-19.0,
2196.0,2434.0,22.0,-19.0,
2354.0,2348.0,22.0,-19.0,
2382.0,2296.0,22.0,-19.0,
2279.0,2183.0,22.0,-19.0,
2097.0,1820.0,22.0,-19.0,
1852.0,1629.0,22.0,-19.0,
1741.0,1778.0,22.0,-19.0,
1756.0,1682.0,22.0,-19.0,
1949.0,1905.0,22.0,-19.0,
2187.0,2088.0,22.0,-19.0,
2354.0,2340.0,22.0,-19.0,
2389.0,2487.0,22.0,-19.0,
2276.0,2345.0,21.0,-19.0,
2099.0,1975.0,21.0,-19.0,
1869.0,1626.0,21.0,-19.0,
1721.0,1781.0,21.0,-19.0,
1763.0,1883.0,21.0,-19.0,
1956.0,2268.0,21.0,-19.0,
2194.0,2249.0,21.0,-19.0,
2344.0,2354.0,21.0,-18.0,
2378.0,2135.0,21.0,-19.0,
2279.0,2158.0,21.0,-18.0,
2094.0,1989.0,21.0,-18.0,
1867.0,1644.0,21.0,-18.0,
1731.0,1770.0,21.0,-18.0,
1751.0,1868.0,21.0,-18.0,
1954.0,1903.0,21.0,-18.0,
2199.0,2437.0,21.0,-18.0,
2352.0,2164.0,21.0,-19.0,
2402.0,2489.0,21.0,-19.0,
2300.0,2008.0,21.0,-19.0,
2113.0,1997.0,21.0,-19.0,
1873.0,1634.0,21.0,-19.0,
1728.0,1779.0,21.0,-19.0,
1764.0,1683.0,20.0,-19.0,
1958.0,2064.0,20.0,-19.0,
2185.0,2266.0,20.0,-19.0,
2343.0,2167.0,20.0,-19.0,
2391.0,2499.0,20.0,-19.0,
2292.0,2197.0,20.0,-19.0,
2125.0,1813.0,20.0,-19.0,
1871.0,1808.0,20.0,-19.0,
1722.0,1581.0,20.0,-19.0,
1751.0,1698.0,20.0,-19.0,
1934.0,2055.0,20.0,-19.0,
2170.0,2438.0,20.0,-19.0,
2351.0,2173.0,20.0,-19.0,
2393.0,2135.0,20.0,-19.0,
2280.0,2184.0,20.0,-19.0,
2115.0,1812.0,20.0,-19.0,
1882.0,1637.0,20.0,-19.0,
1720.0,1773.0,20.0,-19.0,
1747.0,1866.0,20.0,-19.0,
1935.0,2070.0,20.0,-19.0,
2186.0,2072.0,20.0,-19.0,
2348.0,2329.0,19.0,-19.0,
2398.0,2493.0,19.0,-19.0,
2302.0,2369.0,19.0,-19.0,
2122.0,2017.0,19.0,-19.0,
1886.0,1825.0,18.0,-19.0,
1725.0,1763.0,18.0,-19.0,
1748.0,2015.0,18.0,-19.0,
1928.0,2216.0,17.0,-19.0,
2157.0,2249.0,17.0,-19.0,
2341.0,2316.0,17.0,-19.0,
2401.0,2321.0,17.0,-19.0,
2309.0,2017.0,17.0,-19.0,
2128.0,2025.0,17.0,-19.0,
1889.0,2008.0,16.0,-19.0,
1739.0,1779.0,16.0,-19.0,
1738.0,2031.0,16.0,-19.0,
1925.0,2052.0,17.0,-19.0,
2160.0,2251.0,17.0,-19.0,
2330.0,2160.0,17.0,-19.0,
2381.0,2498.0,17.0,-19.0,
2305.0,2219.0,17.0,-19.0,
2133.0,2030.0,17.0,-19.0,
1896.0,1850.0,18.0,-19.0,
1743.0,1763.0,18.0,-19.0,
1741.0,2019.0,18.0,-19.0,
1908.0,1864.0,19.0,-19.0,
2151.0,2050.0,19.0,-19.0,
2338.0,2333.0,20.0,-19.0,
2397.0,2151.0,20.0,-19.0,
2311.0,2202.0,21.0,-19.0,
2151.0,2047.0,21.0,-19.0,
1908.0,1664.0,22.0,-19.0,
1747.0,1941.0,22.0,-19.0,
1726.0,1837.0,23.0,-19.0,
1903.0,2213.0,23.0,-19.0,
2165.0,2260.0,24.0,-19.0,
2349.0,2337.0,24.0,-19.0,
2397.0,2506.0,25.0,-19.0,
2296.0,2350.0,25.0,-19.0,
2099.0,1824.0,26.0,-18.0,
1853.0,1803.0,26.0,-18.0,
1724.0,1768.0,26.0,-18.0,
1773.0,1720.0,27.0,-18.0,
1992.0,2110.0,27.0,-18.0,
2229.0,2277.0,27.0,-18.0,
2387.0,2520.0,28.0,-18.0,
2383.0,2282.0,28.0,-18.0,
2237.0,2313.0,28.0,-18.0,
2020.0,1941.0,28.0,-18.0,
1800.0,1783.0,28.0,-18.0,
1712.0,1787.0,29.0,-18.0,
1821.0,1962.0,29.0,-18.0,
2062.0,2147.0,29.0,-18.0,
2290.0,2503.0,30.0,-18.0,
2401.0,2336.0,30.0,-18.0,
2358.0,2227.0,30.0,-18.0,
2186.0,2091.0,30.0,-18.0,
1952.0,1884.0,31.0,-18.0,
1746.0,1780.0,31.0,-18.0,
1717.0,1983.0,31.0,-18.0,
1886.0,2019.0,31.0,-18.0,
2138.0,2211.0,31.0,-18.0,
2332.0,2323.0,31.0,-18.0,
2401.0,2468.0,31.0,-18.0,
2316.0,2199.0,31.0,-18.0,
2128.0,2020.0,31.0,-18.0,
1876.0,1638.0,31.0,-18.0,
1738.0,1773.0,31.0,-18.0,
1760.0,1860.0,31.0,-18.0,
1962.0,1892.0,31.0,-18.0,
2218.0,2444.0,31.0,-18.0,
2379.0,2167.0,31.0,-18.0,
2383.0,2136.0,31.0,-18.0,
2263.0,2154.0,31.0,-18.0,
2049.0,1951.0,31.0,-18.0,
1811.0,1962.0,31.0,-18.0,
1715.0,1790.0,31.0,-18.0,
1812.0,1746.0,30.0,-18.0,
2037.0,2146.0,30.0,-18.0,
2260.0,2124.0,30.0,-18.0,
2384.0,2357.0,30.0,-18.0,
2361.0,2080.0,30.0,-18.0,
2202.0,1931.0,30.0,-18.0,
1987.0,1896.0,30.0,-18.0,
1790.0,1790.0,30.0,-18.0,
1723.0,1626.0,29.0,-18.0,
1867.0,1814.0,29.0,-18.0,
2105.0,2194.0,29.0,-18.0,
2314.0,2167.0,29.0,-18.0,
2393.0,2342.0,29.0,-18.0,
2330.0,2205.0,29.0,-18.0,
2146.0,1859.0,29.0,-18.0,
1900.0,1830.0,29.0,-18.0,
1738.0,1780.0,29.0,-18.0,
1732.0,2018.0,29.0,-18.0,
1929.0,1888.0,28.0,-18.0,
2167.0,2431.0,28.0,-18.0,
2356.0,2169.0,28.0,-18.0,
2394.0,2158.0,28.0,-18.0,
2291.0,2364.0,28.0,-18.0,
2089.0,1970.0,28.0,-18.0,
1840.0,1824.0,28.0,-18.0,
1713.0,1782.0,28.0,-18.0,
1777.0,1728.0,28.0,-18.0,
1994.0,2110.0,28.0,-18.0,
2234.0,2306.0,28.0,-18.0,
2378.0,2347.0,28.0,-18.0,
2389.0,2479.0,28.0,-18.0,
2246.0,2313.0,28.0,-18.0,
2025.0,1915.0,28.0,-18.0,
1794.0,1610.0,28.0,-18.0,
1708.0,1804.0,28.0,-18.0,
1828.0,1958.0,28.0,-18.0,
2069.0,2345.0,28.0,-18.0,
2282.0,2314.0,27.0,-18.0,
2393.0,2523.0,27.0,-18.0,
2357.0,2257.0,27.0,-18.0,
2184.0,2071.0,27.0,-18.0,
1946.0,1870.0,27.0,-18.0,
1753.0,1775.0,27.0,-18.0,
1728.0,1816.0,27.0,-18.0,
1899.0,1837.0,27.0,-18.0,
2151.0,2232.0,27.0,-18.0,
2328.0,2352.0,27.0,-18.0,
2395.0,2336.0,27.0,-18.0,
2313.0,2192.0,27.0,-18.0,
2123.0,2016.0,27.0,-18.0,
1877.0,2007.0,27.0,-18.0,
1732.0,1590.0,27.0,-18.0,
1768.0,1880.0,27.0,-18.0,
1968.0,2069.0,27.0,-18.0,
2201.0,2289.0,27.0,-18.0,
2366.0,2346.0,27.0,-18.0,
2385.0,2486.0,27.0,-18.0,
2275.0,1976.0,27.0,-18.0,
2045.0,1953.0,27.0,-18.0,
1816.0,1619.0,27.0,-18.0,
1712.0,1611.0,27.0,-18.0,
1807.0,1947.0,27.0,-18.0,
2045.0,1977.0,27.0,-18.0,
2258.0,2311.0,27.0,-18.0,
2384.0,2340.0,27.0,-18.0,
2355.0,2280.0,27.0,-18.0,
2210.0,1924.0,27.0,-18.0,
1983.0,1892.0,27.0,-18.0,
1779.0,1788.0,27.0,-18.0,
1724.0,1810.0,27.0,-18.0,
1868.0,2165.0,27.0,-18.0,
2121.0,2040.0,27.0,-18.0,
2321.0,2346.0,27.0,-18.0,
2396.0,2159.0,27.0,-18.0,
2327.0,2384.0,27.0,-18.0,
2159.0,2036.0,27.0,-18.0,
1904.0,1656.0,27.0,-18.0,
1728.0,1747.0,27.0,-18.0,
1747.0,1838.0,27.0,-18.0,
1936.0,2063.0,27.0,-18.0,
2191.0,2080.0,27.0,-18.0,
2365.0,2178.0,27.0,-18.0,
2390.0,2135.0,27.0,-18.0,
2272.0,2167.0,27.0,-18.0,
2077.0,2142.0,27.0,-18.0,
1836.0,1980.0,27.0,-18.0,
1711.0,1761.0,27.0,-18.0,
1783.0,1730.0,27.0,-18.0,
2016.0,1940.0,27.0,-18.0,
2249.0,2466.0,27.0,-18.0,
2382.0,2525.0,27.0,-18.0,
2363.0,2279.0,27.0,-18.0,
2246.0,2120.0,27.0,-18.0,
2012.0,1899.0,27.0,-18.0,
1783.0,1760.0,27.0,-18.0,
1713.0,1784.0,27.0,-18.0,
1846.0,1781.0,27.0,-18.0,
2089.0,2199.0,27.0,-18.0,
2300.0,2314.0,27.0,-18.0,
2372.0,2363.0,27.0,-18.0,
2337.0,2399.0,27.0,-18.0,
2172.0,2067.0,27.0,-18.0,
1934.0,1872.0,27.0,-18.0,
1741.0,1759.0,27.0,-18.0,
1733.0,1820.0,27.0,-18.0,
1908.0,2045.0,27.0,-18.0,
2157.0,2224.0,27.0,-18.0,
2342.0,2513.0,27.0,-18.0,
2395.0,2319.0,27.0,-18.0,
2308.0,2184.0,27.0,-18.0,
2114.0,2193.0,27.0,-18.0,
1868.0,1810.0,27.0,-18.0,
1715.0,1769.0,27.0,-18.0,
1764.0,1701.0,27.0,-18.0,
1969.0,2268.0,27.0,-18.0,
2219.0,2304.0,27.0,-18.0,
2380.0,2187.0,27.0,-18.0,
2384.0,2299.0,27.0,-18.0,
2261.0,1952.0,0,
2045.0,1754.0,27.0,-18.0,
1811.0,1807.0,27.0,-18.0,
1715.0,1759.0,27.0,-18.0,
1801.0,1917.0,27.0,-18.0,
2050.0,2326.0,27.0,-18.0,
2274.0,2136.0,27.0,-18.0,
2385.0,2331.0,27.0,-18.0,
2360.0,2261.0,27.0,-18.0,
2213.0,2261.0,27.0,-18.0,
1977.0,1703.0,27.0,-18.0,
1762.0,1773.0,27.0,-18.0,
1723.0,1630.0,27.0,-18.0,
1869.0,1996.0,27.0,-18.0,
2112.0,2199.0,27.0,-18.0,
2315.0,2325.0,27.0,-18.0,
2388.0,2152.0,27.0,-18.0,
2336.0,2213.0,27.0,-18.0,
2151.0,2062.0,27.0,-18.0,
1898.0,1848.0,27.0,-18.0,
1751.0,1589.0,27.0,-18.0,
1764.0,1875.0,27.0,-18.0,
1941.0,1885.0,27.0,-18.0,
2173.0,2065.0,27.0,-18.0,
2350.0,2518.0,27.0,-18.0,
2390.0,2299.0,27.0,-18.0,
2271.0,2158.0,27.0,-18.0,
2096.0,2164.0,27.0,-18.0,
1851.0,1830.0,27.0,-18.0,
1730.0,1946.0,27.0,-18.0,
1793.0,1736.0,27.0,-18.0,
2000.0,2122.0,27.0,-18.0,
2242.0,2299.0,27.0,-18.0,
2392.0,2538.0,27.0,-18.0,
2363.0,2257.0,27.0,-18.0,
2232.0,2104.0,27.0,-18.0,
2014.0,1906.0,27.0,-18.0,
1796.0,1785.0,27.0,-18.0,
1708.0,1614.0,27.0,-18.0,
1824.0,1791.0,0,
2065.0,2331.0,27.0,-18.0,
2286.0,2313.0,27.0,-18.0,
2382.0,2510.0,27.0,-18.0,
2344.0,2408.0,27.0,-18.0,
2187.0,1883.0,27.0,-18.0,
1950.0,1878.0,27.0,-18.0,
1762.0,1776.0,27.0,-18.0,
1738.0,1840.0,27.0,-18.0,
1910.0,2205.0,27.0,-19.0,
2148.0,2386.0,27.0,-18.0,
2328.0,2347.0,27.0,-18.0,
2390.0,2146.0,27.0,-18.0,
2298.0,2000.0,27.0,-18.0,
2113.0,2004.0,27.0,-18.0,
1863.0,1638.0,27.0,-18.0,
1729.0,1603.0,27.0,-18.0,
1772.0,2067.0,27.0,-18.0,
1989.0,2279.0,27.0,-18.0,
2209.0,2446.0,27.0,-18.0,
2364.0,2153.0,27.0,-18.0,
2376.0,2305.0,27.0,-18.0,
2244.0,2120.0,27.0,-18.0,
2033.0,1757.0,27.0,-18.0,
1804.0,1799.0,27.0,-18.0,
1715.0,1606.0,27.0,-18.0,
1825.0,1947.0,27.0,-18.0,
2041.0,1974.0,27.0,-18.0,
2277.0,2305.0,27.0,-18.0,
2388.0,2348.0,27.0,-18.0,
2361.0,2258.0,27.0,-18.0,
2189.0,1903.0,27.0,-18.0,
1971.0,2051.0,27.0,-18.0,
1783.0,1956.0,27.0,-18.0,
1724.0,1630.0,27.0,-18.0,
1883.0,2008.0,27.0,-18.0,
2120.0,2376.0,27.0,-18.0,
2327.0,2151.0,27.0,-18.0,
2407.0,2147.0,27.0,-18.0,
2317.0,2194.0,27.0,-18.0,
2138.0,2034.0,27.0,-18.0,
1895.0,1814.0,27.0,-18.0,
1749.0,1781.0,27.0,-18.0,
1761.0,1867.0,27.0,-18.0,
1956.0,1881.0,27.0,-18.0,
2191.0,2267.0,27.0,-18.0,
2351.0,2348.0,27.0,-18.0,
2394.0,2319.0,27.0,-18.0,
2279.0,1985.0,27.0,-18.0,
2059.0,1956.0,27.0,-18.0,
1842.0,1627.0,27.0,-18.0,
1710.0,1601.0,27.0,-18.0,
1801.0,1926.0,27.0,-18.0,
2028.0,2138.0,27.0,-18.0,
2254.0,2308.0,27.0,-18.0,
2378.0,2165.0,27.0,-18.0,
2358.0,2258.0,27.0,-18.0,
2215.0,2087.0,27.0,-18.0,
1992.0,1901.0,27.0,-18.0,
1779.0,1789.0,27.0,-18.0,
1716.0,1788.0,27.0,-18.0,
1847.0,1996.0,27.0,-18.0,
2117.0,2021.0,27.0,-18.0,
2314.0,2152.0,27.0,-18.0,
2391.0,2324.0,27.0,-18.0,
2338.0,2391.0,27.0,-18.0,
2180.0,2064.0,27.0,-18.0,
1918.0,1861.0,27.0,-18.0,
1752.0,1766.0,27.0,-18.0,
1754.0,1829.0,27.0,-18.0,
1968.0,2221.0,27.0,-18.0,
2160.0,2243.0,27.0,-18.0,
2329.0,2151.0,27.0,-18.0,
2394.0,2492.0,27.0,-18.0,
2289.0,2183.0,27.0,-18.0,
2096.0,1802.0,27.0,-18.0,
1867.0,1636.0,27.0,-18.0,
1724.0,1782.0,27.0,-18.0,
1781.0,1724.0,27.0,-18.0,
1986.0,2112.0,27.0,-18.0,
2231.0,2454.0,27.0,-18.0,
2372.0,2335.0,27.0,-18.0,
2383.0,2099.0,28.0,-18.0,
2247.0,2132.0,28.0,-18.0,
2010.0,1919.0,28.0,-18.0,
1803.0,1600.0,28.0,-18.0,
1718.0,1796.0,28.0,-18.0,
1842.0,1772.0,28.0,-18.0,
2068.0,2336.0,28.0,-18.0,
2305.0,2322.0,28.0,-18.0,
2399.0,2361.0,28.0,-18.0,
2351.0,2064.0,28.0,-18.0,
2201.0,2066.0,28.0,-18.0,
1974.0,2056.0,28.0,-18.0,
1780.0,1780.0,28.0,-18.0,
1740.0,1826.0,28.0,-18.0,
1896.0,2012.0,28.0,-18.0,
2151.0,2386.0,28.0,-18.0,
2322.0,2337.0,28.0,-18.0,
2405.0,2339.0,28.0,-18.0,
2313.0,2016.0,28.0,-18.0,
2144.0,2030.0,28.0,-18.0,
1890.0,2009.0,28.0,-18.0,
1725.0,1602.0,28.0,-18.0,
1771.0,2052.0,27.0,-18.0,
1969.0,1904.0,27.0,-18.0,
2203.0,2256.0,27.0,-18.0,
2355.0,2153.0,27.0,-18.0,
2374.0,2275.0,27.0,-18.0,
2261.0,2146.0,27.0,-18.0,
2059.0,1938.0,27.0,-18.0,
1835.0,1979.0,27.0,-18.0,
1710.0,1774.0,27.0,-18.0,
1810.0,1935.0,27.0,-18.0,
2035.0,2311.0,27.0,-18.0,
2251.0,2126.0,27.0,-18.0,
2397.0,2161.0,27.0,-18.0,
2352.0,2280.0,27.0,-18.0,
2205.0,2275.0,27.0,-18.0,
1983.0,2075.0,27.0,-18.0,
1779.0,1772.0,27.0,-18.0,
1724.0,1974.0,27.0,-18.0,
1874.0,1991.0,27.0,-18.0,
2106.0,2369.0,27.0,-18.0,
2311.0,2337.0,27.0,-18.0,
2389.0,2339.0,27.0,-18.0,
2326.0,2023.0,27.0,-18.0,
2147.0,1863.0,27.0,-18.0,
1909.0,1839.0,27.0,-18.0,
1732.0,1946.0,27.0,-18.0,
1734.0,1871.0,27.0,-18.0,
1930.0,2052.0,27.0,-18.0,
2178.0,2423.0,27.0,-18.0,
2347.0,2158.0,27.0,-18.0,
2389.0,2290.0,27.0,-18.0,
2272.0,2344.0,27.0,-18.0,
2085.0,1799.0,27.0,-18.0,
1843.0,1634.0,27.0,-18.0,
1714.0,1949.0,27.0,-18.0,
1793.0,1895.0,27.0,-18.0,
2009.0,2103.0,27.0,-18.0,
2227.0,2458.0,27.0,-18.0,
2373.0,2338.0,27.0,-18.0,
2365.0,2099.0,27.0,-18.0,
2236.0,2289.0,27.0,-18.0,
2010.0,1737.0,27.0,-18.0,
1787.0,1954.0,27.0,-18.0,
1726.0,1959.0,27.0,-18.0,
1852.0,1962.0,27.0,-18.0,
2093.0,2358.0,27.0,-18.0,
2291.0,2138.0,27.0,-18.0,
2389.0,2158.0,27.0,-18.0,
2334.0,2233.0,27.0,-18.0,
2175.0,2240.0,27.0,-18.0,
1925.0,1859.0,27.0,-18.0,
1757.0,1782.0,27.0,-18.0,
1733.0,2021.0,27.0,-18.0,
1911.0,2200.0,27.0,-18.0,
2161.0,2039.0,27.0,-18.0,
2345.0,2155.0,27.0,-18.0,
2403.0,2334.0,0,
2294.0,2188.0,27.0,-18.0,
2100.0,2005.0,27.0,-18.0,
1866.0,1824.0,27.0,-18.0,
1714.0,1765.0,27.0,-18.0,
1765.0,1721.0,27.0,-18.0,
1991.0,2266.0,27.0,-18.0,
2230.0,2105.0,27.0,-18.0,
2367.0,2517.0,27.0,-18.0,
2383.0,2277.0,27.0,-18.0,
2244.0,2316.0,27.0,-18.0,
2036.0,1935.0,27.0,-18.0,
1809.0,1979.0,27.0,-18.0,
1726.0,1961.0,27.0,-18.0,
1824.0,1947.0,27.0,-18.0,
2060.0,1985.0,27.0,-18.0,
2291.0,2483.0,27.0,-18.0,
2399.0,2351.0,27.0,-18.0,
2340.0,2416.0,27.0,-18.0,
2187.0,2254.0,27.0,-18.0,
1953.0,1879.0,27.0,-18.0,
1759.0,1771.0,27.0,-18.0,
1725.0,1995.0,27.0,-18.0,
1889.0,2185.0,27.0,-18.0,
2126.0,2206.0,28.0,-18.0,
2333.0,2314.0,28.0,-18.0,
2388.0,2494.0,28.0,-18.0,
2309.0,2208.0,28.0,-18.0,
2121.0,2032.0,27.0,-18.0,
1880.0,1840.0,27.0,-18.0,
1741.0,1789.0,27.0,-18.0,
1761.0,2034.0,27.0,-18.0,
1956.0,2090.0,27.0,-18.0,
2189.0,2262.0,27.0,-18.0,
2362.0,2525.0,27.0,-18.0,
2392.0,2307.0,27.0,-18.0,
2276.0,2155.0,27.0,-18.0,
2070.0,1788.0,27.0,-18.0,
1829.0,1623.0,27.0,-18.0,
1718.0,1605.0,27.0,-18.0,
1802.0,1935.0,27.0,-18.0,
2026.0,1957.0,27.0,-18.0,
2264.0,2306.0,27.0,-18.0,
2381.0,2357.0,27.0,-18.0,
2356.0,2438.0,27.0,-18.0,
2208.0,1927.0,27.0,-18.0,
1982.0,1931.0,27.0,-18.0,
1787.0,1599.0,27.0,-18.0,
1725.0,1895.0,27.0,-18.0,
1852.0,2179.0,27.0,-18.0,
2098.0,2182.0,27.0,-18.0,
2292.0,2313.0,27.0,-18.0,
2386.0,2515.0,27.0,-18.0,
2320.0,2230.0,27.0,-18.0,
2148.0,2048.0,27.0,-18.0,
1909.0,1855.0,27.0,-18.0,
1741.0,1588.0,27.0,-18.0,
1748.0,1837.0,27.0,-18.0,
1929.0,2044.0,27.0,-18.0,
2169.0,2242.0,27.0,-18.0,
2355.0,2360.0,27.0,-18.0,
2395.0,2314.0,27.0,-18.0,
2280.0,2175.0,27.0,-18.0,
2096.0,1995.0,27.0,-18.0,
1850.0,1831.0,27.0,-18.0,
1719.0,1594.0,27.0,-18.0,
1787.0,1720.0,27.0,-18.0,
2007.0,1932.0,27.0,-18.0,
2232.0,2098.0,27.0,-18.0,
2375.0,2359.0,27.0,-18.0,
2374.0,2094.0,27.0,-18.0,
2239.0,2110.0,27.0,-18.0,
2018.0,1754.0,27.0,-18.0,
1809.0,1778.0,27.0,-18.0,
1720.0,1967.0,28.0,-18.0,
1845.0,1971.0,28.0,-18.0,
2064.0,2341.0,28.0,-18.0,
2284.0,2308.0,28.0,-18.0,
2384.0,2139.0,28.0,-18.0,
2352.0,2218.0,28.0,-18.0,
2180.0,1872.0,28.0,-18.0,
1940.0,1677.0,28.0,-18.0,
1765.0,1943.0,28.0,-18.0,
1735.0,1817.0,28.0,-18.0,
1903.0,1838.0,28.0,-18.0,
2160.0,2227.0,28.0,-18.0,
2328.0,2314.0,28.0,-18.0,
2391.0,2501.0,28.0,-18.0,
2302.0,2177.0,28.0,-18.0,
2120.0,2001.0,27.0,-18.0,
1868.0,1994.0,27.0,-18.0,
1723.0,1768.0,27.0,-18.0,
1758.0,1700.0,27.0,-18.0,
1984.0,2090.0,27.0,-18.0,
2203.0,2271.0,27.0,-18.0,
2367.0,2515.0,27.0,-18.0,
2376.0,2464.0,27.0,-18.0,
2255.0,2152.0,27.0,-18.0,
2027.0,1758.0,27.0,-18.0,
1816.0,1981.0,27.0,-18.0,
1731.0,1603.0,27.0,-18.0,
1827.0,1771.0,27.0,-18.0,
2055.0,1961.0,27.0,-18.0,
2262.0,2475.0,27.0,-18.0,
2380.0,2359.0,27.0,-18.0,
2354.0,2419.0,27.0,-18.0,
2196.0,2266.0,27.0,-18.0,
1968.0,1877.0,27.0,-18.0,
1767.0,1954.0,27.0,-18.0,
1722.0,1819.0,27.0,-18.0,
1868.0,2009.0,27.0,-18.0,
2113.0,2218.0,27.0,-18.0,
2314.0,2337.0,27.0,-18.0,
2378.0,2515.0,27.0,-18.0,
2312.0,2028.0,27.0,-18.0,
2156.0,2208.0,27.0,-18.0,
1907.0,1666.0,27.0,-18.0,
1730.0,1597.0,27.0,-18.0,
1746.0,1882.0,27.0,-18.0,
1937.0,1877.0,27.0,-18.0,
2198.0,2245.0,27.0,-18.0,
2346.0,2343.0,27.0,-18.0,
2382.0,2315.0,27.0,-18.0,
2282.0,1972.0,27.0,-18.0,
2078.0,1964.0,28.0,-18.0,
1857.0,1990.0,28.0,-18.0,
1735.0,1591.0,28.0,-18.0,
1795.0,1906.0,28.0,-18.0,
2025.0,2290.0,28.0,-18.0,
2257.0,2123.0,29.0,-18.0,
2371.0,2166.0,29.0,-18.0,
2378.0,2275.0,29.0,-18.0,
2232.0,2111.0,29.0,-18.0,
1999.0,1907.0,29.0,-18.0,
1781.0,1794.0,29.0,-18.0,
1716.0,1967.0,30.0,-18.0,
1849.0,2134.0,30.0,-18.0,
2081.0,2344.0,30.0,-18.0,
2302.0,2496.0,30.0,-18.0,
2395.0,2349.0,30.0,-18.0,
2339.0,2051.0,30.0,-18.0,
2170.0,2045.0,30.0,-18.0,
1938.0,1692.0,30.0,-18.0,
1752.0,1782.0,30.0,-18.0,
1738.0,1669.0,30.0,-18.0,
1912.0,2044.0,30.0,-18.0,
2149.0,2042.0,30.0,-18.0,
2333.0,2327.0,29.0,-18.0,
2381.0,2138.0,29.0,-18.0,
2296.0,1996.0,29.0,-18.0,
2110.0,2003.0,29.0,-18.0,
1860.0,1990.0,29.0,-18.0,
1713.0,1595.0,28.0,-18.0,
1769.0,2063.0,28.0,-18.0,
1991.0,2262.0,28.0,-18.0,
2231.0,2104.0,28.0,-18.0,
2380.0,2534.0,27.0,-18.0,
2375.0,2464.0,27.0,-18.0,
2244.0,1945.0,27.0,-18.0,
2032.0,1947.0,27.0,-18.0,
1802.0,1626.0,26.0,-18.0,
1717.0,1616.0,26.0,-18.0,
1829.0,2120.0,26.0,-18.0,
2059.0,2164.0,26.0,-18.0,
2283.0,2484.0,26.0,-18.0,
2395.0,2522.0,26.0,-18.0,
2360.0,2420.0,26.0,-18.0,
2203.0,2089.0,26.0,-18.0,
1971.0,1901.0,26.0,-18.0,
1765.0,1591.0,26.0,-18.0,
1737.0,1992.0,26.0,-18.0,
1875.0,2186.0,26.0,-18.0,
2123.0,2191.0,26.0,-18.0,
2315.0,2499.0,27.0,-18.0,
2381.0,2506.0,27.0,-18.0,
2304.0,2015.0,27.0,-18.0,
2134.0,1851.0,27.0,-18.0,
1889.0,1653.0,27.0,-18.0,
1733.0,1594.0,27.0,-18.0,
1756.0,1881.0,28.0,-18.0,
1949.0,1893.0,28.0,-18.0,
2185.0,2424.0,28.0,-18.0,
2349.0,2506.0,28.0,-18.0,
2382.0,2289.0,29.0,-18.0,
2263.0,2163.0,29.0,-18.0,
2061.0,1953.0,29.0,-18.0,
1839.0,1814.0,29.0,-18.0,
1722.0,1780.0,29.0,-18.0,
1807.0,1925.0,29.0,-18.0,
2025.0,2148.0,29.0,-18.0,
2257.0,2419.0,29.0,-18.0,
2369.0,2366.0,29.0,-18.0,
2364.0,2440.0,28.0,-19.0,
2224.0,1929.0,28.0,-19.0,
2003.0,2085.0,28.0,-19.0,
1791.0,1964.0,27.0,-19.0,
1719.0,1791.0,27.0,-19.0,
1862.0,1953.0,26.0,-19.0,
2097.0,2161.0,26.0,-19.0,
2309.0,2144.0,25.0,-19.0,
2386.0,2335.0,25.0,-19.0,
2335.0,2045.0,24.0,-19.0,
2168.0,2056.0,24.0,-19.0,
1916.0,1855.0,23.0,-19.0,
1763.0,1782.0,23.0,-19.0,
1726.0,1828.0,22.0,-20.0,
1883.0,2010.0,22.0,-19.0,
2133.0,2207.0,22.0,-19.0,
2318.0,2505.0,21.0,-20.0,
2399.0,2510.0,21.0,-20.0,
2326.0,2199.0,20.0,-20.0,
2160.0,2235.0,20.0,-20.0,
1937.0,1684.0,19.0,-20.0,
1752.0,1785.0,19.0,-20.0,
1736.0,1830.0,19.0,-20.0,
1887.0,1986.0,19.0,-20.0,
2119.0,2024.0,18.0,-20.0,
2314.0,2334.0,18.0,-20.0,
2389.0,2336.0,18.0,-20.0,
2326.0,2215.0,18.0,-19.0,
2170.0,1889.0,18.0,-19.0,
1949.0,1708.0,18.0,-19.0,
1772.0,1774.0,18.0,-19.0,
1733.0,1651.0,19.0,-19.0,
1897.0,2182.0,19.0,-19.0,
2118.0,2019.0,19.0,-19.0,
2307.0,2510.0,20.0,-19.0,
2390.0,2352.0,20.0,-19.0,
2336.0,2407.0,20.0,-19.0,
2179.0,1897.0,21.0,-19.0,
1944.0,1862.0,21.0,-19.0,
1767.0,1588.0,22.0,-19.0,
1718.0,1641.0,22.0,-19.0,
1875.0,1831.0,23.0,-19.0,
2117.0,2209.0,23.0,-19.0,
2317.0,2501.0,24.0,-18.0,
2395.0,2348.0,24.0,-18.0,
2328.0,2387.0,25.0,-18.0,
2141.0,2023.0,26.0,-18.0,
1904.0,1865.0,26.0,-18.0,
1739.0,1772.0,27.0,-18.0,
1749.0,1842.0,27.0,-18.0,
1941.0,2063.0,27.0,-18.0,
2183.0,2415.0,28.0,-18.0,
2349.0,2342.0,28.0,-18.0,
2386.0,2300.0,28.0,-18.0,
2277.0,1995.0,28.0,-18.0,
2083.0,1806.0,28.0,-18.0,
1846.0,1989.0,28.0,-18.0,
1715.0,1953.0,28.0,-18.0,
1790.0,2079.0,28.0,-18.0,
2001.0,2289.0,28.0,-18.0,
2240.0,2107.0,28.0,-18.0,
2376.0,2516.0,28.0,-18.0,
2368.0,2100.0,28.0,-18.0,
2241.0,2120.0,28.0,-18.0,
2021.0,1923.0,28.0,-18.0,
1817.0,1967.0,28.0,-18.0,
1727.0,1964.0,27.0,-18.0,
1834.0,1941.0,27.0,-18.0,
2078.0,1985.0,26.0,-18.0,
2288.0,2292.0,26.0,-18.0,
2383.0,2341.0,26.0,-18.0,
2345.0,2221.0,26.0,-18.0,
2196.0,2082.0,25.0,-18.0,
1964.0,1704.0,25.0,-18.0,
1767.0,1957.0,25.0,-18.0,
1734.0,1640.0,25.0,-18.0,
1893.0,2021.0,25.0,-18.0,
2127.0,2041.0,25.0,-18.0,
2322.0,2464.0,25.0,-18.0,
2395.0,2333.0,24.0,-18.0,
2308.0,2200.0,24.0,-18.0,
2137.0,2006.0,23.0,-18.0,
1896.0,1836.0,23.0,-18.0,
1743.0,1761.0,22.0,-18.0,
1733.0,1868.0,21.0,-18.0,
1913.0,2218.0,20.0,-18.0,
2158.0,2058.0,19.0,-18.0,
2341.0,2503.0,18.0,-18.0,
2392.0,2312.0,17.0,-18.0,
2308.0,2211.0,16.0,-18.0,
2136.0,2046.0,15.0,-18.0,
1914.0,2009.0,14.0,-18.0,
1749.0,1947.0,13.0,-18.0,
1739.0,2027.0,13.0,-18.0,
1911.0,1853.0,12.0,-18.0,
2142.0,2227.0,12.0,-18.0,
2326.0,2145.0,11.0,-18.0,
2407.0,2137.0,10.0,-18.0,
2316.0,2221.0,10.0,-17.0,
2168.0,2208.0,10.0,-17.0,
1922.0,1854.0,10.0,-17.0,
1761.0,1779.0,9.0,-16.0,
1727.0,2003.0,9.0,-16.0,
1904.0,2010.0,9.0,-16.0,
2141.0,2388.0,9.0,-16.0,
2320.0,2148.0,9.0,-15.0,
2390.0,2152.0,9.0,-15.0,
2311.0,2037.0,9.0,-16.0,
2159.0,1871.0,8.0,-16.0,
1932.0,1675.0,8.0,-16.0,
1749.0,1610.0,8.0,-16.0,
1728.0,2009.0,7.0,-16.0,
1898.0,2031.0,7.0,-16.0,
2129.0,2228.0,7.0,-16.0,
2318.0,2322.0,6.0,-16.0,
2401.0,2325.0,6.0,-17.0,
2335.0,2039.0,6.0,-17.0,
2171.0,2229.0,6.0,-17.0,
1933.0,1868.0,6.0,-17.0,
1742.0,1777.0,6.0,-17.0,
1720.0,1991.0,5.0,-17.0,
1896.0,2000.0,5.0,-17.0,
2122.0,2204.0,5.0,-17.0,
2323.0,2326.0,5.0,-17.0,
2396.0,2465.0,5.0,-17.0,
2343.0,2049.0,4.0,-17.0,
2181.0,1875.0,4.0,-17.0,
1937.0,1865.0,4.0,-17.0,
1752.0,1581.0,3.0,-17.0,
1724.0,1633.0,3.0,-17.0,
1886.0,2172.0,2.0,-17.0,
2113.0,2016.0,2.0,-17.0,
2323.0,2142.0,2.0,-17.0,
2408.0,2343.0,1.0,-17.0,
2344.0,2410.0,1.0,-17.0,
2194.0,2233.0,1.0,-17.0,
1952.0,2038.0,1.0,-18.0,
1755.0,1587.0,0.0,-18.0,
1705.0,1986.0,0.0,-18.0,
1847.0,2158.0,0.0,-18.0,
2099.0,2366.0,0.0,-18.0,
2295.0,2136.0,0.0,-18.0,
2404.0,2324.0,0.0,-18.0,
2349.0,2409.0,0.0,-18.0,
2200.0,2065.0,0.0,-18.0,
1957.0,1891.0,0.0,-18.0,
1763.0,1937.0,0.0,-17.0,
1696.0,1975.0,0.0,-17.0,
1864.0,2150.0,2.0,-17.0,
2089.0,2189.0,2.0,-17.0,
2305.0,2329.0,3.0,-16.0,
2408.0,2168.0,4.0,-16.0,
2361.0,2076.0,4.0,-16.0,
2210.0,1917.0,5.0,-16.0,
1954.0,1887.0,7.0,-16.0,
1749.0,1755.0,8.0,-15.0,
1701.0,1784.0,8.0,-15.0,
1841.0,1991.0,9.0,-15.0,
2085.0,2003.0,10.0,-15.0,
2306.0,2331.0,11.0,-15.0,
2403.0,2532.0,12.0,-15.0,
2368.0,2275.0,12.0,-15.0,
2234.0,2086.0,13.0,-16.0,
1982.0,1714.0,13.0,-16.0,
1766.0,1756.0,13.0,-16.0,
1694.0,1956.0,14.0,-16.0,
1835.0,1956.0,14.0,-17.0,
2079.0,2344.0,14.0,-17.0,
2290.0,2140.0,14.0,-17.0,
2405.0,2518.0,14.0,-17.0,
2366.0,2424.0,13.0,-17.0,
2230.0,1930.0,14.0,-18.0,
1974.0,1894.0,14.0,-17.0,
1772.0,1762.0,14.0,-18.0,
1696.0,1764.0,13.0,-18.0,
1824.0,1769.0,13.0,-18.0,
2054.0,2339.0,13.0,-18.0,
2288.0,2129.0,12.0,-18.0,
2414.0,2530.0,12.0,-18.0,
2369.0,2251.0,12.0,-19.0,
2229.0,2104.0,12.0,-18.0,
1990.0,1880.0,11.0,-19.0,
1785.0,1590.0,11.0,-19.0,
1704.0,1943.0,11.0,-19.0,
1819.0,2105.0,11.0,-19.0,
2057.0,1980.0,11.0,-19.0,
2273.0,2115.0,11.0,-19.0,
2389.0,2352.0,11.0,-19.0,
2361.0,2083.0,11.0,-19.0,
2224.0,2286.0,10.0,-19.0,
1981.0,2083.0,10.0,-19.0,
1769.0,1940.0,11.0,-19.0,
1680.0,1931.0,11.0,-18.0,
1791.0,1932.0,12.0,-18.0,
2032.0,2157.0,12.0,-18.0,
2264.0,2294.0,13.0,-18.0,
2401.0,2365.0,14.0,-18.0,
2395.0,2271.0,14.0,-19.0,
2266.0,2119.0,15.0,-19.0,
2014.0,1930.0,16.0,-19.0,
1775.0,1787.0,17.0,-18.0,
1686.0,1579.0,17.0,-17.0,
1788.0,2084.0,18.0,-17.0,
2032.0,2150.0,18.0,-17.0,
2268.0,2471.0,18.0,-17.0,
2399.0,2550.0,18.0,-17.0,
2388.0,2297.0,19.0,-17.0,
2249.0,2321.0,19.0,-16.0,
2033.0,2116.0,19.0,-16.0,
1793.0,1777.0,19.0,-17.0,
1681.0,1569.0,18.0,-17.0,
1793.0,2081.0,18.0,-18.0,
2020.0,2290.0,18.0,-18.0,
2259.0,2452.0,18.0,-18.0,
2401.0,2530.0,18.0,-17.0,
2399.0,2289.0,17.0,-17.0,
2270.0,1975.0,17.0,-18.0,
2023.0,1764.0,17.0,-18.0,
1783.0,1784.0,17.0,-17.0,
1669.0,1557.0,17.0,-17.0,
1767.0,1710.0,17.0,-18.0,
1996.0,2115.0,16.0,-18.0,
2245.0,2465.0,17.0,-18.0,
2400.0,2200.0,16.0,-18.0,
2409.0,2324.0,16.0,-18.0,
2280.0,2341.0,16.0,-18.0,
2052.0,1953.0,16.0,-18.0,
1804.0,1786.0,16.0,-18.0,
1687.0,1569.0,16.0,-18.0,
1768.0,1887.0,16.0,-18.0,
2012.0,1922.0,16.0,-17.0,
2248.0,2112.0,16.0,-17.0,
2393.0,2203.0,16.0,-17.0,
2417.0,2142.0,16.0,-17.0,
2289.0,2187.0,16.0,-17.0,
2070.0,1972.0,16.0,-17.0,
1826.0,1811.0,16.0,-17.0,
1698.0,1921.0,17.0,-17.0,
1769.0,1869.0,17.0,-17.0,
2003.0,2278.0,17.0,-17.0,
2259.0,2271.0,17.0,-17.0,
2405.0,2558.0,17.0,-17.0,
2427.0,2341.0,17.0,-17.0,
2306.0,2206.0,17.0,-17.0,
2082.0,2151.0,17.0,-16.0,
1817.0,1971.0,17.0,-16.0,
1676.0,1754.0,17.0,-16.0,
1754.0,1852.0,17.0,-16.0,
1978.0,2069.0,16.0,-16.0,
2235.0,2447.0,16.0,-16.0,
2393.0,2371.0,15.0,-16.0,
2427.0,2343.0,15.0,-16.0,
2307.0,2193.0,14.0,-16.0,
2083.0,1797.0,14.0,-16.0,
1828.0,1618.0,14.0,-16.0,
1684.0,1556.0,14.0,-16.0,
1745.0,2029.0,14.0,-16.0,
1971.0,2252.0,14.0,-16.0,
2213.0,2288.0,14.0,-16.0,
2379.0,2181.0,15.0,-16.0,
2413.0,2329.0,15.0,-16.0,
2307.0,2190.0,16.0,-16.0,
2109.0,2012.0,16.0,-16.0,
1838.0,1797.0,17.0,-16.0,
1692.0,1731.0,17.0,-16.0,
1735.0,1839.0,18.0,-16.0,
1956.0,2231.0,18.0,-16.0,
2208.0,2257.0,19.0,-16.0,
2384.0,2192.0,19.0,-16.0,
2415.0,2357.0,20.0,-16.0,
2310.0,2230.0,20.0,-16.0,
2099.0,2182.0,21.0,-16.0,
1845.0,1989.0,21.0,-16.0,
1678.0,1722.0,22.0,-16.0,
1739.0,2008.0,22.0,-16.0,
1949.0,2063.0,23.0,-16.0,
2207.0,2100.0,23.0,-17.0,
2393.0,2384.0,24.0,-17.0,
2406.0,2351.0,24.0,-17.0,
2288.0,2195.0,24.0,-17.0,
2045.0,2135.0,25.0,-17.0,
1794.0,1603.0,25.0,-17.0,
1672.0,1751.0,26.0,-17.0,
1770.0,1880.0,26.0,-17.0,
2019.0,2139.0,27.0,-18.0,
2264.0,2140.0,27.0,-18.0,
2420.0,2193.0,28.0,-18.0,
2396.0,2291.0,28.0,-18.0,
2254.0,2307.0,28.0,-18.0,
1997.0,2076.0,29.0,-18.0,
1743.0,1565.0,29.0,-18.0,
1685.0,1774.0,29.0,-18.0,
1850.0,1970.0,30.0,-18.0,
2144.0,2204.0,30.0,-18.0,
2328.0,2354.0,30.0,-18.0,
2435.0,2200.0,30.0,-18.0,
2367.0,2269.0,31.0,-18.0,
2176.0,2098.0,31.0,-18.0,
1909.0,1658.0,31.0,-18.0,
1703.0,1912.0,31.0,-18.0,
1708.0,1809.0,31.0,-18.0,
1912.0,1840.0,32.0,-18.0,
2176.0,2220.0,32.0,-18.0,
2371.0,2365.0,32.0,-18.0,
2427.0,2183.0,32.0,-18.0,
2323.0,2402.0,32.0,-18.0,
2110.0,1995.0,32.0,-17.0,
1833.0,1813.0,32.0,-17.0,
1674.0,1555.0,32.0,-17.0,
1752.0,1671.0,32.0,-17.0,
1984.0,2109.0,32.0,-17.0,
2248.0,2478.0,32.0,-17.0,
2402.0,2400.0,33.0,-17.0,
2399.0,2316.0,33.0,-17.0,
2277.0,2167.0,33.0,-17.0,
2014.0,1919.0,33.0,-17.0,
1773.0,1750.0,33.0,-17.0,
1675.0,1738.0,33.0,-17.0,
1802.0,1907.0,33.0,-17.0,
2064.0,2140.0,33.0,-17.0,
2294.0,2146.0,33.0,-17.0,
2426.0,2200.0,32.0,-17.0,
2391.0,2109.0,32.0,-17.0,
2218.0,1934.0,32.0,-17.0,
1950.0,1691.0,32.0,-17.0,
1724.0,1908.0,32.0,-17.0,
1687.0,1958.0,32.0,-17.0,
1869.0,1819.0,32.0,-16.0,
2140.0,2033.0,32.0,-16.0,
2355.0,2344.0,32.0,-16.0,
2424.0,2194.0,31.0,-16.0,
2352.0,2229.0,31.0,-16.0,
2147.0,2021.0,31.0,-16.0,
1865.0,1996.0,31.0,-16.0,
1687.0,1902.0,31.0,-16.0,
1731.0,1843.0,30.0,-16.0,
1956.0,2076.0,30.0,-16.0,
2208.0,2439.0,30.0,-16.0,
2388.0,2360.0,30.0,-16.0,
2425.0,2354.0,30.0,-16.0,
2302.0,2177.0,29.0,-16.0,
2055.0,1777.0,29.0,-16.0,
1786.0,1952.0,29.0,-16.0,
1680.0,1556.0,29.0,-16.0,
1775.0,2045.0,29.0,-16.0,
2021.0,2125.0,28.0,-16.0,
2279.0,2134.0,28.0,-16.0,
2410.0,2391.0,28.0,-16.0,
2402.0,2124.0,28.0,-16.0,
2242.0,2142.0,28.0,-16.0,
1967.0,1888.0,28.0,-16.0,
1745.0,1918.0,28.0,-16.0,
1680.0,1752.0,27.0,-16.0,
1847.0,1939.0,27.0,-16.0,
2115.0,2354.0,27.0,-16.0,
2333.0,2526.0,27.0,-16.0,
2428.0,2374.0,27.0,-16.0,
2377.0,2264.0,27.0,-16.0,
2178.0,2089.0,27.0,-16.0,
1901.0,1841.0,27.0,-16.0,
1703.0,1712.0,27.0,-16.0,
1700.0,1606.0,27.0,-16.0,
1912.0,2195.0,27.0,-16.0,
2166.0,2233.0,27.0,-16.0,
2367.0,2377.0,27.0,-16.0,
2427.0,2189.0,27.0,-16.0,
2317.0,2223.0,27.0,-16.0,
2103.0,2004.0,27.0,-16.0,
1848.0,1804.0,27.0,-16.0,
1692.0,1729.0,27.0,-16.0,
1745.0,1853.0,27.0,-16.0,
1992.0,2254.0,27.0,-16.0,
2251.0,2109.0,27.0,-16.0,
2402.0,2386.0,27.0,-16.0,
2410.0,2150.0,27.0,-16.0,
2267.0,2348.0,27.0,-16.0,
2018.0,2104.0,27.0,-16.0,
1778.0,1931.0,27.0,-16.0,
1681.0,1726.0,27.0,-16.0,
1809.0,1923.0,28.0,-16.0,
2073.0,2329.0,28.0,-16.0,
2303.0,2339.0,28.0,-16.0,
2433.0,2224.0,29.0,-16.0,
2383.0,2290.0,29.0,-16.0,
2226.0,2122.0,29.0,-16.0,
1946.0,1890.0,29.0,-16.0,
1731.0,1732.0,30.0,-16.0,
1692.0,1783.0,30.0,-16.0,
1870.0,1976.0,30.0,-16.0,
2133.0,2228.0,30.0,-16.0,
2350.0,2539.0,30.0,-16.0,
2418.0,2396.0,30.0,-16.0,
2361.0,2436.0,30.0,-16.0,
2160.0,1855.0,30.0,-16.0,
1871.0,1639.0,30.0,-16.0,
1698.0,1896.0,31.0,-16.0,
1724.0,1625.0,30.0,-16.0,
1948.0,2216.0,30.0,-16.0,
2212.0,2436.0,30.0,-17.0,
2387.0,2386.0,30.0,-17.0,
2416.0,2341.0,30.0,-17.0,
2310.0,2372.0,30.0,-17.0,
2072.0,1971.0,30.0,-17.0,
1797.0,1947.0,30.0,-17.0,
1664.0,1541.0,30.0,-17.0,
1755.0,1873.0,29.0,-17.0,
2017.0,2292.0,29.0,-17.0,
2261.0,2305.0,29.0,-17.0,
2413.0,2555.0,28.0,-17.0,
2406.0,2145.0,28.0,-17.0,
2247.0,2154.0,28.0,-17.0,
1992.0,1906.0,28.0,-17.0,
1746.0,1752.0,27.0,-17.0,
1677.0,1569.0,27.0,-17.0,
1821.0,1914.0,27.0,-17.0,
2088.0,1992.0,27.0,-17.0,
2337.0,2164.0,26.0,-17.0,
2436.0,2381.0,26.0,-17.0,
2380.0,2440.0,26.0,-17.0,
2173.0,2085.0,26.0,-17.0,
1900.0,2012.0,25.0,-17.0,
1706.0,1551.0,25.0,-17.0,
1695.0,1606.0,25.0,-17.0,
1905.0,2025.0,25.0,-17.0,
2175.0,2055.0,24.0,-17.0,
2375.0,2353.0,24.0,-17.0,
2441.0,2191.0,24.0,-18.0,
2334.0,2239.0,24.0,-18.0,
2111.0,2191.0,24.0,-18.0,
1830.0,1632.0,23.0,-18.0,
1674.0,1704.0,23.0,-18.0,
1736.0,1840.0,23.0,-18.0,
1978.0,1895.0,23.0,-18.0,
2240.0,2114.0,23.0,-18.0,
2402.0,2378.0,23.0,-18.0,
2427.0,2516.0,23.0,-18.0,
2292.0,2169.0,23.0,-18.0,
2042.0,1956.0,23.0,-18.0,
1777.0,1761.0,24.0,-18.0,
1676.0,1554.0,24.0,-17.0,
1795.0,1907.0,24.0,-17.0,
2046.0,2315.0,25.0,-17.0,
2298.0,2142.0,25.0,-17.0,
2421.0,2565.0,25.0,-17.0,
2386.0,2294.0,26.0,-17.0,
2220.0,2132.0,26.0,-17.0,
1945.0,1874.0,27.0,-17.0,
1724.0,1740.0,27.0,-17.0,
1682.0,1590.0,28.0,-17.0,
1862.0,2156.0,28.0,-17.0,
2133.0,2219.0,29.0,-17.0,
2358.0,2182.0,29.0,-17.0,
2437.0,2363.0,29.0,-17.0,
2360.0,2246.0,30.0,-17.0,
2168.0,2050.0,30.0,-17.0,
1879.0,1820.0,30.0,-17.0,
1690.0,1533.0,31.0,-17.0,
1721.0,1985.0,31.0,-17.0,
1930.0,2043.0,31.0,-17.0,
2186.0,2256.0,31.0,-17.0,
2388.0,2387.0,31.0,-17.0,
2428.0,2358.0,30.0,-17.0,
2306.0,2041.0,30.0,-17.0,
2071.0,1795.0,30.0,-17.0,
1796.0,1785.0,30.0,-17.0,
1658.0,1889.0,30.0,-17.0,
1754.0,1878.0,29.0,-17.0,
2004.0,2128.0,29.0,-17.0,
2256.0,2123.0,28.0,-17.0,
2407.0,2210.0,28.0,-17.0,
2412.0,2493.0,27.0,-17.0,
2267.0,2148.0,27.0,-17.0,
1998.0,1911.0,27.0,-17.0,
1755.0,1573.0,26.0,-17.0,
1676.0,1757.0,26.0,-17.0,
1818.0,1947.0,25.0,-17.0,
2075.0,2349.0,25.0,-17.0,
2306.0,2174.0,24.0,-18.0,
2431.0,2395.0,24.0,-18.0,
2358.0,2265.0,23.0,-18.0,
2204.0,2276.0,23.0,-18.0,
1947.0,1683.0,23.0,-18.0,
1729.0,1557.0,22.0,-18.0,
1680.0,1762.0,22.0,-18.0,
1847.0,1978.0,22.0,-18.0,
2098.0,2183.0,22.0,-18.0,
2322.0,2522.0,21.0,-18.0,
2433.0,2562.0,21.0,-17.0,
2391.0,2294.0,21.0,-18.0,
2218.0,2127.0,21.0,-17.0,
1938.0,1698.0,21.0,-17.0,
1730.0,1726.0,21.0,-17.0,
1671.0,1588.0,21.0,-17.0,
1852.0,2138.0,21.0,-17.0,
2102.0,2166.0,21.0,-17.0,
2326.0,2512.0,21.0,-17.0,
2426.0,2407.0,21.0,-17.0,
2378.0,2284.0,21.0,-17.0,
2217.0,2104.0,21.0,-17.0,
1942.0,1885.0,21.0,-17.0,
1735.0,1737.0,21.0,-17.0,
1676.0,1770.0,21.0,-17.0,
1839.0,1964.0,21.0,-17.0,
2081.0,1996.0,22.0,-17.0,
2306.0,2343.0,22.0,-17.0,
2440.0,2556.0,22.0,-17.0,
2394.0,2427.0,23.0,-17.0,
2231.0,2304.0,23.0,-17.0,
1954.0,1898.0,23.0,-17.0,
1725.0,1755.0,24.0,-17.0,
1674.0,1952.0,24.0,-17.0,
1867.0,1812.0,25.0,-17.0,
2133.0,2200.0,26.0,-17.0,
2344.0,2362.0,26.0,-17.0,
2423.0,2384.0,27.0,-17.0,
2351.0,2433.0,27.0,-17.0,
2145.0,2037.0,27.0,-17.0,
1869.0,1995.0,28.0,-17.0,
1671.0,1553.0,28.0,-17.0,
1694.0,1650.0,29.0,-17.0,
1927.0,2236.0,29.0,-17.0,
2209.0,2083.0,29.0,-17.0,
2381.0,2379.0,29.0,-17.0,
2419.0,2330.0,30.0,-17.0,
2308.0,2367.0,30.0,-17.0,
2066.0,1782.0,30.0,-17.0,
1786.0,1777.0,30.0,-17.0,
1664.0,1713.0,29.0,-17.0,
1756.0,1873.0,29.0,-17.0,
2022.0,2113.0,29.0,-17.0,
2275.0,2492.0,29.0,-17.0,
2424.0,2206.0,28.0,-17.0,
2402.0,2315.0,28.0,-17.0,
2261.0,2143.0,28.0,-17.0,
1994.0,1718.0,28.0,-17.0,
1740.0,1575.0,27.0,-17.0,
1666.0,1736.0,27.0,-18.0,
1832.0,1938.0,26.0,-17.0,
2091.0,2000.0,25.0,-17.0,
2323.0,2529.0,23.0,-17.0,
2425.0,2557.0,23.0,-18.0,
2374.0,2295.0,23.0,-18.0,
2206.0,2275.0,21.0,-18.0,
1930.0,1885.0,20.0,-18.0,
1722.0,1906.0,20.0,-18.0,
1678.0,1747.0,19.0,-18.0,
1842.0,1952.0,17.0,-18.0,
2103.0,2010.0,0,
2306.0,2169.0,19.0,-18.0,
2432.0,2210.0,20.0,-18.0,
2384.0,2274.0,19.0,-17.0,
2210.0,2097.0,19.0,-17.0,
1938.0,1861.0,17.0,-17.0,
1734.0,1742.0,18.0,-17.0,
1678.0,1925.0,20.0,-17.0,
1837.0,2124.0,19.0,-17.0,
2083.0,2167.0,19.0,-17.0,
2306.0,2368.0,21.0,-18.0,
2431.0,2200.0,20.0,-17.0,
2397.0,2291.0,21.0,-17.0,
2234.0,2288.0,19.0,-17.0,
1959.0,1708.0,19.0,-17.0,
1747.0,1550.0,19.0,-16.0,
1664.0,1760.0,19.0,-16.0,
1840.0,2111.0,19.0,-17.0,
2073.0,2160.0,20.0,-17.0,
2289.0,2346.0,21.0,-18.0,
2426.0,2555.0,19.0,-17.0,
2377.0,2304.0,20.0,-18.0,
2235.0,2139.0,20.0,-17.0,
1962.0,2056.0,21.0,-17.0,
1735.0,1747.0,23.0,-18.0,
1673.0,1928.0,24.0,-19.0,
1821.0,1964.0,24.0,-18.0,
2105.0,2360.0,23.0,-17.0,
2329.0,2328.0,24.0,-17.0,
2434.0,2384.0,25.0,-16.0,
2377.0,2448.0,26.0,-16.0,
2186.0,2242.0,26.0,-16.0,
1916.0,2029.0,27.0,-16.0,
1709.0,1565.0,28.0,-16.0,
1701.0,1793.0,27.0,-15.0,
1906.0,2045.0,28.0,-15.0,
2182.0,2418.0,30.0,-15.0,
2381.0,2551.0,31.0,-15.0,
2436.0,2551.0,31.0,-16.0,
2344.0,2253.0,31.0,-16.0,
2125.0,2031.0,32.0,-16.0,
1844.0,1797.0,32.0,-16.0,
1699.0,1557.0,32.0,-16.0,
1761.0,1852.0,32.0,-16.0,
1991.0,2252.0,33.0,-16.0,
2252.0,2296.0,33.0,-17.0,
2409.0,2211.0,32.0,-17.0,
2417.0,2152.0,32.0,-17.0,
2285.0,2179.0,32.0,-17.0,
2046.0,1957.0,32.0,-17.0,
1775.0,1781.0,31.0,-17.0,
1680.0,1738.0,31.0,-17.0,
1797.0,1926.0,30.0,-18.0,
2065.0,2150.0,30.0,-18.0,
2277.0,2326.0,29.0,-18.0,
2421.0,2379.0,28.0,-18.0,
2372.0,2282.0,28.0,-18.0,
2207.0,2107.0,27.0,-18.0,
1941.0,1873.0,26.0,-18.0,
1720.0,1909.0,25.0,-18.0,
1686.0,1581.0,25.0,-18.0,
1869.0,1973.0,24.0,-18.0,
2130.0,2210.0,24.0,-18.0,
2336.0,2361.0,23.0,-18.0,
2423.0,2181.0,22.0,-18.0,
2345.0,2431.0,22.0,-18.0,
2148.0,2063.0,21.0,-18.0,
1884.0,2004.0,21.0,-18.0,
1698.0,1891.0,21.0,-19.0,
1684.0,1960.0,20.0,-19.0,
1879.0,1810.0,20.0,-18.0,
2141.0,2206.0,20.0,-18.0,
2357.0,2376.0,19.0,-18.0,
2459.0,2555.0,19.0,-19.0,
2386.0,2252.0,19.0,-19.0,
2188.0,2063.0,19.0,-18.0,
1915.0,1849.0,19.0,-18.0,
1709.0,1556.0,19.0,-18.0,
1691.0,1788.0,19.0,-18.0,
1869.0,1988.0,19.0,-18.0,
2129.0,2207.0,19.0,-18.0,
2342.0,2186.0,19.0,-18.0,
2425.0,2382.0,19.0,-18.0,
2367.0,2286.0,19.0,-18.0,
2199.0,2087.0,19.0,-18.0,
1918.0,1869.0,20.0,-18.0,
1708.0,1744.0,20.0,-18.0,
1681.0,1603.0,21.0,-18.0,
1871.0,1986.0,21.0,-18.0,
2132.0,2205.0,22.0,-18.0,
2337.0,2532.0,23.0,-17.0,
2438.0,2373.0,23.0,-17.0,
2375.0,2253.0,24.0,-17.0,
2167.0,2047.0,25.0,-17.0,
1889.0,1834.0,26.0,-16.0,
1704.0,1906.0,26.0,-16.0,
1716.0,1661.0,27.0,-16.0,
1931.0,2039.0,28.0,-16.0,
2197.0,2081.0,28.0,-16.0,
2391.0,2388.0,29.0,-16.0,
2440.0,2185.0,30.0,-16.0,
2334.0,2237.0,31.0,-17.0,
2103.0,2177.0,32.0,-17.0,
1840.0,1628.0,32.0,-17.0,
1685.0,1757.0,32.0,-16.0,
1768.0,1849.0,33.0,-16.0,
1996.0,2259.0,33.0,-16.0,
2254.0,2462.0,33.0,-16.0,
2402.0,2366.0,33.0,-16.0,
2418.0,2130.0,32.0,-16.0,
2275.0,1986.0,32.0,-16.0,
2025.0,1761.0,32.0,-16.0,
1783.0,1943.0,31.0,-16.0,
1681.0,1773.0,32.0,-16.0,
1819.0,1926.0,31.0,-16.0,
2073.0,2324.0,29.0,-16.0,
2290.0,2307.0,29.0,-16.0,
2415.0,2538.0,29.0,-17.0,
2384.0,2303.0,27.0,-17.0,
2244.0,2135.0,27.0,-17.0,
1972.0,1914.0,25.0,-17.0,
1762.0,1940.0,24.0,-17.0,
1709.0,1619.0,23.0,-18.0,
1863.0,1983.0,22.0,-18.0,
2099.0,2172.0,21.0,-17.0,
2296.0,2499.0,20.0,-17.0,
2399.0,2370.0,20.0,-18.0,
2354.0,2240.0,19.0,-17.0,
2184.0,2097.0,20.0,-18.0,
1933.0,1696.0,20.0,-18.0,
1714.0,1916.0,20.0,-18.0,
1675.0,1753.0,20.0,-18.0,
1831.0,1934.0,21.0,-18.0,
2068.0,1974.0,22.0,-18.0,
2282.0,2320.0,23.0,-18.0,
2390.0,2345.0,25.0,-18.0,
2331.0,2258.0,27.0,-18.0,
2168.0,2254.0,28.0,-18.0,
1886.0,1841.0,30.0,-18.0,
1700.0,1741.0,32.0,-17.0,
1697.0,1888.0,35.0,-17.0,
1889.0,2185.0,35.0,-17.0,
2147.0,2233.0,36.0,-17.0,
2339.0,2329.0,37.0,-17.0,
2400.0,2497.0,37.0,-17.0,
2308.0,2215.0,36.0,-18.0,
2078.0,1811.0,34.0,-18.0,
1810.0,1958.0,32.0,-19.0,
1665.0,1904.0,31.0,-19.0,
1728.0,2014.0,29.0,-20.0,
1971.0,1899.0,27.0,-21.0,
2212.0,2246.0,26.0,-22.0,
2372.0,2354.0,23.0,-23.0,
2375.0,2470.0,20.0,-23.0,
2217.0,1938.0,18.0,-23.0,
1965.0,1895.0,17.0,-22.0,
1735.0,1732.0,16.0,-22.0,
1638.0,1888.0,14.0,-22.0,
1751.0,2054.0,13.0,-20.0,
2016.0,2121.0,11.0,-18.0,
2269.0,2323.0,9.0,-18.0,
2402.0,2219.0,7.0,-17.0,
2408.0,2162.0,5.0,-16.0,
2270.0,2165.0,4.0,-15.0,
2037.0,1764.0,3.0,-16.0,
1791.0,1944.0,1.0,-17.0,
1681.0,1735.0,0.0,-17.0,
1788.0,1726.0,-1.0,-16.0,
2042.0,2122.0,-5.0,-17.0,
2294.0,2322.0,-6.0,-18.0,
2434.0,2589.0,-9.0,-17.0,
2437.0,2164.0,-10.0,-16.0,
2304.0,2013.0,-10.0,-17.0,
2043.0,1977.0,-11.0,-17.0,
1795.0,1592.0,-13.0,-16.0,
1673.0,1746.0,-12.0,-16.0,
1788.0,1713.0,-13.0,-16.0,
2026.0,1936.0,-13.0,-17.0,
2274.0,2300.0,-13.0,-19.0,
2420.0,2217.0,-13.0,-19.0,
2418.0,2148.0,-13.0,-19.0,
2285.0,2345.0,-13.0,-20.0,
2033.0,1960.0,-12.0,-20.0,
1784.0,1939.0,-12.0,-19.0,
1667.0,1753.0,-12.0,-19.0,
1772.0,2057.0,-12.0,-19.0,
2016.0,2301.0,-11.0,-19.0,
2250.0,2473.0,-11.0,-18.0,
2414.0,2371.0,-10.0,-17.0,
2416.0,2322.0,-10.0,-17.0,
2290.0,2347.0,-10.0,-17.0,
2051.0,1965.0,-10.0,-17.0,
1787.0,1771.0,-10.0,-17.0,
1672.0,1894.0,-10.0,-16.0,
1759.0,2050.0,-10.0,-16.0,
1996.0,2118.0,-10.0,-17.0,
2246.0,2321.0,-10.0,-17.0,
2409.0,2219.0,-10.0,-17.0,
2420.0,2160.0,-10.0,-18.0,
2303.0,2011.0,-10.0,-18.0,
2053.0,2132.0,-10.0,-18.0,
1801.0,1774.0,-10.0,-17.0,
1674.0,1544.0,-9.0,-18.0,
1751.0,2055.0,-11.0,-17.0,
2000.0,2271.0,-10.0,-18.0,
2245.0,2113.0,-9.0,-18.0,
2378.0,2565.0,-10.0,-18.0,
2440.0,2534.0,-10.0,-18.0,
2326.0,2233.0,-9.0,-18.0,
2124.0,2017.0,-9.0,-17.0,
1885.0,1687.0,-7.0,-18.0,
1750.0,1808.0,-7.0,-17.0,
1820.0,1734.0,-5.0,-17.0,
2008.0,2276.0,-3.0,-17.0,
2235.0,2117.0,-3.0,-17.0,
2402.0,2392.0,-1.0,-17.0,
2436.0,2350.0,1.0,-17.0,
2327.0,2392.0,4.0,-17.0,
2091.0,1837.0,7.0,-16.0,
1843.0,1620.0,7.0,-15.0,
1685.0,1715.0,9.0,-14.0,
1729.0,1631.0,14.0,-15.0,
1929.0,2026.0,13.0,-15.0,
2165.0,2234.0,17.0,-15.0,
2356.0,2343.0,19.0,-15.0,
2393.0,2497.0,20.0,-13.0,
2299.0,2203.0,23.0,-13.0,
2074.0,2160.0,23.0,-11.0,
1805.0,1801.0,23.0,-10.0,
1662.0,1718.0,26.0,-11.0,
1726.0,1853.0,25.0,-11.0,
1954.0,2069.0,23.0,-12.0,
2211.0,2257.0,24.0,-12.0,
2351.0,2156.0,24.0,-11.0,
2380.0,2132.0,23.0,-11.0,
2270.0,2344.0,22.0,-12.0,
2018.0,1957.0,21.0,-13.0,
1780.0,1955.0,20.0,-14.0,
1668.0,1906.0,19.0,-15.0,
1758.0,1683.0,18.0,-16.0,
1984.0,2073.0,18.0,-16.0,
2230.0,2094.0,18.0,-16.0,
2374.0,2181.0,18.0,-16.0,
2396.0,2499.0,18.0,-16.0,
2290.0,2171.0,18.0,-16.0,
2053.0,1994.0,18.0,-16.0,
1816.0,1973.0,18.0,-17.0,
1682.0,1916.0,18.0,-16.0,
1761.0,1866.0,18.0,-16.0,
1979.0,2096.0,18.0,-16.0,
2214.0,2445.0,18.0,-16.0,
2382.0,2179.0,18.0,-16.0,
2409.0,2337.0,18.0,-16.0,
2299.0,2210.0,18.0,-16.0,
2065.0,1995.0,18.0,-17.0,
1820.0,1806.0,18.0,-17.0,
1688.0,1925.0,18.0,-16.0,
1756.0,1685.0,18.0,-16.0,
1979.0,2053.0,17.0,-16.0,
2206.0,2267.0,18.0,-16.0,
2390.0,2539.0,17.0,-16.0,
2416.0,2161.0,17.0,-16.0,
2285.0,2195.0,17.0,-17.0,
2073.0,2006.0,17.0,-17.0,
1823.0,1982.0,18.0,-17.0,
1694.0,1909.0,18.0,-17.0,
1762.0,1862.0,18.0,-18.0,
1971.0,2243.0,19.0,-18.0,
2225.0,2434.0,19.0,-18.0,
2386.0,2380.0,20.0,-19.0,
2409.0,2519.0,21.0,-19.0,
2301.0,2388.0,22.0,-19.0,
2081.0,1824.0,22.0,-19.0,
1833.0,1974.0,22.0,-19.0,
1687.0,1725.0,22.0,-19.0,
1750.0,1839.0,22.0,-19.0,
1973.0,1870.0,23.0,-19.0,
2201.0,2236.0,23.0,-19.0,
2375.0,2352.0,23.0,-19.0,
2414.0,2332.0,23.0,-18.0,
2309.0,2035.0,22.0,-18.0,
2097.0,1844.0,22.0,-18.0,
1838.0,1822.0,23.0,-19.0,
1696.0,1729.0,24.0,-20.0,
1759.0,1853.0,24.0,-19.0,
1987.0,2094.0,23.0,-19.0,
2243.0,2286.0,24.0,-18.0,
2400.0,2360.0,24.0,-19.0,
2398.0,2307.0,24.0,-19.0,
2267.0,2177.0,25.0,-20.0,
2018.0,2123.0,25.0,-19.0,
1774.0,1745.0,25.0,-19.0,
1687.0,1767.0,25.0,-19.0,
1822.0,1742.0,25.0,-19.0,
2069.0,2137.0,25.0,-19.0,
2287.0,2123.0,25.0,-19.0,
2421.0,2354.0,25.0,-19.0,
2373.0,2108.0,25.0,-19.0,
2203.0,2107.0,25.0,-19.0,
1939.0,1875.0,25.0,-19.0,
1729.0,1925.0,25.0,-19.0,
1706.0,1797.0,24.0,-20.0,
1887.0,2156.0,24.0,-20.0,
2144.0,2196.0,24.0,-20.0,
2354.0,2154.0,24.0,-20.0,
2415.0,2538.0,24.0,-20.0,
2343.0,2263.0,24.0,-20.0,
2141.0,2026.0,24.0,-20.0,
1867.0,1993.0,24.0,-20.0,
1697.0,1904.0,23.0,-20.0,
1734.0,1830.0,23.0,-20.0,
1962.0,2038.0,23.0,-20.0,
2206.0,2237.0,23.0,-20.0,
2378.0,2362.0,23.0,-20.0,
2406.0,2348.0,23.0,-20.0,
2288.0,2372.0,23.0,-20.0,
2046.0,1988.0,23.0,-20.0,
1796.0,1600.0,23.0,-19.0,
1689.0,1763.0,23.0,-19.0,
1784.0,1896.0,24.0,-19.0,
2027.0,2282.0,24.0,-19.0,
2281.0,2105.0,24.0,-20.0,
2403.0,2192.0,24.0,-20.0,
2398.0,2114.0,24.0,-19.0,
2238.0,2313.0,24.0,-19.0,
1972.0,1899.0,24.0,-19.0,
1752.0,1586.0,24.0,-19.0,
1693.0,1959.0,23.0,-19.0,
1850.0,2134.0,23.0,-19.0,
2103.0,2186.0,23.0,-19.0,
2325.0,2507.0,24.0,-19.0,
2416.0,2353.0,23.0,-19.0,
2364.0,2092.0,24.0,-19.0,
2176.0,2083.0,24.0,-19.0,
1901.0,1874.0,24.0,-19.0,
1717.0,1754.0,24.0,-19.0,
1715.0,1622.0,24.0,-19.0,
1921.0,2019.0,24.0,-18.0,
2184.0,2216.0,24.0,-18.0,
2398.0,2359.0,24.0,-18.0,
2412.0,2166.0,24.0,-18.0,
2314.0,2041.0,25.0,-18.0,
2078.0,1830.0,24.0,-18.0,
1829.0,1975.0,24.0,-17.0,
1688.0,1908.0,24.0,-17.0,
1762.0,1857.0,24.0,-17.0,
1988.0,2096.0,24.0,-17.0,
2229.0,2444.0,25.0,-18.0,
2385.0,2371.0,24.0,-18.0,
2402.0,2145.0,25.0,-18.0,
2265.0,2161.0,24.0,-18.0,
2018.0,1966.0,24.0,-17.0,
1771.0,1758.0,24.0,-18.0,
1678.0,1574.0,24.0,-17.0,
1814.0,1906.0,24.0,-17.0,
2062.0,1961.0,24.0,-17.0,
2299.0,2314.0,24.0,-17.0,
2416.0,2553.0,24.0,-17.0,
2379.0,2472.0,24.0,-17.0,
2226.0,2130.0,23.0,-17.0,
1920.0,1905.0,24.0,-17.0,
1739.0,1746.0,24.0,-17.0,
1689.0,1809.0,24.0,-17.0,
1878.0,1974.0,24.0,-17.0,
2142.0,2204.0,24.0,-17.0,
2336.0,2165.0,24.0,-17.0,
2423.0,2183.0,24.0,-17.0,
2346.0,2257.0,23.0,-17.0,
2134.0,2208.0,24.0,-17.0,
1864.0,1645.0,24.0,-17.0,
1707.0,1548.0,24.0,-17.0,
1736.0,1824.0,24.0,-17.0,
1955.0,2043.0,24.0,-17.0,
2209.0,2419.0,24.0,-17.0,
2382.0,2368.0,25.0,-17.0,
2416.0,2315.0,25.0,-17.0,
2298.0,2370.0,25.0,-18.0,
2054.0,1796.0,25.0,-17.0,
1793.0,1624.0,25.0,-17.0,
1685.0,1756.0,25.0,-18.0,
1808.0,1714.0,26.0,-18.0,
2037.0,2121.0,26.0,-18.0,
2273.0,2119.0,26.0,-18.0,
2419.0,2173.0,26.0,-18.0,
2394.0,2458.0,26.0,-18.0,
2229.0,1955.0,26.0,-18.0,
1964.0,1887.0,26.0,-18.0,
1743.0,1925.0,27.0,-18.0,
1686.0,1601.0,27.0,-18.0,
1863.0,2140.0,27.0,-18.0,
2107.0,2362.0,27.0,-18.0,
2318.0,2349.0,27.0,-18.0,
2409.0,2372.0,28.0,-19.0,
2336.0,2088.0,28.0,-19.0,
2153.0,1888.0,28.0,-19.0,
1884.0,1847.0,28.0,-19.0,
1709.0,1754.0,29.0,-19.0,
1721.0,2004.0,29.0,-18.0,
1922.0,1840.0,29.0,-18.0,
2180.0,2233.0,29.0,-18.0,
2371.0,2350.0,29.0,-18.0,
2407.0,2502.0,30.0,-18.0,
2295.0,2217.0,30.0,-18.0,
2069.0,1980.0,30.0,-18.0,
1820.0,1801.0,30.0,-18.0,
1687.0,1560.0,30.0,-18.0,
1768.0,2025.0,30.0,-18.0,
2006.0,2255.0,30.0,-18.0,
2250.0,2295.0,30.0,-18.0,
2394.0,2375.0,29.0,-18.0,
2388.0,2289.0,29.0,-19.0,
2210.0,2117.0,28.0,-19.0,
1939.0,1890.0,28.0,-19.0,
1707.0,1529.0,27.0,-19.0,
1630.0,1747.0,27.0,-19.0,
1795.0,1753.0,26.0,-19.0,
2062.0,2177.0,25.0,-19.0,
2296.0,2512.0,24.0,-19.0,
2405.0,2359.0,24.0,-19.0,
2348.0,2252.0,23.0,-20.0,
2158.0,2088.0,22.0,-20.0,
1908.0,1684.0,22.0,-19.0,
1714.0,1738.0,21.0,-19.0,
1700.0,1965.0,20.0,-19.0,
1859.0,2163.0,19.0,-20.0,
2136.0,2419.0,19.0,-20.0,
2362.0,2386.0,18.0,-20.0,
2459.0,2579.0,18.0,-20.0,
2404.0,2475.0,18.0,-19.0,
2226.0,1928.0,18.0,-19.0,
1949.0,1869.0,18.0,-19.0,
1746.0,1752.0,17.0,-19.0,
1710.0,1787.0,17.0,-19.0,
1886.0,1974.0,17.0,-19.0,
2139.0,2030.0,17.0,-18.0,
2352.0,2538.0,18.0,-18.0,
2448.0,2393.0,18.0,-17.0,
2386.0,2301.0,18.0,-18.0,
2221.0,1934.0,19.0,-18.0,
1944.0,1882.0,19.0,-17.0,
1736.0,1714.0,20.0,-17.0,
1686.0,1596.0,20.0,-17.0,
1864.0,1792.0,21.0,-17.0,
2109.0,2204.0,22.0,-16.0,
2339.0,2364.0,22.0,-17.0,
2452.0,2211.0,23.0,-17.0,
2387.0,2461.0,24.0,-17.0,
2193.0,2064.0,24.0,-17.0,
1905.0,2013.0,25.0,-18.0,
1715.0,1734.0,25.0,-18.0,
1711.0,1638.0,25.0,-18.0,
1935.0,2036.0,26.0,-18.0,
2202.0,2452.0,26.0,-18.0,
2408.0,2396.0,27.0,-18.0,
2458.0,2399.0,27.0,-18.0,
2363.0,2426.0,28.0,-18.0,
2138.0,2045.0,30.0,-18.0,
1873.0,2000.0,32.0,-18.0,
1707.0,1751.0,32.0,-19.0,
1745.0,1837.0,31.0,-19.0,
1983.0,2252.0,30.0,-21.0,
2227.0,2099.0,29.0,-20.0,
2404.0,2194.0,28.0,-19.0,
2410.0,2313.0,27.0,-18.0,
2282.0,1992.0,28.0,-18.0,
2044.0,1950.0,29.0,-17.0,
1787.0,1950.0,26.0,-17.0,
1680.0,1749.0,21.0,-18.0,
1782.0,2074.0,20.0,-17.0,
2006.0,2099.0,20.0,-16.0,
2235.0,2452.0,20.0,-14.0,
2377.0,2351.0,20.0,-15.0,
2393.0,2322.0,22.0,-17.0,
2268.0,2167.0,21.0,-18.0,
2025.0,1949.0,18.0,-18.0,
1791.0,1780.0,14.0,-19.0,
1668.0,1896.0,14.0,-19.0,
1753.0,2017.0,17.0,-18.0,
1966.0,2070.0,17.0,-18.0,
2202.0,2241.0,17.0,-18.0,
2366.0,2334.0,17.0,-19.0,
2403.0,2330.0,18.0,-19.0,
2271.0,2199.0,16.0,-18.0,
2045.0,1791.0,16.0,-18.0,
1792.0,1964.0,17.0,-18.0,
1677.0,1923.0,18.0,-18.0,
1758.0,1891.0,19.0,-18.0,
1991.0,2091.0,19.0,-17.0,
2222.0,2278.0,19.0,-17.0,
2389.0,2545.0,20.0,-17.0,
2412.0,2332.0,20.0,-17.0,
2319.0,2234.0,20.0,-18.0,
2083.0,1986.0,21.0,-19.0,
1820.0,1794.0,21.0,-19.0,
1695.0,1759.0,19.0,-17.0,
1752.0,2028.0,19.0,-19.0,
1966.0,2054.0,19.0,-19.0,
2201.0,2273.0,19.0,-19.0,
2366.0,2544.0,19.0,-19.0,
2408.0,2167.0,19.0,-18.0,
2300.0,2226.0,20.0,-19.0,
2090.0,2180.0,19.0,-18.0,
1824.0,1984.0,19.0,-17.0,
1679.0,1551.0,19.0,-17.0,
1734.0,2014.0,20.0,-19.0,
1965.0,2049.0,20.0,-17.0,
2203.0,2424.0,19.0,-17.0,
2380.0,2392.0,18.0,-17.0,
2408.0,2335.0,18.0,-17.0,
2301.0,2210.0,18.0,-17.0,
2094.0,2022.0,17.0,-17.0,
1838.0,1639.0,17.0,-16.0,
1678.0,1740.0,17.0,-16.0,
1733.0,2015.0,18.0,-16.0,
1933.0,2234.0,18.0,-16.0,
2182.0,2243.0,18.0,-16.0,
2372.0,2364.0,18.0,-16.0,
2400.0,2345.0,19.0,-16.0,
2315.0,2044.0,20.0,-17.0,
2106.0,2003.0,20.0,-17.0,
1856.0,1645.0,21.0,-17.0,
1684.0,1559.0,22.0,-17.0,
1725.0,1834.0,22.0,-17.0,
1938.0,1845.0,0,
2178.0,2231.0,23.0,-17.0,
2364.0,2366.0,23.0,-17.0,
2404.0,2344.0,24.0,-17.0,
2304.0,2208.0,24.0,-17.0,
2075.0,2185.0,25.0,-17.0,
1827.0,1824.0,25.0,-17.0,
1679.0,1578.0,25.0,-17.0,
1766.0,2039.0,25.0,-17.0,
2000.0,1925.0,23.0,-17.0,
2245.0,2258.0,0,
2385.0,2546.0,23.0,-18.0,
2404.0,2138.0,23.0,-18.0,
2271.0,2173.0,23.0,-18.0,
2012.0,1933.0,24.0,-18.0,
1765.0,1956.0,24.0,-18.0,
1690.0,1760.0,24.0,-18.0,
1818.0,1925.0,24.0,-19.0,
2068.0,1965.0,24.0,-19.0,
2297.0,2323.0,25.0,-19.0,
2413.0,2386.0,26.0,-19.0,
2371.0,2294.0,25.0,-19.0,
2193.0,1913.0,25.0,-19.0,
1929.0,2039.0,25.0,-19.0,
1709.0,1562.0,25.0,-19.0,
1705.0,1627.0,25.0,-19.0,
1898.0,1969.0,24.0,-19.0,
2146.0,2204.0,24.0,-18.0,
2352.0,2181.0,24.0,-17.0,
2413.0,2170.0,24.0,-17.0,
2332.0,2084.0,24.0,-17.0,
2113.0,2211.0,24.0,-17.0,
1851.0,1824.0,24.0,-16.0,
1691.0,1908.0,21.0,-14.0,
1726.0,1843.0,21.0,-14.0,
1929.0,1848.0,21.0,-14.0,
2168.0,2062.0,22.0,-14.0,
2357.0,2364.0,22.0,-15.0,
2416.0,2355.0,21.0,-14.0,
2316.0,2226.0,21.0,-14.0,
2120.0,2015.0,21.0,-14.0,
1865.0,1654.0,21.0,-14.0,
1692.0,1565.0,21.0,-14.0,
1725.0,1814.0,23.0,-16.0,
1923.0,1856.0,23.0,-16.0,
2185.0,2059.0,22.0,-16.0,
2358.0,2339.0,22.0,-16.0,
2412.0,2169.0,21.0,-16.0,
2330.0,2056.0,21.0,-16.0,
2129.0,2053.0,21.0,-16.0,
1882.0,1999.0,21.0,-16.0,
1689.0,1556.0,21.0,-16.0,
1722.0,1653.0,21.0,-16.0,
1926.0,2204.0,21.0,-15.0,
2163.0,2220.0,21.0,-15.0,
2349.0,2518.0,21.0,-15.0,
2404.0,2169.0,20.0,-14.0,
2317.0,2236.0,21.0,-14.0,
2116.0,2202.0,21.0,-14.0,
1853.0,1655.0,21.0,-14.0,
1701.0,1731.0,20.0,-14.0,
1725.0,1637.0,20.0,-14.0,
1920.0,2194.0,20.0,-15.0,
2175.0,2240.0,20.0,-15.0,
2353.0,2373.0,21.0,-15.0,
2409.0,2529.0,21.0,-15.0,
2335.0,2068.0,21.0,-16.0,
2119.0,2205.0,21.0,-16.0,
1879.0,1832.0,21.0,-16.0,
1706.0,1910.0,21.0,-16.0,
1712.0,1793.0,21.0,-16.0,
1903.0,2176.0,21.0,-16.0,
2158.0,2395.0,22.0,-17.0,
2352.0,2353.0,21.0,-17.0,
2410.0,2529.0,22.0,-17.0,
2340.0,2426.0,22.0,-17.0,
2145.0,2069.0,22.0,-16.0,
1883.0,1662.0,22.0,-16.0,
1708.0,1563.0,22.0,-16.0,
1712.0,1992.0,22.0,-16.0,
1909.0,2010.0,22.0,-17.0,
2155.0,2228.0,23.0,-16.0,
2356.0,2174.0,0,
2423.0,2187.0,23.0,-16.0,
2336.0,2248.0,22.0,-16.0,
2143.0,2056.0,22.0,-16.0,
1889.0,1679.0,22.0,-16.0,
1700.0,1758.0,22.0,-16.0,
1707.0,1802.0,23.0,-16.0,
1914.0,2011.0,23.0,-16.0,
2168.0,2352.0,23.0,-16.0,
2357.0,2348.0,23.0,-15.0,
2393.0,2348.0,23.0,-15.0,
2313.0,2250.0,23.0,-15.0,
2101.0,2193.0,23.0,-15.0,
1833.0,1810.0,25.0,-14.0,
1682.0,1566.0,25.0,-14.0,
1749.0,1676.0,25.0,-14.0,
1971.0,2256.0,25.0,-13.0,
2232.0,2080.0,24.0,-13.0,
2399.0,2358.0,25.0,-12.0,
2406.0,2320.0,26.0,-12.0,
2282.0,2200.0,21.0,-13.0,
2039.0,2144.0,24.0,-15.0,
1785.0,1767.0,26.0,-13.0,
1690.0,1585.0,34.0,-12.0,
1818.0,1925.0,38.0,-13.0,
2047.0,1953.0,42.0,-14.0,
2280.0,2327.0,44.0,-16.0,
2413.0,2549.0,44.0,-16.0,
2386.0,2285.0,43.0,-17.0,
2223.0,2299.0,42.0,-18.0,
1963.0,1721.0,50.0,-15.0,
1727.0,1774.0,48.0,-13.0,
1691.0,1801.0,44.0,-16.0,
1870.0,1801.0,33.0,-18.0,
2116.0,2370.0,27.0,-18.0,
2324.0,2345.0,23.0,-17.0,
2418.0,2376.0,21.0,-15.0,
2358.0,2276.0,22.0,-16.0,
2183.0,2277.0,22.0,-15.0,
1929.0,1888.0,23.0,-15.0,
1724.0,1746.0,21.0,-16.0,
1693.0,1600.0,21.0,-15.0,
1869.0,2152.0,22.0,-15.0,
2113.0,2196.0,23.0,-14.0,
2332.0,2323.0,25.0,-13.0,
2428.0,2366.0,26.0,-12.0,
2348.0,2428.0,28.0,-11.0,
2146.0,1881.0,28.0,-10.0,
1880.0,1859.0,29.0,-9.0,
1697.0,1559.0,29.0,-8.0,
1721.0,1823.0,30.0,-7.0,
1936.0,1854.0,30.0,-5.0,
2186.0,2251.0,31.0,-4.0,
2378.0,2180.0,31.0,-3.0,
2412.0,2501.0,32.0,-3.0,
2309.0,2200.0,32.0,-2.0,
2083.0,1982.0,33.0,-2.0,
1817.0,1802.0,33.0,-2.0,
1685.0,1565.0,33.0,-2.0,
1768.0,2044.0,33.0,-2.0,
1993.0,1897.0,33.0,-3.0,
2239.0,2103.0,34.0,-4.0,
2381.0,2364.0,34.0,-5.0,
2384.0,2318.0,34.0,-6.0,
2256.0,2138.0,33.0,-6.0,
1991.0,2105.0,33.0,-7.0,
1757.0,1941.0,33.0,-8.0,
1678.0,1576.0,29.0,-11.0,
1820.0,1920.0,29.0,-13.0,
2069.0,2317.0,29.0,-14.0,
2296.0,2313.0,28.0,-15.0,
2402.0,2191.0,27.0,-16.0,
2377.0,2098.0,26.0,-17.0,
2192.0,2088.0,25.0,-18.0,
1907.0,1685.0,24.0,-19.0,
1721.0,1754.0,24.0,-20.0,
1690.0,1800.0,23.0,-21.0,
1910.0,2177.0,26.0,-20.0,
2151.0,2050.0,25.0,-19.0,
2348.0,2521.0,24.0,-19.0,
2422.0,2336.0,24.0,-19.0,
2327.0,2251.0,25.0,-19.0,
2122.0,1861.0,25.0,-18.0,
1847.0,1816.0,25.0,-18.0,
1703.0,1823.0,25.0,-17.0,
1753.0,1832.0,25.0,-16.0,
1976.0,2067.0,25.0,-16.0,
2232.0,2078.0,25.0,-15.0,
2400.0,2363.0,25.0,-14.0,
2411.0,2152.0,25.0,-13.0,
2287.0,2353.0,25.0,-13.0,
2038.0,2138.0,25.0,-13.0,
1784.0,1785.0,25.0,-13.0,
1680.0,1923.0,21.0,-13.0,
1802.0,2064.0,23.0,-12.0,
2033.0,2115.0,23.0,-12.0,
2282.0,2472.0,24.0,-11.0,
2411.0,2193.0,23.0,-11.0,
2379.0,2127.0,24.0,-10.0,
2249.0,2318.0,25.0,-10.0,
1969.0,1735.0,25.0,-9.0,
1750.0,1751.0,26.0,-8.0,
1690.0,1610.0,26.0,-7.0,
1864.0,1955.0,31.0,-6.0,
2103.0,2191.0,25.0,-7.0,
2331.0,2319.0,25.0,-6.0,
2422.0,2193.0,25.0,-8.0,
2358.0,2267.0,27.0,-7.0,
2168.0,2086.0,28.0,-7.0,
1904.0,1861.0,28.0,-7.0,
1715.0,1761.0,28.0,-7.0,
1721.0,1828.0,27.0,-7.0,
1927.0,1838.0,27.0,-6.0,
2175.0,2054.0,29.0,-6.0,
2363.0,2344.0,37.0,-5.0,
2422.0,2525.0,36.0,-6.0,
2326.0,2052.0,36.0,-3.0,
2082.0,2000.0,33.0,-5.0,
1837.0,1909.0,32.0,-5.0,
1683.0,1562.0,31.0,-5.0,
1743.0,1855.0,32.0,-4.0,
1983.0,1907.0,32.0,-4.0,
2235.0,2090.0,31.0,-6.0,
2397.0,2368.0,30.0,-5.0,
2407.0,2503.0,28.0,-5.0,
2265.0,1996.0,28.0,-4.0,
2019.0,2115.0,28.0,-4.0,
1771.0,1780.0,28.0,-3.0,
1686.0,1577.0,29.0,-3.0,
1849.0,1913.0,28.0,-3.0,
2048.0,2151.0,28.0,-4.0,
2287.0,2135.0,0,
2416.0,2369.0,29.0,-3.0,
2361.0,2298.0,28.0,-5.0,
2209.0,2105.0,28.0,-6.0,
1927.0,1709.0,28.0,-6.0,
1726.0,1920.0,28.0,-6.0,
1696.0,1601.0,28.0,-7.0,
1886.0,1991.0,27.0,-7.0,
2136.0,2204.0,27.0,-7.0,
2337.0,2355.0,27.0,-7.0,
2412.0,2525.0,27.0,-7.0,
2333.0,2244.0,27.0,-7.0,
2138.0,2226.0,27.0,-7.0,
1862.0,1841.0,27.0,-7.0,
1697.0,1759.0,27.0,-8.0,
1734.0,1824.0,27.0,-8.0,
1942.0,1860.0,24.0,-9.0,
2210.0,2419.0,25.0,-9.0,
2385.0,2185.0,13.0,-17.0,
2414.0,2334.0,23.0,-22.0,
2314.0,2379.0,27.0,-21.0,
2060.0,1997.0,41.0,-26.0,
1804.0,1613.0,47.0,-26.0,
1702.0,1914.0,47.0,-26.0,
1806.0,1895.0,40.0,-25.0,
2062.0,2125.0,40.0,-27.0,
2286.0,2134.0,46.0,-27.0,
2416.0,2370.0,37.0,-28.0,
2373.0,2107.0,54.0,-21.0,
2195.0,2101.0,57.0,-17.0,
1932.0,1883.0,48.0,-18.0,
1732.0,1754.0,44.0,-15.0,
1730.0,1795.0,58.0,-12.0,
1913.0,2176.0,62.0,-11.0,
2166.0,2222.0,86.0,-9.0,
2366.0,2364.0,99.0,0.0,
2427.0,2356.0,98.0,-1.0,
2327.0,2236.0,100.0,0.0,
2119.0,1853.0,86.0,-2.0,
1860.0,1662.0,54.0,-4.0,
1704.0,1743.0,62.0,-1.0,
1775.0,1866.0,56.0,-2.0,
2000.0,1911.0,48.0,-4.0,
2239.0,2287.0,47.0,-9.0,
2398.0,2403.0,41.0,-4.0,
2416.0,2518.0,39.0,-2.0,
2294.0,2357.0,36.0,-3.0,
2040.0,1786.0,42.0,0.0,
1779.0,1948.0,43.0,0.0,
1671.0,1914.0,53.0,2.0,
1787.0,1880.0,59.0,-2.0,
2022.0,2102.0,54.0,0.0,
2280.0,2282.0,47.0,-6.0,
2398.0,2364.0,52.0,1.0,
2353.0,2437.0,60.0,1.0,
2198.0,2277.0,63.0,0.0,
1914.0,1879.0,62.0,9.0,
1710.0,1732.0,68.0,12.0,
1661.0,1931.0,89.0,9.0,
1843.0,1924.0,107.0,9.0,
2100.0,1979.0,125.0,11.0,
2274.0,2291.0,133.0,5.0,
2378.0,2152.0,143.0,15.0,
2313.0,2057.0,144.0,23.0,
2093.0,1842.0,141.0,35.0,
1823.0,1997.0,142.0,35.0,
1678.0,1746.0,140.0,20.0,
1754.0,1867.0,127.0,27.0,
2011.0,2104.0,118.0,39.0,
2259.0,2129.0,87.0,38.0,
2422.0,2234.0,84.0,40.0,
2411.0,2538.0,66.0,46.0,
2263.0,1993.0,59.0,51.0,
1980.0,1946.0,64.0,47.0,
1763.0,1782.0,79.0,27.0,
1723.0,1629.0,73.0,47.0,
1900.0,2010.0,23.0,71.0,
2161.0,2055.0,101.0,56.0,
2365.0,2190.0,121.0,51.0,
2421.0,2377.0,157.0,54.0,
2336.0,2257.0,-157.0,66.0,
2106.0,2024.0,126.0,55.0,
1836.0,1640.0,101.0,46.0,
1690.0,1755.0,91.0,41.0,
1793.0,1873.0,93.0,36.0,
2021.0,2294.0,88.0,32.0,
2275.0,2149.0,88.0,34.0,
2418.0,2394.0,93.0,33.0,
2402.0,2324.0,102.0,32.0,
2243.0,2314.0,103.0,33.0,
1967.0,1730.0,103.0,35.0,
1753.0,1949.0,106.0,36.0,
1721.0,1837.0,103.0,44.0,
1922.0,1854.0,99.0,42.0,
2189.0,2239.0,97.0,48.0,
2377.0,2541.0,99.0,60.0,
2398.0,2153.0,94.0,57.0,
2274.0,2353.0,82.0,64.0,
2029.0,1764.0,45.0,60.0,
1755.0,1579.0,63.0,53.0,
1658.0,1754.0,69.0,49.0,
1798.0,1893.0,67.0,46.0,
2070.0,2142.0,79.0,39.0,
2304.0,2315.0,79.0,41.0,
2419.0,2364.0,78.0,38.0,
2346.0,2244.0,81.0,34.0,
2139.0,2239.0,81.0,31.0,
1862.0,1844.0,78.0,30.0,
1691.0,1743.0,80.0,29.0,
1756.0,1871.0,83.0,28.0,
1996.0,2262.0,85.0,27.0,
2252.0,2290.0,86.0,27.0,
2402.0,2202.0,86.0,26.0,
2397.0,2302.0,88.0,24.0,
2248.0,2154.0,87.0,23.0,
1970.0,1928.0,88.0,23.0,
1752.0,1761.0,89.0,22.0,
1700.0,1794.0,89.0,22.0,
1861.0,1786.0,88.0,22.0,
2111.0,2190.0,87.0,22.0,
2322.0,2153.0,87.0,22.0,
2438.0,2377.0,86.0,22.0,
2369.0,2265.0,86.0,23.0,
2170.0,2088.0,86.0,24.0,
1889.0,1859.0,87.0,25.0,
1709.0,1917.0,88.0,26.0,
1753.0,2012.0,88.0,28.0,
1967.0,2061.0,90.0,27.0,
2219.0,2082.0,90.0,26.0,
2395.0,2372.0,90.0,26.0,
2420.0,2471.0,91.0,25.0,
2283.0,2006.0,92.0,25.0,
2012.0,2125.0,92.0,24.0,
1771.0,1963.0,92.0,21.0,
1694.0,1760.0,92.0,21.0,
1826.0,1758.0,90.0,21.0,
2070.0,2150.0,89.0,20.0,
2298.0,2313.0,88.0,20.0,
2415.0,2556.0,87.0,21.0,
2366.0,2290.0,85.0,21.0,
2203.0,2293.0,84.0,21.0,
1940.0,2068.0,84.0,20.0,
1717.0,1759.0,85.0,23.0,
1693.0,1786.0,84.0,25.0,
1884.0,2168.0,81.0,26.0,
2170.0,2397.0,82.0,25.0,
2374.0,2353.0,81.0,27.0,
2424.0,2516.0,82.0,27.0,
2307.0,2048.0,80.0,27.0,
2057.0,1983.0,80.0,28.0,
1806.0,1793.0,77.0,27.0,
1690.0,1588.0,71.0,28.0,
1832.0,1951.0,69.0,24.0,
2078.0,2163.0,66.0,23.0,
2314.0,2331.0,63.0,21.0,
2422.0,2376.0,57.0,21.0,
2359.0,2444.0,56.0,19.0,
2181.0,1907.0,52.0,18.0,
1905.0,1686.0,53.0,17.0,
1710.0,1924.0,55.0,17.0,
1733.0,1860.0,58.0,20.0,
1931.0,2031.0,70.0,20.0,
2184.0,2049.0,84.0,27.0,
2363.0,2335.0,97.0,29.0,
2386.0,2479.0,104.0,32.0,
2252.0,1980.0,106.0,38.0,
2000.0,2085.0,98.0,38.0,
1735.0,1731.0,86.0,32.0,
1643.0,1717.0,76.0,26.0,
1788.0,1916.0,63.0,21.0,
2076.0,1983.0,54.0,17.0,
2308.0,2348.0,44.0,17.0,
2427.0,2409.0,35.0,8.0,
2378.0,2299.0,28.0,4.0,
2194.0,1928.0,38.0,5.0,
1929.0,1691.0,49.0,6.0,
1711.0,1559.0,58.0,10.0,
1702.0,1617.0,73.0,21.0,
1906.0,1842.0,88.0,28.0,
2189.0,2439.0,100.0,30.0,
2392.0,2577.0,103.0,30.0,
2442.0,2375.0,97.0,28.0,
2338.0,2234.0,87.0,27.0,
2130.0,1985.0,75.0,25.0,
1815.0,1781.0,66.0,22.0,
1698.0,1744.0,63.0,19.0,
1767.0,1704.0,62.0,19.0,
2026.0,2138.0,58.0,16.0,
2291.0,2338.0,55.0,14.0,
2438.0,2576.0,55.0,14.0,
2411.0,2328.0,57.0,15.0,
2253.0,1974.0,63.0,18.0,
1984.0,1724.0,69.0,20.0,
1736.0,1568.0,74.0,22.0,
1677.0,1930.0,74.0,23.0,
1834.0,1954.0,74.0,22.0,
2104.0,2167.0,71.0,22.0,
2322.0,2162.0,68.0,20.0,
2441.0,2212.0,66.0,19.0,
2378.0,2288.0,62.0,17.0,
2189.0,2060.0,59.0,16.0,
1912.0,1658.0,56.0,16.0,
1714.0,1707.0,54.0,16.0,
1701.0,1807.0,53.0,16.0,
1911.0,2003.0,55.0,17.0,
2171.0,2236.0,55.0,19.0,
2366.0,2388.0,57.0,20.0,
2458.0,2232.0,57.0,21.0,
2392.0,2293.0,55.0,22.0,
2182.0,2256.0,56.0,24.0,
1897.0,2025.0,57.0,24.0,
1722.0,1592.0,58.0,24.0,
1800.0,1715.0,60.0,23.0,
2034.0,2285.0,61.0,23.0,
2264.0,2276.0,61.0,22.0,
2402.0,2190.0,61.0,21.0,
2379.0,2299.0,61.0,21.0,
2242.0,2119.0,61.0,20.0,
1978.0,2075.0,61.0,19.0,
1737.0,1723.0,60.0,18.0,
1668.0,1578.0,59.0,17.0,
