2105.0,2114.0,66.0,-5.0,
2097.0,2129.0,66.0,-5.0,
2107.0,2098.0,67.0,-5.0,
2134.0,2119.0,67.0,-5.0,
2139.0,2107.0,67.0,-5.0,
2106.0,2145.0,67.0,-5.0,
2086.0,2035.0,67.0,-5.0,
2010.0,1937.0,67.0,-5.0,
2057.0,2027.0,67.0,-5.0,
2046.0,2064.0,67.0,-5.0,
2062.0,2088.0,67.0,-5.0,
2085.0,2081.0,67.0,-5.0,
2111.0,2086.0,67.0,-5.0,
2115.0,2087.0,67.0,-5.0,
2103.0,2088.0,67.0,-5.0,
2082.0,2060.0,67.0,-5.0,
2047.0,2087.0,67.0,-5.0,
2054.0,2086.0,67.0,-5.0,
2055.0,2033.0,67.0,-5.0,
2075.0,2054.0,67.0,-5.0,
2098.0,2148.0,67.0,-5.0,
2113.0,2114.0,67.0,-5.0,
2105.0,2112.0,67.0,-5.0,
2093.0,2076.0,67.0,-5.0,
2061.0,2015.0,67.0,-5.0,
2039.0,2037.0,67.0,-5.0,
2054.0,2070.0,67.0,-5.0,
2042.0,2015.0,67.0,-5.0,
2071.0,2038.0,67.0,-5.0,
2120.0,2115.0,67.0,-5.0,
2117.0,2142.0,67.0,-5.0,
2095.0,2027.0,67.0,-5.0,
2081.0,2105.0,67.0,-5.0,
2053.0,2073.0,67.0,-5.0,
2065.0,2085.0,67.0,-5.0,
2048.0,2067.0,67.0,-5.0,
2064.0,2089.0,67.0,-5.0,
2075.0,2086.0,67.0,-5.0,
2109.0,2112.0,67.0,-5.0,
2123.0,2059.0,67.0,-5.0,
2101.0,2082.0,67.0,-5.0,
2085.0,2091.0,67.0,-5.0,
2074.0,2081.0,67.0,-5.0,
2069.0,2133.0,67.0,-5.0,
2064.0,2087.0,67.0,-5.0,
2073.0,2072.0,67.0,-5.0,
2063.0,1977.0,67.0,-5.0,
2132.0,2099.0,67.0,-5.0,
2119.0,2029.0,67.0,-5.0,
2090.0,2064.0,67.0,-5.0,
2063.0,2097.0,68.0,-5.0,
2051.0,2011.0,68.0,-5.0,
2031.0,2012.0,68.0,-5.0,
2039.0,2015.0,68.0,-5.0,
2074.0,2064.0,68.0,-5.0,
2097.0,2090.0,68.0,-5.0,
2131.0,2115.0,68.0,-5.0,
2124.0,2118.0,68.0,-5.0,
2103.0,2115.0,68.0,-5.0,
2071.0,2095.0,67.0,-5.0,
2063.0,2121.0,67.0,-5.0,
2057.0,2074.0,67.0,-5.0,
2075.0,2020.0,0,
2077.0,2060.0,67.0,-5.0,
2116.0,2080.0,67.0,-5.0,
2112.0,2090.0,67.0,-5.0,
2117.0,2107.0,67.0,-5.0,
2097.0,2087.0,67.0,-5.0,
2058.0,2073.0,67.0,-5.0,
2047.0,2079.0,67.0,-5.0,
2046.0,2096.0,67.0,-5.0,
2069.0,2105.0,68.0,-5.0,
2099.0,2058.0,68.0,-5.0,
2107.0,2040.0,68.0,-5.0,
2087.0,2104.0,68.0,-5.0,
2092.0,2043.0,68.0,-5.0,
2140.0,2086.0,68.0,-5.0,
2072.0,2077.0,68.0,-5.0,
2047.0,2046.0,68.0,-5.0,
2059.0,2089.0,68.0,-5.0,
2067.0,2213.0,68.0,-5.0,
2109.0,2004.0,68.0,-5.0,
2102.0,1970.0,68.0,-5.0,
2095.0,1994.0,68.0,-5.0,
2119.0,2022.0,68.0,-5.0,
2086.0,2080.0,68.0,-5.0,
2059.0,2124.0,68.0,-5.0,
2056.0,1989.0,68.0,-5.0,
2061.0,2059.0,68.0,-5.0,
2074.0,2065.0,68.0,-5.0,
2115.0,2093.0,68.0,-5.0,
2122.0,2114.0,68.0,-5.0,
2119.0,2080.0,68.0,-5.0,
2110.0,2086.0,68.0,-4.0,
2088.0,2178.0,68.0,-4.0,
2083.0,2088.0,68.0,-5.0,
2028.0,2008.0,68.0,-5.0,
2036.0,2032.0,68.0,-5.0,
2087.0,2105.0,67.0,-5.0,
2109.0,2059.0,67.0,-5.0,
2105.0,2103.0,67.0,-5.0,
2119.0,2139.0,67.0,-4.0,
2112.0,2144.0,67.0,-5.0,
2052.0,1970.0,67.0,-5.0,
2044.0,2046.0,67.0,-5.0,
2057.0,2062.0,67.0,-5.0,
2068.0,2080.0,67.0,-5.0,
2073.0,2068.0,67.0,-5.0,
2110.0,2111.0,67.0,-4.0,
2130.0,2142.0,67.0,-4.0,
2134.0,2138.0,67.0,-4.0,
2096.0,2054.0,67.0,-4.0,
2030.0,2040.0,67.0,-4.0,
2057.0,2066.0,67.0,-4.0,
2048.0,2073.0,67.0,-4.0,
2076.0,2080.0,67.0,-4.0,
2082.0,2045.0,67.0,-4.0,
2107.0,2102.0,67.0,-4.0,
2110.0,2155.0,67.0,-4.0,
2108.0,2037.0,67.0,-4.0,
2100.0,2067.0,67.0,-4.0,
2059.0,2053.0,67.0,-4.0,
2048.0,2054.0,67.0,-4.0,
2071.0,2090.0,67.0,-4.0,
2084.0,2075.0,67.0,-4.0,
2106.0,2079.0,67.0,-4.0,
2124.0,2090.0,67.0,-5.0,
2114.0,2163.0,67.0,-5.0,
2120.0,2020.0,67.0,-5.0,
2091.0,2101.0,67.0,-5.0,
2028.0,1993.0,67.0,-5.0,
2051.0,2023.0,67.0,-5.0,
2069.0,2071.0,67.0,-5.0,
2075.0,2139.0,67.0,-5.0,
2083.0,2126.0,67.0,-5.0,
2112.0,2006.0,67.0,-5.0,
2128.0,2061.0,67.0,-5.0,
2108.0,2105.0,67.0,-5.0,
2083.0,2137.0,67.0,-5.0,
2049.0,2044.0,67.0,-5.0,
2040.0,2050.0,67.0,-5.0,
2040.0,2069.0,67.0,-5.0,
2075.0,2074.0,67.0,-5.0,
2104.0,2100.0,67.0,-5.0,
2114.0,2107.0,67.0,-5.0,
2107.0,2121.0,67.0,-5.0,
2085.0,2114.0,67.0,-5.0,
2077.0,2128.0,68.0,-5.0,
2036.0,2082.0,68.0,-5.0,
2049.0,2021.0,68.0,-5.0,
2064.0,2071.0,68.0,-5.0,
2090.0,2103.0,68.0,-5.0,
2114.0,2055.0,68.0,-5.0,
2116.0,2080.0,68.0,-5.0,
2115.0,2105.0,68.0,-5.0,
2083.0,2048.0,68.0,-5.0,
2066.0,2043.0,68.0,-5.0,
2059.0,2090.0,68.0,-5.0,
2041.0,2088.0,68.0,-5.0,
2077.0,2059.0,68.0,-5.0,
2098.0,2044.0,68.0,-5.0,
2130.0,2038.0,68.0,-5.0,
2101.0,2062.0,68.0,-5.0,
2106.0,2119.0,68.0,-5.0,
2077.0,2092.0,68.0,-5.0,
2047.0,2002.0,68.0,-5.0,
2054.0,2063.0,68.0,-5.0,
2045.0,2054.0,68.0,-5.0,
2060.0,2092.0,68.0,-5.0,
2104.0,2176.0,68.0,-5.0,
2110.0,2082.0,68.0,-4.0,
2106.0,2051.0,68.0,-4.0,
2088.0,2065.0,68.0,-4.0,
2075.0,2079.0,68.0,-5.0,
2057.0,2093.0,68.0,-5.0,
2065.0,2076.0,68.0,-5.0,
2063.0,2123.0,67.0,-5.0,
2075.0,2052.0,67.0,-5.0,
2090.0,2048.0,67.0,-5.0,
2118.0,2127.0,67.0,-5.0,
2123.0,2115.0,67.0,-5.0,
2080.0,2063.0,67.0,-5.0,
2081.0,2106.0,67.0,-5.0,
2059.0,2024.0,67.0,-5.0,
2047.0,2047.0,67.0,-5.0,
2058.0,2025.0,67.0,-5.0,
2092.0,2067.0,67.0,-5.0,
2110.0,2121.0,67.0,-5.0,
2100.0,2055.0,67.0,-5.0,
2115.0,2037.0,67.0,-5.0,
2095.0,2077.0,67.0,-5.0,
2068.0,2082.0,67.0,-5.0,
2060.0,2087.0,67.0,-5.0,
2050.0,2078.0,67.0,-5.0,
2080.0,2104.0,67.0,-5.0,
2101.0,2195.0,67.0,-5.0,
2108.0,2058.0,67.0,-5.0,
2108.0,2029.0,67.0,-5.0,
2111.0,2052.0,67.0,-5.0,
2070.0,2083.0,67.0,-5.0,
2061.0,2089.0,67.0,-5.0,
2092.0,2124.0,67.0,-5.0,
2034.0,2052.0,67.0,-5.0,
2035.0,2039.0,67.0,-5.0,
2094.0,2095.0,67.0,-5.0,
2091.0,2055.0,67.0,-5.0,
2086.0,2079.0,67.0,-5.0,
2101.0,2064.0,67.0,-5.0,
2082.0,2084.0,67.0,-5.0,
2057.0,2049.0,67.0,-5.0,
2066.0,2094.0,67.0,-5.0,
2058.0,2042.0,67.0,-5.0,
2088.0,2069.0,68.0,-5.0,
2102.0,2084.0,68.0,-5.0,
2122.0,2096.0,68.0,-5.0,
2136.0,2125.0,68.0,-5.0,
2091.0,2084.0,68.0,-5.0,
2083.0,2075.0,68.0,-5.0,
2041.0,2079.0,68.0,-5.0,
2054.0,2076.0,68.0,-5.0,
2060.0,2102.0,68.0,-5.0,
2108.0,2113.0,68.0,-5.0,
2103.0,2040.0,68.0,-5.0,
2132.0,2017.0,68.0,-5.0,
2126.0,2062.0,68.0,-5.0,
2084.0,2100.0,68.0,-5.0,
2067.0,2121.0,68.0,-5.0,
2065.0,2042.0,68.0,-5.0,
2033.0,2026.0,68.0,-5.0,
2044.0,2062.0,68.0,-5.0,
2081.0,2104.0,68.0,-5.0,
2127.0,2101.0,68.0,-5.0,
2106.0,2097.0,68.0,-5.0,
2087.0,2097.0,68.0,-5.0,
2079.0,2067.0,68.0,-5.0,
2042.0,2063.0,68.0,-5.0,
2054.0,2074.0,68.0,-5.0,
2061.0,2101.0,68.0,-5.0,
2089.0,2105.0,68.0,-5.0,
2081.0,2093.0,68.0,-5.0,
2101.0,2085.0,68.0,-5.0,
2118.0,2065.0,68.0,-5.0,
2093.0,2148.0,68.0,-5.0,
2069.0,2128.0,68.0,-5.0,
2045.0,2012.0,68.0,-5.0,
2059.0,2037.0,68.0,-5.0,
2063.0,2000.0,68.0,-5.0,
2075.0,2075.0,0,
2094.0,2051.0,68.0,-5.0,
2122.0,2096.0,68.0,-5.0,
2114.0,2130.0,68.0,-5.0,
2103.0,2059.0,68.0,-5.0,
2065.0,2046.0,68.0,-5.0,
2058.0,2099.0,68.0,-5.0,
2036.0,2017.0,68.0,-5.0,
2067.0,2083.0,0,
2083.0,2102.0,68.0,-5.0,
2108.0,2097.0,68.0,-5.0,
2105.0,2118.0,68.0,-5.0,
2107.0,2124.0,68.0,-5.0,
2095.0,2115.0,68.0,-5.0,
2061.0,2055.0,68.0,-5.0,
2066.0,2085.0,68.0,-5.0,
2033.0,2047.0,68.0,-5.0,
2086.0,2063.0,68.0,-5.0,
2085.0,2080.0,68.0,-5.0,
2115.0,2109.0,68.0,-5.0,
2117.0,2114.0,68.0,-5.0,
2114.0,2055.0,68.0,-5.0,
2063.0,2065.0,68.0,-5.0,
2066.0,2096.0,68.0,-5.0,
2048.0,2061.0,68.0,-5.0,
2064.0,2090.0,68.0,-5.0,
2058.0,1977.0,67.0,-5.0,
2090.0,2046.0,68.0,-5.0,
2106.0,2094.0,67.0,-5.0,
2114.0,2081.0,67.0,-5.0,
2115.0,2090.0,67.0,-5.0,
2092.0,2102.0,67.0,-5.0,
2053.0,2050.0,67.0,-5.0,
2047.0,2093.0,67.0,-5.0,
2056.0,2070.0,67.0,-5.0,
2073.0,2031.0,67.0,-5.0,
2106.0,2124.0,67.0,-5.0,
2114.0,2107.0,67.0,-5.0,
2118.0,2067.0,67.0,-5.0,
2085.0,2113.0,67.0,-5.0,
2088.0,2042.0,67.0,-5.0,
2046.0,1996.0,67.0,-5.0,
2062.0,2063.0,67.0,-5.0,
2052.0,2054.0,67.0,-5.0,
2067.0,2081.0,67.0,-5.0,
2105.0,2098.0,67.0,-5.0,
2115.0,2095.0,68.0,-5.0,
2095.0,2156.0,68.0,-5.0,
2070.0,2103.0,68.0,-5.0,
2079.0,2075.0,68.0,-5.0,
2057.0,2078.0,68.0,-5.0,
2050.0,2095.0,68.0,-5.0,
2083.0,2074.0,68.0,-5.0,
2093.0,2102.0,68.0,-5.0,
2117.0,2108.0,68.0,-5.0,
2114.0,2082.0,68.0,-5.0,
2103.0,2115.0,68.0,-5.0,
2091.0,2120.0,68.0,-5.0,
2023.0,2118.0,68.0,-5.0,
2036.0,1995.0,68.0,-5.0,
2063.0,1999.0,68.0,-5.0,
2061.0,2059.0,68.0,-5.0,
2087.0,2084.0,67.0,-5.0,
2103.0,2083.0,67.0,-5.0,
2093.0,2079.0,67.0,-5.0,
2100.0,2064.0,67.0,-5.0,
2076.0,2087.0,67.0,-5.0,
2062.0,2095.0,67.0,-5.0,
2053.0,2064.0,67.0,-5.0,
2051.0,2038.0,67.0,-5.0,
2078.0,2078.0,68.0,-5.0,
2098.0,2120.0,68.0,-5.0,
2114.0,2060.0,68.0,-5.0,
2106.0,2096.0,68.0,-5.0,
2091.0,2061.0,68.0,-5.0,
2078.0,2043.0,68.0,-5.0,
2067.0,2097.0,68.0,-5.0,
2039.0,2031.0,68.0,-5.0,
2055.0,2062.0,68.0,-5.0,
2081.0,2074.0,68.0,-5.0,
2106.0,2092.0,68.0,-5.0,
2113.0,2079.0,68.0,-5.0,
2109.0,2050.0,68.0,-5.0,
2103.0,2069.0,68.0,-5.0,
2069.0,2083.0,68.0,-5.0,
2060.0,2083.0,68.0,-5.0,
2072.0,2042.0,68.0,-5.0,
2071.0,2060.0,68.0,-5.0,
2096.0,2079.0,68.0,-5.0,
2120.0,2102.0,68.0,-5.0,
2130.0,2111.0,68.0,-5.0,
2110.0,2081.0,68.0,-5.0,
2081.0,2099.0,68.0,-5.0,
2064.0,2099.0,68.0,-5.0,
2046.0,2076.0,68.0,-5.0,
2041.0,2140.0,68.0,-5.0,
2082.0,2062.0,68.0,-5.0,
2116.0,2085.0,68.0,-5.0,
2108.0,2138.0,68.0,-5.0,
2081.0,1979.0,68.0,-5.0,
2098.0,2053.0,68.0,-5.0,
2082.0,2085.0,68.0,-5.0,
2058.0,2113.0,68.0,-5.0,
2037.0,2014.0,68.0,-5.0,
2052.0,2048.0,68.0,-5.0,
2082.0,2057.0,68.0,-5.0,
2092.0,2079.0,68.0,-5.0,
2113.0,2098.0,68.0,-5.0,
2117.0,2099.0,68.0,-5.0,
2094.0,2073.0,68.0,-5.0,
2089.0,2082.0,68.0,-5.0,
2053.0,2085.0,68.0,-5.0,
2060.0,2075.0,68.0,-5.0,
2042.0,2052.0,68.0,-4.0,
2065.0,2082.0,68.0,-5.0,
2120.0,2086.0,68.0,-5.0,
2096.0,2079.0,68.0,-5.0,
2100.0,2100.0,68.0,-5.0,
2095.0,2064.0,67.0,-5.0,
2072.0,2074.0,68.0,-5.0,
2059.0,2075.0,68.0,-5.0,
2046.0,2072.0,68.0,-5.0,
2055.0,2056.0,68.0,-5.0,
2093.0,2100.0,68.0,-5.0,
2123.0,2143.0,68.0,-5.0,
2134.0,2079.0,68.0,-5.0,
2102.0,2034.0,68.0,-5.0,
2088.0,2091.0,68.0,-5.0,
2084.0,1989.0,68.0,-5.0,
2077.0,2058.0,68.0,-5.0,
2081.0,2166.0,68.0,-5.0,
2057.0,1961.0,68.0,-5.0,
2065.0,2018.0,67.0,-5.0,
2127.0,2133.0,68.0,-5.0,
2125.0,2028.0,67.0,-5.0,
2098.0,2040.0,68.0,-5.0,
2082.0,2098.0,67.0,-5.0,
2054.0,2107.0,67.0,-5.0,
2070.0,2140.0,67.0,-5.0,
2051.0,2070.0,67.0,-5.0,
2048.0,2036.0,67.0,-5.0,
2068.0,2089.0,67.0,-5.0,
2110.0,2103.0,67.0,-5.0,
2105.0,2121.0,67.0,-5.0,
2087.0,2092.0,67.0,-5.0,
2080.0,2076.0,67.0,-5.0,
2053.0,2078.0,67.0,-5.0,
2047.0,2084.0,67.0,-5.0,
2060.0,2051.0,67.0,-5.0,
2079.0,2084.0,67.0,-5.0,
2107.0,2092.0,67.0,-5.0,
2126.0,2097.0,67.0,-5.0,
2104.0,2095.0,67.0,-5.0,
2100.0,2091.0,67.0,-5.0,
2083.0,2081.0,67.0,-5.0,
2052.0,2056.0,67.0,-5.0,
2052.0,2070.0,67.0,-5.0,
2068.0,2084.0,67.0,-5.0,
2098.0,2123.0,67.0,-5.0,
2116.0,2078.0,67.0,-5.0,
2105.0,2057.0,67.0,-5.0,
2092.0,2060.0,67.0,-5.0,
2079.0,2088.0,67.0,-5.0,
2078.0,2093.0,67.0,-5.0,
2050.0,2194.0,67.0,-5.0,
2038.0,1947.0,67.0,-5.0,
2060.0,1944.0,67.0,-5.0,
2080.0,2017.0,67.0,-5.0,
2106.0,2051.0,67.0,-5.0,
2115.0,2077.0,67.0,-5.0,
2108.0,2079.0,67.0,-5.0,
2090.0,2080.0,67.0,-5.0,
2064.0,2078.0,68.0,-5.0,
2063.0,2107.0,68.0,-5.0,
2084.0,2099.0,68.0,-5.0,
2070.0,2089.0,68.0,-5.0,
2080.0,2031.0,68.0,-5.0,
2103.0,2114.0,68.0,-5.0,
2128.0,2136.0,68.0,-5.0,
2097.0,2024.0,68.0,-5.0,
2081.0,2053.0,68.0,-5.0,
2081.0,2121.0,68.0,-5.0,
2049.0,2074.0,68.0,-5.0,
2064.0,2040.0,68.0,-5.0,
2076.0,2079.0,68.0,-5.0,
2101.0,2084.0,68.0,-5.0,
2137.0,2052.0,68.0,-5.0,
2120.0,2113.0,68.0,-5.0,
2113.0,2122.0,68.0,-5.0,
2065.0,2023.0,68.0,-5.0,
2035.0,2064.0,68.0,-5.0,
2056.0,2073.0,68.0,-5.0,
2063.0,2061.0,68.0,-5.0,
2106.0,2173.0,68.0,-5.0,
2086.0,1927.0,68.0,-5.0,
2115.0,2047.0,68.0,-5.0,
2129.0,2093.0,0,
2091.0,2039.0,68.0,-5.0,
2070.0,2080.0,68.0,-5.0,
2047.0,2074.0,68.0,-5.0,
2048.0,2057.0,68.0,-5.0,
2055.0,2090.0,68.0,-5.0,
2087.0,2137.0,68.0,-5.0,
2110.0,2099.0,68.0,-5.0,
2114.0,2129.0,68.0,-5.0,
2112.0,2041.0,68.0,-5.0,
2078.0,2077.0,68.0,-5.0,
2067.0,2077.0,68.0,-5.0,
2056.0,2085.0,68.0,-5.0,
2037.0,2052.0,68.0,-5.0,
2072.0,2085.0,68.0,-5.0,
2106.0,2074.0,68.0,-5.0,
2112.0,2093.0,68.0,-5.0,
2131.0,2111.0,68.0,-5.0,
2118.0,2122.0,68.0,-5.0,
2096.0,2072.0,67.0,-5.0,
2066.0,2066.0,67.0,-5.0,
2050.0,1994.0,67.0,-5.0,
2028.0,2024.0,67.0,-5.0,
2062.0,2057.0,67.0,-5.0,
2094.0,2075.0,67.0,-5.0,
2117.0,2078.0,67.0,-5.0,
2116.0,2080.0,68.0,-5.0,
2121.0,2086.0,68.0,-5.0,
2080.0,2101.0,68.0,-5.0,
2052.0,2072.0,68.0,-5.0,
2046.0,2040.0,68.0,-5.0,
2056.0,2072.0,68.0,-5.0,
2074.0,2067.0,68.0,-5.0,
2114.0,2066.0,68.0,-5.0,
2122.0,2141.0,68.0,-4.0,
2117.0,2140.0,68.0,-4.0,
2102.0,2070.0,68.0,-5.0,
2105.0,2023.0,68.0,-5.0,
2024.0,2015.0,68.0,-5.0,
2052.0,2036.0,68.0,-5.0,
2047.0,2052.0,68.0,-5.0,
2109.0,2095.0,68.0,-5.0,
2111.0,2118.0,68.0,-5.0,
2113.0,2053.0,68.0,-5.0,
2110.0,2058.0,68.0,-5.0,
2087.0,2141.0,68.0,-5.0,
2074.0,2097.0,68.0,-5.0,
2051.0,2068.0,68.0,-5.0,
2059.0,2084.0,68.0,-5.0,
2080.0,2091.0,68.0,-5.0,
2091.0,2042.0,68.0,-5.0,
2096.0,2062.0,68.0,-5.0,
2111.0,2014.0,68.0,-5.0,
2108.0,2074.0,68.0,-5.0,
2072.0,2107.0,68.0,-5.0,
2062.0,2145.0,68.0,-5.0,
2063.0,2038.0,68.0,-5.0,
2038.0,2033.0,68.0,-5.0,
2063.0,2070.0,68.0,-5.0,
2082.0,2091.0,68.0,-5.0,
2119.0,2123.0,68.0,-4.0,
2120.0,2119.0,68.0,-4.0,
2092.0,2071.0,68.0,-5.0,
2069.0,2151.0,68.0,-5.0,
2049.0,1987.0,68.0,-4.0,
2019.0,2061.0,68.0,-4.0,
2035.0,2077.0,67.0,-5.0,
2082.0,2096.0,67.0,-4.0,
2091.0,2122.0,67.0,-5.0,
2114.0,2097.0,67.0,-5.0,
2112.0,2083.0,67.0,-5.0,
2106.0,2072.0,67.0,-5.0,
2072.0,2072.0,67.0,-5.0,
2079.0,2098.0,67.0,-5.0,
2084.0,2096.0,67.0,-5.0,
2058.0,2096.0,67.0,-5.0,
2083.0,2062.0,67.0,-5.0,
2111.0,2051.0,67.0,-5.0,
2130.0,2099.0,67.0,-5.0,
2117.0,2087.0,67.0,-5.0,
2108.0,2094.0,67.0,-5.0,
2071.0,2049.0,67.0,-5.0,
2040.0,2068.0,67.0,-5.0,
2057.0,2086.0,67.0,-4.0,
2056.0,2063.0,67.0,-4.0,
2082.0,2070.0,68.0,-4.0,
2104.0,2066.0,68.0,-4.0,
2145.0,2114.0,67.0,-4.0,
2118.0,2100.0,67.0,-4.0,
2090.0,2079.0,67.0,-4.0,
2069.0,2070.0,68.0,-4.0,
2053.0,2009.0,68.0,-5.0,
2047.0,2112.0,67.0,-5.0,
2077.0,2054.0,68.0,-5.0,
2066.0,2024.0,68.0,-5.0,
2103.0,2093.0,68.0,-5.0,
2102.0,2073.0,68.0,-5.0,
2091.0,2053.0,68.0,-5.0,
2069.0,2077.0,68.0,-5.0,
2051.0,2095.0,68.0,-5.0,
2065.0,2107.0,68.0,-5.0,
2053.0,2006.0,68.0,-5.0,
2066.0,2069.0,68.0,-5.0,
2100.0,2102.0,68.0,-5.0,
2143.0,2181.0,68.0,-5.0,
2149.0,2091.0,68.0,-4.0,
2107.0,2051.0,68.0,-5.0,
2074.0,2060.0,68.0,-5.0,
2032.0,2074.0,68.0,-5.0,
2032.0,2013.0,68.0,-5.0,
2052.0,1991.0,68.0,-4.0,
2068.0,2061.0,68.0,-5.0,
2105.0,2089.0,68.0,-5.0,
2118.0,2154.0,67.0,-5.0,
2125.0,2071.0,67.0,-5.0,
2098.0,2048.0,67.0,-5.0,
2077.0,2083.0,67.0,-5.0,
2066.0,2083.0,67.0,-5.0,
2056.0,2075.0,67.0,-5.0,
2068.0,2080.0,67.0,-5.0,
2103.0,2091.0,67.0,-5.0,
2115.0,2104.0,67.0,-5.0,
2123.0,2110.0,67.0,-5.0,
2124.0,2092.0,67.0,-5.0,
2107.0,2090.0,67.0,-5.0,
2071.0,2070.0,67.0,-5.0,
2061.0,2088.0,67.0,-5.0,
2063.0,2063.0,67.0,-5.0,
2059.0,2079.0,67.0,-5.0,
2074.0,2072.0,67.0,-5.0,
2104.0,2096.0,67.0,-4.0,
2103.0,2126.0,67.0,-4.0,
2096.0,2086.0,68.0,-4.0,
2073.0,2025.0,68.0,-4.0,
2064.0,2072.0,68.0,-4.0,
2040.0,2099.0,68.0,-4.0,
2040.0,2014.0,68.0,-4.0,
2053.0,2077.0,67.0,-4.0,
2062.0,2063.0,68.0,-4.0,
2109.0,2135.0,68.0,-4.0,
2149.0,2228.0,68.0,-4.0,
2057.0,1991.0,68.0,-4.0,
2034.0,1985.0,68.0,-4.0,
2036.0,2097.0,68.0,-4.0,
2048.0,2073.0,68.0,-4.0,
2044.0,2013.0,68.0,-4.0,
2073.0,2040.0,68.0,-4.0,
2111.0,2118.0,68.0,-4.0,
2119.0,2129.0,68.0,-4.0,
2137.0,2106.0,68.0,-4.0,
2091.0,2127.0,68.0,-4.0,
2069.0,1985.0,68.0,-4.0,
2065.0,2023.0,68.0,-4.0,
2049.0,2077.0,68.0,-4.0,
2053.0,2072.0,68.0,-4.0,
2084.0,2048.0,68.0,-5.0,
2087.0,2063.0,68.0,-5.0,
2125.0,2123.0,67.0,-5.0,
2122.0,2151.0,67.0,-5.0,
2087.0,2043.0,67.0,-5.0,
2080.0,2079.0,67.0,-5.0,
2089.0,2121.0,67.0,-5.0,
2056.0,2042.0,67.0,-5.0,
2039.0,2093.0,67.0,-5.0,
2096.0,2050.0,67.0,-5.0,
2104.0,2060.0,67.0,-5.0,
2097.0,2125.0,67.0,-5.0,
2103.0,2069.0,67.0,-5.0,
2073.0,2070.0,67.0,-5.0,
2055.0,2060.0,67.0,-5.0,
2059.0,2061.0,67.0,-5.0,
2053.0,2066.0,67.0,-5.0,
2060.0,2083.0,67.0,-5.0,
2092.0,2092.0,67.0,-5.0,
2118.0,2104.0,67.0,-5.0,
2109.0,2137.0,67.0,-5.0,
2090.0,2123.0,67.0,-5.0,
2070.0,2062.0,67.0,-5.0,
2075.0,2029.0,67.0,-5.0,
2043.0,2049.0,67.0,-5.0,
2047.0,2097.0,67.0,-5.0,
2077.0,2074.0,67.0,-5.0,
2091.0,2119.0,67.0,-5.0,
2116.0,2095.0,67.0,-5.0,
2103.0,2109.0,67.0,-5.0,
2101.0,2012.0,67.0,-5.0,
2071.0,2026.0,67.0,-5.0,
2085.0,2148.0,67.0,-5.0,
2108.0,2160.0,68.0,-5.0,
2057.0,2022.0,68.0,-5.0,
2052.0,1974.0,68.0,-5.0,
2088.0,2071.0,68.0,-5.0,
2097.0,1976.0,68.0,-5.0,
2115.0,2086.0,68.0,-5.0,
2095.0,2061.0,68.0,-5.0,
2068.0,2090.0,68.0,-5.0,
2075.0,2015.0,68.0,-5.0,
2052.0,2122.0,68.0,-5.0,
2047.0,2054.0,68.0,-5.0,
2040.0,2141.0,68.0,-5.0,
2112.0,2174.0,68.0,-5.0,
2116.0,2111.0,68.0,-5.0,
2081.0,2047.0,68.0,-5.0,
2068.0,2098.0,68.0,-5.0,
2063.0,2137.0,68.0,-5.0,
2042.0,2034.0,68.0,-5.0,
2031.0,1980.0,68.0,-5.0,
2046.0,2065.0,68.0,-5.0,
2111.0,2015.0,68.0,-5.0,
2180.0,2063.0,68.0,-5.0,
2160.0,2107.0,68.0,-5.0,
2145.0,2100.0,68.0,-5.0,
2081.0,2186.0,68.0,-5.0,
2047.0,2057.0,68.0,-5.0,
2036.0,2005.0,68.0,-5.0,
2029.0,2101.0,68.0,-5.0,
2056.0,2046.0,68.0,-5.0,
2122.0,2095.0,68.0,-5.0,
2134.0,2172.0,67.0,-5.0,
2152.0,2085.0,67.0,-5.0,
2039.0,1950.0,67.0,-5.0,
2012.0,2078.0,67.0,-5.0,
2055.0,2104.0,67.0,-5.0,
2040.0,2059.0,67.0,-5.0,
2020.0,2073.0,67.0,-5.0,
2078.0,2169.0,67.0,-5.0,
2109.0,2095.0,67.0,-5.0,
2118.0,2109.0,67.0,-5.0,
2099.0,2024.0,67.0,-5.0,
2047.0,2076.0,67.0,-5.0,
2063.0,1992.0,67.0,-5.0,
2212.0,2073.0,67.0,-5.0,
2123.0,2124.0,67.0,-5.0,
2099.0,2176.0,67.0,-5.0,
2120.0,1964.0,67.0,-5.0,
2097.0,2075.0,67.0,-5.0,
2081.0,2065.0,67.0,-5.0,
2114.0,2167.0,67.0,-5.0,
2086.0,2163.0,67.0,-5.0,
1957.0,1915.0,67.0,-5.0,
2015.0,2058.0,67.0,-5.0,
2100.0,2004.0,67.0,-5.0,
2101.0,2128.0,67.0,-5.0,
2110.0,2119.0,67.0,-5.0,
2186.0,2087.0,67.0,-5.0,
2186.0,2172.0,67.0,-5.0,
2170.0,1981.0,67.0,-5.0,
2109.0,2070.0,67.0,-5.0,
2066.0,2111.0,67.0,-5.0,
2024.0,2084.0,67.0,-5.0,
2013.0,2206.0,67.0,-5.0,
2056.0,2109.0,67.0,-5.0,
2015.0,1970.0,67.0,-5.0,
2076.0,2049.0,0,
2113.0,2091.0,67.0,-5.0,
2076.0,2100.0,67.0,-5.0,
2058.0,2035.0,67.0,-5.0,
2066.0,2056.0,67.0,-5.0,
1993.0,2007.0,67.0,-5.0,
2046.0,2036.0,67.0,-5.0,
2073.0,2104.0,67.0,-5.0,
2079.0,2073.0,67.0,-5.0,
2106.0,2153.0,67.0,-4.0,
2121.0,2197.0,67.0,-5.0,
2084.0,2201.0,67.0,-5.0,
2072.0,1932.0,67.0,-5.0,
2069.0,2018.0,67.0,-5.0,
2035.0,2022.0,67.0,-5.0,
2041.0,2072.0,67.0,-5.0,
2071.0,2153.0,67.0,-4.0,
2036.0,1986.0,67.0,-4.0,
2095.0,2134.0,67.0,-4.0,
2073.0,2026.0,67.0,-4.0,
2069.0,2038.0,67.0,-4.0,
2058.0,2036.0,67.0,-4.0,
2051.0,2080.0,67.0,-4.0,
2097.0,2035.0,67.0,-4.0,
2115.0,2093.0,67.0,-4.0,
2127.0,2150.0,68.0,-4.0,
2097.0,2134.0,68.0,-4.0,
2153.0,2124.0,68.0,-4.0,
2133.0,2008.0,68.0,-5.0,
2091.0,2061.0,68.0,-5.0,
2116.0,2095.0,68.0,-5.0,
2031.0,2068.0,68.0,-5.0,
2071.0,2150.0,68.0,-5.0,
2074.0,2166.0,69.0,-5.0,
2043.0,2044.0,69.0,-5.0,
2124.0,2000.0,69.0,-5.0,
2158.0,2046.0,69.0,-5.0,
2143.0,2037.0,69.0,-5.0,
2125.0,2207.0,70.0,-5.0,
2068.0,1912.0,70.0,-5.0,
2061.0,1964.0,70.0,-5.0,
2105.0,2250.0,70.0,-5.0,
2110.0,1971.0,70.0,-5.0,
2118.0,1914.0,70.0,-5.0,
2129.0,2070.0,70.0,-5.0,
2159.0,2167.0,71.0,-5.0,
2096.0,2099.0,71.0,-5.0,
2059.0,2087.0,71.0,-5.0,
2028.0,2075.0,71.0,-5.0,
1946.0,2040.0,71.0,-5.0,
2036.0,2007.0,71.0,-5.0,
2095.0,2200.0,71.0,-5.0,
2105.0,2176.0,71.0,-5.0,
2145.0,2365.0,71.0,-5.0,
1965.0,1773.0,71.0,-5.0,
2058.0,1921.0,71.0,-5.0,
2107.0,2042.0,71.0,-5.0,
2070.0,2084.0,71.0,-5.0,
2026.0,2164.0,71.0,-5.0,
2039.0,2188.0,72.0,-5.0,
2080.0,2088.0,72.0,-4.0,
2128.0,2085.0,72.0,-5.0,
2110.0,2052.0,72.0,-5.0,
2088.0,1995.0,72.0,-5.0,
2099.0,2019.0,72.0,-5.0,
2056.0,2177.0,72.0,-5.0,
2065.0,2207.0,73.0,-5.0,
2134.0,2189.0,73.0,-5.0,
2038.0,1875.0,73.0,-5.0,
2121.0,1978.0,73.0,-5.0,
2122.0,2052.0,73.0,-5.0,
2053.0,2073.0,73.0,-5.0,
2134.0,2160.0,73.0,-5.0,
2181.0,2071.0,74.0,-5.0,
2072.0,1952.0,74.0,-5.0,
2012.0,2126.0,74.0,-5.0,
2082.0,2085.0,74.0,-4.0,
2071.0,2104.0,74.0,-4.0,
2143.0,2086.0,75.0,-4.0,
2114.0,2198.0,75.0,-4.0,
2062.0,1898.0,75.0,-4.0,
2053.0,2088.0,75.0,-5.0,
2075.0,1997.0,75.0,-5.0,
2014.0,1984.0,75.0,-5.0,
2044.0,2109.0,76.0,-4.0,
2081.0,2242.0,76.0,-4.0,
2087.0,2138.0,76.0,-4.0,
2102.0,2082.0,77.0,-4.0,
2142.0,2139.0,77.0,-4.0,
2140.0,2086.0,78.0,-3.0,
2073.0,1988.0,78.0,-3.0,
2062.0,2216.0,78.0,-3.0,
2058.0,1945.0,79.0,-3.0,
2002.0,1921.0,79.0,-3.0,
2066.0,1963.0,79.0,-3.0,
2136.0,2017.0,79.0,-3.0,
2046.0,2060.0,79.0,-3.0,
2123.0,2250.0,80.0,-4.0,
2158.0,2235.0,80.0,-4.0,
2090.0,2057.0,80.0,-4.0,
2009.0,1986.0,80.0,-4.0,
2017.0,1970.0,80.0,-4.0,
2011.0,1950.0,81.0,-4.0,
2062.0,2174.0,81.0,-4.0,
2088.0,2172.0,81.0,-5.0,
2132.0,2310.0,82.0,-5.0,
2099.0,2093.0,82.0,-5.0,
2201.0,2091.0,82.0,-5.0,
2085.0,1978.0,82.0,-5.0,
2098.0,2013.0,83.0,-5.0,
2040.0,1961.0,83.0,-5.0,
2038.0,2191.0,83.0,-5.0,
2063.0,2211.0,83.0,-5.0,
2112.0,2069.0,84.0,-5.0,
2131.0,1962.0,84.0,-5.0,
2083.0,2172.0,84.0,-5.0,
2042.0,2156.0,84.0,-5.0,
2124.0,2225.0,84.0,-5.0,
2041.0,2001.0,84.0,-6.0,
2053.0,1986.0,84.0,-5.0,
1981.0,1843.0,85.0,-6.0,
2077.0,1942.0,85.0,-5.0,
2140.0,2089.0,85.0,-5.0,
2123.0,2239.0,85.0,-5.0,
2074.0,2165.0,86.0,-5.0,
2151.0,2086.0,86.0,-5.0,
1998.0,2157.0,86.0,-5.0,
2021.0,2315.0,86.0,-5.0,
2044.0,1737.0,86.0,-5.0,
2112.0,2004.0,87.0,-5.0,
2084.0,1983.0,87.0,-5.0,
2120.0,2059.0,87.0,-5.0,
2147.0,2134.0,87.0,-5.0,
2047.0,2336.0,88.0,-5.0,
2091.0,2074.0,88.0,-5.0,
2021.0,2110.0,88.0,-5.0,
2066.0,2023.0,88.0,-5.0,
2084.0,2279.0,88.0,-5.0,
2084.0,1994.0,89.0,-5.0,
2133.0,2102.0,89.0,-5.0,
2089.0,1963.0,89.0,-5.0,
2171.0,2171.0,89.0,-5.0,
2008.0,2027.0,89.0,-5.0,
2037.0,2182.0,89.0,-5.0,
2110.0,2022.0,89.0,-5.0,
2048.0,2070.0,89.0,-5.0,
2073.0,1895.0,90.0,-5.0,
2023.0,1820.0,90.0,-5.0,
2062.0,2112.0,90.0,-5.0,
2102.0,2619.0,90.0,-5.0,
2182.0,1899.0,91.0,-5.0,
2051.0,1798.0,91.0,-5.0,
2135.0,2046.0,91.0,-5.0,
2032.0,2130.0,91.0,-5.0,
2090.0,1958.0,91.0,-5.0,
2065.0,2068.0,92.0,-5.0,
1987.0,2016.0,92.0,-5.0,
2144.0,2203.0,92.0,-6.0,
2152.0,2076.0,92.0,-5.0,
2090.0,2008.0,92.0,-5.0,
2031.0,2174.0,92.0,-6.0,
2040.0,2122.0,92.0,-6.0,
2127.0,2283.0,93.0,-5.0,
1908.0,1958.0,93.0,-5.0,
2151.0,2094.0,93.0,-5.0,
2016.0,2111.0,94.0,-5.0,
2112.0,1978.0,94.0,-5.0,
2193.0,2078.0,94.0,-5.0,
2044.0,2006.0,94.0,-5.0,
2077.0,2039.0,94.0,-5.0,
2044.0,2042.0,94.0,-5.0,
2105.0,2125.0,95.0,-5.0,
2066.0,2291.0,95.0,-5.0,
2045.0,2320.0,95.0,-5.0,
2024.0,1570.0,95.0,-5.0,
2102.0,1711.0,96.0,-5.0,
2080.0,2035.0,96.0,-5.0,
2131.0,2254.0,96.0,-6.0,
2104.0,2372.0,96.0,-6.0,
2075.0,1825.0,97.0,-6.0,
2040.0,2035.0,97.0,-6.0,
2037.0,2226.0,97.0,-6.0,
2096.0,2102.0,98.0,-6.0,
2139.0,2622.0,98.0,-6.0,
2161.0,1861.0,98.0,-6.0,
2070.0,2185.0,98.0,-6.0,
2021.0,2031.0,99.0,-5.0,
2062.0,1937.0,99.0,-5.0,
2001.0,1829.0,99.0,-6.0,
2079.0,2183.0,99.0,-5.0,
2040.0,2038.0,100.0,-5.0,
2038.0,2161.0,100.0,-5.0,
2204.0,2594.0,100.0,-6.0,
2132.0,1800.0,100.0,-6.0,
2092.0,1644.0,101.0,-6.0,
2110.0,2292.0,101.0,-5.0,
2062.0,1992.0,101.0,-5.0,
2029.0,1934.0,101.0,-5.0,
2069.0,2414.0,101.0,-5.0,
2062.0,2022.0,102.0,-5.0,
2004.0,1980.0,102.0,-5.0,
2145.0,2316.0,102.0,-5.0,
2019.0,1864.0,102.0,-5.0,
2121.0,2435.0,102.0,-5.0,
2101.0,1875.0,102.0,-5.0,
2102.0,1758.0,102.0,-5.0,
2042.0,2177.0,102.0,-6.0,
1995.0,1990.0,103.0,-6.0,
2111.0,2235.0,103.0,-6.0,
2149.0,2406.0,103.0,-6.0,
2183.0,2137.0,103.0,-6.0,
1981.0,1836.0,104.0,-6.0,
2128.0,1827.0,104.0,-6.0,
2150.0,1957.0,104.0,-6.0,
2058.0,2196.0,104.0,-6.0,
1985.0,2403.0,104.0,-6.0,
2042.0,2063.0,104.0,-6.0,
1999.0,1689.0,105.0,-6.0,
2103.0,2040.0,105.0,-5.0,
2147.0,1768.0,105.0,-5.0,
2189.0,2024.0,105.0,-5.0,
2083.0,2091.0,105.0,-5.0,
2089.0,2214.0,105.0,-5.0,
2041.0,2330.0,106.0,-5.0,
2077.0,2198.0,106.0,-5.0,
2020.0,2044.0,106.0,-5.0,
2101.0,2425.0,106.0,-5.0,
2020.0,2113.0,106.0,-5.0,
2198.0,2008.0,106.0,-5.0,
2126.0,2184.0,107.0,-5.0,
2057.0,1846.0,107.0,-5.0,
2084.0,1904.0,107.0,-5.0,
2057.0,1881.0,107.0,-5.0,
2053.0,2837.0,107.0,-5.0,
2071.0,2039.0,107.0,-5.0,
2113.0,1781.0,107.0,-5.0,
2018.0,1802.0,107.0,-5.0,
2152.0,1857.0,107.0,-5.0,
2158.0,2277.0,107.0,-5.0,
2122.0,2044.0,107.0,-5.0,
2000.0,2028.0,107.0,-5.0,
1956.0,2517.0,107.0,-5.0,
2139.0,2634.0,107.0,-5.0,
2008.0,1894.0,108.0,-5.0,
2083.0,1480.0,108.0,-5.0,
2098.0,1745.0,108.0,-5.0,
2189.0,1985.0,108.0,-5.0,
2193.0,2163.0,108.0,-5.0,
2109.0,2125.0,108.0,-5.0,
1998.0,2004.0,108.0,-5.0,
2017.0,2288.0,109.0,-5.0,
2056.0,2478.0,109.0,-5.0,
1988.0,2025.0,109.0,-5.0,
2062.0,2206.0,109.0,-5.0,
2039.0,2135.0,109.0,-5.0,
2091.0,1656.0,109.0,-5.0,
2113.0,1828.0,109.0,-5.0,
2211.0,1942.0,109.0,-5.0,
1864.0,2193.0,109.0,-5.0,
1995.0,2435.0,109.0,-5.0,
2284.0,1897.0,110.0,-5.0,
2129.0,2339.0,110.0,-5.0,
2063.0,2094.0,110.0,-5.0,
2018.0,2359.0,110.0,-5.0,
2100.0,1709.0,110.0,-5.0,
2143.0,1920.0,110.0,-5.0,
2007.0,2412.0,110.0,-5.0,
2110.0,2119.0,110.0,-5.0,
1972.0,1748.0,110.0,-5.0,
1937.0,1971.0,110.0,-5.0,
2211.0,1881.0,110.0,-5.0,
2216.0,1861.0,110.0,-5.0,
2227.0,2301.0,110.0,-5.0,
2029.0,2802.0,111.0,-5.0,
1988.0,2450.0,111.0,-5.0,
2051.0,1308.0,111.0,-5.0,
2022.0,1872.0,111.0,-5.0,
2100.0,2277.0,111.0,-5.0,
2038.0,1772.0,111.0,-5.0,
2117.0,1865.0,111.0,-5.0,
2213.0,2226.0,112.0,-5.0,
2006.0,2604.0,112.0,-5.0,
2018.0,2312.0,112.0,-5.0,
1961.0,2080.0,112.0,-5.0,
2134.0,1557.0,112.0,-5.0,
2189.0,1821.0,112.0,-5.0,
2118.0,1826.0,112.0,-5.0,
2069.0,2285.0,112.0,-5.0,
1921.0,2612.0,113.0,-5.0,
2062.0,2138.0,113.0,-5.0,
2164.0,1549.0,113.0,-5.0,
2176.0,1715.0,113.0,-5.0,
1878.0,2093.0,113.0,-5.0,
2026.0,1930.0,113.0,-5.0,
2218.0,2492.0,113.0,-5.0,
2048.0,2153.0,113.0,-5.0,
2027.0,2117.0,113.0,-5.0,
2157.0,2461.0,113.0,-5.0,
2161.0,1712.0,113.0,-5.0,
2226.0,1737.0,113.0,-5.0,
2128.0,1903.0,113.0,-5.0,
1995.0,1971.0,113.0,-5.0,
2108.0,1958.0,113.0,-5.0,
2044.0,2191.0,113.0,-5.0,
2014.0,2370.0,113.0,-5.0,
2059.0,3119.0,113.0,-5.0,
1954.0,1825.0,113.0,-5.0,
2039.0,1634.0,113.0,-5.0,
2008.0,1669.0,112.0,-5.0,
2197.0,2042.0,112.0,-5.0,
2266.0,1859.0,112.0,-5.0,
2101.0,1692.0,112.0,-5.0,
2095.0,2155.0,112.0,-5.0,
2165.0,2637.0,112.0,-5.0,
2078.0,3255.0,112.0,-5.0,
1920.0,1383.0,112.0,-5.0,
2086.0,1456.0,112.0,-5.0,
2150.0,1751.0,113.0,-5.0,
2064.0,1905.0,113.0,-5.0,
2144.0,1876.0,113.0,-5.0,
2032.0,1984.0,113.0,-5.0,
2010.0,2444.0,113.0,-5.0,
2207.0,2488.0,114.0,-5.0,
1907.0,2730.0,114.0,-5.0,
1877.0,1858.0,114.0,-5.0,
2284.0,1340.0,114.0,-5.0,
2116.0,2058.0,114.0,-5.0,
2076.0,1847.0,114.0,-5.0,
2126.0,2270.0,114.0,-5.0,
2062.0,2304.0,114.0,-5.0,
2009.0,2445.0,114.0,-5.0,
2024.0,2259.0,114.0,-5.0,
2109.0,1428.0,114.0,-5.0,
2196.0,1743.0,114.0,-5.0,
2082.0,2973.0,114.0,-5.0,
1807.0,2225.0,115.0,-5.0,
2163.0,1719.0,115.0,-5.0,
1998.0,1560.0,115.0,-5.0,
2120.0,1748.0,115.0,-5.0,
2290.0,2136.0,115.0,-5.0,
2103.0,2074.0,115.0,-5.0,
2104.0,2110.0,115.0,-5.0,
2020.0,2352.0,115.0,-5.0,
2118.0,2196.0,115.0,-5.0,
2052.0,1804.0,115.0,-5.0,
2087.0,2015.0,116.0,-5.0,
2122.0,2553.0,116.0,-5.0,
2099.0,2122.0,116.0,-5.0,
1992.0,2699.0,116.0,-5.0,
1861.0,1568.0,115.0,-5.0,
2176.0,1395.0,115.0,-5.0,
2187.0,2081.0,115.0,-5.0,
2128.0,1976.0,115.0,-5.0,
2017.0,1987.0,115.0,-5.0,
2198.0,2289.0,116.0,-5.0,
2069.0,1848.0,116.0,-5.0,
1794.0,2832.0,116.0,-5.0,
2234.0,1763.0,116.0,-5.0,
2336.0,1636.0,116.0,-5.0,
2173.0,2171.0,116.0,-5.0,
1863.0,2102.0,116.0,-5.0,
1922.0,2081.0,116.0,-5.0,
1968.0,2522.0,116.0,-5.0,
2069.0,1711.0,116.0,-5.0,
2203.0,2082.0,116.0,-5.0,
2260.0,2166.0,116.0,-5.0,
2138.0,2460.0,116.0,-5.0,
1949.0,1859.0,116.0,-5.0,
2140.0,2324.0,116.0,-5.0,
2024.0,1362.0,116.0,-5.0,
2127.0,1855.0,116.0,-5.0,
2069.0,2047.0,116.0,-5.0,
1999.0,2484.0,116.0,-5.0,
2003.0,2310.0,116.0,-5.0,
2158.0,2834.0,117.0,-5.0,
1988.0,2795.0,116.0,-5.0,
2057.0,1012.0,116.0,-5.0,
2150.0,1715.0,116.0,-5.0,
2150.0,1900.0,116.0,-5.0,
2193.0,1900.0,116.0,-5.0,
1983.0,2232.0,116.0,-5.0,
2096.0,2080.0,117.0,-5.0,
2254.0,2684.0,117.0,-5.0,
2041.0,1957.0,117.0,-5.0,
1928.0,1978.0,116.0,-5.0,
2142.0,1945.0,116.0,-5.0,
2133.0,2061.0,116.0,-5.0,
1953.0,2427.0,117.0,-5.0,
2089.0,2397.0,117.0,-5.0,
2028.0,1871.0,117.0,-5.0,
2195.0,2167.0,117.0,-5.0,
2180.0,1755.0,117.0,-5.0,
2023.0,2061.0,117.0,-5.0,
2169.0,2067.0,117.0,-5.0,
2057.0,2075.0,117.0,-5.0,
2148.0,2532.0,117.0,-5.0,
1955.0,2470.0,117.0,-5.0,
2004.0,2023.0,117.0,-5.0,
2017.0,1608.0,117.0,-5.0,
2176.0,1796.0,117.0,-5.0,
2132.0,2041.0,117.0,-5.0,
2096.0,2068.0,117.0,-5.0,
2072.0,2111.0,117.0,-5.0,
2096.0,2174.0,117.0,-5.0,
2022.0,2585.0,117.0,-5.0,
2195.0,2438.0,117.0,-5.0,
2100.0,1553.0,117.0,-5.0,
1993.0,1829.0,117.0,-5.0,
2082.0,1960.0,117.0,-5.0,
2045.0,1838.0,117.0,-5.0,
2245.0,2109.0,117.0,-5.0,
2125.0,2066.0,117.0,-5.0,
2030.0,2433.0,117.0,-5.0,
1957.0,2432.0,117.0,-5.0,
1907.0,2264.0,117.0,-5.0,
2179.0,1250.0,117.0,-5.0,
2065.0,1982.0,117.0,-5.0,
2099.0,2007.0,117.0,-5.0,
2315.0,2380.0,117.0,-5.0,
1993.0,1522.0,117.0,-5.0,
2071.0,1803.0,117.0,-5.0,
2050.0,2068.0,117.0,-5.0,
2024.0,2020.0,117.0,-5.0,
2040.0,2145.0,117.0,-5.0,
2032.0,2456.0,117.0,-5.0,
1988.0,3196.0,117.0,-5.0,
2132.0,1587.0,116.0,-5.0,
2197.0,1816.0,116.0,-5.0,
2196.0,2125.0,116.0,-5.0,
2005.0,1793.0,116.0,-5.0,
2068.0,1995.0,116.0,-5.0,
2084.0,1958.0,116.0,-5.0,
2047.0,2431.0,116.0,-5.0,
2156.0,1915.0,116.0,-5.0,
2162.0,1993.0,116.0,-5.0,
2146.0,2428.0,116.0,-5.0,
2122.0,2018.0,116.0,-5.0,
1988.0,2173.0,116.0,-5.0,
2001.0,1904.0,116.0,-5.0,
2137.0,2217.0,116.0,-6.0,
1998.0,2158.0,116.0,-5.0,
2114.0,1877.0,116.0,-5.0,
2039.0,2101.0,116.0,-5.0,
2059.0,1876.0,116.0,-5.0,
2206.0,2141.0,116.0,-5.0,
2114.0,2227.0,116.0,-5.0,
2163.0,2031.0,116.0,-5.0,
2075.0,1878.0,116.0,-5.0,
1898.0,2012.0,116.0,-5.0,
2126.0,2158.0,116.0,-5.0,
2024.0,2297.0,116.0,-5.0,
2005.0,1522.0,116.0,-6.0,
2304.0,1764.0,116.0,-6.0,
2119.0,1820.0,116.0,-5.0,
2127.0,2524.0,116.0,-5.0,
2058.0,2660.0,116.0,-5.0,
2017.0,1626.0,116.0,-5.0,
2116.0,2219.0,116.0,-5.0,
1932.0,2367.0,116.0,-5.0,
1966.0,2346.0,116.0,-5.0,
2144.0,1618.0,116.0,-5.0,
2067.0,1861.0,116.0,-5.0,
2192.0,1752.0,116.0,-5.0,
2253.0,2179.0,116.0,-5.0,
2032.0,2421.0,116.0,-5.0,
1939.0,2254.0,116.0,-5.0,
1810.0,2619.0,116.0,-5.0,
2168.0,1244.0,116.0,-5.0,
2216.0,1705.0,116.0,-5.0,
2155.0,1896.0,116.0,-5.0,
2125.0,1974.0,116.0,-5.0,
2156.0,2117.0,116.0,-5.0,
2034.0,2546.0,116.0,-5.0,
2028.0,2266.0,116.0,-5.0,
1830.0,3090.0,116.0,-5.0,
1925.0,1483.0,116.0,-5.0,
2178.0,1739.0,116.0,-5.0,
2203.0,1684.0,116.0,-5.0,
2095.0,2397.0,116.0,-5.0,
2029.0,1857.0,116.0,-5.0,
2220.0,2159.0,116.0,-5.0,
2172.0,2112.0,116.0,-5.0,
2027.0,2041.0,116.0,-5.0,
2053.0,2127.0,116.0,-5.0,
2063.0,2231.0,116.0,-5.0,
1920.0,2286.0,116.0,-5.0,
2112.0,1973.0,116.0,-5.0,
2158.0,1829.0,116.0,-5.0,
2162.0,2091.0,116.0,-5.0,
2100.0,2245.0,116.0,-5.0,
1995.0,1856.0,116.0,-5.0,
2074.0,2060.0,117.0,-5.0,
2115.0,2017.0,117.0,-6.0,
2027.0,1819.0,117.0,-6.0,
2085.0,2036.0,117.0,-6.0,
2131.0,2430.0,117.0,-6.0,
2130.0,2241.0,117.0,-6.0,
2092.0,1747.0,117.0,-6.0,
2133.0,1784.0,117.0,-6.0,
2016.0,2182.0,117.0,-6.0,
2069.0,2166.0,117.0,-6.0,
2007.0,2594.0,117.0,-5.0,
2099.0,2328.0,117.0,-5.0,
1978.0,2179.0,117.0,-5.0,
2046.0,1655.0,117.0,-5.0,
2224.0,1924.0,117.0,-5.0,
2229.0,1930.0,117.0,-5.0,
2083.0,2040.0,117.0,-5.0,
2115.0,2164.0,117.0,-5.0,
2107.0,2144.0,117.0,-5.0,
1936.0,1872.0,117.0,-5.0,
2090.0,1910.0,117.0,-5.0,
2120.0,2133.0,117.0,-5.0,
2098.0,2392.0,117.0,-5.0,
2041.0,2062.0,116.0,-5.0,
2126.0,2019.0,116.0,-5.0,
2061.0,1922.0,116.0,-5.0,
2012.0,2388.0,116.0,-5.0,
2172.0,1868.0,116.0,-5.0,
1904.0,1687.0,116.0,-5.0,
2016.0,2669.0,116.0,-5.0,
2210.0,1824.0,116.0,-5.0,
2144.0,1889.0,116.0,-5.0,
2125.0,2086.0,116.0,-5.0,
2092.0,2038.0,116.0,-5.0,
2073.0,2185.0,116.0,-5.0,
2004.0,2327.0,117.0,-5.0,
2018.0,2098.0,117.0,-5.0,
2098.0,2035.0,117.0,-5.0,
2043.0,2212.0,117.0,-5.0,
2120.0,2039.0,117.0,-5.0,
2118.0,2019.0,117.0,-5.0,
2066.0,2456.0,117.0,-5.0,
2138.0,2199.0,117.0,-5.0,
2090.0,1757.0,117.0,-5.0,
2076.0,1790.0,117.0,-5.0,
2060.0,1992.0,117.0,-5.0,
2104.0,2095.0,117.0,-5.0,
2024.0,2234.0,117.0,-5.0,
2167.0,1947.0,117.0,-5.0,
2094.0,2107.0,117.0,-5.0,
2132.0,2256.0,116.0,-5.0,
1979.0,2038.0,116.0,-5.0,
2064.0,1905.0,117.0,-5.0,
2043.0,1985.0,116.0,-5.0,
2083.0,2085.0,116.0,-5.0,
2098.0,2125.0,116.0,-5.0,
2100.0,2152.0,116.0,-5.0,
2115.0,2067.0,116.0,-5.0,
2124.0,2177.0,116.0,-5.0,
2097.0,2116.0,116.0,-5.0,
2055.0,2087.0,116.0,-5.0,
2031.0,2081.0,116.0,-5.0,
2034.0,1992.0,116.0,-5.0,
2102.0,2014.0,116.0,-5.0,
2107.0,2237.0,116.0,-5.0,
2091.0,1933.0,116.0,-5.0,
2138.0,2080.0,116.0,-5.0,
2110.0,2131.0,116.0,-5.0,
2079.0,1957.0,116.0,-5.0,
2048.0,2058.0,116.0,-5.0,
2039.0,2132.0,116.0,-5.0,
2052.0,1954.0,116.0,-5.0,
2122.0,2103.0,116.0,-5.0,
2100.0,2141.0,116.0,-5.0,
2126.0,2198.0,116.0,-5.0,
2109.0,2272.0,115.0,-5.0,
2099.0,2238.0,115.0,-5.0,
2062.0,1892.0,115.0,-5.0,
2095.0,2047.0,115.0,-5.0,
2050.0,2077.0,115.0,-5.0,
2020.0,2040.0,115.0,-5.0,
2118.0,2074.0,115.0,-5.0,
2149.0,2154.0,115.0,-5.0,
2096.0,2203.0,115.0,-5.0,
2105.0,2092.0,115.0,-5.0,
2080.0,1893.0,115.0,-5.0,
2042.0,2016.0,115.0,-5.0,
2000.0,2117.0,115.0,-5.0,
2047.0,1925.0,115.0,-5.0,
2139.0,1987.0,115.0,-5.0,
2123.0,2164.0,115.0,-5.0,
2157.0,2008.0,115.0,-5.0,
2126.0,2139.0,115.0,-5.0,
2088.0,2209.0,115.0,-5.0,
2088.0,2015.0,114.0,-5.0,
2035.0,2167.0,114.0,-5.0,
2020.0,2028.0,114.0,-5.0,
2033.0,2116.0,114.0,-5.0,
2109.0,2167.0,114.0,-5.0,
2021.0,2040.0,114.0,-5.0,
2131.0,2026.0,114.0,-5.0,
2134.0,1722.0,113.0,-5.0,
2095.0,2217.0,113.0,-5.0,
2071.0,2151.0,113.0,-5.0,
2025.0,2238.0,112.0,-5.0,
2050.0,2111.0,112.0,-5.0,
2062.0,2138.0,112.0,-5.0,
2108.0,2119.0,112.0,-5.0,
2116.0,2126.0,112.0,-5.0,
2111.0,2230.0,112.0,-5.0,
2070.0,2070.0,111.0,-5.0,
2079.0,2048.0,111.0,-5.0,
2079.0,1913.0,111.0,-5.0,
2072.0,1850.0,111.0,-5.0,
2028.0,2186.0,111.0,-5.0,
2084.0,2008.0,111.0,-4.0,
2117.0,2167.0,110.0,-4.0,
2129.0,2130.0,110.0,-4.0,
2109.0,2137.0,110.0,-4.0,
2078.0,2137.0,110.0,-4.0,
2049.0,2057.0,109.0,-4.0,
2024.0,2026.0,109.0,-4.0,
2022.0,2045.0,109.0,-4.0,
2013.0,2083.0,109.0,-4.0,
2086.0,2097.0,108.0,-4.0,
2134.0,2039.0,108.0,-4.0,
2125.0,1944.0,108.0,-4.0,
2128.0,2114.0,108.0,-4.0,
2149.0,2109.0,107.0,-4.0,
2108.0,1972.0,107.0,-4.0,
2098.0,2069.0,107.0,-5.0,
2092.0,2089.0,107.0,-5.0,
2074.0,2040.0,106.0,-5.0,
2111.0,2066.0,106.0,-5.0,
2115.0,2045.0,106.0,-5.0,
2083.0,2134.0,106.0,-5.0,
2088.0,2075.0,105.0,-5.0,
2075.0,2076.0,105.0,-5.0,
2092.0,2131.0,105.0,-5.0,
2102.0,2064.0,105.0,-4.0,
2103.0,1794.0,105.0,-5.0,
2014.0,2331.0,105.0,-5.0,
2051.0,2158.0,105.0,-5.0,
2075.0,2045.0,104.0,-5.0,
2079.0,2186.0,104.0,-5.0,
2118.0,2043.0,104.0,-4.0,
2196.0,1961.0,103.0,-4.0,
2150.0,2127.0,103.0,-5.0,
2074.0,2116.0,103.0,-5.0,
2083.0,2097.0,102.0,-5.0,
2082.0,2081.0,102.0,-5.0,
2111.0,2068.0,102.0,-5.0,
2113.0,2081.0,101.0,-5.0,
2092.0,2078.0,101.0,-5.0,
2074.0,2068.0,100.0,-5.0,
2038.0,2058.0,100.0,-6.0,
2036.0,1997.0,100.0,-6.0,
2052.0,1960.0,99.0,-6.0,
2044.0,2083.0,99.0,-6.0,
2067.0,2052.0,99.0,-6.0,
2097.0,2156.0,98.0,-6.0,
2131.0,2090.0,98.0,-6.0,
2127.0,2133.0,98.0,-6.0,
2081.0,2144.0,97.0,-6.0,
2047.0,2051.0,97.0,-6.0,
2019.0,2156.0,97.0,-6.0,
2017.0,2091.0,96.0,-6.0,
2039.0,2058.0,96.0,-6.0,
2089.0,2070.0,96.0,-6.0,
2114.0,2066.0,95.0,-6.0,
2109.0,2052.0,95.0,-6.0,
2106.0,2040.0,95.0,-6.0,
2111.0,2116.0,94.0,-6.0,
2086.0,2148.0,94.0,-6.0,
2020.0,2111.0,94.0,-6.0,
2028.0,1989.0,93.0,-6.0,
2047.0,1998.0,93.0,-6.0,
2096.0,2046.0,93.0,-6.0,
2095.0,2147.0,93.0,-5.0,
2111.0,2052.0,93.0,-5.0,
2084.0,2076.0,93.0,-5.0,
2036.0,2114.0,93.0,-5.0,
2052.0,2147.0,92.0,-5.0,
2139.0,1987.0,92.0,-5.0,
1978.0,2037.0,92.0,-4.0,
2037.0,2038.0,92.0,-5.0,
2034.0,1865.0,91.0,-4.0,
2151.0,2018.0,91.0,-4.0,
2259.0,2071.0,91.0,-4.0,
2203.0,2106.0,91.0,-3.0,
2192.0,2152.0,90.0,-2.0,
2105.0,2140.0,90.0,-2.0,
2056.0,2067.0,90.0,-1.0,
2042.0,2072.0,90.0,0.0,
2109.0,2078.0,90.0,0.0,
2115.0,2214.0,90.0,0.0,
2061.0,2133.0,90.0,0.0,
2163.0,2119.0,89.0,0.0,
2132.0,2041.0,88.0,0.0,
2043.0,2114.0,88.0,0.0,
2036.0,2098.0,87.0,0.0,
2045.0,2085.0,86.0,0.0,
2053.0,2092.0,85.0,-1.0,
2082.0,2097.0,85.0,-2.0,
2093.0,2094.0,84.0,-2.0,
2097.0,2062.0,83.0,-3.0,
2065.0,2089.0,83.0,-3.0,
2055.0,2089.0,82.0,-4.0,
2026.0,2083.0,81.0,-4.0,
2026.0,2052.0,81.0,-5.0,
2026.0,2014.0,80.0,-5.0,
2066.0,2031.0,79.0,-6.0,
2076.0,2033.0,78.0,-7.0,
2096.0,2155.0,78.0,-7.0,
2099.0,2133.0,77.0,-8.0,
2080.0,2113.0,77.0,-8.0,
2059.0,2100.0,76.0,-8.0,
2049.0,2080.0,76.0,-9.0,
2042.0,2064.0,76.0,-9.0,
2072.0,2058.0,76.0,-9.0,
2082.0,2073.0,76.0,-9.0,
2113.0,1965.0,76.0,-9.0,
2122.0,2141.0,76.0,-9.0,
2113.0,2091.0,76.0,-9.0,
2090.0,2078.0,76.0,-8.0,
2071.0,2069.0,76.0,-8.0,
2063.0,2065.0,76.0,-8.0,
2047.0,2037.0,76.0,-8.0,
2045.0,2117.0,76.0,-8.0,
2104.0,2051.0,75.0,-8.0,
2125.0,2064.0,75.0,-7.0,
2130.0,2069.0,75.0,-7.0,
2109.0,2110.0,75.0,-7.0,
2086.0,2030.0,74.0,-6.0,
2070.0,2104.0,74.0,-6.0,
2054.0,2039.0,73.0,-6.0,
2069.0,2040.0,73.0,-6.0,
2064.0,2062.0,72.0,-5.0,
2081.0,2122.0,72.0,-5.0,
2117.0,2132.0,72.0,-5.0,
2117.0,2166.0,71.0,-4.0,
2117.0,2001.0,71.0,-4.0,
2100.0,1976.0,71.0,-4.0,
2069.0,2020.0,70.0,-3.0,
2006.0,2102.0,70.0,-3.0,
2030.0,2061.0,70.0,-3.0,
2062.0,2035.0,70.0,-2.0,
2074.0,2056.0,70.0,-2.0,
2144.0,2131.0,69.0,-2.0,
2151.0,2250.0,69.0,-2.0,
2094.0,2067.0,69.0,-2.0,
2029.0,2050.0,68.0,-2.0,
2044.0,2024.0,68.0,-2.0,
2028.0,2096.0,67.0,-2.0,
2046.0,2054.0,67.0,-2.0,
2078.0,2059.0,66.0,-2.0,
2115.0,2097.0,66.0,-2.0,
2134.0,2112.0,66.0,-2.0,
2127.0,2115.0,65.0,-2.0,
2123.0,2110.0,65.0,-2.0,
2090.0,2070.0,65.0,-2.0,
2062.0,2080.0,64.0,-2.0,
2059.0,2078.0,64.0,-2.0,
2068.0,2080.0,64.0,-2.0,
2091.0,2085.0,64.0,-3.0,
2098.0,2078.0,64.0,-3.0,
2119.0,2079.0,64.0,-3.0,
2085.0,2095.0,64.0,-4.0,
2063.0,2081.0,64.0,-4.0,
2076.0,2072.0,64.0,-4.0,
2068.0,2065.0,64.0,-5.0,
2049.0,2053.0,64.0,-6.0,
2137.0,2042.0,64.0,-6.0,
2107.0,2036.0,64.0,-6.0,
2123.0,2087.0,64.0,-6.0,
2101.0,2069.0,64.0,-6.0,
2088.0,2126.0,64.0,-6.0,
2058.0,2098.0,64.0,-6.0,
2046.0,2029.0,64.0,-6.0,
2040.0,2174.0,64.0,-6.0,
2026.0,2028.0,63.0,-6.0,
2062.0,2061.0,63.0,-6.0,
2104.0,2077.0,63.0,-6.0,
2104.0,2081.0,63.0,-6.0,
2107.0,2082.0,63.0,-6.0,
2074.0,2082.0,62.0,-6.0,
2063.0,2048.0,62.0,-6.0,
2057.0,2072.0,62.0,-5.0,
2071.0,2117.0,62.0,-5.0,
2032.0,1987.0,62.0,-5.0,
2074.0,2060.0,62.0,-5.0,
2107.0,2080.0,62.0,-5.0,
2119.0,2079.0,61.0,-5.0,
2123.0,2004.0,61.0,-5.0,
2092.0,2077.0,61.0,-5.0,
2062.0,2085.0,61.0,-5.0,
2061.0,2050.0,61.0,-4.0,
2050.0,2095.0,61.0,-4.0,
2081.0,2103.0,61.0,-4.0,
2109.0,2059.0,61.0,-4.0,
2124.0,2135.0,61.0,-4.0,
2117.0,2042.0,61.0,-4.0,
2104.0,2071.0,61.0,-4.0,
2087.0,2075.0,61.0,-4.0,
2049.0,2097.0,61.0,-4.0,
2042.0,2029.0,61.0,-4.0,
2065.0,2094.0,62.0,-4.0,
2096.0,2121.0,62.0,-4.0,
2085.0,1989.0,62.0,-4.0,
2110.0,1992.0,62.0,-4.0,
2111.0,2202.0,62.0,-4.0,
2120.0,2262.0,62.0,-3.0,
2072.0,1989.0,62.0,-3.0,
2023.0,1964.0,62.0,-3.0,
2045.0,2023.0,62.0,-3.0,
2064.0,2036.0,61.0,-3.0,
2092.0,2113.0,61.0,-3.0,
2085.0,2087.0,62.0,-3.0,
2111.0,2143.0,61.0,-3.0,
2098.0,2069.0,61.0,-3.0,
2081.0,2061.0,61.0,-4.0,
2042.0,2067.0,61.0,-4.0,
2080.0,2078.0,61.0,-4.0,
2089.0,2090.0,61.0,-4.0,
2087.0,2081.0,61.0,-4.0,
2103.0,2097.0,61.0,-4.0,
2121.0,2108.0,61.0,-4.0,
2119.0,2113.0,61.0,-4.0,
2106.0,2104.0,61.0,-4.0,
2091.0,2079.0,62.0,-5.0,
2056.0,2078.0,62.0,-5.0,
2050.0,2073.0,62.0,-5.0,
2052.0,2077.0,62.0,-5.0,
2080.0,2082.0,62.0,-5.0,
2101.0,2094.0,62.0,-5.0,
2109.0,2097.0,62.0,-4.0,
2104.0,2086.0,62.0,-5.0,
2095.0,2074.0,63.0,-5.0,
2070.0,2073.0,62.0,-5.0,
2060.0,2053.0,63.0,-5.0,
2047.0,2054.0,63.0,-5.0,
2051.0,2056.0,63.0,-5.0,
2099.0,2040.0,63.0,-5.0,
2103.0,2111.0,63.0,-5.0,
2117.0,2107.0,63.0,-4.0,
2113.0,2095.0,63.0,-4.0,
2078.0,2062.0,63.0,-4.0,
2066.0,2043.0,63.0,-4.0,
2041.0,2062.0,63.0,-4.0,
2062.0,2044.0,63.0,-4.0,
2066.0,2134.0,63.0,-4.0,
2115.0,2100.0,64.0,-4.0,
2121.0,2103.0,64.0,-4.0,
2120.0,2094.0,64.0,-4.0,
2113.0,2103.0,64.0,-4.0,
2095.0,2110.0,64.0,-4.0,
2068.0,2129.0,64.0,-4.0,
2044.0,2016.0,64.0,-4.0,
2051.0,2045.0,64.0,-4.0,
2085.0,2053.0,64.0,-4.0,
2091.0,2048.0,65.0,-4.0,
2132.0,2059.0,65.0,-4.0,
2123.0,2155.0,65.0,-4.0,
2096.0,2077.0,65.0,-4.0,
2061.0,2036.0,65.0,-4.0,
2038.0,2074.0,65.0,-4.0,
2036.0,2016.0,65.0,-4.0,
2045.0,2035.0,65.0,-4.0,
2080.0,2071.0,65.0,-4.0,
2113.0,2092.0,65.0,-4.0,
2106.0,2089.0,65.0,-4.0,
2114.0,2091.0,65.0,-4.0,
2088.0,2138.0,65.0,-4.0,
2063.0,2065.0,65.0,-4.0,
2053.0,2037.0,65.0,-4.0,
2032.0,2058.0,65.0,-4.0,
2070.0,2119.0,64.0,-4.0,
2085.0,2087.0,64.0,-4.0,
2076.0,1978.0,64.0,-4.0,
2110.0,2181.0,64.0,-4.0,
2092.0,2057.0,64.0,-4.0,
2068.0,2075.0,64.0,-4.0,
2060.0,2082.0,64.0,-4.0,
2055.0,2088.0,64.0,-4.0,
2058.0,2026.0,64.0,-4.0,
2061.0,2061.0,64.0,-4.0,
2094.0,2076.0,64.0,-4.0,
2109.0,2091.0,64.0,-4.0,
2116.0,2095.0,64.0,-4.0,
2097.0,2100.0,63.0,-4.0,
2083.0,2096.0,64.0,-4.0,
2054.0,2071.0,64.0,-4.0,
2050.0,2072.0,63.0,-4.0,
2058.0,2073.0,63.0,-4.0,
2091.0,2082.0,63.0,-4.0,
2110.0,2095.0,63.0,-5.0,
2122.0,2092.0,63.0,-5.0,
2110.0,2092.0,63.0,-4.0,
2091.0,2085.0,63.0,-5.0,
2074.0,2087.0,63.0,-5.0,
2056.0,2082.0,63.0,-5.0,
2067.0,2047.0,63.0,-5.0,
2062.0,2084.0,63.0,-5.0,
2084.0,2050.0,63.0,-5.0,
2117.0,2007.0,63.0,-5.0,
2117.0,2083.0,63.0,-5.0,
2114.0,2140.0,63.0,-4.0,
2066.0,2048.0,63.0,-4.0,
2042.0,2073.0,63.0,-4.0,
2030.0,2078.0,63.0,-4.0,
2053.0,2073.0,63.0,-4.0,
2072.0,2069.0,63.0,-4.0,
2115.0,2115.0,63.0,-4.0,
2122.0,2131.0,63.0,-4.0,
2112.0,2123.0,63.0,-4.0,
2119.0,2133.0,63.0,-4.0,
2066.0,2031.0,63.0,-4.0,
2047.0,1980.0,63.0,-4.0,
2038.0,1964.0,63.0,-4.0,
2062.0,2100.0,63.0,-4.0,
2069.0,2120.0,63.0,-4.0,
2094.0,2095.0,63.0,-5.0,
2106.0,2094.0,63.0,-5.0,
2111.0,2118.0,63.0,-4.0,
2093.0,2136.0,63.0,-4.0,
2066.0,2035.0,63.0,-5.0,
2033.0,2068.0,63.0,-5.0,
2047.0,2088.0,63.0,-4.0,
2061.0,2116.0,63.0,-4.0,
2106.0,2082.0,63.0,-4.0,
2092.0,2154.0,63.0,-4.0,
2125.0,2137.0,63.0,-4.0,
2113.0,2002.0,63.0,-4.0,
2061.0,2041.0,63.0,-4.0,
2050.0,2040.0,63.0,-4.0,
2062.0,2121.0,63.0,-4.0,
2032.0,1953.0,63.0,-4.0,
2047.0,2009.0,63.0,-4.0,
2096.0,2086.0,63.0,-4.0,
2107.0,2079.0,63.0,-4.0,
2120.0,2087.0,63.0,-4.0,
2109.0,2106.0,63.0,-5.0,
2081.0,2091.0,63.0,-5.0,
2059.0,2111.0,63.0,-5.0,
2052.0,2076.0,63.0,-5.0,
2052.0,2087.0,63.0,-5.0,
2078.0,2094.0,63.0,-4.0,
2098.0,2098.0,63.0,-5.0,
2117.0,2099.0,63.0,-5.0,
2115.0,2097.0,63.0,-4.0,
2090.0,2083.0,63.0,-4.0,
2077.0,2097.0,63.0,-4.0,
2037.0,2104.0,63.0,-4.0,
2060.0,2067.0,63.0,-4.0,
2054.0,2074.0,63.0,-4.0,
2090.0,2072.0,63.0,-4.0,
2113.0,2080.0,63.0,-4.0,
2109.0,2100.0,63.0,-4.0,
2113.0,2100.0,63.0,-4.0,
2075.0,2085.0,63.0,-4.0,
2055.0,2080.0,63.0,-4.0,
2044.0,2066.0,63.0,-4.0,
2046.0,2066.0,63.0,-4.0,
2069.0,2072.0,63.0,-4.0,
2087.0,2089.0,63.0,-4.0,
2112.0,2080.0,63.0,-4.0,
2116.0,2067.0,63.0,-4.0,
2117.0,2083.0,63.0,-4.0,
2089.0,2000.0,63.0,-4.0,
2069.0,2123.0,64.0,-4.0,
2038.0,2111.0,64.0,-4.0,
2062.0,2087.0,63.0,-4.0,
2066.0,2086.0,64.0,-4.0,
2096.0,2139.0,64.0,-4.0,
2103.0,2173.0,64.0,-4.0,
2129.0,1933.0,64.0,-4.0,
2072.0,2013.0,64.0,-4.0,
2077.0,2049.0,64.0,-4.0,
2065.0,2061.0,64.0,-4.0,
2054.0,2037.0,64.0,-4.0,
2057.0,2083.0,64.0,-4.0,
2092.0,2008.0,64.0,-4.0,
2095.0,2053.0,0,
2128.0,2095.0,64.0,-4.0,
2094.0,2069.0,64.0,-4.0,
2084.0,2088.0,64.0,-4.0,
2063.0,2090.0,64.0,-4.0,
2052.0,2086.0,63.0,-4.0,
2061.0,2087.0,63.0,-4.0,
2092.0,2098.0,63.0,-4.0,
2103.0,2108.0,63.0,-4.0,
2121.0,2137.0,63.0,-4.0,
2118.0,2118.0,63.0,-4.0,
2114.0,2072.0,63.0,-4.0,
2080.0,2076.0,63.0,-4.0,
2058.0,2061.0,63.0,-4.0,
2056.0,2071.0,63.0,-4.0,
2057.0,2075.0,63.0,-4.0,
2079.0,2083.0,63.0,-4.0,
2123.0,2086.0,63.0,-4.0,
2119.0,2094.0,63.0,-4.0,
2120.0,2085.0,63.0,-4.0,
2097.0,2076.0,63.0,-5.0,
2074.0,2082.0,63.0,-5.0,
2047.0,2033.0,63.0,-5.0,
2045.0,2051.0,63.0,-5.0,
2066.0,2069.0,63.0,-5.0,
2098.0,2079.0,63.0,-5.0,
2119.0,2089.0,63.0,-5.0,
2143.0,2094.0,63.0,-5.0,
2104.0,2087.0,63.0,-5.0,
2100.0,2061.0,63.0,-5.0,
2076.0,2078.0,63.0,-5.0,
2051.0,2070.0,63.0,-5.0,
2046.0,2059.0,63.0,-4.0,
2071.0,2118.0,63.0,-5.0,
2085.0,2062.0,63.0,-4.0,
2116.0,2081.0,63.0,-4.0,
2118.0,2090.0,63.0,-4.0,
2083.0,2080.0,63.0,-4.0,
2045.0,2115.0,63.0,-4.0,
2066.0,2149.0,63.0,-4.0,
2024.0,2001.0,63.0,-4.0,
2030.0,2071.0,63.0,-4.0,
2090.0,2016.0,63.0,-4.0,
2091.0,2082.0,63.0,-4.0,
2117.0,2061.0,63.0,-4.0,
2140.0,2046.0,63.0,-4.0,
2092.0,2084.0,63.0,-4.0,
2082.0,2138.0,63.0,-4.0,
2060.0,2139.0,63.0,-4.0,
2032.0,2004.0,63.0,-4.0,
2054.0,2024.0,63.0,-4.0,
2079.0,2132.0,63.0,-4.0,
2109.0,2094.0,63.0,-4.0,
2079.0,2024.0,63.0,-4.0,
2102.0,2103.0,63.0,-4.0,
2106.0,2111.0,63.0,-4.0,
2066.0,2017.0,63.0,-4.0,
2044.0,2021.0,63.0,-4.0,
2050.0,2035.0,63.0,-5.0,
2066.0,2083.0,63.0,-5.0,
2093.0,2047.0,62.0,-4.0,
2116.0,2195.0,62.0,-4.0,
2120.0,2114.0,62.0,-4.0,
2118.0,2106.0,62.0,-4.0,
2101.0,2121.0,62.0,-4.0,
2080.0,2092.0,62.0,-5.0,
2059.0,2077.0,62.0,-4.0,
2066.0,2085.0,62.0,-4.0,
2071.0,2096.0,62.0,-4.0,
2103.0,2105.0,62.0,-4.0,
2127.0,2094.0,62.0,-4.0,
2118.0,2087.0,62.0,-5.0,
2083.0,2088.0,62.0,-5.0,
2083.0,2076.0,62.0,-5.0,
2044.0,2069.0,62.0,-5.0,
2049.0,2070.0,62.0,-5.0,
2059.0,2070.0,62.0,-5.0,
2083.0,2074.0,62.0,-5.0,
2112.0,2087.0,62.0,-5.0,
2112.0,2080.0,63.0,-5.0,
2110.0,2083.0,63.0,-5.0,
2054.0,2068.0,63.0,-5.0,
2073.0,2055.0,63.0,-5.0,
2033.0,2091.0,63.0,-5.0,
2042.0,2064.0,63.0,-5.0,
2069.0,2068.0,63.0,-5.0,
2080.0,2094.0,63.0,-5.0,
2112.0,2090.0,63.0,-5.0,
2112.0,2058.0,63.0,-5.0,
2097.0,2068.0,63.0,-5.0,
2087.0,2073.0,63.0,-4.0,
2063.0,2072.0,63.0,-4.0,
2038.0,2049.0,64.0,-4.0,
2051.0,2061.0,64.0,-4.0,
2076.0,2064.0,64.0,-4.0,
2090.0,2076.0,64.0,-4.0,
2114.0,2085.0,64.0,-4.0,
2107.0,2091.0,64.0,-4.0,
2092.0,2092.0,64.0,-4.0,
2062.0,2085.0,64.0,-4.0,
2059.0,2073.0,64.0,-4.0,
2050.0,2073.0,64.0,-4.0,
2054.0,2088.0,64.0,-4.0,
2085.0,2086.0,64.0,-4.0,
2118.0,2106.0,64.0,-4.0,
2123.0,2096.0,64.0,-4.0,
2109.0,2090.0,64.0,-4.0,
2070.0,2073.0,64.0,-4.0,
2058.0,2056.0,64.0,-4.0,
2036.0,2037.0,64.0,-4.0,
2028.0,2067.0,64.0,-4.0,
2037.0,2086.0,64.0,-4.0,
2083.0,2075.0,64.0,-4.0,
2107.0,2086.0,65.0,-4.0,
2121.0,2099.0,65.0,-4.0,
2111.0,2094.0,65.0,-4.0,
2085.0,2121.0,65.0,-4.0,
2084.0,2104.0,65.0,-4.0,
2042.0,1985.0,64.0,-4.0,
2040.0,2013.0,64.0,-4.0,
2064.0,2046.0,64.0,-4.0,
2103.0,2095.0,64.0,-4.0,
2109.0,2079.0,64.0,-4.0,
2113.0,2093.0,64.0,-4.0,
2109.0,2088.0,64.0,-4.0,
2065.0,2071.0,64.0,-4.0,
2044.0,2077.0,64.0,-4.0,
2064.0,2076.0,64.0,-4.0,
2043.0,2079.0,64.0,-4.0,
2089.0,2135.0,64.0,-4.0,
2121.0,2066.0,64.0,-4.0,
2104.0,2079.0,63.0,-4.0,
2115.0,2084.0,63.0,-4.0,
2094.0,2107.0,63.0,-4.0,
2066.0,2126.0,63.0,-4.0,
2041.0,2001.0,63.0,-4.0,
2056.0,2074.0,64.0,-4.0,
2062.0,2052.0,63.0,-4.0,
2074.0,2054.0,63.0,-4.0,
2100.0,2090.0,63.0,-4.0,
2110.0,2110.0,63.0,-4.0,
2106.0,2083.0,63.0,-4.0,
2090.0,2153.0,63.0,-4.0,
2082.0,2109.0,63.0,-4.0,
2028.0,2014.0,63.0,-4.0,
2052.0,2061.0,63.0,-4.0,
2051.0,1976.0,63.0,-4.0,
2094.0,2060.0,62.0,-4.0,
2107.0,2029.0,62.0,-4.0,
2116.0,2149.0,62.0,-4.0,
2096.0,2118.0,62.0,-4.0,
2088.0,2124.0,62.0,-4.0,
2038.0,2078.0,62.0,-4.0,
2048.0,2042.0,62.0,-4.0,
2071.0,2081.0,62.0,-4.0,
2078.0,2041.0,62.0,-4.0,
2102.0,2104.0,62.0,-4.0,
2114.0,2096.0,62.0,-5.0,
2104.0,2044.0,62.0,-5.0,
2090.0,2044.0,62.0,-5.0,
2054.0,2096.0,62.0,-5.0,
2043.0,2116.0,62.0,-5.0,
2035.0,2078.0,62.0,-5.0,
2059.0,2135.0,62.0,-5.0,
2078.0,2040.0,62.0,-5.0,
2105.0,2095.0,62.0,-5.0,
2112.0,2093.0,62.0,-5.0,
2120.0,2099.0,62.0,-5.0,
2067.0,2084.0,62.0,-5.0,
2041.0,2051.0,62.0,-5.0,
2029.0,2066.0,62.0,-5.0,
2045.0,2095.0,62.0,-5.0,
2094.0,2058.0,62.0,-5.0,
2081.0,2078.0,62.0,-5.0,
2099.0,2064.0,62.0,-5.0,
2114.0,2107.0,62.0,-4.0,
2087.0,2053.0,62.0,-4.0,
2064.0,2065.0,62.0,-5.0,
2037.0,2048.0,62.0,-4.0,
2043.0,2064.0,62.0,-4.0,
2038.0,2065.0,62.0,-4.0,
2058.0,2070.0,62.0,-4.0,
2108.0,2103.0,62.0,-5.0,
2132.0,2092.0,62.0,-5.0,
2115.0,2067.0,62.0,-5.0,
2094.0,2076.0,62.0,-5.0,
2060.0,2070.0,63.0,-5.0,
2058.0,2069.0,63.0,-5.0,
2058.0,2070.0,63.0,-5.0,
2059.0,2077.0,63.0,-4.0,
2088.0,2091.0,63.0,-4.0,
2117.0,2080.0,63.0,-4.0,
2127.0,2106.0,63.0,-4.0,
2094.0,2127.0,63.0,-4.0,
2080.0,2118.0,63.0,-4.0,
2048.0,2009.0,63.0,-4.0,
2046.0,2054.0,63.0,-4.0,
2055.0,2097.0,63.0,-4.0,
2074.0,2107.0,63.0,-4.0,
2087.0,2066.0,64.0,-4.0,
2104.0,2086.0,64.0,-4.0,
2125.0,2092.0,64.0,-4.0,
2096.0,2080.0,64.0,-4.0,
2076.0,2084.0,64.0,-4.0,
2085.0,2087.0,64.0,-4.0,
2048.0,2074.0,64.0,-4.0,
2051.0,2056.0,64.0,-4.0,
2083.0,2076.0,64.0,-4.0,
2115.0,2096.0,64.0,-4.0,
2119.0,2090.0,64.0,-4.0,
2128.0,2082.0,64.0,-4.0,
2084.0,2081.0,64.0,-4.0,
2071.0,2068.0,64.0,-4.0,
2043.0,2046.0,64.0,-4.0,
2037.0,2089.0,64.0,-4.0,
2059.0,2069.0,64.0,-4.0,
2078.0,2041.0,64.0,-4.0,
2095.0,2125.0,64.0,-4.0,
2114.0,2100.0,64.0,-4.0,
2101.0,2071.0,64.0,-4.0,
2090.0,2084.0,64.0,-4.0,
2057.0,2091.0,64.0,-4.0,
2052.0,2042.0,63.0,-5.0,
2052.0,2054.0,63.0,-4.0,
2072.0,2119.0,63.0,-4.0,
2107.0,2039.0,63.0,-4.0,
2112.0,2069.0,63.0,-4.0,
2115.0,2059.0,63.0,-4.0,
2100.0,2118.0,63.0,-4.0,
2082.0,2069.0,63.0,-4.0,
2034.0,2038.0,63.0,-4.0,
2063.0,2053.0,63.0,-4.0,
2054.0,2120.0,63.0,-4.0,
2077.0,2016.0,63.0,-5.0,
2075.0,2075.0,63.0,-5.0,
2114.0,2090.0,63.0,-4.0,
2103.0,2065.0,63.0,-4.0,
2095.0,2072.0,63.0,-4.0,
2067.0,2094.0,63.0,-5.0,
2055.0,2096.0,63.0,-4.0,
2036.0,2089.0,63.0,-5.0,
2064.0,2082.0,63.0,-4.0,
2093.0,2115.0,63.0,-4.0,
2132.0,2140.0,63.0,-4.0,
2132.0,2105.0,63.0,-4.0,
2101.0,2026.0,63.0,-4.0,
2087.0,2072.0,63.0,-4.0,
2069.0,2054.0,63.0,-4.0,
2033.0,2061.0,63.0,-4.0,
2041.0,2063.0,62.0,-4.0,
2079.0,2075.0,62.0,-4.0,
2073.0,2094.0,62.0,-4.0,
2107.0,2107.0,62.0,-5.0,
2112.0,2082.0,62.0,-4.0,
2106.0,2085.0,62.0,-4.0,
2073.0,2083.0,62.0,-4.0,
2059.0,2081.0,62.0,-4.0,
2054.0,2083.0,62.0,-4.0,
2052.0,2064.0,62.0,-4.0,
2076.0,2076.0,62.0,-4.0,
2106.0,2095.0,62.0,-4.0,
2127.0,2109.0,62.0,-4.0,
2119.0,2078.0,62.0,-4.0,
2084.0,2050.0,63.0,-4.0,
2067.0,2078.0,63.0,-4.0,
2057.0,2058.0,63.0,-4.0,
2060.0,2072.0,63.0,-4.0,
2063.0,2076.0,63.0,-4.0,
2092.0,2085.0,63.0,-4.0,
2105.0,2099.0,63.0,-4.0,
2112.0,2121.0,63.0,-4.0,
2119.0,2082.0,63.0,-4.0,
2098.0,2020.0,63.0,-4.0,
2067.0,2112.0,63.0,-4.0,
2039.0,2064.0,63.0,-4.0,
2061.0,2077.0,63.0,-4.0,
2058.0,2048.0,63.0,-4.0,
2095.0,2066.0,63.0,-4.0,
2122.0,2080.0,63.0,-4.0,
2130.0,2091.0,63.0,-4.0,
2106.0,2109.0,63.0,-4.0,
2074.0,2075.0,63.0,-4.0,
2058.0,2066.0,63.0,-4.0,
2051.0,2065.0,63.0,-4.0,
2068.0,2083.0,63.0,-4.0,
2053.0,2078.0,63.0,-4.0,
2084.0,2073.0,63.0,-4.0,
2095.0,2065.0,63.0,-4.0,
2100.0,2110.0,63.0,-4.0,
2113.0,2099.0,63.0,-4.0,
2070.0,2041.0,63.0,-4.0,
2063.0,2084.0,63.0,-4.0,
2041.0,2075.0,63.0,-4.0,
2050.0,2019.0,63.0,-4.0,
2084.0,2077.0,63.0,-4.0,
2123.0,2108.0,63.0,-4.0,
2136.0,2096.0,63.0,-4.0,
2122.0,2079.0,63.0,-4.0,
2084.0,2090.0,63.0,-4.0,
2061.0,2091.0,63.0,-4.0,
2055.0,2101.0,63.0,-4.0,
2058.0,2028.0,63.0,-4.0,
2066.0,2074.0,63.0,-4.0,
2093.0,2129.0,63.0,-4.0,
2119.0,2054.0,63.0,-4.0,
2116.0,2083.0,63.0,-4.0,
2115.0,2099.0,63.0,-4.0,
2083.0,2089.0,63.0,-4.0,
2071.0,2070.0,63.0,-4.0,
2050.0,2059.0,63.0,-4.0,
2057.0,2102.0,63.0,-4.0,
2084.0,2061.0,63.0,-4.0,
2082.0,2063.0,63.0,-5.0,
2122.0,2063.0,63.0,-5.0,
2121.0,2088.0,63.0,-5.0,
2103.0,2084.0,63.0,-5.0,
2076.0,2077.0,63.0,-5.0,
2044.0,2073.0,63.0,-5.0,
2047.0,2069.0,63.0,-5.0,
2064.0,2087.0,63.0,-5.0,
2089.0,2090.0,63.0,-5.0,
2115.0,2100.0,63.0,-5.0,
2116.0,2087.0,63.0,-5.0,
2107.0,2091.0,63.0,-5.0,
2092.0,2075.0,63.0,-5.0,
2073.0,2072.0,63.0,-5.0,
2047.0,2071.0,63.0,-5.0,
2067.0,2068.0,63.0,-5.0,
2081.0,2068.0,63.0,-5.0,
2101.0,2060.0,63.0,-4.0,
2104.0,2077.0,63.0,-4.0,
2120.0,2090.0,63.0,-4.0,
2118.0,2094.0,63.0,-4.0,
2077.0,2077.0,63.0,-4.0,
2062.0,2073.0,63.0,-4.0,
2052.0,2034.0,63.0,-4.0,
2040.0,2053.0,63.0,-4.0,
2081.0,2077.0,63.0,-4.0,
2095.0,2107.0,63.0,-4.0,
2118.0,2082.0,63.0,-4.0,
2106.0,2041.0,63.0,-4.0,
2107.0,2078.0,63.0,-4.0,
2075.0,2061.0,63.0,-4.0,
2060.0,2097.0,63.0,-4.0,
2061.0,2043.0,63.0,-4.0,
2073.0,2056.0,63.0,-4.0,
2093.0,2057.0,63.0,-4.0,
2120.0,2066.0,63.0,-4.0,
2095.0,2125.0,63.0,-4.0,
2117.0,2090.0,63.0,-4.0,
2100.0,2123.0,63.0,-4.0,
2087.0,2081.0,63.0,-4.0,
2052.0,2071.0,63.0,-4.0,
2033.0,1973.0,63.0,-4.0,
2064.0,2051.0,63.0,-4.0,
2107.0,2101.0,63.0,-4.0,
2124.0,2089.0,63.0,-4.0,
2114.0,2078.0,63.0,-4.0,
2107.0,2082.0,63.0,-4.0,
2068.0,2085.0,63.0,-4.0,
2051.0,2094.0,63.0,-5.0,
2039.0,2042.0,63.0,-5.0,
2051.0,2054.0,63.0,-5.0,
2066.0,2068.0,63.0,-5.0,
2101.0,2093.0,63.0,-5.0,
2119.0,2102.0,63.0,-5.0,
2116.0,2094.0,63.0,-5.0,
2114.0,2100.0,63.0,-5.0,
2080.0,2048.0,63.0,-5.0,
2056.0,2059.0,63.0,-5.0,
2050.0,2069.0,63.0,-5.0,
2060.0,2079.0,63.0,-5.0,
2090.0,2088.0,63.0,-5.0,
2105.0,2097.0,63.0,-5.0,
2114.0,2094.0,63.0,-5.0,
2102.0,2091.0,63.0,-5.0,
2087.0,2075.0,63.0,-5.0,
2061.0,2065.0,63.0,-5.0,
2048.0,2065.0,62.0,-5.0,
2057.0,2059.0,63.0,-4.0,
2081.0,2055.0,63.0,-5.0,
2109.0,2077.0,63.0,-4.0,
2118.0,2087.0,63.0,-4.0,
2109.0,2096.0,63.0,-4.0,
2119.0,2078.0,63.0,-4.0,
2095.0,2079.0,63.0,-4.0,
2066.0,2082.0,63.0,-4.0,
2064.0,2069.0,63.0,-4.0,
2050.0,2041.0,63.0,-4.0,
2072.0,2057.0,63.0,-4.0,
2091.0,2079.0,63.0,-4.0,
2114.0,2077.0,63.0,-4.0,
2118.0,2121.0,63.0,-4.0,
2114.0,2125.0,63.0,-4.0,
2075.0,2020.0,63.0,-4.0,
2048.0,2026.0,63.0,-4.0,
2061.0,2064.0,63.0,-4.0,
2092.0,2133.0,63.0,-4.0,
2080.0,2096.0,63.0,-4.0,
2085.0,2072.0,63.0,-4.0,
2091.0,2016.0,63.0,-4.0,
2135.0,2047.0,63.0,-4.0,
2093.0,2068.0,63.0,-4.0,
2058.0,2084.0,63.0,-4.0,
2054.0,2069.0,63.0,-4.0,
2047.0,2058.0,63.0,-4.0,
2068.0,2052.0,63.0,-4.0,
2095.0,2069.0,63.0,-4.0,
2123.0,2114.0,63.0,-4.0,
2124.0,2133.0,63.0,-4.0,
2112.0,2086.0,63.0,-4.0,
2082.0,2085.0,63.0,-4.0,
2056.0,2079.0,63.0,-4.0,
2032.0,2089.0,63.0,-4.0,
2065.0,2060.0,63.0,-4.0,
2080.0,2076.0,63.0,-5.0,
2086.0,2067.0,63.0,-5.0,
2114.0,2064.0,63.0,-5.0,
2127.0,2063.0,63.0,-5.0,
2101.0,2154.0,63.0,-5.0,
2081.0,2053.0,63.0,-5.0,
2057.0,2105.0,63.0,-5.0,
2048.0,2053.0,63.0,-5.0,
2062.0,2088.0,63.0,-5.0,
2076.0,2131.0,63.0,-4.0,
2095.0,2062.0,63.0,-4.0,
2104.0,2070.0,63.0,-4.0,
2085.0,2095.0,63.0,-4.0,
2067.0,2041.0,63.0,-4.0,
2066.0,2070.0,63.0,-4.0,
2058.0,2045.0,63.0,-4.0,
2055.0,2060.0,63.0,-4.0,
2082.0,2090.0,63.0,-4.0,
2090.0,2110.0,63.0,-4.0,
2110.0,2055.0,63.0,-5.0,
2109.0,2078.0,63.0,-5.0,
2107.0,2092.0,63.0,-5.0,
2094.0,2094.0,63.0,-5.0,
2051.0,2057.0,63.0,-5.0,
2046.0,2072.0,63.0,-5.0,
2051.0,2085.0,62.0,-5.0,
2064.0,2059.0,62.0,-5.0,
2106.0,2095.0,62.0,-5.0,
2128.0,2095.0,62.0,-4.0,
2123.0,2067.0,63.0,-4.0,
2100.0,2082.0,62.0,-4.0,
2081.0,2080.0,62.0,-4.0,
2056.0,2082.0,62.0,-4.0,
2052.0,2079.0,63.0,-4.0,
2053.0,2055.0,63.0,-4.0,
2076.0,2069.0,63.0,-4.0,
2105.0,2098.0,63.0,-4.0,
2119.0,2106.0,63.0,-4.0,
2099.0,2060.0,63.0,-4.0,
2096.0,2089.0,63.0,-5.0,
2071.0,2100.0,63.0,-5.0,
2044.0,2009.0,63.0,-5.0,
2041.0,2038.0,63.0,-5.0,
2057.0,2064.0,63.0,-4.0,
2094.0,2075.0,63.0,-4.0,
2121.0,2094.0,63.0,-4.0,
2131.0,2086.0,63.0,-4.0,
2112.0,2093.0,63.0,-4.0,
2090.0,2089.0,63.0,-4.0,
2072.0,2062.0,63.0,-4.0,
2066.0,2073.0,63.0,-4.0,
2071.0,2109.0,63.0,-4.0,
2077.0,2063.0,63.0,-4.0,
2092.0,2066.0,63.0,-4.0,
2097.0,2113.0,63.0,-4.0,
2099.0,2080.0,63.0,-4.0,
2109.0,2034.0,63.0,-4.0,
2080.0,2083.0,63.0,-4.0,
2040.0,2013.0,63.0,-4.0,
2033.0,2024.0,63.0,-4.0,
2050.0,2071.0,63.0,-4.0,
2092.0,2095.0,63.0,-4.0,
2098.0,2068.0,63.0,-4.0,
2114.0,2093.0,63.0,-4.0,
2120.0,2097.0,63.0,-4.0,
2091.0,2094.0,63.0,-4.0,
2078.0,2079.0,63.0,-4.0,
2050.0,2082.0,63.0,-4.0,
2062.0,2105.0,63.0,-4.0,
2085.0,2164.0,63.0,-4.0,
2066.0,2086.0,63.0,-4.0,
2096.0,2013.0,63.0,-4.0,
2096.0,2002.0,63.0,-4.0,
2139.0,2061.0,63.0,-4.0,
2084.0,2080.0,63.0,-4.0,
2053.0,2027.0,63.0,-4.0,
2052.0,2063.0,63.0,-4.0,
2050.0,2086.0,63.0,-4.0,
2066.0,2086.0,63.0,-4.0,
2085.0,2110.0,63.0,-4.0,
2110.0,2140.0,63.0,-4.0,
2116.0,2076.0,63.0,-4.0,
2087.0,2105.0,0,
2066.0,2125.0,63.0,-4.0,
2055.0,2105.0,63.0,-4.0,
2016.0,2003.0,63.0,-4.0,
2078.0,2056.0,63.0,-4.0,
2123.0,2072.0,63.0,-4.0,
2110.0,2107.0,63.0,-4.0,
2103.0,2109.0,63.0,-4.0,
2068.0,2088.0,63.0,-4.0,
2051.0,2081.0,63.0,-4.0,
2027.0,2048.0,63.0,-4.0,
2069.0,2057.0,63.0,-4.0,
2187.0,2077.0,63.0,-4.0,
2203.0,2056.0,63.0,-4.0,
2131.0,2074.0,63.0,-4.0,
2106.0,2083.0,63.0,-4.0,
2116.0,2070.0,63.0,-4.0,
2118.0,2023.0,63.0,-5.0,
2082.0,2125.0,63.0,-5.0,
2072.0,2080.0,63.0,-5.0,
2007.0,2070.0,63.0,-5.0,
2018.0,2082.0,63.0,-4.0,
2032.0,2084.0,63.0,-4.0,
2073.0,2055.0,63.0,-5.0,
2125.0,2091.0,63.0,-5.0,
2143.0,2093.0,63.0,-5.0,
2122.0,2063.0,63.0,-5.0,
2049.0,2023.0,63.0,-4.0,
2064.0,2046.0,63.0,-5.0,
2005.0,2041.0,63.0,-4.0,
1974.0,2066.0,63.0,-4.0,
2004.0,2091.0,63.0,-4.0,
2001.0,2088.0,63.0,-4.0,
2068.0,2083.0,63.0,-5.0,
2158.0,2088.0,63.0,-5.0,
2208.0,2062.0,63.0,-5.0,
2280.0,2078.0,64.0,-5.0,
2134.0,2080.0,64.0,-5.0,
2019.0,2089.0,64.0,-5.0,
2025.0,2096.0,64.0,-5.0,
2036.0,2095.0,64.0,-5.0,
2089.0,2079.0,64.0,-5.0,
2136.0,2096.0,64.0,-5.0,
2139.0,2094.0,64.0,-5.0,
2087.0,2089.0,64.0,-5.0,
2033.0,2052.0,64.0,-5.0,
2021.0,2055.0,64.0,-5.0,
2043.0,2070.0,64.0,-5.0,
2145.0,2066.0,64.0,-4.0,
2084.0,2101.0,64.0,-5.0,
2067.0,2042.0,64.0,-4.0,
2129.0,2062.0,64.0,-4.0,
2091.0,2053.0,64.0,-5.0,
2043.0,2065.0,64.0,-5.0,
2023.0,2068.0,64.0,-5.0,
2013.0,2067.0,64.0,-5.0,
2058.0,2043.0,64.0,-5.0,
2098.0,2127.0,64.0,-5.0,
2123.0,2088.0,64.0,-5.0,
2128.0,2097.0,64.0,-5.0,
2067.0,2103.0,64.0,-5.0,
2045.0,2091.0,64.0,-5.0,
2120.0,2103.0,64.0,-5.0,
2108.0,2111.0,64.0,-5.0,
2067.0,2090.0,64.0,-5.0,
2067.0,2053.0,64.0,-5.0,
2074.0,2067.0,64.0,-5.0,
2090.0,2087.0,64.0,-5.0,
2081.0,2084.0,64.0,-5.0,
2023.0,2058.0,64.0,-5.0,
2135.0,2061.0,64.0,-5.0,
2172.0,2055.0,63.0,-4.0,
2102.0,2068.0,64.0,-4.0,
2015.0,2091.0,64.0,-4.0,
1987.0,2102.0,64.0,-4.0,
2015.0,2105.0,64.0,-4.0,
2053.0,2073.0,64.0,-4.0,
2096.0,2046.0,64.0,-4.0,
2128.0,2043.0,64.0,-4.0,
2152.0,2092.0,64.0,-4.0,
2116.0,2088.0,64.0,-4.0,
2071.0,2073.0,64.0,-4.0,
2048.0,2042.0,64.0,-4.0,
2141.0,2023.0,64.0,-4.0,
2182.0,2073.0,64.0,-5.0,
2124.0,2088.0,64.0,-5.0,
2176.0,2039.0,64.0,-5.0,
2145.0,2033.0,64.0,-4.0,
2130.0,2061.0,64.0,-4.0,
2042.0,2108.0,64.0,-5.0,
1979.0,2151.0,64.0,-4.0,
1893.0,2199.0,64.0,-4.0,
2037.0,2119.0,64.0,-4.0,
2176.0,2055.0,64.0,-4.0,
2152.0,2035.0,64.0,-4.0,
2149.0,2025.0,64.0,-4.0,
2023.0,2030.0,64.0,-5.0,
1985.0,2048.0,64.0,-5.0,
2032.0,2092.0,63.0,-5.0,
2154.0,2013.0,63.0,-4.0,
2165.0,2031.0,63.0,-4.0,
2152.0,2127.0,62.0,-5.0,
2120.0,2107.0,62.0,-5.0,
2095.0,2138.0,61.0,-5.0,
2076.0,2089.0,61.0,-4.0,
2077.0,2072.0,60.0,-4.0,
2079.0,2088.0,60.0,-4.0,
2026.0,2122.0,60.0,-4.0,
2018.0,2101.0,60.0,-4.0,
2010.0,2052.0,60.0,-4.0,
2053.0,2078.0,59.0,-4.0,
2076.0,2093.0,59.0,-4.0,
2081.0,2091.0,59.0,-4.0,
2040.0,2158.0,59.0,-4.0,
2023.0,2089.0,58.0,-4.0,
2009.0,2068.0,58.0,-3.0,
2043.0,2075.0,57.0,-3.0,
2077.0,2119.0,57.0,-3.0,
2118.0,2145.0,57.0,-3.0,
2172.0,2124.0,56.0,-3.0,
2161.0,2038.0,56.0,-3.0,
2082.0,1924.0,56.0,-3.0,
2094.0,2041.0,55.0,-3.0,
2082.0,2101.0,55.0,-3.0,
2021.0,2079.0,54.0,-3.0,
2100.0,2041.0,54.0,-3.0,
2069.0,2049.0,53.0,-3.0,
2098.0,2156.0,53.0,-3.0,
2185.0,2247.0,53.0,-3.0,
2107.0,1870.0,53.0,-3.0,
2080.0,2065.0,52.0,-3.0,
2017.0,1988.0,52.0,-3.0,
1931.0,1994.0,51.0,-3.0,
2008.0,1999.0,51.0,-3.0,
2052.0,1990.0,50.0,-3.0,
2086.0,2271.0,50.0,-3.0,
2195.0,2189.0,50.0,-3.0,
2213.0,2171.0,50.0,-2.0,
2167.0,2139.0,49.0,-2.0,
2095.0,2001.0,48.0,-2.0,
2049.0,2073.0,48.0,-2.0,
2034.0,2072.0,48.0,-2.0,
2063.0,2034.0,48.0,-2.0,
2105.0,1952.0,47.0,-2.0,
2072.0,2037.0,47.0,-2.0,
2099.0,2089.0,46.0,-2.0,
2094.0,2066.0,46.0,-2.0,
2104.0,2089.0,46.0,-2.0,
2065.0,2096.0,45.0,-2.0,
2058.0,2152.0,45.0,-1.0,
2050.0,2050.0,45.0,-1.0,
2070.0,2048.0,44.0,-1.0,
2118.0,2096.0,44.0,-1.0,
2131.0,2066.0,43.0,-1.0,
2117.0,2149.0,43.0,-1.0,
2113.0,2072.0,42.0,-1.0,
2097.0,2135.0,42.0,-1.0,
2078.0,2085.0,41.0,-1.0,
2064.0,2203.0,40.0,0.0,
2037.0,2146.0,40.0,0.0,
2037.0,2031.0,39.0,0.0,
2054.0,2028.0,39.0,0.0,
2052.0,2079.0,38.0,0.0,
2066.0,2034.0,38.0,0.0,
2102.0,2119.0,37.0,0.0,
2077.0,2080.0,37.0,0.0,
2101.0,2041.0,37.0,0.0,
2084.0,1969.0,37.0,0.0,
2022.0,1993.0,36.0,0.0,
2056.0,2104.0,36.0,0.0,
2094.0,2088.0,36.0,0.0,
2114.0,2270.0,36.0,-1.0,
2123.0,2121.0,36.0,-2.0,
2117.0,2034.0,36.0,-1.0,
2095.0,1996.0,36.0,-1.0,
2114.0,1974.0,36.0,0.0,
2039.0,2156.0,35.0,0.0,
2038.0,2179.0,35.0,0.0,
2032.0,2170.0,35.0,0.0,
2049.0,1941.0,35.0,0.0,
2085.0,1962.0,35.0,0.0,
2126.0,2219.0,35.0,0.0,
2177.0,2119.0,34.0,0.0,
2137.0,2114.0,35.0,0.0,
2099.0,2055.0,35.0,0.0,
2093.0,1919.0,35.0,0.0,
2078.0,2025.0,34.0,0.0,
2055.0,2087.0,35.0,0.0,
2080.0,2060.0,34.0,0.0,
2052.0,2137.0,34.0,-1.0,
2120.0,2151.0,34.0,-1.0,
2118.0,2062.0,34.0,-1.0,
2082.0,2076.0,34.0,-1.0,
2064.0,2018.0,34.0,-1.0,
2065.0,2061.0,34.0,-1.0,
2035.0,1932.0,34.0,-1.0,
2067.0,1941.0,35.0,-1.0,
2037.0,2202.0,35.0,-1.0,
2085.0,2245.0,35.0,-1.0,
2173.0,2148.0,35.0,-1.0,
2178.0,2104.0,35.0,-1.0,
2122.0,2080.0,35.0,-1.0,
2051.0,1991.0,0,
2035.0,1898.0,37.0,-1.0,
2028.0,2118.0,35.0,-1.0,
2049.0,2184.0,36.0,-1.0,
2069.0,2112.0,35.0,-1.0,
2109.0,2051.0,36.0,-1.0,
2150.0,2094.0,36.0,-2.0,
2119.0,2130.0,35.0,-2.0,
2054.0,2078.0,35.0,-1.0,
1995.0,2045.0,34.0,-1.0,
1998.0,1975.0,32.0,-1.0,
1959.0,2148.0,32.0,-1.0,
2040.0,2112.0,34.0,-1.0,
2135.0,1952.0,33.0,-1.0,
2151.0,2070.0,33.0,-1.0,
2142.0,2097.0,32.0,-1.0,
2152.0,1971.0,31.0,0.0,
2078.0,2140.0,32.0,0.0,
2044.0,2159.0,31.0,0.0,
2034.0,2152.0,31.0,0.0,
2012.0,2085.0,31.0,0.0,
2034.0,2019.0,30.0,0.0,
2141.0,2046.0,26.0,-1.0,
2126.0,2111.0,28.0,0.0,
2110.0,2071.0,27.0,0.0,
2017.0,2169.0,26.0,0.0,
1995.0,2131.0,26.0,0.0,
1964.0,2036.0,26.0,0.0,
2072.0,2080.0,25.0,0.0,
2106.0,2049.0,25.0,0.0,
2125.0,2076.0,23.0,0.0,
2160.0,2132.0,23.0,0.0,
2112.0,2003.0,27.0,0.0,
2154.0,1942.0,23.0,0.0,
2061.0,2143.0,24.0,0.0,
2008.0,2067.0,24.0,0.0,
2168.0,2138.0,23.0,0.0,
2126.0,2128.0,23.0,0.0,
2150.0,2105.0,23.0,0.0,
2146.0,1972.0,23.0,0.0,
2095.0,2040.0,22.0,0.0,
2014.0,2174.0,22.0,0.0,
2109.0,2097.0,22.0,0.0,
2017.0,2008.0,22.0,0.0,
2003.0,2021.0,22.0,0.0,
1962.0,2102.0,22.0,0.0,
2043.0,2087.0,22.0,0.0,
2151.0,2089.0,22.0,0.0,
2046.0,2166.0,22.0,0.0,
2043.0,2129.0,22.0,0.0,
1990.0,2152.0,22.0,0.0,
2130.0,2025.0,22.0,0.0,
2000.0,1976.0,23.0,0.0,
2139.0,2083.0,23.0,0.0,
2202.0,2038.0,23.0,0.0,
2087.0,2012.0,23.0,0.0,
2078.0,2039.0,23.0,-1.0,
2119.0,1993.0,24.0,-1.0,
2180.0,2150.0,24.0,-1.0,
2208.0,2259.0,24.0,-1.0,
2089.0,1955.0,24.0,-1.0,
1971.0,1942.0,23.0,-1.0,
2006.0,2236.0,24.0,-1.0,
1940.0,2130.0,23.0,-1.0,
2110.0,2134.0,23.0,-1.0,
2027.0,2030.0,23.0,-1.0,
1951.0,2001.0,23.0,-1.0,
2173.0,2037.0,23.0,-1.0,
2285.0,2174.0,23.0,-1.0,
2257.0,2153.0,22.0,-1.0,
2122.0,2062.0,22.0,-1.0,
2041.0,2060.0,22.0,-1.0,
1991.0,2077.0,21.0,-1.0,
1909.0,1976.0,20.0,-1.0,
2164.0,2088.0,20.0,-1.0,
2058.0,1928.0,19.0,-1.0,
2156.0,2038.0,18.0,-1.0,
2148.0,1939.0,17.0,-1.0,
2045.0,2334.0,17.0,-1.0,
2191.0,2079.0,16.0,-1.0,
2034.0,1622.0,16.0,-1.0,
1898.0,2217.0,16.0,-1.0,
2053.0,2054.0,16.0,-1.0,
2203.0,2473.0,15.0,-1.0,
2030.0,2169.0,14.0,-1.0,
1880.0,2215.0,14.0,-1.0,
1910.0,2131.0,13.0,-1.0,
2103.0,2150.0,12.0,-1.0,
2293.0,2072.0,12.0,-1.0,
2083.0,1986.0,11.0,0.0,
2207.0,2006.0,10.0,0.0,
1977.0,1978.0,10.0,0.0,
1852.0,1993.0,9.0,-1.0,
2391.0,2039.0,9.0,-1.0,
2331.0,2077.0,10.0,0.0,
2104.0,2046.0,9.0,0.0,
2040.0,2145.0,11.0,0.0,
1981.0,1987.0,11.0,-1.0,
1835.0,1822.0,11.0,-1.0,
2064.0,2260.0,11.0,-1.0,
1895.0,1636.0,11.0,-1.0,
2127.0,2076.0,12.0,-1.0,
2199.0,2431.0,12.0,0.0,
2321.0,2209.0,12.0,-1.0,
2213.0,2093.0,12.0,-1.0,
2109.0,2105.0,12.0,-1.0,
2101.0,1744.0,11.0,-1.0,
2117.0,1521.0,12.0,-1.0,
2139.0,2704.0,13.0,0.0,
2091.0,2273.0,13.0,0.0,
2083.0,2283.0,12.0,-1.0,
2094.0,2004.0,12.0,-1.0,
1948.0,2009.0,12.0,-1.0,
2091.0,2161.0,12.0,0.0,
2183.0,2297.0,11.0,0.0,
2032.0,2127.0,11.0,0.0,
2070.0,2044.0,11.0,0.0,
2028.0,2108.0,10.0,0.0,
1942.0,2117.0,9.0,0.0,
1967.0,2063.0,8.0,0.0,
1948.0,2073.0,8.0,0.0,
2129.0,1967.0,7.0,0.0,
2270.0,1909.0,6.0,0.0,
2091.0,2213.0,5.0,0.0,
2073.0,2183.0,5.0,0.0,
1973.0,2068.0,4.0,0.0,
1895.0,1957.0,3.0,0.0,
1740.0,2004.0,2.0,0.0,
2083.0,2169.0,2.0,0.0,
2143.0,2134.0,1.0,0.0,
2443.0,2075.0,0.0,0.0,
2435.0,1759.0,0.0,0.0,
2249.0,1594.0,0.0,0.0,
1945.0,1657.0,0.0,0.0,
1595.0,2083.0,0.0,0.0,
1810.0,2444.0,0.0,0.0,
2199.0,1739.0,0.0,0.0,
1960.0,2529.0,0.0,0.0,
2130.0,2380.0,0.0,0.0,
2496.0,2193.0,0.0,0.0,
2188.0,2149.0,0.0,0.0,
2091.0,2220.0,0.0,0.0,
2035.0,2147.0,0.0,0.0,
1674.0,2082.0,0.0,0.0,
1951.0,2146.0,0.0,0.0,
2422.0,1592.0,0.0,0.0,
2223.0,2293.0,1.0,0.0,
2354.0,2101.0,1.0,0.0,
2271.0,1957.0,2.0,0.0,
2056.0,2030.0,2.0,0.0,
2107.0,1643.0,2.0,0.0,
2121.0,2031.0,3.0,0.0,
2195.0,2322.0,0,
2152.0,2282.0,3.0,0.0,
1851.0,2222.0,3.0,0.0,
1958.0,2160.0,3.0,0.0,
2032.0,1672.0,3.0,0.0,
1927.0,2145.0,3.0,0.0,
2323.0,2033.0,2.0,0.0,
2209.0,2052.0,2.0,0.0,
1998.0,1867.0,1.0,0.0,
2049.0,2323.0,0.0,0.0,
2195.0,2213.0,0.0,0.0,
1965.0,1980.0,0.0,0.0,
1953.0,1928.0,0.0,0.0,
1956.0,1947.0,-1.0,0.0,
2163.0,2290.0,0,
2129.0,2123.0,-2.0,0.0,
2212.0,2056.0,-2.0,0.0,
2151.0,1908.0,-3.0,1.0,
2135.0,2344.0,-3.0,1.0,
2000.0,2080.0,-4.0,1.0,
1855.0,1840.0,-4.0,1.0,
1876.0,1971.0,-4.0,1.0,
2109.0,2257.0,-5.0,1.0,
2134.0,2185.0,-5.0,1.0,
2364.0,2214.0,-5.0,1.0,
2174.0,2128.0,-5.0,1.0,
2135.0,2011.0,-5.0,1.0,
2057.0,1771.0,-5.0,1.0,
2060.0,2125.0,-5.0,1.0,
1868.0,2296.0,-5.0,1.0,
2008.0,2201.0,-5.0,1.0,
1988.0,1966.0,-5.0,0.0,
2031.0,2021.0,-4.0,0.0,
2223.0,1828.0,-4.0,0.0,
2239.0,2094.0,-4.0,0.0,
2001.0,2428.0,-4.0,0.0,
1944.0,2174.0,-3.0,0.0,
1951.0,2063.0,-3.0,0.0,
1814.0,1922.0,-3.0,0.0,
2148.0,2097.0,-3.0,0.0,
2194.0,2181.0,-2.0,0.0,
2176.0,2034.0,-2.0,0.0,
2228.0,2199.0,-2.0,0.0,
2219.0,2184.0,-2.0,0.0,
1869.0,2013.0,-2.0,0.0,
2024.0,2302.0,-1.0,0.0,
2111.0,2014.0,-1.0,0.0,
2058.0,1844.0,-1.0,0.0,
1891.0,2056.0,-1.0,0.0,
2335.0,2137.0,-1.0,0.0,
2359.0,2027.0,-1.0,0.0,
2128.0,1907.0,-1.0,0.0,
2197.0,1901.0,-1.0,0.0,
2025.0,2265.0,-1.0,0.0,
1928.0,2129.0,-2.0,0.0,
1899.0,1959.0,-2.0,0.0,
1965.0,1850.0,-2.0,0.0,
2198.0,1866.0,-2.0,0.0,
2066.0,2255.0,-2.0,0.0,
2288.0,2152.0,-2.0,0.0,
2231.0,1900.0,-3.0,0.0,
2004.0,2278.0,-3.0,0.0,
2027.0,2227.0,-3.0,0.0,
2000.0,1841.0,-3.0,0.0,
2265.0,2420.0,-3.0,0.0,
2106.0,1850.0,-3.0,0.0,
1977.0,2145.0,-4.0,0.0,
2072.0,2178.0,-4.0,0.0,
2026.0,1936.0,-4.0,0.0,
2123.0,2051.0,-4.0,0.0,
2109.0,2242.0,-4.0,0.0,
2180.0,2081.0,-4.0,0.0,
1646.0,2215.0,-4.0,0.0,
1804.0,2212.0,-4.0,0.0,
1984.0,2049.0,-4.0,0.0,
2433.0,1984.0,-4.0,0.0,
2254.0,2068.0,-3.0,0.0,
2201.0,2121.0,-3.0,0.0,
1943.0,2056.0,-3.0,0.0,
2091.0,2198.0,-3.0,0.0,
2076.0,1736.0,-3.0,0.0,
2284.0,1244.0,-3.0,0.0,
2129.0,2373.0,-3.0,0.0,
1693.0,1554.0,-2.0,0.0,
1816.0,2627.0,-2.0,0.0,
2237.0,2116.0,-2.0,0.0,
2008.0,1895.0,-2.0,0.0,
2462.0,2545.0,-2.0,0.0,
2224.0,2056.0,-2.0,0.0,
2200.0,2258.0,-2.0,0.0,
2062.0,2393.0,-2.0,0.0,
2073.0,2060.0,-2.0,0.0,
1947.0,1980.0,-2.0,0.0,
1636.0,1911.0,-2.0,0.0,
1724.0,2157.0,-2.0,0.0,
2584.0,2155.0,-2.0,0.0,
2519.0,1956.0,-2.0,0.0,
2227.0,2112.0,-3.0,0.0,
2121.0,1887.0,-3.0,0.0,
2095.0,2060.0,-3.0,0.0,
2058.0,1649.0,-3.0,0.0,
1832.0,2057.0,-3.0,0.0,
1962.0,2341.0,-3.0,0.0,
2157.0,2147.0,-3.0,0.0,
1994.0,2095.0,-3.0,0.0,
2306.0,1414.0,-3.0,0.0,
2226.0,2381.0,-3.0,0.0,
2213.0,2148.0,-4.0,0.0,
2114.0,1433.0,-4.0,0.0,
1992.0,1954.0,-4.0,0.0,
1834.0,2829.0,-4.0,0.0,
1527.0,2265.0,-4.0,0.0,
2017.0,2243.0,-4.0,0.0,
2289.0,2171.0,-4.0,0.0,
2194.0,2156.0,-4.0,0.0,
2301.0,2200.0,-4.0,0.0,
1943.0,1983.0,-4.0,0.0,
2020.0,2097.0,-4.0,0.0,
2015.0,2216.0,-4.0,0.0,
2146.0,1892.0,-4.0,0.0,
2322.0,1880.0,-4.0,0.0,
2143.0,1647.0,-4.0,0.0,
2172.0,2620.0,-3.0,0.0,
2059.0,2371.0,-3.0,0.0,
2043.0,2127.0,-3.0,0.0,
2127.0,1897.0,-3.0,0.0,
1956.0,2183.0,-3.0,0.0,
1909.0,1781.0,-3.0,0.0,
1853.0,2110.0,-2.0,0.0,
1992.0,1958.0,-2.0,0.0,
2254.0,2225.0,-2.0,0.0,
2525.0,2043.0,-2.0,0.0,
2362.0,2175.0,-2.0,0.0,
2160.0,1764.0,-2.0,0.0,
2080.0,2085.0,-2.0,0.0,
2037.0,2028.0,-2.0,0.0,
1829.0,1937.0,-2.0,0.0,
1811.0,1960.0,-2.0,0.0,
2239.0,1607.0,-2.0,0.0,
1910.0,2558.0,-2.0,0.0,
2173.0,2483.0,-2.0,0.0,
2259.0,2367.0,-2.0,0.0,
2147.0,2123.0,-2.0,0.0,
1714.0,1963.0,-2.0,0.0,
1860.0,1686.0,-2.0,0.0,
2448.0,1959.0,-3.0,0.0,
2255.0,2231.0,-3.0,0.0,
1836.0,2414.0,-3.0,0.0,
1944.0,2115.0,-3.0,0.0,
1828.0,2196.0,-3.0,0.0,
2191.0,2243.0,-3.0,0.0,
2434.0,2148.0,-3.0,0.0,
2407.0,2020.0,-3.0,0.0,
2055.0,1968.0,-3.0,0.0,
2020.0,2127.0,-3.0,0.0,
1831.0,1822.0,-3.0,0.0,
1500.0,2350.0,-3.0,0.0,
1913.0,2210.0,-3.0,0.0,
2124.0,1972.0,-3.0,0.0,
2734.0,2191.0,-3.0,0.0,
2474.0,2531.0,-3.0,0.0,
2260.0,1877.0,-3.0,0.0,
1992.0,1920.0,-3.0,0.0,
1944.0,1971.0,-3.0,0.0,
1729.0,1601.0,-3.0,0.0,
2210.0,2146.0,-3.0,0.0,
2048.0,2155.0,-3.0,0.0,
1931.0,2028.0,-3.0,0.0,
2306.0,2018.0,-3.0,0.0,
2136.0,1762.0,-3.0,0.0,
2326.0,2510.0,-2.0,0.0,
2170.0,2102.0,-2.0,0.0,
2010.0,2253.0,-2.0,0.0,
1802.0,2122.0,-2.0,0.0,
1539.0,2120.0,-2.0,0.0,
1926.0,2126.0,-2.0,0.0,
2631.0,2038.0,-2.0,0.0,
2659.0,2259.0,-2.0,0.0,
2259.0,2072.0,-2.0,0.0,
2330.0,1947.0,-2.0,0.0,
2203.0,1839.0,-3.0,-1.0,
2066.0,2447.0,-3.0,-1.0,
1816.0,1931.0,-3.0,-1.0,
1660.0,2169.0,-3.0,-1.0,
2131.0,1862.0,-3.0,0.0,
2153.0,1626.0,-3.0,-1.0,
2084.0,2424.0,-3.0,-1.0,
2257.0,2254.0,-3.0,-1.0,
1958.0,2165.0,-3.0,-1.0,
1865.0,2221.0,-3.0,-1.0,
1933.0,1872.0,-3.0,0.0,
1859.0,2338.0,-3.0,0.0,
2116.0,2302.0,-3.0,0.0,
2172.0,2220.0,-3.0,0.0,
1986.0,2208.0,-3.0,0.0,
1760.0,2031.0,-4.0,0.0,
1912.0,1534.0,-4.0,0.0,
2123.0,2134.0,-4.0,0.0,
2007.0,2157.0,-4.0,0.0,
2224.0,2077.0,-4.0,0.0,
2274.0,2166.0,-4.0,0.0,
2226.0,2150.0,-4.0,0.0,
2329.0,1879.0,-4.0,0.0,
1991.0,2294.0,-4.0,0.0,
1997.0,1746.0,-4.0,0.0,
2105.0,1544.0,-4.0,0.0,
2317.0,1844.0,-4.0,0.0,
2118.0,2824.0,-3.0,0.0,
2164.0,2359.0,-3.0,0.0,
2092.0,2359.0,-3.0,0.0,
1957.0,1799.0,-3.0,0.0,
2026.0,1385.0,-3.0,0.0,
2363.0,2221.0,-3.0,0.0,
2363.0,2262.0,-3.0,0.0,
1981.0,2203.0,-3.0,0.0,
2025.0,2240.0,-3.0,0.0,
1527.0,1898.0,-3.0,0.0,
1717.0,2003.0,-4.0,0.0,
2250.0,2413.0,-4.0,0.0,
2529.0,2157.0,-4.0,0.0,
2107.0,2255.0,-4.0,0.0,
2014.0,2075.0,-4.0,0.0,
1927.0,2192.0,-4.0,0.0,
2208.0,2046.0,-4.0,0.0,
2266.0,1844.0,-4.0,0.0,
2221.0,2017.0,-4.0,0.0,
2124.0,2212.0,-4.0,0.0,
2152.0,2045.0,-4.0,0.0,
2272.0,2087.0,-3.0,0.0,
2163.0,2106.0,-4.0,0.0,
2082.0,1921.0,-4.0,0.0,
2019.0,1846.0,-4.0,0.0,
1959.0,2389.0,-4.0,0.0,
1895.0,2070.0,-4.0,0.0,
1945.0,2093.0,-4.0,0.0,
1919.0,2052.0,-4.0,0.0,
1845.0,2072.0,-5.0,0.0,
2114.0,2021.0,-5.0,0.0,
2324.0,2050.0,-5.0,0.0,
2089.0,2098.0,-5.0,0.0,
2194.0,2079.0,-5.0,0.0,
2043.0,2054.0,-5.0,0.0,
2012.0,2022.0,-5.0,0.0,
2051.0,2145.0,-5.0,0.0,
1859.0,2044.0,-5.0,0.0,
1884.0,1995.0,-5.0,0.0,
2426.0,2056.0,-5.0,0.0,
2119.0,2259.0,-5.0,0.0,
2125.0,2166.0,-5.0,0.0,
2255.0,1901.0,-5.0,0.0,
2062.0,2217.0,-5.0,0.0,
1982.0,1870.0,-4.0,0.0,
2019.0,2368.0,-4.0,0.0,
1961.0,2210.0,-4.0,0.0,
2191.0,2069.0,-4.0,0.0,
2188.0,1997.0,-4.0,0.0,
1963.0,1999.0,-4.0,0.0,
2245.0,1976.0,-4.0,0.0,
2090.0,2071.0,-4.0,0.0,
2133.0,2013.0,-4.0,0.0,
1991.0,2147.0,-3.0,0.0,
2087.0,1995.0,-3.0,0.0,
2146.0,1757.0,-3.0,0.0,
2012.0,2376.0,-3.0,0.0,
2043.0,2154.0,-3.0,0.0,
2057.0,2098.0,-3.0,0.0,
2010.0,2105.0,-3.0,0.0,
2116.0,2095.0,-3.0,0.0,
2016.0,2017.0,-3.0,0.0,
2026.0,2122.0,-3.0,0.0,
2066.0,2084.0,-3.0,0.0,
2164.0,2107.0,-4.0,0.0,
2143.0,2116.0,-4.0,0.0,
2089.0,2069.0,-4.0,0.0,
2217.0,2034.0,-4.0,0.0,
2210.0,2028.0,-4.0,0.0,
2148.0,1989.0,-5.0,0.0,
2097.0,1868.0,-5.0,0.0,
2016.0,2199.0,-5.0,0.0,
2001.0,2178.0,-5.0,0.0,
2071.0,2123.0,-6.0,0.0,
2044.0,2198.0,-6.0,0.0,
2075.0,2106.0,-6.0,0.0,
2042.0,2093.0,-6.0,0.0,
1983.0,2085.0,-6.0,0.0,
2074.0,2084.0,-7.0,0.0,
2133.0,2076.0,-7.0,0.0,
2125.0,2062.0,-7.0,0.0,
2122.0,2054.0,-7.0,0.0,
2151.0,2063.0,-7.0,0.0,
2093.0,1962.0,-8.0,0.0,
2047.0,2084.0,-8.0,0.0,
2100.0,1922.0,-8.0,0.0,
2039.0,2303.0,-8.0,0.0,
2085.0,2066.0,-8.0,0.0,
1991.0,2143.0,-9.0,0.0,
2049.0,2094.0,-9.0,0.0,
2017.0,2167.0,-9.0,0.0,
2019.0,2075.0,-9.0,0.0,
2011.0,2011.0,-9.0,0.0,
2081.0,2077.0,-9.0,0.0,
2151.0,1969.0,-9.0,0.0,
2300.0,2107.0,-9.0,0.0,
2256.0,2075.0,-9.0,0.0,
2180.0,2048.0,-8.0,0.0,
2016.0,2065.0,-8.0,0.0,
2039.0,2098.0,-7.0,0.0,
2040.0,1982.0,-6.0,0.0,
1981.0,2092.0,-6.0,0.0,
2049.0,2124.0,-5.0,0.0,
2069.0,2125.0,-4.0,0.0,
2054.0,2199.0,-3.0,0.0,
2091.0,2086.0,-2.0,0.0,
2229.0,2104.0,-1.0,0.0,
2153.0,1711.0,-1.0,0.0,
2069.0,2086.0,0.0,0.0,
2110.0,2036.0,0.0,0.0,
2031.0,1914.0,0.0,0.0,
2039.0,2025.0,1.0,0.0,
2064.0,2070.0,1.0,0.0,
2125.0,2124.0,1.0,0.0,
2163.0,2112.0,2.0,0.0,
2089.0,2128.0,2.0,0.0,
2093.0,2214.0,2.0,0.0,
2039.0,2110.0,2.0,0.0,
2090.0,2141.0,2.0,0.0,
2071.0,1999.0,1.0,0.0,
2107.0,2004.0,1.0,0.0,
2111.0,2102.0,1.0,0.0,
2138.0,2227.0,1.0,0.0,
2099.0,2343.0,0.0,0.0,
1932.0,2161.0,0.0,0.0,
1983.0,2029.0,0.0,0.0,
2053.0,1933.0,-1.0,0.0,
2106.0,1890.0,-1.0,0.0,
2083.0,2081.0,-2.0,0.0,
2174.0,2352.0,-2.0,0.0,
2191.0,2105.0,-3.0,0.0,
2015.0,1624.0,-3.0,0.0,
2006.0,1781.0,-4.0,0.0,
2061.0,2018.0,-4.0,0.0,
2078.0,2103.0,-4.0,0.0,
2177.0,2068.0,-5.0,0.0,
2190.0,2188.0,-5.0,0.0,
2037.0,2010.0,-5.0,0.0,
1928.0,2069.0,-6.0,0.0,
1989.0,2365.0,-6.0,0.0,
2236.0,2270.0,-6.0,0.0,
2111.0,1823.0,-6.0,0.0,
2093.0,2206.0,-6.0,0.0,
2117.0,1967.0,-5.0,0.0,
2082.0,1950.0,-5.0,0.0,
2120.0,2046.0,-5.0,0.0,
2071.0,2022.0,-4.0,0.0,
2057.0,1947.0,-4.0,0.0,
2109.0,2231.0,-3.0,0.0,
2119.0,2191.0,-2.0,0.0,
2089.0,2276.0,-1.0,0.0,
2058.0,2257.0,0.0,0.0,
2028.0,2127.0,0.0,0.0,
2018.0,2188.0,1.0,0.0,
2030.0,2230.0,2.0,0.0,
2064.0,2248.0,3.0,0.0,
2057.0,2124.0,6.0,0.0,
2069.0,1893.0,8.0,0.0,
2169.0,1964.0,9.0,0.0,
2238.0,1953.0,10.0,-1.0,
2148.0,2107.0,0,
2102.0,2153.0,12.0,-1.0,
2042.0,2051.0,13.0,-1.0,
2036.0,1984.0,15.0,-1.0,
2103.0,1904.0,16.0,-2.0,
2068.0,1942.0,18.0,-3.0,
2056.0,1969.0,19.0,-3.0,
2142.0,2276.0,19.0,-2.0,
2095.0,2482.0,21.0,-2.0,
2126.0,2279.0,22.0,-2.0,
2176.0,1940.0,22.0,-1.0,
2094.0,1806.0,23.0,-1.0,
1943.0,1797.0,24.0,-1.0,
2006.0,1956.0,24.0,-1.0,
2022.0,1971.0,25.0,-1.0,
2183.0,2013.0,25.0,-1.0,
2188.0,2121.0,25.0,-1.0,
2189.0,2444.0,25.0,-1.0,
2159.0,2239.0,25.0,-1.0,
2067.0,2046.0,25.0,-1.0,
2099.0,2166.0,26.0,-1.0,
1966.0,1844.0,26.0,-1.0,
1975.0,1876.0,26.0,-1.0,
2059.0,2062.0,26.0,-1.0,
2125.0,2166.0,26.0,-1.0,
2078.0,1971.0,26.0,-1.0,
2122.0,2170.0,26.0,-1.0,
2123.0,2114.0,26.0,-1.0,
2058.0,2120.0,26.0,-1.0,
2026.0,2126.0,26.0,-1.0,
2079.0,2195.0,26.0,-1.0,
2139.0,2232.0,26.0,-1.0,
2072.0,2140.0,26.0,-1.0,
2009.0,2034.0,26.0,-1.0,
2036.0,2232.0,26.0,0.0,
2021.0,2263.0,27.0,0.0,
2126.0,2062.0,27.0,0.0,
2172.0,1843.0,28.0,0.0,
2085.0,1681.0,29.0,0.0,
2026.0,2140.0,29.0,0.0,
2053.0,2230.0,30.0,0.0,
2067.0,2280.0,30.0,0.0,
2111.0,2089.0,30.0,0.0,
2140.0,2197.0,31.0,0.0,
2142.0,2116.0,31.0,0.0,
2071.0,1852.0,31.0,0.0,
2068.0,1998.0,32.0,0.0,
2019.0,1942.0,32.0,0.0,
2032.0,2288.0,33.0,0.0,
2154.0,2457.0,33.0,0.0,
2047.0,1908.0,34.0,0.0,
1978.0,1769.0,34.0,0.0,
2102.0,1849.0,34.0,0.0,
2127.0,2153.0,35.0,0.0,
2077.0,2356.0,35.0,0.0,
2118.0,2396.0,35.0,0.0,
2030.0,2000.0,35.0,0.0,
2021.0,1806.0,35.0,0.0,
1981.0,1981.0,35.0,0.0,
2090.0,1860.0,35.0,0.0,
2247.0,2094.0,35.0,0.0,
2134.0,2260.0,35.0,0.0,
2165.0,2448.0,35.0,0.0,
2165.0,2067.0,35.0,1.0,
1960.0,1784.0,35.0,1.0,
2042.0,1731.0,35.0,1.0,
1999.0,1960.0,35.0,1.0,
2106.0,2294.0,35.0,2.0,
2118.0,1878.0,36.0,2.0,
1969.0,1999.0,36.0,2.0,
2182.0,2085.0,36.0,2.0,
2185.0,2208.0,36.0,2.0,
2125.0,2333.0,36.0,2.0,
2062.0,2047.0,35.0,2.0,
2068.0,2185.0,35.0,1.0,
2087.0,2201.0,35.0,1.0,
2111.0,2197.0,35.0,1.0,
2053.0,2026.0,36.0,0.0,
2052.0,1912.0,36.0,0.0,
2086.0,2317.0,36.0,0.0,
2022.0,2398.0,36.0,0.0,
2090.0,1991.0,37.0,0.0,
2017.0,1768.0,37.0,0.0,
2064.0,1947.0,39.0,0.0,
2049.0,2036.0,39.0,0.0,
2090.0,1863.0,40.0,0.0,
2174.0,2160.0,41.0,0.0,
2122.0,2327.0,41.0,0.0,
2116.0,2136.0,42.0,0.0,
2059.0,2138.0,40.0,0.0,
2045.0,2131.0,44.0,0.0,
2027.0,2072.0,44.0,0.0,
2101.0,2070.0,40.0,0.0,
2102.0,2046.0,45.0,0.0,
2156.0,2181.0,47.0,0.0,
2115.0,2090.0,47.0,-2.0,
2043.0,1881.0,48.0,-2.0,
2087.0,2207.0,48.0,-2.0,
2082.0,2182.0,48.0,-1.0,
2033.0,1951.0,51.0,-2.0,
2020.0,2099.0,48.0,-3.0,
2072.0,2035.0,49.0,-2.0,
2123.0,2128.0,52.0,-2.0,
2064.0,2150.0,50.0,-3.0,
2033.0,1864.0,49.0,-2.0,
2122.0,2124.0,51.0,-1.0,
2059.0,1996.0,51.0,-1.0,
2059.0,2030.0,52.0,-1.0,
2110.0,2127.0,52.0,-2.0,
2094.0,2055.0,53.0,-2.0,
1989.0,1913.0,53.0,-1.0,
2099.0,2064.0,53.0,-1.0,
2135.0,2237.0,53.0,-2.0,
2077.0,2034.0,53.0,-2.0,
2092.0,2154.0,53.0,-2.0,
2054.0,2068.0,53.0,-2.0,
2064.0,2077.0,53.0,-2.0,
2050.0,1943.0,53.0,-2.0,
2050.0,2066.0,53.0,-1.0,
2072.0,2176.0,53.0,-2.0,
2100.0,2133.0,53.0,-2.0,
2096.0,1986.0,53.0,-2.0,
2132.0,2122.0,53.0,-2.0,
2097.0,2161.0,54.0,-2.0,
2078.0,2271.0,54.0,-2.0,
2056.0,1836.0,54.0,-2.0,
2044.0,1873.0,54.0,-2.0,
2044.0,2024.0,54.0,-2.0,
2097.0,2138.0,54.0,-2.0,
2082.0,2155.0,54.0,-2.0,
2119.0,2043.0,54.0,-2.0,
2113.0,1971.0,54.0,-2.0,
2075.0,2170.0,55.0,-2.0,
2057.0,2144.0,55.0,-2.0,
2070.0,2123.0,55.0,-2.0,
2044.0,2160.0,56.0,-2.0,
2080.0,2081.0,56.0,-2.0,
2098.0,2089.0,56.0,-2.0,
2153.0,2147.0,56.0,-2.0,
2137.0,2122.0,57.0,-2.0,
2098.0,2104.0,57.0,-2.0,
2084.0,2040.0,58.0,-2.0,
2040.0,2045.0,57.0,-2.0,
2072.0,2126.0,58.0,-3.0,
2076.0,2071.0,58.0,-3.0,
2107.0,2119.0,58.0,-3.0,
2081.0,2049.0,58.0,-3.0,
2070.0,1972.0,58.0,-3.0,
2085.0,2066.0,59.0,-3.0,
2118.0,2216.0,59.0,-3.0,
2081.0,2061.0,59.0,-3.0,
2025.0,1903.0,58.0,-3.0,
2024.0,1981.0,59.0,-3.0,
2097.0,2230.0,59.0,-3.0,
2066.0,2101.0,59.0,-3.0,
2105.0,1980.0,59.0,-3.0,
2106.0,1990.0,59.0,-3.0,
2145.0,2035.0,59.0,-3.0,
2097.0,2086.0,59.0,-3.0,
2088.0,2133.0,59.0,-3.0,
2081.0,2082.0,59.0,-3.0,
1989.0,1856.0,59.0,-3.0,
2068.0,2072.0,59.0,-3.0,
2098.0,2079.0,59.0,-3.0,
2125.0,2135.0,59.0,-2.0,
2132.0,2139.0,59.0,-2.0,
2092.0,2106.0,59.0,-2.0,
2069.0,2131.0,60.0,-2.0,
2055.0,2144.0,60.0,-2.0,
2084.0,2153.0,60.0,-2.0,
2057.0,2159.0,61.0,-2.0,
2060.0,1987.0,61.0,-3.0,
2122.0,2128.0,61.0,-3.0,
2131.0,2128.0,61.0,-3.0,
2108.0,2051.0,62.0,-3.0,
2096.0,2076.0,62.0,-3.0,
2085.0,2110.0,62.0,-3.0,
2070.0,2100.0,63.0,-3.0,
2049.0,2034.0,63.0,-3.0,
2094.0,2109.0,63.0,-3.0,
2098.0,2065.0,63.0,-4.0,
2105.0,2066.0,64.0,-4.0,
2138.0,2108.0,64.0,-4.0,
2154.0,2156.0,64.0,-4.0,
2065.0,2020.0,64.0,-4.0,
2062.0,2032.0,64.0,-4.0,
2067.0,2107.0,65.0,-4.0,
2089.0,2136.0,64.0,-4.0,
2011.0,1983.0,65.0,-4.0,
2092.0,1988.0,65.0,-4.0,
2131.0,2007.0,65.0,-4.0,
2121.0,2113.0,65.0,-4.0,
2119.0,2142.0,65.0,-4.0,
2073.0,2118.0,65.0,-4.0,
2036.0,1991.0,65.0,-4.0,
2047.0,1967.0,65.0,-4.0,
2067.0,2046.0,65.0,-4.0,
2078.0,2137.0,65.0,-4.0,
2118.0,2146.0,65.0,-3.0,
2130.0,2219.0,65.0,-4.0,
2127.0,2020.0,65.0,-3.0,
2103.0,2106.0,65.0,-3.0,
2081.0,1975.0,66.0,-3.0,
2093.0,2094.0,66.0,-3.0,
2087.0,1979.0,66.0,-3.0,
2041.0,2198.0,66.0,-3.0,
2051.0,2015.0,67.0,-3.0,
2072.0,2066.0,67.0,-3.0,
2152.0,2112.0,67.0,-3.0,
2133.0,2147.0,67.0,-3.0,
2130.0,2060.0,68.0,-3.0,
2095.0,2049.0,68.0,-4.0,
2105.0,2136.0,68.0,-4.0,
2063.0,2163.0,68.0,-4.0,
2041.0,1989.0,68.0,-4.0,
2097.0,2090.0,69.0,-4.0,
2124.0,2157.0,69.0,-4.0,
2043.0,2204.0,69.0,-4.0,
2079.0,2094.0,69.0,-4.0,
2099.0,1926.0,69.0,-4.0,
2024.0,1755.0,70.0,-4.0,
2037.0,2032.0,70.0,-4.0,
2098.0,2235.0,70.0,-4.0,
2073.0,1978.0,70.0,-4.0,
2104.0,1971.0,70.0,-4.0,
2125.0,2086.0,70.0,-4.0,
2134.0,2113.0,70.0,-4.0,
2124.0,2157.0,70.0,-4.0,
2049.0,2083.0,70.0,-4.0,
2011.0,2091.0,70.0,-4.0,
2043.0,2112.0,70.0,-4.0,
2059.0,2149.0,70.0,-4.0,
2068.0,2173.0,70.0,-3.0,
2096.0,2104.0,70.0,-3.0,
2094.0,2175.0,70.0,-3.0,
2129.0,2137.0,70.0,-3.0,
2067.0,1979.0,70.0,-3.0,
2080.0,2052.0,70.0,-3.0,
2055.0,2073.0,70.0,-3.0,
2059.0,2082.0,70.0,-3.0,
2055.0,2067.0,70.0,-3.0,
2073.0,2130.0,70.0,-3.0,
2136.0,2086.0,70.0,-3.0,
2138.0,2020.0,69.0,-4.0,
2144.0,2094.0,69.0,-4.0,
2099.0,2065.0,69.0,-4.0,
2065.0,2040.0,69.0,-4.0,
2041.0,2086.0,69.0,-4.0,
2071.0,2064.0,68.0,-4.0,
2023.0,2035.0,68.0,-4.0,
2073.0,2053.0,68.0,-5.0,
2099.0,2069.0,68.0,-5.0,
2103.0,2051.0,68.0,-5.0,
2114.0,2053.0,69.0,-5.0,
2108.0,2156.0,69.0,-5.0,
2061.0,2103.0,69.0,-5.0,
2037.0,2058.0,69.0,-5.0,
2059.0,2127.0,69.0,-5.0,
2088.0,2148.0,69.0,-5.0,
2061.0,1979.0,70.0,-5.0,
2102.0,2126.0,70.0,-5.0,
2128.0,2159.0,70.0,-5.0,
2097.0,2075.0,70.0,-5.0,
2070.0,2007.0,70.0,-5.0,
2057.0,1917.0,70.0,-5.0,
2036.0,2068.0,70.0,-4.0,
2058.0,2084.0,70.0,-4.0,
2071.0,2030.0,70.0,-4.0,
2101.0,2119.0,71.0,-4.0,
2116.0,2168.0,71.0,-4.0,
2096.0,2204.0,70.0,-4.0,
2081.0,2024.0,71.0,-4.0,
2058.0,1996.0,70.0,-4.0,
2076.0,2078.0,70.0,-4.0,
2067.0,2278.0,70.0,-4.0,
2065.0,1918.0,71.0,-4.0,
2107.0,1967.0,70.0,-4.0,
2132.0,2050.0,70.0,-4.0,
2133.0,2028.0,70.0,-4.0,
2111.0,2125.0,70.0,-4.0,
2113.0,2045.0,70.0,-4.0,
2079.0,2105.0,70.0,-4.0,
2037.0,2057.0,70.0,-4.0,
2050.0,2150.0,70.0,-4.0,
2128.0,2168.0,69.0,-4.0,
2058.0,2078.0,69.0,-4.0,
2091.0,1987.0,69.0,-4.0,
2108.0,2071.0,69.0,-4.0,
2102.0,2148.0,69.0,-4.0,
2115.0,2089.0,68.0,-4.0,
2104.0,2077.0,68.0,-4.0,
2092.0,2075.0,68.0,-4.0,
2073.0,2119.0,68.0,-4.0,
2089.0,2076.0,68.0,-4.0,
2053.0,2070.0,68.0,-4.0,
2154.0,2092.0,67.0,-4.0,
2114.0,2065.0,67.0,-5.0,
2073.0,2054.0,67.0,-5.0,
2020.0,2058.0,67.0,-4.0,
2088.0,2077.0,67.0,-4.0,
2056.0,2074.0,67.0,-5.0,
2047.0,2078.0,67.0,-4.0,
2058.0,2087.0,66.0,-4.0,
2080.0,2083.0,66.0,-4.0,
2110.0,2084.0,66.0,-5.0,
2103.0,2087.0,66.0,-5.0,
2083.0,2085.0,66.0,-5.0,
2075.0,2074.0,66.0,-5.0,
2061.0,2059.0,66.0,-5.0,
2046.0,2039.0,66.0,-5.0,
2047.0,2066.0,66.0,-5.0,
2064.0,2065.0,66.0,-5.0,
2084.0,2063.0,66.0,-5.0,
2112.0,2078.0,66.0,-5.0,
2124.0,2110.0,66.0,-5.0,
2083.0,2059.0,67.0,-5.0,
2052.0,2070.0,67.0,-5.0,
2026.0,2091.0,67.0,-5.0,
2067.0,2027.0,67.0,-5.0,
2088.0,2118.0,67.0,-5.0,
2091.0,2077.0,67.0,-5.0,
2075.0,1999.0,67.0,-4.0,
2085.0,2045.0,68.0,-4.0,
2136.0,2041.0,68.0,-4.0,
2073.0,2017.0,68.0,-4.0,
2059.0,2043.0,68.0,-4.0,
2054.0,2070.0,68.0,-4.0,
2067.0,2227.0,68.0,-4.0,
2079.0,2163.0,68.0,-4.0,
2137.0,2139.0,68.0,-4.0,
2093.0,1946.0,68.0,-4.0,
2113.0,1962.0,68.0,-4.0,
2123.0,2022.0,68.0,-4.0,
2031.0,2003.0,68.0,-4.0,
2039.0,2063.0,68.0,-4.0,
2068.0,2137.0,68.0,-4.0,
2079.0,1938.0,67.0,-4.0,
2104.0,2145.0,67.0,-4.0,
2114.0,2212.0,68.0,-4.0,
2099.0,2123.0,68.0,-4.0,
2111.0,2044.0,68.0,-4.0,
2118.0,2075.0,68.0,-4.0,
2116.0,2120.0,67.0,-4.0,
2094.0,2078.0,67.0,-4.0,
2088.0,2047.0,67.0,-4.0,
2056.0,2079.0,67.0,-4.0,
2082.0,2093.0,67.0,-4.0,
2097.0,2089.0,67.0,-4.0,
2124.0,2112.0,67.0,-4.0,
2134.0,2103.0,67.0,-4.0,
2121.0,2082.0,67.0,-5.0,
2078.0,2078.0,67.0,-5.0,
2094.0,2083.0,67.0,-5.0,
2050.0,2077.0,67.0,-5.0,
2063.0,2078.0,67.0,-5.0,
2099.0,2062.0,67.0,-5.0,
2113.0,2076.0,67.0,-5.0,
2090.0,2078.0,67.0,-5.0,
2084.0,2080.0,67.0,-5.0,
2080.0,2086.0,67.0,-5.0,
2066.0,2065.0,67.0,-5.0,
2064.0,2063.0,67.0,-5.0,
2050.0,2111.0,67.0,-5.0,
2074.0,2049.0,67.0,-5.0,
2117.0,1969.0,67.0,-5.0,
2058.0,2046.0,67.0,-5.0,
2118.0,2093.0,67.0,-4.0,
2089.0,2169.0,67.0,-4.0,
2085.0,2014.0,67.0,-4.0,
2032.0,2034.0,67.0,-4.0,
2033.0,2135.0,67.0,-4.0,
2041.0,2125.0,67.0,-4.0,
2086.0,2099.0,67.0,-4.0,
2122.0,1991.0,67.0,-4.0,
2141.0,2062.0,67.0,-4.0,
2102.0,2117.0,67.0,-4.0,
2093.0,1982.0,67.0,-4.0,
2099.0,2078.0,67.0,-4.0,
2064.0,2061.0,68.0,-4.0,
2056.0,2145.0,68.0,-4.0,
2111.0,2165.0,68.0,-4.0,
2055.0,2028.0,68.0,-4.0,
2072.0,2002.0,68.0,-4.0,
2117.0,2176.0,68.0,-4.0,
2096.0,1966.0,68.0,-4.0,
2068.0,2009.0,68.0,-4.0,
2063.0,2082.0,68.0,-4.0,
2067.0,2050.0,68.0,-4.0,
2068.0,2091.0,68.0,-4.0,
2054.0,2112.0,67.0,-4.0,
2087.0,2046.0,67.0,-4.0,
2120.0,2082.0,67.0,-4.0,
2140.0,2166.0,67.0,-4.0,
2121.0,2141.0,67.0,-4.0,
2092.0,2016.0,67.0,-4.0,
2069.0,2096.0,67.0,-4.0,
2040.0,2086.0,67.0,-4.0,
2055.0,2129.0,67.0,-4.0,
2055.0,2025.0,67.0,-4.0,
2066.0,2047.0,67.0,-4.0,
2130.0,2136.0,66.0,-4.0,
2125.0,2097.0,66.0,-4.0,
2085.0,2044.0,66.0,-4.0,
2067.0,2078.0,66.0,-4.0,
2052.0,2094.0,66.0,-4.0,
2057.0,2046.0,66.0,-4.0,
2052.0,2061.0,66.0,-4.0,
2076.0,2090.0,66.0,-4.0,
2090.0,2089.0,66.0,-4.0,
2117.0,2089.0,66.0,-4.0,
2110.0,2088.0,66.0,-4.0,
2076.0,2091.0,66.0,-4.0,
2049.0,2075.0,66.0,-4.0,
2062.0,2060.0,66.0,-4.0,
2022.0,2047.0,66.0,-4.0,
2059.0,2063.0,66.0,-4.0,
2087.0,2100.0,66.0,-4.0,
2139.0,2100.0,66.0,-4.0,
2123.0,2056.0,66.0,-4.0,
2136.0,2073.0,66.0,-4.0,
2098.0,2128.0,67.0,-4.0,
2066.0,2056.0,67.0,-4.0,
2021.0,2051.0,67.0,-4.0,
2080.0,2037.0,67.0,-4.0,
2075.0,2067.0,67.0,-4.0,
2065.0,2121.0,67.0,-4.0,
2089.0,2133.0,67.0,-4.0,
2105.0,2053.0,67.0,-4.0,
2077.0,2020.0,67.0,-4.0,
2085.0,2030.0,68.0,-4.0,
1995.0,2082.0,68.0,-4.0,
2110.0,2149.0,68.0,-4.0,
2042.0,1934.0,68.0,-4.0,
2057.0,1950.0,68.0,-4.0,
2114.0,2058.0,68.0,-4.0,
2125.0,2112.0,68.0,-4.0,
2112.0,2072.0,68.0,-4.0,
2089.0,2133.0,68.0,-4.0,
2068.0,2194.0,68.0,-4.0,
2046.0,2029.0,68.0,-4.0,
2058.0,2095.0,67.0,-4.0,
2070.0,2013.0,67.0,-4.0,
2063.0,2057.0,67.0,-4.0,
2084.0,2117.0,67.0,-4.0,
2121.0,2144.0,67.0,-4.0,
2111.0,2092.0,67.0,-4.0,
2083.0,2138.0,67.0,-4.0,
2045.0,2031.0,67.0,-4.0,
2039.0,2004.0,67.0,-4.0,
2065.0,2043.0,66.0,-4.0,
2050.0,2094.0,66.0,-4.0,
2076.0,2109.0,66.0,-4.0,
2118.0,2114.0,66.0,-4.0,
2124.0,2072.0,66.0,-4.0,
2110.0,2111.0,66.0,-4.0,
2081.0,2109.0,66.0,-4.0,
2093.0,2062.0,66.0,-4.0,
2064.0,2079.0,66.0,-4.0,
2038.0,2055.0,66.0,-4.0,
2090.0,2073.0,66.0,-5.0,
2105.0,2109.0,66.0,-5.0,
2102.0,2036.0,66.0,-5.0,
2111.0,2065.0,66.0,-4.0,
2159.0,2063.0,66.0,-5.0,
2104.0,2095.0,66.0,-5.0,
2071.0,2105.0,66.0,-4.0,
2068.0,2056.0,66.0,-4.0,
2073.0,2114.0,66.0,-4.0,
2071.0,2018.0,66.0,-4.0,
2079.0,2038.0,66.0,-4.0,
2098.0,2068.0,66.0,-4.0,
2101.0,2073.0,66.0,-4.0,
2067.0,2074.0,66.0,-4.0,
2057.0,2069.0,66.0,-4.0,
2053.0,2062.0,66.0,-4.0,
2036.0,2079.0,66.0,-4.0,
2048.0,2068.0,66.0,-4.0,
2072.0,2081.0,66.0,-4.0,
2095.0,2104.0,66.0,-4.0,
2098.0,2106.0,66.0,-4.0,
2103.0,2127.0,66.0,-4.0,
2073.0,2095.0,67.0,-4.0,
2047.0,2075.0,67.0,-4.0,
2032.0,2077.0,67.0,-4.0,
2048.0,2194.0,67.0,-4.0,
2080.0,2113.0,67.0,-4.0,
2111.0,1963.0,67.0,-4.0,
2150.0,2144.0,67.0,-4.0,
2106.0,1948.0,67.0,-4.0,
2067.0,2065.0,67.0,-4.0,
2028.0,2118.0,67.0,-4.0,
2062.0,1972.0,67.0,-4.0,
2057.0,2023.0,67.0,-4.0,
2058.0,2034.0,67.0,-4.0,
2111.0,2063.0,67.0,-4.0,
2111.0,2045.0,67.0,-4.0,
2136.0,2086.0,67.0,-4.0,
2125.0,2092.0,67.0,-4.0,
2079.0,2135.0,67.0,-4.0,
2091.0,2100.0,67.0,-4.0,
2048.0,2047.0,67.0,-4.0,
2036.0,2085.0,67.0,-4.0,
2061.0,2101.0,67.0,-4.0,
2107.0,2170.0,67.0,-4.0,
2095.0,2116.0,67.0,-4.0,
2082.0,2095.0,67.0,-4.0,
2093.0,2134.0,67.0,-4.0,
2058.0,2003.0,67.0,-4.0,
2076.0,2125.0,67.0,-4.0,
2089.0,1987.0,67.0,-4.0,
2040.0,2008.0,66.0,-4.0,
2024.0,2055.0,66.0,-4.0,
2099.0,2078.0,66.0,-4.0,
2144.0,2085.0,66.0,-4.0,
2107.0,2096.0,66.0,-4.0,
2130.0,2109.0,66.0,-4.0,
2112.0,2105.0,66.0,-4.0,
2063.0,2087.0,66.0,-4.0,
2049.0,2091.0,66.0,-4.0,
2050.0,2124.0,66.0,-4.0,
2062.0,2056.0,66.0,-4.0,
2092.0,2058.0,66.0,-4.0,
2098.0,2088.0,66.0,-4.0,
2117.0,2095.0,66.0,-4.0,
2070.0,2088.0,66.0,-4.0,
2069.0,2072.0,66.0,-4.0,
2039.0,2070.0,66.0,-4.0,
2045.0,2071.0,66.0,-4.0,
2066.0,2087.0,66.0,-4.0,
2097.0,2191.0,66.0,-4.0,
2079.0,1918.0,66.0,-4.0,
2103.0,2073.0,66.0,-4.0,
2125.0,2121.0,66.0,-4.0,
2088.0,2041.0,66.0,-4.0,
2043.0,1987.0,66.0,-4.0,
2040.0,2046.0,66.0,-4.0,
2029.0,2013.0,67.0,-4.0,
2076.0,2063.0,67.0,-4.0,
2109.0,2105.0,67.0,-4.0,
2146.0,2078.0,67.0,-4.0,
2164.0,2112.0,67.0,-4.0,
2133.0,2089.0,67.0,-4.0,
2095.0,2132.0,67.0,-4.0,
2073.0,2110.0,67.0,-4.0,
2061.0,2015.0,67.0,-4.0,
2074.0,2082.0,67.0,-4.0,
2066.0,2064.0,67.0,-4.0,
2086.0,2073.0,67.0,-4.0,
2098.0,2044.0,67.0,-4.0,
2128.0,2052.0,67.0,-4.0,
2129.0,2086.0,67.0,-4.0,
2079.0,2067.0,67.0,-4.0,
2021.0,2046.0,67.0,-4.0,
2057.0,2036.0,67.0,-4.0,
2092.0,2074.0,67.0,-4.0,
2082.0,2102.0,67.0,-4.0,
2100.0,2137.0,67.0,-4.0,
2110.0,2066.0,67.0,-4.0,
2113.0,2109.0,67.0,-4.0,
2068.0,2075.0,67.0,-4.0,
2057.0,2077.0,67.0,-4.0,
2042.0,2087.0,67.0,-4.0,
2036.0,2100.0,67.0,-4.0,
2057.0,2100.0,67.0,-4.0,
2084.0,2057.0,67.0,-4.0,
2117.0,2099.0,67.0,-4.0,
2129.0,2105.0,66.0,-4.0,
2117.0,2102.0,66.0,-4.0,
2095.0,2073.0,66.0,-4.0,
2056.0,2058.0,67.0,-4.0,
2041.0,2058.0,67.0,-4.0,
2042.0,2062.0,67.0,-4.0,
2074.0,2081.0,67.0,-4.0,
2097.0,2098.0,67.0,-4.0,
2150.0,2061.0,67.0,-4.0,
2134.0,2077.0,67.0,-4.0,
2097.0,2067.0,67.0,-4.0,
2082.0,2072.0,67.0,-4.0,
2076.0,2146.0,67.0,-4.0,
2075.0,2141.0,67.0,-4.0,
2080.0,1978.0,0,
2089.0,2044.0,67.0,-4.0,
2085.0,1994.0,67.0,-4.0,
2126.0,2052.0,67.0,-4.0,
2124.0,2079.0,67.0,-4.0,
2106.0,2090.0,67.0,-4.0,
2077.0,2087.0,67.0,-4.0,
2024.0,2088.0,67.0,-4.0,
2055.0,2098.0,67.0,-4.0,
2062.0,2075.0,67.0,-4.0,
2090.0,2051.0,67.0,-4.0,
2126.0,2079.0,67.0,-4.0,
2107.0,2094.0,67.0,-4.0,
2116.0,2092.0,67.0,-4.0,
2104.0,2116.0,67.0,-4.0,
2058.0,2049.0,67.0,-4.0,
2052.0,2066.0,67.0,-4.0,
1991.0,2046.0,67.0,-4.0,
2083.0,2094.0,67.0,-4.0,
2131.0,2073.0,67.0,-4.0,
2117.0,2064.0,67.0,-4.0,
2103.0,2131.0,67.0,-4.0,
2103.0,2083.0,67.0,-4.0,
2075.0,2051.0,67.0,-4.0,
2040.0,2092.0,67.0,-4.0,
2047.0,2034.0,67.0,-4.0,
2050.0,2080.0,67.0,-4.0,
2069.0,2042.0,67.0,-4.0,
2102.0,2060.0,67.0,-4.0,
2102.0,2056.0,67.0,-4.0,
2108.0,2104.0,67.0,-4.0,
2092.0,2115.0,67.0,-4.0,
2050.0,2062.0,67.0,-4.0,
2057.0,2136.0,67.0,-4.0,
2035.0,2035.0,67.0,-4.0,
2069.0,2084.0,67.0,-4.0,
2088.0,2016.0,67.0,-4.0,
2118.0,2104.0,67.0,-4.0,
2123.0,2065.0,67.0,-4.0,
2117.0,2094.0,67.0,-4.0,
2080.0,2067.0,66.0,-4.0,
2062.0,2074.0,66.0,-4.0,
2049.0,2101.0,66.0,-4.0,
2058.0,2071.0,66.0,-4.0,
2066.0,2078.0,66.0,-4.0,
2103.0,2069.0,66.0,-4.0,
2139.0,2092.0,66.0,-4.0,
2118.0,2087.0,66.0,-4.0,
2096.0,2087.0,66.0,-4.0,
2080.0,2074.0,66.0,-4.0,
2071.0,2069.0,66.0,-4.0,
2088.0,2075.0,66.0,-4.0,
2118.0,2132.0,66.0,-4.0,
2099.0,2126.0,66.0,-4.0,
2124.0,2037.0,66.0,-4.0,
2125.0,2052.0,66.0,-4.0,
2083.0,2062.0,66.0,-4.0,
2078.0,2091.0,66.0,-4.0,
2062.0,2006.0,66.0,-4.0,
2035.0,2079.0,66.0,-4.0,
2077.0,2050.0,66.0,-4.0,
2053.0,2034.0,66.0,-4.0,
2087.0,2070.0,66.0,-4.0,
2104.0,2093.0,66.0,-4.0,
2090.0,2042.0,66.0,-4.0,
2094.0,2091.0,66.0,-4.0,
2059.0,2108.0,66.0,-4.0,
2046.0,2062.0,66.0,-4.0,
2062.0,2069.0,66.0,-4.0,
2063.0,2104.0,66.0,-4.0,
2074.0,2041.0,66.0,-4.0,
2095.0,2078.0,66.0,-4.0,
2096.0,2071.0,66.0,-4.0,
2118.0,2110.0,66.0,-4.0,
2106.0,2105.0,67.0,-4.0,
2087.0,2165.0,67.0,-4.0,
2070.0,2140.0,67.0,-4.0,
2066.0,1950.0,67.0,-4.0,
2033.0,1983.0,67.0,-4.0,
2070.0,2030.0,67.0,-4.0,
2095.0,2060.0,67.0,-4.0,
2120.0,2098.0,67.0,-4.0,
2116.0,2119.0,67.0,-4.0,
2082.0,2117.0,67.0,-4.0,
2064.0,1960.0,67.0,-4.0,
2042.0,2043.0,67.0,-4.0,
2060.0,2070.0,67.0,-4.0,
2095.0,2084.0,67.0,-4.0,
2122.0,2097.0,66.0,-4.0,
2144.0,2106.0,66.0,-4.0,
2130.0,2105.0,66.0,-4.0,
2133.0,2104.0,66.0,-4.0,
2090.0,2093.0,66.0,-4.0,
2059.0,2080.0,66.0,-4.0,
2041.0,2081.0,66.0,-4.0,
2043.0,2092.0,66.0,-4.0,
2046.0,2070.0,66.0,-4.0,
2088.0,2084.0,66.0,-4.0,
2136.0,2117.0,66.0,-4.0,
2141.0,2162.0,66.0,-4.0,
2078.0,2049.0,66.0,-4.0,
2091.0,2024.0,66.0,-4.0,
2073.0,2032.0,66.0,-4.0,
2050.0,2100.0,66.0,-4.0,
2071.0,2059.0,66.0,-4.0,
2088.0,2072.0,66.0,-4.0,
2081.0,2104.0,66.0,-4.0,
2128.0,2118.0,67.0,-4.0,
2088.0,2034.0,66.0,-4.0,
2093.0,2086.0,66.0,-4.0,
2110.0,2087.0,66.0,-4.0,
2045.0,1997.0,67.0,-4.0,
2056.0,2045.0,66.0,-4.0,
2061.0,2044.0,66.0,-4.0,
2100.0,2146.0,66.0,-4.0,
2114.0,2060.0,66.0,-4.0,
2086.0,2063.0,66.0,-4.0,
2075.0,2105.0,66.0,-4.0,
2058.0,2081.0,66.0,-4.0,
2071.0,2026.0,66.0,-4.0,
2059.0,2037.0,66.0,-4.0,
2054.0,2120.0,66.0,-4.0,
2061.0,2035.0,66.0,-4.0,
2110.0,2056.0,66.0,-4.0,
2119.0,2106.0,66.0,-4.0,
2117.0,2092.0,66.0,-4.0,
2098.0,2087.0,66.0,-4.0,
2091.0,2099.0,66.0,-4.0,
2058.0,2190.0,66.0,-4.0,
2058.0,2030.0,66.0,-4.0,
2030.0,2058.0,66.0,-4.0,
2058.0,2043.0,66.0,-4.0,
2076.0,2071.0,66.0,-4.0,
2120.0,2067.0,66.0,-4.0,
2125.0,2165.0,66.0,-4.0,
2103.0,1963.0,66.0,-4.0,
2044.0,2045.0,66.0,-4.0,
2079.0,2056.0,66.0,-4.0,
2109.0,2076.0,66.0,-4.0,
2093.0,2106.0,66.0,-4.0,
2119.0,2121.0,66.0,-4.0,
2110.0,2135.0,66.0,-4.0,
2129.0,2084.0,66.0,-4.0,
2113.0,2090.0,66.0,-4.0,
2078.0,2078.0,66.0,-4.0,
2057.0,2063.0,66.0,-4.0,
2037.0,2080.0,66.0,-4.0,
2042.0,2073.0,66.0,-4.0,
2060.0,2091.0,66.0,-4.0,
2085.0,2091.0,66.0,-4.0,
2130.0,2092.0,66.0,-4.0,
2111.0,2099.0,66.0,-4.0,
2099.0,2093.0,66.0,-4.0,
2071.0,2083.0,66.0,-4.0,
2050.0,2075.0,66.0,-4.0,
2067.0,2083.0,66.0,-4.0,
2063.0,2059.0,66.0,-4.0,
2085.0,2066.0,66.0,-4.0,
2102.0,2117.0,66.0,-4.0,
2117.0,2104.0,66.0,-4.0,
2115.0,1992.0,66.0,-4.0,
2088.0,2035.0,66.0,-4.0,
2075.0,2079.0,66.0,-4.0,
2058.0,2022.0,66.0,-4.0,
2037.0,2048.0,66.0,-4.0,
2039.0,2125.0,66.0,-4.0,
2096.0,2001.0,66.0,-4.0,
2116.0,2081.0,66.0,-4.0,
2108.0,2088.0,66.0,-4.0,
2118.0,2126.0,66.0,-4.0,
2060.0,2043.0,66.0,-4.0,
2061.0,2043.0,66.0,-4.0,
2039.0,2047.0,67.0,-4.0,
2061.0,2069.0,67.0,-4.0,
2086.0,2131.0,67.0,-4.0,
2110.0,2153.0,67.0,-4.0,
2125.0,2127.0,67.0,-4.0,
2119.0,2009.0,67.0,-4.0,
2107.0,2076.0,67.0,-4.0,
2078.0,2122.0,67.0,-4.0,
2031.0,2006.0,67.0,-4.0,
2018.0,2100.0,67.0,-4.0,
2084.0,2024.0,67.0,-4.0,
2115.0,2113.0,67.0,-4.0,
2168.0,2128.0,67.0,-4.0,
2109.0,2044.0,67.0,-4.0,
2097.0,2069.0,67.0,-4.0,
2100.0,2073.0,67.0,-4.0,
2070.0,2065.0,67.0,-4.0,
2044.0,2082.0,67.0,-4.0,
2037.0,2075.0,67.0,-4.0,
2057.0,2098.0,66.0,-4.0,
2083.0,2116.0,66.0,-4.0,
2110.0,2100.0,66.0,-4.0,
2117.0,2094.0,66.0,-4.0,
2114.0,2109.0,66.0,-4.0,
2084.0,2121.0,66.0,-4.0,
2059.0,2023.0,66.0,-4.0,
2034.0,2050.0,66.0,-4.0,
2038.0,2062.0,66.0,-4.0,
2064.0,2054.0,66.0,-4.0,
2086.0,2079.0,67.0,-4.0,
2115.0,2088.0,67.0,-4.0,
2166.0,2097.0,67.0,-4.0,
2141.0,2087.0,66.0,-4.0,
2086.0,2100.0,67.0,-4.0,
2076.0,2055.0,67.0,-4.0,
2078.0,2123.0,67.0,-4.0,
2072.0,2140.0,67.0,-4.0,
2064.0,2065.0,66.0,-4.0,
2072.0,1955.0,66.0,-4.0,
2136.0,2081.0,66.0,-4.0,
2122.0,2238.0,67.0,-4.0,
2086.0,1946.0,66.0,-4.0,
2031.0,2017.0,66.0,-4.0,
2052.0,2062.0,66.0,-4.0,
2038.0,2099.0,66.0,-4.0,
2030.0,2013.0,66.0,-4.0,
2080.0,2075.0,66.0,-4.0,
2102.0,2102.0,66.0,-4.0,
2090.0,2089.0,66.0,-4.0,
2128.0,2088.0,66.0,-4.0,
2120.0,2066.0,66.0,-4.0,
2066.0,2053.0,66.0,-4.0,
2048.0,2063.0,66.0,-4.0,
2057.0,2088.0,66.0,-4.0,
2097.0,2111.0,66.0,-4.0,
2120.0,2089.0,66.0,-4.0,
2131.0,2137.0,66.0,-4.0,
2128.0,2042.0,66.0,-4.0,
2097.0,2110.0,66.0,-4.0,
2057.0,2090.0,66.0,-4.0,
2059.0,2061.0,66.0,-4.0,
2040.0,2032.0,66.0,-4.0,
2029.0,2060.0,66.0,-4.0,
2075.0,2082.0,66.0,-4.0,
2113.0,2140.0,66.0,-4.0,
2124.0,2178.0,66.0,-4.0,
2103.0,2027.0,66.0,-4.0,
2085.0,2046.0,66.0,-4.0,
2039.0,2072.0,66.0,-4.0,
2041.0,2065.0,66.0,-4.0,
2037.0,2007.0,66.0,-4.0,
2075.0,2064.0,66.0,-5.0,
2113.0,2075.0,66.0,-5.0,
2098.0,2078.0,66.0,-5.0,
2110.0,2108.0,66.0,-5.0,
2111.0,2110.0,66.0,-4.0,
2084.0,2102.0,66.0,-4.0,
2070.0,2055.0,66.0,-4.0,
2052.0,2044.0,66.0,-4.0,
2065.0,2075.0,66.0,-4.0,
2040.0,2083.0,66.0,-4.0,
2084.0,2062.0,66.0,-4.0,
2114.0,2108.0,66.0,-4.0,
2139.0,2166.0,66.0,-4.0,
2114.0,2104.0,66.0,-4.0,
2080.0,2014.0,66.0,-4.0,
2017.0,1989.0,66.0,-4.0,
2064.0,2049.0,66.0,-4.0,
2033.0,2040.0,66.0,-4.0,
2063.0,2067.0,67.0,-4.0,
2100.0,2088.0,67.0,-4.0,
2152.0,2068.0,67.0,-4.0,
2170.0,2118.0,67.0,-4.0,
2127.0,2166.0,67.0,-4.0,
2066.0,2047.0,67.0,-4.0,
2034.0,2053.0,67.0,-4.0,
2053.0,2105.0,67.0,-4.0,
2067.0,1978.0,67.0,-4.0,
2077.0,2072.0,67.0,-4.0,
2115.0,2099.0,67.0,-4.0,
2109.0,2087.0,67.0,-4.0,
2111.0,2101.0,67.0,-4.0,
2099.0,2139.0,67.0,-4.0,
2080.0,2134.0,67.0,-4.0,
2019.0,2067.0,67.0,-4.0,
2057.0,2055.0,67.0,-4.0,
2053.0,2056.0,67.0,-4.0,
2084.0,2063.0,67.0,-4.0,
2087.0,2169.0,67.0,-4.0,
2083.0,2082.0,67.0,-4.0,
2140.0,2009.0,67.0,-4.0,
2126.0,2068.0,67.0,-4.0,
2090.0,2100.0,67.0,-4.0,
2039.0,2056.0,67.0,-4.0,
2037.0,2055.0,67.0,-4.0,
2075.0,2029.0,66.0,-4.0,
2107.0,2089.0,66.0,-4.0,
2118.0,2100.0,66.0,-4.0,
2115.0,2103.0,66.0,-4.0,
2096.0,2102.0,66.0,-4.0,
2081.0,2107.0,66.0,-4.0,
2045.0,2088.0,66.0,-4.0,
2031.0,2061.0,66.0,-4.0,
2055.0,2070.0,66.0,-4.0,
2075.0,2072.0,66.0,-4.0,
2112.0,2122.0,66.0,-4.0,
2128.0,2148.0,66.0,-4.0,
2107.0,2071.0,66.0,-4.0,
2085.0,2052.0,66.0,-4.0,
2093.0,2104.0,66.0,-4.0,
2047.0,2128.0,66.0,-4.0,
2050.0,2020.0,66.0,-4.0,
2031.0,2001.0,66.0,-5.0,
2076.0,2042.0,66.0,-4.0,
2147.0,2089.0,66.0,-4.0,
2148.0,2137.0,66.0,-4.0,
2096.0,2055.0,66.0,-4.0,
2138.0,2052.0,66.0,-4.0,
2080.0,2083.0,66.0,-4.0,
2033.0,2068.0,66.0,-4.0,
2046.0,2094.0,66.0,-4.0,
2061.0,2054.0,66.0,-4.0,
2101.0,2052.0,66.0,-4.0,
2118.0,2127.0,66.0,-4.0,
2108.0,2063.0,66.0,-4.0,
2109.0,2118.0,66.0,-4.0,
2074.0,2067.0,66.0,-4.0,
2051.0,2023.0,66.0,-4.0,
2035.0,2079.0,66.0,-4.0,
2061.0,2132.0,66.0,-4.0,
2082.0,2007.0,66.0,-4.0,
2094.0,2060.0,66.0,-4.0,
2104.0,2103.0,66.0,-4.0,
2095.0,2116.0,66.0,-4.0,
2047.0,2067.0,66.0,-4.0,
2066.0,2023.0,66.0,-4.0,
2062.0,2088.0,66.0,-4.0,
2108.0,2139.0,66.0,-4.0,
2107.0,2021.0,66.0,-4.0,
2127.0,2101.0,66.0,-4.0,
2113.0,2075.0,66.0,-4.0,
2101.0,2114.0,66.0,-4.0,
2121.0,2048.0,66.0,-4.0,
2090.0,2083.0,66.0,-4.0,
2088.0,2059.0,66.0,-4.0,
2058.0,2026.0,66.0,-4.0,
2051.0,2060.0,66.0,-4.0,
2060.0,2070.0,66.0,-4.0,
2088.0,2090.0,66.0,-4.0,
2128.0,2102.0,66.0,-4.0,
2134.0,2135.0,66.0,-4.0,
2127.0,2064.0,66.0,-4.0,
2071.0,2121.0,66.0,-4.0,
2042.0,2099.0,66.0,-4.0,
2074.0,2104.0,66.0,-4.0,
2062.0,2064.0,66.0,-4.0,
2065.0,2037.0,66.0,-4.0,
2114.0,2015.0,66.0,-4.0,
2099.0,2071.0,66.0,-4.0,
2114.0,2046.0,66.0,-4.0,
2081.0,2048.0,66.0,-4.0,
2066.0,2074.0,66.0,-4.0,
2087.0,2051.0,66.0,-4.0,
2079.0,2133.0,66.0,-4.0,
2080.0,2119.0,67.0,-4.0,
2087.0,2095.0,67.0,-4.0,
2098.0,1996.0,66.0,-4.0,
2100.0,2052.0,66.0,-4.0,
2095.0,2086.0,66.0,-4.0,
2078.0,2104.0,66.0,-4.0,
2061.0,2079.0,66.0,-4.0,
2074.0,2105.0,66.0,-4.0,
2084.0,2051.0,66.0,-4.0,
2098.0,2084.0,66.0,-4.0,
2104.0,2138.0,66.0,-4.0,
2129.0,2108.0,66.0,-4.0,
2121.0,2074.0,66.0,-4.0,
2080.0,2059.0,66.0,-4.0,
2071.0,2026.0,66.0,-4.0,
2058.0,2038.0,66.0,-4.0,
2041.0,2062.0,66.0,-4.0,
2061.0,2072.0,66.0,-4.0,
2079.0,2096.0,66.0,-4.0,
2094.0,2106.0,66.0,-4.0,
2110.0,2110.0,66.0,-4.0,
2129.0,2122.0,66.0,-4.0,
2109.0,2076.0,66.0,-4.0,
2090.0,2074.0,66.0,-4.0,
2052.0,2076.0,66.0,-4.0,
2083.0,2088.0,66.0,-4.0,
2098.0,2108.0,66.0,-4.0,
2088.0,2086.0,0,
2102.0,2106.0,66.0,-4.0,
2158.0,2069.0,66.0,-4.0,
2142.0,2117.0,66.0,-4.0,
2096.0,2056.0,66.0,-4.0,
2054.0,2000.0,66.0,-4.0,
2042.0,2047.0,66.0,-4.0,
2021.0,2013.0,66.0,-4.0,
2057.0,2113.0,66.0,-4.0,
2089.0,2073.0,66.0,-4.0,
2099.0,2081.0,67.0,-4.0,
2108.0,2088.0,67.0,-4.0,
2130.0,1976.0,67.0,-4.0,
2087.0,2035.0,67.0,-4.0,
2045.0,2017.0,67.0,-4.0,
1990.0,2067.0,67.0,-4.0,
2032.0,2085.0,67.0,-4.0,
2102.0,2144.0,67.0,-4.0,
2137.0,2083.0,67.0,-4.0,
2100.0,1974.0,67.0,-4.0,
2087.0,2147.0,67.0,-4.0,
2069.0,2076.0,67.0,-4.0,
2003.0,2053.0,67.0,-4.0,
1988.0,2127.0,67.0,-4.0,
2009.0,2068.0,67.0,-4.0,
2102.0,2091.0,66.0,-4.0,
2146.0,2019.0,66.0,-4.0,
2149.0,2089.0,66.0,-4.0,
2166.0,2114.0,66.0,-5.0,
2142.0,2105.0,66.0,-4.0,
2107.0,2178.0,66.0,-4.0,
2021.0,2052.0,66.0,-4.0,
1913.0,1966.0,66.0,-4.0,
2006.0,2073.0,66.0,-4.0,
2104.0,2066.0,66.0,-4.0,
2205.0,2079.0,66.0,-4.0,
2213.0,2132.0,66.0,-4.0,
2173.0,2145.0,66.0,-4.0,
2146.0,2152.0,66.0,-4.0,
2076.0,2110.0,66.0,-4.0,
2006.0,2053.0,66.0,-4.0,
2080.0,2074.0,66.0,-5.0,
2080.0,2208.0,66.0,-5.0,
2089.0,2081.0,66.0,-5.0,
2060.0,2098.0,66.0,-5.0,
2083.0,2031.0,66.0,-5.0,
2048.0,1959.0,66.0,-5.0,
2019.0,2011.0,66.0,-5.0,
2051.0,2103.0,66.0,-5.0,
2021.0,2045.0,66.0,-5.0,
2054.0,2161.0,66.0,-5.0,
2033.0,1977.0,66.0,-5.0,
2131.0,2022.0,66.0,-5.0,
2223.0,2154.0,66.0,-4.0,
2159.0,2036.0,66.0,-4.0,
2117.0,2056.0,66.0,-4.0,
2097.0,2161.0,66.0,-4.0,
2054.0,2133.0,66.0,-4.0,
2004.0,1965.0,66.0,-4.0,
2041.0,2095.0,66.0,-4.0,
2090.0,2080.0,66.0,-4.0,
2051.0,2117.0,66.0,-4.0,
2153.0,2222.0,66.0,-4.0,
2144.0,1888.0,66.0,-5.0,
2107.0,2038.0,66.0,-5.0,
2108.0,2062.0,66.0,-5.0,
2032.0,2033.0,66.0,-5.0,
2075.0,2212.0,66.0,-5.0,
2063.0,2019.0,66.0,-5.0,
2026.0,2093.0,66.0,-5.0,
2081.0,2106.0,66.0,-5.0,
2024.0,2090.0,66.0,-5.0,
2230.0,2115.0,66.0,-5.0,
2153.0,2040.0,66.0,-5.0,
2093.0,2115.0,66.0,-5.0,
2070.0,2151.0,66.0,-5.0,
2088.0,2196.0,66.0,-5.0,
2025.0,1948.0,66.0,-5.0,
2022.0,2033.0,66.0,-5.0,
1984.0,2040.0,66.0,-5.0,
2052.0,2175.0,66.0,-5.0,
2033.0,2243.0,66.0,-5.0,
2047.0,2162.0,66.0,-5.0,
2154.0,2014.0,67.0,-5.0,
2166.0,1790.0,67.0,-5.0,
2189.0,2075.0,67.0,-5.0,
2187.0,2134.0,67.0,-5.0,
2180.0,2003.0,67.0,-5.0,
2204.0,2227.0,67.0,-5.0,
2136.0,2168.0,68.0,-5.0,
2011.0,1946.0,68.0,-5.0,
2030.0,1962.0,68.0,-5.0,
2064.0,1991.0,68.0,-6.0,
2103.0,2168.0,69.0,-6.0,
2065.0,2083.0,69.0,-6.0,
2126.0,2194.0,69.0,-6.0,
2023.0,2043.0,69.0,-6.0,
2083.0,2026.0,69.0,-6.0,
2044.0,1966.0,69.0,-6.0,
2027.0,2114.0,69.0,-6.0,
2058.0,2142.0,69.0,-6.0,
2031.0,1921.0,69.0,-6.0,
1959.0,1964.0,70.0,-6.0,
2016.0,2152.0,69.0,-5.0,
2090.0,2115.0,70.0,-5.0,
2119.0,2011.0,69.0,-5.0,
2071.0,1934.0,69.0,-5.0,
2091.0,2101.0,0,
2097.0,2157.0,69.0,-5.0,
2051.0,2193.0,69.0,-5.0,
2119.0,2103.0,69.0,-4.0,
2072.0,1995.0,69.0,-4.0,
2109.0,2134.0,69.0,-4.0,
2074.0,2050.0,69.0,-4.0,
2072.0,2239.0,69.0,-4.0,
2090.0,2177.0,70.0,-4.0,
2150.0,2193.0,70.0,-4.0,
2122.0,2271.0,70.0,-4.0,
2075.0,2131.0,70.0,-4.0,
2073.0,2101.0,71.0,-4.0,
2027.0,1686.0,71.0,-5.0,
2002.0,1947.0,72.0,-5.0,
2089.0,2080.0,72.0,-5.0,
2142.0,2273.0,72.0,-5.0,
2116.0,2059.0,73.0,-5.0,
2051.0,2106.0,73.0,-5.0,
1997.0,1851.0,74.0,-5.0,
2072.0,2062.0,74.0,-5.0,
2048.0,2023.0,75.0,-5.0,
2107.0,2079.0,76.0,-5.0,
2096.0,1919.0,76.0,-5.0,
2043.0,2106.0,77.0,-4.0,
2139.0,2247.0,77.0,-4.0,
2161.0,2299.0,78.0,-4.0,
2096.0,2160.0,78.0,-4.0,
2027.0,1977.0,0,
2051.0,1954.0,79.0,-4.0,
2112.0,2019.0,79.0,-4.0,
2085.0,2173.0,79.0,-4.0,
2043.0,2273.0,79.0,-4.0,
2140.0,1994.0,79.0,-4.0,
2162.0,2021.0,80.0,-4.0,
2090.0,1944.0,80.0,-4.0,
2154.0,2084.0,80.0,-4.0,
2083.0,2217.0,81.0,-4.0,
1985.0,2106.0,81.0,-4.0,
2056.0,2055.0,81.0,-4.0,
2074.0,2275.0,82.0,-4.0,
2154.0,1923.0,82.0,-4.0,
2118.0,1974.0,82.0,-4.0,
2131.0,1931.0,82.0,-4.0,
2052.0,2184.0,82.0,-4.0,
2005.0,1988.0,83.0,-4.0,
2113.0,2211.0,83.0,-4.0,
2068.0,1989.0,83.0,-4.0,
1970.0,2268.0,83.0,-4.0,
2029.0,2023.0,84.0,-4.0,
2142.0,2314.0,84.0,-4.0,
2240.0,2173.0,84.0,-4.0,
2108.0,2004.0,85.0,-4.0,
2071.0,1914.0,85.0,-4.0,
2048.0,2116.0,85.0,-4.0,
2060.0,2063.0,86.0,-4.0,
2081.0,2401.0,86.0,-4.0,
2060.0,2133.0,87.0,-5.0,
2012.0,1683.0,87.0,-4.0,
2085.0,2050.0,88.0,-4.0,
2173.0,1998.0,88.0,-4.0,
2188.0,2587.0,88.0,-4.0,
2140.0,2156.0,89.0,-4.0,
2160.0,1898.0,89.0,-4.0,
2035.0,1624.0,90.0,-4.0,
1995.0,2143.0,90.0,-4.0,
2024.0,1849.0,90.0,-4.0,
2043.0,2428.0,90.0,-3.0,
1972.0,2438.0,91.0,-4.0,
2196.0,2146.0,91.0,-4.0,
2124.0,2033.0,91.0,-4.0,
2039.0,2330.0,92.0,-4.0,
2107.0,1577.0,92.0,-4.0,
2118.0,2099.0,92.0,-3.0,
2079.0,1915.0,92.0,-3.0,
2040.0,1919.0,93.0,-4.0,
2057.0,2246.0,93.0,-4.0,
2097.0,2074.0,93.0,-4.0,
2153.0,2367.0,94.0,-4.0,
2128.0,2686.0,94.0,-4.0,
1885.0,1852.0,94.0,-4.0,
2094.0,1417.0,95.0,-4.0,
2113.0,1929.0,95.0,-3.0,
2094.0,2019.0,95.0,-4.0,
1979.0,2155.0,96.0,-4.0,
2154.0,2292.0,96.0,-3.0,
2162.0,2764.0,96.0,-4.0,
1963.0,1699.0,96.0,-4.0,
2096.0,1758.0,97.0,-4.0,
2120.0,2079.0,0,
2098.0,2092.0,97.0,-4.0,
2084.0,2351.0,98.0,-4.0,
2069.0,2103.0,98.0,-4.0,
2087.0,2030.0,98.0,-4.0,
2092.0,1999.0,98.0,-4.0,
2041.0,2236.0,99.0,-4.0,
2017.0,2313.0,99.0,-4.0,
2111.0,2083.0,99.0,-4.0,
1977.0,2132.0,99.0,-4.0,
2138.0,1784.0,100.0,-4.0,
2119.0,2384.0,100.0,-4.0,
1998.0,2648.0,100.0,-4.0,
1935.0,1465.0,100.0,-4.0,
2193.0,1807.0,100.0,-4.0,
2185.0,1854.0,101.0,-5.0,
2244.0,2246.0,101.0,-5.0,
2101.0,2302.0,101.0,-5.0,
1925.0,2319.0,101.0,-5.0,
2035.0,1677.0,101.0,-5.0,
2081.0,1867.0,102.0,-5.0,
2130.0,2546.0,102.0,-5.0,
2087.0,1942.0,102.0,-5.0,
2046.0,2086.0,102.0,-5.0,
2046.0,2098.0,102.0,-4.0,
2112.0,1996.0,103.0,-4.0,
2087.0,2189.0,103.0,-4.0,
2148.0,2350.0,103.0,-4.0,
1968.0,2189.0,104.0,-4.0,
1936.0,1969.0,104.0,-4.0,
2114.0,2094.0,104.0,-4.0,
2175.0,1693.0,104.0,-4.0,
2193.0,2067.0,105.0,-4.0,
2175.0,2696.0,105.0,-4.0,
1910.0,2172.0,105.0,-5.0,
2026.0,1492.0,105.0,-5.0,
2212.0,1972.0,106.0,-5.0,
2125.0,2113.0,106.0,-5.0,
2044.0,2543.0,106.0,-5.0,
2001.0,2333.0,107.0,-5.0,
2189.0,1902.0,107.0,-5.0,
2276.0,1965.0,107.0,-5.0,
1943.0,1512.0,107.0,-5.0,
2171.0,1949.0,108.0,-5.0,
2141.0,2082.0,108.0,-4.0,
2005.0,1994.0,108.0,-5.0,
1932.0,2374.0,108.0,-5.0,
2173.0,2281.0,109.0,-5.0,
2067.0,1897.0,109.0,-5.0,
2034.0,2260.0,109.0,-5.0,
1992.0,2189.0,109.0,-5.0,
2030.0,1845.0,109.0,-5.0,
2250.0,2003.0,110.0,-5.0,
2095.0,1865.0,110.0,-4.0,
2170.0,2296.0,110.0,-4.0,
2010.0,2320.0,110.0,-4.0,
1899.0,2494.0,110.0,-4.0,
2103.0,2159.0,110.0,-4.0,
1910.0,1509.0,110.0,-4.0,
2207.0,1701.0,110.0,-4.0,
2219.0,2188.0,110.0,-4.0,
2233.0,2229.0,110.0,-4.0,
1947.0,2186.0,110.0,-4.0,
2055.0,1953.0,110.0,-4.0,
2084.0,2266.0,110.0,-4.0,
2065.0,1921.0,110.0,-4.0,
2052.0,1550.0,110.0,-4.0,
1903.0,2285.0,110.0,-4.0,
2336.0,2747.0,110.0,-4.0,
2128.0,1895.0,110.0,-4.0,
2071.0,2026.0,110.0,-4.0,
2108.0,1872.0,111.0,-4.0,
2099.0,2186.0,111.0,-4.0,
1889.0,2018.0,111.0,-4.0,
2091.0,1863.0,111.0,-4.0,
2092.0,2072.0,111.0,-4.0,
2162.0,2164.0,111.0,-4.0,
2177.0,2421.0,111.0,-4.0,
2075.0,1877.0,111.0,-4.0,
2112.0,1719.0,111.0,-4.0,
2144.0,2166.0,112.0,-4.0,
2087.0,2303.0,112.0,-4.0,
2069.0,2395.0,112.0,-4.0,
2020.0,1968.0,112.0,-4.0,
1913.0,2191.0,112.0,-4.0,
1896.0,2111.0,112.0,-4.0,
1991.0,1803.0,112.0,-4.0,
2282.0,1580.0,112.0,-4.0,
2174.0,2078.0,113.0,-4.0,
2121.0,1897.0,113.0,-4.0,
2094.0,2062.0,113.0,-4.0,
2128.0,2416.0,113.0,-4.0,
2076.0,2884.0,113.0,-4.0,
1829.0,1799.0,113.0,-4.0,
2084.0,2143.0,114.0,-4.0,
2213.0,1726.0,114.0,-4.0,
2097.0,1597.0,114.0,-4.0,
2229.0,2087.0,114.0,-4.0,
2149.0,2013.0,114.0,-4.0,
1937.0,2078.0,114.0,-4.0,
2074.0,2412.0,114.0,-4.0,
2126.0,2939.0,115.0,-4.0,
1991.0,1596.0,115.0,-4.0,
2207.0,1905.0,115.0,-4.0,
2141.0,2008.0,115.0,-4.0,
1905.0,1844.0,115.0,-5.0,
2107.0,1957.0,115.0,-5.0,
2091.0,1740.0,115.0,-5.0,
2094.0,2227.0,115.0,-5.0,
2073.0,2615.0,115.0,-5.0,
2112.0,2591.0,115.0,-5.0,
1823.0,1650.0,115.0,-5.0,
2124.0,1668.0,115.0,-5.0,
2290.0,1871.0,115.0,-5.0,
2068.0,2037.0,116.0,-4.0,
2048.0,2220.0,115.0,-4.0,
2193.0,2509.0,115.0,-5.0,
1851.0,2277.0,115.0,-4.0,
2189.0,1741.0,115.0,-4.0,
2183.0,1945.0,115.0,-4.0,
2050.0,2148.0,115.0,-4.0,
2178.0,1944.0,115.0,-4.0,
2049.0,2054.0,115.0,-4.0,
2006.0,2131.0,115.0,-4.0,
2126.0,2040.0,115.0,-4.0,
2036.0,2283.0,115.0,-4.0,
2095.0,2176.0,115.0,-4.0,
1909.0,2206.0,115.0,-4.0,
2014.0,2544.0,115.0,-4.0,
2223.0,1238.0,115.0,-4.0,
2228.0,1768.0,115.0,-4.0,
2037.0,2095.0,115.0,-4.0,
2113.0,2101.0,115.0,-4.0,
2109.0,2406.0,115.0,-4.0,
1946.0,1815.0,115.0,-4.0,
2076.0,2491.0,115.0,-4.0,
1999.0,2255.0,115.0,-4.0,
2249.0,1434.0,115.0,-4.0,
2228.0,1858.0,115.0,-4.0,
2066.0,2072.0,115.0,-4.0,
2062.0,2071.0,115.0,-4.0,
1965.0,2169.0,115.0,-4.0,
2150.0,2346.0,115.0,-4.0,
1975.0,2829.0,115.0,-4.0,
1871.0,2178.0,115.0,-4.0,
2271.0,1105.0,116.0,-4.0,
2281.0,1870.0,116.0,-4.0,
2139.0,1826.0,116.0,-4.0,
2133.0,2112.0,116.0,-4.0,
2074.0,2177.0,116.0,-4.0,
2106.0,3700.0,116.0,-5.0,
1849.0,1914.0,116.0,-5.0,
1932.0,693.0,117.0,-5.0,
2223.0,1696.0,117.0,-5.0,
2121.0,1958.0,117.0,-5.0,
2060.0,2092.0,117.0,-5.0,
2005.0,2212.0,117.0,-5.0,
2091.0,2240.0,117.0,-5.0,
2173.0,2463.0,117.0,-5.0,
2042.0,2639.0,117.0,-5.0,
1913.0,1996.0,117.0,-5.0,
2122.0,1823.0,117.0,-5.0,
2134.0,2139.0,117.0,-5.0,
2031.0,2281.0,117.0,-5.0,
2063.0,2050.0,117.0,-5.0,
2089.0,1396.0,117.0,-5.0,
1969.0,2035.0,117.0,-5.0,
2261.0,2131.0,117.0,-5.0,
2095.0,2224.0,117.0,-5.0,
2150.0,1942.0,117.0,-5.0,
1975.0,1849.0,117.0,-5.0,
2124.0,2071.0,117.0,-5.0,
2045.0,1913.0,117.0,-5.0,
2135.0,2273.0,117.0,-5.0,
2188.0,2488.0,117.0,-5.0,
1968.0,1918.0,117.0,-5.0,
2089.0,1932.0,117.0,-4.0,
2159.0,2092.0,117.0,-4.0,
2141.0,2204.0,117.0,-4.0,
1997.0,1821.0,117.0,-4.0,
2125.0,2130.0,117.0,-4.0,
2083.0,2280.0,117.0,-4.0,
2002.0,1943.0,118.0,-4.0,
2047.0,2049.0,118.0,-4.0,
2059.0,2261.0,118.0,-4.0,
2044.0,2487.0,118.0,-4.0,
1739.0,1445.0,118.0,-4.0,
2322.0,1680.0,118.0,-4.0,
2306.0,2251.0,118.0,-4.0,
2059.0,2201.0,118.0,-4.0,
2233.0,2384.0,119.0,-5.0,
2021.0,1942.0,119.0,-5.0,
2105.0,1647.0,119.0,-5.0,
2142.0,1808.0,119.0,-4.0,
2035.0,2045.0,119.0,-4.0,
2045.0,2257.0,119.0,-4.0,
2120.0,2800.0,119.0,-4.0,
1986.0,2563.0,119.0,-4.0,
2097.0,1407.0,119.0,-4.0,
2204.0,2360.0,119.0,-4.0,
1964.0,2099.0,119.0,-4.0,
2117.0,1479.0,119.0,-4.0,
2102.0,1795.0,119.0,-4.0,
2016.0,2060.0,0,
1991.0,2525.0,119.0,-4.0,
1955.0,2454.0,119.0,-4.0,
2184.0,1582.0,119.0,-4.0,
2238.0,1876.0,119.0,-4.0,
2140.0,1930.0,119.0,-4.0,
2029.0,2084.0,119.0,-4.0,
2009.0,2536.0,119.0,-4.0,
2082.0,2104.0,119.0,-4.0,
2046.0,2269.0,119.0,-4.0,
2125.0,2434.0,119.0,-4.0,
2133.0,1919.0,119.0,-4.0,
1993.0,1825.0,119.0,-4.0,
2086.0,1767.0,119.0,-4.0,
2137.0,1838.0,119.0,-5.0,
2115.0,1949.0,119.0,-4.0,
2062.0,2101.0,119.0,-4.0,
2063.0,2244.0,119.0,-4.0,
2073.0,2355.0,120.0,-4.0,
2125.0,2042.0,120.0,-4.0,
2093.0,1982.0,120.0,-4.0,
2029.0,2590.0,120.0,-4.0,
2095.0,2205.0,120.0,-4.0,
2116.0,2239.0,120.0,-4.0,
1943.0,1725.0,120.0,-4.0,
2092.0,1594.0,119.0,-4.0,
2189.0,2097.0,119.0,-4.0,
2132.0,2328.0,119.0,-4.0,
2110.0,1809.0,119.0,-4.0,
1943.0,2065.0,119.0,-4.0,
2247.0,2314.0,119.0,-4.0,
2149.0,1927.0,119.0,-3.0,
1946.0,2382.0,119.0,-4.0,
1993.0,1808.0,119.0,-5.0,
2102.0,1716.0,119.0,-5.0,
2075.0,2481.0,119.0,-5.0,
1980.0,2440.0,119.0,-5.0,
2182.0,2148.0,119.0,-5.0,
2239.0,1431.0,119.0,-5.0,
2061.0,2364.0,119.0,-4.0,
2063.0,1783.0,119.0,-5.0,
2224.0,2208.0,119.0,-5.0,
2039.0,1786.0,119.0,-4.0,
1988.0,1779.0,119.0,-4.0,
2102.0,2432.0,119.0,-3.0,
1980.0,2209.0,119.0,-3.0,
2195.0,2210.0,118.0,-3.0,
2175.0,2427.0,118.0,-3.0,
1943.0,2003.0,118.0,-3.0,
2014.0,1559.0,118.0,-4.0,
1974.0,2267.0,118.0,-4.0,
2061.0,2258.0,118.0,-4.0,
2027.0,2126.0,118.0,-4.0,
2180.0,2065.0,118.0,-4.0,
2043.0,2547.0,118.0,-4.0,
2087.0,2042.0,117.0,-4.0,
1962.0,1844.0,117.0,-4.0,
2136.0,1772.0,117.0,-4.0,
2275.0,1865.0,117.0,-4.0,
2041.0,1891.0,117.0,-4.0,
2092.0,2122.0,117.0,-4.0,
2088.0,2440.0,117.0,-4.0,
1968.0,2279.0,117.0,-4.0,
2050.0,2160.0,117.0,-4.0,
2216.0,2314.0,117.0,-4.0,
2189.0,1460.0,117.0,-4.0,
2094.0,1901.0,117.0,-4.0,
2057.0,1969.0,117.0,-4.0,
2029.0,2137.0,117.0,-4.0,
2016.0,2099.0,117.0,-4.0,
2052.0,2554.0,117.0,-4.0,
2042.0,1895.0,117.0,-4.0,
2112.0,2059.0,117.0,-5.0,
2074.0,2256.0,117.0,-5.0,
2095.0,2022.0,117.0,-5.0,
2052.0,1943.0,117.0,-5.0,
1967.0,2457.0,117.0,-5.0,
2006.0,2025.0,117.0,-5.0,
2208.0,1770.0,117.0,-5.0,
2119.0,1909.0,117.0,-5.0,
2121.0,1674.0,117.0,-5.0,
2153.0,1994.0,117.0,-5.0,
2101.0,2359.0,117.0,-5.0,
1962.0,3158.0,117.0,-5.0,
1922.0,1644.0,117.0,-5.0,
2103.0,1749.0,117.0,-5.0,
2158.0,1667.0,117.0,-5.0,
2182.0,2035.0,117.0,-5.0,
2148.0,2117.0,117.0,-4.0,
2123.0,2213.0,117.0,-4.0,
2089.0,2010.0,117.0,-4.0,
2110.0,2300.0,117.0,-4.0,
1944.0,2717.0,117.0,-4.0,
2018.0,2598.0,117.0,-4.0,
2031.0,1349.0,117.0,-4.0,
2100.0,1693.0,117.0,-4.0,
2083.0,2074.0,117.0,-4.0,
2030.0,1805.0,117.0,-4.0,
1989.0,2205.0,117.0,-4.0,
2284.0,2416.0,117.0,-4.0,
2152.0,2614.0,117.0,-4.0,
2018.0,1789.0,116.0,-4.0,
2022.0,1887.0,116.0,-4.0,
2055.0,1957.0,116.0,-4.0,
2061.0,2264.0,116.0,-4.0,
2091.0,2043.0,116.0,-4.0,
2066.0,1907.0,116.0,-4.0,
2071.0,2230.0,116.0,-5.0,
2223.0,1968.0,116.0,-5.0,
2109.0,2071.0,116.0,-4.0,
1989.0,2026.0,116.0,-4.0,
1907.0,2482.0,116.0,-4.0,
2060.0,2184.0,116.0,-4.0,
2078.0,1711.0,116.0,-4.0,
2199.0,2054.0,116.0,-4.0,
2066.0,2056.0,116.0,-4.0,
2138.0,2178.0,116.0,-4.0,
1947.0,2416.0,116.0,-4.0,
2129.0,1819.0,116.0,-4.0,
1951.0,1994.0,116.0,-4.0,
1985.0,2422.0,116.0,-4.0,
2154.0,1369.0,116.0,-4.0,
2110.0,1931.0,116.0,-4.0,
2140.0,1905.0,116.0,-4.0,
2159.0,2097.0,117.0,-4.0,
2138.0,2194.0,117.0,-4.0,
2130.0,2279.0,117.0,-4.0,
2049.0,1806.0,117.0,-4.0,
2069.0,2157.0,117.0,-4.0,
1997.0,2026.0,117.0,-4.0,
2130.0,2125.0,117.0,-5.0,
2084.0,2250.0,117.0,-5.0,
2039.0,2087.0,117.0,-5.0,
2028.0,2215.0,117.0,-5.0,
2066.0,2406.0,117.0,-5.0,
2103.0,1718.0,117.0,-5.0,
2083.0,1775.0,117.0,-5.0,
2105.0,2311.0,117.0,-5.0,
2016.0,2230.0,117.0,-5.0,
2049.0,1893.0,118.0,-5.0,
2144.0,1802.0,118.0,-5.0,
2124.0,2079.0,118.0,-5.0,
2138.0,2224.0,118.0,-5.0,
2099.0,2193.0,118.0,-5.0,
1979.0,2181.0,118.0,-4.0,
2135.0,2056.0,118.0,-4.0,
2043.0,2070.0,118.0,-4.0,
2101.0,2089.0,118.0,-4.0,
2097.0,1977.0,118.0,-4.0,
2134.0,2415.0,118.0,-4.0,
1988.0,1894.0,118.0,-4.0,
2131.0,1948.0,118.0,-4.0,
2075.0,2132.0,118.0,-4.0,
2087.0,2473.0,118.0,-4.0,
2061.0,1937.0,118.0,-4.0,
1960.0,1938.0,118.0,-4.0,
2053.0,2206.0,118.0,-4.0,
2154.0,2244.0,118.0,-4.0,
2063.0,1948.0,118.0,-4.0,
2132.0,2038.0,118.0,-4.0,
2047.0,1848.0,118.0,-4.0,
2069.0,1954.0,118.0,-4.0,
2064.0,2044.0,118.0,-4.0,
2086.0,2335.0,118.0,-4.0,
1972.0,2266.0,118.0,-4.0,
2134.0,2000.0,118.0,-4.0,
2143.0,1804.0,118.0,-4.0,
2200.0,2793.0,118.0,-4.0,
2021.0,1725.0,118.0,-4.0,
1982.0,2363.0,118.0,-4.0,
2032.0,1410.0,118.0,-4.0,
2121.0,2009.0,118.0,-4.0,
2074.0,1572.0,118.0,-4.0,
2001.0,2168.0,119.0,-4.0,
2147.0,2445.0,119.0,-4.0,
2124.0,1697.0,119.0,-4.0,
2163.0,2115.0,119.0,-4.0,
2089.0,2337.0,119.0,-4.0,
2033.0,2481.0,119.0,-4.0,
1994.0,1950.0,119.0,-4.0,
1980.0,1801.0,119.0,-4.0,
2176.0,1920.0,119.0,-4.0,
1984.0,2196.0,119.0,-4.0,
2103.0,2198.0,119.0,-4.0,
2195.0,2160.0,119.0,-4.0,
2083.0,2037.0,119.0,-4.0,
2032.0,2040.0,119.0,-4.0,
2093.0,2220.0,119.0,-4.0,
2111.0,2151.0,119.0,-4.0,
2023.0,2429.0,118.0,-4.0,
1971.0,2006.0,118.0,-4.0,
2053.0,1540.0,118.0,-4.0,
2143.0,1819.0,118.0,-4.0,
2134.0,1865.0,118.0,-4.0,
2106.0,2171.0,118.0,-4.0,
2113.0,2121.0,118.0,-4.0,
2084.0,2233.0,118.0,-4.0,
2073.0,2234.0,118.0,-4.0,
2026.0,2093.0,118.0,-4.0,
2019.0,1963.0,118.0,-4.0,
2082.0,2247.0,118.0,-4.0,
2146.0,1954.0,118.0,-4.0,
2176.0,2162.0,118.0,-4.0,
2088.0,2043.0,118.0,-4.0,
2026.0,2157.0,118.0,-4.0,
2058.0,2113.0,118.0,-4.0,
2103.0,1973.0,118.0,-4.0,
2021.0,1872.0,118.0,-4.0,
2083.0,1952.0,118.0,-4.0,
2043.0,1801.0,118.0,-4.0,
2115.0,2078.0,118.0,-4.0,
2136.0,1964.0,118.0,-4.0,
2095.0,2237.0,118.0,-4.0,
2092.0,2296.0,118.0,-4.0,
2107.0,2122.0,118.0,-4.0,
1982.0,2193.0,118.0,-4.0,
1950.0,1609.0,118.0,-4.0,
2085.0,1880.0,118.0,-4.0,
2125.0,2171.0,118.0,-4.0,
2124.0,2085.0,118.0,-4.0,
2196.0,2105.0,118.0,-4.0,
2073.0,2162.0,118.0,-4.0,
2112.0,2512.0,118.0,-4.0,
2064.0,2018.0,118.0,-4.0,
2040.0,2033.0,118.0,-4.0,
2034.0,2052.0,118.0,-4.0,
2122.0,1996.0,118.0,-4.0,
2123.0,2177.0,118.0,-4.0,
2102.0,2025.0,118.0,-4.0,
2073.0,2143.0,118.0,-4.0,
2081.0,2057.0,118.0,-4.0,
1989.0,1938.0,118.0,-4.0,
2062.0,2274.0,118.0,-5.0,
2061.0,1954.0,118.0,-5.0,
2072.0,2068.0,118.0,-5.0,
2116.0,2043.0,117.0,-5.0,
2138.0,2100.0,117.0,-5.0,
2153.0,2147.0,117.0,-5.0,
2128.0,2251.0,117.0,-5.0,
2059.0,1958.0,117.0,-5.0,
2073.0,2051.0,117.0,-5.0,
2011.0,2045.0,117.0,-5.0,
2058.0,2055.0,117.0,-5.0,
2112.0,2047.0,117.0,-5.0,
2072.0,2143.0,117.0,-5.0,
2107.0,2089.0,117.0,-5.0,
2126.0,2100.0,117.0,-5.0,
2082.0,2169.0,117.0,-4.0,
2043.0,2065.0,117.0,-4.0,
2052.0,1993.0,117.0,-4.0,
2043.0,2021.0,117.0,-4.0,
2070.0,2028.0,117.0,-4.0,
2085.0,1947.0,117.0,-4.0,
2114.0,2054.0,117.0,-4.0,
2174.0,2000.0,117.0,-4.0,
2095.0,2017.0,117.0,-4.0,
2087.0,2249.0,117.0,-4.0,
2049.0,2064.0,117.0,-4.0,
2112.0,2038.0,117.0,-4.0,
1921.0,1959.0,117.0,-4.0,
2174.0,2099.0,117.0,-4.0,
2145.0,2145.0,117.0,-4.0,
2138.0,2038.0,117.0,-4.0,
2125.0,2080.0,117.0,-4.0,
2055.0,2106.0,117.0,-4.0,
2020.0,2232.0,117.0,-4.0,
2081.0,2042.0,117.0,-4.0,
2046.0,2123.0,117.0,-4.0,
2026.0,2050.0,117.0,-4.0,
2075.0,2061.0,0,
2108.0,1978.0,117.0,-4.0,
2055.0,2145.0,117.0,-4.0,
2141.0,2080.0,117.0,-4.0,
2117.0,2109.0,117.0,-4.0,
2057.0,2010.0,117.0,-4.0,
2080.0,2110.0,117.0,-4.0,
2068.0,2168.0,117.0,-4.0,
2054.0,2137.0,117.0,-4.0,
2043.0,2137.0,116.0,-4.0,
2089.0,1959.0,116.0,-4.0,
2133.0,1983.0,116.0,-4.0,
2093.0,2123.0,116.0,-4.0,
2073.0,2081.0,116.0,-4.0,
2040.0,2104.0,115.0,-4.0,
2056.0,1989.0,115.0,-4.0,
2053.0,2002.0,115.0,-4.0,
2058.0,2062.0,114.0,-4.0,
2049.0,2125.0,114.0,-4.0,
2057.0,2122.0,114.0,-4.0,
2055.0,2172.0,113.0,-4.0,
2022.0,2091.0,113.0,-4.0,
2083.0,2068.0,112.0,-4.0,
2085.0,2049.0,112.0,-4.0,
2031.0,2064.0,111.0,-4.0,
2060.0,2046.0,111.0,-4.0,
2156.0,2065.0,111.0,-5.0,
2190.0,2074.0,110.0,-5.0,
2147.0,2069.0,110.0,-5.0,
2164.0,2045.0,109.0,-5.0,
2136.0,2051.0,109.0,-5.0,
2068.0,2043.0,108.0,-5.0,
2050.0,2035.0,108.0,-5.0,
2054.0,2027.0,108.0,-5.0,
2054.0,2057.0,107.0,-5.0,
2055.0,2076.0,107.0,-5.0,
2118.0,2096.0,107.0,-5.0,
2164.0,2045.0,107.0,-5.0,
2195.0,2052.0,106.0,-5.0,
2166.0,2098.0,106.0,-5.0,
2067.0,2078.0,106.0,-5.0,
2110.0,2042.0,106.0,-5.0,
2043.0,2134.0,106.0,-5.0,
2003.0,1967.0,105.0,-5.0,
2079.0,2115.0,105.0,-5.0,
2096.0,2172.0,105.0,-4.0,
2095.0,2070.0,105.0,-4.0,
2071.0,2056.0,105.0,-4.0,
2062.0,2026.0,105.0,-4.0,
2018.0,2207.0,104.0,-4.0,
2040.0,2168.0,104.0,-4.0,
2046.0,2003.0,104.0,-4.0,
2071.0,2106.0,104.0,-3.0,
2101.0,2089.0,104.0,-3.0,
2068.0,2113.0,104.0,-3.0,
2071.0,2047.0,104.0,-3.0,
2111.0,2151.0,104.0,-3.0,
2059.0,1681.0,104.0,-3.0,
2012.0,2226.0,104.0,-2.0,
2000.0,2094.0,104.0,-2.0,
2037.0,2188.0,104.0,-1.0,
1996.0,2051.0,104.0,-2.0,
2098.0,2058.0,104.0,-2.0,
2253.0,2185.0,104.0,-1.0,
2161.0,2054.0,104.0,-1.0,
2144.0,2011.0,103.0,-1.0,
2093.0,2039.0,103.0,-1.0,
2105.0,2029.0,103.0,-1.0,
2088.0,2042.0,102.0,0.0,
2079.0,2116.0,101.0,0.0,
2109.0,2151.0,101.0,-1.0,
2120.0,2166.0,100.0,0.0,
2103.0,2018.0,99.0,0.0,
2027.0,1948.0,98.0,0.0,
2067.0,2025.0,97.0,0.0,
2029.0,2084.0,96.0,0.0,
2056.0,2156.0,95.0,0.0,
2045.0,2160.0,94.0,0.0,
2071.0,1859.0,93.0,0.0,
2099.0,1983.0,92.0,0.0,
2102.0,2125.0,91.0,0.0,
2104.0,2021.0,91.0,-1.0,
2104.0,2031.0,89.0,-1.0,
2064.0,2000.0,87.0,-1.0,
2050.0,2207.0,85.0,-1.0,
2028.0,2128.0,84.0,0.0,
2053.0,2128.0,83.0,0.0,
2054.0,2132.0,82.0,-1.0,
2092.0,2035.0,81.0,-1.0,
2106.0,2195.0,79.0,-1.0,
2090.0,2138.0,78.0,-1.0,
2062.0,2110.0,78.0,0.0,
2044.0,2067.0,78.0,0.0,
2037.0,2069.0,79.0,0.0,
2055.0,2078.0,79.0,-1.0,
2060.0,1931.0,79.0,-2.0,
2057.0,2196.0,79.0,-2.0,
2070.0,1741.0,79.0,-2.0,
2089.0,2346.0,79.0,-2.0,
2133.0,2118.0,79.0,-3.0,
2129.0,2118.0,78.0,-4.0,
2068.0,2105.0,78.0,-4.0,
2046.0,2076.0,78.0,-5.0,
2072.0,2065.0,78.0,-5.0,
2098.0,2074.0,78.0,-5.0,
2099.0,2076.0,78.0,-6.0,
2130.0,2058.0,78.0,-6.0,
2108.0,2096.0,78.0,-7.0,
2064.0,2072.0,78.0,-7.0,
2055.0,2091.0,78.0,-7.0,
2027.0,2072.0,79.0,-7.0,
2052.0,2064.0,79.0,-7.0,
2040.0,1982.0,79.0,-7.0,
2060.0,2133.0,80.0,-7.0,
2127.0,2054.0,80.0,-6.0,
2147.0,2114.0,80.0,-6.0,
2149.0,2062.0,80.0,-6.0,
2105.0,2076.0,80.0,-6.0,
2086.0,2129.0,80.0,-5.0,
2032.0,2190.0,80.0,-5.0,
2059.0,2053.0,80.0,-5.0,
2010.0,1923.0,0,
2043.0,1966.0,80.0,-4.0,
2119.0,1939.0,80.0,-4.0,
2134.0,2120.0,80.0,-4.0,
2114.0,2238.0,79.0,-4.0,
2102.0,2077.0,79.0,-4.0,
2043.0,2017.0,78.0,-4.0,
2074.0,2064.0,78.0,-4.0,
2038.0,1973.0,77.0,-3.0,
2046.0,2082.0,76.0,-4.0,
2073.0,2087.0,76.0,-4.0,
2069.0,2113.0,75.0,-3.0,
2092.0,2061.0,74.0,-3.0,
2063.0,2074.0,73.0,-3.0,
2099.0,2077.0,73.0,-2.0,
2147.0,2117.0,72.0,-2.0,
2084.0,2093.0,71.0,-2.0,
2079.0,2104.0,71.0,-2.0,
2084.0,2010.0,71.0,-1.0,
2107.0,1996.0,71.0,-1.0,
2116.0,2135.0,71.0,0.0,
2118.0,2011.0,70.0,0.0,
2088.0,2182.0,70.0,0.0,
2090.0,2118.0,70.0,-1.0,
2071.0,2051.0,69.0,-1.0,
2040.0,2064.0,69.0,-1.0,
2036.0,2088.0,68.0,-2.0,
2050.0,2064.0,68.0,-2.0,
2070.0,2090.0,67.0,-3.0,
2122.0,2100.0,66.0,-3.0,
2102.0,2040.0,66.0,-4.0,
2105.0,2196.0,65.0,-4.0,
2083.0,2132.0,65.0,-5.0,
2027.0,2130.0,65.0,-5.0,
2017.0,2101.0,65.0,-5.0,
2091.0,1962.0,65.0,-6.0,
2137.0,2015.0,65.0,-6.0,
2108.0,2048.0,65.0,-6.0,
2119.0,2064.0,65.0,-6.0,
2118.0,2089.0,65.0,-6.0,
2076.0,2108.0,65.0,-6.0,
2060.0,1954.0,65.0,-6.0,
2030.0,2077.0,65.0,-6.0,
2034.0,1948.0,66.0,-6.0,
2097.0,2012.0,66.0,-6.0,
2077.0,2069.0,66.0,-6.0,
2123.0,2054.0,66.0,-6.0,
2108.0,2112.0,66.0,-6.0,
2153.0,2139.0,65.0,-5.0,
2105.0,2017.0,65.0,-5.0,
2083.0,2042.0,65.0,-5.0,
2030.0,2072.0,65.0,-5.0,
2030.0,2087.0,65.0,-4.0,
2103.0,2049.0,65.0,-4.0,
2112.0,2172.0,64.0,-4.0,
2149.0,2127.0,64.0,-4.0,
2133.0,2092.0,64.0,-4.0,
2092.0,2095.0,64.0,-3.0,
2063.0,2210.0,63.0,-3.0,
2067.0,2119.0,63.0,-3.0,
2042.0,1994.0,62.0,-3.0,
2042.0,2150.0,62.0,-3.0,
2072.0,2092.0,62.0,-3.0,
2075.0,1995.0,62.0,-3.0,
2090.0,2016.0,62.0,-3.0,
2108.0,2152.0,61.0,-3.0,
2096.0,2080.0,61.0,-3.0,
2059.0,2042.0,61.0,-3.0,
2059.0,2066.0,61.0,-3.0,
2069.0,2065.0,61.0,-4.0,
2075.0,2073.0,61.0,-4.0,
2085.0,2074.0,62.0,-4.0,
2091.0,2072.0,62.0,-4.0,
2144.0,2077.0,62.0,-4.0,
2108.0,2064.0,62.0,-4.0,
2101.0,2023.0,62.0,-4.0,
2065.0,2022.0,63.0,-4.0,
2033.0,2109.0,63.0,-4.0,
2036.0,2002.0,63.0,-4.0,
2068.0,2140.0,63.0,-4.0,
2103.0,2101.0,64.0,-4.0,
2116.0,2100.0,64.0,-4.0,
2116.0,2083.0,64.0,-4.0,
2103.0,2053.0,64.0,-4.0,
2067.0,2097.0,64.0,-4.0,
2049.0,2069.0,64.0,-4.0,
2050.0,2055.0,64.0,-4.0,
2051.0,2068.0,65.0,-4.0,
2079.0,2074.0,65.0,-4.0,
2106.0,2081.0,65.0,-4.0,
2102.0,2085.0,65.0,-4.0,
2095.0,2087.0,65.0,-3.0,
2090.0,2081.0,65.0,-3.0,
2074.0,2074.0,65.0,-3.0,
2061.0,2069.0,66.0,-3.0,
2044.0,2069.0,66.0,-3.0,
2071.0,2071.0,66.0,-3.0,
2101.0,2071.0,66.0,-3.0,
2119.0,2080.0,66.0,-3.0,
2112.0,2099.0,67.0,-3.0,
2106.0,2110.0,67.0,-3.0,
2077.0,2124.0,67.0,-3.0,
2050.0,2017.0,67.0,-3.0,
2049.0,2062.0,67.0,-3.0,
2049.0,2111.0,68.0,-3.0,
2066.0,2088.0,68.0,-3.0,
2086.0,1989.0,68.0,-3.0,
2112.0,2112.0,68.0,-3.0,
2113.0,2079.0,69.0,-3.0,
2089.0,2097.0,69.0,-3.0,
2069.0,1922.0,69.0,-3.0,
2026.0,2055.0,69.0,-3.0,
2025.0,2066.0,69.0,-2.0,
2065.0,2169.0,69.0,-2.0,
2091.0,2105.0,70.0,-2.0,
2128.0,1968.0,70.0,-2.0,
2099.0,2098.0,70.0,-2.0,
2101.0,2115.0,70.0,-2.0,
2086.0,2128.0,69.0,-2.0,
2050.0,2056.0,69.0,-2.0,
2044.0,2047.0,69.0,-2.0,
2009.0,2019.0,69.0,-2.0,
2016.0,1995.0,69.0,-2.0,
2048.0,2103.0,68.0,-2.0,
2098.0,2090.0,68.0,-2.0,
2199.0,2102.0,68.0,-2.0,
2161.0,2118.0,68.0,-2.0,
2115.0,2078.0,67.0,-2.0,
2104.0,2074.0,67.0,-2.0,
2079.0,2157.0,67.0,-2.0,
2045.0,2048.0,67.0,-2.0,
2069.0,2073.0,67.0,-2.0,
2099.0,2095.0,67.0,-2.0,
2144.0,2115.0,67.0,-2.0,
2101.0,2088.0,66.0,-2.0,
2096.0,2074.0,66.0,-3.0,
2065.0,2092.0,66.0,-3.0,
2040.0,2080.0,66.0,-3.0,
2033.0,2068.0,66.0,-3.0,
2037.0,2062.0,66.0,-4.0,
2060.0,2066.0,66.0,-4.0,
2075.0,2091.0,0,
2107.0,2111.0,66.0,-4.0,
2129.0,2109.0,66.0,-4.0,
2140.0,2052.0,66.0,-4.0,
2091.0,2076.0,66.0,-4.0,
2060.0,2046.0,66.0,-4.0,
2064.0,2006.0,66.0,-4.0,
2046.0,2021.0,66.0,-4.0,
2063.0,2145.0,65.0,-4.0,
2122.0,2104.0,65.0,-4.0,
2145.0,2116.0,65.0,-4.0,
2117.0,2043.0,65.0,-4.0,
