2030.0,2147.0,5.0,-8.0,
2045.0,2122.0,5.0,-8.0,
2044.0,2073.0,5.0,-8.0,
2062.0,2055.0,5.0,-8.0,
2062.0,2052.0,5.0,-8.0,
2056.0,2043.0,5.0,-8.0,
2048.0,2045.0,5.0,-8.0,
2057.0,2029.0,5.0,-8.0,
2055.0,2055.0,5.0,-8.0,
2053.0,2014.0,5.0,-7.0,
2060.0,1929.0,5.0,-7.0,
2043.0,1924.0,5.0,-7.0,
2059.0,2008.0,5.0,-7.0,
2063.0,2039.0,5.0,-7.0,
2060.0,2002.0,5.0,-7.0,
2047.0,2022.0,5.0,-7.0,
2052.0,2041.0,5.0,-7.0,
2052.0,2028.0,5.0,-7.0,
2052.0,2032.0,5.0,-7.0,
2051.0,2051.0,5.0,-7.0,
2057.0,2083.0,5.0,-7.0,
2072.0,2035.0,5.0,-7.0,
2069.0,2058.0,5.0,-7.0,
2058.0,2031.0,5.0,-7.0,
2056.0,2043.0,5.0,-7.0,
2048.0,2057.0,5.0,-7.0,
2049.0,2063.0,5.0,-7.0,
2050.0,2054.0,5.0,-8.0,
2061.0,2046.0,5.0,-7.0,
2069.0,2043.0,5.0,-7.0,
2065.0,2052.0,5.0,-7.0,
2057.0,2042.0,5.0,-7.0,
2052.0,2000.0,5.0,-7.0,
2058.0,1990.0,5.0,-7.0,
2047.0,2047.0,5.0,-7.0,
2035.0,2035.0,5.0,-7.0,
2053.0,2040.0,5.0,-7.0,
2050.0,2045.0,5.0,-7.0,
2053.0,2022.0,5.0,-7.0,
2061.0,2057.0,5.0,-7.0,
2065.0,2029.0,5.0,-7.0,
2063.0,2020.0,5.0,-8.0,
2052.0,2016.0,5.0,-7.0,
2038.0,2033.0,5.0,-7.0,
2039.0,2074.0,5.0,-8.0,
2048.0,2054.0,5.0,-7.0,
2060.0,2014.0,5.0,-7.0,
2066.0,2045.0,5.0,-7.0,
2066.0,2026.0,5.0,-8.0,
2064.0,2041.0,5.0,-8.0,
2064.0,2038.0,5.0,-8.0,
2067.0,2055.0,5.0,-8.0,
2049.0,2072.0,5.0,-8.0,
2033.0,2073.0,5.0,-8.0,
2046.0,2052.0,5.0,-8.0,
2046.0,2073.0,5.0,-8.0,
2047.0,1982.0,0,
2046.0,2000.0,5.0,-8.0,
2062.0,2081.0,5.0,-8.0,
2055.0,2005.0,5.0,-8.0,
2053.0,1993.0,5.0,-8.0,
2041.0,2052.0,5.0,-7.0,
2038.0,2061.0,5.0,-8.0,
2041.0,2056.0,5.0,-7.0,
2055.0,2046.0,5.0,-7.0,
2056.0,2057.0,5.0,-7.0,
2062.0,2055.0,5.0,-7.0,
2058.0,2044.0,5.0,-7.0,
2059.0,2044.0,5.0,-7.0,
2059.0,2047.0,5.0,-7.0,
2048.0,2052.0,5.0,-7.0,
2029.0,2045.0,5.0,-7.0,
2031.0,2049.0,5.0,-7.0,
2040.0,2044.0,5.0,-7.0,
2050.0,2046.0,5.0,-7.0,
2063.0,2049.0,5.0,-7.0,
2080.0,2034.0,5.0,-7.0,
2059.0,2036.0,5.0,-7.0,
2042.0,2060.0,5.0,-7.0,
2043.0,2048.0,5.0,-7.0,
2042.0,2054.0,5.0,-7.0,
2030.0,2086.0,5.0,-7.0,
2048.0,2046.0,5.0,-7.0,
2058.0,2032.0,5.0,-7.0,
2054.0,2063.0,5.0,-7.0,
2052.0,2063.0,5.0,-7.0,
2043.0,2033.0,5.0,-7.0,
2031.0,2009.0,5.0,-7.0,
2048.0,2044.0,5.0,-7.0,
2041.0,2067.0,5.0,-7.0,
2040.0,2086.0,5.0,-7.0,
2055.0,2040.0,5.0,-7.0,
2063.0,2058.0,5.0,-7.0,
2071.0,2045.0,5.0,-7.0,
2060.0,2040.0,5.0,-7.0,
2064.0,2035.0,5.0,-7.0,
2057.0,2028.0,5.0,-8.0,
2041.0,2026.0,5.0,-8.0,
2050.0,2056.0,5.0,-8.0,
2040.0,2064.0,5.0,-7.0,
2053.0,2064.0,5.0,-7.0,
2063.0,2043.0,5.0,-7.0,
2057.0,2048.0,5.0,-7.0,
2064.0,2043.0,5.0,-7.0,
2060.0,2039.0,5.0,-7.0,
2054.0,2004.0,5.0,-7.0,
2048.0,2011.0,5.0,-7.0,
2028.0,2042.0,5.0,-7.0,
2057.0,2043.0,5.0,-7.0,
2043.0,2023.0,5.0,-7.0,
2046.0,2072.0,5.0,-7.0,
2061.0,2061.0,5.0,-7.0,
2055.0,2053.0,5.0,-7.0,
2059.0,2049.0,5.0,-7.0,
2042.0,2015.0,5.0,-7.0,
2023.0,2001.0,5.0,-7.0,
2040.0,2052.0,5.0,-7.0,
2049.0,2055.0,5.0,-7.0,
2050.0,2037.0,5.0,-7.0,
2067.0,2037.0,5.0,-8.0,
2075.0,2073.0,5.0,-8.0,
2062.0,2051.0,5.0,-8.0,
2067.0,2033.0,5.0,-7.0,
2064.0,2035.0,5.0,-7.0,
2048.0,2039.0,5.0,-8.0,
2051.0,2093.0,5.0,-8.0,
2047.0,2097.0,5.0,-7.0,
2055.0,2070.0,5.0,-7.0,
2076.0,2049.0,5.0,-8.0,
2062.0,2043.0,5.0,-7.0,
2066.0,2047.0,5.0,-7.0,
2059.0,2016.0,5.0,-7.0,
2052.0,2026.0,5.0,-8.0,
2043.0,2004.0,5.0,-7.0,
2031.0,2028.0,5.0,-7.0,
2058.0,2061.0,5.0,-7.0,
2048.0,2066.0,5.0,-7.0,
2050.0,2024.0,5.0,-7.0,
2059.0,2054.0,5.0,-7.0,
2056.0,2003.0,5.0,-7.0,
2049.0,2013.0,5.0,-7.0,
2046.0,2020.0,5.0,-7.0,
2043.0,2044.0,5.0,-7.0,
2047.0,2029.0,5.0,-7.0,
2040.0,2042.0,5.0,-7.0,
2036.0,2055.0,5.0,-7.0,
2036.0,2041.0,5.0,-7.0,
2059.0,2059.0,5.0,-7.0,
2049.0,2030.0,5.0,-7.0,
2041.0,2009.0,6.0,-7.0,
2038.0,2045.0,6.0,-7.0,
2043.0,2067.0,6.0,-7.0,
2042.0,2064.0,6.0,-7.0,
2041.0,2128.0,6.0,-7.0,
2051.0,2083.0,6.0,-7.0,
2059.0,2059.0,6.0,-7.0,
2064.0,2024.0,6.0,-7.0,
2071.0,1964.0,5.0,-7.0,
2058.0,2018.0,5.0,-7.0,
2055.0,2035.0,5.0,-7.0,
2054.0,2025.0,5.0,-7.0,
2051.0,2056.0,5.0,-7.0,
2046.0,2067.0,5.0,-8.0,
2059.0,2067.0,5.0,-7.0,
2060.0,2060.0,5.0,-7.0,
2062.0,2057.0,5.0,-7.0,
2064.0,2103.0,5.0,-7.0,
2098.0,2079.0,5.0,-7.0,
2032.0,1978.0,5.0,-7.0,
2034.0,1998.0,5.0,-7.0,
2028.0,2047.0,5.0,-7.0,
2052.0,2057.0,5.0,-7.0,
2046.0,2050.0,5.0,-7.0,
2050.0,2066.0,5.0,-7.0,
2053.0,2049.0,5.0,-7.0,
2067.0,1984.0,5.0,-7.0,
2061.0,2046.0,5.0,-7.0,
2055.0,2027.0,5.0,-7.0,
2056.0,2078.0,5.0,-7.0,
2044.0,2058.0,5.0,-7.0,
2042.0,2047.0,5.0,-7.0,
2048.0,2053.0,5.0,-7.0,
2060.0,2049.0,5.0,-7.0,
2058.0,2036.0,5.0,-7.0,
2064.0,2042.0,5.0,-7.0,
2063.0,2025.0,5.0,-7.0,
2060.0,2014.0,5.0,-7.0,
2055.0,2056.0,5.0,-7.0,
2052.0,2045.0,5.0,-7.0,
2043.0,2054.0,5.0,-7.0,
2042.0,2025.0,5.0,-7.0,
2055.0,2045.0,5.0,-7.0,
2057.0,2065.0,5.0,-7.0,
2058.0,2054.0,5.0,-7.0,
2049.0,2026.0,5.0,-7.0,
2037.0,2020.0,5.0,-7.0,
2041.0,2042.0,5.0,-7.0,
2054.0,2051.0,5.0,-7.0,
2049.0,2068.0,5.0,-7.0,
2053.0,2040.0,5.0,-7.0,
2068.0,2027.0,5.0,-7.0,
2062.0,2027.0,5.0,-7.0,
2065.0,2026.0,5.0,-7.0,
2063.0,2022.0,5.0,-7.0,
2057.0,2036.0,5.0,-7.0,
2047.0,2036.0,5.0,-7.0,
2036.0,2050.0,5.0,-7.0,
2043.0,2081.0,5.0,-7.0,
2062.0,2084.0,5.0,-7.0,
2081.0,2068.0,5.0,-7.0,
2060.0,2066.0,5.0,-7.0,
2055.0,2003.0,5.0,-7.0,
2043.0,1987.0,5.0,-7.0,
2042.0,2034.0,5.0,-7.0,
2051.0,2071.0,5.0,-7.0,
2045.0,2104.0,5.0,-7.0,
2045.0,2071.0,5.0,-7.0,
2035.0,2046.0,5.0,-7.0,
2059.0,2083.0,5.0,-7.0,
2064.0,2068.0,0,
2062.0,2075.0,6.0,-7.0,
2055.0,2051.0,6.0,-7.0,
2053.0,1987.0,6.0,-7.0,
2026.0,2027.0,6.0,-7.0,
2036.0,2044.0,5.0,-7.0,
2035.0,2058.0,5.0,-7.0,
2050.0,2052.0,5.0,-7.0,
2061.0,2062.0,5.0,-7.0,
2061.0,2044.0,5.0,-7.0,
2058.0,2035.0,5.0,-8.0,
2046.0,2028.0,5.0,-7.0,
2036.0,2060.0,5.0,-7.0,
2037.0,2057.0,5.0,-7.0,
2041.0,2058.0,5.0,-7.0,
2072.0,2071.0,5.0,-7.0,
2050.0,2060.0,5.0,-7.0,
2060.0,2031.0,5.0,-7.0,
2055.0,2034.0,5.0,-7.0,
2070.0,2057.0,5.0,-7.0,
2073.0,2038.0,5.0,-7.0,
2060.0,2048.0,5.0,-7.0,
2053.0,2045.0,5.0,-7.0,
2054.0,2047.0,5.0,-7.0,
2046.0,2083.0,5.0,-7.0,
2026.0,2031.0,5.0,-7.0,
2040.0,2046.0,5.0,-8.0,
2052.0,2052.0,5.0,-8.0,
2047.0,2033.0,5.0,-8.0,
2040.0,2027.0,5.0,-8.0,
2035.0,2014.0,5.0,-8.0,
2029.0,2030.0,5.0,-8.0,
2030.0,2076.0,5.0,-8.0,
2034.0,2085.0,5.0,-8.0,
2053.0,2068.0,5.0,-7.0,
2064.0,2051.0,5.0,-7.0,
2053.0,2063.0,5.0,-7.0,
2056.0,2039.0,5.0,-7.0,
2051.0,2055.0,5.0,-7.0,
2055.0,1985.0,5.0,-7.0,
2040.0,1988.0,5.0,-7.0,
2033.0,2016.0,5.0,-7.0,
2047.0,2051.0,5.0,-7.0,
2044.0,2071.0,5.0,-7.0,
2051.0,2097.0,5.0,-7.0,
2059.0,2075.0,5.0,-7.0,
2063.0,2021.0,5.0,-7.0,
2058.0,1976.0,5.0,-7.0,
2066.0,1979.0,5.0,-7.0,
2047.0,2025.0,5.0,-7.0,
2047.0,2032.0,5.0,-7.0,
2045.0,2047.0,5.0,-7.0,
2051.0,2058.0,5.0,-7.0,
2061.0,2044.0,5.0,-7.0,
2069.0,2073.0,5.0,-7.0,
2079.0,2094.0,5.0,-7.0,
2065.0,2038.0,5.0,-7.0,
2047.0,2040.0,5.0,-7.0,
2049.0,2054.0,5.0,-7.0,
2051.0,1987.0,5.0,-7.0,
2056.0,2028.0,5.0,-7.0,
2049.0,2061.0,5.0,-7.0,
2062.0,2074.0,5.0,-7.0,
2068.0,2044.0,5.0,-7.0,
2063.0,2041.0,5.0,-7.0,
2051.0,2013.0,5.0,-7.0,
2045.0,2050.0,5.0,-7.0,
2055.0,2049.0,5.0,-7.0,
2051.0,2063.0,5.0,-7.0,
2057.0,2051.0,5.0,-8.0,
2057.0,2061.0,5.0,-7.0,
2062.0,2034.0,5.0,-7.0,
2056.0,2027.0,5.0,-7.0,
2047.0,2025.0,5.0,-7.0,
2058.0,2044.0,5.0,-7.0,
2061.0,2045.0,5.0,-8.0,
2042.0,2026.0,5.0,-8.0,
2028.0,2051.0,5.0,-7.0,
2022.0,2047.0,5.0,-7.0,
2043.0,2038.0,5.0,-7.0,
2055.0,2052.0,5.0,-7.0,
2065.0,2041.0,5.0,-7.0,
2063.0,2033.0,5.0,-7.0,
2055.0,2049.0,5.0,-7.0,
2043.0,2043.0,5.0,-7.0,
2043.0,2056.0,5.0,-7.0,
2037.0,2067.0,5.0,-7.0,
2033.0,2079.0,5.0,-7.0,
2049.0,2071.0,5.0,-7.0,
2055.0,2067.0,5.0,-7.0,
2055.0,2027.0,5.0,-7.0,
2054.0,2017.0,5.0,-7.0,
2048.0,2000.0,5.0,-7.0,
2038.0,2038.0,5.0,-8.0,
2033.0,2051.0,5.0,-8.0,
2029.0,2070.0,5.0,-8.0,
2039.0,2068.0,5.0,-8.0,
2030.0,2047.0,5.0,-8.0,
2057.0,2019.0,5.0,-8.0,
2070.0,2054.0,5.0,-8.0,
2070.0,2042.0,5.0,-8.0,
2057.0,2046.0,5.0,-8.0,
2058.0,2050.0,5.0,-7.0,
2032.0,2070.0,5.0,-7.0,
2041.0,2080.0,5.0,-7.0,
2063.0,2099.0,5.0,-7.0,
2053.0,2053.0,5.0,-7.0,
2054.0,1928.0,5.0,-7.0,
2057.0,1994.0,5.0,-7.0,
2053.0,2021.0,6.0,-7.0,
2055.0,2031.0,6.0,-7.0,
2045.0,2044.0,6.0,-7.0,
2046.0,2048.0,6.0,-7.0,
2040.0,2061.0,6.0,-7.0,
2046.0,2079.0,6.0,-7.0,
2067.0,2067.0,6.0,-7.0,
2062.0,2085.0,6.0,-7.0,
2058.0,2019.0,6.0,-7.0,
2059.0,2000.0,5.0,-7.0,
2047.0,2021.0,5.0,-7.0,
2052.0,2047.0,5.0,-7.0,
2050.0,2047.0,5.0,-7.0,
2056.0,2046.0,5.0,-7.0,
2049.0,2072.0,5.0,-7.0,
2051.0,2010.0,5.0,-7.0,
2051.0,2037.0,5.0,-7.0,
2057.0,2045.0,5.0,-7.0,
2059.0,2031.0,5.0,-7.0,
2056.0,2034.0,5.0,-7.0,
2052.0,2012.0,5.0,-7.0,
2045.0,2038.0,5.0,-7.0,
2035.0,2066.0,5.0,-7.0,
2041.0,2063.0,5.0,-7.0,
2061.0,2053.0,5.0,-7.0,
2072.0,2035.0,5.0,-7.0,
2062.0,2040.0,5.0,-7.0,
2075.0,2029.0,5.0,-7.0,
2065.0,2044.0,5.0,-7.0,
2046.0,2040.0,5.0,-7.0,
2040.0,2049.0,5.0,-7.0,
2037.0,2049.0,5.0,-7.0,
2042.0,2047.0,5.0,-7.0,
2040.0,2032.0,5.0,-7.0,
2056.0,2048.0,5.0,-7.0,
2077.0,2072.0,5.0,-7.0,
2075.0,2066.0,5.0,-7.0,
2089.0,2050.0,5.0,-7.0,
2125.0,1970.0,5.0,-7.0,
2253.0,2002.0,5.0,-7.0,
2201.0,2056.0,5.0,-7.0,
2189.0,2094.0,5.0,-7.0,
2051.0,2087.0,5.0,-7.0,
1943.0,2062.0,5.0,-7.0,
1996.0,1987.0,5.0,-7.0,
2038.0,2009.0,5.0,-7.0,
2013.0,2038.0,5.0,-7.0,
1933.0,2067.0,5.0,-7.0,
1883.0,2057.0,5.0,-7.0,
1820.0,2021.0,5.0,-7.0,
1836.0,2035.0,5.0,-7.0,
1938.0,2009.0,5.0,-7.0,
1965.0,2049.0,5.0,-7.0,
2013.0,2057.0,5.0,-7.0,
2063.0,2002.0,5.0,-8.0,
2136.0,2053.0,5.0,-7.0,
2178.0,2031.0,5.0,-7.0,
2213.0,2011.0,5.0,-8.0,
2162.0,2034.0,5.0,-8.0,
2099.0,2051.0,5.0,-8.0,
2054.0,2041.0,5.0,-8.0,
2069.0,2043.0,5.0,-8.0,
2039.0,2051.0,5.0,-7.0,
1980.0,2042.0,5.0,-7.0,
1954.0,2052.0,5.0,-7.0,
1877.0,2040.0,5.0,-7.0,
1939.0,2036.0,5.0,-7.0,
2000.0,2063.0,5.0,-7.0,
2002.0,2097.0,5.0,-7.0,
2026.0,2094.0,5.0,-7.0,
2081.0,2085.0,5.0,-7.0,
2118.0,2045.0,5.0,-8.0,
2136.0,1958.0,5.0,-8.0,
2136.0,2008.0,5.0,-8.0,
2184.0,1993.0,5.0,-7.0,
2147.0,2003.0,5.0,-7.0,
2105.0,2055.0,5.0,-7.0,
2087.0,2062.0,5.0,-7.0,
2051.0,2083.0,5.0,-7.0,
1991.0,2082.0,5.0,-7.0,
1993.0,2052.0,5.0,-7.0,
2036.0,2044.0,0,
2035.0,2030.0,5.0,-7.0,
2026.0,2024.0,5.0,-7.0,
2057.0,2037.0,5.0,-8.0,
2286.0,2068.0,5.0,-8.0,
2235.0,2076.0,5.0,-8.0,
2084.0,2052.0,5.0,-8.0,
2026.0,2041.0,5.0,-8.0,
1969.0,2038.0,5.0,-8.0,
1972.0,2058.0,5.0,-8.0,
1986.0,2045.0,5.0,-8.0,
1989.0,2013.0,5.0,-8.0,
2013.0,2040.0,5.0,-8.0,
2035.0,2084.0,5.0,-8.0,
2020.0,2112.0,5.0,-8.0,
1974.0,2105.0,4.0,-8.0,
2023.0,2028.0,4.0,-8.0,
2023.0,2051.0,4.0,-8.0,
2028.0,1970.0,4.0,-8.0,
2014.0,1992.0,4.0,-8.0,
2095.0,1949.0,4.0,-8.0,
2107.0,1995.0,4.0,-8.0,
2110.0,2023.0,4.0,-8.0,
2101.0,2059.0,4.0,-8.0,
2084.0,2064.0,4.0,-8.0,
2085.0,2056.0,4.0,-8.0,
2071.0,2060.0,4.0,-8.0,
2068.0,2061.0,4.0,-8.0,
2074.0,2088.0,4.0,-8.0,
2044.0,2120.0,4.0,-8.0,
1986.0,2035.0,4.0,-7.0,
2078.0,1972.0,4.0,-8.0,
2144.0,1977.0,4.0,-8.0,
2168.0,2040.0,4.0,-8.0,
2230.0,2082.0,4.0,-8.0,
2142.0,2078.0,4.0,-8.0,
1969.0,2036.0,4.0,-8.0,
1909.0,2049.0,4.0,-8.0,
1865.0,2029.0,4.0,-8.0,
1892.0,2104.0,4.0,-8.0,
1929.0,2127.0,4.0,-8.0,
1895.0,2106.0,5.0,-7.0,
1867.0,2040.0,5.0,-7.0,
1883.0,1994.0,5.0,-7.0,
1952.0,2013.0,5.0,-7.0,
2035.0,2036.0,5.0,-7.0,
2082.0,2017.0,5.0,-7.0,
2124.0,1957.0,5.0,-7.0,
2238.0,1992.0,5.0,-7.0,
2365.0,1964.0,5.0,-7.0,
2450.0,1990.0,5.0,-7.0,
2344.0,2077.0,6.0,-8.0,
2150.0,2061.0,5.0,-8.0,
1887.0,2046.0,5.0,-8.0,
1756.0,2090.0,5.0,-7.0,
1719.0,2074.0,5.0,-7.0,
1811.0,2090.0,5.0,-7.0,
1897.0,2151.0,5.0,-7.0,
1981.0,2072.0,5.0,-7.0,
2162.0,2072.0,5.0,-7.0,
2133.0,1987.0,0,
2076.0,1977.0,5.0,-8.0,
2061.0,1992.0,5.0,-8.0,
2075.0,2017.0,5.0,-8.0,
2112.0,2059.0,5.0,-8.0,
2109.0,2069.0,5.0,-8.0,
2132.0,2034.0,5.0,-8.0,
2153.0,2042.0,4.0,-8.0,
2114.0,2075.0,4.0,-8.0,
2080.0,2039.0,4.0,-8.0,
2035.0,2028.0,4.0,-8.0,
2039.0,2018.0,4.0,-8.0,
2017.0,1999.0,4.0,-8.0,
2025.0,2083.0,4.0,-8.0,
2050.0,2112.0,4.0,-8.0,
2054.0,2072.0,5.0,-8.0,
2112.0,1932.0,5.0,-8.0,
2142.0,1957.0,5.0,-8.0,
2113.0,2037.0,5.0,-7.0,
2063.0,2077.0,5.0,-7.0,
2050.0,2107.0,5.0,-7.0,
2018.0,2061.0,5.0,-7.0,
1995.0,2080.0,6.0,-7.0,
1987.0,2058.0,6.0,-7.0,
1945.0,2096.0,6.0,-7.0,
2022.0,2089.0,6.0,-7.0,
2122.0,2073.0,7.0,-7.0,
2173.0,2074.0,7.0,-7.0,
2243.0,2050.0,7.0,-7.0,
2217.0,2058.0,8.0,-7.0,
2156.0,2034.0,8.0,-7.0,
2220.0,2044.0,8.0,-7.0,
2177.0,2063.0,9.0,-7.0,
2142.0,1997.0,9.0,-6.0,
1992.0,2082.0,9.0,-6.0,
1879.0,2132.0,9.0,-6.0,
1787.0,2097.0,10.0,-6.0,
1765.0,1977.0,10.0,-6.0,
1720.0,1997.0,10.0,-5.0,
1774.0,1994.0,11.0,-5.0,
1863.0,1926.0,11.0,-6.0,
1989.0,1965.0,10.0,-7.0,
2019.0,2061.0,10.0,-7.0,
2063.0,2083.0,10.0,-7.0,
2062.0,2042.0,10.0,-7.0,
2093.0,1950.0,10.0,-7.0,
2120.0,1980.0,10.0,-7.0,
2114.0,1995.0,10.0,-7.0,
2154.0,2018.0,10.0,-8.0,
2171.0,1996.0,9.0,-8.0,
2349.0,2063.0,10.0,-7.0,
2288.0,2044.0,10.0,-7.0,
2246.0,2093.0,11.0,-6.0,
2142.0,2045.0,11.0,-6.0,
2030.0,2081.0,11.0,-6.0,
1969.0,2108.0,10.0,-6.0,
1924.0,2084.0,10.0,-6.0,
2013.0,2050.0,10.0,-6.0,
2114.0,2024.0,10.0,-6.0,
2079.0,2021.0,10.0,-7.0,
2066.0,2018.0,10.0,-7.0,
2022.0,2051.0,10.0,-7.0,
1988.0,2034.0,10.0,-7.0,
2004.0,2066.0,9.0,-7.0,
2013.0,2126.0,9.0,-7.0,
1978.0,2085.0,9.0,-7.0,
1972.0,2059.0,8.0,-7.0,
1977.0,1983.0,8.0,-6.0,
1949.0,1946.0,8.0,-7.0,
1951.0,1945.0,8.0,-7.0,
2041.0,1996.0,7.0,-7.0,
2118.0,2042.0,7.0,-7.0,
2124.0,2053.0,7.0,-7.0,
2127.0,2057.0,7.0,-7.0,
2136.0,2040.0,8.0,-7.0,
2151.0,2042.0,8.0,-6.0,
2133.0,2069.0,9.0,-6.0,
2224.0,2097.0,9.0,-7.0,
2237.0,2093.0,9.0,-6.0,
2074.0,2058.0,9.0,-6.0,
1977.0,2028.0,10.0,-6.0,
1910.0,2103.0,10.0,-6.0,
1889.0,2048.0,11.0,-5.0,
1877.0,2036.0,12.0,-5.0,
1912.0,2061.0,12.0,-5.0,
1996.0,1996.0,12.0,-5.0,
2032.0,1987.0,13.0,-5.0,
2068.0,2001.0,13.0,-5.0,
2082.0,2060.0,14.0,-5.0,
2086.0,2047.0,14.0,-4.0,
2140.0,2102.0,15.0,-4.0,
2175.0,2066.0,16.0,-3.0,
2149.0,2057.0,16.0,-4.0,
2153.0,2049.0,16.0,-4.0,
2264.0,2051.0,16.0,-4.0,
2158.0,1938.0,17.0,-4.0,
2054.0,2043.0,17.0,-3.0,
1922.0,2067.0,18.0,-3.0,
1897.0,2067.0,18.0,-3.0,
1966.0,2079.0,18.0,-3.0,
1965.0,2046.0,18.0,-4.0,
1979.0,2044.0,18.0,-4.0,
2064.0,2066.0,18.0,-3.0,
2188.0,2016.0,18.0,-3.0,
2164.0,1985.0,19.0,-3.0,
2049.0,1982.0,19.0,-3.0,
1989.0,1948.0,18.0,-4.0,
2023.0,2021.0,18.0,-4.0,
2050.0,2056.0,18.0,-4.0,
2079.0,2057.0,18.0,-4.0,
1996.0,2071.0,18.0,-4.0,
2015.0,2048.0,17.0,-4.0,
1992.0,1985.0,17.0,-4.0,
1998.0,2021.0,17.0,-4.0,
2003.0,2080.0,16.0,-4.0,
2026.0,2095.0,16.0,-4.0,
1994.0,2086.0,16.0,-4.0,
1986.0,2046.0,15.0,-4.0,
2029.0,2044.0,15.0,-5.0,
2086.0,2011.0,14.0,-5.0,
2298.0,2104.0,14.0,-5.0,
2205.0,2098.0,13.0,-5.0,
2212.0,2014.0,13.0,-5.0,
2091.0,1945.0,13.0,-5.0,
1985.0,1972.0,13.0,-5.0,
1901.0,2004.0,12.0,-6.0,
1982.0,2021.0,12.0,-6.0,
2006.0,2004.0,11.0,-6.0,
1929.0,2067.0,10.0,-6.0,
1867.0,2046.0,10.0,-5.0,
1891.0,2029.0,10.0,-5.0,
1895.0,2038.0,10.0,-5.0,
1975.0,2026.0,10.0,-6.0,
2095.0,2056.0,10.0,-7.0,
2059.0,2087.0,10.0,-7.0,
2090.0,2071.0,11.0,-7.0,
2190.0,2107.0,12.0,-6.0,
2170.0,2051.0,13.0,-6.0,
2090.0,2013.0,14.0,-6.0,
2076.0,1966.0,14.0,-5.0,
2181.0,1964.0,15.0,-5.0,
2196.0,1986.0,15.0,-5.0,
2139.0,2019.0,16.0,-4.0,
2235.0,2043.0,16.0,-3.0,
2205.0,2056.0,17.0,-3.0,
2049.0,2084.0,17.0,-3.0,
1888.0,2118.0,17.0,-3.0,
1808.0,2074.0,17.0,-3.0,
1851.0,2053.0,18.0,-3.0,
1898.0,2060.0,18.0,-3.0,
1949.0,2016.0,19.0,-3.0,
1972.0,2108.0,19.0,-3.0,
2039.0,2093.0,20.0,-3.0,
2088.0,2093.0,20.0,-3.0,
2127.0,2055.0,21.0,-3.0,
2116.0,2095.0,21.0,-3.0,
2117.0,2007.0,21.0,-2.0,
2104.0,1928.0,22.0,-2.0,
2106.0,1982.0,22.0,-2.0,
2103.0,2045.0,22.0,-2.0,
2154.0,2025.0,23.0,-2.0,
2262.0,2020.0,23.0,-2.0,
2232.0,2075.0,23.0,-2.0,
2143.0,2091.0,24.0,-1.0,
2003.0,2069.0,24.0,-1.0,
1973.0,1986.0,24.0,0.0,
2082.0,2007.0,25.0,0.0,
2057.0,2028.0,25.0,0.0,
2041.0,2018.0,25.0,-1.0,
2003.0,2060.0,25.0,-1.0,
2069.0,2051.0,25.0,0.0,
2083.0,2030.0,25.0,0.0,
1984.0,2064.0,25.0,0.0,
1852.0,2029.0,24.0,-1.0,
1803.0,2056.0,24.0,-1.0,
1807.0,2077.0,24.0,-1.0,
1914.0,2049.0,23.0,-1.0,
2107.0,2020.0,23.0,-1.0,
2227.0,2053.0,23.0,-1.0,
2311.0,2079.0,23.0,-1.0,
2308.0,2059.0,22.0,-1.0,
2167.0,2042.0,22.0,-1.0,
1983.0,2040.0,22.0,-1.0,
1852.0,2072.0,22.0,-2.0,
1831.0,2020.0,21.0,-2.0,
1822.0,2032.0,21.0,-2.0,
1888.0,2067.0,21.0,-1.0,
2034.0,2001.0,21.0,-1.0,
2096.0,2019.0,20.0,-1.0,
2031.0,2003.0,20.0,-1.0,
2123.0,2029.0,20.0,-1.0,
2284.0,2077.0,20.0,-2.0,
2169.0,2090.0,20.0,-2.0,
1979.0,2054.0,20.0,-2.0,
1945.0,2051.0,20.0,-2.0,
1977.0,2081.0,20.0,-2.0,
2042.0,2022.0,20.0,-2.0,
2084.0,2101.0,20.0,-2.0,
2056.0,2144.0,20.0,-2.0,
2052.0,2079.0,21.0,-2.0,
2068.0,2024.0,21.0,-2.0,
2006.0,1969.0,21.0,-2.0,
2043.0,1937.0,21.0,-2.0,
2066.0,1971.0,21.0,-2.0,
2038.0,2045.0,21.0,-1.0,
2086.0,2043.0,22.0,-1.0,
2236.0,2070.0,22.0,-1.0,
2364.0,2119.0,23.0,-1.0,
2338.0,2035.0,23.0,-2.0,
2190.0,1980.0,23.0,-2.0,
2022.0,2013.0,23.0,-1.0,
1981.0,2058.0,24.0,-1.0,
1901.0,2022.0,24.0,-1.0,
1850.0,2034.0,24.0,-1.0,
1874.0,2069.0,25.0,-1.0,
1902.0,2080.0,25.0,-1.0,
1950.0,2038.0,25.0,-1.0,
2042.0,2060.0,25.0,0.0,
2146.0,2058.0,25.0,0.0,
2231.0,2056.0,25.0,0.0,
2277.0,2062.0,25.0,0.0,
2225.0,2025.0,25.0,0.0,
2208.0,2069.0,25.0,0.0,
2091.0,2034.0,25.0,0.0,
1952.0,2034.0,25.0,0.0,
1799.0,2025.0,25.0,0.0,
1689.0,2053.0,25.0,0.0,
1826.0,2087.0,25.0,0.0,
1947.0,2026.0,25.0,0.0,
2025.0,2059.0,25.0,0.0,
2028.0,1956.0,25.0,0.0,
1995.0,2006.0,25.0,0.0,
1952.0,2089.0,25.0,0.0,
2002.0,2091.0,25.0,0.0,
2144.0,2088.0,25.0,0.0,
2275.0,2064.0,25.0,0.0,
2409.0,2038.0,25.0,0.0,
2254.0,2011.0,25.0,0.0,
2079.0,1980.0,25.0,0.0,
1943.0,2011.0,25.0,0.0,
1913.0,2104.0,25.0,0.0,
1976.0,2099.0,25.0,0.0,
1892.0,2111.0,26.0,0.0,
2092.0,2027.0,26.0,0.0,
2157.0,1998.0,26.0,0.0,
2073.0,2003.0,26.0,0.0,
1990.0,1931.0,26.0,0.0,
1948.0,1976.0,26.0,0.0,
1938.0,2042.0,26.0,0.0,
1912.0,2078.0,26.0,0.0,
2032.0,2123.0,26.0,0.0,
2533.0,2092.0,26.0,0.0,
2522.0,2084.0,26.0,0.0,
2350.0,2009.0,27.0,0.0,
2131.0,2019.0,26.0,0.0,
1886.0,2006.0,26.0,0.0,
1898.0,2008.0,26.0,0.0,
1836.0,2036.0,26.0,0.0,
1868.0,2092.0,26.0,0.0,
1891.0,2077.0,26.0,0.0,
1951.0,2081.0,26.0,0.0,
1936.0,2104.0,26.0,1.0,
1877.0,2085.0,26.0,0.0,
1881.0,2032.0,26.0,0.0,
1906.0,2045.0,26.0,0.0,
1962.0,1993.0,26.0,0.0,
1963.0,2027.0,26.0,0.0,
1986.0,2026.0,26.0,0.0,
2105.0,2036.0,26.0,0.0,
2155.0,2005.0,26.0,0.0,
2181.0,1991.0,27.0,0.0,
2212.0,1980.0,27.0,0.0,
2170.0,2110.0,26.0,0.0,
2206.0,2073.0,26.0,0.0,
2193.0,2038.0,27.0,0.0,
2194.0,2048.0,27.0,0.0,
2143.0,2047.0,27.0,0.0,
2121.0,2058.0,27.0,0.0,
2040.0,2028.0,27.0,1.0,
2028.0,2051.0,27.0,0.0,
2047.0,2019.0,27.0,0.0,
2041.0,2035.0,28.0,0.0,
2013.0,2083.0,28.0,1.0,
2038.0,2065.0,28.0,1.0,
2073.0,2075.0,28.0,1.0,
2106.0,2075.0,29.0,1.0,
2158.0,2093.0,29.0,1.0,
2109.0,2009.0,29.0,1.0,
2021.0,1967.0,29.0,1.0,
1998.0,1974.0,29.0,2.0,
1936.0,1983.0,30.0,2.0,
1927.0,2036.0,30.0,2.0,
1940.0,2095.0,30.0,3.0,
2043.0,2059.0,31.0,3.0,
2128.0,2059.0,31.0,3.0,
2342.0,2106.0,31.0,3.0,
2250.0,2069.0,32.0,3.0,
2137.0,2070.0,32.0,3.0,
1951.0,1990.0,32.0,3.0,
1906.0,1966.0,32.0,3.0,
1900.0,2067.0,33.0,3.0,
1855.0,2050.0,33.0,4.0,
1942.0,2058.0,33.0,4.0,
2019.0,2068.0,33.0,5.0,
2074.0,2061.0,33.0,4.0,
2129.0,2048.0,33.0,4.0,
2171.0,2028.0,33.0,4.0,
2088.0,1998.0,33.0,4.0,
2055.0,2025.0,33.0,4.0,
2049.0,2055.0,33.0,4.0,
1996.0,2032.0,33.0,4.0,
1967.0,2061.0,33.0,4.0,
1961.0,2007.0,33.0,4.0,
1936.0,2034.0,33.0,3.0,
1905.0,2029.0,33.0,4.0,
1879.0,2018.0,34.0,4.0,
2062.0,2042.0,34.0,4.0,
2146.0,2062.0,34.0,4.0,
2097.0,2068.0,34.0,5.0,
2117.0,2074.0,34.0,5.0,
2111.0,2025.0,34.0,4.0,
2163.0,2042.0,34.0,4.0,
2297.0,2071.0,35.0,4.0,
2157.0,2083.0,35.0,4.0,
2130.0,2039.0,34.0,3.0,
2036.0,2048.0,35.0,4.0,
1906.0,2065.0,34.0,4.0,
1856.0,2051.0,34.0,3.0,
1940.0,2061.0,34.0,3.0,
1979.0,2063.0,34.0,4.0,
1999.0,2036.0,34.0,4.0,
2102.0,2044.0,34.0,4.0,
2113.0,2003.0,34.0,4.0,
2089.0,1997.0,34.0,4.0,
2092.0,2039.0,35.0,5.0,
2083.0,2055.0,35.0,5.0,
2073.0,2063.0,35.0,5.0,
2110.0,2084.0,36.0,5.0,
2120.0,2103.0,36.0,5.0,
2115.0,2069.0,36.0,5.0,
2140.0,1997.0,36.0,5.0,
2139.0,1991.0,36.0,5.0,
2091.0,2033.0,36.0,6.0,
2061.0,2018.0,36.0,6.0,
2059.0,2078.0,37.0,6.0,
1978.0,2051.0,37.0,6.0,
1914.0,2091.0,37.0,6.0,
1946.0,2105.0,37.0,6.0,
2052.0,2055.0,37.0,7.0,
2104.0,1988.0,37.0,7.0,
2033.0,1941.0,37.0,7.0,
1969.0,1940.0,38.0,7.0,
1924.0,2014.0,38.0,7.0,
1995.0,2010.0,38.0,7.0,
2161.0,2021.0,38.0,7.0,
2256.0,2010.0,38.0,7.0,
2249.0,2058.0,38.0,6.0,
2142.0,2068.0,37.0,6.0,
2034.0,2040.0,37.0,6.0,
1938.0,2054.0,37.0,6.0,
1827.0,2031.0,37.0,7.0,
1778.0,2026.0,38.0,6.0,
1841.0,2054.0,38.0,6.0,
1960.0,2094.0,38.0,6.0,
2054.0,2065.0,38.0,6.0,
2078.0,2065.0,39.0,6.0,
2158.0,2039.0,39.0,6.0,
2333.0,2034.0,40.0,6.0,
2411.0,2063.0,40.0,6.0,
2348.0,2039.0,41.0,7.0,
2106.0,2059.0,41.0,6.0,
1874.0,2044.0,42.0,7.0,
1750.0,1999.0,42.0,7.0,
1787.0,2056.0,43.0,8.0,
2038.0,2062.0,43.0,8.0,
2095.0,2088.0,44.0,8.0,
2087.0,2008.0,44.0,8.0,
2072.0,1957.0,44.0,8.0,
2029.0,1975.0,45.0,8.0,
1984.0,2038.0,45.0,8.0,
1972.0,2061.0,44.0,8.0,
1978.0,2036.0,44.0,8.0,
2003.0,2034.0,44.0,8.0,
2142.0,2047.0,44.0,8.0,
2164.0,2046.0,44.0,8.0,
2226.0,2070.0,43.0,7.0,
2189.0,2020.0,43.0,7.0,
2135.0,2025.0,42.0,7.0,
2041.0,2019.0,42.0,7.0,
1990.0,2095.0,42.0,7.0,
1925.0,2067.0,41.0,7.0,
1863.0,2033.0,41.0,7.0,
1876.0,2079.0,41.0,7.0,
2064.0,2083.0,41.0,7.0,
2029.0,2048.0,41.0,7.0,
1990.0,2028.0,40.0,7.0,
2038.0,2078.0,41.0,7.0,
2042.0,2094.0,40.0,7.0,
2191.0,2018.0,41.0,7.0,
2289.0,2009.0,41.0,7.0,
2304.0,1987.0,41.0,7.0,
2275.0,2059.0,41.0,7.0,
2206.0,2032.0,41.0,7.0,
2097.0,2084.0,41.0,7.0,
2009.0,2069.0,41.0,7.0,
1801.0,2040.0,41.0,7.0,
1746.0,2046.0,41.0,7.0,
1761.0,2049.0,42.0,7.0,
1688.0,2020.0,42.0,7.0,
1878.0,2075.0,42.0,7.0,
2104.0,2088.0,42.0,7.0,
2090.0,2084.0,42.0,7.0,
2079.0,2015.0,43.0,7.0,
2069.0,2012.0,43.0,7.0,
2093.0,1957.0,44.0,8.0,
2129.0,2011.0,44.0,8.0,
2167.0,2079.0,45.0,8.0,
2154.0,2083.0,45.0,8.0,
2113.0,2092.0,46.0,8.0,
2087.0,2073.0,47.0,8.0,
2064.0,2021.0,47.0,8.0,
2100.0,1943.0,48.0,9.0,
2066.0,1991.0,48.0,9.0,
2031.0,2047.0,49.0,9.0,
2035.0,2056.0,49.0,9.0,
2016.0,2034.0,50.0,9.0,
2071.0,2081.0,50.0,9.0,
2116.0,2081.0,50.0,9.0,
2138.0,2033.0,51.0,9.0,
2142.0,2041.0,51.0,9.0,
2096.0,2045.0,51.0,9.0,
2121.0,2028.0,51.0,10.0,
2078.0,2039.0,52.0,9.0,
1969.0,2090.0,52.0,9.0,
1947.0,2064.0,52.0,9.0,
2014.0,2021.0,51.0,9.0,
2030.0,2048.0,51.0,9.0,
2032.0,2065.0,51.0,9.0,
2013.0,2038.0,51.0,9.0,
1986.0,2071.0,51.0,9.0,
2007.0,2081.0,51.0,9.0,
2009.0,2059.0,50.0,9.0,
2030.0,2034.0,50.0,9.0,
2048.0,1996.0,50.0,9.0,
2111.0,2073.0,49.0,9.0,
2147.0,2086.0,49.0,9.0,
2270.0,2067.0,49.0,8.0,
2477.0,1947.0,49.0,8.0,
2463.0,1995.0,48.0,8.0,
2361.0,2049.0,48.0,9.0,
2064.0,2078.0,48.0,9.0,
1764.0,2089.0,48.0,8.0,
1517.0,2069.0,48.0,8.0,
1464.0,2060.0,48.0,8.0,
1569.0,2028.0,48.0,8.0,
1767.0,1977.0,48.0,9.0,
1927.0,2010.0,48.0,9.0,
1987.0,2041.0,48.0,9.0,
2204.0,2057.0,48.0,9.0,
2282.0,2086.0,48.0,9.0,
2331.0,2104.0,48.0,9.0,
2202.0,2083.0,49.0,9.0,
2022.0,2032.0,49.0,9.0,
1973.0,2098.0,49.0,9.0,
1942.0,2062.0,49.0,9.0,
2004.0,2047.0,49.0,9.0,
1980.0,2062.0,50.0,10.0,
2040.0,2008.0,50.0,10.0,
2109.0,2012.0,50.0,9.0,
2062.0,1970.0,51.0,9.0,
2019.0,1981.0,51.0,9.0,
2101.0,2012.0,51.0,10.0,
2166.0,2078.0,52.0,10.0,
2203.0,1993.0,52.0,10.0,
2178.0,2053.0,53.0,10.0,
2179.0,2028.0,53.0,10.0,
2153.0,2076.0,53.0,9.0,
2033.0,2073.0,53.0,10.0,
2047.0,2093.0,53.0,10.0,
2071.0,2093.0,54.0,10.0,
2086.0,2077.0,54.0,10.0,
2027.0,2065.0,54.0,10.0,
2029.0,2023.0,54.0,10.0,
2027.0,1976.0,54.0,10.0,
2016.0,1994.0,54.0,10.0,
1991.0,2005.0,54.0,10.0,
1974.0,2032.0,54.0,10.0,
1988.0,2085.0,54.0,10.0,
1994.0,2077.0,54.0,10.0,
2032.0,2048.0,54.0,10.0,
2011.0,2058.0,54.0,10.0,
2065.0,2059.0,54.0,10.0,
2092.0,1985.0,54.0,10.0,
2136.0,2061.0,54.0,10.0,
2134.0,2042.0,54.0,10.0,
2148.0,2015.0,54.0,10.0,
2206.0,2020.0,54.0,10.0,
2166.0,2104.0,54.0,9.0,
2121.0,2078.0,54.0,9.0,
2073.0,2061.0,53.0,9.0,
2104.0,2100.0,53.0,9.0,
2094.0,2097.0,53.0,9.0,
2014.0,2055.0,53.0,9.0,
1962.0,2014.0,53.0,9.0,
1907.0,2016.0,53.0,9.0,
1761.0,1988.0,53.0,9.0,
1882.0,2017.0,52.0,9.0,
2033.0,1997.0,52.0,9.0,
2033.0,1977.0,52.0,10.0,
1990.0,2076.0,52.0,10.0,
1838.0,2033.0,52.0,10.0,
1872.0,2088.0,52.0,10.0,
2011.0,2073.0,52.0,10.0,
2060.0,2057.0,53.0,10.0,
2103.0,2030.0,53.0,10.0,
2156.0,2060.0,53.0,10.0,
2169.0,2066.0,53.0,10.0,
2163.0,2093.0,53.0,10.0,
2186.0,2075.0,53.0,10.0,
2191.0,2085.0,0,
2307.0,2029.0,54.0,10.0,
2391.0,2042.0,54.0,10.0,
2252.0,2056.0,54.0,10.0,
2067.0,2082.0,54.0,10.0,
1830.0,2120.0,54.0,10.0,
1728.0,2080.0,54.0,10.0,
1737.0,2023.0,55.0,10.0,
1768.0,1988.0,54.0,10.0,
1949.0,1974.0,54.0,10.0,
2080.0,1982.0,54.0,10.0,
2101.0,2023.0,54.0,10.0,
2096.0,2059.0,55.0,11.0,
2093.0,2054.0,55.0,10.0,
2125.0,2001.0,55.0,10.0,
2045.0,1955.0,55.0,10.0,
2076.0,2031.0,55.0,10.0,
2107.0,2055.0,56.0,11.0,
2103.0,2062.0,56.0,11.0,
2070.0,2090.0,56.0,11.0,
2108.0,2091.0,57.0,11.0,
2096.0,2077.0,57.0,11.0,
2142.0,2052.0,57.0,11.0,
2134.0,2033.0,58.0,11.0,
2111.0,2039.0,58.0,11.0,
1991.0,2078.0,58.0,11.0,
1948.0,2044.0,58.0,11.0,
1942.0,2096.0,58.0,11.0,
2013.0,2085.0,58.0,11.0,
2077.0,2071.0,58.0,11.0,
2132.0,2005.0,59.0,11.0,
2156.0,2028.0,59.0,11.0,
2119.0,2043.0,59.0,11.0,
2034.0,2036.0,59.0,11.0,
2012.0,2063.0,59.0,11.0,
2009.0,2071.0,59.0,11.0,
2012.0,2037.0,60.0,11.0,
2044.0,2055.0,60.0,11.0,
2111.0,2078.0,60.0,11.0,
2111.0,2018.0,60.0,11.0,
2028.0,2047.0,60.0,11.0,
1984.0,2074.0,60.0,11.0,
1981.0,1976.0,60.0,11.0,
1956.0,2031.0,60.0,11.0,
2015.0,2063.0,60.0,11.0,
2075.0,2077.0,60.0,11.0,
2082.0,2041.0,60.0,11.0,
2060.0,2059.0,60.0,11.0,
2048.0,2093.0,60.0,11.0,
2073.0,2035.0,60.0,11.0,
2117.0,2030.0,60.0,11.0,
2181.0,2044.0,60.0,11.0,
2244.0,2049.0,60.0,11.0,
2403.0,2039.0,60.0,11.0,
2211.0,1961.0,60.0,11.0,
1989.0,2059.0,60.0,11.0,
1664.0,2028.0,60.0,11.0,
1708.0,2056.0,60.0,11.0,
1812.0,2046.0,60.0,11.0,
1891.0,2054.0,59.0,11.0,
1978.0,2066.0,59.0,11.0,
2035.0,2043.0,59.0,11.0,
2032.0,2088.0,59.0,11.0,
2029.0,2051.0,58.0,11.0,
2033.0,2052.0,58.0,11.0,
2096.0,2043.0,58.0,11.0,
2071.0,2047.0,58.0,11.0,
2038.0,2021.0,58.0,11.0,
2037.0,2033.0,58.0,11.0,
2079.0,2057.0,58.0,11.0,
2071.0,2096.0,58.0,11.0,
2111.0,2042.0,58.0,11.0,
2128.0,2047.0,58.0,11.0,
2085.0,2030.0,58.0,11.0,
2024.0,2026.0,58.0,11.0,
2085.0,2039.0,58.0,11.0,
2120.0,2085.0,59.0,11.0,
2134.0,2048.0,59.0,11.0,
2166.0,2088.0,59.0,11.0,
2201.0,2045.0,59.0,11.0,
2184.0,2095.0,59.0,11.0,
2139.0,2116.0,59.0,11.0,
2065.0,2089.0,59.0,11.0,
2039.0,2060.0,59.0,11.0,
2032.0,1982.0,59.0,11.0,
1950.0,1931.0,59.0,11.0,
2000.0,1937.0,59.0,11.0,
1978.0,2021.0,59.0,11.0,
1942.0,2079.0,59.0,11.0,
1974.0,2076.0,59.0,11.0,
2031.0,2054.0,59.0,11.0,
2100.0,2071.0,59.0,11.0,
2109.0,2076.0,59.0,11.0,
2093.0,2010.0,59.0,11.0,
2044.0,2060.0,60.0,11.0,
1970.0,2032.0,60.0,11.0,
1973.0,2036.0,60.0,11.0,
1998.0,2072.0,60.0,11.0,
2077.0,2093.0,60.0,11.0,
2145.0,2080.0,60.0,11.0,
2195.0,2058.0,60.0,11.0,
2184.0,1988.0,60.0,11.0,
2130.0,2007.0,60.0,11.0,
2155.0,2033.0,60.0,11.0,
2161.0,2056.0,0,
2124.0,2080.0,60.0,11.0,
2036.0,2092.0,60.0,11.0,
1902.0,2067.0,60.0,11.0,
1759.0,2065.0,0,
1780.0,2040.0,61.0,11.0,
1911.0,2051.0,61.0,11.0,
1989.0,2008.0,61.0,11.0,
2006.0,2090.0,61.0,11.0,
1963.0,2047.0,61.0,11.0,
2063.0,2035.0,61.0,11.0,
2071.0,2065.0,61.0,11.0,
2053.0,2073.0,62.0,11.0,
1980.0,2024.0,62.0,11.0,
2073.0,2048.0,62.0,11.0,
2099.0,2048.0,62.0,11.0,
2080.0,2031.0,62.0,11.0,
2096.0,2063.0,62.0,11.0,
2197.0,2048.0,62.0,11.0,
2280.0,2055.0,61.0,11.0,
2257.0,2052.0,61.0,11.0,
2146.0,1991.0,61.0,11.0,
2055.0,2041.0,61.0,11.0,
1990.0,2052.0,61.0,11.0,
1969.0,2037.0,61.0,11.0,
1946.0,2014.0,61.0,11.0,
1988.0,2033.0,61.0,11.0,
2057.0,2036.0,61.0,11.0,
2100.0,2054.0,60.0,11.0,
2122.0,2142.0,60.0,11.0,
2130.0,2027.0,60.0,11.0,
2130.0,2040.0,60.0,11.0,
1993.0,2042.0,60.0,11.0,
2017.0,2029.0,60.0,11.0,
1981.0,2025.0,60.0,11.0,
1956.0,2028.0,60.0,11.0,
1909.0,2027.0,60.0,11.0,
1980.0,2020.0,59.0,11.0,
2027.0,2030.0,59.0,11.0,
2062.0,2052.0,59.0,11.0,
2101.0,2058.0,59.0,11.0,
2074.0,2013.0,59.0,11.0,
2057.0,2000.0,59.0,11.0,
2019.0,2042.0,59.0,11.0,
1975.0,2086.0,59.0,11.0,
2027.0,2062.0,59.0,11.0,
2097.0,2056.0,59.0,11.0,
2110.0,2057.0,59.0,11.0,
2111.0,2045.0,59.0,11.0,
2095.0,2012.0,59.0,11.0,
2087.0,2074.0,59.0,11.0,
2084.0,2074.0,60.0,11.0,
2105.0,2045.0,60.0,11.0,
2068.0,2020.0,60.0,11.0,
2048.0,2020.0,60.0,11.0,
2061.0,2046.0,60.0,11.0,
2133.0,2001.0,60.0,11.0,
2264.0,2065.0,60.0,11.0,
2217.0,2066.0,60.0,11.0,
2139.0,2053.0,60.0,11.0,
2041.0,2061.0,60.0,11.0,
1842.0,2041.0,60.0,11.0,
1795.0,1990.0,60.0,11.0,
1780.0,2038.0,60.0,11.0,
1923.0,2063.0,60.0,11.0,
2025.0,2093.0,60.0,11.0,
2144.0,2057.0,60.0,11.0,
2271.0,2037.0,60.0,11.0,
2267.0,2041.0,60.0,11.0,
2197.0,2047.0,60.0,11.0,
1943.0,2026.0,60.0,11.0,
1853.0,2055.0,60.0,11.0,
1783.0,2054.0,60.0,11.0,
1752.0,2025.0,60.0,11.0,
1902.0,2038.0,60.0,11.0,
2022.0,2041.0,59.0,11.0,
2003.0,2071.0,59.0,11.0,
2026.0,2098.0,59.0,11.0,
2014.0,2064.0,59.0,11.0,
2060.0,2051.0,59.0,11.0,
2128.0,2009.0,59.0,11.0,
2144.0,2029.0,59.0,11.0,
2180.0,2029.0,59.0,11.0,
2218.0,2035.0,59.0,11.0,
2234.0,2033.0,58.0,11.0,
2212.0,2043.0,58.0,11.0,
2161.0,2044.0,58.0,11.0,
2044.0,2047.0,58.0,11.0,
1974.0,2061.0,58.0,11.0,
2027.0,2012.0,59.0,11.0,
1986.0,2042.0,59.0,11.0,
1972.0,1999.0,59.0,11.0,
2060.0,1994.0,59.0,11.0,
2071.0,2039.0,59.0,11.0,
2069.0,2050.0,59.0,11.0,
2082.0,2066.0,59.0,11.0,
2086.0,2046.0,59.0,11.0,
2087.0,2038.0,60.0,11.0,
2097.0,2068.0,60.0,11.0,
2099.0,2074.0,0,
2080.0,2055.0,60.0,11.0,
2077.0,2042.0,60.0,11.0,
2066.0,2027.0,60.0,11.0,
2073.0,1990.0,60.0,11.0,
2107.0,2088.0,60.0,11.0,
2101.0,2053.0,61.0,11.0,
2063.0,2130.0,61.0,11.0,
2037.0,2139.0,61.0,11.0,
2004.0,2131.0,61.0,11.0,
2096.0,2054.0,61.0,11.0,
2092.0,1971.0,61.0,11.0,
2080.0,1877.0,61.0,11.0,
2092.0,1944.0,61.0,11.0,
2029.0,2011.0,61.0,11.0,
1989.0,2013.0,61.0,11.0,
1913.0,2031.0,61.0,11.0,
1873.0,2072.0,60.0,11.0,
1955.0,2044.0,60.0,11.0,
1931.0,2085.0,60.0,11.0,
1959.0,2052.0,60.0,11.0,
2016.0,2059.0,60.0,11.0,
2063.0,2063.0,60.0,11.0,
2207.0,2073.0,60.0,11.0,
2284.0,2049.0,60.0,11.0,
2248.0,2064.0,60.0,11.0,
2147.0,2064.0,60.0,11.0,
1986.0,2043.0,60.0,11.0,
1873.0,2042.0,59.0,11.0,
1859.0,2058.0,59.0,11.0,
1909.0,2017.0,59.0,11.0,
1889.0,2069.0,59.0,11.0,
1999.0,2037.0,59.0,11.0,
2054.0,2023.0,59.0,11.0,
2075.0,2026.0,59.0,11.0,
2105.0,2002.0,59.0,11.0,
2131.0,2042.0,59.0,11.0,
2122.0,2031.0,59.0,11.0,
2129.0,2078.0,59.0,11.0,
2118.0,2068.0,59.0,11.0,
2092.0,2082.0,59.0,11.0,
2071.0,2032.0,59.0,11.0,
2098.0,2049.0,59.0,11.0,
2138.0,2056.0,59.0,11.0,
2122.0,2038.0,59.0,11.0,
2159.0,2026.0,59.0,11.0,
2155.0,2063.0,59.0,11.0,
2182.0,2058.0,59.0,11.0,
2145.0,2031.0,59.0,11.0,
1984.0,2040.0,59.0,11.0,
1917.0,2126.0,59.0,11.0,
1900.0,2019.0,59.0,11.0,
1803.0,2028.0,59.0,11.0,
1922.0,2061.0,59.0,11.0,
1970.0,2022.0,59.0,11.0,
2000.0,2026.0,59.0,11.0,
2046.0,1982.0,59.0,11.0,
2243.0,2017.0,59.0,11.0,
2332.0,2066.0,59.0,11.0,
2288.0,2037.0,59.0,11.0,
2116.0,2053.0,59.0,11.0,
1927.0,2019.0,59.0,11.0,
1848.0,2041.0,59.0,11.0,
1878.0,2055.0,59.0,11.0,
1869.0,2019.0,59.0,11.0,
1972.0,2062.0,59.0,11.0,
2101.0,2085.0,59.0,11.0,
2125.0,2043.0,59.0,11.0,
2168.0,2064.0,58.0,11.0,
2145.0,2068.0,58.0,11.0,
1986.0,2054.0,58.0,11.0,
1998.0,2044.0,58.0,11.0,
1982.0,2038.0,58.0,11.0,
2031.0,2075.0,58.0,11.0,
2032.0,2058.0,58.0,11.0,
2013.0,2054.0,58.0,11.0,
2017.0,2067.0,58.0,11.0,
2008.0,2093.0,58.0,11.0,
2089.0,2035.0,58.0,11.0,
2065.0,2022.0,58.0,11.0,
2083.0,2017.0,58.0,11.0,
2086.0,2038.0,58.0,11.0,
2101.0,2073.0,58.0,11.0,
2114.0,2102.0,58.0,11.0,
2094.0,2047.0,58.0,11.0,
2130.0,2025.0,58.0,11.0,
2205.0,2040.0,59.0,11.0,
2225.0,2000.0,59.0,11.0,
2207.0,2017.0,59.0,11.0,
2119.0,2040.0,59.0,11.0,
2023.0,2034.0,59.0,11.0,
1916.0,2061.0,59.0,11.0,
1895.0,2048.0,59.0,11.0,
1916.0,2083.0,59.0,11.0,
1970.0,2051.0,59.0,11.0,
2038.0,2006.0,59.0,11.0,
1984.0,2020.0,59.0,11.0,
2040.0,2008.0,59.0,11.0,
2099.0,2026.0,59.0,11.0,
2083.0,2084.0,60.0,11.0,
2074.0,2039.0,60.0,11.0,
2093.0,2012.0,60.0,11.0,
2086.0,2006.0,60.0,11.0,
2074.0,2024.0,60.0,11.0,
2015.0,2024.0,60.0,11.0,
2007.0,2011.0,60.0,11.0,
2049.0,2066.0,60.0,11.0,
2015.0,2040.0,60.0,11.0,
2012.0,2096.0,60.0,11.0,
2030.0,2114.0,60.0,11.0,
2014.0,2069.0,60.0,11.0,
2005.0,2056.0,60.0,11.0,
2018.0,2008.0,60.0,11.0,
2080.0,2012.0,60.0,11.0,
2045.0,2019.0,60.0,11.0,
2037.0,2044.0,60.0,11.0,
2035.0,2058.0,60.0,11.0,
2069.0,2040.0,60.0,11.0,
2075.0,2062.0,60.0,11.0,
2090.0,2059.0,60.0,11.0,
2192.0,2019.0,60.0,11.0,
2225.0,2052.0,60.0,11.0,
2187.0,2056.0,60.0,11.0,
2118.0,2018.0,60.0,11.0,
2015.0,2020.0,60.0,11.0,
2049.0,2024.0,60.0,11.0,
2006.0,2037.0,60.0,11.0,
1972.0,2060.0,60.0,11.0,
1947.0,2066.0,60.0,11.0,
1924.0,2041.0,60.0,11.0,
1869.0,2083.0,60.0,11.0,
1911.0,2021.0,60.0,11.0,
2035.0,2025.0,60.0,11.0,
2123.0,1974.0,60.0,11.0,
2144.0,2008.0,60.0,11.0,
2119.0,2054.0,60.0,11.0,
2049.0,2022.0,60.0,11.0,
2012.0,2014.0,60.0,11.0,
2023.0,2055.0,60.0,11.0,
2053.0,2029.0,60.0,11.0,
2056.0,2015.0,60.0,11.0,
2080.0,2058.0,60.0,11.0,
2089.0,2048.0,60.0,11.0,
2113.0,2097.0,60.0,11.0,
2144.0,2010.0,60.0,11.0,
2165.0,2018.0,60.0,11.0,
2179.0,2009.0,60.0,11.0,
2159.0,2069.0,60.0,11.0,
2100.0,2037.0,60.0,11.0,
2007.0,2008.0,60.0,11.0,
2079.0,2036.0,60.0,11.0,
2142.0,2069.0,59.0,11.0,
2040.0,2072.0,59.0,11.0,
1993.0,2071.0,0,
2045.0,2017.0,59.0,11.0,
2048.0,2033.0,59.0,11.0,
2022.0,2073.0,59.0,11.0,
1840.0,2059.0,59.0,11.0,
1886.0,1978.0,59.0,11.0,
1925.0,2023.0,59.0,11.0,
1941.0,2036.0,59.0,11.0,
1937.0,2047.0,59.0,11.0,
2011.0,2055.0,59.0,11.0,
2026.0,2047.0,59.0,11.0,
2090.0,2021.0,59.0,10.0,
2084.0,1978.0,58.0,10.0,
2090.0,2048.0,58.0,11.0,
2093.0,2048.0,58.0,11.0,
2108.0,2055.0,58.0,11.0,
2095.0,2044.0,58.0,11.0,
2089.0,2024.0,58.0,11.0,
2091.0,2052.0,58.0,11.0,
2095.0,2051.0,59.0,11.0,
2091.0,2079.0,59.0,11.0,
2082.0,2119.0,59.0,11.0,
2081.0,2056.0,59.0,11.0,
2067.0,2093.0,59.0,11.0,
2058.0,2004.0,59.0,11.0,
2065.0,2016.0,59.0,11.0,
2062.0,2060.0,59.0,11.0,
2059.0,2066.0,59.0,11.0,
2069.0,1982.0,59.0,11.0,
2058.0,2016.0,59.0,11.0,
2058.0,2030.0,59.0,11.0,
2053.0,2053.0,59.0,11.0,
2042.0,2030.0,59.0,11.0,
2035.0,2050.0,60.0,11.0,
2043.0,2046.0,60.0,11.0,
2087.0,2031.0,60.0,11.0,
2111.0,2090.0,60.0,11.0,
2111.0,2053.0,60.0,11.0,
2072.0,2003.0,60.0,11.0,
1995.0,2018.0,60.0,11.0,
2005.0,2038.0,60.0,11.0,
2016.0,2067.0,61.0,11.0,
2033.0,2081.0,61.0,11.0,
2033.0,2058.0,61.0,11.0,
2014.0,2030.0,61.0,11.0,
1993.0,2052.0,62.0,11.0,
1990.0,1956.0,62.0,11.0,
1999.0,1986.0,62.0,11.0,
2040.0,2012.0,62.0,11.0,
2039.0,1971.0,62.0,11.0,
2086.0,2014.0,62.0,11.0,
2092.0,2067.0,62.0,11.0,
2055.0,2085.0,62.0,11.0,
2090.0,2086.0,62.0,11.0,
2118.0,2084.0,61.0,11.0,
2111.0,2081.0,61.0,11.0,
2021.0,2036.0,61.0,11.0,
2022.0,1965.0,61.0,11.0,
2086.0,2028.0,61.0,11.0,
2093.0,2084.0,61.0,11.0,
2033.0,2076.0,61.0,11.0,
1974.0,2081.0,61.0,11.0,
1939.0,2001.0,61.0,11.0,
1974.0,1943.0,61.0,11.0,
1999.0,1984.0,61.0,11.0,
2033.0,1975.0,61.0,11.0,
2033.0,2011.0,61.0,11.0,
2041.0,2032.0,61.0,11.0,
2023.0,2123.0,61.0,11.0,
2039.0,2151.0,61.0,11.0,
2033.0,2104.0,61.0,11.0,
2057.0,2046.0,61.0,11.0,
2104.0,1991.0,61.0,11.0,
2145.0,2018.0,61.0,11.0,
2159.0,1991.0,61.0,11.0,
2164.0,2053.0,61.0,11.0,
2136.0,2054.0,61.0,11.0,
2184.0,2048.0,61.0,11.0,
2041.0,2004.0,61.0,11.0,
1909.0,2074.0,61.0,10.0,
1946.0,1992.0,60.0,10.0,
1940.0,1998.0,60.0,10.0,
1979.0,2106.0,60.0,10.0,
2007.0,2096.0,60.0,10.0,
2030.0,2082.0,60.0,10.0,
2056.0,1960.0,60.0,10.0,
2078.0,1984.0,59.0,10.0,
2066.0,2104.0,59.0,10.0,
2049.0,2114.0,59.0,10.0,
2049.0,2020.0,59.0,10.0,
2024.0,1979.0,59.0,10.0,
2055.0,2006.0,59.0,10.0,
2039.0,2016.0,59.0,10.0,
2050.0,2027.0,58.0,9.0,
2081.0,2083.0,58.0,9.0,
2085.0,2094.0,58.0,9.0,
2097.0,2161.0,58.0,9.0,
2132.0,2170.0,58.0,9.0,
2221.0,2151.0,57.0,9.0,
2146.0,2037.0,57.0,9.0,
2080.0,1861.0,57.0,9.0,
1999.0,1879.0,56.0,9.0,
1922.0,1961.0,56.0,9.0,
1984.0,1982.0,56.0,9.0,
1981.0,2037.0,55.0,9.0,
1990.0,2013.0,55.0,9.0,
2023.0,1938.0,54.0,10.0,
2066.0,2041.0,54.0,10.0,
2075.0,2083.0,53.0,10.0,
1973.0,2136.0,53.0,10.0,
1942.0,2171.0,52.0,10.0,
1954.0,2061.0,51.0,10.0,
1985.0,2032.0,50.0,10.0,
2014.0,1932.0,49.0,10.0,
2019.0,1938.0,49.0,10.0,
2055.0,2042.0,48.0,10.0,
2127.0,2087.0,47.0,9.0,
2100.0,2128.0,46.0,9.0,
2053.0,2041.0,45.0,9.0,
2027.0,2030.0,45.0,9.0,
1981.0,1978.0,44.0,9.0,
2024.0,2050.0,43.0,9.0,
2099.0,2012.0,43.0,8.0,
2130.0,2048.0,42.0,8.0,
2144.0,2059.0,42.0,8.0,
2091.0,2076.0,41.0,8.0,
2055.0,2001.0,41.0,7.0,
2027.0,2003.0,40.0,7.0,
2003.0,2022.0,40.0,7.0,
2015.0,2061.0,39.0,7.0,
2031.0,2059.0,39.0,7.0,
2080.0,2092.0,39.0,7.0,
2088.0,2100.0,39.0,7.0,
2114.0,2072.0,38.0,7.0,
2131.0,2056.0,38.0,6.0,
2115.0,2044.0,38.0,6.0,
2077.0,2075.0,38.0,6.0,
2059.0,2050.0,38.0,6.0,
2049.0,2007.0,38.0,6.0,
2038.0,2020.0,38.0,6.0,
2018.0,2046.0,38.0,6.0,
2046.0,2018.0,38.0,6.0,
2056.0,2055.0,38.0,6.0,
2064.0,2047.0,38.0,6.0,
2081.0,2016.0,38.0,6.0,
2078.0,1994.0,38.0,6.0,
2196.0,2019.0,38.0,6.0,
2227.0,2076.0,38.0,6.0,
2121.0,2023.0,38.0,5.0,
2029.0,2078.0,38.0,5.0,
1946.0,2021.0,38.0,5.0,
2018.0,2054.0,38.0,5.0,
2061.0,2072.0,38.0,5.0,
2102.0,2069.0,38.0,5.0,
2103.0,1977.0,38.0,5.0,
2136.0,1995.0,38.0,5.0,
2029.0,2045.0,39.0,5.0,
1893.0,2045.0,39.0,6.0,
1864.0,2033.0,39.0,6.0,
1931.0,2071.0,39.0,6.0,
1974.0,2076.0,39.0,6.0,
1927.0,2007.0,39.0,6.0,
1835.0,1906.0,40.0,6.0,
1898.0,1927.0,40.0,6.0,
1923.0,2037.0,40.0,6.0,
2021.0,2054.0,39.0,6.0,
2060.0,2045.0,39.0,6.0,
2101.0,2071.0,39.0,6.0,
2135.0,2090.0,39.0,6.0,
2166.0,2057.0,39.0,6.0,
2174.0,2046.0,39.0,5.0,
2130.0,1944.0,38.0,5.0,
2124.0,1930.0,38.0,5.0,
2119.0,2074.0,38.0,4.0,
2108.0,2092.0,38.0,4.0,
2072.0,2045.0,37.0,4.0,
2123.0,2077.0,38.0,4.0,
2130.0,2096.0,37.0,4.0,
2098.0,2128.0,37.0,4.0,
2062.0,2049.0,38.0,4.0,
2029.0,2008.0,38.0,4.0,
2027.0,2012.0,38.0,4.0,
2026.0,1979.0,38.0,4.0,
2069.0,1996.0,38.0,4.0,
2075.0,2109.0,38.0,4.0,
2072.0,1976.0,38.0,4.0,
2073.0,2010.0,38.0,4.0,
2069.0,2036.0,38.0,4.0,
2061.0,2051.0,38.0,4.0,
2051.0,2051.0,38.0,4.0,
2034.0,2072.0,38.0,4.0,
2036.0,2092.0,38.0,4.0,
2062.0,2058.0,37.0,4.0,
2087.0,1995.0,37.0,4.0,
2087.0,2036.0,38.0,4.0,
2090.0,1999.0,38.0,4.0,
2098.0,2027.0,37.0,4.0,
2076.0,2029.0,37.0,4.0,
2087.0,1975.0,37.0,4.0,
2102.0,2033.0,37.0,4.0,
2099.0,2082.0,37.0,4.0,
2049.0,2085.0,36.0,4.0,
2008.0,2049.0,36.0,4.0,
1934.0,2028.0,36.0,4.0,
1906.0,2121.0,35.0,3.0,
1960.0,2049.0,34.0,3.0,
2015.0,2078.0,34.0,4.0,
2028.0,1973.0,33.0,4.0,
2024.0,2002.0,33.0,3.0,
2054.0,2006.0,32.0,3.0,
2086.0,1993.0,32.0,3.0,
2241.0,2070.0,32.0,3.0,
2241.0,2125.0,31.0,3.0,
2212.0,2066.0,31.0,3.0,
2163.0,2081.0,31.0,3.0,
2002.0,2000.0,30.0,2.0,
1955.0,2022.0,30.0,2.0,
1895.0,1980.0,29.0,2.0,
1999.0,1925.0,29.0,2.0,
1995.0,2063.0,29.0,2.0,
1906.0,2106.0,29.0,2.0,
1861.0,2051.0,28.0,2.0,
1929.0,2035.0,28.0,2.0,
2030.0,2089.0,28.0,2.0,
2048.0,2036.0,28.0,2.0,
2134.0,2007.0,28.0,1.0,
2148.0,2087.0,28.0,1.0,
2082.0,2083.0,28.0,1.0,
2079.0,2072.0,28.0,1.0,
2055.0,2009.0,28.0,1.0,
1999.0,1929.0,28.0,1.0,
2045.0,1951.0,27.0,1.0,
2065.0,2044.0,27.0,1.0,
2076.0,2068.0,27.0,1.0,
2094.0,2036.0,27.0,1.0,
2080.0,2038.0,27.0,0.0,
2097.0,2102.0,27.0,1.0,
2114.0,2062.0,27.0,1.0,
2100.0,2062.0,27.0,1.0,
2095.0,1983.0,27.0,1.0,
2092.0,1995.0,27.0,1.0,
2071.0,2052.0,27.0,1.0,
2075.0,2049.0,27.0,1.0,
2095.0,2104.0,27.0,1.0,
2072.0,2047.0,27.0,1.0,
2058.0,2047.0,27.0,1.0,
2070.0,1993.0,27.0,1.0,
2056.0,2018.0,27.0,1.0,
2054.0,1988.0,27.0,0.0,
2058.0,2084.0,0,
2033.0,2082.0,27.0,0.0,
2041.0,2057.0,27.0,0.0,
2048.0,2052.0,27.0,0.0,
2063.0,2047.0,27.0,0.0,
2060.0,2015.0,27.0,0.0,
2082.0,2037.0,27.0,0.0,
2052.0,2033.0,27.0,0.0,
2039.0,2051.0,27.0,0.0,
2044.0,2027.0,27.0,0.0,
2024.0,2034.0,27.0,0.0,
2079.0,2045.0,27.0,0.0,
2114.0,2080.0,27.0,0.0,
2103.0,2048.0,27.0,0.0,
2044.0,1998.0,27.0,0.0,
1991.0,2013.0,27.0,0.0,
1976.0,2034.0,27.0,0.0,
1995.0,2022.0,27.0,0.0,
2014.0,2042.0,27.0,0.0,
2025.0,2033.0,27.0,0.0,
2062.0,2124.0,27.0,0.0,
2067.0,2083.0,27.0,0.0,
2050.0,1979.0,27.0,0.0,
2060.0,2022.0,28.0,0.0,
2050.0,2068.0,28.0,0.0,
2067.0,2023.0,28.0,0.0,
2041.0,2078.0,27.0,0.0,
2028.0,2068.0,27.0,0.0,
2041.0,2065.0,27.0,0.0,
2081.0,2053.0,27.0,0.0,
2086.0,2042.0,27.0,0.0,
2096.0,2025.0,27.0,0.0,
2094.0,2053.0,27.0,0.0,
2063.0,1985.0,27.0,0.0,
2046.0,1953.0,27.0,0.0,
2043.0,2030.0,27.0,0.0,
1984.0,2029.0,27.0,0.0,
1988.0,1997.0,27.0,0.0,
2016.0,1992.0,26.0,0.0,
2036.0,2026.0,26.0,0.0,
2075.0,2052.0,26.0,0.0,
2122.0,2084.0,26.0,0.0,
2072.0,2058.0,26.0,0.0,
2060.0,2069.0,26.0,0.0,
2043.0,2090.0,26.0,0.0,
2052.0,2052.0,26.0,0.0,
2066.0,2093.0,25.0,0.0,
2073.0,2065.0,25.0,0.0,
2065.0,2036.0,25.0,0.0,
2075.0,2023.0,25.0,0.0,
2078.0,2046.0,25.0,0.0,
2063.0,2055.0,25.0,0.0,
2055.0,2033.0,25.0,0.0,
2047.0,1964.0,25.0,0.0,
2049.0,1955.0,25.0,-1.0,
2056.0,2027.0,25.0,0.0,
2047.0,2067.0,25.0,0.0,
2038.0,2058.0,26.0,0.0,
2055.0,2040.0,26.0,0.0,
2056.0,2015.0,26.0,0.0,
2046.0,2044.0,26.0,0.0,
2038.0,2046.0,27.0,0.0,
2026.0,2057.0,27.0,0.0,
2029.0,2032.0,27.0,0.0,
2029.0,2022.0,27.0,0.0,
2067.0,2037.0,27.0,0.0,
2081.0,2053.0,27.0,0.0,
2075.0,2062.0,27.0,0.0,
2065.0,2077.0,26.0,0.0,
2061.0,2032.0,26.0,0.0,
2031.0,1954.0,26.0,0.0,
2038.0,2085.0,26.0,0.0,
2044.0,2052.0,26.0,0.0,
2020.0,2067.0,26.0,0.0,
2053.0,2032.0,26.0,0.0,
2133.0,2061.0,26.0,0.0,
2122.0,2019.0,26.0,0.0,
2073.0,2012.0,26.0,0.0,
2002.0,1987.0,25.0,-1.0,
1968.0,2025.0,25.0,-1.0,
1979.0,1972.0,25.0,-1.0,
1997.0,2068.0,25.0,-1.0,
2017.0,2074.0,24.0,-1.0,
2036.0,2074.0,24.0,-1.0,
2059.0,2054.0,24.0,-1.0,
2060.0,2086.0,23.0,-1.0,
2067.0,2084.0,23.0,-2.0,
2049.0,2062.0,23.0,-2.0,
2050.0,2085.0,22.0,-2.0,
2056.0,2040.0,22.0,-2.0,
2070.0,2052.0,22.0,-2.0,
2076.0,1986.0,21.0,-2.0,
2084.0,2016.0,21.0,-2.0,
2083.0,1989.0,21.0,-2.0,
2068.0,2014.0,21.0,-2.0,
2065.0,2041.0,20.0,-2.0,
2050.0,1994.0,20.0,-2.0,
2047.0,2059.0,20.0,-2.0,
2046.0,2073.0,20.0,-2.0,
2043.0,2071.0,20.0,-2.0,
2037.0,2020.0,20.0,-3.0,
2049.0,1992.0,20.0,-3.0,
2049.0,2060.0,19.0,-3.0,
2046.0,2071.0,19.0,-3.0,
2065.0,2040.0,19.0,-3.0,
2041.0,2016.0,19.0,-3.0,
2031.0,1957.0,20.0,-3.0,
2060.0,2064.0,19.0,-3.0,
2062.0,2052.0,19.0,-3.0,
2067.0,2039.0,19.0,-3.0,
2072.0,2055.0,19.0,-3.0,
2058.0,2006.0,19.0,-3.0,
2054.0,1983.0,20.0,-3.0,
2058.0,2045.0,20.0,-3.0,
2055.0,2072.0,19.0,-3.0,
2064.0,2086.0,19.0,-3.0,
2054.0,2067.0,19.0,-3.0,
2049.0,2096.0,19.0,-3.0,
2052.0,2061.0,19.0,-3.0,
2070.0,2065.0,19.0,-3.0,
2083.0,2037.0,19.0,-3.0,
2069.0,1980.0,19.0,-3.0,
2068.0,2044.0,19.0,-3.0,
2037.0,2083.0,19.0,-3.0,
2037.0,1963.0,20.0,-3.0,
2037.0,2002.0,20.0,-3.0,
2062.0,2038.0,20.0,-3.0,
2043.0,2001.0,20.0,-3.0,
2063.0,2052.0,21.0,-3.0,
2075.0,2066.0,21.0,-2.0,
2069.0,2069.0,21.0,-2.0,
2037.0,2021.0,22.0,-2.0,
2036.0,2021.0,22.0,-2.0,
2023.0,2060.0,22.0,-2.0,
2042.0,2074.0,23.0,-2.0,
2048.0,2082.0,23.0,-1.0,
2051.0,2056.0,24.0,-1.0,
2059.0,1994.0,24.0,-1.0,
2068.0,2050.0,24.0,-1.0,
2066.0,2007.0,24.0,-2.0,
2060.0,1984.0,23.0,-2.0,
2063.0,2084.0,23.0,-2.0,
2057.0,2118.0,23.0,-2.0,
2052.0,2071.0,22.0,-2.0,
2051.0,2069.0,22.0,-3.0,
2065.0,2044.0,21.0,-3.0,
2055.0,2084.0,19.0,-4.0,
2080.0,2012.0,18.0,-4.0,
2067.0,1998.0,17.0,-4.0,
2062.0,2006.0,16.0,-4.0,
2045.0,2038.0,15.0,-4.0,
2039.0,2049.0,14.0,-5.0,
2026.0,2066.0,13.0,-5.0,
2034.0,2039.0,12.0,-6.0,
2044.0,2045.0,10.0,-6.0,
2048.0,2088.0,9.0,-6.0,
2046.0,2070.0,9.0,-6.0,
2036.0,2024.0,8.0,-7.0,
2036.0,2081.0,7.0,-8.0,
2042.0,2083.0,6.0,-8.0,
2040.0,2016.0,5.0,-8.0,
2038.0,2005.0,5.0,-9.0,
2039.0,2056.0,4.0,-9.0,
2050.0,2015.0,4.0,-9.0,
2042.0,2042.0,3.0,-9.0,
2048.0,2028.0,3.0,-10.0,
2048.0,2017.0,3.0,-10.0,
2050.0,2027.0,2.0,-10.0,
2049.0,2087.0,2.0,-10.0,
2055.0,1975.0,2.0,-10.0,
2064.0,1986.0,2.0,-10.0,
2066.0,2036.0,2.0,-10.0,
2068.0,2053.0,2.0,-10.0,
2068.0,2060.0,2.0,-10.0,
2074.0,2084.0,2.0,-10.0,
2053.0,2052.0,2.0,-9.0,
2066.0,2064.0,3.0,-9.0,
2011.0,2100.0,3.0,-9.0,
2042.0,2105.0,3.0,-10.0,
2051.0,2081.0,3.0,-10.0,
2043.0,2098.0,4.0,-9.0,
2056.0,2025.0,4.0,-9.0,
2057.0,2027.0,5.0,-9.0,
2075.0,2012.0,5.0,-9.0,
2063.0,1963.0,6.0,-9.0,
2067.0,1994.0,7.0,-9.0,
2060.0,2040.0,7.0,-8.0,
2035.0,2078.0,8.0,-8.0,
2055.0,2134.0,9.0,-8.0,
2049.0,2026.0,10.0,-7.0,
2039.0,2012.0,11.0,-7.0,
2056.0,1933.0,12.0,-6.0,
2055.0,1934.0,12.0,-6.0,
2049.0,2018.0,13.0,-6.0,
2048.0,2038.0,14.0,-6.0,
2041.0,2062.0,14.0,-6.0,
2030.0,2030.0,15.0,-5.0,
2030.0,2044.0,15.0,-5.0,
2035.0,2039.0,16.0,-5.0,
2059.0,2077.0,16.0,-5.0,
2060.0,2049.0,16.0,-5.0,
2076.0,2035.0,17.0,-5.0,
2077.0,2013.0,17.0,-5.0,
2053.0,2005.0,17.0,-5.0,
2044.0,2048.0,17.0,-4.0,
2050.0,2048.0,16.0,-5.0,
2054.0,2069.0,16.0,-5.0,
2061.0,2059.0,16.0,-4.0,
2072.0,2037.0,15.0,-5.0,
2054.0,2045.0,15.0,-5.0,
2077.0,2039.0,14.0,-5.0,
2068.0,2032.0,12.0,-6.0,
2057.0,2050.0,11.0,-6.0,
2057.0,2049.0,10.0,-7.0,
2017.0,2064.0,8.0,-8.0,
2051.0,2050.0,7.0,-8.0,
2064.0,2004.0,6.0,-9.0,
2065.0,2018.0,4.0,-9.0,
2054.0,2024.0,3.0,-10.0,
2074.0,2042.0,2.0,-10.0,
2063.0,2018.0,1.0,-10.0,
2061.0,2038.0,0.0,-10.0,
2035.0,2026.0,0.0,-10.0,
2043.0,2038.0,-1.0,-11.0,
2042.0,2045.0,-1.0,-11.0,
2024.0,2041.0,-1.0,-10.0,
2045.0,2038.0,-1.0,-10.0,
2054.0,2033.0,-1.0,-11.0,
2061.0,2028.0,-1.0,-11.0,
2070.0,2041.0,0.0,-11.0,
2067.0,2003.0,0.0,-11.0,
2047.0,2041.0,0.0,-10.0,
2046.0,2041.0,1.0,-10.0,
2038.0,2056.0,2.0,-10.0,
2049.0,2062.0,3.0,-10.0,
2062.0,2040.0,3.0,-10.0,
2073.0,2069.0,4.0,-9.0,
2060.0,2028.0,4.0,-9.0,
2057.0,2028.0,5.0,-9.0,
2053.0,2067.0,5.0,-9.0,
2048.0,2047.0,5.0,-9.0,
2047.0,2008.0,4.0,-9.0,
2035.0,2034.0,4.0,-9.0,
2047.0,2071.0,4.0,-9.0,
2045.0,2048.0,4.0,-9.0,
2046.0,2070.0,3.0,-9.0,
2062.0,2058.0,3.0,-9.0,
2058.0,2057.0,3.0,-8.0,
2054.0,1944.0,3.0,-8.0,
2043.0,2011.0,3.0,-8.0,
2031.0,2029.0,3.0,-8.0,
2022.0,2074.0,3.0,-8.0,
2022.0,2054.0,3.0,-8.0,
2030.0,2057.0,3.0,-8.0,
2057.0,1995.0,3.0,-8.0,
2058.0,1977.0,3.0,-8.0,
2036.0,2016.0,3.0,-8.0,
2039.0,2046.0,3.0,-9.0,
2029.0,2030.0,3.0,-8.0,
2041.0,2045.0,4.0,-8.0,
2033.0,2082.0,4.0,-8.0,
2040.0,2065.0,4.0,-8.0,
2058.0,2064.0,4.0,-8.0,
2053.0,2030.0,4.0,-8.0,
2059.0,2013.0,5.0,-8.0,
2049.0,2035.0,5.0,-8.0,
2054.0,2028.0,5.0,-8.0,
2030.0,2043.0,5.0,-8.0,
2037.0,2058.0,6.0,-8.0,
2050.0,2043.0,6.0,-8.0,
2065.0,2056.0,6.0,-8.0,
2068.0,2042.0,6.0,-8.0,
2065.0,2048.0,6.0,-8.0,
2060.0,2028.0,7.0,-8.0,
2071.0,2039.0,7.0,-8.0,
2046.0,2045.0,7.0,-8.0,
2055.0,2038.0,7.0,-8.0,
2030.0,2050.0,7.0,-8.0,
2044.0,2051.0,7.0,-8.0,
2045.0,2042.0,7.0,-8.0,
2059.0,2041.0,7.0,-8.0,
2056.0,2053.0,7.0,-8.0,
2078.0,2029.0,7.0,-8.0,
2057.0,2033.0,7.0,-8.0,
2057.0,2020.0,7.0,-8.0,
2032.0,2029.0,7.0,-8.0,
2044.0,2039.0,7.0,-8.0,
2042.0,2089.0,7.0,-8.0,
2061.0,2082.0,7.0,-8.0,
2058.0,2006.0,7.0,-8.0,
2043.0,2048.0,7.0,-8.0,
2046.0,2032.0,7.0,-8.0,
2029.0,1999.0,7.0,-9.0,
2042.0,2048.0,7.0,-10.0,
2051.0,2060.0,7.0,-9.0,
2035.0,2061.0,7.0,-9.0,
2050.0,2045.0,7.0,-8.0,
2030.0,2060.0,7.0,-8.0,
2041.0,2045.0,7.0,-9.0,
2049.0,2043.0,7.0,-8.0,
2055.0,2047.0,7.0,-8.0,
2058.0,2035.0,7.0,-8.0,
2064.0,2027.0,7.0,-7.0,
2054.0,2030.0,8.0,-6.0,
2050.0,2028.0,8.0,-7.0,
2036.0,2049.0,7.0,-8.0,
2047.0,2062.0,7.0,-8.0,
2062.0,2006.0,7.0,-8.0,
2066.0,2020.0,7.0,-8.0,
2064.0,2050.0,7.0,-8.0,
2060.0,2047.0,8.0,-8.0,
2081.0,2061.0,8.0,-8.0,
2044.0,2039.0,8.0,-8.0,
2028.0,2021.0,7.0,-8.0,
2044.0,2050.0,7.0,-7.0,
2065.0,2055.0,8.0,-7.0,
2035.0,2021.0,8.0,-7.0,
2056.0,2073.0,8.0,-7.0,
2069.0,2034.0,8.0,-7.0,
2055.0,2033.0,8.0,-7.0,
2063.0,2035.0,8.0,-8.0,
2031.0,2011.0,7.0,-8.0,
2019.0,2040.0,7.0,-8.0,
2025.0,2040.0,7.0,-8.0,
2041.0,2043.0,7.0,-8.0,
2063.0,2039.0,7.0,-8.0,
2059.0,2034.0,7.0,-8.0,
2062.0,2015.0,7.0,-8.0,
2059.0,2008.0,7.0,-8.0,
2044.0,2028.0,7.0,-8.0,
2046.0,2037.0,7.0,-8.0,
2042.0,2027.0,7.0,-8.0,
2034.0,2066.0,7.0,-8.0,
2043.0,2062.0,7.0,-8.0,
2050.0,2039.0,7.0,-8.0,
2047.0,2046.0,7.0,-8.0,
2054.0,2033.0,7.0,-8.0,
2065.0,2015.0,6.0,-8.0,
2065.0,2036.0,6.0,-8.0,
2046.0,2054.0,6.0,-9.0,
2032.0,2049.0,6.0,-9.0,
2042.0,2045.0,6.0,-8.0,
2046.0,2045.0,6.0,-8.0,
2051.0,2055.0,6.0,-8.0,
2058.0,2021.0,6.0,-8.0,
2060.0,2032.0,6.0,-8.0,
2066.0,2025.0,6.0,-8.0,
2059.0,2012.0,6.0,-8.0,
2045.0,2056.0,7.0,-8.0,
2041.0,2015.0,7.0,-8.0,
2049.0,2048.0,7.0,-8.0,
2043.0,2022.0,7.0,-8.0,
2055.0,2053.0,7.0,-8.0,
2050.0,2027.0,7.0,-8.0,
2058.0,2016.0,7.0,-8.0,
2056.0,2022.0,7.0,-8.0,
2059.0,2035.0,7.0,-8.0,
2053.0,2051.0,7.0,-8.0,
2035.0,2078.0,7.0,-8.0,
2051.0,2070.0,7.0,-8.0,
2049.0,2043.0,7.0,-8.0,
2052.0,2037.0,7.0,-8.0,
2047.0,2048.0,7.0,-8.0,
2051.0,2048.0,8.0,-8.0,
2053.0,2031.0,8.0,-8.0,
2035.0,2038.0,8.0,-8.0,
2039.0,2025.0,8.0,-8.0,
2041.0,2017.0,8.0,-7.0,
2055.0,2060.0,8.0,-8.0,
2050.0,2079.0,8.0,-8.0,
2051.0,2047.0,8.0,-8.0,
2069.0,2037.0,8.0,-8.0,
2063.0,2012.0,8.0,-8.0,
2060.0,2031.0,8.0,-8.0,
2056.0,2026.0,8.0,-8.0,
2050.0,2034.0,8.0,-8.0,
2051.0,2055.0,8.0,-8.0,
2062.0,2105.0,8.0,-8.0,
2050.0,2053.0,8.0,-8.0,
2035.0,2041.0,7.0,-8.0,
2056.0,2035.0,7.0,-8.0,
2070.0,2020.0,7.0,-8.0,
2064.0,2006.0,7.0,-8.0,
2052.0,2029.0,7.0,-8.0,
2041.0,2041.0,7.0,-8.0,
2048.0,2055.0,7.0,-8.0,
2052.0,2063.0,7.0,-8.0,
2034.0,2064.0,7.0,-8.0,
2053.0,2052.0,7.0,-8.0,
2033.0,2009.0,7.0,-8.0,
2054.0,2002.0,7.0,-8.0,
2061.0,2041.0,7.0,-7.0,
2064.0,2068.0,7.0,-7.0,
2038.0,2060.0,7.0,-7.0,
2049.0,2039.0,7.0,-7.0,
2060.0,2066.0,7.0,-7.0,
2049.0,2069.0,7.0,-7.0,
2064.0,2023.0,7.0,-7.0,
2060.0,1984.0,7.0,-7.0,
2060.0,2015.0,7.0,-7.0,
2068.0,2022.0,7.0,-7.0,
2056.0,2025.0,7.0,-7.0,
2052.0,2027.0,7.0,-7.0,
2050.0,2040.0,7.0,-7.0,
2041.0,2063.0,7.0,-7.0,
2050.0,2060.0,7.0,-7.0,
2040.0,2027.0,7.0,-7.0,
2053.0,2028.0,7.0,-7.0,
2052.0,2065.0,7.0,-7.0,
2059.0,2029.0,7.0,-7.0,
2060.0,2043.0,7.0,-7.0,
2047.0,2030.0,7.0,-7.0,
2041.0,2066.0,7.0,-7.0,
2038.0,2060.0,7.0,-7.0,
2041.0,2059.0,7.0,-7.0,
2047.0,2072.0,7.0,-7.0,
2043.0,2000.0,7.0,-7.0,
2060.0,2000.0,7.0,-8.0,
2064.0,2056.0,7.0,-7.0,
2064.0,2020.0,7.0,-7.0,
2055.0,2049.0,7.0,-8.0,
2038.0,2058.0,7.0,-8.0,
2036.0,2060.0,7.0,-8.0,
2041.0,2056.0,7.0,-8.0,
2062.0,2040.0,7.0,-8.0,
2055.0,2045.0,7.0,-8.0,
2066.0,2026.0,7.0,-8.0,
2065.0,2047.0,7.0,-8.0,
2046.0,2025.0,7.0,-8.0,
2053.0,2042.0,7.0,-8.0,
2055.0,2042.0,7.0,-8.0,
2040.0,2068.0,7.0,-8.0,
2042.0,2045.0,7.0,-8.0,
2053.0,2058.0,7.0,-8.0,
2046.0,2032.0,7.0,-8.0,
2037.0,2000.0,7.0,-8.0,
2063.0,2004.0,7.0,-8.0,
2063.0,2074.0,7.0,-8.0,
2040.0,2031.0,7.0,-8.0,
2048.0,2048.0,7.0,-8.0,
2044.0,2064.0,7.0,-8.0,
2047.0,2051.0,7.0,-8.0,
2042.0,2032.0,7.0,-8.0,
2060.0,2033.0,7.0,-8.0,
2055.0,2029.0,7.0,-8.0,
2061.0,2030.0,7.0,-8.0,
2058.0,2026.0,7.0,-8.0,
2043.0,2009.0,7.0,-8.0,
2041.0,2081.0,7.0,-8.0,
2042.0,2075.0,7.0,-8.0,
2037.0,2050.0,7.0,-8.0,
2050.0,2020.0,7.0,-8.0,
2057.0,2034.0,7.0,-8.0,
2061.0,2040.0,7.0,-8.0,
2066.0,2003.0,7.0,-8.0,
2057.0,2050.0,7.0,-8.0,
2042.0,1994.0,7.0,-8.0,
2047.0,2007.0,7.0,-8.0,
2043.0,2047.0,7.0,-8.0,
2045.0,2051.0,7.0,-8.0,
2050.0,2047.0,7.0,-8.0,
2062.0,2020.0,7.0,-8.0,
2069.0,2049.0,7.0,-8.0,
2056.0,2040.0,7.0,-8.0,
2052.0,2030.0,7.0,-8.0,
2049.0,2023.0,7.0,-7.0,
2036.0,2060.0,7.0,-7.0,
2022.0,2035.0,7.0,-7.0,
2033.0,2036.0,7.0,-7.0,
2051.0,2036.0,7.0,-7.0,
2054.0,2042.0,7.0,-7.0,
2053.0,2044.0,7.0,-7.0,
2073.0,2046.0,7.0,-7.0,
2050.0,2054.0,7.0,-7.0,
2051.0,2027.0,7.0,-7.0,
2052.0,1998.0,7.0,-7.0,
2057.0,2004.0,7.0,-7.0,
2040.0,2040.0,7.0,-8.0,
2055.0,2048.0,7.0,-8.0,
2064.0,2035.0,7.0,-8.0,
2074.0,2048.0,7.0,-8.0,
2064.0,2034.0,7.0,-8.0,
2047.0,2026.0,7.0,-8.0,
2052.0,2011.0,7.0,-8.0,
2053.0,2082.0,7.0,-8.0,
2052.0,2072.0,7.0,-8.0,
2040.0,2073.0,7.0,-8.0,
2049.0,2038.0,7.0,-8.0,
2055.0,2045.0,7.0,-8.0,
2056.0,2036.0,7.0,-8.0,
2062.0,2004.0,7.0,-8.0,
2053.0,2036.0,7.0,-8.0,
2049.0,2031.0,7.0,-8.0,
2040.0,2036.0,7.0,-9.0,
2036.0,2062.0,7.0,-8.0,
2037.0,2093.0,7.0,-8.0,
2053.0,2054.0,7.0,-7.0,
2055.0,2037.0,7.0,-8.0,
2059.0,2055.0,7.0,-8.0,
2062.0,2045.0,7.0,-7.0,
2060.0,2034.0,7.0,-7.0,
2040.0,2043.0,7.0,-7.0,
2039.0,2059.0,0,
2037.0,2053.0,7.0,-7.0,
2049.0,2021.0,7.0,-7.0,
2052.0,2036.0,7.0,-7.0,
2041.0,2037.0,7.0,-8.0,
2047.0,2045.0,7.0,-8.0,
2064.0,2030.0,7.0,-8.0,
2050.0,2030.0,7.0,-8.0,
2054.0,2047.0,7.0,-8.0,
2053.0,2075.0,7.0,-8.0,
2045.0,2056.0,7.0,-8.0,
2032.0,2035.0,7.0,-8.0,
2048.0,2074.0,7.0,-8.0,
2060.0,2061.0,7.0,-8.0,
2063.0,2065.0,7.0,-7.0,
2075.0,2029.0,7.0,-7.0,
2076.0,2038.0,7.0,-7.0,
2051.0,2011.0,7.0,-7.0,
2045.0,2023.0,7.0,-7.0,
2037.0,2025.0,7.0,-7.0,
2054.0,2069.0,7.0,-7.0,
2052.0,2043.0,7.0,-7.0,
2071.0,2046.0,7.0,-7.0,
2052.0,2039.0,7.0,-7.0,
2051.0,2026.0,7.0,-7.0,
2047.0,2053.0,7.0,-7.0,
2045.0,2040.0,7.0,-8.0,
2051.0,2062.0,7.0,-8.0,
2049.0,2043.0,8.0,-8.0,
2054.0,2075.0,8.0,-8.0,
2052.0,2037.0,8.0,-8.0,
2061.0,2061.0,8.0,-8.0,
2072.0,2070.0,8.0,-8.0,
2073.0,2039.0,8.0,-8.0,
2080.0,2028.0,8.0,-8.0,
2072.0,2028.0,8.0,-8.0,
2042.0,2014.0,8.0,-7.0,
2034.0,2063.0,8.0,-7.0,
2048.0,2077.0,8.0,-7.0,
2048.0,2071.0,8.0,-7.0,
2051.0,2046.0,8.0,-7.0,
2061.0,2050.0,8.0,-7.0,
2039.0,2046.0,8.0,-7.0,
2041.0,2036.0,8.0,-7.0,
2040.0,2010.0,8.0,-7.0,
2026.0,2049.0,7.0,-7.0,
2032.0,2050.0,7.0,-8.0,
2040.0,2079.0,7.0,-8.0,
2056.0,2020.0,7.0,-8.0,
2050.0,2017.0,7.0,-8.0,
2041.0,1970.0,7.0,-8.0,
2049.0,2004.0,7.0,-8.0,
2045.0,2028.0,7.0,-8.0,
2045.0,2006.0,7.0,-8.0,
2034.0,2073.0,7.0,-8.0,
2039.0,2041.0,7.0,-8.0,
2045.0,2055.0,7.0,-8.0,
2055.0,2040.0,7.0,-8.0,
2050.0,2016.0,7.0,-8.0,
2053.0,2055.0,7.0,-8.0,
2062.0,2028.0,7.0,-8.0,
2056.0,2014.0,7.0,-7.0,
2046.0,2017.0,7.0,-7.0,
2046.0,2050.0,7.0,-8.0,
2046.0,2068.0,7.0,-8.0,
2055.0,2058.0,7.0,-8.0,
2057.0,2048.0,7.0,-8.0,
2061.0,2021.0,7.0,-8.0,
2064.0,2043.0,7.0,-8.0,
2067.0,2050.0,7.0,-8.0,
2066.0,2021.0,7.0,-8.0,
2055.0,2023.0,7.0,-8.0,
2053.0,2039.0,7.0,-8.0,
2044.0,2039.0,7.0,-8.0,
2017.0,2061.0,7.0,-8.0,
2060.0,2050.0,7.0,-8.0,
2050.0,2068.0,7.0,-8.0,
2050.0,2034.0,7.0,-8.0,
2043.0,2008.0,7.0,-8.0,
2062.0,1980.0,7.0,-8.0,
2049.0,1991.0,7.0,-8.0,
2042.0,2049.0,7.0,-8.0,
2043.0,2055.0,7.0,-8.0,
2041.0,2062.0,7.0,-7.0,
2034.0,2044.0,7.0,-7.0,
2044.0,2052.0,7.0,-7.0,
2062.0,2050.0,7.0,-7.0,
2066.0,2038.0,7.0,-7.0,
2044.0,2040.0,7.0,-7.0,
2047.0,2042.0,7.0,-7.0,
2043.0,2044.0,7.0,-7.0,
2041.0,2041.0,7.0,-7.0,
2036.0,2065.0,7.0,-7.0,
2034.0,2035.0,7.0,-7.0,
2047.0,2029.0,8.0,-7.0,
2052.0,2026.0,8.0,-7.0,
2064.0,2036.0,7.0,-7.0,
2058.0,2031.0,7.0,-7.0,
2051.0,2040.0,7.0,-7.0,
2046.0,2042.0,7.0,-7.0,
2050.0,2054.0,7.0,-7.0,
2048.0,2055.0,7.0,-7.0,
2050.0,2058.0,7.0,-8.0,
2053.0,2044.0,7.0,-8.0,
2080.0,2038.0,7.0,-8.0,
2071.0,2023.0,7.0,-8.0,
2066.0,2026.0,7.0,-8.0,
2055.0,2029.0,7.0,-8.0,
2047.0,2053.0,7.0,-8.0,
2041.0,2053.0,7.0,-8.0,
2031.0,2045.0,7.0,-8.0,
2056.0,2041.0,7.0,-8.0,
2054.0,2042.0,7.0,-8.0,
2055.0,2024.0,7.0,-8.0,
2052.0,2043.0,7.0,-8.0,
2060.0,2085.0,7.0,-8.0,
2060.0,2014.0,7.0,-8.0,
2049.0,2032.0,7.0,-8.0,
2037.0,2058.0,7.0,-8.0,
2046.0,2044.0,7.0,-8.0,
2046.0,2036.0,7.0,-8.0,
2050.0,2054.0,7.0,-8.0,
2051.0,2052.0,7.0,-8.0,
2066.0,2070.0,7.0,-8.0,
2065.0,2058.0,7.0,-7.0,
2054.0,2060.0,7.0,-7.0,
2057.0,2041.0,7.0,-7.0,
2044.0,2051.0,7.0,-7.0,
2042.0,2050.0,7.0,-7.0,
2045.0,2043.0,7.0,-7.0,
2058.0,2057.0,7.0,-7.0,
2065.0,2084.0,7.0,-7.0,
2064.0,2038.0,7.0,-7.0,
2063.0,2037.0,7.0,-7.0,
2033.0,2011.0,7.0,-7.0,
2019.0,2017.0,7.0,-7.0,
2026.0,2036.0,7.0,-7.0,
2032.0,2046.0,7.0,-7.0,
2038.0,2040.0,7.0,-7.0,
2066.0,2043.0,7.0,-7.0,
2035.0,2026.0,7.0,-7.0,
2055.0,2069.0,0,
2058.0,2024.0,7.0,-7.0,
2056.0,2024.0,7.0,-7.0,
2048.0,2042.0,7.0,-7.0,
2041.0,2037.0,7.0,-7.0,
2035.0,2030.0,7.0,-7.0,
2049.0,2047.0,7.0,-7.0,
2061.0,2062.0,7.0,-8.0,
2054.0,2053.0,7.0,-8.0,
2064.0,2027.0,7.0,-8.0,
2048.0,2018.0,7.0,-8.0,
2053.0,2038.0,7.0,-8.0,
2055.0,2019.0,7.0,-8.0,
2044.0,2034.0,7.0,-8.0,
2042.0,2059.0,7.0,-8.0,
2032.0,2041.0,7.0,-7.0,
2043.0,2046.0,7.0,-7.0,
2060.0,2012.0,7.0,-7.0,
2029.0,2071.0,7.0,-7.0,
2069.0,2044.0,7.0,-7.0,
2040.0,2033.0,7.0,-7.0,
2041.0,2055.0,7.0,-7.0,
2040.0,2033.0,7.0,-7.0,
2039.0,2049.0,7.0,-7.0,
2044.0,2050.0,7.0,-7.0,
2044.0,2046.0,7.0,-7.0,
2045.0,2049.0,7.0,-7.0,
2061.0,2039.0,7.0,-7.0,
2053.0,2010.0,7.0,-7.0,
2050.0,2039.0,7.0,-7.0,
2044.0,2020.0,7.0,-7.0,
2039.0,2033.0,7.0,-7.0,
2037.0,2035.0,8.0,-7.0,
2042.0,2049.0,8.0,-7.0,
2046.0,2028.0,8.0,-7.0,
2069.0,2026.0,8.0,-7.0,
2060.0,2028.0,8.0,-7.0,
2061.0,2022.0,8.0,-7.0,
2049.0,2021.0,8.0,-7.0,
2046.0,2038.0,8.0,-7.0,
2038.0,2032.0,8.0,-7.0,
2043.0,2047.0,8.0,-7.0,
2042.0,2061.0,8.0,-7.0,
2061.0,2054.0,8.0,-7.0,
2060.0,2047.0,8.0,-7.0,
2061.0,2046.0,8.0,-7.0,
2053.0,2034.0,8.0,-7.0,
2058.0,2039.0,8.0,-7.0,
2042.0,2047.0,8.0,-7.0,
2033.0,2065.0,7.0,-7.0,
2039.0,2060.0,7.0,-7.0,
2052.0,2051.0,7.0,-7.0,
2111.0,2053.0,7.0,-7.0,
2078.0,2064.0,7.0,-7.0,
2059.0,2040.0,7.0,-7.0,
2042.0,2029.0,7.0,-7.0,
2048.0,2040.0,7.0,-7.0,
2195.0,2041.0,7.0,-7.0,
2202.0,2059.0,7.0,-7.0,
2123.0,2045.0,7.0,-7.0,
2012.0,2046.0,7.0,-7.0,
1945.0,2048.0,7.0,-7.0,
2221.0,2084.0,7.0,-8.0,
2529.0,2042.0,7.0,-8.0,
2452.0,1981.0,7.0,-8.0,
2275.0,2005.0,7.0,-8.0,
1991.0,2019.0,7.0,-8.0,
1765.0,2025.0,7.0,-8.0,
1695.0,2077.0,7.0,-8.0,
1704.0,2061.0,7.0,-8.0,
1671.0,2032.0,7.0,-8.0,
1756.0,2050.0,7.0,-8.0,
1837.0,2063.0,7.0,-8.0,
1877.0,2044.0,7.0,-8.0,
2111.0,2037.0,7.0,-8.0,
2311.0,2048.0,7.0,-8.0,
2492.0,2036.0,7.0,-8.0,
2415.0,2092.0,7.0,-8.0,
2008.0,2017.0,7.0,-8.0,
1742.0,2037.0,7.0,-8.0,
1600.0,2052.0,7.0,-8.0,
1552.0,2036.0,7.0,-8.0,
1628.0,2062.0,7.0,-8.0,
1830.0,2078.0,7.0,-8.0,
2028.0,2115.0,7.0,-8.0,
2051.0,2155.0,7.0,-8.0,
2084.0,2099.0,7.0,-8.0,
2159.0,2048.0,7.0,-8.0,
2123.0,1974.0,7.0,-8.0,
2101.0,2050.0,7.0,-8.0,
2134.0,2048.0,7.0,-8.0,
2120.0,1945.0,7.0,-8.0,
2134.0,1946.0,7.0,-8.0,
2161.0,2080.0,7.0,-8.0,
2190.0,2124.0,7.0,-8.0,
2187.0,2176.0,7.0,-8.0,
2201.0,2187.0,7.0,-7.0,
2195.0,2018.0,7.0,-8.0,
2178.0,1987.0,7.0,-9.0,
2179.0,1968.0,7.0,-8.0,
2176.0,1988.0,7.0,-7.0,
2160.0,1895.0,8.0,-7.0,
2151.0,2018.0,8.0,-7.0,
2112.0,2099.0,8.0,-7.0,
2134.0,2033.0,8.0,-7.0,
2147.0,2089.0,8.0,-7.0,
2121.0,2157.0,8.0,-7.0,
2103.0,2145.0,8.0,-6.0,
2063.0,2144.0,8.0,-5.0,
2071.0,2011.0,8.0,-6.0,
2225.0,1861.0,8.0,-7.0,
2363.0,1901.0,7.0,-7.0,
2217.0,2017.0,7.0,-7.0,
2137.0,2088.0,7.0,-7.0,
2034.0,2099.0,7.0,-7.0,
1942.0,2013.0,8.0,-7.0,
1906.0,2052.0,7.0,-7.0,
1900.0,2031.0,7.0,-7.0,
2095.0,1977.0,7.0,-7.0,
1989.0,1931.0,7.0,-7.0,
1969.0,2050.0,7.0,-7.0,
2056.0,2017.0,7.0,-7.0,
1927.0,2107.0,7.0,-7.0,
1735.0,2198.0,7.0,-7.0,
1629.0,2171.0,7.0,-7.0,
1545.0,2136.0,7.0,-7.0,
1595.0,2005.0,7.0,-7.0,
1862.0,1942.0,7.0,-7.0,
2271.0,1971.0,7.0,-7.0,
2577.0,1933.0,6.0,-7.0,
2468.0,2010.0,6.0,-8.0,
2144.0,2047.0,6.0,-8.0,
1974.0,2042.0,6.0,-8.0,
1863.0,2052.0,6.0,-8.0,
1730.0,2052.0,6.0,-8.0,
1621.0,2104.0,6.0,-8.0,
1693.0,2117.0,6.0,-8.0,
1998.0,2086.0,6.0,-8.0,
2105.0,2067.0,6.0,-8.0,
2226.0,2029.0,6.0,-8.0,
2211.0,2055.0,6.0,-8.0,
2221.0,2110.0,6.0,-8.0,
2166.0,2069.0,6.0,-9.0,
2067.0,2077.0,6.0,-9.0,
1995.0,1946.0,6.0,-9.0,
2027.0,2003.0,6.0,-9.0,
2133.0,1977.0,6.0,-9.0,
2544.0,1987.0,6.0,-9.0,
2477.0,1944.0,6.0,-9.0,
2159.0,1981.0,6.0,-9.0,
1883.0,2038.0,6.0,-9.0,
1795.0,2132.0,6.0,-9.0,
1832.0,2172.0,6.0,-9.0,
1955.0,2062.0,6.0,-8.0,
2046.0,2039.0,6.0,-8.0,
2138.0,2048.0,6.0,-8.0,
2075.0,2107.0,6.0,-8.0,
2084.0,2186.0,6.0,-8.0,
2111.0,2040.0,7.0,-8.0,
2142.0,1954.0,7.0,-8.0,
2201.0,1794.0,7.0,-8.0,
2232.0,1916.0,7.0,-8.0,
2336.0,2065.0,8.0,-7.0,
2468.0,2085.0,8.0,-7.0,
2241.0,2185.0,9.0,-7.0,
1980.0,2174.0,9.0,-7.0,
1878.0,2147.0,9.0,-7.0,
1896.0,2064.0,9.0,-7.0,
1873.0,1845.0,9.0,-7.0,
1798.0,1882.0,9.0,-7.0,
1772.0,1987.0,9.0,-6.0,
1869.0,2027.0,10.0,-6.0,
2056.0,2109.0,10.0,-6.0,
2100.0,2071.0,10.0,-6.0,
2091.0,2043.0,10.0,-6.0,
2013.0,2005.0,10.0,-6.0,
1975.0,1991.0,11.0,-6.0,
2029.0,2063.0,11.0,-6.0,
2076.0,2086.0,11.0,-6.0,
1886.0,2069.0,11.0,-6.0,
1947.0,2037.0,11.0,-6.0,
2052.0,2065.0,12.0,-6.0,
2020.0,2050.0,12.0,-6.0,
1991.0,2066.0,12.0,-6.0,
1942.0,2088.0,12.0,-6.0,
1989.0,2073.0,12.0,-6.0,
2020.0,2079.0,12.0,-6.0,
2044.0,2086.0,12.0,-6.0,
2099.0,2083.0,12.0,-6.0,
2096.0,2110.0,12.0,-6.0,
2169.0,2034.0,12.0,-6.0,
2198.0,2078.0,12.0,-6.0,
2164.0,2048.0,12.0,-6.0,
2162.0,2017.0,12.0,-6.0,
2206.0,2069.0,12.0,-6.0,
2217.0,2084.0,12.0,-6.0,
2226.0,1982.0,12.0,-6.0,
2121.0,2025.0,11.0,-6.0,
2006.0,2089.0,11.0,-6.0,
2006.0,2131.0,11.0,-6.0,
1984.0,2101.0,11.0,-6.0,
1940.0,2027.0,11.0,-6.0,
1987.0,2008.0,11.0,-6.0,
1967.0,1995.0,11.0,-7.0,
1928.0,1895.0,10.0,-7.0,
1967.0,2008.0,10.0,-7.0,
1997.0,2069.0,10.0,-7.0,
2053.0,2060.0,10.0,-7.0,
2116.0,1995.0,9.0,-7.0,
2224.0,1969.0,9.0,-7.0,
2165.0,2076.0,9.0,-7.0,
2008.0,2101.0,9.0,-7.0,
1923.0,2071.0,9.0,-7.0,
1941.0,1960.0,10.0,-6.0,
2170.0,2024.0,11.0,-6.0,
2307.0,2046.0,11.0,-6.0,
2341.0,2067.0,11.0,-6.0,
2354.0,2064.0,11.0,-6.0,
2141.0,2043.0,11.0,-6.0,
1915.0,1978.0,12.0,-5.0,
1898.0,1887.0,12.0,-5.0,
1891.0,2049.0,13.0,-4.0,
1791.0,2086.0,13.0,-4.0,
1863.0,2131.0,13.0,-5.0,
2016.0,2145.0,13.0,-5.0,
2216.0,2006.0,13.0,-5.0,
2164.0,1978.0,13.0,-4.0,
1966.0,2062.0,14.0,-4.0,
1925.0,2105.0,14.0,-4.0,
1852.0,2018.0,14.0,-4.0,
1796.0,2030.0,14.0,-5.0,
1841.0,1997.0,14.0,-5.0,
1853.0,2018.0,14.0,-5.0,
1870.0,2031.0,15.0,-5.0,
1998.0,2095.0,15.0,-5.0,
2109.0,2058.0,15.0,-5.0,
2124.0,2024.0,15.0,-5.0,
2140.0,2053.0,15.0,-5.0,
2162.0,2054.0,15.0,-6.0,
2160.0,2062.0,15.0,-5.0,
2223.0,2040.0,15.0,-5.0,
2291.0,2063.0,15.0,-5.0,
2229.0,2078.0,15.0,-5.0,
2230.0,2036.0,15.0,-5.0,
2265.0,2052.0,15.0,-6.0,
2165.0,2060.0,14.0,-6.0,
2085.0,2076.0,14.0,-6.0,
2033.0,2049.0,14.0,-6.0,
2036.0,2066.0,14.0,-6.0,
2028.0,2122.0,14.0,-6.0,
2094.0,2122.0,14.0,-6.0,
1970.0,2090.0,14.0,-6.0,
1895.0,1981.0,14.0,-6.0,
1904.0,1999.0,14.0,-6.0,
1812.0,2065.0,14.0,-6.0,
1748.0,2045.0,14.0,-6.0,
1854.0,2038.0,14.0,-6.0,
1963.0,1947.0,14.0,-6.0,
2131.0,1832.0,14.0,-6.0,
2215.0,1918.0,14.0,-6.0,
2212.0,2016.0,14.0,-6.0,
2145.0,2029.0,14.0,-6.0,
2128.0,2020.0,14.0,-6.0,
2149.0,2039.0,14.0,-6.0,
2206.0,2074.0,14.0,-5.0,
2112.0,2052.0,15.0,-5.0,
1990.0,2094.0,15.0,-5.0,
1957.0,2042.0,15.0,-5.0,
1965.0,1990.0,15.0,-5.0,
2023.0,1987.0,15.0,-5.0,
2225.0,2110.0,15.0,-5.0,
2267.0,2134.0,15.0,-5.0,
2215.0,2074.0,15.0,-5.0,
2038.0,2089.0,15.0,-5.0,
1983.0,1993.0,0,
2014.0,2002.0,16.0,-5.0,
2059.0,2051.0,16.0,-5.0,
2072.0,2056.0,16.0,-5.0,
1976.0,2040.0,16.0,-5.0,
2058.0,2056.0,16.0,-5.0,
2034.0,2055.0,16.0,-5.0,
2162.0,2047.0,16.0,-4.0,
2662.0,2094.0,16.0,-4.0,
2628.0,2079.0,17.0,-4.0,
2213.0,2047.0,17.0,-4.0,
1724.0,1990.0,17.0,-4.0,
1496.0,1984.0,17.0,-4.0,
1401.0,2038.0,16.0,-4.0,
1451.0,1991.0,17.0,-4.0,
1900.0,2090.0,17.0,-4.0,
2089.0,2128.0,16.0,-4.0,
2054.0,2092.0,16.0,-4.0,
1953.0,2011.0,16.0,-5.0,
1809.0,2037.0,16.0,-5.0,
1900.0,2101.0,16.0,-5.0,
1946.0,1923.0,16.0,-5.0,
1875.0,1983.0,16.0,-5.0,
1851.0,1906.0,16.0,-5.0,
2085.0,1871.0,16.0,-5.0,
2160.0,1979.0,15.0,-5.0,
2116.0,2058.0,15.0,-5.0,
2142.0,2072.0,15.0,-5.0,
2144.0,2080.0,15.0,-5.0,
2152.0,2065.0,15.0,-5.0,
2146.0,2008.0,15.0,-5.0,
2158.0,2050.0,15.0,-5.0,
2215.0,2084.0,15.0,-5.0,
2279.0,2062.0,16.0,-5.0,
2218.0,2066.0,16.0,-5.0,
2171.0,2083.0,16.0,-5.0,
2127.0,2104.0,16.0,-5.0,
2083.0,2093.0,16.0,-4.0,
2083.0,2094.0,17.0,-4.0,
2055.0,2101.0,17.0,-4.0,
2028.0,2109.0,17.0,-4.0,
2087.0,2104.0,17.0,-4.0,
2084.0,2039.0,18.0,-4.0,
2079.0,1960.0,18.0,-4.0,
2081.0,1903.0,19.0,-3.0,
2090.0,1969.0,19.0,-3.0,
2364.0,2053.0,20.0,-3.0,
2531.0,2020.0,20.0,-3.0,
2501.0,2039.0,20.0,-3.0,
2232.0,2038.0,20.0,-3.0,
2020.0,2043.0,21.0,-3.0,
1836.0,2034.0,21.0,-2.0,
1726.0,2032.0,22.0,-2.0,
1582.0,2055.0,22.0,-2.0,
1517.0,2054.0,22.0,-2.0,
1618.0,2122.0,23.0,-2.0,
1732.0,2087.0,23.0,-2.0,
1908.0,2031.0,23.0,-1.0,
2033.0,2077.0,24.0,-1.0,
2054.0,1946.0,24.0,-1.0,
2245.0,2022.0,24.0,-1.0,
2301.0,1990.0,24.0,-1.0,
2337.0,2021.0,25.0,-1.0,
2245.0,1988.0,25.0,-1.0,
2105.0,2076.0,25.0,-1.0,
1998.0,2033.0,25.0,-1.0,
2225.0,2056.0,25.0,-1.0,
2263.0,2133.0,25.0,-1.0,
1984.0,2120.0,25.0,-1.0,
1638.0,2099.0,24.0,-2.0,
1705.0,2042.0,24.0,-2.0,
1871.0,2005.0,24.0,-2.0,
1960.0,1942.0,24.0,-2.0,
2184.0,1983.0,24.0,-2.0,
2198.0,2037.0,23.0,-2.0,
2199.0,2078.0,23.0,-2.0,
2110.0,2026.0,23.0,-2.0,
2477.0,2028.0,23.0,-3.0,
2303.0,2001.0,22.0,-3.0,
1999.0,1997.0,22.0,-3.0,
1784.0,2091.0,22.0,-3.0,
1799.0,2026.0,22.0,-3.0,
1852.0,2068.0,22.0,-3.0,
1938.0,2012.0,22.0,-3.0,
1944.0,2131.0,22.0,-3.0,
2018.0,2178.0,22.0,-3.0,
2179.0,2140.0,22.0,-3.0,
2136.0,2000.0,22.0,-3.0,
2070.0,1982.0,22.0,-3.0,
2277.0,1963.0,22.0,-3.0,
2270.0,1945.0,22.0,-3.0,
2124.0,1961.0,22.0,-2.0,
1955.0,2000.0,23.0,-2.0,
1969.0,2054.0,23.0,-2.0,
1982.0,2078.0,23.0,-2.0,
1952.0,2088.0,23.0,-2.0,
1975.0,2091.0,24.0,-2.0,
1964.0,2076.0,24.0,-1.0,
2040.0,2047.0,24.0,-1.0,
2064.0,2083.0,24.0,-1.0,
2243.0,1989.0,24.0,-1.0,
2205.0,1980.0,25.0,-1.0,
2274.0,2047.0,25.0,-1.0,
2176.0,2027.0,25.0,-1.0,
2047.0,2064.0,25.0,-1.0,
2098.0,2048.0,25.0,-1.0,
2003.0,1994.0,25.0,-1.0,
1972.0,2073.0,25.0,-1.0,
2155.0,2043.0,25.0,-1.0,
2117.0,2065.0,25.0,-1.0,
2076.0,2049.0,25.0,-1.0,
1787.0,2040.0,25.0,-1.0,
1542.0,2119.0,25.0,-1.0,
1709.0,2047.0,25.0,-1.0,
1894.0,2040.0,26.0,0.0,
1981.0,2042.0,26.0,0.0,
2092.0,1980.0,26.0,0.0,
2140.0,1950.0,26.0,0.0,
2134.0,2012.0,26.0,0.0,
2148.0,2057.0,26.0,0.0,
2149.0,2049.0,26.0,0.0,
2208.0,2054.0,26.0,0.0,
2139.0,2025.0,26.0,0.0,
2115.0,2044.0,26.0,0.0,
2063.0,2095.0,26.0,0.0,
2064.0,2009.0,26.0,0.0,
2089.0,2049.0,26.0,0.0,
2096.0,2033.0,27.0,0.0,
2058.0,2020.0,27.0,0.0,
2154.0,2035.0,27.0,0.0,
2182.0,2028.0,27.0,0.0,
2077.0,2059.0,27.0,0.0,
2050.0,2089.0,27.0,0.0,
2005.0,2125.0,27.0,0.0,
2126.0,2125.0,27.0,0.0,
1993.0,2124.0,28.0,0.0,
1905.0,2056.0,28.0,0.0,
1902.0,1934.0,28.0,0.0,
1975.0,1977.0,28.0,0.0,
2039.0,1945.0,28.0,0.0,
2155.0,2020.0,28.0,0.0,
2482.0,2011.0,28.0,0.0,
2753.0,2030.0,28.0,0.0,
2531.0,2078.0,28.0,0.0,
2018.0,2074.0,28.0,0.0,
1690.0,2038.0,28.0,0.0,
1423.0,2060.0,28.0,0.0,
1506.0,2032.0,28.0,0.0,
1454.0,2071.0,28.0,0.0,
1686.0,2043.0,28.0,0.0,
1809.0,2069.0,28.0,0.0,
1957.0,2092.0,29.0,0.0,
2104.0,2041.0,29.0,0.0,
2150.0,2003.0,29.0,0.0,
2152.0,2000.0,29.0,0.0,
2188.0,1992.0,29.0,0.0,
2248.0,2000.0,29.0,0.0,
2330.0,2049.0,29.0,0.0,
2342.0,2069.0,29.0,0.0,
2279.0,2041.0,29.0,1.0,
2092.0,2032.0,29.0,1.0,
1992.0,2004.0,29.0,1.0,
1879.0,2072.0,29.0,1.0,
1850.0,2060.0,29.0,1.0,
1876.0,2077.0,30.0,1.0,
1872.0,2052.0,30.0,1.0,
1975.0,2034.0,30.0,1.0,
2025.0,2038.0,30.0,1.0,
2121.0,2032.0,30.0,1.0,
2176.0,2049.0,30.0,1.0,
2188.0,2083.0,30.0,1.0,
2145.0,2077.0,30.0,1.0,
2130.0,2056.0,31.0,1.0,
2077.0,1993.0,31.0,2.0,
2057.0,2003.0,31.0,2.0,
2070.0,2027.0,31.0,2.0,
2081.0,2018.0,31.0,2.0,
2103.0,2038.0,31.0,1.0,
2171.0,2103.0,31.0,1.0,
2157.0,2093.0,31.0,1.0,
2201.0,2063.0,31.0,1.0,
2174.0,2061.0,31.0,1.0,
2130.0,2111.0,31.0,1.0,
2109.0,2088.0,31.0,1.0,
1977.0,2053.0,31.0,1.0,
1865.0,1972.0,31.0,1.0,
1921.0,2018.0,31.0,1.0,
2022.0,2021.0,31.0,1.0,
2102.0,2002.0,31.0,1.0,
2099.0,1995.0,31.0,1.0,
2002.0,2010.0,31.0,1.0,
2035.0,2046.0,32.0,1.0,
2095.0,2090.0,32.0,1.0,
2097.0,2107.0,32.0,1.0,
1939.0,2114.0,32.0,1.0,
1708.0,2043.0,32.0,1.0,
1843.0,2030.0,32.0,1.0,
1942.0,1926.0,32.0,2.0,
1984.0,1911.0,33.0,2.0,
2146.0,1889.0,33.0,2.0,
2191.0,2004.0,33.0,2.0,
2180.0,2044.0,33.0,2.0,
2060.0,2069.0,34.0,2.0,
2126.0,2021.0,34.0,3.0,
2139.0,2045.0,34.0,3.0,
2172.0,2104.0,35.0,3.0,
2097.0,2163.0,35.0,3.0,
2099.0,2072.0,35.0,4.0,
2086.0,2064.0,36.0,4.0,
2048.0,2050.0,36.0,4.0,
2028.0,1942.0,36.0,4.0,
1889.0,1989.0,36.0,4.0,
1825.0,2049.0,37.0,4.0,
1905.0,2098.0,37.0,4.0,
2075.0,2063.0,37.0,4.0,
2023.0,2017.0,37.0,4.0,
2011.0,2043.0,37.0,4.0,
2045.0,2105.0,37.0,4.0,
1959.0,2057.0,36.0,4.0,
1976.0,2048.0,36.0,4.0,
1968.0,2006.0,36.0,4.0,
1956.0,2050.0,36.0,4.0,
2086.0,2062.0,35.0,4.0,
2135.0,1998.0,35.0,4.0,
2376.0,2045.0,35.0,3.0,
2412.0,2065.0,35.0,3.0,
2234.0,2060.0,34.0,3.0,
1910.0,2022.0,34.0,3.0,
1734.0,2040.0,34.0,3.0,
1974.0,2069.0,34.0,3.0,
2056.0,1991.0,34.0,3.0,
2219.0,2010.0,34.0,3.0,
2156.0,2019.0,34.0,3.0,
2133.0,2037.0,34.0,3.0,
2019.0,2014.0,34.0,3.0,
1949.0,2051.0,34.0,3.0,
1961.0,2047.0,34.0,3.0,
1948.0,2032.0,34.0,3.0,
1925.0,2042.0,34.0,3.0,
1929.0,2070.0,34.0,3.0,
2028.0,2126.0,34.0,3.0,
2086.0,2120.0,34.0,3.0,
2124.0,2068.0,33.0,3.0,
2216.0,1949.0,33.0,3.0,
2162.0,1908.0,33.0,3.0,
2243.0,1917.0,33.0,3.0,
2237.0,1959.0,33.0,3.0,
2075.0,2059.0,33.0,2.0,
2235.0,2036.0,34.0,2.0,
2172.0,2002.0,34.0,2.0,
2091.0,2038.0,34.0,2.0,
1994.0,2055.0,34.0,3.0,
1839.0,2108.0,35.0,3.0,
1843.0,2006.0,36.0,3.0,
1811.0,2087.0,36.0,3.0,
1822.0,2124.0,37.0,3.0,
1922.0,2118.0,37.0,4.0,
1954.0,2121.0,37.0,4.0,
1978.0,2080.0,38.0,4.0,
2056.0,1988.0,38.0,4.0,
2113.0,1881.0,38.0,5.0,
2144.0,1912.0,38.0,5.0,
2177.0,2012.0,39.0,5.0,
2136.0,2025.0,39.0,5.0,
2166.0,2041.0,39.0,5.0,
2121.0,2055.0,39.0,5.0,
2088.0,2075.0,39.0,5.0,
2125.0,2130.0,39.0,5.0,
2114.0,2144.0,39.0,6.0,
2089.0,2056.0,40.0,6.0,
2025.0,2001.0,40.0,6.0,
2025.0,1968.0,39.0,6.0,
1978.0,2012.0,39.0,5.0,
1852.0,2024.0,39.0,5.0,
1903.0,2054.0,39.0,5.0,
1960.0,2054.0,39.0,5.0,
2016.0,1973.0,39.0,5.0,
2056.0,2005.0,38.0,4.0,
2213.0,2038.0,38.0,4.0,
2209.0,2047.0,38.0,4.0,
2127.0,2047.0,38.0,4.0,
2040.0,2078.0,38.0,4.0,
2008.0,2075.0,38.0,4.0,
2063.0,2108.0,38.0,4.0,
2086.0,2051.0,38.0,4.0,
2107.0,2020.0,38.0,4.0,
2093.0,2004.0,38.0,4.0,
2001.0,1934.0,38.0,4.0,
2058.0,1980.0,38.0,4.0,
2094.0,2067.0,38.0,4.0,
2067.0,2068.0,39.0,4.0,
2056.0,2062.0,39.0,4.0,
2116.0,2005.0,39.0,4.0,
2215.0,2063.0,39.0,4.0,
2086.0,2021.0,40.0,4.0,
1966.0,2038.0,40.0,4.0,
2049.0,1990.0,40.0,4.0,
2179.0,2070.0,40.0,5.0,
2059.0,2119.0,41.0,5.0,
2002.0,2170.0,41.0,5.0,
1990.0,2154.0,41.0,5.0,
1816.0,2096.0,41.0,5.0,
1650.0,1953.0,41.0,5.0,
1752.0,1935.0,41.0,5.0,
2075.0,1943.0,41.0,5.0,
2165.0,1940.0,41.0,5.0,
2078.0,2046.0,41.0,5.0,
2114.0,2082.0,41.0,5.0,
2147.0,2117.0,41.0,5.0,
2123.0,2062.0,40.0,5.0,
1975.0,1899.0,40.0,5.0,
2007.0,2003.0,40.0,5.0,
2118.0,2028.0,40.0,5.0,
2122.0,2039.0,40.0,5.0,
2100.0,2055.0,39.0,5.0,
2015.0,2022.0,39.0,5.0,
1971.0,2043.0,39.0,5.0,
2107.0,1968.0,39.0,5.0,
2120.0,2069.0,38.0,5.0,
2215.0,2066.0,38.0,5.0,
2224.0,2069.0,38.0,5.0,
2252.0,2016.0,38.0,5.0,
2162.0,2107.0,38.0,5.0,
2013.0,2092.0,39.0,5.0,
1958.0,2045.0,0,
1811.0,2041.0,39.0,5.0,
1752.0,2061.0,39.0,5.0,
1870.0,2070.0,39.0,5.0,
1923.0,2057.0,39.0,5.0,
2024.0,1990.0,39.0,5.0,
2042.0,2048.0,39.0,5.0,
2072.0,2012.0,39.0,5.0,
2115.0,1989.0,39.0,5.0,
2126.0,2025.0,40.0,5.0,
2075.0,2013.0,40.0,5.0,
2314.0,2083.0,40.0,5.0,
2277.0,2092.0,40.0,5.0,
2184.0,2103.0,40.0,5.0,
2061.0,2080.0,40.0,5.0,
1986.0,2030.0,40.0,5.0,
1982.0,2001.0,40.0,5.0,
2028.0,2010.0,40.0,5.0,
2161.0,2010.0,41.0,5.0,
2061.0,2051.0,41.0,5.0,
1979.0,2048.0,41.0,5.0,
1967.0,1973.0,41.0,5.0,
1968.0,1993.0,41.0,5.0,
1952.0,2037.0,41.0,6.0,
1994.0,2039.0,42.0,6.0,
2005.0,2029.0,42.0,6.0,
2034.0,2087.0,42.0,6.0,
2070.0,2068.0,42.0,6.0,
2088.0,2060.0,42.0,6.0,
2219.0,2056.0,42.0,6.0,
2458.0,2058.0,42.0,6.0,
2335.0,2099.0,42.0,6.0,
2134.0,2099.0,43.0,6.0,
1888.0,2107.0,43.0,6.0,
1829.0,2046.0,43.0,6.0,
1752.0,1969.0,43.0,6.0,
1728.0,2001.0,43.0,6.0,
1903.0,2012.0,43.0,6.0,
2023.0,1951.0,43.0,6.0,
2148.0,2008.0,43.0,6.0,
2113.0,2044.0,43.0,6.0,
2056.0,2039.0,43.0,5.0,
2024.0,2059.0,43.0,5.0,
2059.0,2049.0,43.0,5.0,
2106.0,2092.0,43.0,5.0,
2099.0,2099.0,43.0,5.0,
2083.0,2076.0,43.0,5.0,
2039.0,1976.0,43.0,5.0,
2022.0,1929.0,43.0,5.0,
1908.0,2004.0,43.0,5.0,
1897.0,2058.0,43.0,6.0,
2162.0,2032.0,43.0,6.0,
2267.0,2037.0,43.0,6.0,
2276.0,2063.0,43.0,6.0,
2197.0,2058.0,43.0,6.0,
2134.0,2086.0,42.0,6.0,
2062.0,2089.0,42.0,6.0,
1966.0,2087.0,42.0,6.0,
1900.0,2044.0,42.0,6.0,
1974.0,2007.0,42.0,5.0,
1977.0,2043.0,42.0,5.0,
2060.0,2045.0,42.0,5.0,
1992.0,2080.0,42.0,5.0,
2021.0,2032.0,42.0,5.0,
2027.0,2086.0,42.0,5.0,
2081.0,2068.0,42.0,5.0,
2092.0,2048.0,42.0,5.0,
2099.0,2033.0,42.0,5.0,
2089.0,2009.0,41.0,5.0,
2074.0,2009.0,41.0,5.0,
2077.0,2068.0,41.0,5.0,
2048.0,2069.0,41.0,5.0,
2101.0,2093.0,41.0,5.0,
2134.0,2112.0,41.0,5.0,
2098.0,2080.0,41.0,5.0,
2013.0,2048.0,41.0,5.0,
1929.0,2026.0,41.0,5.0,
1976.0,1941.0,41.0,5.0,
1994.0,1963.0,41.0,5.0,
2005.0,1999.0,41.0,5.0,
2205.0,2062.0,41.0,5.0,
2324.0,2060.0,41.0,5.0,
2345.0,2088.0,41.0,5.0,
2272.0,2035.0,41.0,5.0,
2041.0,2024.0,41.0,5.0,
1926.0,2055.0,41.0,5.0,
1887.0,2068.0,41.0,5.0,
1950.0,1993.0,41.0,5.0,
1937.0,2066.0,41.0,5.0,
1947.0,2110.0,41.0,5.0,
1946.0,2112.0,41.0,5.0,
1926.0,2123.0,40.0,5.0,
1940.0,2108.0,40.0,5.0,
1778.0,2002.0,40.0,5.0,
1672.0,1894.0,40.0,5.0,
1811.0,1981.0,40.0,5.0,
1983.0,2005.0,40.0,5.0,
2089.0,2026.0,40.0,5.0,
2145.0,2074.0,40.0,5.0,
2135.0,2049.0,40.0,5.0,
2118.0,2012.0,39.0,5.0,
2146.0,2082.0,39.0,5.0,
2092.0,2058.0,39.0,5.0,
2132.0,2056.0,39.0,5.0,
2197.0,2075.0,39.0,5.0,
2237.0,2074.0,39.0,5.0,
2174.0,2078.0,40.0,5.0,
2092.0,2045.0,40.0,5.0,
2090.0,2031.0,40.0,5.0,
2104.0,2023.0,40.0,5.0,
2083.0,2049.0,40.0,5.0,
2093.0,2056.0,40.0,5.0,
2123.0,2037.0,40.0,6.0,
2128.0,2023.0,40.0,6.0,
2079.0,2022.0,40.0,6.0,
1985.0,1998.0,40.0,6.0,
2048.0,2047.0,40.0,6.0,
2070.0,2084.0,40.0,6.0,
2070.0,2090.0,40.0,6.0,
2051.0,2125.0,40.0,5.0,
2076.0,2061.0,40.0,5.0,
2109.0,2025.0,40.0,5.0,
2084.0,2062.0,40.0,5.0,
2074.0,2073.0,40.0,5.0,
2009.0,2078.0,40.0,5.0,
2121.0,2044.0,40.0,5.0,
2123.0,2021.0,40.0,5.0,
1965.0,2035.0,40.0,5.0,
1889.0,2020.0,40.0,5.0,
1866.0,2038.0,41.0,5.0,
2078.0,2037.0,41.0,5.0,
2292.0,2073.0,41.0,5.0,
2315.0,2066.0,41.0,5.0,
2143.0,1999.0,41.0,5.0,
1922.0,2057.0,41.0,5.0,
1782.0,2060.0,41.0,5.0,
1753.0,2039.0,41.0,5.0,
1727.0,2079.0,41.0,5.0,
1841.0,2122.0,41.0,5.0,
1926.0,2118.0,41.0,5.0,
2028.0,2083.0,41.0,5.0,
2292.0,2012.0,41.0,5.0,
2213.0,2046.0,41.0,5.0,
2071.0,2075.0,41.0,5.0,
1910.0,2029.0,41.0,5.0,
1880.0,1903.0,41.0,5.0,
1940.0,1952.0,41.0,5.0,
1973.0,2087.0,41.0,5.0,
2031.0,2090.0,41.0,5.0,
2139.0,2135.0,41.0,5.0,
2218.0,2064.0,41.0,5.0,
2231.0,2022.0,41.0,5.0,
2214.0,2031.0,41.0,5.0,
2180.0,1935.0,41.0,5.0,
2111.0,1995.0,41.0,5.0,
2088.0,2049.0,41.0,5.0,
2082.0,2052.0,41.0,5.0,
2039.0,2056.0,41.0,5.0,
2048.0,1989.0,41.0,5.0,
2117.0,2051.0,41.0,5.0,
2150.0,1996.0,41.0,5.0,
2145.0,2039.0,41.0,5.0,
2115.0,2087.0,41.0,5.0,
2064.0,2109.0,41.0,5.0,
2078.0,2120.0,41.0,5.0,
2062.0,2097.0,41.0,5.0,
1974.0,2002.0,41.0,5.0,
2031.0,1975.0,41.0,5.0,
2041.0,2001.0,41.0,5.0,
2042.0,2006.0,41.0,5.0,
2285.0,2029.0,41.0,5.0,
2214.0,2040.0,41.0,5.0,
2043.0,2034.0,41.0,5.0,
1854.0,2052.0,41.0,5.0,
1806.0,2063.0,40.0,5.0,
1810.0,2030.0,40.0,5.0,
1750.0,2069.0,40.0,5.0,
1787.0,2047.0,40.0,5.0,
1992.0,2059.0,40.0,5.0,
2103.0,2045.0,40.0,5.0,
2192.0,2049.0,40.0,5.0,
2348.0,2027.0,40.0,5.0,
2367.0,2027.0,40.0,5.0,
2363.0,1989.0,41.0,5.0,
2221.0,1979.0,41.0,5.0,
2089.0,1997.0,41.0,5.0,
1925.0,2072.0,41.0,5.0,
1704.0,2062.0,0,
1640.0,2040.0,41.0,5.0,
1760.0,2086.0,40.0,5.0,
1913.0,2087.0,40.0,5.0,
1974.0,2099.0,40.0,5.0,
2030.0,1981.0,40.0,5.0,
2129.0,1964.0,40.0,5.0,
2069.0,2038.0,40.0,5.0,
2038.0,2142.0,40.0,5.0,
2205.0,2101.0,40.0,5.0,
2301.0,2056.0,40.0,5.0,
2186.0,1914.0,40.0,5.0,
2110.0,1949.0,40.0,5.0,
1996.0,2008.0,40.0,5.0,
2049.0,2035.0,40.0,5.0,
2222.0,2029.0,40.0,5.0,
2235.0,2048.0,41.0,5.0,
2097.0,2056.0,41.0,5.0,
1965.0,2057.0,41.0,5.0,
1923.0,2048.0,41.0,5.0,
1914.0,2048.0,41.0,5.0,
1950.0,2129.0,41.0,5.0,
2021.0,2062.0,41.0,5.0,
2071.0,2034.0,41.0,5.0,
2088.0,2016.0,41.0,5.0,
2071.0,2014.0,41.0,5.0,
2247.0,2065.0,41.0,5.0,
2291.0,2074.0,41.0,5.0,
2163.0,2035.0,41.0,5.0,
2028.0,2019.0,41.0,5.0,
1933.0,1987.0,41.0,5.0,
1967.0,1988.0,41.0,5.0,
2008.0,2040.0,41.0,5.0,
2101.0,2113.0,41.0,5.0,
2149.0,2061.0,41.0,5.0,
2084.0,2088.0,41.0,5.0,
1989.0,2133.0,41.0,5.0,
1931.0,2035.0,41.0,5.0,
1863.0,1995.0,41.0,5.0,
1787.0,1885.0,41.0,5.0,
1714.0,1876.0,41.0,5.0,
1878.0,2046.0,41.0,5.0,
2133.0,2068.0,41.0,5.0,
2258.0,2084.0,41.0,5.0,
2372.0,2107.0,41.0,5.0,
2191.0,2099.0,41.0,5.0,
1984.0,2062.0,41.0,5.0,
1875.0,2101.0,41.0,5.0,
1793.0,1997.0,41.0,5.0,
1929.0,2075.0,41.0,5.0,
2053.0,2046.0,41.0,5.0,
2158.0,2078.0,41.0,5.0,
2169.0,2037.0,41.0,5.0,
2175.0,2003.0,41.0,5.0,
2145.0,2038.0,41.0,5.0,
2094.0,2060.0,41.0,5.0,
2076.0,2083.0,41.0,5.0,
2058.0,2040.0,41.0,5.0,
2064.0,2079.0,41.0,5.0,
2053.0,2057.0,41.0,5.0,
2010.0,2060.0,41.0,5.0,
2002.0,2043.0,41.0,5.0,
2029.0,2089.0,41.0,5.0,
2078.0,2077.0,41.0,5.0,
2204.0,2046.0,41.0,5.0,
2216.0,1993.0,41.0,5.0,
2156.0,1940.0,41.0,5.0,
2127.0,2015.0,41.0,5.0,
1964.0,2016.0,41.0,5.0,
1952.0,2050.0,41.0,5.0,
1949.0,2049.0,41.0,5.0,
2001.0,2027.0,41.0,5.0,
2015.0,2123.0,41.0,5.0,
2054.0,2124.0,41.0,5.0,
2224.0,2185.0,41.0,5.0,
2147.0,2034.0,41.0,5.0,
2105.0,1935.0,41.0,5.0,
2044.0,2027.0,41.0,5.0,
1987.0,1930.0,41.0,5.0,
1917.0,1967.0,41.0,5.0,
1911.0,2039.0,41.0,5.0,
2063.0,2031.0,41.0,5.0,
2112.0,2071.0,41.0,5.0,
2041.0,2021.0,41.0,5.0,
2026.0,1950.0,41.0,5.0,
1955.0,1998.0,41.0,5.0,
1990.0,2021.0,41.0,5.0,
2099.0,2094.0,41.0,5.0,
2106.0,2103.0,41.0,5.0,
2093.0,2107.0,41.0,5.0,
2056.0,2040.0,41.0,5.0,
2011.0,1993.0,41.0,5.0,
2022.0,1964.0,41.0,5.0,
1928.0,2018.0,41.0,5.0,
1862.0,2074.0,41.0,5.0,
1834.0,2105.0,41.0,5.0,
1991.0,2066.0,41.0,5.0,
2041.0,2070.0,41.0,5.0,
2136.0,2070.0,41.0,5.0,
2145.0,2049.0,41.0,5.0,
2339.0,2070.0,41.0,5.0,
2273.0,2089.0,41.0,5.0,
2051.0,2049.0,40.0,5.0,
1868.0,2119.0,40.0,5.0,
1879.0,1978.0,40.0,5.0,
1962.0,1945.0,40.0,5.0,
2017.0,1985.0,40.0,5.0,
2080.0,2020.0,40.0,5.0,
2101.0,2075.0,40.0,5.0,
2084.0,2098.0,40.0,5.0,
2041.0,2099.0,40.0,5.0,
2092.0,2053.0,40.0,5.0,
2118.0,1994.0,40.0,5.0,
2111.0,1951.0,40.0,5.0,
2066.0,2011.0,40.0,5.0,
2081.0,2065.0,40.0,5.0,
2165.0,2054.0,40.0,5.0,
2176.0,2027.0,40.0,5.0,
2028.0,2024.0,40.0,5.0,
2012.0,2072.0,40.0,5.0,
2037.0,2098.0,40.0,5.0,
2004.0,2082.0,40.0,5.0,
2015.0,2018.0,40.0,5.0,
1967.0,1984.0,40.0,5.0,
2001.0,1979.0,40.0,5.0,
1996.0,1972.0,40.0,5.0,
2029.0,1984.0,40.0,5.0,
2220.0,1984.0,40.0,5.0,
2230.0,2043.0,40.0,5.0,
2107.0,2041.0,40.0,5.0,
1987.0,2080.0,40.0,4.0,
1938.0,2088.0,40.0,4.0,
1899.0,2093.0,40.0,4.0,
1879.0,2072.0,40.0,4.0,
1919.0,1993.0,40.0,4.0,
2008.0,2025.0,40.0,4.0,
1993.0,2069.0,40.0,5.0,
2036.0,2102.0,40.0,5.0,
2167.0,2036.0,40.0,5.0,
2133.0,2002.0,40.0,5.0,
2038.0,2011.0,40.0,5.0,
2063.0,2063.0,40.0,5.0,
2135.0,2046.0,40.0,5.0,
2056.0,2020.0,40.0,5.0,
2007.0,2002.0,40.0,5.0,
1943.0,1975.0,40.0,5.0,
1935.0,2049.0,40.0,5.0,
1927.0,2036.0,40.0,5.0,
1877.0,2040.0,40.0,5.0,
1876.0,2069.0,40.0,5.0,
2111.0,1995.0,40.0,5.0,
2251.0,2003.0,40.0,5.0,
2203.0,2010.0,40.0,5.0,
2107.0,2044.0,40.0,5.0,
2028.0,2068.0,40.0,5.0,
2032.0,2063.0,40.0,5.0,
2008.0,2026.0,40.0,5.0,
2026.0,2050.0,40.0,5.0,
2080.0,2069.0,40.0,5.0,
2224.0,2129.0,40.0,5.0,
2244.0,2085.0,40.0,5.0,
2131.0,2027.0,40.0,5.0,
2073.0,1989.0,40.0,5.0,
2026.0,1959.0,40.0,5.0,
2131.0,1985.0,40.0,5.0,
2139.0,2046.0,40.0,5.0,
2197.0,2064.0,40.0,5.0,
2178.0,2054.0,40.0,5.0,
2027.0,2058.0,40.0,5.0,
1990.0,2035.0,40.0,5.0,
1960.0,2044.0,40.0,5.0,
1970.0,2139.0,40.0,5.0,
1898.0,2079.0,40.0,5.0,
1881.0,2101.0,40.0,5.0,
1878.0,2063.0,40.0,5.0,
1871.0,2070.0,40.0,5.0,
1954.0,1981.0,41.0,5.0,
2178.0,2009.0,41.0,5.0,
2182.0,1999.0,41.0,5.0,
2071.0,1974.0,41.0,5.0,
1979.0,1954.0,41.0,5.0,
1945.0,1977.0,41.0,5.0,
1915.0,1991.0,41.0,5.0,
2017.0,2014.0,41.0,5.0,
2111.0,2026.0,41.0,5.0,
2165.0,2081.0,41.0,5.0,
2153.0,2071.0,41.0,5.0,
2136.0,2077.0,41.0,5.0,
2111.0,2082.0,41.0,5.0,
2161.0,2068.0,41.0,5.0,
2180.0,2120.0,41.0,5.0,
2272.0,2084.0,41.0,5.0,
2276.0,2087.0,41.0,5.0,
2145.0,2026.0,41.0,5.0,
2060.0,2041.0,41.0,5.0,
1957.0,1965.0,41.0,5.0,
1826.0,2050.0,41.0,5.0,
1950.0,2085.0,41.0,5.0,
2016.0,2020.0,41.0,5.0,
2014.0,2099.0,41.0,5.0,
1971.0,2092.0,41.0,5.0,
1980.0,2044.0,41.0,5.0,
2007.0,2049.0,41.0,5.0,
1961.0,1962.0,41.0,5.0,
1926.0,2011.0,41.0,4.0,
2037.0,2032.0,41.0,4.0,
2055.0,2085.0,41.0,4.0,
2080.0,2002.0,41.0,4.0,
2179.0,2007.0,41.0,4.0,
2127.0,2089.0,41.0,4.0,
2036.0,2045.0,41.0,4.0,
1970.0,2037.0,41.0,4.0,
1973.0,2101.0,41.0,4.0,
1989.0,2032.0,41.0,4.0,
1998.0,2055.0,41.0,4.0,
1973.0,2027.0,41.0,4.0,
2106.0,2017.0,41.0,4.0,
2314.0,2024.0,41.0,4.0,
2308.0,2111.0,40.0,4.0,
2145.0,2048.0,40.0,4.0,
1964.0,2011.0,40.0,4.0,
1893.0,2022.0,40.0,4.0,
1963.0,1945.0,40.0,4.0,
1963.0,2067.0,39.0,4.0,
1865.0,2107.0,39.0,4.0,
1962.0,2102.0,39.0,4.0,
2047.0,2055.0,39.0,4.0,
2069.0,2048.0,38.0,4.0,
2055.0,2047.0,38.0,4.0,
2054.0,2068.0,38.0,4.0,
2087.0,2028.0,38.0,4.0,
2084.0,2055.0,38.0,4.0,
2069.0,2078.0,38.0,4.0,
2078.0,2064.0,38.0,4.0,
2035.0,2126.0,38.0,4.0,
2081.0,1929.0,38.0,4.0,
2114.0,1903.0,38.0,4.0,
2129.0,2024.0,38.0,4.0,
2114.0,2036.0,37.0,4.0,
2118.0,2009.0,37.0,4.0,
2095.0,2044.0,37.0,4.0,
2059.0,2095.0,37.0,4.0,
2040.0,2065.0,37.0,4.0,
2042.0,2081.0,37.0,4.0,
2042.0,2063.0,37.0,4.0,
2048.0,2093.0,37.0,4.0,
2047.0,1969.0,37.0,4.0,
2146.0,2048.0,37.0,4.0,
2155.0,2043.0,37.0,4.0,
2088.0,1987.0,37.0,4.0,
2018.0,2005.0,36.0,4.0,
1939.0,2099.0,0,
1904.0,2084.0,36.0,4.0,
1947.0,2049.0,36.0,4.0,
2069.0,2035.0,36.0,4.0,
2307.0,2071.0,36.0,4.0,
2235.0,2120.0,36.0,4.0,
2194.0,2098.0,36.0,4.0,
2098.0,1975.0,36.0,4.0,
2163.0,1991.0,36.0,4.0,
2015.0,1980.0,36.0,4.0,
1752.0,1995.0,35.0,3.0,
1642.0,2040.0,35.0,3.0,
1886.0,2111.0,35.0,3.0,
2019.0,2080.0,35.0,3.0,
2035.0,2074.0,35.0,3.0,
1969.0,2089.0,35.0,3.0,
1806.0,2060.0,35.0,3.0,
1891.0,2114.0,34.0,3.0,
1926.0,2162.0,34.0,3.0,
1929.0,2097.0,34.0,3.0,
2008.0,2084.0,34.0,3.0,
2103.0,1905.0,33.0,2.0,
2100.0,1896.0,33.0,2.0,
2238.0,1894.0,33.0,2.0,
2338.0,1915.0,33.0,2.0,
2198.0,2047.0,33.0,2.0,
2020.0,2087.0,32.0,2.0,
1919.0,2114.0,32.0,2.0,
2009.0,2075.0,32.0,2.0,
2098.0,2033.0,32.0,2.0,
2118.0,2028.0,32.0,2.0,
2111.0,2070.0,31.0,2.0,
2118.0,2059.0,31.0,2.0,
2089.0,2050.0,31.0,2.0,
2094.0,2068.0,31.0,1.0,
2108.0,1994.0,31.0,1.0,
2111.0,2081.0,31.0,1.0,
2122.0,2051.0,31.0,2.0,
2064.0,2110.0,31.0,2.0,
2051.0,2109.0,31.0,2.0,
2074.0,2066.0,31.0,2.0,
2062.0,2068.0,31.0,2.0,
2052.0,2074.0,31.0,2.0,
2036.0,2028.0,31.0,2.0,
2056.0,2056.0,31.0,2.0,
2047.0,2025.0,31.0,2.0,
2050.0,1974.0,31.0,2.0,
2064.0,1998.0,31.0,2.0,
2059.0,1978.0,31.0,2.0,
2094.0,2033.0,31.0,2.0,
2119.0,2089.0,31.0,2.0,
2121.0,2075.0,31.0,2.0,
2098.0,2122.0,31.0,2.0,
2055.0,2082.0,31.0,2.0,
2014.0,2010.0,31.0,2.0,
2023.0,1975.0,31.0,2.0,
2033.0,2002.0,31.0,2.0,
2204.0,2088.0,31.0,2.0,
2171.0,2081.0,31.0,2.0,
2085.0,2086.0,31.0,2.0,
1888.0,2059.0,31.0,1.0,
1798.0,1970.0,30.0,1.0,
1792.0,2050.0,30.0,1.0,
1860.0,2095.0,30.0,1.0,
1984.0,2078.0,30.0,1.0,
2120.0,2003.0,30.0,1.0,
2177.0,2024.0,30.0,1.0,
2212.0,2029.0,30.0,1.0,
2052.0,2040.0,30.0,1.0,
2012.0,2050.0,30.0,1.0,
2056.0,2076.0,30.0,1.0,
1941.0,2069.0,30.0,1.0,
1887.0,1948.0,30.0,1.0,
1843.0,1995.0,29.0,1.0,
1906.0,2076.0,29.0,1.0,
2024.0,2048.0,29.0,1.0,
2074.0,2070.0,29.0,1.0,
2093.0,2104.0,29.0,1.0,
2137.0,2086.0,29.0,1.0,
2155.0,2027.0,29.0,1.0,
2128.0,2013.0,29.0,1.0,
2139.0,1990.0,29.0,1.0,
2155.0,1985.0,28.0,1.0,
2180.0,1985.0,28.0,0.0,
2156.0,2005.0,28.0,0.0,
2131.0,2039.0,28.0,0.0,
2077.0,2115.0,28.0,0.0,
2020.0,2101.0,28.0,0.0,
2026.0,2077.0,28.0,0.0,
1996.0,2072.0,28.0,0.0,
2022.0,2010.0,28.0,0.0,
2054.0,2037.0,27.0,0.0,
2045.0,2031.0,27.0,0.0,
2050.0,2026.0,27.0,0.0,
2051.0,2055.0,27.0,0.0,
2046.0,2141.0,27.0,0.0,
2063.0,2123.0,27.0,0.0,
2049.0,2079.0,27.0,0.0,
2062.0,2062.0,27.0,0.0,
2063.0,2054.0,27.0,0.0,
2084.0,1992.0,27.0,0.0,
2075.0,2027.0,27.0,0.0,
2058.0,2063.0,27.0,0.0,
2106.0,2067.0,27.0,0.0,
2102.0,1969.0,27.0,0.0,
2078.0,2058.0,27.0,0.0,
2050.0,2064.0,27.0,0.0,
2023.0,2084.0,27.0,0.0,
1995.0,2056.0,27.0,0.0,
2230.0,2036.0,27.0,0.0,
2442.0,2040.0,27.0,0.0,
2229.0,2069.0,27.0,0.0,
2014.0,1971.0,27.0,0.0,
1818.0,1975.0,27.0,0.0,
1865.0,1983.0,27.0,0.0,
1872.0,2042.0,27.0,0.0,
1808.0,2022.0,28.0,0.0,
1841.0,2027.0,28.0,0.0,
1904.0,2033.0,28.0,0.0,
1998.0,2097.0,28.0,0.0,
1982.0,2092.0,28.0,0.0,
1931.0,2065.0,27.0,0.0,
1985.0,1959.0,27.0,0.0,
1950.0,1983.0,27.0,0.0,
1995.0,2032.0,26.0,0.0,
2083.0,2055.0,26.0,0.0,
2134.0,2106.0,26.0,0.0,
2157.0,2122.0,25.0,0.0,
2195.0,2099.0,25.0,0.0,
2191.0,2029.0,24.0,0.0,
2066.0,1919.0,24.0,0.0,
2049.0,2034.0,23.0,0.0,
2072.0,2043.0,23.0,0.0,
1994.0,2101.0,23.0,0.0,
2020.0,2071.0,22.0,0.0,
2076.0,2012.0,22.0,-1.0,
2110.0,1914.0,21.0,-1.0,
2114.0,2023.0,21.0,-1.0,
2105.0,2084.0,21.0,-1.0,
2096.0,2069.0,21.0,-1.0,
2079.0,2056.0,21.0,-1.0,
2087.0,2006.0,20.0,-1.0,
2105.0,2018.0,20.0,-2.0,
2096.0,2059.0,20.0,-2.0,
2085.0,2016.0,20.0,-2.0,
2070.0,2026.0,20.0,-2.0,
2065.0,2075.0,20.0,-2.0,
2057.0,2068.0,20.0,-2.0,
2050.0,2066.0,20.0,-2.0,
2044.0,2083.0,20.0,-2.0,
2052.0,2052.0,20.0,-2.0,
2061.0,2021.0,20.0,-3.0,
2062.0,2037.0,19.0,-3.0,
2093.0,2053.0,20.0,-3.0,
2147.0,2056.0,20.0,-3.0,
2248.0,2069.0,20.0,-3.0,
2173.0,2035.0,20.0,-3.0,
1986.0,1976.0,20.0,-3.0,
1865.0,2027.0,20.0,-3.0,
1844.0,2050.0,20.0,-3.0,
1900.0,2058.0,20.0,-3.0,
1948.0,2072.0,20.0,-2.0,
2014.0,2038.0,20.0,-2.0,
2050.0,2078.0,20.0,-2.0,
2045.0,2045.0,20.0,-2.0,
2064.0,2050.0,20.0,-2.0,
2086.0,2072.0,20.0,-2.0,
2081.0,2065.0,20.0,-2.0,
2047.0,2069.0,20.0,-2.0,
2055.0,2125.0,20.0,-2.0,
2041.0,2073.0,20.0,-2.0,
2024.0,2085.0,20.0,-2.0,
1995.0,2039.0,20.0,-2.0,
1990.0,2015.0,20.0,-2.0,
2039.0,2007.0,20.0,-2.0,
2098.0,1994.0,20.0,-2.0,
2115.0,2010.0,20.0,-2.0,
2095.0,1991.0,20.0,-2.0,
2074.0,2011.0,20.0,-2.0,
2061.0,2033.0,20.0,-2.0,
2057.0,2043.0,20.0,-2.0,
2037.0,1977.0,20.0,-2.0,
2033.0,2022.0,20.0,-3.0,
2082.0,2040.0,20.0,-3.0,
2133.0,2046.0,20.0,-3.0,
2073.0,2097.0,20.0,-3.0,
2033.0,2078.0,20.0,-3.0,
2014.0,2070.0,20.0,-3.0,
2049.0,2138.0,20.0,-2.0,
2069.0,2111.0,20.0,-2.0,
2072.0,1968.0,20.0,-2.0,
2215.0,1994.0,21.0,-2.0,
2236.0,2015.0,21.0,-2.0,
2198.0,2000.0,21.0,-2.0,
2140.0,2016.0,21.0,-2.0,
2003.0,2064.0,21.0,-2.0,
1916.0,2074.0,21.0,-2.0,
1848.0,2023.0,21.0,-2.0,
1789.0,2037.0,21.0,-2.0,
1813.0,2032.0,21.0,-2.0,
1896.0,2065.0,21.0,-2.0,
1979.0,2071.0,21.0,-2.0,
2045.0,2027.0,21.0,-2.0,
2070.0,2046.0,21.0,-2.0,
2094.0,2041.0,21.0,-2.0,
2093.0,2047.0,21.0,-2.0,
2103.0,2055.0,21.0,-2.0,
2106.0,1994.0,20.0,-2.0,
2104.0,2028.0,20.0,-2.0,
2103.0,2000.0,20.0,-3.0,
2088.0,2035.0,20.0,-3.0,
2077.0,2047.0,20.0,-3.0,
2066.0,2075.0,20.0,-3.0,
2064.0,2041.0,19.0,-3.0,
2081.0,2079.0,19.0,-3.0,
2101.0,2078.0,19.0,-3.0,
2091.0,2021.0,19.0,-3.0,
2083.0,2071.0,19.0,-3.0,
2120.0,2048.0,19.0,-3.0,
2117.0,2027.0,19.0,-3.0,
2082.0,2050.0,19.0,-4.0,
2032.0,2063.0,19.0,-4.0,
1994.0,2076.0,19.0,-3.0,
1975.0,1953.0,19.0,-3.0,
1998.0,2014.0,18.0,-4.0,
2023.0,2007.0,18.0,-4.0,
2024.0,2030.0,18.0,-4.0,
2063.0,2028.0,19.0,-4.0,
2061.0,2068.0,19.0,-4.0,
2077.0,2070.0,19.0,-4.0,
2065.0,2121.0,19.0,-4.0,
2054.0,1993.0,19.0,-4.0,
2045.0,2094.0,19.0,-4.0,
2046.0,2119.0,19.0,-4.0,
2071.0,2093.0,19.0,-4.0,
2031.0,2056.0,19.0,-4.0,
1997.0,2007.0,19.0,-4.0,
2054.0,2009.0,19.0,-4.0,
2085.0,1988.0,19.0,-4.0,
2059.0,2010.0,19.0,-4.0,
2040.0,2008.0,19.0,-4.0,
2020.0,2036.0,19.0,-4.0,
2037.0,2006.0,18.0,-4.0,
2026.0,2086.0,18.0,-4.0,
1991.0,2120.0,18.0,-4.0,
2030.0,2053.0,18.0,-4.0,
2044.0,2012.0,18.0,-4.0,
2058.0,2016.0,18.0,-4.0,
2054.0,2009.0,17.0,-4.0,
2066.0,2051.0,17.0,-4.0,
2059.0,2050.0,17.0,-4.0,
2060.0,2037.0,17.0,-4.0,
2070.0,2061.0,17.0,-4.0,
2062.0,2086.0,17.0,-4.0,
2069.0,2050.0,16.0,-4.0,
2055.0,2040.0,16.0,-5.0,
2040.0,1984.0,16.0,-5.0,
2053.0,2005.0,16.0,-5.0,
2047.0,2048.0,16.0,-5.0,
2055.0,2074.0,16.0,-5.0,
2056.0,2096.0,15.0,-5.0,
2064.0,2118.0,15.0,-5.0,
2067.0,2078.0,15.0,-5.0,
2049.0,2021.0,15.0,-5.0,
2037.0,2046.0,15.0,-5.0,
2031.0,1976.0,15.0,-5.0,
2035.0,1977.0,15.0,-6.0,
2055.0,2059.0,14.0,-6.0,
2057.0,2032.0,14.0,-6.0,
2060.0,2066.0,14.0,-6.0,
2071.0,2045.0,14.0,-6.0,
2050.0,2026.0,14.0,-6.0,
2047.0,2060.0,14.0,-6.0,
2058.0,2080.0,14.0,-6.0,
2035.0,2105.0,14.0,-6.0,
2025.0,2079.0,14.0,-6.0,
2035.0,2052.0,14.0,-6.0,
2044.0,2015.0,14.0,-6.0,
2038.0,2019.0,14.0,-6.0,
2054.0,2023.0,14.0,-6.0,
2063.0,2067.0,14.0,-6.0,
2067.0,2035.0,14.0,-6.0,
2057.0,2096.0,14.0,-6.0,
2048.0,2059.0,14.0,-6.0,
2045.0,2048.0,14.0,-6.0,
2047.0,2078.0,14.0,-6.0,
2046.0,2028.0,14.0,-6.0,
2070.0,2012.0,14.0,-6.0,
2068.0,2002.0,14.0,-6.0,
2049.0,2001.0,14.0,-6.0,
2068.0,2066.0,14.0,-6.0,
2051.0,2060.0,14.0,-6.0,
2040.0,2076.0,14.0,-6.0,
2047.0,2076.0,14.0,-6.0,
2045.0,2072.0,14.0,-6.0,
2065.0,2085.0,14.0,-6.0,
2061.0,2076.0,13.0,-6.0,
2077.0,2063.0,13.0,-6.0,
2064.0,2007.0,13.0,-6.0,
2055.0,1990.0,13.0,-6.0,
2047.0,1974.0,13.0,-6.0,
2051.0,2009.0,13.0,-6.0,
2041.0,2063.0,13.0,-6.0,
2042.0,2059.0,12.0,-6.0,
2052.0,2050.0,12.0,-6.0,
2058.0,2013.0,12.0,-6.0,
2063.0,2026.0,12.0,-6.0,
2057.0,2068.0,11.0,-6.0,
2048.0,2060.0,11.0,-6.0,
2040.0,2069.0,11.0,-6.0,
2029.0,2080.0,10.0,-7.0,
2043.0,2020.0,10.0,-7.0,
2045.0,2060.0,9.0,-7.0,
2048.0,2066.0,9.0,-7.0,
2058.0,2044.0,9.0,-7.0,
2070.0,2064.0,8.0,-8.0,
2055.0,2085.0,8.0,-8.0,
2054.0,2044.0,7.0,-8.0,
2053.0,2058.0,7.0,-9.0,
2042.0,2048.0,7.0,-8.0,
2041.0,2068.0,7.0,-8.0,
2052.0,2070.0,6.0,-8.0,
2052.0,1973.0,6.0,-8.0,
2056.0,1995.0,6.0,-8.0,
2053.0,2014.0,6.0,-8.0,
2078.0,2043.0,0,
2058.0,2062.0,5.0,-8.0,
2038.0,2019.0,5.0,-8.0,
2037.0,2031.0,6.0,-8.0,
2036.0,2039.0,5.0,-8.0,
2044.0,2057.0,5.0,-9.0,
2057.0,2034.0,5.0,-9.0,
2062.0,2037.0,5.0,-9.0,
2065.0,2022.0,5.0,-9.0,
2052.0,2005.0,5.0,-9.0,
2048.0,2036.0,5.0,-9.0,
2043.0,2064.0,5.0,-9.0,
2042.0,2082.0,5.0,-9.0,
2049.0,2040.0,5.0,-9.0,
2047.0,2066.0,5.0,-9.0,
2058.0,2093.0,5.0,-9.0,
2057.0,2022.0,6.0,-9.0,
2067.0,2060.0,6.0,-9.0,
2059.0,2117.0,5.0,-9.0,
2052.0,2006.0,5.0,-9.0,
2052.0,2011.0,5.0,-9.0,
2033.0,2060.0,6.0,-9.0,
2044.0,2027.0,6.0,-8.0,
2053.0,2031.0,6.0,-8.0,
2048.0,2035.0,6.0,-8.0,
2054.0,2026.0,6.0,-8.0,
2079.0,2030.0,7.0,-8.0,
2067.0,2092.0,7.0,-8.0,
2056.0,2049.0,7.0,-8.0,
2052.0,2040.0,7.0,-8.0,
2030.0,2045.0,8.0,-8.0,
2034.0,2069.0,8.0,-8.0,
2053.0,2034.0,8.0,-8.0,
2066.0,2060.0,8.0,-7.0,
2068.0,2069.0,8.0,-8.0,
2067.0,2042.0,8.0,-8.0,
2065.0,1986.0,8.0,-8.0,
2054.0,2025.0,8.0,-8.0,
2054.0,2049.0,8.0,-8.0,
2045.0,2063.0,8.0,-8.0,
2040.0,2048.0,8.0,-8.0,
2050.0,2064.0,7.0,-8.0,
2056.0,2050.0,7.0,-9.0,
2048.0,2010.0,7.0,-9.0,
2045.0,2027.0,7.0,-9.0,
2038.0,2068.0,7.0,-8.0,
2031.0,2029.0,7.0,-8.0,
2020.0,2017.0,7.0,-8.0,
2028.0,2026.0,6.0,-8.0,
2034.0,2036.0,6.0,-9.0,
2014.0,2036.0,6.0,-9.0,
2030.0,2040.0,6.0,-8.0,
2056.0,2029.0,6.0,-8.0,
2042.0,2030.0,6.0,-8.0,
2054.0,2043.0,6.0,-8.0,
2055.0,1999.0,5.0,-9.0,
2040.0,2023.0,5.0,-9.0,
2036.0,2041.0,5.0,-9.0,
2035.0,2060.0,4.0,-9.0,
2049.0,2057.0,4.0,-9.0,
2066.0,2030.0,4.0,-9.0,
2058.0,2040.0,4.0,-9.0,
2045.0,2053.0,4.0,-9.0,
2054.0,2039.0,4.0,-9.0,
2056.0,1985.0,4.0,-9.0,
2043.0,2036.0,4.0,-9.0,
2049.0,2067.0,4.0,-9.0,
2027.0,2060.0,3.0,-9.0,
2040.0,2051.0,3.0,-9.0,
2051.0,2048.0,3.0,-9.0,
2043.0,2031.0,3.0,-9.0,
2092.0,2045.0,3.0,-9.0,
2054.0,2009.0,3.0,-9.0,
2058.0,2028.0,3.0,-9.0,
2057.0,2042.0,3.0,-9.0,
2045.0,2044.0,3.0,-9.0,
2053.0,2078.0,3.0,-9.0,
2052.0,2030.0,2.0,-9.0,
2049.0,2040.0,2.0,-10.0,
2060.0,2048.0,2.0,-10.0,
2060.0,2044.0,2.0,-9.0,
2045.0,1980.0,2.0,-9.0,
2052.0,2020.0,2.0,-9.0,
2045.0,2046.0,3.0,-9.0,
2040.0,2022.0,3.0,-9.0,
2039.0,2031.0,3.0,-9.0,
2058.0,2073.0,3.0,-9.0,
2061.0,2065.0,3.0,-9.0,
2062.0,2026.0,3.0,-8.0,
2066.0,2021.0,3.0,-9.0,
2050.0,1986.0,3.0,-9.0,
2047.0,2003.0,3.0,-9.0,
2043.0,2042.0,4.0,-9.0,
2049.0,2047.0,4.0,-9.0,
2043.0,2063.0,4.0,-9.0,
2045.0,2050.0,4.0,-9.0,
2052.0,2034.0,4.0,-9.0,
2066.0,2040.0,4.0,-9.0,
2065.0,2048.0,4.0,-9.0,
2077.0,2040.0,4.0,-9.0,
2058.0,2040.0,5.0,-9.0,
2046.0,2050.0,5.0,-9.0,
2047.0,2039.0,5.0,-9.0,
2028.0,2036.0,5.0,-8.0,
2045.0,2024.0,5.0,-8.0,
2039.0,2016.0,5.0,-8.0,
2038.0,2020.0,5.0,-8.0,
2042.0,2035.0,5.0,-8.0,
2048.0,2039.0,6.0,-8.0,
2049.0,2038.0,6.0,-8.0,
2041.0,2038.0,6.0,-8.0,
2033.0,2055.0,6.0,-8.0,
2025.0,2036.0,6.0,-8.0,
2038.0,2053.0,6.0,-9.0,
2053.0,2059.0,6.0,-9.0,
2055.0,2041.0,6.0,-9.0,
2059.0,2042.0,6.0,-9.0,
2051.0,2039.0,6.0,-9.0,
2054.0,2031.0,6.0,-9.0,
2044.0,2018.0,6.0,-9.0,
2037.0,2032.0,6.0,-9.0,
2043.0,2018.0,6.0,-9.0,
2065.0,2077.0,6.0,-9.0,
2047.0,2059.0,6.0,-8.0,
2052.0,2080.0,6.0,-8.0,
2062.0,2011.0,6.0,-9.0,
2060.0,2045.0,6.0,-9.0,
2062.0,2057.0,6.0,-9.0,
2044.0,2058.0,6.0,-9.0,
2053.0,2066.0,6.0,-9.0,
2047.0,2044.0,6.0,-8.0,
2052.0,2059.0,6.0,-8.0,
2044.0,1984.0,6.0,-8.0,
2066.0,1995.0,6.0,-8.0,
2069.0,1995.0,6.0,-8.0,
2054.0,2020.0,6.0,-8.0,
2061.0,2012.0,6.0,-8.0,
2034.0,2005.0,6.0,-8.0,
2039.0,2031.0,6.0,-8.0,
2040.0,2064.0,6.0,-8.0,
2044.0,2080.0,6.0,-8.0,
2035.0,2058.0,6.0,-8.0,
2042.0,2049.0,6.0,-8.0,
2052.0,2036.0,6.0,-8.0,
2040.0,2056.0,6.0,-8.0,
2035.0,2042.0,7.0,-8.0,
2042.0,2048.0,7.0,-8.0,
2033.0,2053.0,7.0,-8.0,
2038.0,2034.0,7.0,-8.0,
2050.0,2065.0,6.0,-8.0,
2044.0,2027.0,6.0,-8.0,
2043.0,2041.0,6.0,-8.0,
2049.0,2014.0,6.0,-8.0,
2048.0,2030.0,6.0,-8.0,
2062.0,2020.0,6.0,-8.0,
2065.0,2037.0,7.0,-8.0,
2054.0,2054.0,7.0,-8.0,
2042.0,2049.0,7.0,-8.0,
2044.0,2046.0,7.0,-8.0,
2062.0,2039.0,7.0,-8.0,
2050.0,2043.0,7.0,-8.0,
2054.0,2022.0,7.0,-8.0,
2059.0,2044.0,7.0,-8.0,
2053.0,2025.0,7.0,-8.0,
2047.0,2034.0,7.0,-8.0,
2039.0,2057.0,7.0,-8.0,
2042.0,2037.0,7.0,-8.0,
2021.0,2040.0,7.0,-8.0,
2051.0,2035.0,7.0,-8.0,
2058.0,2038.0,7.0,-8.0,
2062.0,2051.0,7.0,-8.0,
2057.0,2045.0,7.0,-8.0,
2054.0,2038.0,7.0,-8.0,
2038.0,2017.0,7.0,-8.0,
2039.0,2002.0,7.0,-8.0,
2039.0,2047.0,7.0,-8.0,
2050.0,2044.0,7.0,-8.0,
2047.0,2048.0,7.0,-8.0,
2054.0,2032.0,7.0,-8.0,
2047.0,2049.0,7.0,-8.0,
2056.0,2040.0,6.0,-8.0,
2042.0,2071.0,7.0,-8.0,
2041.0,2088.0,7.0,-8.0,
2045.0,2018.0,7.0,-8.0,
2038.0,2059.0,7.0,-8.0,
2050.0,2022.0,7.0,-8.0,
2047.0,2025.0,7.0,-8.0,
2048.0,2025.0,7.0,-8.0,
2060.0,2051.0,7.0,-8.0,
2062.0,2029.0,7.0,-8.0,
2065.0,2040.0,7.0,-8.0,
2047.0,2065.0,7.0,-8.0,
2034.0,2053.0,7.0,-8.0,
2023.0,2067.0,7.0,-8.0,
2023.0,2062.0,7.0,-8.0,
2051.0,2048.0,7.0,-8.0,
2060.0,2055.0,7.0,-8.0,
2051.0,2045.0,7.0,-8.0,
2057.0,2023.0,7.0,-8.0,
2046.0,2023.0,7.0,-8.0,
2049.0,2023.0,7.0,-8.0,
2048.0,2044.0,7.0,-8.0,
2042.0,2061.0,7.0,-8.0,
2028.0,2042.0,7.0,-8.0,
2043.0,2030.0,7.0,-8.0,
2057.0,2046.0,7.0,-8.0,
2054.0,2026.0,6.0,-8.0,
2056.0,2011.0,6.0,-8.0,
2044.0,2056.0,6.0,-8.0,
2056.0,2017.0,6.0,-8.0,
2031.0,2027.0,6.0,-8.0,
2038.0,2034.0,6.0,-8.0,
2037.0,2032.0,6.0,-8.0,
2043.0,2049.0,6.0,-8.0,
2050.0,2055.0,6.0,-8.0,
2062.0,2020.0,6.0,-8.0,
2049.0,2037.0,6.0,-8.0,
2052.0,2036.0,6.0,-8.0,
2056.0,2021.0,6.0,-8.0,
2050.0,2047.0,6.0,-8.0,
2036.0,2050.0,6.0,-8.0,
2041.0,2029.0,6.0,-8.0,
2055.0,2043.0,6.0,-8.0,
2051.0,2048.0,6.0,-8.0,
2065.0,2033.0,6.0,-8.0,
2064.0,2036.0,6.0,-8.0,
2046.0,2032.0,6.0,-8.0,
2039.0,2013.0,6.0,-8.0,
2047.0,2039.0,6.0,-8.0,
2055.0,2047.0,6.0,-8.0,
2045.0,2016.0,6.0,-8.0,
2051.0,2031.0,6.0,-8.0,
2060.0,2047.0,6.0,-8.0,
2054.0,2005.0,6.0,-8.0,
2050.0,2040.0,6.0,-8.0,
2063.0,2063.0,6.0,-8.0,
2046.0,2061.0,6.0,-8.0,
2048.0,2056.0,6.0,-8.0,
2035.0,2067.0,6.0,-8.0,
2034.0,2043.0,6.0,-8.0,
2056.0,2012.0,6.0,-8.0,
2054.0,2061.0,6.0,-8.0,
2048.0,2022.0,6.0,-8.0,
2089.0,2040.0,6.0,-8.0,
2043.0,2021.0,6.0,-8.0,
2044.0,2053.0,6.0,-8.0,
2046.0,2038.0,6.0,-8.0,
2045.0,2069.0,7.0,-8.0,
2037.0,2065.0,6.0,-8.0,
2049.0,2050.0,6.0,-9.0,
2049.0,2047.0,6.0,-9.0,
2055.0,1994.0,7.0,-8.0,
2063.0,1973.0,7.0,-8.0,
2065.0,2020.0,7.0,-8.0,
2067.0,2054.0,7.0,-8.0,
2045.0,2088.0,7.0,-8.0,
2036.0,2071.0,7.0,-8.0,
2035.0,2046.0,6.0,-8.0,
2047.0,2052.0,7.0,-8.0,
2050.0,2048.0,7.0,-7.0,
2065.0,2037.0,7.0,-8.0,
2060.0,2024.0,7.0,-8.0,
2064.0,2017.0,6.0,-8.0,
2050.0,2060.0,6.0,-8.0,
2035.0,2041.0,6.0,-8.0,
2035.0,2059.0,6.0,-8.0,
2047.0,2061.0,6.0,-8.0,
2040.0,2041.0,6.0,-8.0,
2046.0,2036.0,6.0,-8.0,
2070.0,2032.0,6.0,-8.0,
2051.0,2031.0,6.0,-8.0,
2066.0,2008.0,6.0,-8.0,
2057.0,2012.0,6.0,-8.0,
2044.0,2050.0,6.0,-8.0,
2047.0,2059.0,6.0,-8.0,
2045.0,2058.0,6.0,-8.0,
2051.0,2039.0,6.0,-8.0,
2048.0,2025.0,6.0,-8.0,
2065.0,2031.0,6.0,-8.0,
2057.0,2009.0,6.0,-8.0,
2054.0,2075.0,6.0,-8.0,
2050.0,2037.0,6.0,-8.0,
2036.0,2048.0,6.0,-8.0,
2030.0,2019.0,6.0,-8.0,
2035.0,2042.0,6.0,-8.0,
2037.0,2033.0,6.0,-8.0,
2045.0,2037.0,6.0,-8.0,
2056.0,2045.0,6.0,-8.0,
2055.0,2008.0,6.0,-8.0,
2056.0,2022.0,6.0,-8.0,
2047.0,2038.0,6.0,-8.0,
2036.0,2054.0,6.0,-8.0,
2038.0,2046.0,6.0,-8.0,
2046.0,2037.0,6.0,-8.0,
2047.0,2037.0,6.0,-8.0,
2051.0,2047.0,6.0,-8.0,
2058.0,2066.0,6.0,-8.0,
2055.0,2038.0,6.0,-8.0,
2058.0,2042.0,6.0,-8.0,
2051.0,2041.0,7.0,-8.0,
2050.0,2043.0,7.0,-8.0,
2065.0,2056.0,7.0,-8.0,
2049.0,2065.0,7.0,-8.0,
2051.0,2055.0,7.0,-8.0,
2039.0,2036.0,7.0,-8.0,
2044.0,2035.0,7.0,-8.0,
2044.0,2023.0,7.0,-8.0,
2052.0,2044.0,7.0,-8.0,
2055.0,2041.0,7.0,-8.0,
2064.0,2038.0,7.0,-8.0,
2041.0,2056.0,7.0,-8.0,
2043.0,2076.0,7.0,-8.0,
2058.0,2040.0,7.0,-8.0,
2063.0,2024.0,7.0,-8.0,
2059.0,2016.0,7.0,-8.0,
2066.0,2024.0,7.0,-8.0,
2064.0,2020.0,7.0,-8.0,
2051.0,2003.0,7.0,-8.0,
2037.0,2028.0,7.0,-8.0,
2034.0,2035.0,7.0,-8.0,
2029.0,2047.0,7.0,-8.0,
2046.0,2041.0,7.0,-8.0,
2060.0,2052.0,7.0,-8.0,
2064.0,1988.0,6.0,-8.0,
2071.0,1995.0,6.0,-8.0,
2053.0,2020.0,6.0,-8.0,
2051.0,2033.0,6.0,-8.0,
2040.0,2022.0,6.0,-8.0,
2041.0,2033.0,6.0,-8.0,
2047.0,2062.0,6.0,-8.0,
2040.0,2062.0,6.0,-8.0,
2046.0,2039.0,6.0,-8.0,
2040.0,1997.0,6.0,-8.0,
2054.0,2048.0,6.0,-8.0,
2045.0,2053.0,6.0,-8.0,
2030.0,1981.0,6.0,-8.0,
2036.0,2026.0,6.0,-8.0,
2042.0,2029.0,6.0,-8.0,
2039.0,2046.0,6.0,-8.0,
2045.0,2082.0,6.0,-8.0,
2054.0,2016.0,6.0,-8.0,
2073.0,2013.0,6.0,-8.0,
2073.0,2023.0,6.0,-8.0,
2058.0,2041.0,6.0,-8.0,
2040.0,2035.0,6.0,-8.0,
2039.0,2065.0,6.0,-8.0,
2045.0,2066.0,6.0,-8.0,
2046.0,2046.0,6.0,-8.0,
2047.0,2071.0,6.0,-8.0,
2061.0,2057.0,6.0,-8.0,
2057.0,2045.0,6.0,-8.0,
2067.0,2046.0,6.0,-8.0,
2058.0,2042.0,6.0,-8.0,
2050.0,2031.0,6.0,-8.0,
2043.0,2037.0,6.0,-8.0,
2049.0,2042.0,6.0,-8.0,
2039.0,2061.0,6.0,-8.0,
2016.0,2047.0,6.0,-8.0,
2054.0,2023.0,6.0,-8.0,
2060.0,2032.0,6.0,-8.0,
2064.0,2045.0,6.0,-8.0,
2067.0,2031.0,6.0,-8.0,
2078.0,2051.0,6.0,-8.0,
2045.0,2031.0,6.0,-8.0,
2046.0,2062.0,6.0,-8.0,
2046.0,2033.0,6.0,-8.0,
2054.0,2043.0,6.0,-8.0,
2047.0,2007.0,7.0,-8.0,
2063.0,2018.0,7.0,-8.0,
2061.0,2039.0,7.0,-8.0,
2051.0,2019.0,7.0,-8.0,
2041.0,2039.0,7.0,-8.0,
2039.0,2051.0,7.0,-8.0,
2037.0,2056.0,7.0,-8.0,
2033.0,2066.0,7.0,-8.0,
2057.0,2033.0,7.0,-8.0,
2049.0,1959.0,7.0,-8.0,
2054.0,2012.0,7.0,-8.0,
2058.0,2023.0,7.0,-8.0,
2056.0,1993.0,7.0,-8.0,
2042.0,2008.0,6.0,-8.0,
2040.0,2038.0,6.0,-8.0,
2034.0,2058.0,6.0,-8.0,
2044.0,2037.0,6.0,-8.0,
2048.0,2036.0,6.0,-8.0,
2054.0,2061.0,6.0,-8.0,
2065.0,2037.0,6.0,-8.0,
2057.0,2030.0,6.0,-8.0,
2058.0,2020.0,6.0,-8.0,
2055.0,2009.0,6.0,-8.0,
2035.0,2058.0,6.0,-8.0,
2070.0,2064.0,6.0,-8.0,
2052.0,2074.0,6.0,-8.0,
2051.0,2055.0,6.0,-8.0,
2054.0,2027.0,6.0,-8.0,
2064.0,2055.0,6.0,-8.0,
2060.0,2032.0,6.0,-8.0,
2061.0,2035.0,6.0,-8.0,
2050.0,2032.0,6.0,-8.0,
2037.0,2048.0,6.0,-8.0,
2038.0,2049.0,6.0,-8.0,
2033.0,2062.0,6.0,-8.0,
2058.0,2049.0,6.0,-8.0,
2045.0,2045.0,6.0,-8.0,
2051.0,2051.0,6.0,-8.0,
2047.0,2023.0,6.0,-8.0,
2048.0,2020.0,6.0,-8.0,
2038.0,2027.0,6.0,-8.0,
2025.0,2038.0,6.0,-8.0,
2038.0,2091.0,6.0,-8.0,
2028.0,2069.0,7.0,-8.0,
2044.0,2052.0,6.0,-8.0,
2055.0,1985.0,6.0,-8.0,
2070.0,1987.0,7.0,-8.0,
2075.0,2016.0,7.0,-8.0,
2069.0,2030.0,7.0,-8.0,
2051.0,2027.0,7.0,-8.0,
2057.0,2069.0,7.0,-8.0,
2048.0,2078.0,7.0,-8.0,
2054.0,2071.0,7.0,-8.0,
2053.0,2079.0,7.0,-8.0,
2036.0,2030.0,7.0,-8.0,
2032.0,2033.0,7.0,-8.0,
2050.0,2031.0,7.0,-8.0,
2038.0,2019.0,7.0,-8.0,
2035.0,2033.0,7.0,-8.0,
2030.0,2032.0,7.0,-8.0,
2023.0,2051.0,7.0,-8.0,
2026.0,2049.0,7.0,-8.0,
2028.0,2039.0,7.0,-8.0,
2041.0,2048.0,7.0,-8.0,
2047.0,2030.0,7.0,-8.0,
2048.0,2006.0,7.0,-8.0,
2040.0,2030.0,7.0,-8.0,
2047.0,2055.0,7.0,-8.0,
2047.0,2028.0,7.0,-8.0,
2049.0,2028.0,7.0,-8.0,
2042.0,2062.0,7.0,-8.0,
2054.0,2043.0,7.0,-8.0,
2060.0,2050.0,7.0,-8.0,
2065.0,2038.0,7.0,-8.0,
2065.0,2020.0,0,
2064.0,1988.0,7.0,-8.0,
2047.0,2019.0,7.0,-8.0,
2037.0,2055.0,7.0,-8.0,
2041.0,2050.0,7.0,-8.0,
2043.0,1979.0,7.0,-8.0,
2061.0,2046.0,7.0,-8.0,
2060.0,2039.0,7.0,-8.0,
2066.0,2047.0,7.0,-8.0,
2066.0,2030.0,7.0,-8.0,
2068.0,2042.0,6.0,-8.0,
2045.0,2031.0,6.0,-8.0,
2050.0,2044.0,6.0,-8.0,
2043.0,2059.0,6.0,-8.0,
2049.0,2025.0,6.0,-8.0,
2075.0,2036.0,6.0,-8.0,
2055.0,2044.0,6.0,-8.0,
2050.0,2030.0,6.0,-8.0,
2053.0,2037.0,6.0,-8.0,
2058.0,2019.0,6.0,-8.0,
2052.0,2036.0,7.0,-8.0,
2032.0,2027.0,6.0,-8.0,
2049.0,2049.0,6.0,-8.0,
2048.0,2056.0,6.0,-8.0,
2047.0,2045.0,6.0,-8.0,
2056.0,2041.0,6.0,-8.0,
2061.0,2047.0,6.0,-8.0,
2057.0,2056.0,6.0,-8.0,
2065.0,2060.0,6.0,-8.0,
2050.0,2031.0,6.0,-8.0,
2043.0,1998.0,6.0,-8.0,
2038.0,2052.0,6.0,-8.0,
2039.0,2015.0,7.0,-8.0,
2046.0,2024.0,7.0,-8.0,
2042.0,2023.0,7.0,-8.0,
2037.0,2039.0,6.0,-8.0,
2045.0,2036.0,7.0,-8.0,
2044.0,2005.0,7.0,-8.0,
2055.0,2042.0,7.0,-8.0,
2037.0,2018.0,7.0,-8.0,
2037.0,2052.0,7.0,-8.0,
2053.0,2052.0,7.0,-8.0,
2057.0,2053.0,7.0,-8.0,
2042.0,2031.0,7.0,-8.0,
2051.0,2075.0,7.0,-8.0,
2057.0,2047.0,7.0,-8.0,
2049.0,2068.0,7.0,-8.0,
2048.0,2055.0,7.0,-8.0,
2044.0,2048.0,6.0,-8.0,
2036.0,1960.0,6.0,-8.0,
2071.0,2028.0,7.0,-8.0,
2172.0,2068.0,7.0,-8.0,
2134.0,2094.0,7.0,-8.0,
2050.0,2103.0,7.0,-8.0,
1993.0,2054.0,7.0,-8.0,
1942.0,2019.0,7.0,-8.0,
1959.0,2004.0,7.0,-8.0,
1995.0,1965.0,7.0,-8.0,
2012.0,1987.0,7.0,-8.0,
2039.0,2080.0,7.0,-8.0,
2066.0,2105.0,7.0,-8.0,
2067.0,2077.0,7.0,-8.0,
2079.0,2022.0,7.0,-8.0,
2071.0,1998.0,7.0,-8.0,
2047.0,2009.0,7.0,-8.0,
2058.0,1994.0,7.0,-8.0,
2043.0,2035.0,7.0,-8.0,
2033.0,2057.0,7.0,-8.0,
2039.0,2072.0,7.0,-8.0,
2035.0,2120.0,7.0,-8.0,
2057.0,2044.0,7.0,-8.0,
2134.0,2088.0,7.0,-8.0,
2147.0,2060.0,7.0,-8.0,
2128.0,2057.0,7.0,-8.0,
2074.0,1996.0,7.0,-8.0,
2022.0,1983.0,7.0,-8.0,
1989.0,1979.0,7.0,-8.0,
1981.0,2015.0,7.0,-8.0,
2000.0,2080.0,7.0,-8.0,
2029.0,2104.0,7.0,-8.0,
2046.0,2073.0,7.0,-8.0,
2172.0,1984.0,7.0,-8.0,
2261.0,1995.0,7.0,-8.0,
2250.0,2045.0,7.0,-8.0,
2088.0,2093.0,7.0,-8.0,
1934.0,2072.0,7.0,-8.0,
1863.0,2047.0,7.0,-8.0,
1876.0,1969.0,6.0,-9.0,
1885.0,1985.0,6.0,-8.0,
1975.0,2009.0,6.0,-8.0,
1996.0,2007.0,7.0,-8.0,
1969.0,1997.0,6.0,-8.0,
1905.0,2107.0,6.0,-8.0,
1920.0,2110.0,6.0,-8.0,
1960.0,2105.0,6.0,-8.0,
2053.0,2083.0,6.0,-8.0,
2158.0,2010.0,6.0,-7.0,
2188.0,1994.0,6.0,-6.0,
2198.0,2038.0,6.0,-7.0,
2149.0,2096.0,6.0,-8.0,
2115.0,2094.0,6.0,-8.0,
2106.0,2051.0,6.0,-8.0,
2088.0,1994.0,6.0,-8.0,
2044.0,1912.0,6.0,-7.0,
1979.0,2056.0,6.0,-8.0,
2016.0,2113.0,6.0,-8.0,
2027.0,2039.0,6.0,-8.0,
1961.0,2055.0,6.0,-8.0,
2123.0,1961.0,6.0,-8.0,
2130.0,1995.0,6.0,-8.0,
2068.0,2025.0,6.0,-8.0,
1949.0,2059.0,0,
1933.0,2098.0,6.0,-8.0,
2018.0,2092.0,6.0,-8.0,
2066.0,2062.0,6.0,-8.0,
2048.0,2047.0,6.0,-8.0,
2123.0,2037.0,6.0,-8.0,
2137.0,2049.0,6.0,-8.0,
2083.0,2032.0,6.0,-8.0,
2039.0,2030.0,6.0,-8.0,
2017.0,2037.0,6.0,-8.0,
2016.0,2059.0,7.0,-8.0,
2032.0,2074.0,7.0,-8.0,
2144.0,2091.0,7.0,-8.0,
2267.0,2100.0,7.0,-8.0,
2303.0,2052.0,7.0,-8.0,
2144.0,2041.0,7.0,-8.0,
1962.0,2066.0,7.0,-8.0,
1840.0,2069.0,7.0,-8.0,
1822.0,2062.0,7.0,-8.0,
1859.0,2066.0,7.0,-8.0,
1907.0,2015.0,7.0,-8.0,
1948.0,2003.0,7.0,-8.0,
2074.0,1995.0,7.0,-8.0,
2117.0,2029.0,7.0,-8.0,
2100.0,2073.0,7.0,-8.0,
2121.0,2110.0,7.0,-8.0,
2130.0,2058.0,7.0,-8.0,
2135.0,2015.0,7.0,-8.0,
2114.0,2011.0,7.0,-8.0,
2138.0,2053.0,7.0,-8.0,
2073.0,1942.0,7.0,-8.0,
2024.0,1877.0,7.0,-8.0,
2144.0,2019.0,7.0,-8.0,
2342.0,2072.0,7.0,-8.0,
2164.0,2112.0,7.0,-8.0,
2016.0,2118.0,7.0,-8.0,
1873.0,2031.0,7.0,-8.0,
1827.0,2089.0,7.0,-8.0,
1899.0,1922.0,7.0,-8.0,
1932.0,1971.0,7.0,-8.0,
1925.0,2079.0,7.0,-8.0,
1994.0,2074.0,6.0,-8.0,
2049.0,2070.0,6.0,-8.0,
2108.0,2121.0,6.0,-8.0,
2130.0,2103.0,6.0,-8.0,
2262.0,2086.0,5.0,-9.0,
2216.0,2029.0,5.0,-9.0,
2165.0,2022.0,6.0,-9.0,
2015.0,1950.0,6.0,-9.0,
1948.0,1960.0,6.0,-9.0,
1928.0,2006.0,6.0,-9.0,
1953.0,2022.0,6.0,-9.0,
1941.0,2131.0,6.0,-9.0,
1979.0,2064.0,6.0,-9.0,
2046.0,1952.0,6.0,-8.0,
2027.0,2070.0,7.0,-8.0,
2004.0,2054.0,7.0,-8.0,
2063.0,2071.0,7.0,-8.0,
2107.0,2098.0,7.0,-8.0,
2205.0,2105.0,7.0,-8.0,
2161.0,2076.0,7.0,-8.0,
2066.0,1940.0,7.0,-7.0,
2034.0,1920.0,8.0,-7.0,
1981.0,1925.0,8.0,-7.0,
1965.0,1959.0,8.0,-7.0,
2025.0,2075.0,8.0,-7.0,
2031.0,2070.0,8.0,-7.0,
2056.0,2097.0,9.0,-7.0,
2056.0,2055.0,9.0,-7.0,
2069.0,2062.0,10.0,-7.0,
2001.0,2027.0,10.0,-6.0,
2048.0,2047.0,10.0,-6.0,
2074.0,2057.0,10.0,-6.0,
2030.0,2080.0,11.0,-6.0,
1965.0,2137.0,11.0,-6.0,
1954.0,2070.0,11.0,-6.0,
1994.0,2039.0,11.0,-6.0,
2080.0,2040.0,12.0,-6.0,
2128.0,2081.0,12.0,-6.0,
2163.0,2047.0,12.0,-6.0,
2131.0,2013.0,12.0,-6.0,
2087.0,1960.0,0,
2254.0,1964.0,12.0,-6.0,
2252.0,2002.0,12.0,-6.0,
2119.0,2039.0,12.0,-6.0,
2047.0,2057.0,12.0,-6.0,
1955.0,2025.0,12.0,-6.0,
2011.0,2044.0,12.0,-6.0,
2040.0,2051.0,12.0,-6.0,
1979.0,2055.0,12.0,-6.0,
1965.0,2056.0,12.0,-6.0,
2109.0,2085.0,12.0,-6.0,
1982.0,2158.0,12.0,-6.0,
1819.0,2115.0,12.0,-6.0,
1786.0,2102.0,12.0,-6.0,
1913.0,2004.0,12.0,-6.0,
2146.0,1907.0,12.0,-6.0,
2262.0,1994.0,12.0,-6.0,
2414.0,2019.0,12.0,-7.0,
2238.0,2023.0,12.0,-7.0,
1962.0,2045.0,12.0,-7.0,
1812.0,2086.0,11.0,-7.0,
1833.0,2072.0,11.0,-7.0,
1940.0,2086.0,11.0,-7.0,
1973.0,2034.0,12.0,-7.0,
1936.0,2004.0,12.0,-6.0,
1985.0,1996.0,12.0,-6.0,
2054.0,1977.0,12.0,-6.0,
2076.0,2019.0,12.0,-6.0,
2043.0,2064.0,12.0,-6.0,
2046.0,2097.0,12.0,-6.0,
2102.0,2087.0,12.0,-6.0,
2156.0,2025.0,12.0,-6.0,
2134.0,1908.0,13.0,-6.0,
2141.0,1917.0,13.0,-6.0,
2129.0,2003.0,13.0,-5.0,
2113.0,2037.0,13.0,-5.0,
2187.0,2062.0,13.0,-5.0,
2204.0,2072.0,13.0,-5.0,
2143.0,2081.0,13.0,-5.0,
2112.0,2065.0,0,
2082.0,2084.0,13.0,-6.0,
2085.0,2012.0,14.0,-6.0,
2118.0,1980.0,14.0,-6.0,
2059.0,1993.0,14.0,-5.0,
1936.0,2072.0,15.0,-5.0,
1870.0,2102.0,16.0,-4.0,
1857.0,2106.0,16.0,-4.0,
1920.0,2137.0,17.0,-4.0,
2002.0,2011.0,17.0,-4.0,
2012.0,1982.0,18.0,-3.0,
2070.0,2058.0,18.0,-3.0,
2216.0,2061.0,18.0,-3.0,
2224.0,2097.0,19.0,-3.0,
2114.0,2108.0,19.0,-3.0,
2054.0,2116.0,19.0,-3.0,
1986.0,2044.0,19.0,-4.0,
1991.0,2010.0,19.0,-4.0,
1976.0,2011.0,20.0,-3.0,
1933.0,2032.0,20.0,-3.0,
1942.0,1973.0,20.0,-3.0,
1970.0,1982.0,20.0,-3.0,
1997.0,2009.0,20.0,-3.0,
2007.0,1995.0,20.0,-3.0,
2007.0,2062.0,20.0,-3.0,
2080.0,2108.0,20.0,-3.0,
2152.0,2107.0,21.0,-3.0,
2193.0,2001.0,21.0,-3.0,
2391.0,1951.0,21.0,-3.0,
2391.0,2031.0,21.0,-3.0,
2410.0,2071.0,21.0,-3.0,
2214.0,2119.0,21.0,-3.0,
1950.0,2108.0,20.0,-3.0,
1741.0,2017.0,20.0,-3.0,
1611.0,2011.0,20.0,-3.0,
1703.0,2069.0,20.0,-3.0,
1840.0,2098.0,20.0,-3.0,
1895.0,2036.0,20.0,-3.0,
1987.0,1978.0,20.0,-3.0,
2112.0,1984.0,20.0,-4.0,
2215.0,1985.0,20.0,-4.0,
2120.0,2045.0,19.0,-4.0,
2053.0,2150.0,19.0,-4.0,
2001.0,2149.0,19.0,-4.0,
1947.0,2106.0,18.0,-4.0,
2011.0,2026.0,18.0,-4.0,
2163.0,1882.0,18.0,-4.0,
2215.0,1963.0,18.0,-4.0,
2186.0,1936.0,17.0,-4.0,
2147.0,2033.0,17.0,-4.0,
2099.0,1982.0,17.0,-4.0,
2035.0,1974.0,17.0,-4.0,
2030.0,1988.0,17.0,-4.0,
2002.0,2057.0,17.0,-4.0,
1959.0,2098.0,17.0,-4.0,
1966.0,2137.0,17.0,-4.0,
2027.0,2110.0,17.0,-4.0,
2058.0,2095.0,17.0,-4.0,
2076.0,2043.0,18.0,-3.0,
2077.0,1988.0,18.0,-4.0,
2029.0,1975.0,18.0,-4.0,
2063.0,2038.0,18.0,-4.0,
2067.0,2089.0,18.0,-4.0,
2087.0,2121.0,19.0,-4.0,
2109.0,2111.0,19.0,-4.0,
2122.0,1997.0,19.0,-3.0,
2132.0,1983.0,20.0,-3.0,
2217.0,1971.0,20.0,-3.0,
2291.0,1975.0,20.0,-3.0,
2228.0,1997.0,20.0,-3.0,
2091.0,2058.0,20.0,-3.0,
2028.0,2085.0,21.0,-3.0,
2052.0,2073.0,21.0,-2.0,
1995.0,2036.0,21.0,-2.0,
1935.0,2041.0,22.0,-2.0,
1944.0,2067.0,22.0,-2.0,
1901.0,2109.0,22.0,-2.0,
1935.0,2103.0,22.0,-2.0,
1912.0,2084.0,22.0,-2.0,
1847.0,2061.0,23.0,-1.0,
1962.0,1993.0,23.0,-1.0,
2071.0,2005.0,23.0,-2.0,
2116.0,2038.0,23.0,-2.0,
2315.0,2012.0,23.0,-2.0,
2268.0,2030.0,23.0,-2.0,
2168.0,2057.0,23.0,-2.0,
2037.0,2041.0,23.0,-2.0,
2007.0,2078.0,23.0,-2.0,
2073.0,2114.0,22.0,-2.0,
2017.0,2067.0,22.0,-2.0,
1878.0,2034.0,22.0,-2.0,
1832.0,2023.0,22.0,-2.0,
1805.0,1993.0,21.0,-2.0,
1800.0,1985.0,21.0,-2.0,
2034.0,1994.0,21.0,-2.0,
2216.0,2027.0,20.0,-3.0,
2258.0,2027.0,20.0,-3.0,
2187.0,2014.0,20.0,-3.0,
2074.0,2073.0,19.0,-3.0,
1975.0,2124.0,19.0,-3.0,
1889.0,2087.0,19.0,-3.0,
1869.0,2030.0,19.0,-3.0,
2022.0,2014.0,19.0,-4.0,
2052.0,2017.0,19.0,-3.0,
2154.0,2034.0,19.0,-3.0,
2341.0,2025.0,19.0,-3.0,
2233.0,2015.0,19.0,-3.0,
2105.0,2045.0,19.0,-3.0,
1990.0,2083.0,19.0,-2.0,
2007.0,2125.0,19.0,-2.0,
1975.0,2097.0,20.0,-2.0,
1942.0,1992.0,20.0,-3.0,
2024.0,1937.0,20.0,-3.0,
2089.0,1962.0,20.0,-2.0,
2046.0,1988.0,20.0,-2.0,
2013.0,2045.0,21.0,-2.0,
2056.0,2061.0,21.0,-2.0,
2081.0,2022.0,21.0,-2.0,
2069.0,2050.0,21.0,-2.0,
2100.0,2100.0,22.0,-2.0,
2099.0,2111.0,22.0,-1.0,
2104.0,2078.0,22.0,-1.0,
2106.0,2033.0,23.0,-1.0,
2111.0,2034.0,23.0,-1.0,
2106.0,2054.0,23.0,-1.0,
2096.0,2033.0,23.0,-1.0,
2142.0,2103.0,23.0,-1.0,
2302.0,2056.0,24.0,-1.0,
2300.0,2039.0,24.0,-1.0,
2115.0,2002.0,24.0,-1.0,
1912.0,1996.0,24.0,-1.0,
1954.0,2014.0,24.0,0.0,
1934.0,2039.0,25.0,0.0,
1897.0,2041.0,25.0,0.0,
1860.0,2059.0,26.0,0.0,
1945.0,2079.0,26.0,0.0,
2030.0,2090.0,26.0,0.0,
2073.0,2124.0,26.0,0.0,
2110.0,2000.0,0,
2113.0,2025.0,26.0,0.0,
2240.0,1948.0,26.0,0.0,
2375.0,2007.0,26.0,0.0,
2112.0,2043.0,26.0,0.0,
1899.0,2117.0,26.0,0.0,
1785.0,2093.0,26.0,0.0,
1814.0,2127.0,26.0,0.0,
1819.0,2105.0,26.0,0.0,
1661.0,2080.0,26.0,0.0,
1802.0,1932.0,26.0,0.0,
1951.0,1910.0,26.0,0.0,
2073.0,1934.0,26.0,0.0,
2100.0,2008.0,26.0,0.0,
2072.0,2060.0,26.0,0.0,
2126.0,2075.0,26.0,0.0,
2157.0,2047.0,26.0,0.0,
2142.0,2052.0,26.0,0.0,
2139.0,2024.0,26.0,0.0,
2123.0,2058.0,25.0,0.0,
2115.0,2057.0,25.0,0.0,
2142.0,2068.0,25.0,0.0,
2106.0,2049.0,25.0,0.0,
2136.0,2032.0,25.0,0.0,
2145.0,2032.0,25.0,-1.0,
2209.0,2078.0,25.0,-1.0,
2207.0,2090.0,24.0,-1.0,
2115.0,2012.0,24.0,-1.0,
2048.0,1992.0,24.0,-1.0,
1987.0,1973.0,24.0,-1.0,
1976.0,2018.0,24.0,-1.0,
1948.0,2055.0,24.0,-1.0,
1995.0,2039.0,24.0,-1.0,
2046.0,2040.0,24.0,-1.0,
2072.0,2049.0,24.0,-1.0,
2030.0,2084.0,24.0,-1.0,
2027.0,2090.0,24.0,-1.0,
2031.0,2010.0,24.0,-1.0,
2010.0,1996.0,24.0,-1.0,
2007.0,2064.0,24.0,-1.0,
2023.0,2029.0,24.0,-1.0,
2049.0,2057.0,24.0,-1.0,
2065.0,2007.0,24.0,0.0,
2071.0,1986.0,24.0,0.0,
2062.0,2020.0,24.0,0.0,
2050.0,1970.0,24.0,0.0,
2059.0,2008.0,24.0,0.0,
2140.0,2069.0,24.0,0.0,
2160.0,2061.0,24.0,0.0,
2129.0,2064.0,0,
2144.0,2064.0,24.0,0.0,
2144.0,2057.0,24.0,0.0,
2000.0,2060.0,24.0,0.0,
1897.0,2063.0,24.0,0.0,
1996.0,2045.0,24.0,0.0,
1970.0,2039.0,24.0,0.0,
1955.0,2086.0,24.0,0.0,
1886.0,2071.0,25.0,0.0,
1914.0,2039.0,25.0,0.0,
1982.0,2078.0,25.0,0.0,
2033.0,2057.0,25.0,0.0,
2070.0,2034.0,25.0,0.0,
2051.0,2020.0,25.0,0.0,
2044.0,2023.0,25.0,0.0,
2105.0,2029.0,25.0,0.0,
2168.0,2050.0,25.0,0.0,
2168.0,2041.0,25.0,0.0,
2144.0,2024.0,26.0,0.0,
2088.0,2033.0,26.0,0.0,
2082.0,2045.0,26.0,0.0,
2065.0,2064.0,26.0,0.0,
2075.0,2039.0,26.0,0.0,
1995.0,2026.0,26.0,0.0,
2024.0,2006.0,26.0,0.0,
2051.0,2016.0,26.0,0.0,
2023.0,2041.0,26.0,0.0,
2012.0,2062.0,26.0,0.0,
2086.0,2052.0,26.0,0.0,
2194.0,2097.0,26.0,0.0,
2241.0,2012.0,26.0,0.0,
2195.0,2040.0,26.0,0.0,
2088.0,2043.0,26.0,0.0,
1972.0,2034.0,26.0,0.0,
1938.0,2070.0,26.0,0.0,
1872.0,2059.0,26.0,0.0,
1829.0,2064.0,26.0,0.0,
1913.0,2069.0,26.0,0.0,
2007.0,2078.0,26.0,0.0,
2042.0,2097.0,26.0,0.0,
2061.0,2043.0,26.0,0.0,
2091.0,2035.0,26.0,0.0,
2111.0,2046.0,26.0,0.0,
2115.0,2007.0,26.0,0.0,
2142.0,2000.0,26.0,0.0,
2190.0,2029.0,26.0,0.0,
2211.0,2042.0,26.0,0.0,
2150.0,2020.0,25.0,0.0,
2150.0,2049.0,25.0,0.0,
2107.0,2061.0,25.0,-1.0,
2048.0,2125.0,25.0,-1.0,
1950.0,2128.0,25.0,-1.0,
1914.0,2138.0,25.0,-1.0,
1972.0,2104.0,25.0,-1.0,
2009.0,1952.0,25.0,-1.0,
2022.0,1956.0,25.0,-1.0,
2087.0,1952.0,25.0,-1.0,
2076.0,1981.0,25.0,-1.0,
2048.0,1991.0,25.0,0.0,
2002.0,2020.0,25.0,0.0,
1988.0,2039.0,25.0,0.0,
2011.0,2053.0,25.0,0.0,
2003.0,2041.0,24.0,0.0,
2023.0,2038.0,24.0,0.0,
2113.0,2100.0,24.0,0.0,
2198.0,2054.0,24.0,0.0,
2149.0,2090.0,24.0,0.0,
2044.0,2074.0,24.0,0.0,
2003.0,2063.0,24.0,0.0,
2043.0,2041.0,24.0,0.0,
2094.0,2048.0,24.0,0.0,
2120.0,2011.0,24.0,0.0,
2195.0,2031.0,24.0,0.0,
2172.0,2051.0,24.0,0.0,
2129.0,2097.0,24.0,0.0,
1988.0,2009.0,24.0,0.0,
1948.0,2001.0,24.0,0.0,
1867.0,2014.0,24.0,0.0,
1961.0,1984.0,24.0,0.0,
2011.0,2035.0,24.0,0.0,
2056.0,2061.0,24.0,0.0,
2076.0,2041.0,24.0,0.0,
2027.0,2054.0,24.0,0.0,
2110.0,2073.0,24.0,0.0,
2086.0,2039.0,24.0,0.0,
2099.0,2017.0,24.0,0.0,
2091.0,2032.0,24.0,0.0,
1975.0,2097.0,24.0,0.0,
1997.0,2114.0,24.0,-1.0,
2000.0,2094.0,24.0,-1.0,
2027.0,2094.0,24.0,-1.0,
2028.0,2071.0,24.0,-1.0,
1972.0,1930.0,24.0,-1.0,
1984.0,2012.0,23.0,-1.0,
2043.0,1993.0,23.0,-1.0,
2071.0,2025.0,23.0,-1.0,
2081.0,2037.0,23.0,-1.0,
2078.0,2029.0,23.0,-1.0,
2052.0,2092.0,23.0,-1.0,
2143.0,2037.0,23.0,-1.0,
2122.0,1971.0,23.0,-1.0,
2234.0,2018.0,23.0,-1.0,
2146.0,2028.0,23.0,-1.0,
1996.0,2040.0,22.0,-1.0,
1919.0,2052.0,22.0,-1.0,
1847.0,2061.0,22.0,-1.0,
1860.0,2080.0,22.0,-1.0,
1974.0,2027.0,22.0,-1.0,
2046.0,2036.0,22.0,-1.0,
2083.0,2050.0,22.0,-1.0,
2154.0,2024.0,22.0,-1.0,
2302.0,2000.0,22.0,-1.0,
2284.0,2022.0,22.0,-1.0,
2232.0,2079.0,22.0,-1.0,
2047.0,2064.0,22.0,-1.0,
1942.0,2072.0,22.0,-1.0,
1933.0,2076.0,22.0,-1.0,
1926.0,2101.0,22.0,-1.0,
1933.0,2066.0,22.0,-1.0,
1944.0,2040.0,22.0,-1.0,
1991.0,2006.0,22.0,-1.0,
2081.0,1988.0,22.0,-1.0,
2101.0,1919.0,23.0,-1.0,
2110.0,1995.0,23.0,-1.0,
2092.0,2005.0,23.0,-1.0,
2112.0,2027.0,23.0,-1.0,
2041.0,2060.0,23.0,-1.0,
2000.0,2126.0,23.0,-1.0,
1948.0,2144.0,23.0,-1.0,
1937.0,2094.0,24.0,-1.0,
1937.0,2077.0,24.0,-1.0,
1948.0,2039.0,24.0,0.0,
2042.0,2003.0,24.0,0.0,
2093.0,2034.0,24.0,0.0,
2160.0,2008.0,24.0,0.0,
2175.0,1934.0,24.0,0.0,
2122.0,2022.0,24.0,0.0,
2078.0,2009.0,24.0,0.0,
2072.0,2083.0,24.0,0.0,
2117.0,2078.0,24.0,0.0,
2142.0,2086.0,25.0,0.0,
2057.0,2046.0,25.0,0.0,
2033.0,1991.0,25.0,0.0,
1991.0,1997.0,25.0,0.0,
1993.0,1982.0,25.0,0.0,
1998.0,2056.0,25.0,0.0,
1970.0,2096.0,25.0,0.0,
1996.0,2045.0,25.0,0.0,
2009.0,2055.0,25.0,0.0,
1998.0,2057.0,25.0,0.0,
2043.0,2080.0,25.0,0.0,
2078.0,2057.0,25.0,0.0,
2082.0,2057.0,25.0,0.0,
2071.0,2081.0,25.0,0.0,
2095.0,2071.0,25.0,0.0,
2072.0,2009.0,25.0,0.0,
2073.0,1993.0,25.0,0.0,
2111.0,2048.0,25.0,0.0,
2085.0,2073.0,25.0,0.0,
2121.0,2050.0,25.0,0.0,
2111.0,2036.0,25.0,0.0,
2098.0,1989.0,25.0,0.0,
2071.0,1995.0,25.0,0.0,
2061.0,2043.0,25.0,0.0,
2108.0,2043.0,25.0,0.0,
2066.0,2050.0,25.0,0.0,
2007.0,2085.0,25.0,0.0,
2129.0,2072.0,25.0,0.0,
2084.0,2073.0,25.0,0.0,
2093.0,2087.0,25.0,0.0,
2016.0,2043.0,25.0,0.0,
1908.0,1973.0,25.0,0.0,
2018.0,2003.0,25.0,0.0,
2059.0,2010.0,24.0,0.0,
2004.0,1962.0,24.0,0.0,
1981.0,2087.0,24.0,0.0,
2105.0,2117.0,24.0,0.0,
2222.0,2143.0,24.0,0.0,
2187.0,2057.0,24.0,-1.0,
2022.0,1976.0,24.0,-1.0,
1868.0,1912.0,24.0,-1.0,
1900.0,1970.0,24.0,-1.0,
1853.0,2039.0,24.0,-1.0,
1873.0,2089.0,24.0,-1.0,
2016.0,2072.0,24.0,-1.0,
2037.0,2038.0,24.0,-1.0,
2064.0,2039.0,0,
2026.0,2006.0,24.0,-1.0,
2043.0,2044.0,24.0,-1.0,
2080.0,2069.0,24.0,-1.0,
2092.0,2044.0,23.0,-1.0,
2111.0,2058.0,23.0,-1.0,
2072.0,2067.0,23.0,-1.0,
2075.0,2068.0,23.0,-1.0,
2124.0,2072.0,23.0,-1.0,
2139.0,2104.0,23.0,-1.0,
2099.0,2100.0,23.0,-1.0,
2028.0,2081.0,23.0,-1.0,
2038.0,2008.0,23.0,-1.0,
1983.0,1987.0,23.0,-1.0,
1979.0,1902.0,23.0,-1.0,
2048.0,1940.0,23.0,-1.0,
2077.0,2043.0,23.0,-1.0,
2103.0,2041.0,23.0,-1.0,
2110.0,2004.0,23.0,-1.0,
2045.0,1996.0,23.0,-1.0,
2079.0,2039.0,23.0,-1.0,
2089.0,2105.0,23.0,-1.0,
2061.0,2098.0,23.0,-1.0,
2012.0,2105.0,23.0,-1.0,
2036.0,2093.0,23.0,-1.0,
2066.0,2027.0,23.0,-1.0,
2058.0,1953.0,23.0,-1.0,
2018.0,2028.0,23.0,-1.0,
2062.0,2079.0,23.0,-1.0,
2069.0,2008.0,24.0,-1.0,
2046.0,1993.0,24.0,-1.0,
2062.0,2086.0,24.0,-1.0,
2087.0,2076.0,24.0,-1.0,
2185.0,2057.0,24.0,-1.0,
2130.0,2050.0,24.0,-1.0,
2089.0,2056.0,24.0,0.0,
2040.0,2038.0,24.0,0.0,
2017.0,2053.0,24.0,0.0,
2047.0,2037.0,24.0,0.0,
2058.0,2065.0,24.0,0.0,
2053.0,2063.0,25.0,0.0,
2057.0,2112.0,25.0,0.0,
1995.0,2070.0,0,
2278.0,2034.0,25.0,0.0,
2311.0,2084.0,25.0,0.0,
2013.0,2072.0,25.0,0.0,
1727.0,2059.0,25.0,0.0,
1620.0,2028.0,25.0,0.0,
1823.0,2078.0,25.0,0.0,
2012.0,2002.0,25.0,0.0,
2042.0,1966.0,25.0,0.0,
1995.0,1936.0,25.0,0.0,
1969.0,1957.0,24.0,0.0,
1955.0,2010.0,24.0,0.0,
2111.0,2017.0,24.0,0.0,
2127.0,2025.0,24.0,-1.0,
2045.0,2049.0,24.0,-1.0,
2084.0,2062.0,24.0,-1.0,
2066.0,2070.0,24.0,-1.0,
2077.0,2052.0,24.0,-1.0,
2098.0,2029.0,24.0,-1.0,
2083.0,1957.0,24.0,-1.0,
2060.0,2028.0,24.0,-1.0,
2099.0,2043.0,24.0,-1.0,
2018.0,2069.0,24.0,-1.0,
2073.0,2125.0,24.0,-1.0,
2160.0,2135.0,24.0,-1.0,
2121.0,2061.0,24.0,-1.0,
2109.0,1909.0,24.0,-1.0,
2092.0,1973.0,24.0,-1.0,
2023.0,1989.0,24.0,-1.0,
1998.0,2000.0,24.0,-1.0,
1940.0,2057.0,24.0,-1.0,
1980.0,2060.0,24.0,-1.0,
2052.0,2068.0,24.0,-1.0,
2048.0,2096.0,24.0,-1.0,
2080.0,2120.0,24.0,-1.0,
2082.0,2101.0,24.0,-1.0,
2083.0,2079.0,24.0,-1.0,
2084.0,2033.0,24.0,-1.0,
2092.0,1979.0,24.0,-1.0,
2090.0,1997.0,24.0,-1.0,
2072.0,2040.0,24.0,-1.0,
2040.0,2047.0,24.0,-1.0,
2001.0,2055.0,0,
2024.0,2083.0,24.0,-1.0,
2047.0,2045.0,24.0,-1.0,
2042.0,2069.0,24.0,-1.0,
2038.0,2057.0,24.0,-1.0,
2047.0,2026.0,24.0,-1.0,
2159.0,2052.0,24.0,-1.0,
2182.0,2055.0,24.0,-1.0,
2108.0,2065.0,24.0,-1.0,
2092.0,2061.0,24.0,-1.0,
2000.0,2066.0,24.0,-1.0,
1941.0,2084.0,24.0,-1.0,
1924.0,2061.0,24.0,-1.0,
1933.0,1985.0,24.0,-1.0,
1997.0,1944.0,24.0,-1.0,
1998.0,1955.0,24.0,-1.0,
2063.0,2019.0,24.0,0.0,
2048.0,2035.0,24.0,0.0,
2060.0,2067.0,24.0,0.0,
2116.0,2090.0,24.0,0.0,
2117.0,2035.0,24.0,0.0,
2078.0,2094.0,24.0,0.0,
1982.0,2098.0,24.0,0.0,
1930.0,2121.0,24.0,0.0,
2057.0,2113.0,25.0,0.0,
2152.0,1935.0,25.0,0.0,
1969.0,2003.0,25.0,0.0,
1945.0,2000.0,25.0,0.0,
1959.0,1995.0,25.0,0.0,
2059.0,2048.0,25.0,0.0,
2085.0,2051.0,25.0,0.0,
2032.0,2022.0,25.0,0.0,
2043.0,2039.0,25.0,0.0,
2040.0,2112.0,25.0,0.0,
2046.0,2051.0,25.0,0.0,
2068.0,2105.0,25.0,0.0,
2018.0,2000.0,25.0,0.0,
2089.0,1976.0,25.0,0.0,
2152.0,2035.0,25.0,0.0,
2253.0,2059.0,25.0,0.0,
2235.0,2087.0,25.0,0.0,
2128.0,2021.0,25.0,0.0,
2052.0,2065.0,25.0,0.0,
1974.0,2053.0,25.0,0.0,
1952.0,2015.0,25.0,0.0,
1973.0,2054.0,25.0,0.0,
2018.0,2033.0,25.0,0.0,
2067.0,2070.0,25.0,0.0,
2056.0,2068.0,25.0,0.0,
2042.0,2107.0,25.0,0.0,
2002.0,1961.0,25.0,0.0,
2014.0,2026.0,26.0,0.0,
2021.0,1995.0,26.0,0.0,
2128.0,1824.0,26.0,0.0,
2222.0,1969.0,26.0,0.0,
2189.0,2016.0,26.0,0.0,
2163.0,2059.0,26.0,0.0,
2079.0,2053.0,26.0,0.0,
2005.0,2009.0,26.0,0.0,
1903.0,2054.0,26.0,0.0,
1845.0,2055.0,26.0,0.0,
1814.0,2111.0,26.0,0.0,
1953.0,2101.0,26.0,0.0,
2022.0,2082.0,26.0,0.0,
2049.0,2078.0,26.0,0.0,
2102.0,2125.0,26.0,0.0,
2125.0,2073.0,26.0,0.0,
2100.0,2050.0,26.0,0.0,
2044.0,2033.0,26.0,0.0,
2078.0,2001.0,26.0,0.0,
2103.0,1950.0,26.0,0.0,
2099.0,1988.0,26.0,0.0,
2058.0,1997.0,26.0,0.0,
2059.0,2064.0,26.0,0.0,
2178.0,2054.0,26.0,0.0,
2191.0,1994.0,26.0,0.0,
2115.0,2026.0,26.0,0.0,
1956.0,2026.0,26.0,0.0,
1912.0,2082.0,25.0,0.0,
1959.0,2062.0,25.0,0.0,
2006.0,2053.0,25.0,0.0,
1990.0,2067.0,25.0,0.0,
1976.0,2060.0,25.0,0.0,
2005.0,2048.0,25.0,0.0,
2089.0,2024.0,25.0,0.0,
2099.0,2037.0,25.0,0.0,
2081.0,2082.0,25.0,0.0,
2078.0,2081.0,24.0,0.0,
2043.0,2076.0,24.0,-1.0,
2034.0,2070.0,24.0,-1.0,
2000.0,2026.0,24.0,-1.0,
1987.0,2009.0,24.0,-1.0,
2014.0,2078.0,24.0,-1.0,
2083.0,2035.0,24.0,-1.0,
2111.0,2065.0,24.0,-1.0,
2105.0,2048.0,23.0,-1.0,
2114.0,2014.0,23.0,-1.0,
2139.0,1996.0,23.0,-1.0,
2184.0,2020.0,23.0,-1.0,
2140.0,2042.0,23.0,-1.0,
1996.0,2044.0,23.0,-1.0,
1915.0,2072.0,23.0,-1.0,
1901.0,2096.0,22.0,-1.0,
1951.0,2098.0,22.0,-1.0,
2115.0,2131.0,22.0,-1.0,
2228.0,2070.0,22.0,-1.0,
2191.0,2020.0,22.0,-1.0,
2164.0,1974.0,21.0,-1.0,
2088.0,1932.0,21.0,-2.0,
1973.0,1968.0,21.0,-2.0,
1855.0,2023.0,21.0,-2.0,
1756.0,2051.0,21.0,-2.0,
1785.0,2065.0,20.0,-2.0,
1923.0,2064.0,20.0,-2.0,
2011.0,2062.0,20.0,-2.0,
2120.0,2081.0,20.0,-2.0,
2461.0,2077.0,20.0,-2.0,
2477.0,2060.0,20.0,-2.0,
2232.0,2003.0,19.0,-2.0,
1953.0,2023.0,19.0,-3.0,
1834.0,2045.0,19.0,-3.0,
1833.0,2051.0,19.0,-3.0,
1894.0,2086.0,19.0,-3.0,
1915.0,2069.0,19.0,-3.0,
1904.0,2029.0,19.0,-3.0,
2047.0,2023.0,19.0,-3.0,
2084.0,2042.0,18.0,-3.0,
2055.0,2075.0,18.0,-3.0,
2136.0,2051.0,18.0,-3.0,
2256.0,2063.0,18.0,-3.0,
2208.0,2037.0,18.0,-3.0,
2120.0,2002.0,18.0,-3.0,
2054.0,2047.0,18.0,-3.0,
2039.0,2039.0,18.0,-3.0,
2050.0,2010.0,17.0,-3.0,
2103.0,2026.0,17.0,-3.0,
2051.0,2066.0,17.0,-3.0,
2045.0,2071.0,17.0,-3.0,
2018.0,2016.0,17.0,-4.0,
1968.0,2053.0,17.0,-4.0,
1992.0,2055.0,17.0,-4.0,
2016.0,2028.0,17.0,-4.0,
2049.0,1954.0,17.0,-4.0,
2054.0,1970.0,16.0,-4.0,
2067.0,1990.0,16.0,-4.0,
2060.0,1992.0,16.0,-4.0,
2072.0,2042.0,16.0,-4.0,
2075.0,2021.0,16.0,-4.0,
2093.0,2101.0,16.0,-4.0,
2084.0,2145.0,16.0,-4.0,
2067.0,2151.0,16.0,-4.0,
2071.0,2103.0,16.0,-4.0,
2030.0,2038.0,16.0,-4.0,
2054.0,1973.0,16.0,-4.0,
2072.0,1946.0,16.0,-4.0,
2067.0,1992.0,16.0,-4.0,
2054.0,2048.0,16.0,-4.0,
2044.0,2078.0,16.0,-4.0,
2037.0,2084.0,16.0,-4.0,
2039.0,2095.0,16.0,-4.0,
2157.0,2102.0,16.0,-4.0,
2130.0,2085.0,15.0,-4.0,
2053.0,2071.0,15.0,-4.0,
2041.0,2072.0,15.0,-4.0,
2006.0,2053.0,15.0,-4.0,
1978.0,1937.0,15.0,-4.0,
2001.0,2015.0,16.0,-4.0,
2011.0,2058.0,16.0,-4.0,
2053.0,2074.0,16.0,-4.0,
2028.0,2058.0,16.0,-4.0,
2017.0,2033.0,0,
2035.0,2070.0,16.0,-4.0,
2043.0,2081.0,17.0,-4.0,
2062.0,2072.0,17.0,-4.0,
2065.0,2059.0,17.0,-4.0,
2066.0,2011.0,17.0,-4.0,
2071.0,2055.0,17.0,-3.0,
2092.0,2028.0,17.0,-3.0,
2135.0,2054.0,17.0,-4.0,
2117.0,2072.0,17.0,-3.0,
2093.0,2080.0,17.0,-4.0,
2138.0,2046.0,17.0,-4.0,
2134.0,1980.0,17.0,-4.0,
2022.0,1837.0,17.0,-4.0,
1961.0,2012.0,17.0,-4.0,
1886.0,2089.0,16.0,-4.0,
1975.0,2165.0,16.0,-4.0,
2092.0,2124.0,16.0,-4.0,
2120.0,2015.0,16.0,-4.0,
2093.0,1919.0,16.0,-4.0,
2019.0,1942.0,16.0,-4.0,
1973.0,1982.0,16.0,-4.0,
2003.0,2039.0,15.0,-4.0,
1986.0,2064.0,15.0,-4.0,
2033.0,2053.0,15.0,-4.0,
2067.0,2007.0,15.0,-4.0,
2088.0,2059.0,15.0,-4.0,
2086.0,2099.0,14.0,-4.0,
2073.0,2142.0,14.0,-4.0,
1991.0,2113.0,14.0,-4.0,
1999.0,2041.0,14.0,-4.0,
2071.0,2012.0,14.0,-4.0,
2034.0,1973.0,14.0,-4.0,
1996.0,2021.0,13.0,-5.0,
2004.0,2032.0,13.0,-5.0,
2032.0,2051.0,13.0,-5.0,
2074.0,2029.0,13.0,-5.0,
2072.0,2056.0,13.0,-5.0,
2078.0,2063.0,13.0,-5.0,
2075.0,2072.0,13.0,-6.0,
2059.0,2087.0,13.0,-6.0,
2061.0,2074.0,13.0,-6.0,
2056.0,2114.0,13.0,-6.0,
