2025.0,2005.0,2049.0,2009.0,0.0,19.0,
2038.0,1999.0,2051.0,2026.0,0.0,0.0,
2024.0,2011.0,2054.0,2042.0,0.0,0.0,
2041.0,2020.0,2054.0,2069.0,0.0,0.0,
2023.0,2038.0,2052.0,2087.0,0.0,0.0,
2026.0,1963.0,2054.0,2062.0,0.0,0.0,
2039.0,1995.0,2056.0,2093.0,0,0,
2033.0,1999.0,2053.0,2062.0,0.0,0.0,
2031.0,1994.0,2056.0,2051.0,0.0,0.0,
2032.0,1993.0,2051.0,2038.0,0.0,0.0,
2028.0,2016.0,2050.0,2030.0,0.0,0.0,
2022.0,2013.0,2051.0,2023.0,0.0,0.0,
2032.0,1994.0,2052.0,2021.0,0.0,0.0,
2043.0,2002.0,2054.0,2037.0,0.0,0.0,
2034.0,2024.0,2061.0,2031.0,0.0,0.0,
2053.0,1996.0,2060.0,2035.0,0.0,0.0,
2042.0,1976.0,2052.0,2044.0,0.0,0.0,
2029.0,2006.0,2053.0,2049.0,0.0,0.0,
2027.0,2015.0,2047.0,2034.0,0.0,0.0,
2043.0,2025.0,2054.0,2048.0,0.0,0.0,
2061.0,1998.0,2050.0,2023.0,0.0,0.0,
2046.0,2014.0,2053.0,2038.0,0.0,0.0,
2070.0,2008.0,2056.0,2084.0,0.0,0.0,
2005.0,1989.0,2047.0,2051.0,0.0,0.0,
2006.0,1989.0,2044.0,2018.0,0.0,0.0,
2021.0,2020.0,2046.0,1994.0,0.0,0.0,
2054.0,2002.0,2054.0,2003.0,0.0,0.0,
2036.0,1976.0,2056.0,2062.0,0.0,0.0,
2053.0,1992.0,2061.0,2052.0,0.0,0.0,
2033.0,2012.0,2051.0,2046.0,0.0,0.0,
2023.0,2009.0,2054.0,2062.0,0.0,0.0,
2046.0,2016.0,2055.0,2040.0,0.0,0.0,
2046.0,2026.0,2056.0,2029.0,0.0,0.0,
2035.0,2033.0,2051.0,2006.0,0.0,0.0,
2016.0,2027.0,2053.0,2011.0,0.0,0.0,
2020.0,2008.0,2053.0,2057.0,0.0,0.0,
2027.0,1995.0,2055.0,2067.0,0.0,0.0,
2041.0,1976.0,2055.0,2061.0,0.0,0.0,
2029.0,1997.0,2052.0,2031.0,0.0,0.0,
2039.0,1982.0,2055.0,2057.0,0.0,0.0,
2022.0,1995.0,2052.0,2047.0,0.0,0.0,
2042.0,1995.0,2050.0,2007.0,0.0,0.0,
2037.0,1998.0,2049.0,2013.0,0.0,0.0,
2040.0,1983.0,2055.0,2090.0,0.0,0.0,
2066.0,1986.0,2057.0,2098.0,0.0,0.0,
2058.0,2018.0,2055.0,2053.0,0.0,0.0,
2039.0,2027.0,2050.0,2012.0,0.0,0.0,
2033.0,2031.0,2050.0,1988.0,0.0,0.0,
2021.0,2022.0,2052.0,2025.0,0.0,0.0,
2008.0,1998.0,2044.0,2049.0,0.0,0.0,
2014.0,2017.0,2047.0,2072.0,0.0,0.0,
2043.0,2009.0,2054.0,2054.0,0.0,0.0,
2054.0,2026.0,2055.0,2051.0,0.0,0.0,
2029.0,2027.0,2040.0,2071.0,0.0,0.0,
2015.0,2031.0,2044.0,2035.0,0.0,0.0,
2019.0,2030.0,2049.0,1998.0,0.0,0.0,
2012.0,2022.0,2052.0,1984.0,0.0,0.0,
2016.0,1977.0,2049.0,2018.0,0.0,0.0,
2063.0,1979.0,2056.0,2042.0,0.0,0.0,
2061.0,1982.0,2058.0,2041.0,0,0,
2031.0,1981.0,2055.0,2073.0,0.0,0.0,
2052.0,1981.0,2055.0,2064.0,0.0,0.0,
2038.0,1986.0,2053.0,2056.0,0.0,0.0,
2051.0,2008.0,2054.0,2039.0,0.0,0.0,
2033.0,2012.0,2052.0,2026.0,0.0,0.0,
2038.0,2008.0,2051.0,2030.0,0.0,0.0,
2032.0,2015.0,2054.0,2043.0,0.0,0.0,
2044.0,2013.0,2056.0,2046.0,0.0,0.0,
2048.0,2039.0,2052.0,2051.0,0.0,0.0,
2043.0,2006.0,2053.0,2034.0,0.0,0.0,
2012.0,1997.0,2046.0,2024.0,0.0,0.0,
2024.0,1998.0,2046.0,2040.0,0.0,0.0,
2044.0,2003.0,2054.0,2046.0,0.0,0.0,
2036.0,2035.0,2052.0,2041.0,0.0,0.0,
2054.0,1982.0,2056.0,2032.0,0.0,0.0,
2045.0,1996.0,2056.0,2042.0,0.0,0.0,
2054.0,2018.0,2053.0,2054.0,0.0,0.0,
2020.0,1995.0,2052.0,2043.0,0.0,0.0,
2024.0,2019.0,2048.0,2047.0,0.0,0.0,
2018.0,2025.0,2052.0,2044.0,0.0,0.0,
2022.0,2013.0,2054.0,2021.0,0.0,0.0,
2027.0,2011.0,2050.0,2033.0,0.0,0.0,
2052.0,2001.0,2055.0,2042.0,0.0,0.0,
2036.0,1990.0,2054.0,2041.0,0.0,0.0,
2038.0,2002.0,2055.0,2050.0,0.0,0.0,
2023.0,2008.0,2051.0,2030.0,0.0,0.0,
2033.0,2013.0,2048.0,2010.0,0.0,0.0,
2021.0,1999.0,2051.0,2027.0,0.0,0.0,
2044.0,1993.0,2049.0,2056.0,0.0,0.0,
2044.0,2000.0,2050.0,2043.0,0.0,0.0,
2041.0,1987.0,2053.0,2060.0,0.0,0.0,
2036.0,1989.0,2053.0,2061.0,0,0,
2039.0,2008.0,2055.0,2042.0,0.0,0.0,
2041.0,2028.0,2057.0,2073.0,0.0,1.0,
2032.0,2024.0,2052.0,2060.0,0.0,1.0,
2019.0,2020.0,2049.0,2045.0,0.0,1.0,
2020.0,1997.0,2047.0,2018.0,0.0,1.0,
2043.0,2001.0,2058.0,1985.0,0.0,0.0,
2048.0,2021.0,2058.0,2006.0,0.0,0.0,
2038.0,2007.0,2057.0,2049.0,0.0,0.0,
2035.0,1992.0,2050.0,2048.0,0.0,0.0,
2053.0,1974.0,2051.0,2056.0,0.0,0.0,
2023.0,2004.0,2046.0,2012.0,0.0,0.0,
2033.0,2026.0,2050.0,2030.0,0.0,0.0,
2022.0,1995.0,2050.0,2064.0,0.0,0.0,
2039.0,2016.0,2054.0,2094.0,0.0,0.0,
2058.0,1985.0,2057.0,2063.0,0.0,0.0,
2040.0,1982.0,2052.0,2012.0,0.0,0.0,
2054.0,2016.0,2057.0,1973.0,0.0,0.0,
2048.0,2025.0,2058.0,2013.0,0.0,0.0,
2020.0,2046.0,2051.0,1984.0,0.0,0.0,
2022.0,2030.0,2058.0,2023.0,0.0,0.0,
2027.0,1986.0,2053.0,2066.0,0.0,0.0,
2039.0,1998.0,2056.0,2083.0,0.0,0.0,
2030.0,1989.0,2052.0,2111.0,0.0,0.0,
2041.0,2005.0,2055.0,2073.0,0.0,0.0,
2033.0,2001.0,2055.0,2036.0,0.0,0.0,
2030.0,2006.0,2050.0,2036.0,0.0,0.0,
2032.0,1997.0,2053.0,2043.0,0.0,0.0,
2017.0,1986.0,2050.0,2035.0,0.0,0.0,
2031.0,2011.0,2052.0,2040.0,0.0,0.0,
2035.0,2008.0,2055.0,2039.0,0.0,0.0,
2032.0,2021.0,2051.0,2039.0,0.0,0.0,
2045.0,2015.0,2049.0,2023.0,0.0,0.0,
2031.0,2025.0,2050.0,2030.0,0.0,0.0,
2029.0,2034.0,2048.0,2018.0,0.0,0.0,
2032.0,1990.0,2048.0,2020.0,0.0,0.0,
2065.0,1998.0,2051.0,2039.0,0.0,0.0,
2056.0,2001.0,2055.0,2057.0,0.0,0.0,
2034.0,1987.0,2051.0,2038.0,0.0,0.0,
2048.0,2032.0,2052.0,2053.0,0.0,0.0,
2038.0,2010.0,2053.0,2045.0,0.0,0.0,
2028.0,1997.0,2049.0,2035.0,0.0,0.0,
2030.0,1984.0,2052.0,2030.0,0.0,0.0,
2014.0,1989.0,2049.0,2037.0,0.0,0.0,
2043.0,1985.0,2055.0,2039.0,0.0,0.0,
2061.0,2021.0,2058.0,2053.0,0.0,0.0,
2040.0,2020.0,2053.0,2069.0,0.0,0.0,
2046.0,2032.0,2055.0,2044.0,0.0,0.0,
2026.0,2031.0,2051.0,2022.0,0.0,0.0,
1979.0,2024.0,2045.0,1986.0,0.0,0.0,
2002.0,1986.0,2050.0,2006.0,0.0,0.0,
2038.0,1963.0,2054.0,2032.0,0.0,0.0,
2014.0,1977.0,2050.0,2084.0,0.0,0.0,
2050.0,1968.0,2059.0,2076.0,0.0,0.0,
2077.0,1997.0,2061.0,2073.0,0.0,0.0,
2058.0,1980.0,2053.0,2063.0,0.0,0.0,
2059.0,2017.0,2053.0,2067.0,0.0,0.0,
2038.0,2029.0,2056.0,2042.0,0.0,0.0,
2026.0,2016.0,2049.0,2030.0,0.0,0.0,
2012.0,2004.0,2047.0,2024.0,0.0,0.0,
2022.0,2038.0,2055.0,2033.0,0.0,0.0,
2043.0,2012.0,2055.0,2014.0,0.0,0.0,
2028.0,2007.0,2048.0,2047.0,0.0,0.0,
2035.0,2008.0,2051.0,2061.0,0.0,0.0,
2023.0,2002.0,2051.0,2020.0,0.0,0.0,
2032.0,2028.0,2050.0,2026.0,0.0,0.0,
2015.0,2001.0,2046.0,2023.0,0.0,0.0,
2018.0,2009.0,2046.0,2062.0,0.0,0.0,
2036.0,2006.0,2056.0,2050.0,0.0,0.0,
2050.0,2019.0,2052.0,2026.0,0.0,0.0,
2034.0,2028.0,2050.0,1963.0,0.0,0.0,
2024.0,2037.0,2051.0,2010.0,0.0,0.0,
2042.0,2018.0,2051.0,2022.0,0.0,0.0,
2011.0,2000.0,2050.0,2055.0,0.0,0.0,
2021.0,1954.0,2048.0,2059.0,0.0,0.0,
2037.0,1998.0,2052.0,2038.0,0.0,0.0,
2033.0,2004.0,2054.0,2064.0,0.0,0.0,
2054.0,1995.0,2057.0,2064.0,0.0,0.0,
2073.0,2004.0,2062.0,2052.0,0.0,0.0,
2065.0,1953.0,2057.0,2042.0,0.0,0.0,
2046.0,1937.0,2052.0,2055.0,0.0,0.0,
2016.0,2009.0,2048.0,2079.0,0.0,0.0,
2024.0,2020.0,2050.0,2046.0,0.0,0.0,
2030.0,2022.0,2051.0,2042.0,0.0,0.0,
2044.0,2024.0,2049.0,2033.0,0.0,0.0,
2048.0,2014.0,2054.0,2035.0,0.0,0.0,
2037.0,2002.0,2051.0,2039.0,0.0,0.0,
2029.0,2032.0,2050.0,2051.0,0.0,0.0,
2031.0,2039.0,2050.0,2039.0,0.0,0.0,
2020.0,2023.0,2049.0,2031.0,0.0,0.0,
2036.0,2018.0,2052.0,2036.0,0.0,0.0,
2045.0,2017.0,2057.0,2041.0,0.0,0.0,
2048.0,2011.0,2056.0,2029.0,0.0,0.0,
2033.0,2011.0,2053.0,2005.0,0.0,0.0,
2045.0,2023.0,2055.0,2021.0,0.0,0.0,
2030.0,2062.0,2053.0,2032.0,0.0,0.0,
2024.0,1957.0,2053.0,2039.0,0.0,0.0,
1991.0,2005.0,2050.0,2059.0,0.0,0.0,
2022.0,1995.0,2052.0,2035.0,0.0,0.0,
2054.0,2002.0,2054.0,2045.0,0.0,0.0,
2030.0,1967.0,2052.0,2020.0,0.0,0.0,
2061.0,1999.0,2059.0,2050.0,0.0,0.0,
2048.0,1997.0,2054.0,2054.0,0.0,0.0,
2030.0,2002.0,2050.0,2033.0,0.0,0.0,
2035.0,1983.0,2061.0,2056.0,0.0,0.0,
2040.0,2002.0,2056.0,2046.0,0.0,0.0,
2043.0,2014.0,2053.0,2039.0,0.0,0.0,
2041.0,2021.0,2053.0,2053.0,0.0,1.0,
2038.0,2004.0,2052.0,2045.0,0.0,1.0,
2020.0,2018.0,2051.0,2031.0,0.0,1.0,
2027.0,2026.0,2054.0,2026.0,0.0,1.0,
2027.0,2027.0,2054.0,2043.0,0.0,1.0,
2021.0,2014.0,2049.0,2047.0,0.0,1.0,
2022.0,2011.0,2051.0,2043.0,0.0,1.0,
2040.0,1993.0,2050.0,2037.0,0.0,1.0,
2046.0,2017.0,2056.0,2054.0,0.0,1.0,
2028.0,2008.0,2050.0,2048.0,0.0,1.0,
2039.0,2033.0,2059.0,2051.0,0.0,1.0,
2015.0,2024.0,2050.0,2031.0,0.0,1.0,
2042.0,2019.0,2052.0,1993.0,0.0,0.0,
2008.0,1970.0,2045.0,2007.0,0.0,0.0,
2008.0,1971.0,2047.0,2015.0,0.0,0.0,
2027.0,1959.0,2052.0,2026.0,0.0,0.0,
2058.0,1991.0,2056.0,1989.0,0.0,0.0,
2072.0,1991.0,2055.0,2006.0,0.0,0.0,
2064.0,2009.0,2056.0,2050.0,0.0,0.0,
2033.0,2007.0,2052.0,2071.0,0.0,0.0,
2042.0,1964.0,2053.0,2142.0,0.0,0.0,
2034.0,1996.0,2052.0,2123.0,0.0,0.0,
2008.0,2022.0,2050.0,2055.0,0.0,0,
2018.0,2040.0,2053.0,2039.0,0.0,0.0,
2048.0,2016.0,2057.0,2037.0,0.0,0.0,
2065.0,2020.0,2058.0,2046.0,0.0,0.0,
2022.0,1997.0,2050.0,2044.0,0.0,0.0,
2019.0,2009.0,2050.0,2037.0,0.0,0.0,
2028.0,2027.0,2051.0,2028.0,0.0,0.0,
2018.0,2023.0,2051.0,2045.0,0.0,0.0,
2029.0,2008.0,2052.0,2047.0,0.0,0.0,
2053.0,2042.0,2057.0,2032.0,0.0,0.0,
2041.0,2013.0,2053.0,2029.0,0.0,0.0,
2023.0,2002.0,2051.0,2026.0,0.0,0.0,
2042.0,2014.0,2053.0,2036.0,0.0,0.0,
2051.0,2004.0,2054.0,2035.0,0.0,0.0,
2030.0,1982.0,2050.0,2035.0,0.0,0.0,
2046.0,1988.0,2054.0,2042.0,0.0,0.0,
2050.0,1995.0,2054.0,2049.0,0.0,0.0,
2042.0,2006.0,2053.0,2045.0,0.0,0.0,
2043.0,2016.0,2053.0,2030.0,0.0,0.0,
2039.0,2027.0,2053.0,2034.0,0.0,1.0,
2021.0,2015.0,2053.0,2025.0,0.0,1.0,
2034.0,1991.0,2057.0,2032.0,0.0,1.0,
2018.0,2006.0,2051.0,2068.0,0.0,1.0,
2020.0,1990.0,2049.0,2051.0,0.0,1.0,
2031.0,2010.0,2054.0,2034.0,0.0,1.0,
2031.0,2013.0,2054.0,2018.0,0.0,1.0,
2037.0,1996.0,2056.0,1993.0,0.0,1.0,
2054.0,1994.0,2062.0,2016.0,0.0,1.0,
2060.0,2009.0,2059.0,2041.0,0.0,1.0,
2019.0,1990.0,2050.0,2044.0,0.0,1.0,
2050.0,2028.0,2052.0,2042.0,0.0,1.0,
2021.0,1983.0,2051.0,2021.0,0.0,1.0,
2046.0,1990.0,2052.0,2052.0,0.0,1.0,
2047.0,1990.0,2049.0,2074.0,0.0,0.0,
2028.0,2008.0,2054.0,2072.0,0.0,0.0,
2039.0,2010.0,2054.0,2041.0,0.0,0.0,
2012.0,2015.0,2051.0,2014.0,0.0,0.0,
2005.0,2024.0,2051.0,2030.0,0.0,0.0,
2018.0,1994.0,2051.0,2050.0,0.0,0.0,
2037.0,1987.0,2053.0,2053.0,0.0,0.0,
2069.0,2015.0,2058.0,2055.0,0.0,0.0,
2046.0,2014.0,2057.0,2043.0,0.0,0.0,
2029.0,2004.0,2056.0,2056.0,0.0,0.0,
2017.0,2032.0,2030.0,2039.0,0.0,0.0,
2027.0,2031.0,2049.0,2027.0,0.0,0.0,
2014.0,1994.0,2047.0,2037.0,0.0,0.0,
2053.0,1999.0,2058.0,2046.0,0.0,0.0,
2049.0,2019.0,2055.0,2022.0,0.0,0.0,
2043.0,1988.0,2050.0,2037.0,0.0,0.0,
2029.0,2006.0,2052.0,2068.0,0.0,0.0,
2049.0,2019.0,2053.0,2051.0,0.0,0.0,
2054.0,1994.0,2051.0,2037.0,1.0,0.0,
2049.0,1981.0,2054.0,2037.0,1.0,0.0,
2028.0,2023.0,2054.0,2047.0,1.0,0.0,
2036.0,1951.0,2050.0,2016.0,1.0,0.0,
2043.0,2026.0,2051.0,2028.0,0.0,0.0,
2046.0,2008.0,2054.0,2065.0,0.0,0.0,
2011.0,2003.0,2048.0,2051.0,1.0,0.0,
2014.0,2002.0,2048.0,2064.0,1.0,0.0,
2021.0,2036.0,2056.0,2037.0,1.0,0.0,
2038.0,2015.0,2052.0,2009.0,0.0,0.0,
2022.0,1991.0,2049.0,2054.0,0.0,0.0,
2025.0,1997.0,2050.0,2034.0,0.0,0.0,
2051.0,2015.0,2056.0,2039.0,0.0,0.0,
2039.0,2013.0,2055.0,2038.0,0.0,0.0,
2043.0,1997.0,2054.0,2037.0,0.0,0.0,
2045.0,2016.0,2058.0,2037.0,0.0,0.0,
2024.0,2001.0,2054.0,2032.0,0.0,0.0,
2021.0,2023.0,2049.0,2034.0,0.0,0.0,
2031.0,1997.0,2052.0,2040.0,0.0,0.0,
2027.0,2010.0,2051.0,2026.0,0.0,0.0,
2037.0,1998.0,2051.0,2050.0,0.0,0.0,
2039.0,1994.0,2055.0,2036.0,0.0,0.0,
2059.0,1996.0,2056.0,2035.0,0.0,0.0,
2067.0,1986.0,2057.0,2047.0,0.0,0.0,
2043.0,2010.0,2052.0,2031.0,0.0,0.0,
2047.0,2016.0,2053.0,2024.0,0.0,0.0,
2017.0,2012.0,2048.0,2042.0,0.0,0.0,
2019.0,2027.0,2052.0,2036.0,0.0,0.0,
2031.0,2017.0,2052.0,2017.0,0.0,0.0,
2045.0,1999.0,2054.0,2033.0,0.0,0.0,
2060.0,2000.0,2052.0,2051.0,0.0,0.0,
2050.0,1959.0,2055.0,2069.0,0.0,0.0,
2026.0,1969.0,2050.0,2058.0,0.0,0.0,
2016.0,2014.0,2050.0,2054.0,0.0,0.0,
2026.0,2035.0,2055.0,2040.0,0.0,0.0,
2027.0,2015.0,2053.0,2025.0,0.0,0.0,
2029.0,2006.0,2053.0,2015.0,0.0,0.0,
2028.0,2000.0,2053.0,2026.0,0.0,0.0,
2028.0,2020.0,2055.0,2059.0,0.0,0.0,
2049.0,2057.0,2063.0,2035.0,0.0,0.0,
2049.0,2010.0,2054.0,2038.0,0.0,0.0,
2014.0,1996.0,2048.0,2020.0,0.0,0.0,
2020.0,2015.0,2046.0,1993.0,0.0,0.0,
2041.0,1971.0,2054.0,2008.0,0.0,0.0,
2036.0,1957.0,2056.0,2050.0,0.0,0.0,
2035.0,1969.0,2051.0,2075.0,0.0,0.0,
2044.0,1980.0,2057.0,2092.0,0.0,0.0,
2030.0,2006.0,2058.0,2086.0,0.0,0.0,
2028.0,2035.0,2054.0,2056.0,0.0,0.0,
2039.0,2010.0,2054.0,2036.0,0.0,0.0,
2048.0,2040.0,2055.0,2026.0,0.0,0.0,
2031.0,2019.0,2053.0,2037.0,0.0,0.0,
2042.0,2028.0,2056.0,2053.0,0.0,0.0,
2031.0,2004.0,2052.0,2043.0,0.0,0.0,
2043.0,1981.0,2050.0,2026.0,0.0,0.0,
2038.0,1996.0,2053.0,2032.0,0.0,0.0,
2038.0,2020.0,2053.0,2031.0,0.0,0.0,
2027.0,2007.0,2049.0,2024.0,0.0,0.0,
2028.0,2027.0,2051.0,2029.0,0.0,0.0,
2029.0,2020.0,2049.0,2018.0,0.0,0.0,
2005.0,2012.0,2054.0,2015.0,0.0,0.0,
2035.0,2021.0,2057.0,2038.0,0.0,0.0,
2051.0,1957.0,2055.0,2032.0,0.0,0.0,
2042.0,1975.0,2054.0,2037.0,0.0,0.0,
2028.0,2024.0,2053.0,2040.0,0.0,0.0,
2041.0,2023.0,2055.0,2055.0,0.0,0.0,
2017.0,1977.0,2053.0,2033.0,0.0,0.0,
2040.0,1966.0,2053.0,2072.0,0.0,0.0,
2041.0,1991.0,2055.0,2054.0,0.0,0.0,
2032.0,1996.0,2062.0,2043.0,0.0,0.0,
2033.0,2025.0,2051.0,2043.0,0.0,0.0,
2039.0,2005.0,2054.0,2064.0,0.0,0.0,
2035.0,1966.0,2052.0,2052.0,0.0,0.0,
2027.0,1976.0,2055.0,2045.0,0.0,0.0,
2041.0,2026.0,2057.0,2032.0,0.0,0.0,
2022.0,2076.0,2055.0,2050.0,0.0,0.0,
2022.0,2049.0,2052.0,2047.0,0.0,0.0,
2006.0,2002.0,2049.0,2029.0,0.0,0.0,
2034.0,2004.0,2052.0,2014.0,0.0,0.0,
2050.0,1984.0,2053.0,2009.0,0.0,0.0,
2029.0,1969.0,2052.0,2056.0,0.0,0.0,
2047.0,1985.0,2052.0,2054.0,0.0,0.0,
2057.0,1993.0,2055.0,2033.0,0.0,0.0,
2058.0,2004.0,2056.0,2014.0,0.0,0.0,
2024.0,2023.0,2053.0,1997.0,0.0,0.0,
2028.0,2045.0,2057.0,2002.0,0.0,0.0,
2026.0,2030.0,2048.0,2020.0,0.0,0.0,
2010.0,2006.0,2048.0,2034.0,0.0,0.0,
2017.0,2009.0,2051.0,2058.0,0.0,0.0,
2039.0,1987.0,2048.0,2072.0,0.0,0.0,
2062.0,2029.0,2055.0,2048.0,0.0,0.0,
2034.0,2018.0,2047.0,2036.0,0.0,0.0,
2007.0,1961.0,2046.0,2059.0,0.0,0.0,
2029.0,1986.0,2052.0,2081.0,0.0,0.0,
2036.0,1989.0,2053.0,2067.0,0.0,0.0,
2037.0,1997.0,2054.0,2041.0,0.0,0.0,
2034.0,1995.0,2048.0,2010.0,0.0,0.0,
2035.0,1997.0,2050.0,2006.0,0.0,0.0,
2025.0,2039.0,2056.0,2033.0,0.0,0.0,
2023.0,2030.0,2055.0,2069.0,0.0,0.0,
2022.0,2016.0,2051.0,2071.0,0.0,0.0,
2016.0,2007.0,2052.0,2055.0,0.0,0.0,
1996.0,2005.0,2046.0,2046.0,0.0,0.0,
1992.0,2013.0,2050.0,2035.0,0.0,0.0,
2023.0,2014.0,2053.0,2031.0,0.0,0.0,
2035.0,2021.0,2059.0,2054.0,0.0,0.0,
2071.0,2008.0,2058.0,2049.0,0.0,0.0,
2059.0,2013.0,2057.0,2040.0,0.0,0.0,
2034.0,1988.0,2055.0,2014.0,0.0,0.0,
2036.0,1984.0,2056.0,2011.0,0.0,0.0,
2001.0,1989.0,2049.0,2012.0,0.0,0.0,
2021.0,2009.0,2052.0,2076.0,0.0,0.0,
2058.0,2040.0,2058.0,2064.0,0.0,0.0,
2047.0,2007.0,2053.0,2072.0,0.0,0.0,
2009.0,2010.0,2046.0,2020.0,0.0,0.0,
2022.0,2033.0,2053.0,1997.0,0.0,0.0,
2033.0,2023.0,2056.0,2011.0,0.0,0.0,
2024.0,2024.0,2052.0,2053.0,0.0,0.0,
2038.0,2035.0,2056.0,1982.0,0.0,0.0,
2040.0,1955.0,2055.0,1985.0,0.0,0.0,
2049.0,1899.0,2059.0,2042.0,0.0,0.0,
2053.0,1905.0,2059.0,2092.0,0.0,0.0,
2015.0,2003.0,2054.0,2111.0,0.0,1.0,
2034.0,2046.0,2041.0,2081.0,0.0,1.0,
2026.0,2052.0,2056.0,2064.0,0.0,1.0,
2000.0,2016.0,2052.0,2067.0,0.0,1.0,
2007.0,2035.0,2039.0,2065.0,0.0,1.0,
2083.0,1995.0,2059.0,2028.0,0.0,1.0,
2096.0,1995.0,2061.0,1990.0,0.0,1.0,
2076.0,2020.0,2060.0,2000.0,0.0,1.0,
2043.0,1995.0,2052.0,2003.0,0.0,1.0,
2048.0,2011.0,2054.0,2033.0,0.0,2.0,
2046.0,2046.0,2060.0,2011.0,0.0,2.0,
2013.0,2008.0,2051.0,2001.0,0.0,2.0,
2012.0,2144.0,2049.0,2066.0,0.0,2.0,
1979.0,2060.0,2046.0,2098.0,0.0,2.0,
2008.0,2008.0,2053.0,2136.0,0.0,2.0,
1999.0,1937.0,2047.0,2013.0,0.0,2.0,
2108.0,1974.0,2060.0,2011.0,0.0,2.0,
2087.0,1999.0,2057.0,2032.0,0.0,2.0,
2068.0,2063.0,2058.0,2008.0,0.0,2.0,
1992.0,2062.0,2054.0,2003.0,0.0,2.0,
1975.0,2009.0,2047.0,2096.0,0.0,2.0,
1982.0,1897.0,2045.0,2045.0,0.0,2.0,
2079.0,1847.0,2067.0,2070.0,0.0,2.0,
2081.0,1953.0,2057.0,2061.0,0.0,2.0,
2072.0,1962.0,2062.0,2032.0,0.0,2.0,
2012.0,2026.0,2050.0,2079.0,0.0,2.0,
1997.0,2085.0,2051.0,2052.0,0.0,2.0,
2015.0,2091.0,2054.0,2004.0,0.0,2.0,
1978.0,2044.0,2045.0,1999.0,0.0,2.0,
1992.0,2000.0,2042.0,1956.0,0.0,2.0,
2097.0,1989.0,2056.0,1968.0,0.0,2.0,
2088.0,2034.0,2064.0,2073.0,0.0,2.0,
2095.0,1981.0,2061.0,2131.0,0.0,3.0,
1942.0,1987.0,2039.0,2059.0,0.0,3.0,
2024.0,1955.0,2051.0,2048.0,0.0,3.0,
2091.0,2040.0,2062.0,2068.0,0.0,3.0,
2072.0,2099.0,2059.0,2075.0,0.0,3.0,
2021.0,2063.0,2049.0,1974.0,0,0,
2027.0,1908.0,2048.0,2003.0,0.0,3.0,
2028.0,1958.0,2052.0,2052.0,0.0,3.0,
2002.0,2093.0,2051.0,2100.0,0.0,3.0,
2060.0,2011.0,2066.0,2145.0,0.0,3.0,
2017.0,1947.0,2052.0,2047.0,0.0,3.0,
1983.0,1972.0,2046.0,1972.0,0.0,3.0,
1991.0,1971.0,2042.0,2008.0,0.0,3.0,
2051.0,2033.0,2058.0,2056.0,0.0,3.0,
2085.0,2097.0,2056.0,2046.0,0.0,3.0,
2053.0,2112.0,2062.0,2100.0,0.0,3.0,
2073.0,1915.0,2059.0,1923.0,0.0,3.0,
2011.0,1961.0,2047.0,2049.0,0.0,3.0,
2043.0,2116.0,2057.0,2057.0,0.0,2.0,
2076.0,1803.0,2067.0,2003.0,0.0,2.0,
1956.0,1995.0,2040.0,2058.0,0.0,2.0,
2060.0,2069.0,2060.0,2035.0,0.0,2.0,
2056.0,2053.0,2054.0,2043.0,0.0,2.0,
2025.0,2027.0,2044.0,2076.0,0.0,1.0,
1998.0,2106.0,2043.0,2078.0,0.0,1.0,
1917.0,2124.0,2040.0,2071.0,0.0,1.0,
2022.0,1770.0,2056.0,2047.0,1.0,1.0,
2060.0,1869.0,2042.0,2050.0,1.0,0.0,
2126.0,2103.0,2076.0,2012.0,1.0,0.0,
2139.0,2140.0,2071.0,2014.0,1.0,-1.0,
1994.0,1905.0,2044.0,1944.0,1.0,-1.0,
1953.0,1932.0,2035.0,2023.0,1.0,-1.0,
2016.0,1974.0,2041.0,2041.0,1.0,-1.0,
2063.0,2013.0,2055.0,2053.0,1.0,-2.0,
2099.0,2022.0,2066.0,2070.0,1.0,-2.0,
2091.0,1987.0,2069.0,2011.0,1.0,-2.0,
2007.0,2028.0,2048.0,2010.0,1.0,-2.0,
2042.0,2145.0,2052.0,2004.0,1.0,-2.0,
2064.0,2023.0,2060.0,1993.0,1.0,-2.0,
2019.0,1953.0,2052.0,2028.0,1.0,-2.0,
2049.0,2042.0,2056.0,2106.0,1.0,-3.0,
1976.0,2015.0,2048.0,2086.0,1.0,-3.0,
1974.0,1953.0,2045.0,2063.0,1.0,-4.0,
2022.0,1975.0,2056.0,2077.0,1.0,-4.0,
2007.0,1978.0,2047.0,2054.0,1.0,-4.0,
2056.0,2022.0,2054.0,2087.0,1.0,-5.0,
2065.0,1995.0,2057.0,2033.0,1.0,-5.0,
2015.0,2062.0,2053.0,2028.0,1.0,-7.0,
2013.0,2021.0,2052.0,2007.0,1.0,-7.0,
2049.0,2109.0,2065.0,2063.0,1.0,-8.0,
1990.0,2032.0,2048.0,2029.0,0,0,
1956.0,1990.0,2036.0,2068.0,1.0,-9.0,
2118.0,1917.0,2068.0,2009.0,1.0,-10.0,
2052.0,1960.0,2056.0,2014.0,2.0,-11.0,
2063.0,2066.0,2061.0,2017.0,2.0,-12.0,
2022.0,1930.0,2053.0,2019.0,2.0,-13.0,
1995.0,2050.0,2046.0,2037.0,2.0,-14.0,
2070.0,1994.0,2061.0,2080.0,2.0,-15.0,
1991.0,2021.0,2041.0,2065.0,2.0,-16.0,
2139.0,2080.0,2071.0,2088.0,2.0,-17.0,
2052.0,2059.0,2052.0,2011.0,2.0,-19.0,
2071.0,2163.0,2059.0,1990.0,2.0,-19.0,
1999.0,1911.0,2043.0,1975.0,2.0,-20.0,
1899.0,1935.0,2027.0,1995.0,2.0,-21.0,
1996.0,1946.0,2040.0,2054.0,0,-22.0,
2041.0,1993.0,2044.0,2085.0,0,0,
1996.0,1965.0,2045.0,2023.0,2.0,-22.0,
2134.0,2115.0,2067.0,2043.0,2.0,-23.0,
2138.0,1962.0,2072.0,2051.0,2.0,-25.0,
2020.0,1888.0,2051.0,2053.0,2.0,-25.0,
2076.0,2078.0,2058.0,2191.0,2.0,-26.0,
1980.0,2012.0,2037.0,2154.0,2.0,-26.0,
1952.0,1949.0,2046.0,2044.0,2.0,-26.0,
2009.0,1971.0,2045.0,1934.0,2.0,-26.0,
2068.0,1900.0,2060.0,1971.0,2.0,-26.0,
2043.0,2056.0,2046.0,2073.0,2.0,-27.0,
2056.0,1947.0,2051.0,2055.0,2.0,-27.0,
2139.0,1981.0,2067.0,2028.0,2.0,-27.0,
2057.0,2031.0,2057.0,2045.0,2.0,-28.0,
2024.0,2021.0,2053.0,2014.0,2.0,-28.0,
2035.0,2026.0,2049.0,2002.0,2.0,-28.0,
1978.0,2099.0,2039.0,1953.0,2.0,-28.0,
2012.0,2004.0,2044.0,1938.0,2.0,-29.0,
1996.0,2169.0,2042.0,2038.0,2.0,-29.0,
2050.0,1960.0,2055.0,2036.0,2.0,-29.0,
2046.0,1991.0,2059.0,2108.0,2.0,-30.0,
2019.0,1964.0,2058.0,2089.0,0,0,
2050.0,1943.0,2058.0,2058.0,2.0,-34.0,
1932.0,1935.0,2036.0,2034.0,2.0,-28.0,
2078.0,2024.0,2055.0,2058.0,2.0,-29.0,
2053.0,1999.0,2044.0,2018.0,2.0,-29.0,
1996.0,2023.0,2034.0,2031.0,2.0,-30.0,
2048.0,2043.0,2043.0,2038.0,2.0,-31.0,
2062.0,1999.0,2050.0,2047.0,2.0,-31.0,
2022.0,2021.0,2039.0,2024.0,2.0,-32.0,
2021.0,2082.0,2039.0,2018.0,2.0,-32.0,
2053.0,2134.0,2045.0,2070.0,2.0,-33.0,
1878.0,1883.0,2024.0,1997.0,2.0,-33.0,
2036.0,1919.0,2045.0,2043.0,2.0,-34.0,
2051.0,1957.0,2051.0,2044.0,2.0,-34.0,
2158.0,2134.0,2061.0,2028.0,2.0,-35.0,
2024.0,2075.0,2051.0,1992.0,2.0,-36.0,
2003.0,1936.0,2043.0,2051.0,2.0,-36.0,
2013.0,1985.0,2044.0,2042.0,2.0,-37.0,
2106.0,1993.0,2066.0,2078.0,2.0,-37.0,
2051.0,1987.0,2054.0,2096.0,2.0,-38.0,
2037.0,1925.0,2060.0,2014.0,2.0,-37.0,
1984.0,2150.0,2044.0,2073.0,2.0,-40.0,
1912.0,2103.0,2035.0,2012.0,2.0,-40.0,
2021.0,1952.0,2059.0,2048.0,0,0,
2118.0,1935.0,2072.0,2093.0,2.0,-41.0,
2053.0,2080.0,2062.0,2032.0,2.0,-41.0,
2055.0,2038.0,2065.0,2032.0,2.0,-42.0,
2056.0,1934.0,2054.0,2063.0,2.0,-42.0,
2041.0,2164.0,2066.0,2090.0,2.0,-43.0,
1906.0,1954.0,2041.0,2011.0,2.0,-43.0,
2047.0,1895.0,2062.0,2006.0,2.0,-43.0,
2121.0,1990.0,2068.0,2060.0,2.0,-44.0,
1829.0,2104.0,2018.0,2039.0,2.0,-44.0,
2009.0,2099.0,2049.0,2084.0,2.0,-44.0,
2077.0,1750.0,2073.0,2044.0,2.0,-44.0,
2184.0,1978.0,2083.0,2041.0,2.0,-44.0,
2129.0,2018.0,2078.0,2010.0,2.0,-45.0,
1970.0,2176.0,2043.0,1984.0,2.0,-45.0,
1935.0,2117.0,2042.0,2094.0,2.0,-45.0,
1929.0,1985.0,2042.0,2009.0,2.0,-45.0,
2227.0,1965.0,2085.0,2044.0,2.0,-45.0,
2111.0,2050.0,2069.0,1996.0,2.0,-44.0,
2096.0,2004.0,2075.0,2006.0,2.0,-45.0,
2060.0,1924.0,2059.0,2062.0,2.0,-45.0,
2084.0,1941.0,2061.0,2094.0,2.0,-45.0,
2012.0,2023.0,2053.0,2146.0,2.0,-44.0,
1901.0,2011.0,2027.0,2084.0,2.0,-44.0,
2066.0,2031.0,2071.0,1999.0,2.0,-44.0,
2006.0,2062.0,2047.0,1997.0,2.0,-44.0,
2130.0,2038.0,2067.0,2022.0,2.0,-44.0,
1887.0,2040.0,2037.0,2060.0,2.0,-44.0,
1995.0,2011.0,2049.0,2045.0,2.0,-44.0,
2112.0,1960.0,2071.0,2032.0,2.0,-44.0,
1930.0,2009.0,2043.0,2048.0,2.0,-45.0,
2028.0,1994.0,2062.0,2022.0,2.0,-45.0,
2075.0,1976.0,2065.0,2036.0,2.0,-45.0,
2142.0,2066.0,2068.0,2069.0,2.0,-45.0,
2054.0,2019.0,2062.0,2025.0,2.0,-45.0,
1964.0,1981.0,2051.0,2031.0,2.0,-45.0,
2007.0,2029.0,2053.0,2015.0,2.0,-46.0,
2136.0,2450.0,2050.0,2160.0,2.0,-46.0,
1951.0,1646.0,2054.0,1927.0,2.0,-46.0,
2025.0,1946.0,2058.0,2042.0,2.0,-47.0,
2008.0,2022.0,2058.0,2002.0,2.0,-47.0,
2101.0,2088.0,2064.0,2019.0,2.0,-47.0,
1914.0,1979.0,2035.0,2064.0,1.0,-47.0,
1994.0,1984.0,2054.0,2106.0,2.0,-48.0,
2090.0,1963.0,2064.0,2071.0,2.0,-48.0,
2059.0,2020.0,2054.0,2036.0,2.0,-49.0,
2055.0,2037.0,2061.0,2034.0,2.0,-49.0,
1829.0,1995.0,2023.0,1969.0,2.0,0,
2059.0,1925.0,2061.0,1983.0,2.0,-49.0,
2132.0,1949.0,2067.0,2048.0,2.0,-49.0,
2189.0,1902.0,2074.0,2136.0,2.0,-50.0,
1949.0,1989.0,2046.0,2141.0,2.0,-50.0,
2089.0,2124.0,2060.0,2028.0,2.0,-50.0,
1904.0,2185.0,2033.0,2015.0,2.0,-50.0,
2004.0,1818.0,2056.0,2004.0,2.0,-51.0,
2059.0,1932.0,2061.0,2080.0,2.0,-51.0,
2028.0,1979.0,2056.0,2077.0,2.0,-51.0,
1980.0,2157.0,2044.0,2041.0,2.0,-51.0,
1890.0,2076.0,2034.0,2059.0,2.0,-52.0,
1861.0,1881.0,2030.0,2037.0,2.0,-52.0,
2190.0,1866.0,2084.0,2025.0,2.0,-52.0,
2196.0,1994.0,2084.0,2022.0,2.0,-52.0,
2072.0,1986.0,2066.0,2015.0,2.0,-52.0,
2093.0,2052.0,2063.0,2051.0,2.0,-53.0,
1983.0,2096.0,2047.0,2041.0,2.0,-53.0,
2009.0,2068.0,2042.0,2019.0,2.0,-53.0,
2047.0,2028.0,2067.0,1993.0,2.0,0,
2089.0,2057.0,2071.0,2096.0,2.0,-53.0,
1933.0,1967.0,2038.0,2071.0,2.0,-53.0,
2034.0,1850.0,2053.0,2041.0,2.0,-53.0,
2038.0,1910.0,2064.0,2083.0,2.0,-53.0,
2045.0,2064.0,2056.0,1988.0,1.0,-54.0,
1871.0,2172.0,2030.0,2049.0,1.0,-54.0,
2074.0,1876.0,2057.0,2011.0,2.0,-54.0,
1970.0,2114.0,2053.0,2017.0,2.0,-54.0,
2107.0,2029.0,2072.0,2069.0,2.0,-54.0,
2112.0,1997.0,2058.0,2053.0,2.0,-54.0,
2062.0,1903.0,2063.0,2043.0,2.0,-53.0,
2079.0,2026.0,2063.0,2036.0,2.0,-53.0,
1821.0,2108.0,2013.0,2113.0,2.0,-53.0,
2055.0,2004.0,2061.0,2059.0,2.0,-53.0,
2093.0,2074.0,2062.0,2069.0,2.0,-53.0,
2059.0,1864.0,2058.0,2002.0,2.0,-53.0,
2105.0,2018.0,2069.0,2018.0,2.0,-53.0,
2116.0,1986.0,2068.0,2012.0,2.0,-53.0,
2053.0,2094.0,2051.0,2047.0,2.0,-54.0,
1910.0,2064.0,2036.0,2049.0,2.0,-54.0,
2010.0,2067.0,2049.0,2037.0,2.0,-54.0,
2045.0,2147.0,2053.0,2109.0,2.0,-54.0,
2020.0,1856.0,2068.0,1987.0,2.0,-54.0,
2135.0,1930.0,2070.0,2000.0,2.0,-54.0,
2079.0,1983.0,2062.0,1992.0,2.0,-55.0,
2037.0,2048.0,2065.0,2010.0,2.0,-55.0,
1974.0,2121.0,2043.0,2021.0,2.0,-55.0,
1792.0,2094.0,2016.0,2108.0,2.0,-55.0,
2088.0,2121.0,2061.0,2123.0,2.0,-55.0,
2180.0,1778.0,2080.0,2067.0,2.0,-56.0,
2067.0,1906.0,2063.0,2091.0,2.0,-56.0,
2041.0,2018.0,2048.0,2083.0,2.0,-56.0,
1967.0,2032.0,2041.0,2040.0,2.0,-56.0,
2031.0,1990.0,2050.0,2046.0,2.0,-57.0,
1906.0,2174.0,2031.0,2051.0,2.0,-57.0,
2086.0,1888.0,2071.0,2018.0,2.0,-57.0,
2134.0,1836.0,2072.0,1965.0,2.0,-57.0,
2103.0,2037.0,2061.0,2041.0,2.0,-58.0,
2088.0,2024.0,2056.0,2038.0,1.0,-58.0,
2044.0,2041.0,2053.0,2059.0,2.0,-58.0,
1956.0,1993.0,2038.0,2091.0,2.0,-58.0,
1840.0,2078.0,2016.0,2090.0,2.0,-58.0,
2035.0,1986.0,2060.0,2009.0,2.0,-58.0,
2105.0,1904.0,2066.0,2029.0,2.0,-58.0,
2123.0,1888.0,2071.0,2012.0,2.0,-59.0,
2197.0,2030.0,2069.0,2050.0,2.0,-59.0,
2050.0,1964.0,2061.0,2014.0,2.0,-59.0,
1905.0,2030.0,2038.0,1990.0,2.0,-59.0,
2009.0,2093.0,2049.0,2049.0,2.0,-59.0,
1899.0,2210.0,2028.0,2021.0,2.0,-59.0,
2013.0,2038.0,2043.0,2039.0,2.0,-59.0,
2036.0,1792.0,2071.0,2039.0,2.0,-59.0,
2129.0,1892.0,2062.0,2086.0,2.0,-59.0,
2116.0,1966.0,2073.0,2040.0,2.0,-59.0,
2070.0,2027.0,2059.0,2031.0,2.0,-59.0,
2065.0,2070.0,2059.0,2045.0,2.0,-59.0,
1938.0,2048.0,2042.0,2017.0,2.0,-59.0,
2027.0,2089.0,2051.0,2046.0,2.0,-59.0,
1979.0,1968.0,2044.0,2031.0,2.0,-59.0,
2171.0,1947.0,2076.0,2109.0,2.0,-59.0,
1987.0,2047.0,2051.0,2084.0,2.0,-59.0,
2052.0,1939.0,2061.0,1945.0,2.0,-59.0,
2098.0,2004.0,2065.0,2014.0,2.0,-59.0,
2027.0,1991.0,2052.0,2072.0,2.0,-59.0,
1961.0,2155.0,2041.0,2035.0,2.0,-59.0,
1913.0,2111.0,2038.0,2019.0,1.0,-59.0,
2086.0,2072.0,2059.0,2047.0,0,0,
2181.0,1804.0,2077.0,2063.0,1.0,-60.0,
2012.0,2039.0,2051.0,2072.0,1.0,-60.0,
1948.0,1828.0,2048.0,2086.0,1.0,-60.0,
2130.0,1947.0,2074.0,2110.0,1.0,-60.0,
2029.0,1990.0,2053.0,2050.0,1.0,-60.0,
2040.0,2137.0,2051.0,2046.0,1.0,-61.0,
1940.0,2115.0,2047.0,1986.0,1.0,-61.0,
1933.0,1934.0,2045.0,1991.0,0,0,
2021.0,1938.0,2057.0,2008.0,1.0,-61.0,
2161.0,2003.0,2075.0,2039.0,1.0,-62.0,
2119.0,2003.0,2061.0,2049.0,1.0,-62.0,
1933.0,1960.0,2047.0,2024.0,1.0,-62.0,
2112.0,1976.0,2061.0,2026.0,1.0,-62.0,
2096.0,2095.0,2058.0,2083.0,1.0,-62.0,
2014.0,2154.0,2055.0,2063.0,1.0,-63.0,
1989.0,1854.0,2052.0,2008.0,1.0,-63.0,
2107.0,2008.0,2069.0,2033.0,1.0,-63.0,
2037.0,2068.0,2055.0,2039.0,1.0,-63.0,
2018.0,1998.0,2052.0,2008.0,1.0,-63.0,
2026.0,2019.0,2054.0,2037.0,1.0,-63.0,
2042.0,2114.0,2051.0,2082.0,1.0,-62.0,
1903.0,2199.0,2033.0,2104.0,1.0,-62.0,
1892.0,1787.0,2042.0,1987.0,1.0,-62.0,
2129.0,1928.0,2065.0,2058.0,1.0,-62.0,
2120.0,1957.0,2063.0,2016.0,1.0,-62.0,
2039.0,2103.0,2049.0,2036.0,0,0,
2054.0,1969.0,2075.0,2018.0,1.0,-62.0,
2024.0,2005.0,2045.0,2050.0,1.0,-61.0,
2078.0,2013.0,2061.0,2072.0,1.0,-61.0,
2121.0,2051.0,2066.0,2067.0,1.0,-61.0,
1966.0,2011.0,2045.0,2021.0,1.0,-61.0,
2029.0,2012.0,2051.0,2060.0,1.0,-61.0,
1835.0,2142.0,2021.0,2084.0,1.0,-61.0,
1824.0,2101.0,2014.0,2019.0,1.0,-60.0,
2075.0,1785.0,2071.0,2005.0,1.0,-60.0,
2250.0,1924.0,2086.0,2059.0,1.0,-60.0,
2136.0,2008.0,2069.0,2057.0,1.0,-60.0,
2094.0,2064.0,2062.0,2041.0,1.0,-60.0,
2009.0,2074.0,2048.0,2007.0,1.0,-60.0,
1957.0,2037.0,2041.0,2019.0,1.0,-59.0,
2059.0,1857.0,2060.0,2040.0,1.0,-59.0,
2014.0,1977.0,2051.0,2145.0,0,0,
2083.0,2068.0,2056.0,2134.0,1.0,-59.0,
1995.0,1878.0,2054.0,1995.0,1.0,-59.0,
2078.0,2005.0,2064.0,2023.0,1.0,-59.0,
1998.0,1924.0,2046.0,1948.0,1.0,-59.0,
1953.0,2086.0,2049.0,2022.0,1.0,-59.0,
2091.0,2037.0,2066.0,2128.0,1.0,-59.0,
1992.0,2033.0,2048.0,2113.0,1.0,-59.0,
1967.0,2101.0,2040.0,2011.0,1.0,-59.0,
1903.0,2107.0,2037.0,2009.0,1.0,-59.0,
2015.0,1887.0,2064.0,1988.0,1.0,-59.0,
2145.0,2047.0,2070.0,2058.0,1.0,-59.0,
2071.0,1929.0,2065.0,2010.0,2.0,-59.0,
1977.0,1974.0,2045.0,2040.0,1.0,-59.0,
2056.0,2002.0,2050.0,2028.0,1.0,-59.0,
2060.0,2016.0,2056.0,2008.0,1.0,-59.0,
2122.0,2146.0,2067.0,1967.0,1.0,-59.0,
2035.0,1932.0,2056.0,2013.0,2.0,-60.0,
2009.0,1951.0,2043.0,2086.0,2.0,-60.0,
1971.0,2015.0,2042.0,2150.0,1.0,-60.0,
2011.0,1966.0,2044.0,2090.0,1.0,-60.0,
2017.0,2031.0,2046.0,2078.0,1.0,-60.0,
2093.0,1987.0,2061.0,2006.0,1.0,-60.0,
2004.0,2028.0,2044.0,2008.0,2.0,-60.0,
1996.0,2091.0,2043.0,2076.0,2.0,-60.0,
2014.0,2006.0,2048.0,2084.0,2.0,-60.0,
2088.0,1910.0,2061.0,2056.0,2.0,-60.0,
2012.0,2022.0,2043.0,2018.0,2.0,-60.0,
2070.0,2008.0,2061.0,1998.0,2.0,-60.0,
2037.0,1970.0,2059.0,2017.0,2.0,-60.0,
2009.0,2030.0,2045.0,2037.0,2.0,-60.0,
1961.0,2122.0,2043.0,2055.0,2.0,-60.0,
1880.0,2185.0,2022.0,2043.0,2.0,-60.0,
2036.0,1940.0,2059.0,1992.0,2.0,-59.0,
2129.0,1972.0,2073.0,2030.0,0,0,
2145.0,1998.0,2070.0,2054.0,2.0,-59.0,
2028.0,1978.0,2062.0,2014.0,2.0,-59.0,
2047.0,2021.0,2060.0,2047.0,2.0,-59.0,
2036.0,2023.0,2053.0,2064.0,2.0,-59.0,
1921.0,2058.0,2035.0,2100.0,2.0,-58.0,
2033.0,1960.0,2059.0,1976.0,2.0,-58.0,
2118.0,2028.0,2074.0,2016.0,2.0,-58.0,
2039.0,1980.0,2052.0,1974.0,2.0,-58.0,
2063.0,1973.0,2054.0,2046.0,2.0,-57.0,
2033.0,1984.0,2060.0,2072.0,2.0,-57.0,
2068.0,2063.0,2053.0,2075.0,2.0,-57.0,
2004.0,2029.0,2049.0,2052.0,2.0,-57.0,
2060.0,2095.0,2053.0,2072.0,2.0,-57.0,
1952.0,1963.0,2045.0,2018.0,1.0,-57.0,
2033.0,1979.0,2052.0,2057.0,0,0,
2059.0,2012.0,2057.0,2056.0,1.0,-57.0,
2015.0,1964.0,2054.0,2033.0,1.0,-57.0,
2033.0,2025.0,2053.0,2035.0,1.0,-57.0,
2033.0,2027.0,2055.0,2061.0,1.0,-57.0,
2061.0,2077.0,2059.0,2040.0,1.0,-57.0,
2027.0,1993.0,2055.0,2041.0,1.0,-57.0,
1926.0,2121.0,2040.0,2086.0,1.0,-57.0,
2058.0,2002.0,2052.0,2073.0,1.0,-57.0,
2091.0,1973.0,2054.0,2033.0,1.0,-57.0,
2081.0,2004.0,2054.0,2067.0,1.0,-57.0,
2065.0,2042.0,2058.0,2026.0,1.0,-58.0,
1997.0,2029.0,2046.0,2052.0,1.0,-58.0,
2029.0,1958.0,2052.0,2025.0,1.0,-58.0,
2111.0,2015.0,2063.0,2010.0,1.0,-58.0,
2000.0,2131.0,2044.0,2021.0,1.0,-58.0,
2033.0,2027.0,2065.0,1989.0,1.0,-58.0,
2053.0,1899.0,2056.0,2089.0,1.0,-58.0,
1999.0,1998.0,2047.0,2102.0,1.0,-58.0,
2013.0,1954.0,2052.0,2065.0,1.0,-58.0,
2052.0,2064.0,2055.0,2073.0,1.0,-58.0,
1979.0,2005.0,2053.0,2054.0,1.0,-58.0,
2027.0,1988.0,2052.0,2019.0,1.0,-58.0,
2055.0,2062.0,2051.0,2031.0,1.0,-58.0,
1996.0,2022.0,2052.0,2019.0,1.0,-58.0,
2107.0,1971.0,2067.0,2029.0,1.0,-58.0,
2060.0,2058.0,2050.0,2053.0,1.0,-58.0,
1992.0,2043.0,2048.0,2045.0,1.0,-58.0,
2028.0,1938.0,2053.0,2064.0,1.0,-58.0,
2052.0,2055.0,2069.0,2048.0,1.0,-58.0,
2055.0,2031.0,2058.0,2032.0,1.0,-58.0,
2026.0,2081.0,2051.0,2009.0,1.0,-58.0,
2036.0,1962.0,2057.0,2014.0,1.0,-58.0,
2025.0,2019.0,2056.0,2074.0,1.0,-57.0,
1982.0,1965.0,2049.0,2063.0,1.0,-57.0,
1961.0,2040.0,2048.0,2061.0,1.0,-57.0,
2112.0,2004.0,2071.0,2043.0,1.0,-57.0,
2061.0,1976.0,2061.0,2010.0,1.0,-57.0,
2028.0,2010.0,2055.0,2044.0,1.0,-57.0,
2042.0,2049.0,2058.0,2010.0,1.0,-57.0,
2013.0,2052.0,2053.0,2022.0,1.0,-57.0,
2042.0,2002.0,2057.0,2044.0,1.0,-57.0,
2077.0,2020.0,2061.0,2054.0,1.0,-57.0,
2066.0,2090.0,2057.0,2059.0,1.0,-57.0,
2042.0,1992.0,2056.0,2036.0,1.0,-57.0,
2004.0,1935.0,2055.0,2047.0,1.0,-57.0,
2030.0,2014.0,2058.0,2009.0,1.0,-57.0,
2029.0,2041.0,2055.0,1994.0,1.0,-57.0,
2086.0,2050.0,2062.0,1994.0,1.0,-57.0,
2035.0,2068.0,2053.0,2021.0,1.0,-57.0,
1939.0,2003.0,2042.0,2075.0,1.0,-57.0,
1970.0,1866.0,2051.0,2166.0,1.0,-57.0,
2032.0,2074.0,2050.0,2168.0,1.0,-57.0,
2055.0,2030.0,2059.0,2000.0,1.0,-58.0,
1944.0,1973.0,2044.0,1973.0,1.0,-58.0,
2091.0,2005.0,2061.0,2046.0,1.0,-58.0,
2048.0,1974.0,2049.0,2019.0,1.0,-58.0,
2018.0,2093.0,2046.0,2085.0,1.0,-58.0,
2084.0,2008.0,2056.0,2083.0,1.0,-58.0,
2113.0,1911.0,2059.0,2018.0,1.0,-58.0,
2068.0,2004.0,2052.0,2001.0,1.0,-58.0,
2035.0,2043.0,2055.0,2015.0,1.0,-58.0,
2017.0,2034.0,2052.0,2007.0,1.0,-58.0,
1976.0,2088.0,2045.0,2022.0,1.0,0,
2049.0,2070.0,2057.0,1999.0,1.0,-58.0,
2020.0,2056.0,2050.0,2086.0,1.0,-58.0,
2034.0,1879.0,2050.0,2003.0,1.0,-58.0,
2087.0,1941.0,2063.0,2051.0,1.0,-58.0,
2053.0,1964.0,2059.0,2105.0,1.0,-58.0,
2022.0,2043.0,2056.0,2086.0,1.0,-58.0,
2018.0,1939.0,2053.0,2012.0,1.0,-57.0,
2006.0,2024.0,2047.0,2044.0,1.0,-57.0,
2064.0,1973.0,2057.0,1997.0,1.0,-57.0,
2093.0,2062.0,2064.0,2029.0,1.0,-57.0,
2056.0,1964.0,2061.0,2038.0,1.0,-57.0,
1952.0,2106.0,2027.0,2060.0,1.0,-57.0,
2089.0,2056.0,2061.0,2044.0,1.0,-57.0,
2036.0,1958.0,2061.0,2056.0,1.0,-57.0,
2022.0,2002.0,2057.0,2085.0,1.0,-57.0,
1992.0,2012.0,2049.0,1976.0,1.0,-57.0,
1972.0,2086.0,2046.0,1942.0,1.0,-57.0,
2056.0,1968.0,2058.0,2056.0,1.0,-58.0,
2017.0,1991.0,2056.0,2039.0,1.0,-58.0,
2031.0,2037.0,2054.0,2043.0,1.0,-58.0,
2037.0,2046.0,2056.0,2055.0,1.0,-58.0,
2008.0,2006.0,2049.0,2039.0,1.0,-58.0,
2017.0,1964.0,2055.0,2059.0,1.0,-58.0,
2086.0,1969.0,2063.0,2067.0,1.0,-58.0,
2051.0,1977.0,2058.0,2073.0,1.0,-58.0,
2028.0,2024.0,2058.0,2087.0,1.0,-58.0,
2036.0,2058.0,2048.0,2052.0,1.0,-58.0,
2027.0,2043.0,2048.0,2039.0,1.0,-58.0,
2067.0,1981.0,2062.0,2110.0,1.0,-59.0,
1996.0,1934.0,2050.0,2024.0,1.0,-59.0,
2032.0,1983.0,2056.0,2023.0,1.0,-59.0,
2050.0,2006.0,2053.0,2044.0,1.0,-59.0,
1990.0,2016.0,2048.0,2005.0,1.0,-59.0,
2045.0,2059.0,2051.0,2019.0,1.0,-59.0,
2040.0,2006.0,2058.0,2037.0,1.0,-59.0,
1934.0,2141.0,2042.0,2021.0,1.0,-59.0,
2054.0,1941.0,2056.0,2022.0,1.0,-59.0,
2016.0,2035.0,2035.0,2070.0,1.0,-59.0,
2073.0,1952.0,2062.0,2049.0,1.0,-59.0,
2071.0,1952.0,2060.0,2093.0,2.0,-59.0,
2080.0,1998.0,2065.0,2075.0,2.0,-59.0,
2085.0,2059.0,2063.0,2059.0,2.0,-59.0,
2048.0,2013.0,2053.0,2041.0,1.0,-59.0,
2030.0,2025.0,2051.0,2059.0,1.0,-59.0,
2028.0,1980.0,2049.0,2037.0,0,0,
1947.0,2032.0,2048.0,2017.0,1.0,-60.0,
2018.0,2014.0,2055.0,2065.0,1.0,-60.0,
2035.0,2088.0,2055.0,2056.0,1.0,-60.0,
2019.0,2112.0,2052.0,1989.0,1.0,-60.0,
2061.0,1883.0,2061.0,2018.0,1.0,-60.0,
2037.0,2020.0,2050.0,2012.0,1.0,-60.0,
2020.0,1977.0,2058.0,1955.0,1.0,-60.0,
2048.0,2046.0,2064.0,2004.0,1.0,-60.0,
2039.0,2077.0,2054.0,2036.0,1.0,-60.0,
2035.0,1892.0,2057.0,2133.0,1.0,-60.0,
2009.0,1941.0,2051.0,2128.0,1.0,-60.0,
2058.0,1998.0,2058.0,2085.0,1.0,-60.0,
2042.0,1989.0,2052.0,2040.0,1.0,-60.0,
2018.0,2021.0,2051.0,2038.0,1.0,-60.0,
1987.0,2064.0,2048.0,2040.0,1.0,-60.0,
2001.0,2069.0,2052.0,2041.0,1.0,-60.0,
1949.0,1971.0,2045.0,2006.0,1.0,-60.0,
2045.0,1996.0,2059.0,2058.0,1.0,-60.0,
2069.0,1994.0,2056.0,2063.0,1.0,-60.0,
2095.0,2064.0,2063.0,2073.0,2.0,-60.0,
1982.0,1987.0,2049.0,2029.0,1.0,-60.0,
1956.0,1978.0,2046.0,2009.0,2.0,-60.0,
2133.0,2041.0,2061.0,2066.0,1.0,-60.0,
2058.0,2042.0,2056.0,2085.0,1.0,-60.0,
1995.0,1950.0,2050.0,2036.0,1.0,-60.0,
2014.0,2010.0,2061.0,2033.0,1.0,-60.0,
2099.0,1928.0,2064.0,2007.0,1.0,-60.0,
2068.0,1948.0,2060.0,2013.0,1.0,0,
2045.0,1978.0,2058.0,2041.0,1.0,-60.0,
2058.0,2008.0,2056.0,2052.0,2.0,-60.0,
2023.0,2008.0,2052.0,2027.0,2.0,-61.0,
2018.0,2034.0,2052.0,2033.0,1.0,-61.0,
1947.0,2176.0,2041.0,2068.0,1.0,-61.0,
2101.0,1890.0,2072.0,2008.0,2.0,-61.0,
2034.0,1939.0,2055.0,2026.0,1.0,-60.0,
2047.0,2029.0,2058.0,2068.0,1.0,-60.0,
2007.0,2011.0,2054.0,2087.0,1.0,-60.0,
2035.0,1985.0,2058.0,1969.0,1.0,-60.0,
2078.0,2036.0,2060.0,2021.0,1.0,-60.0,
2026.0,2058.0,2047.0,2044.0,1.0,-60.0,
2020.0,1924.0,2058.0,2049.0,1.0,-60.0,
2070.0,1988.0,2056.0,2050.0,1.0,-60.0,
2031.0,1995.0,2049.0,2017.0,1.0,-60.0,
2010.0,2013.0,2051.0,2032.0,1.0,-60.0,
2047.0,2104.0,2052.0,2040.0,1.0,-60.0,
1965.0,2021.0,2048.0,2040.0,1.0,-60.0,
2043.0,1982.0,2059.0,2065.0,1.0,-60.0,
2047.0,2046.0,2056.0,2047.0,1.0,-60.0,
1990.0,1971.0,2053.0,2054.0,1.0,-59.0,
2042.0,2017.0,2056.0,2062.0,1.0,-59.0,
2010.0,2004.0,2050.0,2029.0,1.0,-59.0,
2113.0,1996.0,2060.0,2053.0,1.0,-59.0,
2088.0,2051.0,2056.0,2029.0,1.0,-59.0,
2046.0,1978.0,2055.0,2020.0,1.0,-59.0,
2008.0,1975.0,2047.0,2042.0,1.0,-59.0,
2006.0,1970.0,2058.0,2044.0,1.0,-59.0,
2029.0,2058.0,2053.0,2081.0,1.0,-59.0,
1991.0,1994.0,2047.0,2051.0,1.0,-59.0,
2016.0,2017.0,2048.0,2045.0,1.0,-59.0,
2032.0,2094.0,2048.0,2043.0,1.0,-59.0,
2021.0,2026.0,2052.0,2034.0,1.0,-59.0,
2055.0,2028.0,2054.0,2081.0,1.0,-59.0,
2021.0,2041.0,2045.0,2109.0,1.0,-59.0,
2086.0,1930.0,2069.0,2073.0,1.0,-59.0,
2010.0,1978.0,2055.0,2047.0,1.0,-59.0,
2065.0,2018.0,2059.0,2072.0,1.0,-59.0,
1976.0,2094.0,2043.0,2060.0,1.0,-59.0,
2026.0,1946.0,2053.0,1934.0,1.0,-59.0,
2053.0,2100.0,2047.0,2040.0,1.0,-59.0,
2033.0,1971.0,2058.0,2001.0,1.0,-59.0,
2012.0,1991.0,2058.0,2052.0,1.0,-59.0,
2004.0,2019.0,2050.0,2036.0,1.0,-59.0,
2029.0,2011.0,2050.0,2011.0,1.0,-59.0,
2035.0,1991.0,2057.0,2006.0,1.0,-59.0,
2070.0,2019.0,2058.0,2070.0,1.0,-59.0,
1971.0,1992.0,2043.0,2041.0,1.0,-59.0,
2059.0,1903.0,2059.0,2054.0,1.0,-59.0,
2055.0,2025.0,2055.0,2054.0,1.0,-59.0,
2045.0,2046.0,2054.0,2035.0,1.0,-59.0,
2051.0,1988.0,2057.0,2072.0,1.0,-59.0,
2048.0,2015.0,2052.0,2095.0,1.0,-59.0,
1984.0,1981.0,2048.0,2093.0,1.0,-59.0,
2057.0,1987.0,2057.0,2033.0,1.0,-59.0,
2017.0,2019.0,2055.0,2023.0,1.0,-59.0,
1992.0,2047.0,2053.0,2011.0,1.0,-59.0,
2069.0,2007.0,2058.0,2022.0,1.0,-59.0,
2048.0,2008.0,2058.0,2012.0,1.0,-59.0,
2101.0,2029.0,2064.0,2028.0,1.0,-59.0,
2024.0,1963.0,2053.0,2040.0,1.0,-59.0,
2029.0,2038.0,2051.0,2077.0,1.0,-59.0,
1970.0,2091.0,2043.0,2047.0,1.0,-59.0,
2042.0,1997.0,2055.0,2068.0,1.0,-59.0,
1900.0,2027.0,2045.0,2039.0,1.0,-59.0,
2099.0,1976.0,2067.0,2044.0,1.0,-59.0,
2052.0,2009.0,2061.0,2046.0,1.0,-59.0,
2024.0,1955.0,2060.0,2027.0,1.0,-59.0,
2032.0,2030.0,2058.0,2032.0,1.0,-59.0,
2025.0,2003.0,2054.0,2011.0,1.0,-58.0,
2009.0,2016.0,2051.0,2041.0,1.0,-58.0,
2007.0,2054.0,2051.0,2049.0,1.0,-58.0,
2093.0,2015.0,2063.0,2007.0,1.0,-58.0,
2015.0,1930.0,2055.0,2047.0,1.0,0,
1983.0,2009.0,2047.0,2060.0,1.0,-58.0,
2051.0,1974.0,2054.0,2019.0,1.0,-58.0,
2088.0,2029.0,2059.0,2036.0,1.0,-58.0,
2017.0,1939.0,2047.0,2045.0,1.0,-58.0,
2054.0,2046.0,2051.0,2090.0,1.0,-58.0,
2024.0,1981.0,2052.0,2082.0,1.0,-58.0,
2065.0,2017.0,2061.0,2043.0,1.0,-58.0,
2024.0,1988.0,2050.0,2043.0,1.0,-58.0,
2032.0,2051.0,2061.0,2025.0,1.0,-58.0,
2072.0,2054.0,2061.0,2067.0,1.0,-58.0,
2021.0,1994.0,2049.0,2085.0,1.0,-58.0,
1900.0,2091.0,2033.0,2088.0,1.0,-58.0,
2113.0,1878.0,2068.0,1951.0,1.0,-58.0,
2066.0,1978.0,2057.0,2004.0,1.0,-58.0,
2070.0,1963.0,2062.0,2021.0,1.0,-58.0,
2052.0,2026.0,2058.0,2036.0,1.0,-58.0,
2045.0,2060.0,2058.0,2027.0,1.0,-58.0,
2022.0,2076.0,2056.0,2026.0,1.0,-58.0,
2008.0,2026.0,2053.0,2026.0,0,0,
2028.0,1998.0,2052.0,1998.0,1.0,-58.0,
2035.0,2006.0,2057.0,2050.0,1.0,-58.0,
2050.0,1965.0,2054.0,2092.0,1.0,-58.0,
2031.0,2062.0,2057.0,2110.0,1.0,-58.0,
2000.0,2025.0,2046.0,2091.0,1.0,-58.0,
1929.0,2005.0,2044.0,2027.0,1.0,-58.0,
1991.0,1945.0,2045.0,2015.0,1.0,-58.0,
2127.0,1939.0,2066.0,2071.0,1.0,-58.0,
2053.0,1961.0,2055.0,2072.0,1.0,-58.0,
2022.0,1996.0,2056.0,2047.0,1.0,-58.0,
2052.0,2016.0,2058.0,2030.0,1.0,-58.0,
2033.0,2029.0,2060.0,2023.0,1.0,-58.0,
2033.0,2068.0,2057.0,2016.0,1.0,-58.0,
2084.0,2031.0,2065.0,2036.0,1.0,-58.0,
2060.0,1997.0,2060.0,2030.0,1.0,-58.0,
2048.0,2021.0,2054.0,2022.0,1.0,-58.0,
1987.0,1982.0,2049.0,2004.0,1.0,-58.0,
2039.0,2000.0,2056.0,2045.0,1.0,-58.0,
2026.0,2019.0,2052.0,2123.0,1.0,-58.0,
2028.0,1967.0,2055.0,2096.0,1.0,-58.0,
2064.0,1985.0,2057.0,2033.0,1.0,-58.0,
2052.0,1971.0,2052.0,2036.0,1.0,-58.0,
2028.0,2002.0,2056.0,2026.0,1.0,-58.0,
2001.0,2020.0,2053.0,2031.0,1.0,-58.0,
2045.0,2031.0,2062.0,2000.0,1.0,-58.0,
2106.0,2061.0,2061.0,2042.0,1.0,-58.0,
1987.0,1988.0,2052.0,2014.0,1.0,-58.0,
2012.0,2013.0,2050.0,2032.0,1.0,-58.0,
1998.0,2090.0,2042.0,2041.0,1.0,-58.0,
2095.0,2061.0,2054.0,2077.0,1.0,-58.0,
1968.0,1888.0,2048.0,2024.0,1.0,-58.0,
2054.0,1986.0,2061.0,2062.0,1.0,-58.0,
2039.0,2018.0,2060.0,2038.0,1.0,-58.0,
2039.0,1985.0,2058.0,2036.0,1.0,-58.0,
2008.0,2034.0,2048.0,2039.0,1.0,-58.0,
2080.0,1997.0,2064.0,2033.0,1.0,-57.0,
1978.0,1999.0,2050.0,2032.0,1.0,-57.0,
2044.0,2019.0,2055.0,2017.0,1.0,-57.0,
2027.0,2017.0,2056.0,2042.0,1.0,-57.0,
2022.0,2047.0,2057.0,2042.0,1.0,-57.0,
2073.0,1996.0,2058.0,2085.0,1.0,-57.0,
2024.0,2095.0,2050.0,2091.0,1.0,-57.0,
2053.0,1968.0,2057.0,1970.0,1.0,-57.0,
2036.0,1945.0,2054.0,2033.0,0,0,
2058.0,2017.0,2054.0,2059.0,1.0,-57.0,
1986.0,2036.0,2046.0,1974.0,1.0,-57.0,
1963.0,2011.0,2038.0,2022.0,1.0,-57.0,
2096.0,1943.0,2060.0,2076.0,1.0,-57.0,
2134.0,2006.0,2068.0,2111.0,1.0,-57.0,
2057.0,1977.0,2055.0,2093.0,1.0,-57.0,
1947.0,2020.0,2042.0,2047.0,1.0,-57.0,
2059.0,1991.0,2054.0,2054.0,1.0,-57.0,
2036.0,2005.0,2054.0,2046.0,1.0,-57.0,
2007.0,2026.0,2048.0,2029.0,1.0,-57.0,
2060.0,2085.0,2057.0,2020.0,1.0,-57.0,
2088.0,2065.0,2060.0,2048.0,1.0,-57.0,
2010.0,2020.0,2039.0,2073.0,1.0,-58.0,
2062.0,1960.0,2059.0,2047.0,1.0,-58.0,
2034.0,2045.0,2052.0,2041.0,1.0,0,
1933.0,2037.0,2042.0,1996.0,1.0,-58.0,
1984.0,1940.0,2051.0,2042.0,1.0,-58.0,
2067.0,1888.0,2062.0,2012.0,1.0,-58.0,
2045.0,1937.0,2057.0,2011.0,1.0,-58.0,
2061.0,1993.0,2057.0,2067.0,1.0,-58.0,
2036.0,2046.0,2057.0,2057.0,1.0,-58.0,
2038.0,2024.0,2054.0,2071.0,1.0,-58.0,
2047.0,2178.0,2050.0,2107.0,1.0,-58.0,
2001.0,1874.0,2054.0,2036.0,1.0,-58.0,
2003.0,1924.0,2052.0,2014.0,1.0,-58.0,
2048.0,1967.0,2054.0,2007.0,1.0,-58.0,
2042.0,1996.0,2054.0,2018.0,1.0,-58.0,
2043.0,2087.0,2058.0,2050.0,1.0,-58.0,
1965.0,2051.0,2049.0,2028.0,1.0,-58.0,
2001.0,2014.0,2054.0,2049.0,1.0,-58.0,
2064.0,2012.0,2059.0,2024.0,1.0,-58.0,
2008.0,1954.0,2050.0,2028.0,1.0,-58.0,
2106.0,1981.0,2063.0,2027.0,1.0,-58.0,
2016.0,1973.0,2054.0,2051.0,1.0,-58.0,
2141.0,2114.0,2068.0,2058.0,1.0,-58.0,
2024.0,1946.0,2047.0,2041.0,1.0,-58.0,
2022.0,1976.0,2058.0,2048.0,1.0,-58.0,
2035.0,2001.0,2059.0,2059.0,1.0,-58.0,
2012.0,2009.0,2051.0,2048.0,1.0,-58.0,
2030.0,1975.0,2057.0,2036.0,1.0,-58.0,
2054.0,1985.0,2059.0,2010.0,1.0,-58.0,
2052.0,1997.0,2059.0,2024.0,0,0,
2056.0,2058.0,2055.0,2047.0,1.0,-58.0,
2027.0,1993.0,2054.0,2012.0,1.0,-58.0,
2005.0,2007.0,2049.0,2037.0,1.0,-58.0,
1983.0,2007.0,2049.0,2052.0,1.0,-58.0,
2006.0,2056.0,2047.0,2038.0,1.0,-58.0,
2015.0,2010.0,2055.0,2042.0,1.0,-58.0,
2066.0,2026.0,2059.0,2031.0,1.0,-58.0,
2028.0,1967.0,2055.0,2048.0,1.0,-58.0,
2038.0,1990.0,2055.0,2056.0,1.0,-58.0,
2012.0,2109.0,2048.0,2055.0,1.0,-58.0,
2037.0,1942.0,2056.0,2029.0,1.0,-58.0,
2052.0,2010.0,2056.0,2038.0,1.0,-58.0,
2039.0,2006.0,2061.0,2020.0,1.0,-58.0,
2044.0,1935.0,2053.0,2038.0,1.0,-58.0,
2053.0,2019.0,2052.0,2089.0,1.0,-58.0,
2052.0,2061.0,2059.0,2061.0,1.0,-58.0,
2050.0,2036.0,2053.0,2034.0,1.0,-58.0,
1991.0,1987.0,2052.0,2020.0,1.0,-58.0,
2046.0,1993.0,2047.0,2032.0,1.0,-58.0,
2044.0,1946.0,2058.0,2030.0,1.0,-58.0,
2038.0,2036.0,2051.0,2031.0,1.0,-58.0,
1989.0,2016.0,2050.0,2048.0,1.0,-58.0,
2016.0,1940.0,2056.0,2043.0,1.0,-58.0,
2057.0,1947.0,2055.0,2062.0,1.0,-58.0,
1985.0,2057.0,2046.0,2081.0,1.0,-58.0,
2045.0,2052.0,2060.0,2106.0,1.0,-58.0,
2061.0,1990.0,2057.0,2103.0,1.0,-58.0,
2054.0,1903.0,2056.0,1968.0,1.0,-58.0,
2057.0,2017.0,2059.0,1989.0,1.0,-58.0,
2067.0,2087.0,2058.0,2022.0,1.0,-58.0,
2015.0,2120.0,2051.0,2030.0,1.0,-58.0,
2016.0,2031.0,2050.0,2077.0,1.0,-58.0,
1972.0,1991.0,2051.0,2051.0,1.0,-58.0,
1961.0,2012.0,2042.0,2036.0,1.0,-58.0,
2009.0,1990.0,2053.0,2028.0,1.0,-58.0,
2041.0,1942.0,2057.0,2033.0,1.0,-58.0,
2091.0,1973.0,2061.0,2051.0,1.0,0,
2094.0,1993.0,2057.0,2050.0,1.0,-58.0,
2043.0,1929.0,2053.0,2022.0,1.0,-58.0,
2068.0,1990.0,2057.0,2042.0,1.0,-58.0,
2050.0,2050.0,2054.0,2086.0,1.0,-58.0,
2012.0,2017.0,2049.0,2027.0,1.0,-58.0,
2007.0,2037.0,2050.0,2010.0,1.0,-58.0,
2007.0,2003.0,2050.0,2024.0,1.0,-58.0,
2092.0,2044.0,2066.0,2029.0,1.0,-58.0,
2034.0,1942.0,2055.0,2044.0,1.0,-58.0,
2030.0,2004.0,2053.0,2045.0,1.0,-58.0,
2014.0,1955.0,2051.0,2047.0,1.0,-58.0,
2027.0,2008.0,2051.0,2043.0,1.0,-58.0,
2010.0,2031.0,2055.0,2033.0,1.0,-58.0,
1992.0,1993.0,2047.0,2043.0,1.0,-58.0,
2024.0,2008.0,2052.0,2030.0,1.0,-58.0,
2025.0,2011.0,2050.0,2059.0,1.0,-58.0,
2062.0,2116.0,2057.0,2052.0,1.0,-58.0,
2030.0,1963.0,2054.0,2025.0,1.0,-58.0,
2026.0,1992.0,2056.0,2055.0,1.0,-58.0,
1997.0,1982.0,2052.0,2089.0,1.0,-58.0,
2012.0,2004.0,2050.0,2029.0,1.0,-58.0,
1998.0,2038.0,2058.0,2002.0,1.0,-58.0,
2081.0,1978.0,2064.0,2051.0,1.0,-58.0,
2020.0,1954.0,2050.0,2040.0,1.0,-58.0,
2026.0,2035.0,2050.0,2064.0,1.0,-58.0,
2050.0,1987.0,2054.0,2055.0,1.0,-58.0,
2054.0,2043.0,2058.0,2018.0,1.0,-58.0,
2048.0,2035.0,2052.0,2036.0,1.0,-58.0,
1998.0,1910.0,2046.0,2007.0,1.0,-58.0,
1986.0,1965.0,2044.0,2039.0,1.0,-58.0,
2031.0,1977.0,2058.0,2062.0,1.0,-58.0,
2037.0,2003.0,2058.0,2048.0,1.0,-58.0,
2093.0,2062.0,2064.0,2078.0,1.0,-58.0,
1985.0,2046.0,2045.0,2066.0,1.0,-58.0,
1985.0,2061.0,2039.0,2047.0,1.0,-58.0,
2056.0,1989.0,2059.0,2057.0,1.0,-58.0,
2002.0,2016.0,2048.0,2052.0,1.0,-58.0,
2112.0,2033.0,2062.0,2080.0,1.0,-58.0,
2032.0,2000.0,2051.0,2036.0,1.0,-58.0,
2057.0,1983.0,2060.0,2010.0,1.0,-58.0,
2032.0,2039.0,2057.0,2012.0,1.0,-58.0,
1998.0,2038.0,2054.0,2016.0,1.0,-57.0,
2038.0,2025.0,2053.0,2022.0,1.0,-57.0,
2040.0,2014.0,2054.0,2036.0,1.0,-57.0,
2134.0,2043.0,2068.0,2077.0,1.0,-57.0,
1964.0,2022.0,2054.0,2043.0,1.0,-57.0,
2044.0,2005.0,2059.0,2046.0,1.0,-57.0,
2021.0,1984.0,2050.0,2051.0,1.0,-57.0,
2089.0,1953.0,2060.0,2060.0,1.0,-57.0,
2035.0,2015.0,2052.0,2065.0,1.0,-57.0,
1978.0,1962.0,2045.0,2025.0,1.0,-57.0,
1999.0,2084.0,2050.0,2020.0,1.0,-57.0,
2037.0,1973.0,2057.0,2034.0,1.0,-57.0,
2059.0,2025.0,2062.0,2030.0,1.0,-57.0,
2006.0,1978.0,2052.0,2056.0,1.0,-57.0,
2015.0,2001.0,2053.0,2037.0,1.0,-57.0,
2014.0,2009.0,2057.0,2032.0,1.0,-57.0,
2021.0,2053.0,2048.0,2047.0,1.0,-57.0,
2115.0,1978.0,2065.0,2012.0,1.0,-57.0,
2079.0,2058.0,2059.0,2043.0,1.0,-57.0,
2060.0,1981.0,2059.0,2016.0,1.0,-57.0,
2012.0,1982.0,2049.0,2031.0,1.0,-57.0,
2000.0,1964.0,2049.0,2060.0,1.0,-57.0,
2035.0,2018.0,2054.0,2039.0,1.0,-57.0,
2042.0,2040.0,2053.0,2029.0,1.0,-57.0,
2028.0,2059.0,2050.0,2035.0,1.0,-57.0,
2026.0,2070.0,2050.0,2038.0,1.0,-57.0,
2034.0,1975.0,2054.0,2027.0,1.0,-57.0,
2108.0,1966.0,2061.0,2062.0,1.0,-57.0,
2041.0,1953.0,2054.0,2065.0,1.0,-57.0,
2055.0,2001.0,2060.0,2050.0,1.0,-57.0,
2001.0,2014.0,2051.0,2065.0,1.0,-57.0,
2015.0,2081.0,2058.0,2077.0,1.0,-57.0,
2011.0,2053.0,2048.0,2049.0,1.0,-57.0,
2059.0,1966.0,2061.0,2011.0,1.0,-57.0,
2070.0,1953.0,2060.0,2060.0,1.0,-57.0,
2020.0,1972.0,2049.0,2086.0,1.0,-57.0,
2009.0,2024.0,2049.0,1980.0,1.0,-57.0,
2039.0,1940.0,2056.0,2028.0,1.0,-57.0,
1998.0,2035.0,2045.0,2041.0,1.0,-57.0,
2022.0,1993.0,2052.0,2028.0,1.0,-57.0,
2032.0,1966.0,2056.0,2009.0,1.0,-57.0,
2033.0,1981.0,2054.0,2036.0,1.0,-57.0,
2022.0,2056.0,2051.0,2044.0,1.0,-57.0,
2048.0,2053.0,2058.0,2041.0,1.0,-57.0,
2078.0,2059.0,2060.0,2043.0,1.0,-57.0,
2057.0,2038.0,2057.0,2076.0,1.0,-57.0,
2017.0,1980.0,2053.0,2046.0,1.0,-57.0,
2055.0,1993.0,2058.0,2030.0,1.0,-57.0,
2047.0,1999.0,2055.0,2047.0,1.0,-57.0,
2074.0,1996.0,2063.0,2061.0,1.0,-57.0,
2119.0,2037.0,2070.0,2075.0,1.0,-57.0,
1963.0,2038.0,2044.0,2020.0,1.0,-57.0,
1994.0,1971.0,2052.0,2001.0,1.0,-57.0,
2007.0,2016.0,2058.0,2029.0,1.0,-57.0,
2021.0,1993.0,2049.0,2021.0,1.0,-57.0,
2043.0,2040.0,2049.0,2042.0,1.0,-57.0,
2019.0,1987.0,2053.0,2022.0,1.0,-57.0,
2056.0,1992.0,2051.0,2070.0,1.0,-57.0,
2029.0,1958.0,2055.0,2057.0,1.0,-57.0,
2096.0,2006.0,2062.0,2038.0,1.0,-57.0,
2058.0,2035.0,2053.0,2058.0,1.0,-57.0,
2048.0,2009.0,2053.0,2049.0,1.0,-57.0,
1969.0,1979.0,2050.0,2038.0,1.0,-57.0,
2024.0,2045.0,2053.0,2067.0,1.0,-57.0,
2078.0,2002.0,2058.0,2031.0,1.0,-57.0,
2024.0,2010.0,2053.0,2026.0,1.0,-57.0,
2038.0,1989.0,2059.0,2027.0,1.0,-57.0,
2002.0,2035.0,2053.0,2025.0,1.0,-57.0,
1928.0,2010.0,2040.0,1977.0,1.0,-57.0,
2066.0,2047.0,2053.0,2070.0,1.0,-57.0,
2062.0,2014.0,2055.0,2056.0,1.0,-57.0,
2060.0,2018.0,2055.0,2094.0,1.0,-57.0,
2034.0,2035.0,2051.0,2076.0,1.0,-57.0,
1992.0,2003.0,2047.0,2072.0,1.0,-57.0,
2028.0,1951.0,2052.0,1974.0,1.0,-57.0,
2030.0,2041.0,2051.0,2051.0,1.0,-57.0,
2053.0,2053.0,2055.0,2058.0,1.0,-57.0,
1989.0,1988.0,2047.0,2003.0,1.0,-57.0,
2004.0,2017.0,2051.0,2041.0,1.0,-57.0,
2013.0,1917.0,2053.0,2028.0,1.0,-57.0,
2043.0,1986.0,2054.0,2056.0,1.0,-57.0,
2032.0,2049.0,2055.0,2048.0,1.0,-57.0,
2048.0,1986.0,2056.0,2070.0,1.0,-57.0,
2021.0,2003.0,2048.0,2046.0,1.0,-57.0,
2037.0,2008.0,2051.0,2030.0,1.0,-57.0,
2055.0,2050.0,2059.0,1998.0,1.0,-57.0,
2062.0,2030.0,2060.0,2020.0,1.0,-57.0,
2056.0,1961.0,2057.0,2053.0,1.0,-57.0,
2082.0,2021.0,2059.0,2065.0,1.0,-57.0,
2049.0,2078.0,2052.0,2080.0,1.0,-57.0,
1932.0,1929.0,2040.0,2023.0,1.0,-57.0,
1940.0,1973.0,2045.0,2033.0,1.0,-57.0,
2010.0,2023.0,2050.0,2067.0,1.0,-57.0,
2009.0,1988.0,2052.0,2033.0,1.0,-57.0,
2115.0,1969.0,2076.0,2056.0,1.0,-57.0,
2116.0,2009.0,2065.0,2030.0,1.0,-57.0,
2038.0,1967.0,2055.0,2051.0,1.0,-57.0,
2050.0,2017.0,2054.0,2060.0,1.0,-57.0,
2076.0,2035.0,2060.0,2032.0,1.0,-57.0,
2038.0,2046.0,2055.0,2043.0,1.0,-57.0,
2049.0,2020.0,2054.0,2034.0,1.0,-57.0,
2008.0,1970.0,2053.0,2013.0,1.0,-57.0,
2038.0,2023.0,2058.0,2027.0,1.0,-57.0,
2031.0,1988.0,2052.0,2046.0,1.0,-57.0,
2014.0,2016.0,2053.0,2052.0,1.0,-57.0,
1916.0,2019.0,2042.0,2052.0,1.0,-57.0,
2120.0,2023.0,2060.0,2044.0,1.0,-57.0,
2038.0,1999.0,2051.0,2037.0,1.0,-57.0,
2036.0,2034.0,2054.0,2043.0,1.0,-57.0,
2007.0,1965.0,2054.0,2046.0,1.0,-57.0,
2019.0,2021.0,2052.0,2031.0,1.0,-58.0,
2046.0,2023.0,2053.0,2018.0,1.0,-58.0,
2046.0,2066.0,2051.0,2038.0,1.0,-58.0,
1996.0,2033.0,2049.0,2023.0,1.0,-58.0,
2034.0,2014.0,2054.0,2025.0,1.0,-58.0,
2011.0,1922.0,2049.0,2050.0,1.0,-58.0,
2052.0,2056.0,2057.0,2064.0,1.0,-58.0,
2005.0,1915.0,2051.0,2035.0,1.0,-58.0,
2049.0,1998.0,2052.0,2029.0,1.0,-58.0,
2046.0,2013.0,2050.0,2037.0,1.0,-58.0,
1994.0,2114.0,2044.0,2071.0,1.0,-58.0,
2016.0,1993.0,2052.0,2049.0,1.0,-58.0,
1993.0,2086.0,2043.0,2063.0,1.0,-58.0,
2049.0,2021.0,2052.0,2039.0,1.0,-58.0,
2115.0,1949.0,2067.0,2019.0,1.0,-58.0,
2037.0,2004.0,2056.0,2041.0,1.0,-57.0,
2053.0,1953.0,2060.0,2035.0,1.0,-57.0,
2011.0,1977.0,2048.0,2041.0,1.0,-57.0,
2042.0,1999.0,2054.0,2034.0,1.0,-57.0,
2061.0,2011.0,2053.0,2046.0,1.0,-57.0,
1955.0,1986.0,2045.0,2050.0,1.0,-57.0,
2060.0,1960.0,2053.0,2055.0,1.0,-57.0,
2096.0,1971.0,2059.0,2046.0,0,0,
2036.0,2045.0,2054.0,2050.0,1.0,-57.0,
2025.0,1991.0,2054.0,2062.0,1.0,-57.0,
2044.0,1984.0,2061.0,2039.0,1.0,-57.0,
1964.0,2116.0,2039.0,2033.0,1.0,-57.0,
2057.0,1965.0,2052.0,2029.0,1.0,-57.0,
2048.0,2014.0,2060.0,2042.0,1.0,-57.0,
2030.0,1971.0,2057.0,2037.0,0,0,
2050.0,2046.0,2054.0,2026.0,1.0,-57.0,
2045.0,2031.0,2058.0,1997.0,1.0,-57.0,
1996.0,2069.0,2045.0,2054.0,1.0,-57.0,
2026.0,1890.0,2054.0,2020.0,1.0,-57.0,
2070.0,1966.0,2060.0,2072.0,1.0,-57.0,
2040.0,2062.0,2052.0,2061.0,1.0,-57.0,
2045.0,1995.0,2055.0,2041.0,1.0,-57.0,
1992.0,1956.0,2044.0,2045.0,0,0,
2096.0,1981.0,2064.0,2028.0,1.0,-57.0,
2014.0,2051.0,2054.0,2028.0,1.0,-57.0,
2013.0,2056.0,2051.0,2068.0,1.0,-57.0,
2026.0,1973.0,2055.0,1992.0,1.0,-57.0,
1986.0,2069.0,2051.0,2013.0,1.0,-58.0,
2040.0,2070.0,2054.0,2058.0,1.0,-58.0,
1929.0,1982.0,2043.0,2053.0,0,0,
2040.0,2011.0,2054.0,2064.0,1.0,-58.0,
2098.0,1943.0,2055.0,2043.0,1.0,-58.0,
2040.0,2000.0,2052.0,2030.0,1.0,-58.0,
2031.0,1988.0,2054.0,2008.0,1.0,-58.0,
2024.0,2054.0,2049.0,2040.0,1.0,-58.0,
2041.0,1988.0,2053.0,2057.0,1.0,-58.0,
2056.0,1983.0,2059.0,2057.0,1.0,-58.0,
2029.0,1999.0,2052.0,2055.0,1.0,-58.0,
2044.0,2007.0,2057.0,2017.0,1.0,-57.0,
2012.0,1973.0,2052.0,2010.0,1.0,-57.0,
2037.0,2056.0,2054.0,2036.0,1.0,-57.0,
1987.0,2026.0,2047.0,2033.0,1.0,-57.0,
2042.0,1960.0,2065.0,2039.0,1.0,-57.0,
2087.0,2042.0,2061.0,2070.0,1.0,-57.0,
2010.0,1989.0,2045.0,2050.0,1.0,-57.0,
2034.0,1976.0,2055.0,2043.0,1.0,-57.0,
2068.0,2017.0,2054.0,2053.0,1.0,-57.0,
2013.0,1993.0,2052.0,2042.0,1.0,-57.0,
2027.0,2042.0,2047.0,2037.0,1.0,-57.0,
1972.0,2012.0,2044.0,2026.0,1.0,-57.0,
2111.0,1988.0,2064.0,2041.0,1.0,-57.0,
2019.0,1939.0,2060.0,2049.0,1.0,-57.0,
2025.0,2017.0,2053.0,2080.0,1.0,-57.0,
2000.0,1966.0,2053.0,2031.0,1.0,-57.0,
2042.0,2005.0,2055.0,2049.0,1.0,-57.0,
2067.0,2015.0,2054.0,2052.0,1.0,-57.0,
2034.0,1969.0,2056.0,2023.0,1.0,-57.0,
2073.0,2038.0,2057.0,2047.0,1.0,-57.0,
2041.0,2017.0,2055.0,2041.0,1.0,-57.0,
1988.0,2066.0,2049.0,2031.0,1.0,-57.0,
2015.0,2007.0,2057.0,2047.0,1.0,-57.0,
1990.0,2032.0,2044.0,2050.0,1.0,-57.0,
2051.0,2050.0,2050.0,2057.0,1.0,-57.0,
2032.0,1939.0,2054.0,2001.0,1.0,-57.0,
1986.0,2045.0,2042.0,2066.0,1.0,-57.0,
2061.0,2045.0,2054.0,2040.0,1.0,-57.0,
2034.0,1938.0,2055.0,2024.0,1.0,-57.0,
2064.0,1977.0,2060.0,2038.0,1.0,-57.0,
2036.0,1961.0,2055.0,2033.0,1.0,-57.0,
2049.0,2034.0,2052.0,2075.0,1.0,-57.0,
2060.0,1980.0,2062.0,2065.0,1.0,-57.0,
1994.0,2090.0,2043.0,2028.0,1.0,-57.0,
2049.0,2004.0,2054.0,2030.0,1.0,-57.0,
2061.0,2102.0,2048.0,2077.0,1.0,-57.0,
1998.0,1962.0,2052.0,2008.0,1.0,-57.0,
2093.0,1978.0,2063.0,2040.0,1.0,-57.0,
1999.0,1961.0,2049.0,2031.0,1.0,-57.0,
2041.0,1966.0,2058.0,2021.0,1.0,-57.0,
1975.0,1960.0,2043.0,2027.0,1.0,-57.0,
1998.0,2062.0,2046.0,2032.0,1.0,-57.0,
2080.0,2031.0,2054.0,2051.0,1.0,-57.0,
2030.0,1994.0,2050.0,2038.0,1.0,-57.0,
2050.0,2009.0,2057.0,2030.0,1.0,-57.0,
1985.0,2054.0,2044.0,2042.0,1.0,-57.0,
2039.0,2012.0,2058.0,2046.0,1.0,-57.0,
2033.0,1964.0,2049.0,2044.0,1.0,-57.0,
2014.0,2048.0,2049.0,2040.0,1.0,-57.0,
2035.0,1957.0,2054.0,2034.0,1.0,-57.0,
1999.0,2059.0,2046.0,2038.0,1.0,-57.0,
2026.0,1976.0,2058.0,2046.0,1.0,-57.0,
2058.0,1997.0,2054.0,2051.0,1.0,-56.0,
2018.0,2090.0,2049.0,2065.0,1.0,-56.0,
2020.0,2049.0,2050.0,2038.0,1.0,-56.0,
2037.0,1904.0,2055.0,2037.0,1.0,-56.0,
2039.0,1999.0,2064.0,2039.0,1.0,-56.0,
2027.0,2065.0,2058.0,2047.0,1.0,-56.0,
2045.0,2032.0,2056.0,2044.0,1.0,-56.0,
2070.0,2139.0,2054.0,2099.0,1.0,-56.0,
1987.0,1925.0,2050.0,2001.0,1.0,-56.0,
2033.0,1985.0,2053.0,2032.0,1.0,-56.0,
2006.0,2021.0,2051.0,2040.0,0,0,
2092.0,1972.0,2050.0,2030.0,1.0,-56.0,
2017.0,2009.0,2042.0,2043.0,1.0,-55.0,
2020.0,1980.0,2044.0,2048.0,1.0,-55.0,
2024.0,1970.0,2051.0,2047.0,1.0,-55.0,
2016.0,1970.0,2052.0,2011.0,1.0,-55.0,
2063.0,2150.0,2051.0,2066.0,1.0,-55.0,
1961.0,1989.0,2046.0,2046.0,1.0,-55.0,
2054.0,1965.0,2055.0,2034.0,1.0,-55.0,
2009.0,1994.0,2054.0,2040.0,1.0,-54.0,
2023.0,2018.0,2062.0,2026.0,1.0,-54.0,
2021.0,2084.0,2062.0,2031.0,1.0,-54.0,
2144.0,1983.0,2069.0,2044.0,1.0,-54.0,
2148.0,2009.0,2075.0,2047.0,1.0,-54.0,
1891.0,1973.0,2028.0,2018.0,1.0,-54.0,
1989.0,2000.0,2053.0,2024.0,1.0,-54.0,
2008.0,2002.0,2040.0,2035.0,1.0,-53.0,
2061.0,2012.0,2056.0,2040.0,1.0,-53.0,
2030.0,2016.0,2053.0,2044.0,1.0,-53.0,
2122.0,2087.0,2062.0,2097.0,0,0,
2004.0,2076.0,2043.0,2069.0,2.0,-53.0,
2067.0,2242.0,2064.0,2054.0,2.0,-53.0,
1956.0,1812.0,2048.0,1996.0,2.0,-53.0,
2100.0,1887.0,2065.0,2046.0,2.0,-53.0,
2077.0,1969.0,2059.0,2040.0,2.0,-53.0,
2011.0,2010.0,2057.0,2043.0,2.0,-53.0,
2016.0,2037.0,2051.0,2069.0,2.0,-53.0,
2017.0,2045.0,2050.0,2069.0,2.0,-53.0,
2101.0,2002.0,2062.0,2061.0,2.0,-53.0,
2047.0,2069.0,2054.0,2032.0,2.0,-53.0,
2030.0,1944.0,2041.0,1994.0,2.0,-53.0,
2108.0,2136.0,2041.0,2078.0,2.0,-53.0,
1771.0,2075.0,2026.0,2044.0,2.0,-54.0,
2048.0,1928.0,2082.0,2047.0,2.0,-54.0,
2035.0,1949.0,2056.0,2037.0,2.0,-54.0,
2009.0,2053.0,2046.0,1986.0,2.0,-54.0,
2092.0,2001.0,2055.0,2028.0,2.0,-54.0,
2131.0,2034.0,2071.0,2032.0,2.0,-54.0,
1994.0,1932.0,2050.0,2024.0,3.0,-54.0,
2042.0,2023.0,2057.0,2025.0,3.0,-54.0,
1963.0,2013.0,2045.0,2032.0,3.0,-55.0,
2055.0,2060.0,2056.0,2074.0,3.0,-55.0,
2004.0,1978.0,2062.0,2018.0,3.0,-55.0,
2007.0,2144.0,2044.0,2078.0,3.0,-55.0,
2033.0,1964.0,2058.0,2035.0,3.0,-56.0,
2033.0,1935.0,2047.0,2026.0,3.0,-56.0,
2000.0,2089.0,2055.0,2058.0,3.0,0,
1949.0,1983.0,2035.0,2029.0,4.0,-56.0,
2146.0,2144.0,2041.0,2077.0,4.0,-57.0,
2017.0,2022.0,2046.0,2083.0,4.0,-57.0,
2156.0,1877.0,2086.0,2081.0,4.0,-57.0,
2118.0,1924.0,2052.0,2048.0,4.0,-58.0,
2040.0,1989.0,2044.0,2003.0,4.0,-58.0,
1963.0,1975.0,2050.0,2025.0,4.0,-59.0,
2011.0,1979.0,2065.0,2007.0,5.0,-59.0,
1931.0,2072.0,2054.0,2019.0,5.0,-60.0,
2012.0,2056.0,2057.0,2075.0,5.0,-60.0,
1882.0,2082.0,2036.0,2034.0,5.0,-60.0,
2193.0,1799.0,2088.0,1998.0,5.0,-61.0,
2050.0,1978.0,2071.0,2012.0,6.0,-62.0,
2078.0,2021.0,2073.0,2034.0,6.0,-62.0,
2073.0,2048.0,2061.0,2067.0,6.0,-63.0,
2020.0,2094.0,2056.0,2060.0,6.0,-63.0,
1947.0,2128.0,2005.0,2033.0,6.0,-63.0,
2068.0,1920.0,2049.0,2043.0,6.0,-64.0,
1943.0,1929.0,2047.0,2028.0,6.0,-64.0,
2021.0,1984.0,2052.0,2053.0,7.0,-64.0,
1861.0,2058.0,2036.0,2041.0,7.0,-65.0,
2109.0,1903.0,2069.0,2027.0,7.0,-65.0,
2149.0,1981.0,2064.0,2032.0,7.0,-65.0,
2090.0,2132.0,2051.0,2084.0,7.0,-65.0,
1991.0,2079.0,2048.0,2103.0,8.0,-66.0,
1999.0,2028.0,2055.0,2029.0,8.0,-66.0,
1989.0,1928.0,2051.0,1994.0,8.0,-66.0,
2007.0,1992.0,2065.0,2036.0,8.0,-66.0,
2106.0,2090.0,2059.0,2056.0,8.0,-67.0,
1943.0,2097.0,2038.0,2070.0,8.0,-67.0,
2118.0,2054.0,2065.0,2011.0,8.0,-67.0,
2034.0,1858.0,2063.0,1987.0,9.0,-67.0,
2010.0,1956.0,2056.0,2022.0,9.0,-67.0,
1991.0,2036.0,2055.0,2036.0,9.0,-67.0,
2096.0,2036.0,2058.0,2060.0,9.0,-67.0,
2087.0,2041.0,2066.0,2060.0,9.0,-67.0,
1805.0,2016.0,2017.0,2103.0,10.0,-67.0,
2086.0,1932.0,2060.0,2043.0,10.0,-68.0,
2248.0,2083.0,2074.0,2096.0,10.0,-68.0,
2068.0,1894.0,2063.0,2031.0,10.0,-68.0,
1940.0,1955.0,2009.0,2044.0,11.0,-68.0,
2039.0,2007.0,2035.0,2029.0,11.0,-68.0,
2069.0,1952.0,2083.0,2002.0,11.0,-69.0,
2134.0,2088.0,2094.0,2032.0,11.0,-69.0,
2070.0,1983.0,2067.0,2027.0,11.0,-68.0,
2014.0,1976.0,2065.0,2007.0,12.0,-68.0,
2042.0,2020.0,2070.0,2033.0,12.0,-68.0,
2029.0,2078.0,2054.0,2047.0,12.0,-68.0,
1985.0,2041.0,2026.0,2047.0,12.0,-68.0,
1837.0,2078.0,1999.0,2078.0,13.0,-68.0,
2001.0,2027.0,2068.0,2012.0,13.0,-68.0,
2097.0,1932.0,2065.0,2050.0,13.0,-68.0,
2060.0,1978.0,2072.0,2028.0,14.0,-68.0,
2002.0,1964.0,2056.0,2028.0,14.0,-68.0,
2040.0,2005.0,2060.0,2049.0,14.0,-67.0,
2036.0,2019.0,2065.0,2055.0,0,0,
2009.0,2051.0,2051.0,2074.0,14.0,-67.0,
2121.0,2104.0,2062.0,2103.0,14.0,-67.0,
1971.0,2010.0,2031.0,2034.0,14.0,-67.0,
1897.0,1990.0,2010.0,2023.0,15.0,-67.0,
2053.0,1980.0,2051.0,2029.0,15.0,-66.0,
2062.0,1958.0,2060.0,2040.0,15.0,-66.0,
2095.0,2048.0,2062.0,2073.0,16.0,-65.0,
2049.0,1982.0,2041.0,2062.0,16.0,-65.0,
2065.0,2197.0,2040.0,2108.0,16.0,-65.0,
1984.0,1899.0,2054.0,2003.0,16.0,-65.0,
1963.0,1914.0,2024.0,2018.0,0,0,
2166.0,1980.0,2085.0,2015.0,16.0,-65.0,
2101.0,1981.0,2092.0,1992.0,17.0,-64.0,
2125.0,2081.0,2117.0,2024.0,17.0,-64.0,
1941.0,1973.0,2001.0,2056.0,17.0,-64.0,
1958.0,1930.0,2023.0,2022.0,17.0,-64.0,
2055.0,1992.0,2113.0,2042.0,17.0,-63.0,
2097.0,2140.0,2068.0,2096.0,17.0,-63.0,
2022.0,2056.0,2071.0,2098.0,18.0,-62.0,
1975.0,1950.0,2056.0,1998.0,18.0,-62.0,
2079.0,2024.0,2064.0,2011.0,18.0,-62.0,
2075.0,2001.0,2037.0,2008.0,18.0,-62.0,
2095.0,1974.0,2060.0,2032.0,19.0,-61.0,
1998.0,1998.0,2058.0,2031.0,19.0,-61.0,
1896.0,2029.0,2023.0,2040.0,19.0,-60.0,
2049.0,2036.0,2058.0,2046.0,19.0,-60.0,
2013.0,1997.0,2050.0,2033.0,19.0,-60.0,
2085.0,1958.0,2051.0,2051.0,19.0,-59.0,
2054.0,2070.0,2049.0,2055.0,19.0,-59.0,
2038.0,1965.0,2051.0,2044.0,19.0,-59.0,
2049.0,2027.0,2045.0,2075.0,20.0,-58.0,
2043.0,2048.0,2044.0,2064.0,20.0,-58.0,
2070.0,1966.0,2059.0,2053.0,20.0,-58.0,
2012.0,1984.0,2044.0,2007.0,20.0,-57.0,
2020.0,2025.0,2045.0,2049.0,21.0,-57.0,
2045.0,2051.0,2041.0,2069.0,21.0,-57.0,
2006.0,1985.0,2046.0,2046.0,21.0,-57.0,
2104.0,2011.0,2071.0,2054.0,21.0,-57.0,
2029.0,2002.0,2050.0,2042.0,21.0,-57.0,
2023.0,2079.0,2055.0,2065.0,21.0,-57.0,
2046.0,2005.0,2056.0,2055.0,22.0,-57.0,
2006.0,2030.0,2048.0,2034.0,22.0,-57.0,
2039.0,1936.0,2043.0,2060.0,22.0,-57.0,
2010.0,2058.0,2042.0,2062.0,22.0,-57.0,
2105.0,1964.0,2054.0,2046.0,22.0,-57.0,
2105.0,1999.0,2057.0,2028.0,22.0,-57.0,
2039.0,2025.0,2048.0,2055.0,22.0,-57.0,
2052.0,2014.0,2056.0,2030.0,23.0,-58.0,
2084.0,1978.0,2073.0,2025.0,23.0,-58.0,
2050.0,2029.0,2081.0,2050.0,23.0,-58.0,
1949.0,2036.0,2050.0,2044.0,23.0,-58.0,
2068.0,2067.0,2064.0,2046.0,23.0,-58.0,
1980.0,1987.0,2051.0,2040.0,23.0,-58.0,
2111.0,1980.0,2051.0,2121.0,23.0,-58.0,
1971.0,1933.0,2031.0,2038.0,23.0,-58.0,
2071.0,1949.0,2062.0,1984.0,23.0,-58.0,
2078.0,2003.0,2060.0,1992.0,24.0,-58.0,
2031.0,2052.0,2050.0,2021.0,24.0,-57.0,
2026.0,2052.0,2055.0,1996.0,24.0,-57.0,
1999.0,2010.0,2053.0,2029.0,24.0,-57.0,
1876.0,2057.0,2035.0,2051.0,24.0,-57.0,
2170.0,1931.0,2059.0,2048.0,24.0,-57.0,
2104.0,1993.0,2064.0,2101.0,24.0,-57.0,
1992.0,1921.0,2049.0,2021.0,25.0,-56.0,
2054.0,1967.0,2050.0,2032.0,25.0,-56.0,
2123.0,2017.0,2069.0,2073.0,25.0,-56.0,
2029.0,2036.0,2048.0,2071.0,25.0,-56.0,
1982.0,2125.0,2042.0,2064.0,25.0,-56.0,
2031.0,2003.0,2054.0,2045.0,26.0,-56.0,
2031.0,1958.0,2046.0,2022.0,26.0,-56.0,
2033.0,1986.0,2050.0,2053.0,26.0,-56.0,
2038.0,1999.0,2057.0,2010.0,0,0,
2079.0,2074.0,2062.0,2049.0,26.0,-56.0,
2008.0,2034.0,2029.0,2075.0,26.0,-56.0,
1828.0,2006.0,2000.0,2048.0,26.0,-56.0,
2072.0,2125.0,2042.0,2048.0,27.0,-56.0,
2080.0,2008.0,2090.0,2042.0,27.0,-57.0,
2192.0,1842.0,2084.0,2055.0,27.0,-57.0,
2090.0,2007.0,2063.0,2023.0,27.0,-57.0,
2077.0,1930.0,2096.0,2017.0,27.0,-57.0,
2105.0,2016.0,2087.0,2045.0,27.0,-57.0,
2021.0,2012.0,2062.0,2039.0,27.0,-57.0,
2010.0,2074.0,2055.0,2006.0,27.0,-57.0,
1961.0,2002.0,1958.0,2050.0,27.0,-57.0,
1978.0,2065.0,2004.0,2037.0,27.0,-57.0,
1978.0,2090.0,2144.0,2085.0,27.0,-57.0,
1983.0,1977.0,2023.0,2046.0,27.0,-57.0,
2104.0,1948.0,2048.0,2058.0,27.0,-57.0,
1986.0,1934.0,2053.0,1991.0,27.0,-57.0,
2023.0,1997.0,2101.0,1997.0,27.0,-57.0,
2051.0,2080.0,2082.0,2048.0,27.0,-57.0,
1887.0,1969.0,2034.0,2031.0,27.0,-57.0,
2067.0,1981.0,2061.0,2031.0,27.0,-56.0,
2088.0,2027.0,2068.0,2051.0,27.0,-56.0,
2043.0,1969.0,2058.0,2038.0,27.0,-56.0,
2055.0,2014.0,2055.0,2045.0,27.0,-56.0,
2004.0,2039.0,2050.0,2044.0,28.0,-56.0,
2061.0,2056.0,2058.0,2072.0,28.0,-56.0,
2041.0,1985.0,2054.0,2048.0,28.0,-56.0,
2031.0,2040.0,2043.0,2059.0,28.0,-56.0,
2062.0,2008.0,2043.0,2046.0,28.0,-56.0,
2012.0,1989.0,2043.0,2049.0,28.0,-56.0,
2058.0,2045.0,2057.0,2066.0,28.0,-56.0,
2037.0,1992.0,2059.0,2040.0,28.0,-56.0,
2023.0,2013.0,2053.0,2058.0,28.0,-56.0,
2054.0,2054.0,2055.0,2024.0,28.0,-56.0,
2004.0,2021.0,2043.0,2043.0,28.0,-56.0,
1983.0,1958.0,2032.0,2046.0,28.0,-56.0,
2058.0,1953.0,2059.0,2029.0,28.0,-56.0,
2060.0,2034.0,2065.0,2033.0,28.0,-57.0,
1953.0,1952.0,2041.0,2044.0,28.0,-57.0,
2036.0,1972.0,2064.0,2010.0,28.0,-57.0,
2049.0,1998.0,2054.0,2038.0,28.0,-57.0,
2078.0,2075.0,2047.0,2068.0,28.0,-57.0,
2028.0,2012.0,2037.0,2045.0,28.0,-57.0,
2041.0,2036.0,2046.0,2039.0,28.0,-57.0,
1973.0,2092.0,2037.0,2059.0,29.0,-58.0,
2042.0,1922.0,2064.0,2033.0,29.0,-58.0,
1984.0,2039.0,2050.0,2027.0,0,0,
1944.0,2004.0,2042.0,2053.0,29.0,-58.0,
2093.0,1950.0,2060.0,2060.0,29.0,-58.0,
2114.0,1945.0,2071.0,2035.0,29.0,-58.0,
2070.0,1985.0,2065.0,2021.0,29.0,-58.0,
2071.0,2032.0,2052.0,2051.0,29.0,-58.0,
2038.0,2076.0,2058.0,2053.0,29.0,-58.0,
1991.0,1942.0,2058.0,2003.0,29.0,-57.0,
1934.0,1983.0,2050.0,2024.0,29.0,-57.0,
2126.0,2050.0,2074.0,2055.0,29.0,-57.0,
2073.0,1969.0,2059.0,2077.0,29.0,-57.0,
1978.0,1975.0,2042.0,2054.0,29.0,-57.0,
1981.0,2002.0,2041.0,2007.0,29.0,-57.0,
2009.0,2019.0,2054.0,2003.0,29.0,-57.0,
2075.0,2057.0,2057.0,2068.0,29.0,-57.0,
2087.0,1985.0,2059.0,2049.0,29.0,-57.0,
2088.0,2026.0,2059.0,2047.0,29.0,-57.0,
2115.0,2104.0,2063.0,2080.0,29.0,-57.0,
1945.0,2000.0,2050.0,2063.0,29.0,-57.0,
1961.0,1914.0,2046.0,2016.0,29.0,-57.0,
1976.0,2051.0,2046.0,2015.0,29.0,-57.0,
2002.0,1984.0,2027.0,2010.0,29.0,-57.0,
2062.0,1975.0,2057.0,2018.0,29.0,-57.0,
2085.0,2026.0,2071.0,2073.0,29.0,-57.0,
2067.0,1988.0,2061.0,2055.0,29.0,-57.0,
2077.0,1982.0,2060.0,2026.0,29.0,-57.0,
2014.0,1980.0,2040.0,2040.0,29.0,-58.0,
2112.0,2022.0,2064.0,2042.0,29.0,-58.0,
2034.0,1997.0,2056.0,2043.0,29.0,-58.0,
2002.0,2076.0,2045.0,2067.0,29.0,-58.0,
1990.0,2011.0,2048.0,2042.0,29.0,-58.0,
2054.0,2025.0,2065.0,2070.0,29.0,-58.0,
2003.0,1956.0,2056.0,2069.0,29.0,-58.0,
2013.0,2009.0,2050.0,2056.0,29.0,-58.0,
2040.0,2070.0,2051.0,2029.0,29.0,-58.0,
1983.0,1986.0,2045.0,2035.0,30.0,-58.0,
2024.0,1980.0,2053.0,2036.0,29.0,-58.0,
2064.0,2039.0,2057.0,2046.0,30.0,-58.0,
2016.0,1980.0,2049.0,2040.0,30.0,-58.0,
2037.0,2018.0,2049.0,2059.0,30.0,-58.0,
2048.0,2029.0,2053.0,2036.0,30.0,-58.0,
2049.0,1995.0,2054.0,2042.0,30.0,-58.0,
2073.0,2012.0,2058.0,2058.0,30.0,-58.0,
2051.0,2053.0,2055.0,2039.0,30.0,-58.0,
2026.0,1972.0,2054.0,2043.0,30.0,-58.0,
2023.0,1987.0,2058.0,2027.0,30.0,-58.0,
2014.0,2063.0,2066.0,2049.0,29.0,-58.0,
2068.0,2093.0,2065.0,2069.0,30.0,-58.0,
2036.0,1976.0,2056.0,2041.0,29.0,-58.0,
2078.0,1933.0,2059.0,2007.0,29.0,-58.0,
2020.0,2004.0,2046.0,2034.0,29.0,-58.0,
2078.0,2024.0,2052.0,2072.0,29.0,-58.0,
1950.0,2029.0,2043.0,2022.0,30.0,-58.0,
2050.0,1971.0,2059.0,2034.0,30.0,-58.0,
2016.0,1926.0,2053.0,2008.0,29.0,-58.0,
2073.0,1990.0,2055.0,2044.0,29.0,-58.0,
2027.0,1970.0,2047.0,2041.0,29.0,-58.0,
2040.0,2032.0,2057.0,2019.0,29.0,-58.0,
2046.0,1971.0,2065.0,2023.0,29.0,-58.0,
2045.0,2077.0,2064.0,2078.0,29.0,-58.0,
2063.0,1956.0,2062.0,2026.0,30.0,-58.0,
1978.0,1982.0,2035.0,2020.0,30.0,-58.0,
2014.0,2029.0,2050.0,2033.0,30.0,-58.0,
2123.0,1986.0,2063.0,2039.0,30.0,-58.0,
2051.0,2070.0,2053.0,2056.0,30.0,-58.0,
1982.0,2020.0,2038.0,2044.0,0,0,
2007.0,2007.0,2053.0,2063.0,30.0,-58.0,
2001.0,1990.0,2046.0,2054.0,30.0,-58.0,
2053.0,2010.0,2051.0,2059.0,30.0,-57.0,
2052.0,2048.0,2048.0,2071.0,30.0,-57.0,
2087.0,2052.0,2067.0,2033.0,30.0,-57.0,
2069.0,2006.0,2066.0,2036.0,30.0,-57.0,
1987.0,1946.0,2054.0,2024.0,30.0,-57.0,
2000.0,1982.0,2049.0,2040.0,30.0,-57.0,
1997.0,2034.0,2047.0,2023.0,30.0,-57.0,
2012.0,2002.0,2053.0,2032.0,30.0,-58.0,
2071.0,2015.0,2065.0,2046.0,30.0,-58.0,
1843.0,2043.0,2016.0,2053.0,30.0,0,
2098.0,1988.0,2072.0,2061.0,30.0,-58.0,
2098.0,2014.0,2069.0,2045.0,30.0,-58.0,
2097.0,1991.0,2068.0,2042.0,29.0,-58.0,
1989.0,2012.0,2051.0,2037.0,29.0,-58.0,
1995.0,2025.0,2051.0,2038.0,29.0,-58.0,
2074.0,1999.0,2058.0,2045.0,29.0,-58.0,
2053.0,1981.0,2059.0,2040.0,29.0,-58.0,
2080.0,2034.0,2059.0,2038.0,29.0,-58.0,
2020.0,1948.0,2034.0,2038.0,29.0,-58.0,
2040.0,2044.0,2043.0,2072.0,29.0,-58.0,
1957.0,1993.0,2063.0,2005.0,29.0,-58.0,
1918.0,1993.0,2037.0,2019.0,29.0,-58.0,
2050.0,1940.0,2056.0,2034.0,29.0,-58.0,
2128.0,1999.0,2070.0,2079.0,30.0,-58.0,
2039.0,2097.0,2056.0,2046.0,30.0,-58.0,
2061.0,1990.0,2057.0,2054.0,30.0,-58.0,
2047.0,1949.0,2049.0,2030.0,30.0,-58.0,
2024.0,2003.0,2042.0,2053.0,30.0,-58.0,
2029.0,1989.0,2052.0,2005.0,30.0,-58.0,
2046.0,2013.0,2056.0,2020.0,30.0,-57.0,
2025.0,2019.0,2063.0,2018.0,30.0,-57.0,
2033.0,2087.0,2051.0,2049.0,30.0,-57.0,
2086.0,1975.0,2062.0,2033.0,30.0,-57.0,
2020.0,2035.0,2044.0,2039.0,30.0,-57.0,
2013.0,1997.0,2044.0,2045.0,30.0,-57.0,
2035.0,1997.0,2053.0,2044.0,30.0,-57.0,
2052.0,2047.0,2062.0,2073.0,30.0,-57.0,
2030.0,1971.0,2063.0,2056.0,30.0,-57.0,
2017.0,2023.0,2054.0,2055.0,30.0,-57.0,
1997.0,2060.0,2056.0,2051.0,30.0,-57.0,
2018.0,1985.0,2044.0,2048.0,30.0,-58.0,
2102.0,1945.0,2068.0,2023.0,30.0,-58.0,
2030.0,2033.0,2053.0,2035.0,30.0,-58.0,
1987.0,2037.0,2039.0,2061.0,30.0,-58.0,
2069.0,2071.0,2059.0,2056.0,30.0,-58.0,
1969.0,1935.0,2044.0,2061.0,30.0,-58.0,
1982.0,2082.0,2045.0,2038.0,30.0,-58.0,
2061.0,1910.0,2064.0,2022.0,30.0,-58.0,
2057.0,2026.0,2059.0,2037.0,30.0,-58.0,
1989.0,2022.0,2043.0,2035.0,30.0,-58.0,
2040.0,1995.0,2051.0,2041.0,30.0,-58.0,
2051.0,2064.0,2046.0,2042.0,30.0,-58.0,
2016.0,2042.0,2045.0,2068.0,30.0,-58.0,
2038.0,2034.0,2057.0,2045.0,30.0,-58.0,
2060.0,1971.0,2065.0,2010.0,30.0,-58.0,
2030.0,1987.0,2059.0,2037.0,30.0,-57.0,
2045.0,2036.0,2055.0,2048.0,30.0,-57.0,
2039.0,2030.0,2047.0,2067.0,30.0,-57.0,
2005.0,1993.0,2047.0,2034.0,30.0,-57.0,
2001.0,1991.0,2049.0,2012.0,30.0,-57.0,
2074.0,2039.0,2061.0,2036.0,30.0,-57.0,
2069.0,1958.0,2071.0,2049.0,30.0,-57.0,
1984.0,2009.0,2054.0,2025.0,30.0,-57.0,
2094.0,1987.0,2064.0,2022.0,30.0,-57.0,
2027.0,2030.0,2045.0,2061.0,30.0,-57.0,
2013.0,2009.0,2047.0,2037.0,30.0,-57.0,
2034.0,2033.0,2055.0,2022.0,30.0,-57.0,
2041.0,1993.0,2055.0,2033.0,30.0,-57.0,
2025.0,2040.0,2046.0,2076.0,30.0,-57.0,
2021.0,1955.0,2054.0,2042.0,30.0,-57.0,
2046.0,1976.0,2057.0,2043.0,30.0,-57.0,
2050.0,2028.0,2056.0,2036.0,30.0,-57.0,
2048.0,2014.0,2059.0,2045.0,30.0,-57.0,
1994.0,2015.0,2048.0,2050.0,30.0,-57.0,
1969.0,2018.0,2039.0,2039.0,30.0,-57.0,
2097.0,2018.0,2063.0,2042.0,30.0,-57.0,
1963.0,2040.0,2047.0,2044.0,30.0,-57.0,
2077.0,1950.0,2057.0,2045.0,30.0,-57.0,
2069.0,1989.0,2061.0,2043.0,30.0,-58.0,
2059.0,2061.0,2056.0,2068.0,30.0,-58.0,
2038.0,2019.0,2061.0,2030.0,30.0,-58.0,
2026.0,2033.0,2057.0,2059.0,30.0,-58.0,
2032.0,1943.0,2053.0,2086.0,30.0,-58.0,
2033.0,1974.0,2054.0,2027.0,30.0,-58.0,
2011.0,1995.0,2044.0,2009.0,30.0,-58.0,
2021.0,2013.0,2036.0,2033.0,30.0,-58.0,
2075.0,2033.0,2074.0,2044.0,30.0,-58.0,
2065.0,2032.0,2052.0,2051.0,30.0,-58.0,
2059.0,2018.0,2054.0,2053.0,30.0,-58.0,
2012.0,2041.0,2042.0,2056.0,30.0,-58.0,
2091.0,1991.0,2061.0,2103.0,30.0,-58.0,
2027.0,1946.0,2062.0,2020.0,30.0,-58.0,
2045.0,1970.0,2060.0,2030.0,30.0,-58.0,
1930.0,2008.0,2040.0,2030.0,30.0,-58.0,
2079.0,2002.0,2061.0,2024.0,30.0,-58.0,
2078.0,2021.0,2076.0,2054.0,30.0,-58.0,
2037.0,2048.0,2051.0,2054.0,30.0,-58.0,
1986.0,1965.0,2043.0,2041.0,30.0,-57.0,
1994.0,2049.0,2058.0,2051.0,30.0,-57.0,
1977.0,1921.0,2045.0,2026.0,30.0,-57.0,
2102.0,2060.0,2078.0,2050.0,30.0,-57.0,
2027.0,1969.0,2050.0,2044.0,30.0,-57.0,
1996.0,1983.0,2038.0,2049.0,30.0,-57.0,
2021.0,2114.0,2051.0,2032.0,30.0,-57.0,
2007.0,1943.0,2055.0,2070.0,30.0,-57.0,
2062.0,1967.0,2056.0,2020.0,30.0,-57.0,
2086.0,1990.0,2069.0,2030.0,30.0,-57.0,
2086.0,2012.0,2063.0,2018.0,30.0,-57.0,
2054.0,2036.0,2056.0,2041.0,30.0,-57.0,
1999.0,2009.0,2049.0,2022.0,30.0,-57.0,
2000.0,2019.0,2032.0,2042.0,30.0,-57.0,
2068.0,2036.0,2057.0,2054.0,30.0,-57.0,
2029.0,1979.0,2054.0,2038.0,30.0,-57.0,
2056.0,2022.0,2050.0,2073.0,30.0,-57.0,
2050.0,2030.0,2058.0,2017.0,30.0,-57.0,
1999.0,1990.0,2054.0,2030.0,30.0,-57.0,
2024.0,2011.0,2051.0,2047.0,30.0,-57.0,
1936.0,2010.0,2039.0,2042.0,30.0,-57.0,
2013.0,2000.0,2046.0,2039.0,30.0,-57.0,
1989.0,1998.0,2044.0,2032.0,30.0,-57.0,
2028.0,1965.0,2055.0,2041.0,30.0,-57.0,
2104.0,1997.0,2063.0,2055.0,30.0,-57.0,
2032.0,2036.0,2052.0,2030.0,30.0,-57.0,
2084.0,1998.0,2068.0,2014.0,30.0,-58.0,
2024.0,2034.0,2053.0,2029.0,30.0,-58.0,
2062.0,1974.0,2050.0,2051.0,30.0,-58.0,
1985.0,2045.0,2045.0,2087.0,30.0,-58.0,
1992.0,1962.0,2057.0,2070.0,30.0,-58.0,
2065.0,1966.0,2071.0,2035.0,30.0,-58.0,
2111.0,2024.0,2059.0,2035.0,30.0,-58.0,
2068.0,1985.0,2063.0,2045.0,30.0,-58.0,
2053.0,2017.0,2055.0,2054.0,30.0,-58.0,
2033.0,2022.0,2058.0,2076.0,30.0,-58.0,
2037.0,2013.0,2056.0,2082.0,30.0,-58.0,
1995.0,1984.0,2045.0,2020.0,30.0,-58.0,
2004.0,1985.0,2044.0,2014.0,30.0,-58.0,
2052.0,1978.0,2058.0,2013.0,30.0,-58.0,
2075.0,2036.0,2048.0,2054.0,30.0,-58.0,
2008.0,1991.0,2056.0,2041.0,30.0,-58.0,
1963.0,2040.0,2044.0,2040.0,30.0,-58.0,
2016.0,2006.0,2055.0,2052.0,30.0,-57.0,
2051.0,2023.0,2047.0,2038.0,30.0,-57.0,
1998.0,2125.0,2044.0,2046.0,30.0,-57.0,
2055.0,1996.0,2055.0,2026.0,30.0,-57.0,
2075.0,1978.0,2058.0,2053.0,30.0,-57.0,
2052.0,1991.0,2058.0,2019.0,30.0,-57.0,
1996.0,1994.0,2043.0,2033.0,30.0,-57.0,
2105.0,1937.0,2069.0,2026.0,30.0,-57.0,
2097.0,2059.0,2061.0,2066.0,30.0,-57.0,
2009.0,2003.0,2055.0,2045.0,30.0,-57.0,
2065.0,2000.0,2068.0,2046.0,30.0,-57.0,
2003.0,2028.0,2044.0,2042.0,30.0,-57.0,
2042.0,2022.0,2046.0,2045.0,30.0,-57.0,
2025.0,2011.0,2045.0,2044.0,0,0,
1995.0,2021.0,2045.0,2040.0,30.0,-57.0,
2019.0,2047.0,2067.0,2049.0,30.0,-56.0,
2016.0,2011.0,2062.0,2051.0,30.0,-56.0,
2010.0,1995.0,2056.0,2035.0,30.0,-56.0,
2037.0,2037.0,2047.0,2051.0,30.0,-57.0,
2015.0,2009.0,2052.0,2045.0,30.0,-57.0,
2013.0,2020.0,2044.0,2056.0,30.0,-57.0,
2060.0,1981.0,2062.0,2056.0,30.0,-57.0,
1987.0,1951.0,2040.0,2024.0,30.0,-57.0,
2003.0,1968.0,2052.0,2020.0,30.0,-57.0,
2008.0,2085.0,2043.0,2069.0,30.0,-57.0,
2054.0,1956.0,2067.0,2035.0,30.0,-57.0,
2036.0,1960.0,2058.0,2038.0,30.0,-57.0,
2057.0,1989.0,2057.0,2038.0,30.0,-57.0,
2051.0,2023.0,2058.0,2045.0,30.0,-57.0,
2033.0,2013.0,2055.0,2011.0,30.0,-57.0,
2009.0,2006.0,2050.0,2026.0,30.0,-57.0,
2081.0,2057.0,2062.0,2052.0,30.0,-57.0,
2012.0,2077.0,2057.0,2058.0,30.0,-57.0,
2007.0,1910.0,2051.0,2009.0,30.0,-57.0,
2016.0,1970.0,2051.0,2065.0,30.0,-57.0,
2073.0,2044.0,2063.0,2060.0,30.0,-57.0,
2039.0,1940.0,2053.0,2070.0,30.0,-57.0,
1996.0,2018.0,2049.0,2035.0,30.0,-57.0,
2039.0,1984.0,2053.0,2045.0,30.0,-57.0,
2094.0,1980.0,2078.0,2039.0,30.0,-57.0,
2011.0,2020.0,2047.0,2033.0,30.0,-57.0,
2017.0,2019.0,2048.0,2027.0,30.0,-57.0,
2087.0,1987.0,2064.0,2059.0,30.0,0,
2046.0,2016.0,2059.0,2043.0,30.0,-57.0,
2057.0,2069.0,2059.0,2065.0,30.0,-57.0,
1945.0,2031.0,2044.0,2028.0,30.0,-57.0,
2097.0,2007.0,2067.0,2046.0,30.0,-57.0,
2015.0,1936.0,2046.0,2001.0,30.0,-57.0,
2127.0,2074.0,2058.0,2045.0,30.0,-57.0,
2049.0,2029.0,2064.0,2047.0,30.0,-57.0,
2023.0,1940.0,2063.0,2026.0,30.0,-57.0,
2041.0,2016.0,2056.0,2026.0,30.0,-57.0,
1964.0,2005.0,2044.0,2001.0,30.0,-57.0,
2045.0,2005.0,2059.0,2031.0,30.0,-57.0,
2017.0,2069.0,2044.0,2081.0,30.0,-57.0,
1999.0,2145.0,2046.0,2054.0,30.0,-57.0,
2037.0,1920.0,2059.0,2037.0,30.0,-57.0,
2032.0,1957.0,2060.0,2027.0,30.0,-57.0,
2046.0,1975.0,2062.0,2014.0,30.0,-57.0,
2020.0,2003.0,2045.0,2021.0,30.0,-57.0,
2107.0,2058.0,2076.0,2059.0,30.0,-57.0,
1962.0,1965.0,2050.0,2040.0,30.0,-57.0,
2018.0,2005.0,2058.0,2035.0,30.0,-57.0,
2031.0,2016.0,2055.0,2034.0,30.0,-57.0,
2094.0,2048.0,2062.0,2071.0,30.0,-57.0,
1969.0,1992.0,2044.0,2037.0,30.0,-57.0,
2033.0,2006.0,2060.0,2016.0,30.0,-57.0,
2022.0,1993.0,2054.0,2021.0,30.0,-57.0,
2055.0,1973.0,2044.0,2043.0,30.0,-57.0,
2031.0,2003.0,2044.0,2051.0,30.0,-57.0,
1994.0,2045.0,2037.0,2083.0,30.0,-57.0,
2022.0,1937.0,2041.0,2090.0,30.0,-57.0,
2068.0,1969.0,2065.0,2064.0,30.0,-57.0,
2015.0,2041.0,2054.0,2066.0,30.0,-57.0,
2007.0,1976.0,2053.0,2040.0,30.0,-57.0,
2050.0,2011.0,2060.0,2040.0,30.0,-57.0,
2041.0,2030.0,2052.0,2040.0,30.0,-57.0,
2085.0,2022.0,2058.0,2054.0,30.0,-57.0,
2029.0,2051.0,2046.0,2037.0,30.0,-57.0,
2020.0,2058.0,2036.0,2034.0,30.0,-57.0,
1968.0,1959.0,2044.0,2027.0,30.0,-57.0,
2049.0,2008.0,2057.0,2059.0,30.0,-57.0,
1973.0,1990.0,2056.0,2058.0,30.0,-57.0,
1969.0,2031.0,2054.0,2039.0,30.0,-57.0,
1861.0,2016.0,2037.0,2022.0,30.0,-57.0,
1983.0,2002.0,2045.0,2039.0,30.0,-57.0,
2072.0,2002.0,2052.0,2027.0,30.0,-57.0,
2144.0,1939.0,2066.0,2044.0,30.0,-57.0,
2162.0,1985.0,2064.0,2042.0,30.0,-57.0,
2150.0,2019.0,2069.0,2006.0,30.0,-57.0,
2099.0,1969.0,2060.0,2030.0,30.0,-57.0,
2023.0,2046.0,2050.0,2069.0,30.0,-57.0,
2059.0,1988.0,2056.0,2051.0,30.0,-57.0,
2058.0,2014.0,2059.0,2062.0,30.0,-57.0,
2179.0,1965.0,2078.0,2048.0,30.0,-57.0,
2005.0,1983.0,2040.0,2057.0,30.0,-57.0,
1987.0,2054.0,2050.0,2044.0,30.0,-57.0,
1961.0,2009.0,2057.0,2018.0,30.0,-57.0,
1966.0,1981.0,2057.0,2046.0,30.0,-57.0,
1962.0,1995.0,2044.0,1992.0,30.0,-57.0,
1985.0,1971.0,2051.0,2028.0,30.0,-57.0,
2072.0,2010.0,2057.0,2045.0,30.0,-57.0,
2047.0,2003.0,2053.0,2034.0,30.0,-57.0,
2021.0,2037.0,2040.0,2023.0,30.0,-57.0,
2049.0,2020.0,2066.0,2031.0,30.0,-57.0,
1996.0,2013.0,2053.0,2037.0,30.0,-57.0,
1966.0,2043.0,2053.0,2063.0,30.0,-57.0,
2076.0,2089.0,2066.0,2031.0,0,0,
2071.0,2007.0,2066.0,2059.0,30.0,-57.0,
1984.0,1970.0,2040.0,2040.0,30.0,-57.0,
1967.0,1960.0,2046.0,2033.0,30.0,-57.0,
2062.0,1973.0,2057.0,2034.0,30.0,-57.0,
2062.0,2027.0,2061.0,2051.0,30.0,-57.0,
2056.0,2054.0,2061.0,2078.0,30.0,-57.0,
1999.0,2096.0,2043.0,2104.0,30.0,-57.0,
1967.0,1902.0,2045.0,2034.0,30.0,-57.0,
2004.0,2022.0,2044.0,2054.0,30.0,-57.0,
2019.0,2020.0,2042.0,2062.0,30.0,-57.0,
2119.0,1980.0,2056.0,2036.0,30.0,-57.0,
2076.0,1974.0,2056.0,2019.0,30.0,-57.0,
2127.0,2015.0,2076.0,2021.0,30.0,-57.0,
2022.0,2004.0,2057.0,2030.0,30.0,-57.0,
2053.0,2076.0,2069.0,2061.0,30.0,-57.0,
2072.0,2007.0,2065.0,2041.0,30.0,-57.0,
1978.0,2004.0,2044.0,2099.0,30.0,-57.0,
2048.0,1959.0,2059.0,2053.0,30.0,-57.0,
2008.0,2028.0,2058.0,2029.0,30.0,-57.0,
2027.0,1982.0,2050.0,1999.0,30.0,-57.0,
2006.0,2044.0,2040.0,1985.0,30.0,-57.0,
1980.0,2067.0,2042.0,2039.0,30.0,-57.0,
2046.0,2022.0,2055.0,2048.0,30.0,-57.0,
2118.0,1921.0,2067.0,2075.0,30.0,-57.0,
2020.0,1958.0,2052.0,2088.0,30.0,-57.0,
2073.0,1989.0,2059.0,2028.0,30.0,-57.0,
2019.0,2004.0,2050.0,2055.0,30.0,-57.0,
2022.0,2035.0,2050.0,2067.0,30.0,-57.0,
1993.0,2053.0,2048.0,2056.0,30.0,-57.0,
2040.0,1948.0,2060.0,2004.0,30.0,-57.0,
2039.0,2005.0,2057.0,2030.0,30.0,-57.0,
2010.0,2017.0,2051.0,2026.0,30.0,-57.0,
1997.0,1992.0,2045.0,2050.0,30.0,-57.0,
2050.0,2042.0,2063.0,2036.0,30.0,-57.0,
2045.0,2019.0,2056.0,2056.0,30.0,-57.0,
2030.0,1942.0,2051.0,2041.0,30.0,-57.0,
2046.0,1999.0,2053.0,2024.0,30.0,-57.0,
2016.0,2011.0,2039.0,2020.0,30.0,-57.0,
2029.0,2040.0,2053.0,2037.0,30.0,-57.0,
2107.0,2032.0,2069.0,2041.0,30.0,-57.0,
2002.0,1977.0,2055.0,2033.0,30.0,-57.0,
1959.0,2021.0,2037.0,2044.0,30.0,-57.0,
2005.0,2025.0,2053.0,2049.0,30.0,-57.0,
2072.0,1999.0,2050.0,2067.0,30.0,-57.0,
1988.0,2122.0,2048.0,2041.0,30.0,-57.0,
2073.0,1876.0,2062.0,2024.0,30.0,-57.0,
2042.0,1952.0,2055.0,2044.0,30.0,-57.0,
2066.0,2007.0,2066.0,2046.0,30.0,-57.0,
1993.0,1999.0,2053.0,2034.0,30.0,-57.0,
2019.0,2067.0,2057.0,2045.0,30.0,-57.0,
2037.0,2014.0,2049.0,2061.0,30.0,-57.0,
2057.0,1955.0,2062.0,2011.0,30.0,-57.0,
2043.0,1994.0,2058.0,2038.0,30.0,-57.0,
2041.0,2128.0,2048.0,2064.0,30.0,-57.0,
1957.0,2012.0,2041.0,2043.0,30.0,-57.0,
2092.0,1942.0,2062.0,2047.0,30.0,-57.0,
2049.0,1974.0,2054.0,2044.0,30.0,-57.0,
1995.0,1944.0,2040.0,2013.0,30.0,-57.0,
2053.0,1977.0,2056.0,2013.0,30.0,-57.0,
2021.0,2041.0,2052.0,2051.0,30.0,-57.0,
2093.0,2004.0,2074.0,2062.0,30.0,-57.0,
1997.0,2028.0,2049.0,2040.0,30.0,-57.0,
1986.0,2003.0,2046.0,2041.0,30.0,-57.0,
2077.0,2011.0,2061.0,2016.0,30.0,-57.0,
2034.0,1982.0,2055.0,2065.0,30.0,-56.0,
1893.0,2014.0,2031.0,2064.0,30.0,-56.0,
2091.0,2034.0,2056.0,2101.0,30.0,-56.0,
2063.0,2044.0,2048.0,2054.0,30.0,-56.0,
2012.0,1910.0,2044.0,2048.0,30.0,-56.0,
2080.0,2057.0,2072.0,2035.0,0,0,
2045.0,2002.0,2054.0,2034.0,30.0,-56.0,
2021.0,1927.0,2056.0,2026.0,30.0,-56.0,
2052.0,2007.0,2062.0,2032.0,30.0,-56.0,
2019.0,2022.0,2053.0,2030.0,30.0,-56.0,
2024.0,1998.0,2054.0,2012.0,30.0,-56.0,
2024.0,2053.0,2047.0,2026.0,30.0,-56.0,
2029.0,1991.0,2053.0,2014.0,30.0,-56.0,
2054.0,2011.0,2057.0,2028.0,30.0,-56.0,
2078.0,2003.0,2056.0,2040.0,30.0,-56.0,
1916.0,2043.0,2023.0,2078.0,30.0,-56.0,
2110.0,1975.0,2059.0,2050.0,30.0,-56.0,
1989.0,1983.0,2044.0,2014.0,30.0,-56.0,
2045.0,2053.0,2055.0,2050.0,30.0,-56.0,
2033.0,1981.0,2058.0,2029.0,30.0,-56.0,
2040.0,2009.0,2064.0,2044.0,30.0,-56.0,
1986.0,1998.0,2047.0,2037.0,30.0,-56.0,
2058.0,1998.0,2062.0,2050.0,30.0,-56.0,
2034.0,2048.0,2062.0,2055.0,30.0,-56.0,
2040.0,2016.0,2065.0,2019.0,0,0,
1984.0,2030.0,2049.0,1987.0,30.0,-56.0,
2099.0,2024.0,2068.0,2031.0,30.0,-56.0,
1991.0,2005.0,2049.0,2026.0,30.0,-56.0,
2041.0,1961.0,2058.0,2109.0,30.0,-56.0,
2050.0,1989.0,2047.0,2132.0,30.0,-56.0,
2056.0,1947.0,2052.0,2057.0,30.0,-56.0,
2056.0,1990.0,2052.0,2029.0,30.0,-56.0,
2042.0,1975.0,2045.0,2044.0,30.0,-56.0,
2006.0,2044.0,2049.0,2038.0,30.0,-56.0,
2038.0,2031.0,2056.0,2045.0,30.0,-56.0,
2004.0,1961.0,2047.0,2044.0,30.0,-56.0,
1929.0,2049.0,2047.0,2032.0,30.0,-56.0,
2098.0,1965.0,2074.0,2051.0,30.0,-56.0,
2054.0,1986.0,2056.0,2023.0,30.0,-56.0,
2042.0,2057.0,2052.0,2034.0,30.0,0,
2040.0,2053.0,2043.0,2050.0,30.0,-56.0,
2043.0,1998.0,2050.0,1992.0,30.0,-56.0,
2079.0,1959.0,2058.0,2048.0,30.0,-56.0,
2067.0,1997.0,2065.0,2051.0,30.0,-56.0,
2066.0,1984.0,2062.0,2045.0,30.0,-56.0,
2057.0,2077.0,2058.0,2064.0,30.0,-56.0,
2003.0,2048.0,2052.0,2056.0,30.0,-56.0,
2011.0,1999.0,2045.0,2037.0,30.0,-56.0,
2024.0,1948.0,2048.0,2043.0,30.0,-56.0,
2001.0,2014.0,2047.0,2062.0,30.0,-56.0,
2056.0,2009.0,2059.0,2027.0,30.0,-56.0,
1981.0,2004.0,2039.0,2022.0,30.0,-56.0,
2086.0,1946.0,2068.0,2017.0,30.0,-57.0,
2045.0,1955.0,2055.0,2024.0,30.0,-57.0,
2001.0,2016.0,2051.0,2046.0,30.0,-57.0,
1986.0,1976.0,2043.0,2031.0,30.0,-57.0,
2071.0,2032.0,2057.0,2044.0,30.0,-57.0,
2058.0,2014.0,2057.0,2018.0,30.0,-57.0,
2024.0,1996.0,2048.0,2024.0,30.0,-57.0,
2061.0,2045.0,2060.0,2071.0,30.0,-57.0,
2071.0,2080.0,2073.0,2026.0,30.0,-57.0,
1954.0,1971.0,2046.0,2008.0,30.0,-57.0,
2019.0,1986.0,2052.0,2037.0,30.0,-57.0,
2087.0,2043.0,2058.0,2069.0,30.0,-57.0,
2034.0,1880.0,2059.0,2025.0,30.0,-57.0,
2085.0,1987.0,2056.0,2108.0,30.0,-57.0,
2029.0,1986.0,2045.0,2048.0,30.0,-57.0,
2014.0,1988.0,2056.0,1994.0,30.0,-57.0,
2034.0,2002.0,2066.0,2017.0,30.0,-57.0,
2041.0,2024.0,2072.0,2061.0,30.0,-57.0,
2027.0,2021.0,2057.0,2078.0,30.0,-57.0,
2030.0,1989.0,2053.0,2064.0,30.0,-57.0,
2043.0,2033.0,2052.0,2052.0,30.0,-57.0,
2006.0,2019.0,2046.0,2033.0,30.0,-57.0,
2028.0,2034.0,2062.0,2036.0,30.0,-57.0,
2001.0,2027.0,2052.0,2027.0,30.0,-57.0,
2024.0,2025.0,2058.0,2027.0,30.0,-57.0,
2038.0,1989.0,2060.0,2034.0,30.0,-57.0,
2022.0,1998.0,2055.0,2019.0,0,0,
2060.0,1961.0,2063.0,2039.0,30.0,-57.0,
2080.0,2048.0,2059.0,2061.0,30.0,-57.0,
2010.0,1964.0,2051.0,2074.0,30.0,-57.0,
1987.0,2029.0,2049.0,2065.0,30.0,-57.0,
2022.0,1945.0,2057.0,2075.0,30.0,-56.0,
2048.0,1986.0,2050.0,2005.0,30.0,-56.0,
2064.0,2021.0,2062.0,1994.0,30.0,-56.0,
2056.0,2038.0,2055.0,2033.0,30.0,-56.0,
2077.0,1979.0,2062.0,2054.0,30.0,-56.0,
2000.0,2000.0,2056.0,2045.0,30.0,-56.0,
2059.0,2008.0,2053.0,2043.0,30.0,-56.0,
2062.0,1997.0,2056.0,2055.0,30.0,-56.0,
1987.0,1986.0,2043.0,2040.0,30.0,-56.0,
2017.0,2033.0,2051.0,2022.0,30.0,-56.0,
2022.0,2003.0,2055.0,2017.0,30.0,-56.0,
2051.0,1991.0,2055.0,2050.0,30.0,-56.0,
2079.0,2123.0,2058.0,2091.0,30.0,-56.0,
1979.0,1895.0,2054.0,2033.0,30.0,-56.0,
2018.0,2001.0,2056.0,2038.0,30.0,-56.0,
1993.0,1998.0,2043.0,2034.0,30.0,-56.0,
1990.0,2052.0,2053.0,2073.0,30.0,-56.0,
2038.0,2008.0,2052.0,2052.0,30.0,-55.0,
1995.0,2014.0,2044.0,2026.0,30.0,-55.0,
2037.0,1999.0,2048.0,2036.0,30.0,-55.0,
2063.0,2020.0,2061.0,2006.0,30.0,0,
2030.0,2006.0,2058.0,2007.0,30.0,-55.0,
2018.0,2043.0,2058.0,2042.0,30.0,-55.0,
2002.0,1973.0,2053.0,2043.0,30.0,-55.0,
2071.0,1931.0,2067.0,2057.0,30.0,-55.0,
2058.0,2039.0,2061.0,2108.0,30.0,-56.0,
2000.0,1983.0,2051.0,2036.0,30.0,-56.0,
2035.0,1992.0,2057.0,2031.0,30.0,-56.0,
2052.0,2028.0,2053.0,2041.0,30.0,-56.0,
2007.0,2037.0,2042.0,2049.0,30.0,-56.0,
2041.0,1969.0,2059.0,2049.0,30.0,-56.0,
2023.0,2031.0,2044.0,2070.0,30.0,-56.0,
2059.0,1998.0,2059.0,2050.0,30.0,-56.0,
1998.0,2015.0,2052.0,2042.0,30.0,-56.0,
2029.0,2047.0,2049.0,2045.0,30.0,-56.0,
2030.0,2002.0,2051.0,2029.0,30.0,-56.0,
2027.0,2080.0,2044.0,2040.0,30.0,-56.0,
2012.0,2014.0,2044.0,2034.0,0,0,
2103.0,1950.0,2071.0,2038.0,30.0,-56.0,
2066.0,1995.0,2062.0,2032.0,30.0,-56.0,
2046.0,1958.0,2061.0,2028.0,30.0,-56.0,
2051.0,1970.0,2057.0,2052.0,30.0,-56.0,
2057.0,1997.0,2056.0,2096.0,30.0,-56.0,
2017.0,2020.0,2057.0,2057.0,30.0,-56.0,
2036.0,2035.0,2052.0,2022.0,30.0,0,
2003.0,2068.0,2050.0,2029.0,30.0,-56.0,
2008.0,2004.0,2052.0,2012.0,30.0,-56.0,
2031.0,2001.0,2050.0,2036.0,30.0,-56.0,
2032.0,1998.0,2053.0,2055.0,30.0,-56.0,
2002.0,1982.0,2039.0,2039.0,30.0,-56.0,
2009.0,1990.0,2046.0,2048.0,30.0,-56.0,
2003.0,1950.0,2048.0,2033.0,30.0,-56.0,
1986.0,2009.0,2047.0,2047.0,30.0,-56.0,
2030.0,2027.0,2053.0,2033.0,30.0,-56.0,
2072.0,2031.0,2056.0,2032.0,0,0,
2082.0,1985.0,2063.0,2068.0,30.0,-56.0,
2059.0,2007.0,2067.0,2043.0,30.0,-56.0,
1960.0,2007.0,2045.0,2006.0,30.0,-56.0,
2091.0,1990.0,2079.0,2012.0,30.0,-56.0,
2095.0,2017.0,2070.0,2049.0,30.0,-56.0,
1999.0,1942.0,2040.0,2025.0,30.0,-56.0,
2039.0,1987.0,2053.0,2050.0,30.0,-56.0,
2024.0,2060.0,2049.0,2061.0,30.0,-56.0,
1979.0,1995.0,2038.0,2031.0,30.0,-56.0,
2050.0,1985.0,2062.0,2009.0,30.0,-56.0,
2055.0,2032.0,2062.0,2007.0,30.0,-56.0,
2065.0,2060.0,2060.0,2028.0,30.0,-56.0,
2020.0,2060.0,2047.0,2021.0,30.0,-56.0,
2022.0,1994.0,2043.0,2020.0,30.0,-56.0,
2036.0,2062.0,2053.0,2053.0,30.0,-56.0,
1984.0,1895.0,2048.0,2075.0,30.0,-56.0,
2031.0,1923.0,2055.0,2099.0,30.0,-56.0,
2017.0,1955.0,2057.0,2088.0,30.0,-56.0,
2037.0,2035.0,2063.0,2089.0,30.0,-56.0,
2056.0,2051.0,2058.0,2061.0,30.0,-56.0,
2028.0,1989.0,2052.0,2049.0,0,0,
2023.0,2027.0,2060.0,2055.0,30.0,-56.0,
2001.0,1979.0,2056.0,2037.0,30.0,-56.0,
2065.0,2043.0,2053.0,2039.0,30.0,-56.0,
2015.0,2049.0,2029.0,2037.0,30.0,-56.0,
2047.0,1976.0,2062.0,2041.0,30.0,-56.0,
1961.0,2007.0,2042.0,1997.0,30.0,-56.0,
2050.0,2049.0,2062.0,2039.0,30.0,-56.0,
2108.0,2048.0,2067.0,2041.0,30.0,-56.0,
2029.0,1984.0,2050.0,2026.0,30.0,-56.0,
2059.0,1970.0,2059.0,2046.0,30.0,-56.0,
2045.0,1978.0,2055.0,2055.0,30.0,-56.0,
2016.0,2012.0,2049.0,2050.0,30.0,-56.0,
2068.0,2061.0,2061.0,2061.0,30.0,-56.0,
1980.0,2020.0,2054.0,2033.0,30.0,-56.0,
2055.0,1930.0,2063.0,2016.0,30.0,-56.0,
1987.0,2042.0,2043.0,2042.0,30.0,-56.0,
2061.0,2007.0,2060.0,2032.0,30.0,-56.0,
2046.0,1993.0,2061.0,2040.0,30.0,-56.0,
2083.0,2063.0,2068.0,2038.0,30.0,-56.0,
2042.0,2028.0,2050.0,2055.0,30.0,-56.0,
1974.0,2031.0,2039.0,2043.0,30.0,-56.0,
2111.0,2026.0,2063.0,2069.0,30.0,-56.0,
1976.0,1966.0,2045.0,2013.0,30.0,-56.0,
2060.0,1975.0,2062.0,2082.0,30.0,-56.0,
2009.0,2002.0,2048.0,2044.0,30.0,-56.0,
2010.0,1973.0,2051.0,2043.0,30.0,-56.0,
2043.0,2104.0,2063.0,2050.0,30.0,-56.0,
2015.0,1916.0,2055.0,1997.0,30.0,-56.0,
2021.0,1971.0,2061.0,2030.0,30.0,-56.0,
2028.0,2024.0,2062.0,2020.0,30.0,-56.0,
2033.0,2000.0,2054.0,2023.0,30.0,-56.0,
2091.0,2043.0,2059.0,2093.0,30.0,-56.0,
1957.0,2034.0,2035.0,2029.0,30.0,-56.0,
1966.0,2026.0,2022.0,2047.0,0,0,
2001.0,2035.0,2044.0,2056.0,30.0,-56.0,
2081.0,1973.0,2056.0,2042.0,30.0,-56.0,
2082.0,1929.0,2071.0,2059.0,30.0,-56.0,
2010.0,1974.0,2055.0,2060.0,30.0,-56.0,
2013.0,2030.0,2069.0,2046.0,30.0,-56.0,
2055.0,2076.0,2061.0,2038.0,30.0,-56.0,
2027.0,1995.0,2049.0,2021.0,30.0,-56.0,
2043.0,2053.0,2045.0,2027.0,30.0,-56.0,
2020.0,1992.0,2043.0,2019.0,30.0,-56.0,
2013.0,2004.0,2055.0,2025.0,30.0,-56.0,
2032.0,2050.0,2063.0,2049.0,30.0,-56.0,
2005.0,1998.0,2058.0,2030.0,30.0,-56.0,
2051.0,2023.0,2055.0,2017.0,30.0,-56.0,
2018.0,2011.0,2048.0,2058.0,30.0,-56.0,
2037.0,2090.0,2053.0,2073.0,30.0,-56.0,
2068.0,2072.0,2059.0,2074.0,30.0,-56.0,
1978.0,1913.0,2049.0,2043.0,30.0,-56.0,
2000.0,1981.0,2057.0,2025.0,30.0,-56.0,
2015.0,2016.0,2054.0,2018.0,30.0,-56.0,
2041.0,2015.0,2054.0,2000.0,30.0,-56.0,
2071.0,2058.0,2061.0,2021.0,30.0,-56.0,
2046.0,1951.0,2047.0,2036.0,30.0,-56.0,
2093.0,2002.0,2058.0,2116.0,30.0,-56.0,
2021.0,2008.0,2058.0,2088.0,30.0,-56.0,
1978.0,1968.0,2048.0,2085.0,30.0,-56.0,
2079.0,1952.0,2058.0,2048.0,30.0,-56.0,
2048.0,2009.0,2049.0,2064.0,30.0,-56.0,
2031.0,2072.0,2062.0,2035.0,30.0,-56.0,
2039.0,2052.0,2061.0,2074.0,30.0,-56.0,
1959.0,1926.0,2058.0,2019.0,30.0,-56.0,
2047.0,1994.0,2067.0,2018.0,30.0,-56.0,
2046.0,2029.0,2055.0,2020.0,30.0,-56.0,
2005.0,2025.0,2051.0,2057.0,30.0,-56.0,
2025.0,2015.0,2052.0,2008.0,30.0,-56.0,
2064.0,2052.0,2057.0,2010.0,30.0,-56.0,
1978.0,2015.0,2054.0,2014.0,30.0,-56.0,
2015.0,2054.0,2051.0,2037.0,30.0,-56.0,
2054.0,1960.0,2056.0,2051.0,30.0,-56.0,
2017.0,1939.0,2049.0,2027.0,30.0,-56.0,
2050.0,1970.0,2048.0,2044.0,30.0,-56.0,
2071.0,1999.0,2060.0,2060.0,30.0,-56.0,
2009.0,2056.0,2058.0,2072.0,30.0,-56.0,
2008.0,1995.0,2052.0,2016.0,30.0,-56.0,
2013.0,2023.0,2054.0,2014.0,30.0,-56.0,
1994.0,2057.0,2043.0,2027.0,30.0,-56.0,
2060.0,1985.0,2060.0,2014.0,30.0,-56.0,
2042.0,2017.0,2056.0,2058.0,30.0,-56.0,
2030.0,1965.0,2055.0,2036.0,30.0,-56.0,
2013.0,1998.0,2049.0,2072.0,30.0,-56.0,
2014.0,2128.0,2045.0,2080.0,0,0,
2106.0,1946.0,2081.0,2074.0,30.0,-56.0,
1903.0,1914.0,2048.0,2026.0,30.0,-56.0,
2037.0,1954.0,2069.0,2034.0,30.0,-56.0,
2030.0,1969.0,2052.0,2048.0,30.0,-56.0,
2016.0,1984.0,2049.0,2019.0,30.0,-56.0,
2032.0,1987.0,2054.0,2039.0,30.0,-56.0,
2049.0,2053.0,2052.0,2030.0,30.0,-56.0,
1997.0,2088.0,2040.0,2008.0,30.0,-56.0,
2064.0,2005.0,2053.0,2033.0,30.0,-56.0,
1995.0,2002.0,2051.0,2060.0,30.0,-56.0,
2084.0,2082.0,2068.0,2111.0,30.0,-56.0,
1978.0,1962.0,2041.0,2039.0,30.0,-56.0,
1987.0,1952.0,2044.0,2047.0,30.0,-55.0,
2056.0,2029.0,2064.0,2019.0,30.0,-55.0,
2054.0,1908.0,2068.0,2021.0,30.0,-55.0,
2040.0,1995.0,2058.0,2025.0,30.0,-55.0,
2030.0,2029.0,2056.0,2023.0,30.0,-55.0,
2045.0,2029.0,2053.0,2032.0,30.0,-55.0,
2052.0,2059.0,2056.0,2076.0,30.0,-55.0,
2043.0,1968.0,2051.0,2044.0,30.0,-55.0,
2001.0,1987.0,2047.0,2034.0,30.0,-55.0,
2008.0,2012.0,2054.0,2044.0,30.0,-55.0,
2017.0,1994.0,2050.0,2038.0,30.0,-55.0,
2037.0,2006.0,2055.0,2053.0,30.0,-55.0,
2057.0,2038.0,2057.0,2098.0,30.0,-55.0,
2041.0,2017.0,2053.0,2049.0,30.0,-55.0,
2042.0,1984.0,2051.0,2022.0,30.0,-55.0,
2032.0,2025.0,2056.0,2016.0,30.0,-55.0,
2032.0,1994.0,2054.0,2023.0,30.0,-55.0,
1986.0,1994.0,2051.0,2047.0,30.0,-55.0,
2014.0,2015.0,2052.0,2044.0,30.0,-55.0,
2031.0,2040.0,2046.0,2025.0,30.0,-55.0,
2079.0,2073.0,2070.0,2012.0,30.0,-55.0,
2022.0,1995.0,2053.0,2040.0,30.0,-55.0,
2027.0,1985.0,2056.0,2055.0,30.0,-56.0,
2005.0,2058.0,2046.0,2080.0,30.0,-56.0,
2008.0,1926.0,2049.0,2067.0,30.0,-56.0,
2015.0,2004.0,2046.0,2081.0,30.0,-56.0,
2043.0,1971.0,2056.0,2040.0,30.0,-56.0,
2023.0,2011.0,2051.0,2023.0,30.0,-56.0,
2014.0,2065.0,2048.0,2032.0,30.0,-56.0,
2058.0,2032.0,2064.0,2023.0,30.0,-56.0,
2107.0,2108.0,2066.0,2051.0,30.0,-56.0,
1977.0,1932.0,2053.0,2015.0,30.0,-56.0,
1975.0,1946.0,2046.0,2024.0,30.0,-56.0,
2046.0,2004.0,2056.0,2018.0,30.0,-56.0,
1974.0,1988.0,2039.0,2066.0,30.0,-56.0,
1989.0,2018.0,2048.0,2069.0,30.0,-56.0,
2087.0,2044.0,2061.0,2081.0,30.0,-56.0,
2055.0,1926.0,2064.0,1987.0,30.0,-56.0,
2069.0,1993.0,2057.0,2009.0,30.0,-55.0,
1965.0,2070.0,2040.0,2003.0,30.0,-55.0,
2033.0,2033.0,2058.0,2044.0,30.0,-55.0,
2046.0,1973.0,2063.0,2031.0,30.0,-55.0,
2034.0,2018.0,2053.0,2060.0,30.0,-55.0,
2050.0,2044.0,2060.0,2074.0,30.0,-55.0,
2035.0,2053.0,2053.0,2018.0,30.0,-55.0,
2014.0,2089.0,2046.0,2021.0,30.0,-55.0,
2006.0,2005.0,2052.0,2010.0,0,0,
2085.0,1946.0,2064.0,2022.0,30.0,-54.0,
2040.0,1939.0,2052.0,2041.0,30.0,-54.0,
2054.0,2007.0,2056.0,2093.0,30.0,-54.0,
1981.0,1997.0,2041.0,2059.0,30.0,-54.0,
2032.0,2034.0,2057.0,2064.0,30.0,-54.0,
2045.0,1983.0,2056.0,2045.0,30.0,-54.0,
2045.0,1959.0,2051.0,2033.0,30.0,-54.0,
2012.0,1999.0,2048.0,1998.0,30.0,-54.0,
1980.0,2044.0,2043.0,1996.0,30.0,-54.0,
2049.0,2041.0,2055.0,2007.0,30.0,-54.0,
2065.0,2002.0,2055.0,2079.0,30.0,-54.0,
2056.0,1950.0,2054.0,2083.0,30.0,-54.0,
2067.0,1980.0,2062.0,2115.0,30.0,-54.0,
2065.0,2032.0,2055.0,2063.0,30.0,-54.0,
2032.0,2042.0,2052.0,2024.0,30.0,0,
2022.0,2065.0,2054.0,2024.0,30.0,-55.0,
1987.0,2153.0,2043.0,2042.0,30.0,-55.0,
1958.0,1990.0,2038.0,2003.0,30.0,-55.0,
1987.0,1980.0,2047.0,2030.0,30.0,-55.0,
2085.0,1873.0,2057.0,2062.0,30.0,-55.0,
1994.0,1896.0,2046.0,2053.0,30.0,-55.0,
2070.0,1910.0,2059.0,2085.0,30.0,-55.0,
2179.0,1991.0,2070.0,2117.0,30.0,-54.0,
2073.0,2059.0,2058.0,2035.0,0,0,
2058.0,1934.0,2055.0,1997.0,30.0,-54.0,
1933.0,2025.0,2031.0,1962.0,30.0,-54.0,
1985.0,2019.0,2054.0,2015.0,30.0,-54.0,
2122.0,2002.0,2073.0,2090.0,30.0,-54.0,
2033.0,1960.0,2059.0,2095.0,30.0,-54.0,
2054.0,2000.0,2060.0,2070.0,30.0,-54.0,
2047.0,2044.0,2060.0,2082.0,0,0,
1999.0,2106.0,2052.0,2061.0,30.0,-54.0,
2069.0,2124.0,2056.0,2039.0,30.0,-54.0,
1986.0,1996.0,2048.0,2011.0,30.0,-54.0,
2058.0,2042.0,2055.0,2009.0,30.0,-54.0,
1995.0,2001.0,2044.0,1996.0,30.0,-54.0,
2008.0,1955.0,2044.0,2021.0,0,0,
2044.0,2057.0,2059.0,2018.0,30.0,-54.0,
1963.0,1966.0,2042.0,2011.0,30.0,-54.0,
1987.0,2063.0,2045.0,2024.0,30.0,-54.0,
2033.0,1968.0,2050.0,2019.0,30.0,-53.0,
2068.0,2054.0,2061.0,2036.0,30.0,-53.0,
2025.0,2054.0,2052.0,2042.0,30.0,-53.0,
2038.0,2018.0,2051.0,2065.0,30.0,-53.0,
1962.0,2073.0,2041.0,2036.0,30.0,-53.0,
2011.0,2083.0,2051.0,1976.0,30.0,-53.0,
2100.0,2055.0,2064.0,1920.0,30.0,-53.0,
2038.0,2030.0,2052.0,1950.0,30.0,-53.0,
2058.0,1894.0,2053.0,2039.0,0,0,
2052.0,1878.0,2048.0,2064.0,30.0,-53.0,
2098.0,1937.0,2072.0,2129.0,30.0,-53.0,
2038.0,1990.0,2057.0,2130.0,30.0,-53.0,
2030.0,2033.0,2053.0,2070.0,30.0,-53.0,
2007.0,2062.0,2049.0,2048.0,30.0,-53.0,
2043.0,1917.0,2050.0,2118.0,30.0,-53.0,
2028.0,1894.0,2051.0,2129.0,30.0,-53.0,
2001.0,2083.0,2045.0,2161.0,30.0,-53.0,
1957.0,1860.0,2048.0,1997.0,30.0,-53.0,
2020.0,1938.0,2053.0,1984.0,30.0,-53.0,
2088.0,1971.0,2064.0,2065.0,30.0,-54.0,
2052.0,2098.0,2061.0,2004.0,30.0,-54.0,
2047.0,2099.0,2054.0,1943.0,30.0,-54.0,
2021.0,2064.0,2049.0,1990.0,30.0,-54.0,
2044.0,1935.0,2058.0,2066.0,30.0,-54.0,
2096.0,2037.0,2064.0,2233.0,30.0,-54.0,
2054.0,2157.0,2065.0,2148.0,30.0,-54.0,
1928.0,1964.0,2040.0,2021.0,30.0,-54.0,
1997.0,2057.0,2052.0,1928.0,30.0,-54.0,
1984.0,2027.0,2048.0,1940.0,30.0,-54.0,
2044.0,1982.0,2049.0,2028.0,30.0,-54.0,
2087.0,1989.0,2065.0,2041.0,30.0,-54.0,
1974.0,1944.0,2047.0,2047.0,30.0,-55.0,
2089.0,1961.0,2060.0,2045.0,30.0,-55.0,
2024.0,2002.0,2048.0,2055.0,30.0,-55.0,
2054.0,1994.0,2054.0,1963.0,29.0,-55.0,
2064.0,2042.0,2058.0,2043.0,29.0,-55.0,
2074.0,2025.0,2058.0,2042.0,30.0,-55.0,
2008.0,2040.0,2050.0,2032.0,30.0,-55.0,
2014.0,2100.0,2051.0,2113.0,30.0,-55.0,
2068.0,2065.0,2063.0,2035.0,30.0,-56.0,
2034.0,1964.0,2055.0,2002.0,29.0,-56.0,
2018.0,1962.0,2052.0,1970.0,29.0,-56.0,
2044.0,1962.0,2052.0,1975.0,29.0,-56.0,
1976.0,1993.0,2037.0,2049.0,29.0,-56.0,
1992.0,1973.0,2046.0,2110.0,29.0,-56.0,
2024.0,2056.0,2052.0,2025.0,29.0,-56.0,
2049.0,2006.0,2059.0,1994.0,29.0,-56.0,
2037.0,1991.0,2052.0,2011.0,29.0,-56.0,
2095.0,2033.0,2064.0,2079.0,29.0,-56.0,
2029.0,1957.0,2053.0,2133.0,29.0,-56.0,
2021.0,1949.0,2053.0,2253.0,29.0,-56.0,
2002.0,1994.0,2051.0,2088.0,28.0,-56.0,
2077.0,1984.0,2058.0,1966.0,28.0,-56.0,
2048.0,2053.0,2053.0,1888.0,28.0,0,
1965.0,2008.0,2040.0,1928.0,28.0,-55.0,
2092.0,2057.0,2064.0,2076.0,28.0,-55.0,
1984.0,1968.0,2056.0,2053.0,28.0,-55.0,
1985.0,1987.0,2050.0,2016.0,28.0,-55.0,
2015.0,1959.0,2055.0,1985.0,27.0,-55.0,
2056.0,2004.0,2057.0,2009.0,27.0,-54.0,
2104.0,2084.0,2067.0,1996.0,27.0,-54.0,
1970.0,1917.0,2047.0,2070.0,27.0,-54.0,
2064.0,1944.0,2056.0,2127.0,27.0,-54.0,
2064.0,2045.0,2056.0,2129.0,0,0,
2012.0,2067.0,2043.0,2147.0,27.0,-54.0,
2078.0,2079.0,2060.0,2079.0,27.0,-54.0,
1942.0,1981.0,2040.0,2034.0,27.0,-54.0,
2028.0,1958.0,2056.0,2098.0,26.0,-54.0,
1974.0,1950.0,2049.0,2074.0,0,0,
2059.0,2085.0,2050.0,2091.0,26.0,-54.0,
2100.0,1980.0,2065.0,2025.0,26.0,-54.0,
2059.0,1970.0,2061.0,1983.0,26.0,-55.0,
2031.0,2001.0,2053.0,2034.0,26.0,-55.0,
2063.0,1928.0,2058.0,2053.0,26.0,-55.0,
2057.0,2050.0,2059.0,1901.0,0,0,
2002.0,2043.0,2046.0,1933.0,26.0,-56.0,
2023.0,1958.0,2049.0,1996.0,26.0,-56.0,
2062.0,2004.0,2058.0,2072.0,25.0,-56.0,
2019.0,2049.0,2049.0,2055.0,25.0,-56.0,
2047.0,2072.0,2058.0,2086.0,25.0,-57.0,
2085.0,2066.0,2060.0,2177.0,25.0,-57.0,
1989.0,2013.0,2050.0,2074.0,25.0,-57.0,
2012.0,1974.0,2050.0,2016.0,24.0,-57.0,
2038.0,1872.0,2052.0,2076.0,24.0,-57.0,
2048.0,1995.0,2059.0,2009.0,24.0,-57.0,
2019.0,2034.0,2053.0,2039.0,24.0,-57.0,
2035.0,2119.0,2058.0,2101.0,24.0,-57.0,
2034.0,2087.0,2055.0,1873.0,23.0,-57.0,
2032.0,2081.0,2057.0,1895.0,23.0,-57.0,
2046.0,2033.0,2051.0,1972.0,23.0,-57.0,
1995.0,1935.0,2044.0,2045.0,23.0,-56.0,
2047.0,2032.0,2052.0,1912.0,23.0,-56.0,
2053.0,2125.0,2055.0,2042.0,22.0,-56.0,
1989.0,1883.0,2043.0,2157.0,22.0,-56.0,
1973.0,1853.0,2041.0,2173.0,22.0,-55.0,
2000.0,1950.0,2050.0,2144.0,22.0,-55.0,
2043.0,2059.0,2046.0,2136.0,22.0,-55.0,
2076.0,2033.0,2069.0,2205.0,21.0,-54.0,
2057.0,2004.0,2057.0,1880.0,21.0,-54.0,
2037.0,2022.0,2052.0,1878.0,21.0,-53.0,
2036.0,1964.0,2050.0,2127.0,21.0,-53.0,
1995.0,1991.0,2047.0,2179.0,21.0,-53.0,
2031.0,1996.0,2054.0,2013.0,20.0,-52.0,
2041.0,2100.0,2055.0,1955.0,20.0,-52.0,
1953.0,2132.0,2047.0,1784.0,20.0,-52.0,
2051.0,2190.0,2057.0,2002.0,20.0,-52.0,
2016.0,1965.0,2057.0,2065.0,20.0,-51.0,
2110.0,1869.0,2062.0,2041.0,19.0,-51.0,
2011.0,1903.0,2051.0,2011.0,19.0,-51.0,
2030.0,1947.0,2054.0,1920.0,0,0,
2032.0,1985.0,2053.0,2089.0,19.0,-51.0,
2014.0,1973.0,2054.0,2198.0,19.0,-51.0,
2031.0,1918.0,2046.0,2266.0,19.0,-51.0,
2029.0,1965.0,2052.0,2183.0,18.0,-51.0,
2040.0,1986.0,2058.0,2001.0,18.0,-52.0,
2079.0,2069.0,2066.0,1982.0,18.0,-52.0,
2025.0,2045.0,2058.0,1913.0,18.0,-52.0,
1997.0,1965.0,2053.0,1937.0,18.0,-52.0,
2088.0,1959.0,2059.0,2072.0,17.0,-53.0,
2002.0,2037.0,2046.0,2206.0,17.0,-53.0,
1988.0,1998.0,2044.0,2241.0,17.0,-53.0,
2026.0,2042.0,2055.0,2099.0,17.0,-53.0,
2086.0,2029.0,2061.0,1994.0,17.0,-54.0,
2060.0,2067.0,2057.0,2014.0,17.0,-54.0,
2048.0,2038.0,2053.0,1987.0,16.0,-54.0,
2018.0,1979.0,2050.0,1939.0,16.0,-54.0,
2014.0,2005.0,2051.0,1841.0,16.0,-54.0,
2007.0,2041.0,2048.0,2008.0,16.0,-54.0,
2033.0,1982.0,2052.0,2007.0,16.0,-54.0,
2024.0,2092.0,2051.0,2115.0,16.0,-54.0,
2009.0,1983.0,2055.0,2057.0,15.0,-54.0,
2041.0,2003.0,2057.0,2062.0,15.0,-54.0,
2006.0,2021.0,2054.0,2096.0,15.0,-54.0,
2074.0,2090.0,2064.0,2129.0,15.0,-54.0,
2015.0,2094.0,2051.0,1973.0,15.0,-53.0,
2101.0,1987.0,2060.0,1771.0,14.0,-53.0,
1983.0,1874.0,2048.0,1934.0,14.0,-53.0,
1992.0,1913.0,2051.0,2211.0,14.0,-52.0,
2072.0,2010.0,2061.0,2229.0,14.0,-52.0,
2026.0,1959.0,2055.0,2124.0,14.0,-51.0,
2066.0,1994.0,2059.0,2126.0,13.0,-50.0,
1983.0,2069.0,2040.0,1928.0,13.0,-50.0,
2036.0,1956.0,2052.0,2283.0,0,0,
2046.0,2017.0,2057.0,1996.0,13.0,-50.0,
2024.0,2048.0,2050.0,1923.0,13.0,-49.0,
2008.0,2185.0,2046.0,1927.0,13.0,-49.0,
1985.0,1900.0,2054.0,2002.0,12.0,-49.0,
2055.0,1994.0,2057.0,1983.0,12.0,-49.0,
2093.0,2047.0,2062.0,2093.0,12.0,-49.0,
2090.0,2102.0,2059.0,2018.0,12.0,-49.0,
1926.0,1929.0,2039.0,1953.0,12.0,-49.0,
2059.0,1899.0,2054.0,2039.0,12.0,-49.0,
2040.0,1934.0,2057.0,2201.0,12.0,-49.0,
2063.0,1911.0,2057.0,2176.0,12.0,-49.0,
2071.0,2008.0,2053.0,2111.0,11.0,-49.0,
1986.0,1996.0,2049.0,1980.0,11.0,-50.0,
2022.0,2049.0,2055.0,1817.0,11.0,-50.0,
1993.0,1964.0,2051.0,1954.0,11.0,-50.0,
2023.0,2035.0,2057.0,2143.0,11.0,-51.0,
2090.0,1999.0,2063.0,2208.0,11.0,-51.0,
2080.0,2030.0,2059.0,2221.0,11.0,-52.0,
2019.0,2025.0,2050.0,1959.0,11.0,-52.0,
1991.0,2036.0,2053.0,1977.0,11.0,-52.0,
2032.0,2040.0,2055.0,2018.0,11.0,-53.0,
2042.0,2026.0,2063.0,2087.0,10.0,-53.0,
2040.0,2011.0,2059.0,1984.0,10.0,-53.0,
2016.0,2008.0,2052.0,2028.0,10.0,-53.0,
2039.0,2013.0,2058.0,2025.0,10.0,-53.0,
2048.0,2046.0,2051.0,2021.0,10.0,-53.0,
1997.0,2082.0,2050.0,1985.0,9.0,-53.0,
2028.0,1995.0,2053.0,1975.0,0,0,
2045.0,2001.0,2055.0,1987.0,9.0,-53.0,
2049.0,2003.0,2054.0,2009.0,9.0,-53.0,
2056.0,1990.0,2059.0,2053.0,9.0,-53.0,
2039.0,2068.0,2054.0,1974.0,9.0,-53.0,
2010.0,2024.0,2051.0,1954.0,9.0,-53.0,
2041.0,2072.0,2052.0,2180.0,8.0,-53.0,
1978.0,2046.0,2047.0,2034.0,8.0,-52.0,
2049.0,2003.0,2048.0,2035.0,8.0,-52.0,
1969.0,1908.0,2042.0,2038.0,8.0,-52.0,
2034.0,1905.0,2058.0,2252.0,8.0,-52.0,
2006.0,2047.0,2049.0,2190.0,7.0,-52.0,
2069.0,1932.0,2070.0,2131.0,7.0,-52.0,
2044.0,1905.0,2058.0,2193.0,7.0,-52.0,
2058.0,2008.0,2061.0,1987.0,7.0,-52.0,
2046.0,2011.0,2058.0,1903.0,7.0,-53.0,
2060.0,2006.0,2059.0,1937.0,7.0,-53.0,
2028.0,1989.0,2056.0,2058.0,7.0,-53.0,
2032.0,2117.0,2050.0,2032.0,6.0,-53.0,
2110.0,2052.0,2065.0,1996.0,6.0,-53.0,
2021.0,1914.0,2053.0,1972.0,6.0,-54.0,
2021.0,2025.0,2054.0,1954.0,6.0,-54.0,
2007.0,2015.0,2057.0,2017.0,6.0,-54.0,
1965.0,2069.0,2045.0,2080.0,6.0,-54.0,
1979.0,1957.0,2044.0,2133.0,6.0,-55.0,
2088.0,1922.0,2057.0,2045.0,6.0,-55.0,
2088.0,2014.0,2059.0,2042.0,6.0,-55.0,
2038.0,2025.0,2054.0,2064.0,6.0,-55.0,
2036.0,1987.0,2054.0,2093.0,6.0,-56.0,
2055.0,2115.0,2055.0,2132.0,6.0,-56.0,
2053.0,2057.0,2052.0,2031.0,6.0,-56.0,
1990.0,1969.0,2046.0,2028.0,5.0,-56.0,
1997.0,1952.0,2051.0,1893.0,5.0,-56.0,
2019.0,2045.0,2055.0,2033.0,5.0,-56.0,
2043.0,2030.0,2057.0,2052.0,5.0,-56.0,
2005.0,2044.0,2049.0,2064.0,5.0,-56.0,
2033.0,1960.0,2053.0,2116.0,5.0,-56.0,
2017.0,1962.0,2054.0,2069.0,5.0,-55.0,
2027.0,2068.0,2046.0,1997.0,5.0,-55.0,
1997.0,2010.0,2047.0,1963.0,4.0,-55.0,
2078.0,2005.0,2059.0,2011.0,4.0,-55.0,
2018.0,1943.0,2050.0,2039.0,4.0,-55.0,
2058.0,2000.0,2058.0,2039.0,4.0,-54.0,
2020.0,2036.0,2052.0,2028.0,4.0,-54.0,
2059.0,2042.0,2062.0,2062.0,4.0,-54.0,
2021.0,2025.0,2052.0,1986.0,4.0,-54.0,
2041.0,1976.0,2057.0,2077.0,4.0,-54.0,
1987.0,2052.0,2046.0,2171.0,4.0,-53.0,
1993.0,1977.0,2050.0,2009.0,4.0,-53.0,
2032.0,2005.0,2063.0,1940.0,4.0,-53.0,
2115.0,2006.0,2066.0,2168.0,4.0,-53.0,
2066.0,2020.0,2057.0,2082.0,4.0,-53.0,
1993.0,2071.0,2045.0,1976.0,3.0,-53.0,
1945.0,2026.0,2048.0,1995.0,3.0,-53.0,
2042.0,1920.0,2054.0,2028.0,3.0,-53.0,
2092.0,1813.0,2060.0,2064.0,0,0,
2032.0,1917.0,2055.0,2096.0,3.0,-53.0,
2053.0,2022.0,2060.0,2036.0,3.0,-53.0,
1997.0,2103.0,2048.0,2040.0,3.0,-53.0,
2017.0,2056.0,2053.0,2024.0,3.0,-53.0,
1991.0,1961.0,2048.0,2024.0,3.0,-53.0,
2060.0,2033.0,2057.0,2046.0,3.0,-53.0,
2067.0,2033.0,2058.0,2097.0,3.0,-54.0,
2043.0,2047.0,2057.0,2089.0,3.0,-54.0,
2074.0,2037.0,2061.0,2071.0,3.0,-54.0,
2045.0,1982.0,2056.0,1989.0,3.0,-54.0,
2007.0,1961.0,2047.0,2005.0,3.0,-54.0,
2016.0,2004.0,2056.0,2109.0,3.0,-54.0,
2001.0,1990.0,2050.0,2141.0,3.0,-54.0,
2047.0,2041.0,2056.0,2087.0,3.0,-55.0,
2044.0,2042.0,2055.0,1894.0,3.0,-55.0,
2004.0,2064.0,2046.0,1949.0,2.0,-55.0,
2058.0,2048.0,2061.0,2072.0,2.0,-55.0,
2049.0,2002.0,2057.0,2047.0,2.0,-55.0,
1998.0,1933.0,2049.0,1997.0,2.0,-55.0,
2034.0,2032.0,2056.0,1983.0,2.0,-55.0,
2024.0,2010.0,2047.0,2046.0,2.0,-54.0,
1999.0,1997.0,2045.0,2013.0,2.0,-54.0,
2037.0,1987.0,2052.0,2049.0,2.0,-54.0,
2071.0,2039.0,2057.0,2032.0,2.0,-54.0,
2008.0,2108.0,2046.0,2025.0,2.0,-54.0,
2080.0,2052.0,2061.0,2055.0,2.0,-54.0,
2046.0,1948.0,2051.0,2093.0,2.0,-54.0,
2020.0,1913.0,2052.0,2074.0,2.0,-54.0,
2026.0,1972.0,2053.0,2045.0,2.0,-54.0,
2049.0,2047.0,2051.0,2017.0,2.0,-53.0,
2009.0,2022.0,2050.0,1967.0,2.0,-53.0,
2045.0,2013.0,2055.0,2023.0,2.0,-53.0,
2062.0,1999.0,2055.0,2058.0,2.0,-53.0,
2060.0,1979.0,2055.0,2038.0,2.0,-53.0,
2038.0,2039.0,2056.0,2005.0,2.0,-53.0,
2007.0,2017.0,2051.0,2102.0,2.0,-53.0,
2044.0,2024.0,2058.0,2002.0,1.0,-52.0,
2013.0,1996.0,2046.0,2074.0,1.0,-52.0,
2041.0,1983.0,2053.0,2251.0,1.0,-52.0,
2051.0,1904.0,2057.0,2219.0,1.0,-52.0,
1966.0,2029.0,2046.0,2068.0,1.0,-52.0,
2040.0,2098.0,2057.0,1918.0,1.0,-52.0,
2081.0,2068.0,2052.0,1894.0,1.0,-52.0,
2047.0,2046.0,2059.0,1886.0,1.0,-52.0,
2039.0,1853.0,2055.0,2070.0,1.0,0,
2027.0,2012.0,2050.0,2082.0,1.0,-52.0,
2011.0,1973.0,2051.0,2060.0,1.0,-52.0,
2020.0,1948.0,2051.0,2084.0,1.0,-52.0,
2019.0,1946.0,2053.0,2119.0,1.0,-52.0,
1997.0,2034.0,2045.0,2040.0,1.0,-52.0,
1999.0,2004.0,2053.0,2073.0,1.0,-52.0,
1980.0,2042.0,2048.0,2044.0,1.0,-53.0,
2043.0,2034.0,2054.0,2054.0,1.0,-53.0,
2105.0,1928.0,2068.0,2057.0,1.0,-53.0,
2125.0,2032.0,2069.0,1983.0,1.0,-53.0,
2090.0,1984.0,2062.0,1936.0,1.0,-53.0,
2030.0,2012.0,2056.0,1978.0,1.0,-53.0,
2069.0,2058.0,2058.0,2146.0,1.0,-54.0,
2015.0,2001.0,2054.0,2072.0,1.0,-54.0,
2009.0,2006.0,2047.0,2049.0,1.0,-54.0,
2035.0,2047.0,2049.0,1975.0,1.0,-54.0,
2042.0,2030.0,2049.0,2014.0,1.0,-54.0,
2041.0,2026.0,2053.0,2017.0,1.0,-54.0,
2029.0,2043.0,2044.0,2027.0,0,0,
2029.0,2054.0,2047.0,2006.0,1.0,-54.0,
2024.0,2006.0,2055.0,1998.0,1.0,-54.0,
2012.0,1976.0,2051.0,2043.0,1.0,-54.0,
1988.0,1993.0,2048.0,2063.0,1.0,-54.0,
2038.0,1992.0,2053.0,2048.0,1.0,-54.0,
2024.0,1995.0,2050.0,2050.0,1.0,-53.0,
2034.0,2040.0,2051.0,2035.0,1.0,-53.0,
2058.0,2025.0,2055.0,2040.0,1.0,0,
2020.0,2008.0,2048.0,2029.0,1.0,-53.0,
2011.0,1956.0,2051.0,2043.0,1.0,-53.0,
2036.0,1970.0,2054.0,2067.0,1.0,-52.0,
2016.0,2009.0,2055.0,2076.0,1.0,-52.0,
2043.0,1994.0,2053.0,2083.0,1.0,-52.0,
2042.0,2010.0,2051.0,2067.0,1.0,-51.0,
1988.0,2051.0,2046.0,1949.0,1.0,-51.0,
2023.0,2055.0,2050.0,1953.0,1.0,-51.0,
1995.0,2004.0,2050.0,1959.0,1.0,-51.0,
2051.0,1986.0,2056.0,2078.0,1.0,-51.0,
2056.0,2024.0,2057.0,2091.0,1.0,-50.0,
2057.0,2042.0,2057.0,2027.0,1.0,-50.0,
2066.0,2078.0,2061.0,2042.0,0.0,-50.0,
2072.0,1951.0,2061.0,2009.0,1.0,-50.0,
2005.0,2030.0,2049.0,2131.0,0,0,
1962.0,1974.0,2041.0,1966.0,1.0,-50.0,
1984.0,1981.0,2049.0,2243.0,1.0,-50.0,
1998.0,1988.0,2049.0,2134.0,0.0,-50.0,
2003.0,1914.0,2048.0,2153.0,0.0,-50.0,
2071.0,1887.0,2064.0,1992.0,0.0,-50.0,
2074.0,1906.0,2060.0,2029.0,0.0,-50.0,
2075.0,2049.0,2066.0,2039.0,0.0,-50.0,
2049.0,2058.0,2060.0,2004.0,0.0,-50.0,
2020.0,2022.0,2056.0,1919.0,0.0,-51.0,
2045.0,2074.0,2053.0,1887.0,0.0,-51.0,
2004.0,2105.0,2045.0,1999.0,0.0,-51.0,
2053.0,2032.0,2056.0,2133.0,0.0,-51.0,
2048.0,2029.0,2060.0,2103.0,0.0,-52.0,
2052.0,2081.0,2051.0,2046.0,0.0,-52.0,
2031.0,1979.0,2052.0,2006.0,0.0,-52.0,
2031.0,1933.0,2060.0,2121.0,0.0,-52.0,
2027.0,1950.0,2052.0,2067.0,0.0,-52.0,
2001.0,2018.0,2049.0,2064.0,0.0,-53.0,
2052.0,2020.0,2054.0,2038.0,0.0,-53.0,
2043.0,2035.0,2058.0,1986.0,0.0,-53.0,
2056.0,2018.0,2053.0,1989.0,1.0,-53.0,
2001.0,1983.0,2054.0,1983.0,0.0,-53.0,
2035.0,2022.0,2052.0,2043.0,0.0,-53.0,
1994.0,1991.0,2055.0,2075.0,0.0,-53.0,
1978.0,2024.0,2051.0,2090.0,0.0,-53.0,
2018.0,1998.0,2049.0,2072.0,0.0,-53.0,
2054.0,2003.0,2055.0,2091.0,0.0,-53.0,
2049.0,2006.0,2054.0,2072.0,0.0,-53.0,
2070.0,2032.0,2058.0,2003.0,0.0,-53.0,
1978.0,2028.0,2048.0,1950.0,0.0,-53.0,
2016.0,2026.0,2049.0,2021.0,0.0,-53.0,
2049.0,1988.0,2055.0,2031.0,0.0,-52.0,
2025.0,1988.0,2051.0,2002.0,0.0,-52.0,
2014.0,1975.0,2052.0,2030.0,0.0,-52.0,
2050.0,2048.0,2057.0,2080.0,0.0,-52.0,
2053.0,1999.0,2061.0,2073.0,0.0,-52.0,
2021.0,1957.0,2053.0,2099.0,0.0,-52.0,
2029.0,2039.0,2048.0,2131.0,0.0,-51.0,
2063.0,1983.0,2056.0,2055.0,0.0,-51.0,
2077.0,1981.0,2055.0,1999.0,0.0,-51.0,
2046.0,2026.0,2054.0,1965.0,0.0,-51.0,
2050.0,2082.0,2055.0,1933.0,0.0,-51.0,
2084.0,2048.0,2067.0,1992.0,0.0,-51.0,
2027.0,2011.0,2053.0,1983.0,0.0,-51.0,
2015.0,1968.0,2053.0,2071.0,0.0,-51.0,
2027.0,1947.0,2051.0,2091.0,0.0,-51.0,
2026.0,1974.0,2047.0,2004.0,0.0,-51.0,
2057.0,2002.0,2057.0,2074.0,0.0,-51.0,
2014.0,1947.0,2053.0,2075.0,0.0,-51.0,
2028.0,2043.0,2050.0,2099.0,0.0,-51.0,
2073.0,2179.0,2053.0,2012.0,0.0,-51.0,
2053.0,1940.0,2060.0,2045.0,0.0,-51.0,
2022.0,1895.0,2049.0,2082.0,0.0,-51.0,
2029.0,1988.0,2053.0,2096.0,0.0,-52.0,
2017.0,1911.0,2054.0,2027.0,0.0,-52.0,
2034.0,2035.0,2052.0,2056.0,0.0,-52.0,
2037.0,2061.0,2052.0,2103.0,0.0,-52.0,
2040.0,2106.0,2053.0,2153.0,0.0,-52.0,
2054.0,1967.0,2054.0,2038.0,0.0,-53.0,
1971.0,1956.0,2048.0,2065.0,0.0,-53.0,
2044.0,1995.0,2061.0,2078.0,0.0,-53.0,
2027.0,2011.0,2053.0,1948.0,0.0,-54.0,
2060.0,2057.0,2058.0,1984.0,0.0,-54.0,
2023.0,2021.0,2052.0,1934.0,0.0,-54.0,
2029.0,2045.0,2057.0,1985.0,0.0,-54.0,
2026.0,2034.0,2055.0,2003.0,0.0,-54.0,
2032.0,1995.0,2056.0,2116.0,0.0,-55.0,
2028.0,1964.0,2054.0,2105.0,0.0,-55.0,
1995.0,2039.0,2048.0,2030.0,0.0,-55.0,
2047.0,2018.0,2052.0,2017.0,0.0,-55.0,
2002.0,2008.0,2050.0,2001.0,0.0,0,
2036.0,1994.0,2054.0,1983.0,0.0,-55.0,
2054.0,2020.0,2053.0,2083.0,0.0,-54.0,
2030.0,2000.0,2056.0,2017.0,0.0,-54.0,
2064.0,2004.0,2062.0,2032.0,0.0,-54.0,
2036.0,1978.0,2052.0,2057.0,0.0,-54.0,
2025.0,1972.0,2053.0,2084.0,0.0,-54.0,
1968.0,2049.0,2043.0,2052.0,0.0,-54.0,
2058.0,2066.0,2056.0,2040.0,0.0,-53.0,
2053.0,1967.0,2058.0,2019.0,0.0,-53.0,
2002.0,2028.0,2053.0,2027.0,0.0,-53.0,
2038.0,1980.0,2057.0,2038.0,0.0,-53.0,
2007.0,1996.0,2047.0,2003.0,0.0,-53.0,
2042.0,2027.0,2055.0,2008.0,0.0,-53.0,
2040.0,2071.0,2053.0,2082.0,0.0,-52.0,
2022.0,1983.0,2065.0,2092.0,0.0,-52.0,
2016.0,2010.0,2049.0,2066.0,0.0,-52.0,
1993.0,1955.0,2047.0,1976.0,0.0,-52.0,
2027.0,2034.0,2051.0,1971.0,0.0,-52.0,
2086.0,2053.0,2057.0,2004.0,0.0,-52.0,
2087.0,2018.0,2056.0,2020.0,0.0,-52.0,
2009.0,1882.0,2048.0,2066.0,0.0,-52.0,
2031.0,1986.0,2051.0,2164.0,0.0,-52.0,
2040.0,2061.0,2055.0,2070.0,0.0,-52.0,
2046.0,2046.0,2054.0,2068.0,0.0,-52.0,
2024.0,1914.0,2054.0,2131.0,0.0,-52.0,
2028.0,2001.0,2051.0,1967.0,0.0,-53.0,
2029.0,1962.0,2053.0,1963.0,0.0,-53.0,
2014.0,1968.0,2050.0,2052.0,0.0,-53.0,
1986.0,2039.0,2047.0,2100.0,0.0,-53.0,
1995.0,1972.0,2046.0,2039.0,0.0,-53.0,
2085.0,1952.0,2043.0,2100.0,0.0,-53.0,
2092.0,1939.0,2064.0,2098.0,0.0,-53.0,
2042.0,2028.0,2051.0,2062.0,0.0,-53.0,
2005.0,2071.0,2050.0,2066.0,0.0,-53.0,
2018.0,2045.0,2052.0,2063.0,0.0,-53.0,
2025.0,2061.0,2052.0,2005.0,0.0,-54.0,
2048.0,2073.0,2060.0,2004.0,0.0,-54.0,
2014.0,2029.0,2051.0,1999.0,0.0,-54.0,
2037.0,2005.0,2056.0,2027.0,0.0,-54.0,
2054.0,2049.0,2057.0,2036.0,0.0,-54.0,
2018.0,2080.0,2052.0,2001.0,0.0,-54.0,
2041.0,1989.0,2055.0,2023.0,0.0,-54.0,
2014.0,1950.0,2049.0,2090.0,0,0,
2012.0,1963.0,2052.0,2007.0,0.0,-54.0,
2027.0,2029.0,2056.0,2015.0,0.0,-54.0,
2038.0,1993.0,2059.0,2015.0,0.0,-53.0,
2030.0,2014.0,2052.0,2038.0,0.0,-53.0,
2014.0,1988.0,2050.0,2024.0,0.0,-53.0,
2019.0,1973.0,2049.0,2088.0,0.0,-53.0,
2050.0,2000.0,2055.0,2039.0,0.0,-53.0,
2022.0,2006.0,2052.0,1976.0,0.0,-53.0,
2049.0,2001.0,2056.0,1981.0,0.0,-52.0,
2026.0,2046.0,2053.0,2057.0,0.0,-52.0,
2036.0,1983.0,2056.0,2069.0,0.0,-52.0,
2025.0,2048.0,2049.0,2031.0,0.0,-52.0,
2020.0,2000.0,2052.0,2064.0,0.0,-52.0,
1982.0,2029.0,2047.0,2043.0,0.0,-52.0,
2066.0,2047.0,2057.0,2059.0,0.0,-51.0,
2064.0,1990.0,2056.0,2029.0,0.0,-51.0,
2021.0,1948.0,2051.0,2088.0,0.0,-51.0,
1974.0,1929.0,2048.0,2058.0,0.0,-51.0,
2058.0,1967.0,2046.0,2039.0,0.0,-51.0,
2023.0,1985.0,2050.0,2019.0,0.0,-51.0,
2074.0,2008.0,2061.0,2028.0,0.0,-51.0,
2048.0,2092.0,2053.0,2020.0,0.0,-51.0,
2012.0,2069.0,2045.0,2029.0,0.0,-51.0,
2035.0,2045.0,2048.0,1994.0,0.0,-51.0,
2043.0,1962.0,2058.0,1996.0,0.0,-51.0,
2050.0,1924.0,2054.0,2111.0,0.0,-51.0,
2053.0,1981.0,2057.0,2081.0,0.0,-51.0,
2004.0,2008.0,2049.0,1986.0,0.0,-51.0,
2011.0,1977.0,2053.0,2067.0,0.0,-51.0,
2042.0,2013.0,2058.0,2140.0,0.0,-51.0,
2008.0,2061.0,2051.0,2089.0,0.0,-52.0,
2043.0,2049.0,2054.0,2070.0,0.0,-52.0,
2055.0,2036.0,2056.0,2014.0,0.0,-52.0,
2027.0,1931.0,2054.0,1980.0,0.0,-52.0,
1992.0,1943.0,2046.0,2067.0,0.0,-52.0,
2031.0,2017.0,2057.0,2124.0,0.0,-52.0,
2028.0,2055.0,2051.0,2022.0,0.0,-52.0,
2048.0,2051.0,2061.0,2018.0,0.0,-52.0,
1981.0,1999.0,2046.0,2011.0,0.0,-52.0,
2062.0,1995.0,2059.0,2083.0,0.0,-52.0,
2033.0,1949.0,2056.0,2066.0,0.0,-52.0,
2001.0,2025.0,2051.0,2059.0,0.0,-52.0,
2028.0,2015.0,2058.0,2040.0,0.0,-52.0,
2048.0,2030.0,2059.0,2011.0,0.0,-52.0,
2042.0,2042.0,2055.0,1987.0,0.0,-52.0,
2052.0,2026.0,2055.0,2018.0,0.0,-52.0,
2053.0,2008.0,2057.0,2043.0,0.0,-52.0,
2061.0,2034.0,2055.0,2073.0,0.0,-52.0,
2023.0,1966.0,2053.0,1979.0,0.0,-52.0,
2055.0,1991.0,2056.0,1995.0,0.0,-52.0,
2020.0,2036.0,2049.0,2001.0,0.0,-52.0,
1978.0,2014.0,2047.0,1993.0,0.0,-52.0,
2015.0,2051.0,2050.0,2059.0,0.0,-52.0,
2002.0,2033.0,2047.0,2048.0,0.0,-52.0,
2023.0,1945.0,2052.0,2060.0,0.0,-52.0,
2019.0,1971.0,2052.0,2053.0,0.0,-52.0,
2055.0,2055.0,2054.0,2070.0,0.0,-52.0,
2010.0,1947.0,2053.0,2018.0,0.0,-52.0,
2030.0,2004.0,2054.0,2051.0,0.0,-52.0,
2036.0,2089.0,2053.0,2077.0,0.0,-52.0,
2060.0,2048.0,2059.0,2055.0,0.0,-52.0,
2006.0,2029.0,2047.0,1999.0,0.0,-52.0,
2037.0,1906.0,2052.0,2018.0,0.0,-52.0,
2044.0,1941.0,2054.0,2046.0,0.0,-52.0,
2078.0,1993.0,2060.0,2131.0,0,0,
2050.0,2027.0,2062.0,2052.0,0.0,-52.0,
1997.0,2019.0,2047.0,2043.0,0.0,-52.0,
2032.0,2062.0,2049.0,2081.0,0.0,-52.0,
2030.0,1994.0,2049.0,2009.0,0.0,-52.0,
2070.0,1984.0,2060.0,1953.0,0.0,-52.0,
2052.0,2006.0,2055.0,2045.0,0.0,-52.0,
2001.0,2046.0,2048.0,2143.0,0.0,-52.0,
2025.0,2011.0,2054.0,2034.0,0.0,-52.0,
2009.0,1903.0,2051.0,2006.0,0.0,-52.0,
2067.0,1928.0,2055.0,2108.0,0.0,-52.0,
1995.0,1995.0,2048.0,2092.0,0.0,-52.0,
2016.0,1984.0,2049.0,2073.0,0.0,-53.0,
2008.0,2012.0,2053.0,2019.0,0.0,-53.0,
2040.0,2069.0,2054.0,2019.0,0.0,-53.0,
2018.0,2032.0,2052.0,2016.0,0,0,
2026.0,2050.0,2052.0,1894.0,0.0,-53.0,
2013.0,2036.0,2049.0,2009.0,0.0,-53.0,
2014.0,2018.0,2051.0,2122.0,0.0,-53.0,
2014.0,1998.0,2051.0,2055.0,0.0,-53.0,
2004.0,1968.0,2051.0,2073.0,0.0,-53.0,
2054.0,1988.0,2056.0,2084.0,0.0,-53.0,
2062.0,2014.0,2062.0,2057.0,0.0,-53.0,
2092.0,2053.0,2063.0,2030.0,0.0,-53.0,
2046.0,1977.0,2058.0,2009.0,0.0,-53.0,
2022.0,1999.0,2049.0,2030.0,0.0,-53.0,
1998.0,1995.0,2047.0,2029.0,0.0,-53.0,
2058.0,2048.0,2050.0,2022.0,0.0,-53.0,
1983.0,1964.0,2050.0,2012.0,0.0,-53.0,
2013.0,2003.0,2055.0,2035.0,0.0,-53.0,
2058.0,2034.0,2059.0,2054.0,0.0,-53.0,
2056.0,1979.0,2059.0,2040.0,0.0,-53.0,
2040.0,2070.0,2059.0,2008.0,0.0,-53.0,
2011.0,2042.0,2050.0,2032.0,0.0,-52.0,
1995.0,1998.0,2051.0,1970.0,0.0,-52.0,
1994.0,1971.0,2055.0,1951.0,0.0,-52.0,
2049.0,1991.0,2056.0,2058.0,0.0,-52.0,
2052.0,1985.0,2059.0,2071.0,0.0,-52.0,
2014.0,1980.0,2052.0,2061.0,0.0,-52.0,
2108.0,2017.0,2063.0,2087.0,0,0,
2016.0,1939.0,2054.0,2134.0,0.0,-52.0,
2016.0,1995.0,2056.0,2042.0,0.0,-52.0,
2061.0,2066.0,2058.0,2002.0,0.0,-52.0,
2044.0,2044.0,2059.0,1890.0,0.0,-52.0,
2019.0,2087.0,2051.0,1932.0,0.0,-52.0,
1998.0,1981.0,2050.0,2028.0,0.0,-52.0,
2019.0,1962.0,2054.0,2308.0,0.0,-52.0,
2010.0,1888.0,2048.0,2136.0,0.0,-52.0,
2009.0,1993.0,2053.0,2087.0,0.0,-52.0,
2046.0,1970.0,2059.0,2080.0,0.0,-52.0,
2058.0,2026.0,2059.0,2058.0,0.0,-52.0,
2029.0,2090.0,2053.0,2041.0,0.0,-52.0,
2082.0,2066.0,2060.0,2033.0,0.0,-53.0,
2034.0,1985.0,2056.0,1930.0,0.0,-53.0,
2012.0,1937.0,2050.0,2039.0,0.0,-53.0,
2009.0,2032.0,2050.0,2105.0,0.0,-53.0,
2020.0,1961.0,2052.0,2075.0,0.0,-53.0,
2009.0,2015.0,2050.0,2013.0,0.0,-53.0,
2019.0,2002.0,2049.0,1984.0,0.0,-53.0,
2035.0,2056.0,2056.0,2037.0,0.0,-53.0,
2095.0,2083.0,2062.0,2065.0,0.0,-53.0,
2025.0,2055.0,2040.0,2033.0,0.0,-53.0,
2022.0,1924.0,2054.0,1968.0,0.0,-53.0,
2052.0,1989.0,2053.0,1949.0,0.0,-53.0,
2039.0,2003.0,2054.0,1971.0,0.0,-53.0,
2007.0,1964.0,2050.0,2090.0,0.0,-53.0,
2026.0,2019.0,2053.0,2085.0,0.0,-53.0,
2049.0,2038.0,2062.0,2067.0,0.0,-53.0,
2057.0,2032.0,2069.0,1997.0,0,0,
2065.0,2064.0,2061.0,2015.0,0.0,-53.0,
2008.0,2019.0,2053.0,2023.0,0.0,-53.0,
2023.0,2025.0,2053.0,2109.0,0.0,-53.0,
2033.0,1991.0,2052.0,2066.0,0.0,-53.0,
2022.0,1901.0,2054.0,2036.0,0.0,-53.0,
2051.0,1955.0,2056.0,2137.0,0.0,-53.0,
2047.0,1999.0,2056.0,2092.0,0.0,-53.0,
2038.0,2004.0,2055.0,2061.0,0.0,-53.0,
2026.0,2027.0,2052.0,2013.0,0.0,-52.0,
2034.0,2021.0,2049.0,2010.0,0.0,-52.0,
2011.0,2043.0,2050.0,2005.0,0.0,-52.0,
2031.0,2069.0,2051.0,2034.0,0.0,-52.0,
2020.0,2089.0,2048.0,2045.0,0.0,-52.0,
2038.0,1944.0,2050.0,2053.0,0.0,-52.0,
2002.0,1978.0,2049.0,1986.0,0.0,-52.0,
1979.0,1996.0,2053.0,2025.0,0.0,-52.0,
2038.0,2023.0,2054.0,2079.0,0.0,-52.0,
2049.0,2009.0,2055.0,2040.0,0.0,-52.0,
2050.0,1934.0,2057.0,2019.0,0.0,-52.0,
2087.0,1966.0,2062.0,2004.0,0.0,-52.0,
2072.0,2000.0,2060.0,2015.0,0.0,-52.0,
2077.0,1997.0,2060.0,2031.0,0.0,-52.0,
2055.0,1965.0,2056.0,2110.0,0,0,
2032.0,2019.0,2052.0,2077.0,0.0,-52.0,
2016.0,2033.0,2051.0,2040.0,0.0,-52.0,
2032.0,2010.0,2055.0,2001.0,0.0,-52.0,
2048.0,2023.0,2055.0,2052.0,0.0,-52.0,
2039.0,2053.0,2057.0,2045.0,0.0,-52.0,
2018.0,2074.0,2052.0,2010.0,0.0,-52.0,
2068.0,2095.0,2048.0,2072.0,0.0,-52.0,
1932.0,1965.0,2037.0,2010.0,0.0,-52.0,
2052.0,1943.0,2059.0,2050.0,0.0,-52.0,
2027.0,1927.0,2055.0,2024.0,0.0,-52.0,
2032.0,2054.0,2052.0,2082.0,0.0,-52.0,
2026.0,2008.0,2058.0,2115.0,0.0,-52.0,
1987.0,1900.0,2048.0,2171.0,0.0,-52.0,
2025.0,1948.0,2053.0,2099.0,0.0,-52.0,
2007.0,2021.0,2049.0,1949.0,0,0,
2043.0,2055.0,2052.0,2018.0,0.0,-52.0,
2056.0,2049.0,2051.0,1948.0,0.0,-52.0,
2035.0,2004.0,2053.0,1977.0,0.0,-52.0,
2122.0,1917.0,2065.0,2103.0,0.0,-52.0,
2085.0,1978.0,2062.0,2056.0,0.0,-52.0,
2066.0,2012.0,2060.0,2068.0,0.0,-52.0,
2048.0,2029.0,2064.0,2024.0,0.0,-52.0,
2044.0,2033.0,2057.0,2001.0,0.0,-52.0,
2030.0,2007.0,2053.0,2093.0,0.0,-52.0,
2019.0,1990.0,2051.0,2025.0,0.0,-53.0,
2018.0,2020.0,2050.0,1991.0,0.0,-53.0,
2025.0,2011.0,2053.0,2021.0,0,0,
2027.0,2025.0,2050.0,2031.0,0.0,-53.0,
2036.0,2031.0,2050.0,2044.0,0.0,-53.0,
2033.0,2021.0,2052.0,2049.0,0.0,-53.0,
2021.0,2081.0,2052.0,2043.0,0.0,-53.0,
1998.0,1961.0,2053.0,2013.0,0.0,-53.0,
1990.0,1941.0,2050.0,2001.0,0.0,-53.0,
2068.0,2024.0,2058.0,1909.0,0.0,-53.0,
2078.0,2071.0,2063.0,1873.0,0.0,-53.0,
2039.0,2010.0,2054.0,2019.0,0.0,-53.0,
1977.0,1958.0,2045.0,2248.0,0.0,-53.0,
2005.0,1958.0,2048.0,2310.0,0.0,-53.0,
2025.0,2010.0,2048.0,2063.0,0.0,-53.0,
2005.0,2000.0,2055.0,2013.0,0.0,-52.0,
2020.0,1990.0,2053.0,2107.0,0.0,-52.0,
2056.0,2022.0,2057.0,2084.0,0.0,-52.0,
2035.0,1998.0,2055.0,2003.0,0.0,-52.0,
2082.0,2047.0,2061.0,1976.0,0.0,-52.0,
2060.0,2035.0,2060.0,2019.0,0.0,-52.0,
2040.0,1984.0,2056.0,2081.0,0.0,-52.0,
2014.0,1962.0,2051.0,2066.0,0.0,-52.0,
2019.0,2001.0,2053.0,2031.0,0.0,-52.0,
2032.0,2026.0,2056.0,2028.0,0.0,-52.0,
2037.0,2075.0,2050.0,2031.0,0.0,-52.0,
2069.0,2021.0,2059.0,2081.0,0.0,-52.0,
2007.0,1981.0,2049.0,2061.0,0.0,-52.0,
2056.0,1990.0,2055.0,2052.0,0.0,-52.0,
2010.0,1992.0,2053.0,2020.0,0.0,-52.0,
2013.0,1990.0,2048.0,1923.0,0.0,-52.0,
1984.0,1980.0,2065.0,2001.0,0.0,-52.0,
2017.0,2054.0,2051.0,2013.0,0.0,-52.0,
2070.0,2088.0,2061.0,1971.0,0.0,-52.0,
2088.0,2090.0,2061.0,1937.0,0.0,-52.0,
2010.0,1901.0,2049.0,2058.0,0.0,-52.0,
2008.0,1934.0,2050.0,2114.0,0.0,-52.0,
2072.0,1912.0,2056.0,2099.0,0.0,-52.0,
2062.0,1913.0,2059.0,2166.0,0.0,-52.0,
2055.0,2009.0,2055.0,2087.0,0.0,-52.0,
2057.0,2051.0,2056.0,2147.0,0.0,-52.0,
2048.0,1946.0,2057.0,2030.0,0.0,-52.0,
2031.0,2044.0,2055.0,2038.0,0.0,-52.0,
2053.0,2025.0,2054.0,1987.0,0.0,-52.0,
2033.0,2049.0,2049.0,2055.0,0.0,-52.0,
2053.0,2171.0,2051.0,2038.0,0.0,-52.0,
2000.0,1934.0,2047.0,2030.0,0,0,
2000.0,2056.0,2045.0,2037.0,0.0,-52.0,
1995.0,1954.0,2045.0,2010.0,0.0,-52.0,
2067.0,2007.0,2059.0,1994.0,0.0,-52.0,
2038.0,2030.0,2054.0,1963.0,0.0,-52.0,
2014.0,2054.0,2055.0,1997.0,0.0,-52.0,
2022.0,2016.0,2052.0,2043.0,0.0,-52.0,
1984.0,2055.0,2045.0,2007.0,0.0,-52.0,
2008.0,2019.0,2050.0,2039.0,0.0,-52.0,
2034.0,1998.0,2052.0,2000.0,0.0,-52.0,
2052.0,1979.0,2059.0,2084.0,0.0,-52.0,
2036.0,1941.0,2054.0,2182.0,0.0,-52.0,
2037.0,1943.0,2052.0,2207.0,0.0,-53.0,
2030.0,1939.0,2054.0,2111.0,0.0,-53.0,
2076.0,1983.0,2062.0,2076.0,0.0,-53.0,
2043.0,1999.0,2056.0,2025.0,0.0,-53.0,
2041.0,2011.0,2059.0,2043.0,0.0,-53.0,
2040.0,2026.0,2058.0,2039.0,0.0,-53.0,
2022.0,2051.0,2054.0,2015.0,0.0,-53.0,
2046.0,2059.0,2052.0,2046.0,0.0,-53.0,
1995.0,1959.0,2050.0,1993.0,0.0,-53.0,
2037.0,2013.0,2054.0,2011.0,0.0,-53.0,
2004.0,2010.0,2048.0,2028.0,0.0,-53.0,
2022.0,2024.0,2062.0,1996.0,0.0,-53.0,
2034.0,2060.0,2055.0,1988.0,0.0,-53.0,
2066.0,2018.0,2059.0,2018.0,0.0,-52.0,
2030.0,2056.0,2053.0,2058.0,0.0,-52.0,
2042.0,1975.0,2060.0,1931.0,0.0,-52.0,
2031.0,1917.0,2055.0,2020.0,0.0,-52.0,
2043.0,1912.0,2051.0,2048.0,0.0,-52.0,
2036.0,2013.0,2051.0,2118.0,0.0,-52.0,
2022.0,2002.0,2051.0,2046.0,0.0,-52.0,
2065.0,2021.0,2063.0,2010.0,0.0,-52.0,
2059.0,1990.0,2059.0,2046.0,0.0,-52.0,
2021.0,2030.0,2050.0,2055.0,0.0,-52.0,
2021.0,2060.0,2054.0,2050.0,0.0,-52.0,
2026.0,2060.0,2050.0,2069.0,0.0,-52.0,
1979.0,1955.0,2046.0,2040.0,0.0,-52.0,
1979.0,1951.0,2051.0,2053.0,0.0,-52.0,
2064.0,2012.0,2060.0,2035.0,0.0,-52.0,
2062.0,2025.0,2058.0,1965.0,0.0,-52.0,
2049.0,2042.0,2054.0,1975.0,0.0,-52.0,
2017.0,2019.0,2049.0,2092.0,0.0,-52.0,
2033.0,2076.0,2052.0,2160.0,0.0,-52.0,
1990.0,2025.0,2046.0,2063.0,0.0,-52.0,
2045.0,2032.0,2058.0,2022.0,0.0,-52.0,
2046.0,2053.0,2050.0,2003.0,0.0,-52.0,
2042.0,2026.0,2055.0,2029.0,0.0,-52.0,
2038.0,2061.0,2052.0,1990.0,0.0,-52.0,
1992.0,1927.0,2046.0,2030.0,0.0,-52.0,
2033.0,1986.0,2054.0,2082.0,0.0,-52.0,
2042.0,1972.0,2054.0,2116.0,0.0,-52.0,
2000.0,1925.0,2047.0,2154.0,0.0,-52.0,
1989.0,1995.0,2042.0,2071.0,0.0,-52.0,
2019.0,1978.0,2052.0,2047.0,0.0,0,
2079.0,1964.0,2067.0,2058.0,0.0,-52.0,
2076.0,2013.0,2060.0,2050.0,0.0,-52.0,
2019.0,2064.0,2056.0,1984.0,0.0,-52.0,
2013.0,1960.0,2051.0,1972.0,0,0,
2038.0,2006.0,2051.0,1975.0,0.0,-52.0,
2039.0,2028.0,2055.0,2012.0,0.0,-52.0,
2011.0,2023.0,2061.0,2072.0,0.0,-52.0,
2050.0,2052.0,2057.0,1994.0,0.0,-52.0,
2034.0,2044.0,2056.0,1987.0,0.0,-52.0,
2058.0,2011.0,2062.0,2024.0,0.0,-52.0,
1979.0,2006.0,2044.0,2131.0,0.0,-52.0,
2054.0,2015.0,2056.0,2180.0,0.0,-53.0,
1985.0,1983.0,2052.0,1958.0,0.0,-53.0,
1978.0,2014.0,2042.0,1943.0,0.0,-53.0,
2024.0,1968.0,2059.0,2030.0,0.0,-53.0,
2064.0,1984.0,2057.0,2064.0,0.0,-53.0,
2048.0,2021.0,2053.0,2045.0,0.0,-53.0,
2017.0,2052.0,2050.0,2052.0,0.0,-53.0,
2049.0,1983.0,2063.0,2038.0,0.0,-52.0,
2010.0,2051.0,2050.0,2050.0,0.0,-52.0,
2063.0,2084.0,2059.0,2042.0,0.0,-52.0,
2014.0,1974.0,2051.0,1933.0,0.0,-52.0,
2076.0,1987.0,2061.0,1995.0,0.0,-52.0,
2060.0,2033.0,2063.0,2052.0,0.0,-52.0,
1978.0,1890.0,2042.0,2130.0,0.0,-52.0,
2012.0,1938.0,2053.0,2132.0,0.0,-52.0,
2032.0,2014.0,2053.0,2051.0,0.0,-52.0,
2008.0,2032.0,2056.0,2038.0,0.0,-52.0,
2007.0,2039.0,2050.0,2088.0,0.0,-52.0,
2006.0,2009.0,2051.0,2039.0,0.0,-52.0,
2044.0,1921.0,2053.0,2032.0,0.0,-53.0,
2043.0,2025.0,2068.0,2035.0,0.0,-53.0,
2063.0,1983.0,2057.0,2034.0,0.0,0,
2034.0,2001.0,2052.0,2019.0,0.0,-53.0,
2032.0,2033.0,2050.0,2025.0,0.0,-53.0,
2032.0,2021.0,2051.0,2023.0,0.0,-53.0,
2030.0,2025.0,2050.0,2049.0,0.0,-53.0,
2050.0,2021.0,2059.0,2044.0,0.0,-53.0,
2040.0,2019.0,2055.0,2056.0,0.0,-53.0,
2079.0,2000.0,2056.0,2027.0,0.0,-53.0,
2036.0,2042.0,2051.0,2037.0,0.0,-53.0,
2049.0,2034.0,2055.0,2006.0,0.0,-53.0,
1985.0,2017.0,2049.0,2026.0,0.0,-53.0,
2021.0,1971.0,2050.0,2046.0,0.0,-53.0,
1995.0,1992.0,2051.0,2045.0,0.0,-52.0,
2046.0,1972.0,2057.0,2063.0,0.0,-52.0,
2038.0,2038.0,2054.0,2022.0,0.0,-52.0,
1985.0,2041.0,2048.0,2050.0,0.0,-52.0,
2041.0,2012.0,2054.0,2090.0,0.0,-52.0,
1978.0,1968.0,2047.0,2038.0,0.0,-52.0,
2052.0,1971.0,2059.0,2029.0,0.0,-52.0,
2034.0,1963.0,2049.0,2080.0,0.0,-52.0,
2062.0,2004.0,2053.0,2068.0,0.0,-52.0,
2057.0,2034.0,2057.0,2038.0,0.0,-52.0,
2050.0,2034.0,2053.0,2032.0,0.0,-52.0,
2055.0,2064.0,2054.0,1980.0,0.0,-52.0,
2036.0,2058.0,2054.0,1980.0,0.0,-52.0,
2035.0,1993.0,2049.0,2024.0,0.0,-52.0,
