2050.0,2050.0,19.0,-14.0,
2023.0,2023.0,19.0,-14.0,
2010.0,2001.0,19.0,-14.0,
2017.0,2032.0,19.0,-14.0,
2004.0,2008.0,19.0,-14.0,
2014.0,1988.0,19.0,-14.0,
2018.0,2013.0,19.0,-14.0,
2018.0,2123.0,19.0,-14.0,
2018.0,2061.0,19.0,-14.0,
2031.0,2051.0,19.0,-14.0,
2033.0,2030.0,19.0,-14.0,
2034.0,2036.0,19.0,-14.0,
2025.0,2040.0,19.0,-14.0,
2020.0,2084.0,19.0,-14.0,
2007.0,2027.0,19.0,-14.0,
2020.0,2022.0,19.0,-14.0,
2013.0,1968.0,19.0,-14.0,
2053.0,1965.0,19.0,-14.0,
2035.0,1989.0,18.0,-14.0,
2033.0,2012.0,18.0,-14.0,
2029.0,2024.0,18.0,-14.0,
2037.0,2024.0,18.0,-14.0,
2035.0,2039.0,18.0,-14.0,
2020.0,2043.0,18.0,-14.0,
1997.0,2046.0,18.0,-14.0,
2026.0,2046.0,18.0,-14.0,
2042.0,2047.0,18.0,-14.0,
2027.0,2048.0,18.0,-14.0,
2019.0,2027.0,18.0,-14.0,
2011.0,2038.0,18.0,-14.0,
2014.0,1998.0,18.0,-14.0,
2021.0,2013.0,19.0,-14.0,
2043.0,2004.0,19.0,-14.0,
2047.0,2038.0,19.0,-14.0,
1984.0,1881.0,19.0,-14.0,
2037.0,1890.0,19.0,-14.0,
2049.0,2261.0,19.0,-14.0,
2033.0,2104.0,19.0,-14.0,
2022.0,2071.0,19.0,-14.0,
2016.0,2011.0,19.0,-14.0,
2025.0,2051.0,19.0,-14.0,
2037.0,2055.0,19.0,-14.0,
2022.0,2063.0,19.0,-14.0,
2028.0,2034.0,19.0,-14.0,
2014.0,2022.0,19.0,-14.0,
2051.0,1981.0,19.0,-14.0,
2023.0,2010.0,19.0,-14.0,
2042.0,1969.0,19.0,-14.0,
2006.0,1909.0,19.0,-14.0,
1993.0,2027.0,19.0,-14.0,
2019.0,2165.0,18.0,-14.0,
2021.0,2018.0,18.0,-14.0,
2033.0,1933.0,18.0,-14.0,
2018.0,2007.0,18.0,-14.0,
2036.0,2003.0,18.0,-14.0,
2044.0,1985.0,18.0,-14.0,
2046.0,1990.0,18.0,-14.0,
2006.0,2034.0,18.0,-14.0,
2002.0,2060.0,18.0,-14.0,
2011.0,2105.0,18.0,-14.0,
2019.0,2064.0,18.0,-14.0,
2001.0,2028.0,18.0,-14.0,
2024.0,2050.0,18.0,-14.0,
2030.0,2032.0,19.0,-14.0,
2024.0,1962.0,19.0,-14.0,
2034.0,1935.0,19.0,-14.0,
2013.0,1884.0,19.0,-14.0,
2015.0,2077.0,19.0,-14.0,
2038.0,2060.0,19.0,-14.0,
2002.0,2325.0,19.0,-14.0,
2033.0,2109.0,19.0,-14.0,
2033.0,1978.0,19.0,-14.0,
2030.0,1937.0,19.0,-14.0,
2058.0,2050.0,19.0,-14.0,
2046.0,2029.0,19.0,-14.0,
2010.0,1955.0,19.0,-14.0,
1983.0,2003.0,19.0,-14.0,
2024.0,2047.0,19.0,-14.0,
2032.0,2064.0,19.0,-14.0,
2039.0,2036.0,19.0,-14.0,
2032.0,1992.0,19.0,-14.0,
2032.0,2013.0,19.0,-14.0,
2047.0,2015.0,19.0,-14.0,
2024.0,2019.0,19.0,-14.0,
2024.0,2072.0,19.0,-14.0,
2020.0,2081.0,19.0,-14.0,
2020.0,2018.0,19.0,-14.0,
2011.0,1932.0,19.0,-14.0,
2014.0,1979.0,19.0,-14.0,
2024.0,2016.0,19.0,-14.0,
2064.0,2050.0,19.0,-14.0,
2036.0,2026.0,18.0,-14.0,
2051.0,2036.0,18.0,-14.0,
2042.0,2185.0,18.0,-14.0,
2006.0,2015.0,18.0,-14.0,
2023.0,2007.0,18.0,-14.0,
2031.0,1946.0,18.0,-14.0,
2009.0,1963.0,18.0,-14.0,
2024.0,1991.0,18.0,-14.0,
2037.0,2024.0,18.0,-14.0,
2051.0,2041.0,18.0,-14.0,
2057.0,2037.0,18.0,-14.0,
2028.0,2008.0,18.0,-14.0,
2040.0,2021.0,18.0,-14.0,
2017.0,2024.0,18.0,-14.0,
2012.0,2033.0,18.0,-14.0,
2021.0,2037.0,18.0,-14.0,
2014.0,2047.0,18.0,-14.0,
2053.0,2057.0,18.0,-14.0,
1999.0,2005.0,18.0,-14.0,
2019.0,2019.0,18.0,-14.0,
2006.0,2024.0,19.0,-14.0,
2030.0,2013.0,19.0,-14.0,
2031.0,2030.0,19.0,-14.0,
2017.0,2026.0,19.0,-14.0,
2025.0,2060.0,19.0,-14.0,
2018.0,2063.0,19.0,-14.0,
2045.0,2054.0,19.0,-14.0,
2047.0,2014.0,19.0,-14.0,
2023.0,2030.0,19.0,-14.0,
2024.0,2016.0,19.0,-14.0,
2023.0,2030.0,19.0,-14.0,
2022.0,2004.0,19.0,-14.0,
2015.0,1965.0,19.0,-14.0,
2013.0,2006.0,19.0,-14.0,
2019.0,2036.0,19.0,-14.0,
2041.0,2056.0,19.0,-14.0,
2051.0,2014.0,19.0,-14.0,
2018.0,2013.0,19.0,-14.0,
2019.0,1982.0,19.0,-14.0,
2028.0,2015.0,19.0,-14.0,
2025.0,2113.0,19.0,-14.0,
2029.0,2013.0,18.0,-14.0,
2029.0,1980.0,18.0,-14.0,
2038.0,2072.0,18.0,-14.0,
2045.0,1987.0,18.0,-14.0,
2049.0,2029.0,18.0,-14.0,
2060.0,2053.0,18.0,-14.0,
2044.0,2043.0,18.0,-14.0,
2029.0,2020.0,18.0,-14.0,
2003.0,1872.0,18.0,-14.0,
2039.0,1820.0,18.0,-14.0,
2041.0,1921.0,18.0,-14.0,
2046.0,2151.0,18.0,-14.0,
2028.0,2326.0,19.0,-14.0,
2029.0,2076.0,19.0,-14.0,
2075.0,2062.0,19.0,-14.0,
1992.0,2023.0,19.0,-14.0,
2006.0,2062.0,19.0,-14.0,
1996.0,2055.0,19.0,-14.0,
2024.0,2129.0,19.0,-14.0,
1998.0,1907.0,19.0,-14.0,
2036.0,1999.0,19.0,-14.0,
2033.0,1870.0,19.0,-14.0,
2068.0,1918.0,19.0,-14.0,
2051.0,1959.0,19.0,-14.0,
2025.0,2018.0,19.0,-14.0,
2053.0,2004.0,19.0,-14.0,
2032.0,2041.0,19.0,-14.0,
2003.0,2036.0,19.0,-14.0,
1990.0,2045.0,19.0,-14.0,
2029.0,2033.0,19.0,-14.0,
2046.0,2001.0,19.0,-14.0,
2025.0,2015.0,19.0,-14.0,
2024.0,2067.0,19.0,-14.0,
2024.0,2045.0,19.0,-14.0,
2017.0,1966.0,18.0,-14.0,
2020.0,2009.0,18.0,-14.0,
2017.0,2179.0,18.0,-14.0,
2032.0,2089.0,18.0,-14.0,
2022.0,1979.0,18.0,-14.0,
2036.0,2022.0,18.0,-14.0,
2037.0,2025.0,18.0,-14.0,
2054.0,2001.0,18.0,-14.0,
2030.0,2024.0,18.0,-14.0,
2049.0,2034.0,18.0,-14.0,
1986.0,2041.0,18.0,-14.0,
2007.0,2049.0,18.0,-14.0,
2019.0,2019.0,18.0,-14.0,
2037.0,2057.0,18.0,-14.0,
2043.0,2030.0,18.0,-14.0,
2056.0,2001.0,18.0,-14.0,
2072.0,2018.0,18.0,-14.0,
2028.0,2016.0,18.0,-14.0,
1997.0,2026.0,18.0,-14.0,
2005.0,2015.0,18.0,-14.0,
1995.0,2028.0,18.0,-14.0,
1997.0,2052.0,18.0,-14.0,
2037.0,2042.0,18.0,-14.0,
2006.0,2000.0,19.0,-14.0,
2039.0,1927.0,19.0,-14.0,
2057.0,1904.0,19.0,-14.0,
2039.0,2056.0,19.0,-14.0,
2053.0,2270.0,19.0,-14.0,
1976.0,2066.0,19.0,-14.0,
2018.0,2017.0,19.0,-14.0,
2016.0,1968.0,19.0,-14.0,
2045.0,2033.0,19.0,-14.0,
2022.0,2041.0,19.0,-14.0,
2043.0,2052.0,19.0,-14.0,
2029.0,1941.0,19.0,-14.0,
2032.0,1914.0,19.0,-14.0,
2028.0,2018.0,19.0,-14.0,
2018.0,2105.0,19.0,-14.0,
2018.0,2023.0,19.0,-14.0,
2023.0,2097.0,19.0,-14.0,
2011.0,2104.0,19.0,-14.0,
2055.0,2082.0,19.0,-14.0,
2025.0,1947.0,19.0,-14.0,
2027.0,1996.0,19.0,-14.0,
2019.0,1987.0,19.0,-14.0,
2030.0,1997.0,19.0,-14.0,
2024.0,1973.0,18.0,-14.0,
2009.0,2011.0,18.0,-14.0,
2019.0,1999.0,18.0,-14.0,
2022.0,2020.0,18.0,-14.0,
2043.0,1995.0,18.0,-14.0,
2044.0,1965.0,18.0,-14.0,
2009.0,2007.0,18.0,-14.0,
2002.0,2154.0,18.0,-14.0,
2003.0,2050.0,18.0,-14.0,
2008.0,1967.0,18.0,-14.0,
2021.0,2066.0,18.0,-14.0,
2021.0,2066.0,18.0,-14.0,
2036.0,2047.0,18.0,-14.0,
2039.0,2052.0,18.0,-14.0,
2054.0,2032.0,18.0,-14.0,
2037.0,2041.0,18.0,-14.0,
2054.0,2030.0,18.0,-14.0,
2011.0,2022.0,18.0,-14.0,
1999.0,2023.0,18.0,-14.0,
2007.0,2030.0,18.0,-14.0,
2009.0,2063.0,18.0,-14.0,
2042.0,2014.0,18.0,-14.0,
2015.0,1920.0,18.0,-14.0,
2045.0,2055.0,19.0,-14.0,
2045.0,2027.0,19.0,-14.0,
2030.0,1981.0,19.0,-14.0,
2005.0,1984.0,19.0,-14.0,
2010.0,2027.0,19.0,-14.0,
2021.0,2014.0,19.0,-14.0,
2001.0,2022.0,19.0,-14.0,
2009.0,2153.0,19.0,-14.0,
2028.0,2029.0,19.0,-14.0,
2019.0,2000.0,19.0,-14.0,
2039.0,2019.0,19.0,-14.0,
2046.0,2006.0,19.0,-14.0,
2023.0,2042.0,19.0,-14.0,
2014.0,2037.0,19.0,-14.0,
2028.0,1953.0,19.0,-14.0,
2000.0,1906.0,19.0,-14.0,
2012.0,1960.0,19.0,-14.0,
2039.0,2292.0,19.0,-14.0,
2020.0,2105.0,19.0,-14.0,
2057.0,2033.0,18.0,-14.0,
2051.0,2021.0,18.0,-14.0,
2022.0,1963.0,18.0,-14.0,
1994.0,1948.0,18.0,-14.0,
2010.0,1998.0,18.0,-14.0,
1986.0,2017.0,18.0,-14.0,
2020.0,2027.0,18.0,-14.0,
2015.0,1990.0,18.0,-14.0,
2033.0,2086.0,18.0,-14.0,
2044.0,2077.0,18.0,-14.0,
2050.0,2048.0,18.0,-14.0,
2040.0,2030.0,18.0,-14.0,
2015.0,2010.0,18.0,-14.0,
2008.0,1995.0,18.0,-14.0,
2009.0,2027.0,18.0,-14.0,
2030.0,2041.0,19.0,-14.0,
2014.0,2029.0,19.0,-14.0,
2015.0,2030.0,19.0,-14.0,
2063.0,2103.0,19.0,-14.0,
2032.0,2091.0,19.0,-14.0,
2035.0,1995.0,19.0,-14.0,
2012.0,1954.0,19.0,-14.0,
2014.0,1986.0,0,
2013.0,1968.0,19.0,-14.0,
2030.0,1994.0,18.0,-14.0,
2048.0,2017.0,18.0,-14.0,
2052.0,2056.0,18.0,-14.0,
2065.0,2024.0,18.0,-14.0,
2044.0,2029.0,18.0,-14.0,
2030.0,2035.0,18.0,-14.0,
2034.0,2049.0,18.0,-14.0,
1991.0,2032.0,18.0,-14.0,
2009.0,2049.0,18.0,-14.0,
2019.0,2057.0,18.0,-14.0,
2020.0,2001.0,18.0,-14.0,
2043.0,1937.0,18.0,-14.0,
2041.0,2012.0,18.0,-14.0,
2049.0,2002.0,18.0,-14.0,
2043.0,2029.0,18.0,-14.0,
1997.0,2088.0,18.0,-14.0,
2025.0,2035.0,18.0,-14.0,
2024.0,1968.0,18.0,-14.0,
2032.0,1986.0,19.0,-14.0,
2021.0,1987.0,19.0,-14.0,
2017.0,2023.0,19.0,-14.0,
2024.0,2071.0,19.0,-14.0,
2027.0,2042.0,19.0,-14.0,
2020.0,2036.0,19.0,-14.0,
2022.0,2034.0,19.0,-14.0,
2008.0,2034.0,19.0,-14.0,
2016.0,2040.0,19.0,-14.0,
2029.0,2038.0,19.0,-14.0,
2009.0,2058.0,19.0,-14.0,
2024.0,2007.0,19.0,-14.0,
2040.0,1982.0,19.0,-14.0,
2021.0,1870.0,19.0,-14.0,
2036.0,2165.0,19.0,-14.0,
2003.0,2111.0,19.0,-14.0,
2003.0,2079.0,19.0,-14.0,
2024.0,1929.0,19.0,-14.0,
2037.0,2097.0,19.0,-14.0,
2042.0,2031.0,19.0,-14.0,
2043.0,1992.0,19.0,-14.0,
2037.0,2074.0,19.0,-14.0,
2024.0,2112.0,19.0,-14.0,
2014.0,2081.0,19.0,-14.0,
2026.0,1974.0,18.0,-14.0,
2026.0,1912.0,18.0,-14.0,
2017.0,2027.0,18.0,-14.0,
2027.0,2004.0,18.0,-14.0,
2033.0,1932.0,18.0,-14.0,
2012.0,1922.0,18.0,-14.0,
2035.0,1965.0,18.0,-14.0,
2041.0,2022.0,18.0,-14.0,
2016.0,2085.0,18.0,-14.0,
2027.0,2162.0,18.0,-14.0,
2037.0,2039.0,18.0,-14.0,
2051.0,2027.0,18.0,-14.0,
2009.0,2049.0,18.0,-14.0,
2043.0,1979.0,18.0,-14.0,
2014.0,1986.0,18.0,-14.0,
2051.0,2018.0,19.0,-14.0,
2012.0,2039.0,18.0,-14.0,
2006.0,1993.0,18.0,-14.0,
2023.0,1897.0,19.0,-14.0,
2019.0,1944.0,18.0,-14.0,
2012.0,2012.0,18.0,-14.0,
2037.0,2274.0,19.0,-14.0,
2021.0,2141.0,18.0,-14.0,
2048.0,2016.0,18.0,-14.0,
2044.0,2013.0,19.0,-14.0,
2026.0,1973.0,18.0,-14.0,
2032.0,1940.0,18.0,-14.0,
2026.0,2132.0,18.0,-14.0,
2027.0,2105.0,18.0,-14.0,
2019.0,2042.0,18.0,-14.0,
2011.0,2034.0,18.0,-14.0,
2042.0,2033.0,18.0,-14.0,
2043.0,2014.0,18.0,-14.0,
2036.0,2013.0,18.0,-14.0,
2032.0,2021.0,18.0,-14.0,
2031.0,2026.0,18.0,-14.0,
2002.0,2009.0,18.0,-14.0,
2019.0,2023.0,18.0,-14.0,
2032.0,2029.0,18.0,-14.0,
2021.0,2028.0,18.0,-14.0,
2036.0,2050.0,18.0,-14.0,
2037.0,2003.0,18.0,-14.0,
2047.0,1955.0,19.0,-14.0,
2036.0,1985.0,19.0,-14.0,
2027.0,2022.0,19.0,-14.0,
2023.0,2011.0,19.0,-14.0,
2022.0,1987.0,19.0,-14.0,
2016.0,2069.0,19.0,-14.0,
2039.0,2025.0,19.0,-14.0,
2044.0,2029.0,19.0,-14.0,
2016.0,2033.0,19.0,-14.0,
2014.0,2017.0,19.0,-14.0,
2029.0,2072.0,19.0,-14.0,
2041.0,2004.0,19.0,-14.0,
2031.0,2019.0,19.0,-14.0,
2026.0,2058.0,19.0,-14.0,
2028.0,2030.0,19.0,-14.0,
2033.0,2058.0,19.0,-14.0,
2003.0,2004.0,19.0,-14.0,
2013.0,1991.0,19.0,-14.0,
2021.0,1970.0,19.0,-14.0,
2042.0,1960.0,19.0,-14.0,
2036.0,2127.0,19.0,-14.0,
2027.0,2034.0,19.0,-14.0,
2026.0,2078.0,19.0,-14.0,
2008.0,1981.0,19.0,-14.0,
2015.0,1959.0,18.0,-14.0,
2018.0,1985.0,18.0,-14.0,
2042.0,2235.0,18.0,-14.0,
2070.0,2224.0,18.0,-14.0,
2065.0,2040.0,18.0,-14.0,
2008.0,1870.0,18.0,-14.0,
2010.0,1866.0,18.0,-14.0,
2013.0,1957.0,18.0,-14.0,
2011.0,2088.0,18.0,-14.0,
2061.0,2245.0,18.0,-14.0,
2047.0,1966.0,18.0,-14.0,
2025.0,1935.0,18.0,-14.0,
2032.0,1965.0,18.0,-14.0,
2031.0,2163.0,18.0,-14.0,
1996.0,2103.0,18.0,-14.0,
2026.0,2066.0,18.0,-14.0,
2016.0,1948.0,18.0,-14.0,
2011.0,1991.0,18.0,-14.0,
2026.0,2057.0,18.0,-14.0,
2039.0,2068.0,18.0,-14.0,
2034.0,2020.0,18.0,-14.0,
2040.0,1901.0,18.0,-14.0,
2023.0,1862.0,18.0,-14.0,
2064.0,1931.0,18.0,-14.0,
2029.0,1983.0,18.0,-14.0,
2023.0,2173.0,19.0,-14.0,
2026.0,1983.0,19.0,-14.0,
2011.0,2084.0,19.0,-14.0,
2006.0,2158.0,19.0,-14.0,
2022.0,2157.0,19.0,-13.0,
2047.0,1943.0,19.0,-13.0,
2040.0,1961.0,19.0,-14.0,
2030.0,2004.0,19.0,-14.0,
2050.0,2096.0,19.0,-14.0,
2018.0,2031.0,19.0,-14.0,
2019.0,1980.0,19.0,-14.0,
2015.0,1955.0,19.0,-14.0,
2043.0,2138.0,19.0,-14.0,
2035.0,2203.0,19.0,-14.0,
2014.0,2000.0,19.0,-14.0,
1994.0,1905.0,19.0,-14.0,
1992.0,2056.0,19.0,-14.0,
1988.0,2159.0,19.0,-14.0,
1984.0,1809.0,19.0,-14.0,
2054.0,1853.0,19.0,-14.0,
2037.0,1825.0,19.0,-14.0,
2026.0,2134.0,19.0,-14.0,
2035.0,2116.0,19.0,-14.0,
2057.0,1935.0,19.0,-14.0,
2072.0,2052.0,19.0,-14.0,
2017.0,2149.0,19.0,-14.0,
1984.0,1959.0,19.0,-14.0,
2023.0,2068.0,19.0,-14.0,
2019.0,2233.0,19.0,-14.0,
2074.0,2084.0,19.0,-14.0,
2115.0,1976.0,0,
2093.0,2058.0,19.0,-14.0,
2077.0,2187.0,19.0,-14.0,
2069.0,2054.0,19.0,-14.0,
1974.0,2008.0,19.0,-14.0,
1885.0,2018.0,18.0,-14.0,
1906.0,2024.0,18.0,-14.0,
1925.0,2135.0,18.0,-14.0,
1972.0,2012.0,18.0,-14.0,
2004.0,1845.0,18.0,-14.0,
2038.0,1853.0,18.0,-14.0,
2124.0,1866.0,18.0,-14.0,
2109.0,1861.0,18.0,-14.0,
2120.0,1983.0,18.0,-14.0,
2059.0,2055.0,18.0,-14.0,
1968.0,2186.0,18.0,-14.0,
1967.0,2023.0,18.0,-14.0,
2020.0,2216.0,18.0,-14.0,
2010.0,1945.0,18.0,-14.0,
2020.0,2172.0,17.0,-14.0,
2015.0,2177.0,0,
2016.0,2081.0,17.0,-14.0,
1991.0,1960.0,17.0,-14.0,
2034.0,1787.0,17.0,-14.0,
2018.0,2009.0,17.0,-14.0,
2057.0,1981.0,17.0,-14.0,
2071.0,2023.0,16.0,-14.0,
1992.0,1990.0,16.0,-14.0,
2042.0,2112.0,16.0,-14.0,
2057.0,2027.0,16.0,-14.0,
2011.0,1975.0,0,
2038.0,2098.0,16.0,-14.0,
2032.0,1982.0,16.0,-14.0,
2056.0,1829.0,16.0,-13.0,
2057.0,1940.0,16.0,-13.0,
2010.0,1995.0,16.0,-13.0,
2028.0,2024.0,17.0,-13.0,
2077.0,1895.0,17.0,-13.0,
2056.0,2039.0,17.0,-13.0,
2044.0,2199.0,17.0,-13.0,
2098.0,2380.0,17.0,-13.0,
2102.0,2047.0,17.0,-13.0,
1985.0,2000.0,17.0,-13.0,
1991.0,2006.0,17.0,-13.0,
1962.0,2027.0,17.0,-14.0,
1914.0,2012.0,17.0,-13.0,
1928.0,1994.0,17.0,-13.0,
1980.0,2025.0,17.0,-13.0,
2007.0,2032.0,18.0,-12.0,
2056.0,2086.0,18.0,-12.0,
2094.0,2159.0,19.0,-12.0,
2107.0,2020.0,19.0,-12.0,
2103.0,2010.0,20.0,-12.0,
2111.0,2057.0,20.0,-13.0,
2007.0,2056.0,21.0,-13.0,
1872.0,1998.0,21.0,-13.0,
2020.0,2045.0,21.0,-13.0,
2017.0,1970.0,21.0,-13.0,
2010.0,2017.0,20.0,-13.0,
1959.0,1918.0,20.0,-12.0,
2039.0,1946.0,19.0,-12.0,
2035.0,1958.0,18.0,-12.0,
1930.0,2059.0,17.0,-12.0,
1978.0,2133.0,16.0,-11.0,
1968.0,1978.0,16.0,-11.0,
1951.0,1980.0,15.0,-11.0,
1993.0,2042.0,14.0,-11.0,
2071.0,2001.0,14.0,-11.0,
2022.0,1995.0,14.0,-10.0,
1986.0,1954.0,14.0,-10.0,
2043.0,1985.0,14.0,-10.0,
2079.0,2030.0,14.0,-10.0,
2081.0,2014.0,13.0,-10.0,
2093.0,2097.0,13.0,-10.0,
2048.0,2082.0,13.0,-10.0,
2088.0,1988.0,13.0,-10.0,
1980.0,1802.0,12.0,-10.0,
2095.0,2138.0,12.0,-10.0,
2079.0,1913.0,11.0,-10.0,
2006.0,1898.0,11.0,-10.0,
2068.0,2246.0,10.0,-10.0,
2059.0,2383.0,10.0,-9.0,
2057.0,2279.0,10.0,-9.0,
2061.0,1978.0,9.0,-9.0,
2051.0,2015.0,10.0,-9.0,
2040.0,1963.0,10.0,-9.0,
2019.0,1954.0,10.0,-9.0,
2022.0,1929.0,10.0,-9.0,
2023.0,2084.0,11.0,-10.0,
2021.0,2118.0,11.0,-10.0,
2019.0,1895.0,11.0,-11.0,
2051.0,1814.0,12.0,-12.0,
2085.0,1763.0,12.0,-12.0,
2036.0,2368.0,12.0,-12.0,
2044.0,2062.0,11.0,-12.0,
2034.0,2236.0,11.0,-12.0,
1989.0,2106.0,10.0,-12.0,
2006.0,1945.0,10.0,-12.0,
2005.0,1913.0,9.0,-11.0,
2012.0,1984.0,9.0,-12.0,
2029.0,2012.0,9.0,-12.0,
2051.0,2015.0,9.0,-12.0,
2063.0,1993.0,9.0,-12.0,
2079.0,1994.0,9.0,-13.0,
2070.0,1949.0,9.0,-13.0,
2030.0,1923.0,10.0,-14.0,
2034.0,1964.0,10.0,-15.0,
2025.0,2205.0,10.0,-15.0,
1992.0,2195.0,9.0,-16.0,
2014.0,2076.0,8.0,-16.0,
2012.0,2010.0,8.0,-16.0,
2002.0,2003.0,7.0,-16.0,
1989.0,1949.0,7.0,-16.0,
2026.0,1957.0,7.0,-16.0,
2057.0,1991.0,6.0,-16.0,
2128.0,2049.0,6.0,-16.0,
2090.0,2068.0,6.0,-16.0,
2078.0,2060.0,6.0,-16.0,
2013.0,2045.0,6.0,-16.0,
1904.0,1886.0,7.0,-15.0,
2019.0,1834.0,7.0,-15.0,
2099.0,1797.0,7.0,-15.0,
2129.0,2229.0,8.0,-16.0,
1911.0,2662.0,8.0,-17.0,
1630.0,1958.0,8.0,-17.0,
1852.0,1949.0,8.0,-18.0,
1994.0,2095.0,8.0,-18.0,
2040.0,2068.0,8.0,-18.0,
2035.0,2023.0,8.0,-19.0,
2058.0,1990.0,8.0,-19.0,
2073.0,1972.0,8.0,-19.0,
2063.0,1985.0,7.0,-18.0,
2057.0,1972.0,7.0,-18.0,
2054.0,1937.0,7.0,-18.0,
2069.0,1953.0,7.0,-18.0,
2102.0,1998.0,7.0,-18.0,
2114.0,2170.0,8.0,-18.0,
2114.0,2017.0,8.0,-19.0,
2048.0,1960.0,9.0,-20.0,
2035.0,1977.0,10.0,-21.0,
1999.0,1996.0,11.0,-21.0,
1996.0,2010.0,13.0,-22.0,
1965.0,2001.0,14.0,-23.0,
1933.0,2011.0,15.0,-23.0,
2026.0,2023.0,16.0,-23.0,
2070.0,2033.0,17.0,-23.0,
2095.0,2019.0,18.0,-23.0,
2152.0,2004.0,20.0,-23.0,
2136.0,1990.0,20.0,-23.0,
2085.0,2033.0,22.0,-23.0,
2072.0,2059.0,23.0,-23.0,
1956.0,2056.0,24.0,-23.0,
1998.0,2096.0,25.0,-23.0,
1939.0,2044.0,26.0,-23.0,
1881.0,2025.0,27.0,-23.0,
2026.0,2071.0,28.0,-22.0,
1925.0,2032.0,28.0,-22.0,
1901.0,1989.0,29.0,-21.0,
1989.0,1998.0,30.0,-21.0,
2015.0,1992.0,30.0,-20.0,
2058.0,2038.0,30.0,-20.0,
2110.0,2065.0,31.0,-19.0,
2076.0,2025.0,31.0,-19.0,
2067.0,2017.0,31.0,-19.0,
2086.0,2037.0,31.0,-20.0,
2070.0,2049.0,31.0,-21.0,
2091.0,2051.0,32.0,-22.0,
1985.0,2020.0,32.0,-23.0,
1874.0,1980.0,33.0,-23.0,
1963.0,2041.0,33.0,-23.0,
1981.0,1969.0,33.0,-24.0,
1969.0,1876.0,33.0,-24.0,
2020.0,2118.0,33.0,-25.0,
2076.0,2053.0,34.0,-25.0,
2065.0,1989.0,34.0,-26.0,
2068.0,2007.0,34.0,-25.0,
2055.0,2042.0,33.0,-25.0,
2083.0,2046.0,33.0,-25.0,
2129.0,2087.0,33.0,-26.0,
2139.0,2082.0,34.0,-26.0,
2109.0,2054.0,34.0,-27.0,
1979.0,2051.0,34.0,-27.0,
1957.0,2064.0,34.0,-28.0,
1905.0,2027.0,34.0,-28.0,
1927.0,1994.0,34.0,-28.0,
2017.0,1959.0,34.0,-29.0,
2033.0,1945.0,34.0,-29.0,
2022.0,1982.0,34.0,-30.0,
2036.0,2049.0,34.0,-30.0,
2032.0,2059.0,34.0,-30.0,
2055.0,2025.0,34.0,-30.0,
2142.0,2008.0,35.0,-30.0,
2179.0,2044.0,36.0,-30.0,
2031.0,2102.0,37.0,-30.0,
1961.0,2112.0,37.0,-31.0,
1872.0,1977.0,38.0,-32.0,
1927.0,1972.0,39.0,-31.0,
1998.0,1970.0,40.0,-31.0,
1970.0,1781.0,41.0,-31.0,
1920.0,1799.0,42.0,-31.0,
1978.0,2164.0,43.0,-30.0,
2064.0,2181.0,43.0,-29.0,
2065.0,2104.0,44.0,-29.0,
2062.0,2097.0,45.0,-28.0,
2050.0,2108.0,46.0,-27.0,
2102.0,2141.0,47.0,-25.0,
2084.0,2084.0,47.0,-24.0,
2013.0,2010.0,48.0,-24.0,
2013.0,1923.0,48.0,-23.0,
2035.0,1957.0,49.0,-23.0,
1997.0,1970.0,49.0,-22.0,
2018.0,1949.0,50.0,-22.0,
2073.0,1968.0,50.0,-22.0,
2095.0,1977.0,50.0,-21.0,
2092.0,1984.0,50.0,-21.0,
2049.0,2008.0,51.0,-21.0,
2002.0,2052.0,51.0,-20.0,
2013.0,2091.0,51.0,-20.0,
2043.0,2103.0,52.0,-20.0,
2025.0,2111.0,53.0,-19.0,
2073.0,2073.0,53.0,-19.0,
2030.0,2036.0,54.0,-19.0,
2020.0,2040.0,54.0,-19.0,
2072.0,1998.0,55.0,-19.0,
1931.0,1951.0,55.0,-19.0,
1878.0,2009.0,56.0,-19.0,
1862.0,1965.0,56.0,-19.0,
1948.0,1960.0,57.0,-19.0,
2009.0,2050.0,58.0,-19.0,
2083.0,2174.0,58.0,-19.0,
1980.0,2135.0,59.0,-19.0,
1981.0,2102.0,59.0,-18.0,
2037.0,2057.0,60.0,-18.0,
1987.0,2063.0,60.0,-18.0,
2053.0,2056.0,61.0,-18.0,
2039.0,2024.0,61.0,-18.0,
1980.0,2002.0,62.0,-18.0,
2014.0,2003.0,62.0,-18.0,
2001.0,1956.0,62.0,-18.0,
2025.0,1930.0,62.0,-18.0,
2031.0,1959.0,62.0,-18.0,
2034.0,1964.0,63.0,-18.0,
2024.0,1949.0,63.0,-18.0,
2044.0,2015.0,63.0,-17.0,
2047.0,2113.0,63.0,-17.0,
2083.0,2084.0,63.0,-17.0,
2044.0,2092.0,64.0,-17.0,
2068.0,2087.0,64.0,-17.0,
2072.0,2053.0,64.0,-17.0,
2003.0,2011.0,64.0,-17.0,
2000.0,1989.0,64.0,-17.0,
2028.0,1991.0,64.0,-17.0,
2045.0,1985.0,64.0,-17.0,
1954.0,1904.0,64.0,-17.0,
1946.0,2033.0,64.0,-17.0,
1985.0,1925.0,64.0,-17.0,
2040.0,1944.0,64.0,-17.0,
2029.0,2050.0,64.0,-17.0,
2026.0,2062.0,64.0,-17.0,
2048.0,2099.0,64.0,-17.0,
2052.0,2100.0,64.0,-17.0,
2063.0,2126.0,64.0,-17.0,
2050.0,2078.0,64.0,-16.0,
2020.0,2041.0,65.0,-16.0,
2009.0,2055.0,65.0,-16.0,
2051.0,2022.0,65.0,-16.0,
2028.0,2027.0,65.0,-16.0,
2043.0,2017.0,65.0,-16.0,
2043.0,1950.0,66.0,-17.0,
2038.0,1922.0,66.0,-17.0,
2060.0,2102.0,66.0,-17.0,
2046.0,2046.0,66.0,-17.0,
2062.0,2043.0,67.0,-17.0,
2102.0,2032.0,67.0,-17.0,
2101.0,2063.0,67.0,-17.0,
2085.0,2068.0,0,
2042.0,2083.0,68.0,-17.0,
1960.0,2017.0,69.0,-17.0,
1964.0,2000.0,69.0,-17.0,
1897.0,2012.0,69.0,-16.0,
1952.0,2050.0,69.0,-16.0,
1888.0,2029.0,69.0,-16.0,
1920.0,1995.0,69.0,-15.0,
2020.0,1966.0,69.0,-14.0,
1987.0,1912.0,69.0,-14.0,
2040.0,1954.0,69.0,-13.0,
2057.0,1982.0,69.0,-12.0,
2010.0,1947.0,69.0,-11.0,
2049.0,2017.0,69.0,-10.0,
2075.0,2111.0,68.0,-10.0,
2078.0,2044.0,68.0,-9.0,
2052.0,2021.0,69.0,-8.0,
2051.0,2003.0,69.0,-8.0,
2033.0,1876.0,69.0,-8.0,
2021.0,2041.0,69.0,-7.0,
2121.0,2127.0,69.0,-7.0,
2056.0,2048.0,70.0,-7.0,
2040.0,2032.0,70.0,-7.0,
2066.0,2042.0,70.0,-7.0,
2069.0,2134.0,70.0,-8.0,
2094.0,2098.0,70.0,-8.0,
2074.0,2141.0,70.0,-8.0,
2052.0,2032.0,70.0,-8.0,
2063.0,2066.0,69.0,-9.0,
1985.0,1967.0,69.0,-9.0,
1970.0,1974.0,69.0,-9.0,
1998.0,1961.0,69.0,-10.0,
2016.0,1999.0,69.0,-11.0,
2034.0,2036.0,68.0,-11.0,
1995.0,1974.0,68.0,-12.0,
1970.0,2014.0,69.0,-13.0,
1964.0,2045.0,69.0,-14.0,
2027.0,2080.0,69.0,-15.0,
2025.0,2050.0,69.0,-15.0,
2020.0,2034.0,70.0,-16.0,
2017.0,2015.0,70.0,-17.0,
1989.0,1998.0,71.0,-17.0,
2008.0,1984.0,71.0,-18.0,
2018.0,2009.0,72.0,-18.0,
2043.0,2016.0,72.0,-19.0,
2005.0,2000.0,73.0,-19.0,
2040.0,2016.0,74.0,-19.0,
2028.0,2037.0,74.0,-18.0,
2038.0,2021.0,75.0,-18.0,
2025.0,2019.0,75.0,-18.0,
2050.0,2014.0,76.0,-17.0,
2044.0,2011.0,77.0,-17.0,
2026.0,2012.0,77.0,-17.0,
2046.0,2033.0,78.0,-16.0,
2004.0,2034.0,78.0,-16.0,
2040.0,2030.0,79.0,-15.0,
2043.0,2023.0,79.0,-15.0,
2004.0,1974.0,80.0,-14.0,
1943.0,1970.0,80.0,-14.0,
2055.0,2061.0,80.0,-14.0,
2039.0,2030.0,81.0,-13.0,
2008.0,2058.0,81.0,-13.0,
2005.0,2116.0,81.0,-12.0,
2081.0,2101.0,81.0,-12.0,
2070.0,2026.0,81.0,-12.0,
2052.0,2005.0,81.0,-11.0,
2047.0,2019.0,81.0,-11.0,
2029.0,2071.0,81.0,-11.0,
1984.0,2057.0,81.0,-10.0,
1961.0,1983.0,81.0,-10.0,
1998.0,1987.0,81.0,-10.0,
2033.0,2029.0,81.0,-9.0,
2051.0,2005.0,80.0,-9.0,
1979.0,1960.0,80.0,-9.0,
2000.0,2041.0,80.0,-9.0,
2071.0,2067.0,80.0,-9.0,
2025.0,2028.0,79.0,-8.0,
2032.0,2045.0,79.0,-8.0,
2042.0,2032.0,79.0,-8.0,
2044.0,2025.0,79.0,-8.0,
2066.0,2033.0,79.0,-8.0,
2052.0,2019.0,79.0,-8.0,
2053.0,2020.0,78.0,-8.0,
2027.0,1998.0,78.0,-9.0,
2000.0,2002.0,79.0,-9.0,
2004.0,2011.0,79.0,-9.0,
2032.0,2020.0,79.0,-9.0,
2027.0,2018.0,79.0,-9.0,
2043.0,2037.0,79.0,-10.0,
2047.0,2023.0,79.0,-10.0,
2062.0,2036.0,79.0,-10.0,
2008.0,2011.0,79.0,-11.0,
2005.0,2033.0,79.0,-11.0,
2003.0,2032.0,79.0,-11.0,
2028.0,2052.0,79.0,-11.0,
2045.0,2035.0,79.0,-11.0,
2040.0,2030.0,80.0,-11.0,
2044.0,2003.0,80.0,-11.0,
2062.0,2003.0,80.0,-12.0,
2082.0,2013.0,80.0,-12.0,
2048.0,2013.0,80.0,-12.0,
2058.0,2064.0,80.0,-12.0,
2014.0,2034.0,80.0,-12.0,
1952.0,2030.0,81.0,-12.0,
1936.0,2025.0,81.0,-12.0,
1917.0,2036.0,81.0,-12.0,
1984.0,2047.0,81.0,-11.0,
2038.0,2026.0,81.0,-11.0,
2070.0,1997.0,81.0,-11.0,
2078.0,1986.0,81.0,-11.0,
2117.0,2004.0,81.0,-11.0,
2011.0,1983.0,82.0,-11.0,
1960.0,1991.0,82.0,-11.0,
1937.0,1864.0,82.0,-11.0,
1989.0,2099.0,82.0,-11.0,
2057.0,2211.0,82.0,-10.0,
2049.0,2207.0,82.0,-10.0,
2038.0,2067.0,82.0,-10.0,
2017.0,2001.0,82.0,-10.0,
1975.0,1991.0,82.0,-9.0,
2075.0,2034.0,82.0,-9.0,
2075.0,1998.0,82.0,-9.0,
2039.0,2014.0,82.0,-8.0,
1981.0,2015.0,81.0,-8.0,
2014.0,2007.0,81.0,-8.0,
2051.0,1872.0,81.0,-8.0,
2002.0,1932.0,81.0,-7.0,
2021.0,2007.0,81.0,-7.0,
2052.0,1986.0,81.0,-7.0,
2030.0,2077.0,81.0,-7.0,
2091.0,2214.0,81.0,-7.0,
2018.0,2077.0,81.0,-6.0,
2075.0,2071.0,81.0,-6.0,
2100.0,1940.0,81.0,-6.0,
2046.0,1898.0,81.0,-6.0,
2013.0,1990.0,81.0,-6.0,
2040.0,1982.0,81.0,-6.0,
2039.0,2056.0,81.0,-6.0,
2009.0,2078.0,81.0,-6.0,
2043.0,2042.0,81.0,-6.0,
2079.0,2100.0,81.0,-6.0,
2036.0,1985.0,81.0,-6.0,
2027.0,1991.0,81.0,-7.0,
1951.0,1988.0,81.0,-7.0,
1959.0,2098.0,81.0,-7.0,
2035.0,2102.0,81.0,-7.0,
2064.0,2014.0,81.0,-8.0,
2005.0,1981.0,81.0,-8.0,
2029.0,1980.0,81.0,-9.0,
2058.0,2063.0,81.0,-9.0,
2069.0,2010.0,81.0,-9.0,
2040.0,1987.0,81.0,-10.0,
2022.0,1818.0,81.0,-10.0,
1927.0,1951.0,81.0,-10.0,
1997.0,2276.0,81.0,-11.0,
2140.0,2183.0,81.0,-11.0,
2060.0,2050.0,80.0,-11.0,
2055.0,1950.0,80.0,-12.0,
1973.0,2196.0,79.0,-12.0,
2000.0,2100.0,79.0,-12.0,
2024.0,1940.0,78.0,-13.0,
2027.0,1962.0,78.0,-13.0,
2047.0,1933.0,77.0,-13.0,
2087.0,2001.0,77.0,-13.0,
2125.0,1983.0,76.0,-14.0,
2040.0,1990.0,76.0,-14.0,
1948.0,2019.0,76.0,-14.0,
1937.0,2017.0,76.0,-14.0,
1994.0,2022.0,75.0,-14.0,
1922.0,2017.0,75.0,-14.0,
1918.0,1962.0,74.0,-14.0,
2037.0,1992.0,73.0,-14.0,
2043.0,2016.0,73.0,-14.0,
1989.0,2011.0,72.0,-14.0,
2053.0,2032.0,71.0,-14.0,
2089.0,1988.0,70.0,-14.0,
2090.0,2006.0,69.0,-14.0,
2028.0,2008.0,68.0,-14.0,
2005.0,2249.0,67.0,-13.0,
2072.0,2104.0,66.0,-13.0,
2012.0,1998.0,66.0,-13.0,
1967.0,2014.0,65.0,-13.0,
1991.0,2024.0,0,
2059.0,2001.0,65.0,-13.0,
2020.0,2064.0,64.0,-13.0,
2048.0,2049.0,63.0,-13.0,
2109.0,2027.0,62.0,-13.0,
2110.0,1994.0,62.0,-13.0,
2105.0,2038.0,61.0,-13.0,
2021.0,2102.0,60.0,-13.0,
2001.0,1963.0,59.0,-13.0,
1926.0,1884.0,58.0,-13.0,
1989.0,1923.0,58.0,-14.0,
2078.0,2061.0,57.0,-14.0,
2147.0,2103.0,56.0,-14.0,
2109.0,2181.0,56.0,-14.0,
2042.0,1965.0,55.0,-15.0,
1881.0,1864.0,54.0,-15.0,
1935.0,1915.0,53.0,-15.0,
1955.0,2066.0,52.0,-15.0,
2012.0,2064.0,51.0,-15.0,
2065.0,2229.0,50.0,-15.0,
2018.0,2031.0,49.0,-15.0,
2014.0,1956.0,48.0,-15.0,
2023.0,1975.0,47.0,-15.0,
2080.0,2031.0,45.0,-15.0,
2214.0,2067.0,45.0,-15.0,
2117.0,2068.0,44.0,-15.0,
1929.0,2149.0,43.0,-15.0,
1863.0,2019.0,42.0,-15.0,
1988.0,1805.0,42.0,-15.0,
1929.0,1866.0,41.0,-15.0,
2030.0,2093.0,40.0,-15.0,
2146.0,2246.0,39.0,-15.0,
1952.0,2078.0,39.0,-15.0,
1909.0,2087.0,38.0,-15.0,
1967.0,1963.0,38.0,-15.0,
2051.0,1990.0,37.0,-15.0,
2019.0,1879.0,37.0,-14.0,
2099.0,1904.0,36.0,-14.0,
2070.0,1969.0,36.0,-14.0,
2051.0,2061.0,36.0,-14.0,
2081.0,2118.0,35.0,-14.0,
2062.0,2104.0,35.0,-14.0,
2060.0,2089.0,35.0,-14.0,
2096.0,2066.0,34.0,-14.0,
2115.0,1961.0,34.0,-14.0,
1993.0,1948.0,33.0,-14.0,
1939.0,1990.0,32.0,-14.0,
1956.0,2059.0,32.0,-14.0,
2041.0,1935.0,31.0,-14.0,
2012.0,1872.0,30.0,-14.0,
2030.0,1971.0,30.0,-15.0,
2056.0,2062.0,29.0,-15.0,
2087.0,2103.0,28.0,-15.0,
2064.0,2008.0,27.0,-15.0,
2095.0,1964.0,27.0,-15.0,
2024.0,1909.0,26.0,-15.0,
1968.0,2183.0,26.0,-15.0,
2003.0,2056.0,25.0,-15.0,
1999.0,2196.0,25.0,-15.0,
2028.0,2142.0,24.0,-15.0,
2103.0,2064.0,23.0,-15.0,
2016.0,1967.0,23.0,-15.0,
2005.0,1980.0,22.0,-15.0,
1976.0,1948.0,21.0,-15.0,
1963.0,2096.0,21.0,-15.0,
2055.0,2128.0,20.0,-14.0,
2040.0,2044.0,19.0,-14.0,
2030.0,2009.0,19.0,-14.0,
2053.0,2008.0,18.0,-14.0,
2033.0,2028.0,17.0,-14.0,
2123.0,2033.0,17.0,-14.0,
2199.0,2007.0,17.0,-14.0,
2014.0,1963.0,16.0,-13.0,
1849.0,2030.0,16.0,-13.0,
1833.0,2067.0,16.0,-13.0,
1947.0,2078.0,15.0,-13.0,
1982.0,1885.0,15.0,-13.0,
1967.0,1983.0,15.0,-13.0,
2041.0,1818.0,15.0,-13.0,
2062.0,1979.0,14.0,-13.0,
2056.0,2050.0,14.0,-13.0,
2142.0,2147.0,14.0,-13.0,
2089.0,2065.0,14.0,-12.0,
2068.0,2047.0,14.0,-12.0,
2086.0,1949.0,13.0,-12.0,
2009.0,1958.0,13.0,-12.0,
2056.0,1986.0,13.0,-12.0,
1976.0,2051.0,13.0,-12.0,
1993.0,2065.0,13.0,-12.0,
1948.0,2013.0,13.0,-12.0,
1905.0,2066.0,13.0,-12.0,
2055.0,2107.0,12.0,-12.0,
2016.0,1846.0,12.0,-12.0,
1942.0,1921.0,12.0,-11.0,
1999.0,2145.0,12.0,-11.0,
1948.0,2189.0,12.0,-11.0,
2009.0,2206.0,11.0,-11.0,
2064.0,2130.0,11.0,-11.0,
2034.0,1944.0,11.0,-10.0,
2095.0,1875.0,11.0,-10.0,
2155.0,2130.0,11.0,-10.0,
2099.0,2024.0,10.0,-10.0,
2059.0,2111.0,10.0,-10.0,
2039.0,2098.0,10.0,-10.0,
1942.0,1910.0,10.0,-10.0,
1998.0,1921.0,9.0,-10.0,
2019.0,2004.0,9.0,-10.0,
2030.0,2038.0,9.0,-10.0,
2044.0,2041.0,9.0,-10.0,
2050.0,1894.0,8.0,-10.0,
2029.0,1972.0,8.0,-10.0,
2102.0,2016.0,8.0,-10.0,
2106.0,2014.0,8.0,-10.0,
2045.0,1995.0,7.0,-10.0,
2086.0,2046.0,7.0,-10.0,
2109.0,2096.0,7.0,-10.0,
1964.0,2061.0,7.0,-10.0,
1930.0,2054.0,7.0,-11.0,
1919.0,1963.0,6.0,-11.0,
1993.0,2001.0,6.0,-11.0,
2018.0,2014.0,6.0,-11.0,
1951.0,1970.0,6.0,-11.0,
1976.0,1972.0,5.0,-11.0,
2100.0,2063.0,5.0,-11.0,
2044.0,2188.0,5.0,-11.0,
2054.0,2095.0,5.0,-12.0,
2086.0,2081.0,5.0,-12.0,
2248.0,2104.0,5.0,-12.0,
2316.0,2130.0,5.0,-12.0,
2032.0,2074.0,5.0,-12.0,
1837.0,1966.0,4.0,-12.0,
1753.0,1958.0,4.0,-12.0,
1996.0,2090.0,4.0,-11.0,
1931.0,1817.0,4.0,-11.0,
2033.0,2040.0,4.0,-11.0,
1974.0,1968.0,4.0,-10.0,
2089.0,1885.0,5.0,-10.0,
2104.0,1886.0,5.0,-10.0,
2043.0,1864.0,5.0,-9.0,
1854.0,1953.0,5.0,-9.0,
1947.0,2322.0,5.0,-9.0,
2055.0,2293.0,5.0,-8.0,
2017.0,2114.0,5.0,-8.0,
2181.0,2045.0,5.0,-8.0,
1818.0,2060.0,5.0,-7.0,
1990.0,2140.0,5.0,-7.0,
2070.0,1882.0,5.0,-7.0,
2100.0,1816.0,4.0,-6.0,
1998.0,1940.0,4.0,-6.0,
2041.0,2068.0,3.0,-6.0,
2133.0,2064.0,3.0,-6.0,
2219.0,2038.0,3.0,-6.0,
2012.0,1908.0,3.0,-6.0,
1969.0,1998.0,2.0,-6.0,
1941.0,2125.0,2.0,-6.0,
2053.0,2085.0,2.0,-6.0,
2029.0,1972.0,2.0,-6.0,
2010.0,1963.0,2.0,-7.0,
2076.0,2088.0,2.0,-7.0,
2156.0,2168.0,3.0,-7.0,
2039.0,2012.0,3.0,-8.0,
1872.0,1975.0,3.0,-9.0,
2071.0,2067.0,3.0,-9.0,
2011.0,2050.0,3.0,-10.0,
2117.0,2027.0,3.0,-10.0,
2039.0,2147.0,3.0,-10.0,
1892.0,1838.0,3.0,-10.0,
2026.0,1984.0,3.0,-10.0,
1959.0,2106.0,3.0,-11.0,
2105.0,2029.0,4.0,-10.0,
1992.0,1969.0,4.0,-10.0,
2046.0,2084.0,4.0,-10.0,
1992.0,2068.0,5.0,-10.0,
1971.0,1832.0,5.0,-10.0,
2033.0,1934.0,5.0,-10.0,
2034.0,1977.0,5.0,-10.0,
2094.0,2004.0,6.0,-10.0,
2076.0,2097.0,5.0,-10.0,
2104.0,2058.0,5.0,-10.0,
2135.0,1889.0,5.0,-10.0,
2037.0,1998.0,4.0,-10.0,
2016.0,2121.0,4.0,-10.0,
2062.0,2280.0,3.0,-10.0,
2037.0,2038.0,2.0,-10.0,
1929.0,2020.0,2.0,-10.0,
2021.0,2061.0,1.0,-10.0,
2045.0,2154.0,0.0,-10.0,
1883.0,2188.0,0.0,-10.0,
1882.0,2071.0,0.0,-10.0,
1940.0,1793.0,0.0,-10.0,
1949.0,1864.0,-1.0,-10.0,
2064.0,1843.0,-1.0,-10.0,
1999.0,1929.0,-2.0,-10.0,
2174.0,1948.0,-2.0,-10.0,
2153.0,2184.0,-2.0,-10.0,
2117.0,2130.0,-3.0,-10.0,
2085.0,1981.0,-3.0,-10.0,
1996.0,2009.0,-3.0,-10.0,
1925.0,2168.0,-3.0,-10.0,
2025.0,2210.0,-4.0,-10.0,
2006.0,2105.0,-4.0,-10.0,
1829.0,1946.0,-3.0,-10.0,
1923.0,1828.0,-3.0,-10.0,
1977.0,1778.0,-3.0,-10.0,
2040.0,2146.0,-3.0,-9.0,
2073.0,2173.0,-2.0,-9.0,
2002.0,2054.0,-2.0,-9.0,
1977.0,2188.0,-1.0,-9.0,
1983.0,1952.0,-1.0,-9.0,
2084.0,1990.0,0.0,-9.0,
2126.0,1969.0,0.0,-10.0,
2151.0,1945.0,0.0,-10.0,
1988.0,2023.0,0.0,-10.0,
1966.0,2094.0,1.0,-10.0,
2013.0,2018.0,1.0,-10.0,
2073.0,1889.0,2.0,-10.0,
2196.0,1827.0,2.0,-10.0,
2067.0,2018.0,2.0,-10.0,
2044.0,2357.0,2.0,-10.0,
1945.0,2120.0,2.0,-10.0,
2037.0,2070.0,2.0,-10.0,
2051.0,2008.0,2.0,-10.0,
2009.0,1878.0,2.0,-9.0,
1963.0,1979.0,2.0,-9.0,
2008.0,2130.0,2.0,-10.0,
2009.0,2048.0,2.0,-10.0,
2023.0,2090.0,2.0,-10.0,
2076.0,2000.0,2.0,-10.0,
2072.0,1946.0,2.0,-10.0,
2102.0,1838.0,1.0,-10.0,
2133.0,1872.0,1.0,-10.0,
2148.0,2144.0,1.0,-10.0,
2066.0,2193.0,1.0,-10.0,
1829.0,2112.0,1.0,-10.0,
1885.0,2071.0,0.0,-10.0,
2107.0,2059.0,0.0,-10.0,
2164.0,2051.0,0.0,-10.0,
2012.0,2075.0,0.0,-10.0,
1940.0,2076.0,0.0,-10.0,
1871.0,1931.0,0.0,-10.0,
1857.0,1918.0,-1.0,-10.0,
1989.0,2017.0,-1.0,-10.0,
1968.0,2242.0,-2.0,-10.0,
2033.0,2190.0,-2.0,-10.0,
2008.0,1916.0,-2.0,-10.0,
2052.0,1927.0,-3.0,-10.0,
2070.0,1918.0,-3.0,-10.0,
2112.0,1947.0,-3.0,-10.0,
2077.0,2011.0,-3.0,-10.0,
2049.0,2037.0,-4.0,-10.0,
2078.0,2018.0,-4.0,-10.0,
2120.0,2025.0,-4.0,-10.0,
1953.0,2037.0,-4.0,-10.0,
1957.0,2066.0,-4.0,-10.0,
2037.0,2093.0,-4.0,-10.0,
1981.0,1950.0,-4.0,-10.0,
2004.0,1755.0,-4.0,-10.0,
2039.0,1850.0,-4.0,-10.0,
2052.0,2142.0,-3.0,-10.0,
1984.0,2245.0,-3.0,-10.0,
1998.0,2084.0,-3.0,-10.0,
2082.0,2081.0,-2.0,-10.0,
2054.0,2115.0,-1.0,-10.0,
2053.0,2092.0,-1.0,-10.0,
2034.0,1886.0,0.0,-10.0,
2098.0,2003.0,0.0,-10.0,
2124.0,2124.0,0.0,-10.0,
1979.0,2045.0,1.0,-10.0,
2043.0,1953.0,1.0,-10.0,
2100.0,1949.0,2.0,-10.0,
1965.0,2014.0,2.0,-10.0,
2038.0,2148.0,3.0,-10.0,
2118.0,2121.0,3.0,-10.0,
2065.0,1929.0,3.0,-10.0,
1997.0,1972.0,3.0,-10.0,
1928.0,1979.0,4.0,-10.0,
1983.0,2047.0,4.0,-10.0,
2014.0,2017.0,4.0,-10.0,
2017.0,1938.0,4.0,-10.0,
1988.0,1947.0,4.0,-10.0,
2024.0,2149.0,4.0,-10.0,
2060.0,2161.0,4.0,-10.0,
2064.0,2046.0,4.0,-10.0,
2013.0,2011.0,3.0,-10.0,
2044.0,2059.0,3.0,-10.0,
2022.0,2076.0,3.0,-10.0,
2091.0,2020.0,3.0,-10.0,
2067.0,2005.0,2.0,-10.0,
2086.0,2012.0,2.0,-10.0,
2063.0,2021.0,2.0,-10.0,
2052.0,1918.0,0,
2039.0,2020.0,1.0,-10.0,
1945.0,2064.0,1.0,-10.0,
1926.0,2094.0,1.0,-10.0,
1978.0,2033.0,1.0,-10.0,
1937.0,1958.0,1.0,-10.0,
1939.0,2024.0,1.0,-10.0,
2035.0,1935.0,0.0,-10.0,
2074.0,2027.0,0.0,-10.0,
2055.0,1941.0,0.0,-10.0,
1924.0,2008.0,0.0,-10.0,
2084.0,2005.0,1.0,-10.0,
2063.0,2039.0,1.0,-10.0,
1986.0,2097.0,1.0,-10.0,
2032.0,2038.0,1.0,-10.0,
2025.0,2031.0,1.0,-10.0,
2037.0,1984.0,1.0,-10.0,
2071.0,1899.0,1.0,-10.0,
2065.0,1970.0,1.0,-10.0,
2072.0,2078.0,2.0,-11.0,
2043.0,2283.0,2.0,-11.0,
2078.0,2121.0,2.0,-11.0,
1998.0,2024.0,2.0,-11.0,
1974.0,1993.0,3.0,-11.0,
2023.0,1900.0,3.0,-11.0,
2017.0,1866.0,3.0,-11.0,
2002.0,2125.0,4.0,-11.0,
2010.0,2055.0,4.0,-11.0,
2002.0,2226.0,4.0,-11.0,
2048.0,2026.0,5.0,-11.0,
2052.0,2030.0,5.0,-11.0,
2055.0,2117.0,5.0,-11.0,
1965.0,1916.0,5.0,-11.0,
1996.0,1969.0,6.0,-10.0,
2005.0,2012.0,6.0,-10.0,
2036.0,1981.0,6.0,-10.0,
2029.0,1963.0,6.0,-10.0,
2016.0,2080.0,6.0,-10.0,
2026.0,2150.0,6.0,-10.0,
2077.0,1980.0,6.0,-10.0,
2122.0,1890.0,6.0,-10.0,
2023.0,1916.0,6.0,-10.0,
2072.0,2260.0,6.0,-10.0,
1980.0,2155.0,6.0,-10.0,
1995.0,1915.0,6.0,-10.0,
1991.0,2005.0,6.0,-10.0,
1990.0,2098.0,6.0,-10.0,
2073.0,2063.0,6.0,-10.0,
2089.0,2021.0,5.0,-10.0,
2076.0,2010.0,5.0,-10.0,
2103.0,1991.0,5.0,-10.0,
1956.0,2031.0,5.0,-10.0,
2062.0,2026.0,5.0,-10.0,
1957.0,2037.0,5.0,-10.0,
2009.0,1865.0,5.0,-10.0,
2075.0,2079.0,5.0,-10.0,
1940.0,1987.0,5.0,-10.0,
1975.0,1988.0,5.0,-10.0,
2034.0,2025.0,5.0,-10.0,
1999.0,1989.0,5.0,-10.0,
1932.0,2086.0,5.0,-10.0,
2031.0,2102.0,5.0,-10.0,
1981.0,1994.0,5.0,-10.0,
1982.0,1861.0,5.0,-10.0,
2087.0,1977.0,5.0,-10.0,
2032.0,2188.0,5.0,-10.0,
1937.0,2183.0,5.0,-10.0,
2092.0,2013.0,5.0,-10.0,
2043.0,2052.0,5.0,-10.0,
2027.0,2008.0,5.0,-10.0,
2061.0,2033.0,5.0,-10.0,
2040.0,2057.0,5.0,-10.0,
2061.0,2064.0,5.0,-10.0,
2034.0,1935.0,5.0,-10.0,
2048.0,1858.0,4.0,-10.0,
2029.0,2122.0,4.0,-10.0,
2023.0,2058.0,4.0,-11.0,
2084.0,2013.0,4.0,-11.0,
2034.0,2009.0,4.0,-11.0,
2011.0,2001.0,4.0,-11.0,
2034.0,2056.0,4.0,-11.0,
2065.0,2077.0,4.0,-11.0,
2087.0,2146.0,4.0,-11.0,
2006.0,1804.0,4.0,-11.0,
2013.0,1969.0,4.0,-11.0,
2052.0,2121.0,4.0,-11.0,
2032.0,2026.0,4.0,-11.0,
2008.0,2041.0,4.0,-11.0,
2028.0,2049.0,4.0,-11.0,
2013.0,2025.0,4.0,-11.0,
2018.0,2037.0,4.0,-11.0,
2066.0,2047.0,4.0,-11.0,
1992.0,2024.0,4.0,-11.0,
1976.0,2032.0,4.0,-11.0,
2029.0,2025.0,4.0,-11.0,
2009.0,2089.0,4.0,-11.0,
2006.0,1964.0,4.0,-11.0,
2004.0,2011.0,4.0,-11.0,
2025.0,2050.0,4.0,-12.0,
2068.0,2118.0,4.0,-12.0,
2049.0,2106.0,4.0,-12.0,
2069.0,1980.0,4.0,-12.0,
2043.0,1954.0,4.0,-12.0,
1996.0,1999.0,5.0,-12.0,
2005.0,2049.0,5.0,-12.0,
1999.0,1946.0,5.0,-12.0,
2121.0,1928.0,5.0,-12.0,
2060.0,2097.0,5.0,-12.0,
2024.0,1994.0,5.0,-12.0,
2019.0,1919.0,5.0,-12.0,
1966.0,2007.0,6.0,-12.0,
1970.0,2337.0,6.0,-12.0,
2007.0,2270.0,6.0,-12.0,
1980.0,2068.0,6.0,-12.0,
2061.0,1901.0,6.0,-12.0,
2039.0,1872.0,7.0,-12.0,
2048.0,1986.0,7.0,-12.0,
2029.0,2004.0,7.0,-12.0,
2105.0,2010.0,7.0,-12.0,
2095.0,1925.0,7.0,-12.0,
2015.0,1977.0,7.0,-12.0,
2015.0,2080.0,7.0,-12.0,
2037.0,2045.0,8.0,-12.0,
1929.0,1881.0,8.0,-12.0,
1981.0,1977.0,8.0,-12.0,
1945.0,2167.0,8.0,-12.0,
1938.0,2133.0,8.0,-12.0,
2054.0,2024.0,8.0,-12.0,
2046.0,2147.0,7.0,-12.0,
2105.0,1875.0,7.0,-12.0,
2011.0,2001.0,7.0,-12.0,
2068.0,2049.0,7.0,-12.0,
2015.0,1993.0,7.0,-12.0,
1986.0,2068.0,7.0,-12.0,
2013.0,2233.0,7.0,-12.0,
2054.0,2123.0,6.0,-12.0,
1944.0,1857.0,6.0,-12.0,
2041.0,1834.0,6.0,-12.0,
2072.0,2120.0,6.0,-12.0,
2030.0,1921.0,5.0,-12.0,
2057.0,1975.0,5.0,-12.0,
2002.0,2050.0,5.0,-12.0,
2018.0,2011.0,4.0,-12.0,
2058.0,1989.0,4.0,-12.0,
2051.0,2019.0,4.0,-12.0,
2040.0,2039.0,4.0,-12.0,
2085.0,2068.0,3.0,-12.0,
2090.0,2058.0,3.0,-13.0,
2003.0,2051.0,3.0,-13.0,
2033.0,2012.0,2.0,-13.0,
2050.0,2054.0,2.0,-13.0,
2061.0,2012.0,2.0,-13.0,
2007.0,2017.0,2.0,-13.0,
1908.0,2007.0,1.0,-13.0,
2049.0,2026.0,1.0,-13.0,
2052.0,2004.0,1.0,-13.0,
2058.0,1994.0,1.0,-13.0,
1967.0,2019.0,1.0,-13.0,
1974.0,1977.0,1.0,-13.0,
1994.0,1953.0,1.0,-13.0,
2063.0,2023.0,1.0,-13.0,
1993.0,2188.0,2.0,-13.0,
1995.0,2026.0,2.0,-13.0,
2051.0,1957.0,2.0,-13.0,
2049.0,2253.0,2.0,-13.0,
2073.0,2082.0,3.0,-13.0,
2037.0,2016.0,3.0,-13.0,
2050.0,2000.0,3.0,-13.0,
1991.0,1942.0,4.0,-13.0,
1980.0,1933.0,4.0,-13.0,
2094.0,2024.0,4.0,-13.0,
2045.0,2101.0,5.0,-14.0,
2057.0,2030.0,5.0,-14.0,
2007.0,1969.0,5.0,-14.0,
2022.0,1967.0,6.0,-14.0,
2016.0,1957.0,6.0,-14.0,
1996.0,2127.0,6.0,-14.0,
1999.0,2268.0,7.0,-14.0,
2033.0,2054.0,7.0,-14.0,
2058.0,2010.0,7.0,-14.0,
2035.0,1892.0,7.0,-14.0,
2068.0,1873.0,8.0,-14.0,
2016.0,1975.0,8.0,-13.0,
2044.0,2006.0,8.0,-13.0,
2045.0,2068.0,8.0,-13.0,
2004.0,2018.0,8.0,-13.0,
2036.0,2017.0,8.0,-13.0,
2039.0,2023.0,8.0,-13.0,
2052.0,2098.0,8.0,-13.0,
2040.0,1994.0,8.0,-13.0,
2058.0,2079.0,8.0,-13.0,
1979.0,2149.0,8.0,-13.0,
2041.0,1842.0,8.0,-13.0,
1943.0,1961.0,8.0,-13.0,
1929.0,1988.0,7.0,-13.0,
2031.0,2063.0,7.0,-13.0,
1998.0,2103.0,7.0,-13.0,
2052.0,2028.0,6.0,-13.0,
2032.0,1954.0,6.0,-13.0,
2051.0,1983.0,6.0,-13.0,
2030.0,2208.0,5.0,-13.0,
1956.0,2158.0,5.0,-13.0,
2051.0,2074.0,4.0,-13.0,
2025.0,1966.0,4.0,-13.0,
2160.0,2135.0,4.0,-13.0,
2043.0,1798.0,3.0,-13.0,
2009.0,1781.0,3.0,-13.0,
2110.0,1962.0,2.0,-13.0,
2048.0,1963.0,2.0,-13.0,
1952.0,2158.0,2.0,-13.0,
2063.0,2145.0,1.0,-13.0,
1961.0,1978.0,1.0,-14.0,
1992.0,1976.0,0.0,-14.0,
2029.0,2063.0,0.0,-14.0,
2029.0,2157.0,0.0,-14.0,
2009.0,1990.0,0.0,-14.0,
2058.0,2079.0,0.0,-14.0,
2115.0,1988.0,0.0,-14.0,
2049.0,2070.0,0.0,-14.0,
1998.0,1990.0,1.0,-14.0,
2028.0,1978.0,1.0,-15.0,
2041.0,2059.0,2.0,-15.0,
2027.0,2173.0,2.0,-15.0,
2012.0,2092.0,3.0,-15.0,
2047.0,1981.0,3.0,-15.0,
2049.0,2022.0,4.0,-15.0,
2024.0,2047.0,5.0,-15.0,
2063.0,2024.0,5.0,-15.0,
2041.0,2009.0,6.0,-15.0,
1998.0,2020.0,6.0,-16.0,
2012.0,2037.0,7.0,-16.0,
2034.0,2077.0,8.0,-16.0,
2046.0,2023.0,8.0,-16.0,
2032.0,1953.0,9.0,-16.0,
2017.0,2001.0,9.0,-16.0,
2050.0,2043.0,9.0,-16.0,
2046.0,2024.0,10.0,-16.0,
2005.0,2039.0,10.0,-16.0,
2015.0,2176.0,10.0,-16.0,
2003.0,1931.0,10.0,-16.0,
2008.0,2046.0,10.0,-16.0,
2020.0,2013.0,10.0,-16.0,
2009.0,2144.0,10.0,-16.0,
2051.0,1925.0,10.0,-16.0,
2021.0,2071.0,10.0,-16.0,
2031.0,2121.0,9.0,-16.0,
2038.0,2058.0,9.0,-16.0,
2026.0,2072.0,9.0,-16.0,
2038.0,1920.0,8.0,-16.0,
2041.0,1885.0,7.0,-16.0,
2053.0,1863.0,7.0,-15.0,
2030.0,1712.0,6.0,-15.0,
2092.0,1896.0,6.0,-15.0,
2099.0,1854.0,5.0,-15.0,
2054.0,1920.0,4.0,-15.0,
2038.0,2329.0,4.0,-14.0,
2048.0,2242.0,3.0,-14.0,
1946.0,2011.0,3.0,-14.0,
1985.0,1992.0,2.0,-14.0,
2033.0,2042.0,2.0,-14.0,
2061.0,2102.0,1.0,-14.0,
2014.0,2205.0,1.0,-14.0,
1967.0,2093.0,1.0,-14.0,
1962.0,1994.0,1.0,-14.0,
1954.0,1945.0,1.0,-15.0,
2057.0,2114.0,1.0,-15.0,
2037.0,2009.0,1.0,-15.0,
1981.0,2112.0,2.0,-15.0,
2014.0,2085.0,2.0,-16.0,
2005.0,2047.0,3.0,-16.0,
2095.0,2103.0,3.0,-16.0,
2096.0,1940.0,4.0,-15.0,
2065.0,1854.0,5.0,-15.0,
2029.0,1954.0,5.0,-15.0,
2016.0,1986.0,6.0,-15.0,
2007.0,1990.0,7.0,-15.0,
1996.0,2047.0,7.0,-15.0,
2008.0,2192.0,8.0,-15.0,
2017.0,2197.0,9.0,-15.0,
2015.0,2062.0,9.0,-16.0,
2023.0,2017.0,10.0,-16.0,
2056.0,1945.0,10.0,-16.0,
2093.0,1980.0,11.0,-16.0,
2040.0,1999.0,11.0,-17.0,
2059.0,1995.0,11.0,-17.0,
2053.0,1904.0,11.0,-17.0,
2049.0,1984.0,11.0,-17.0,
2045.0,2124.0,11.0,-18.0,
2040.0,2086.0,11.0,-18.0,
2036.0,1961.0,11.0,-18.0,
2034.0,1965.0,11.0,-18.0,
2041.0,2030.0,10.0,-18.0,
2039.0,2203.0,10.0,-18.0,
1990.0,2326.0,9.0,-18.0,
2001.0,2204.0,9.0,-18.0,
1965.0,2123.0,8.0,-18.0,
2033.0,1932.0,8.0,-18.0,
2082.0,1791.0,7.0,-18.0,
2063.0,1738.0,7.0,-18.0,
2071.0,1744.0,6.0,-18.0,
2049.0,1916.0,5.0,-18.0,
2013.0,1980.0,4.0,-18.0,
2014.0,2490.0,3.0,-18.0,
1982.0,2218.0,3.0,-17.0,
1959.0,2054.0,2.0,-17.0,
1996.0,2090.0,1.0,-17.0,
1941.0,2150.0,0.0,-17.0,
1936.0,2183.0,0.0,-17.0,
1964.0,2280.0,-1.0,-17.0,
2026.0,2074.0,-1.0,-17.0,
2129.0,1609.0,-2.0,-16.0,
2169.0,1489.0,-2.0,-16.0,
2176.0,1700.0,-3.0,-16.0,
2161.0,1884.0,-3.0,-16.0,
2063.0,2009.0,-3.0,-16.0,
1991.0,1999.0,-3.0,-16.0,
2050.0,2075.0,-3.0,-15.0,
1983.0,2039.0,-3.0,-15.0,
1945.0,2030.0,-3.0,-15.0,
1975.0,2115.0,-2.0,-15.0,
1962.0,2144.0,-1.0,-15.0,
1978.0,2162.0,0.0,-15.0,
1984.0,2078.0,0.0,-15.0,
2050.0,2096.0,1.0,-16.0,
1981.0,2145.0,2.0,-16.0,
2023.0,2139.0,4.0,-17.0,
2000.0,2099.0,5.0,-18.0,
2032.0,2004.0,6.0,-19.0,
2025.0,1978.0,7.0,-19.0,
2005.0,2001.0,9.0,-20.0,
2027.0,2046.0,10.0,-21.0,
2036.0,2092.0,11.0,-21.0,
2049.0,2123.0,12.0,-22.0,
2036.0,1984.0,12.0,-22.0,
2051.0,1811.0,13.0,-22.0,
2048.0,2058.0,13.0,-22.0,
2061.0,2180.0,14.0,-22.0,
2018.0,2019.0,14.0,-22.0,
2021.0,2036.0,14.0,-22.0,
1992.0,2172.0,14.0,-22.0,
1970.0,2370.0,14.0,-22.0,
1988.0,2169.0,14.0,-22.0,
2054.0,1940.0,14.0,-21.0,
2123.0,1769.0,13.0,-21.0,
2090.0,1847.0,13.0,-21.0,
2038.0,1896.0,12.0,-20.0,
2079.0,1850.0,12.0,-20.0,
2036.0,1898.0,11.0,-19.0,
2060.0,1778.0,10.0,-18.0,
2044.0,1967.0,9.0,-18.0,
2028.0,1926.0,8.0,-17.0,
2033.0,1970.0,7.0,-17.0,
2037.0,1841.0,6.0,-16.0,
2041.0,2010.0,5.0,-16.0,
2021.0,2285.0,4.0,-15.0,
2028.0,2289.0,4.0,-15.0,
2100.0,2098.0,3.0,-15.0,
2041.0,2148.0,2.0,-14.0,
2039.0,2053.0,1.0,-14.0,
2029.0,1983.0,1.0,-15.0,
2005.0,1968.0,0.0,-15.0,
2042.0,2229.0,0.0,-15.0,
2039.0,2200.0,0.0,-15.0,
1995.0,2105.0,0.0,-15.0,
1971.0,2112.0,-1.0,-16.0,
1981.0,2118.0,-1.0,-16.0,
1967.0,1987.0,-1.0,-17.0,
2031.0,1925.0,-1.0,-17.0,
1976.0,1921.0,-1.0,-17.0,
1978.0,1908.0,-1.0,-18.0,
1947.0,1965.0,0.0,-18.0,
2005.0,1936.0,0.0,-19.0,
2016.0,1964.0,0.0,-19.0,
2027.0,1979.0,1.0,-20.0,
2011.0,2073.0,2.0,-20.0,
2029.0,2086.0,3.0,-19.0,
2028.0,2113.0,4.0,-19.0,
2061.0,1994.0,5.0,-19.0,
1986.0,1950.0,6.0,-19.0,
2039.0,2044.0,7.0,-18.0,
2047.0,2049.0,8.0,-18.0,
2020.0,2005.0,8.0,-18.0,
2026.0,2027.0,9.0,-18.0,
2019.0,1972.0,10.0,-17.0,
2028.0,2061.0,10.0,-17.0,
2019.0,2039.0,11.0,-17.0,
2061.0,2025.0,11.0,-17.0,
2097.0,1999.0,12.0,-17.0,
2076.0,1918.0,12.0,-17.0,
2055.0,1968.0,12.0,-17.0,
2058.0,1928.0,12.0,-17.0,
2026.0,2013.0,12.0,-16.0,
2014.0,2028.0,12.0,-16.0,
2016.0,2039.0,11.0,-15.0,
2011.0,2012.0,11.0,-15.0,
2027.0,2022.0,11.0,-15.0,
2042.0,2087.0,10.0,-15.0,
2025.0,2095.0,10.0,-14.0,
2040.0,2043.0,9.0,-14.0,
2033.0,2020.0,8.0,-14.0,
2031.0,2135.0,8.0,-14.0,
2008.0,2124.0,7.0,-14.0,
1995.0,2043.0,7.0,-14.0,
2004.0,2000.0,6.0,-15.0,
2028.0,1994.0,6.0,-15.0,
2025.0,1976.0,5.0,-15.0,
2050.0,2086.0,4.0,-15.0,
2031.0,2052.0,3.0,-15.0,
2036.0,2052.0,3.0,-15.0,
2015.0,2023.0,2.0,-15.0,
2000.0,1921.0,2.0,-15.0,
2008.0,1829.0,1.0,-16.0,
2048.0,2048.0,1.0,-16.0,
2016.0,2220.0,0.0,-16.0,
2027.0,2236.0,0.0,-15.0,
2013.0,2015.0,0.0,-15.0,
2043.0,1853.0,0.0,-15.0,
2014.0,1906.0,-1.0,-15.0,
2047.0,1952.0,-1.0,-14.0,
2014.0,2281.0,-1.0,-14.0,
2004.0,2105.0,-1.0,-14.0,
2034.0,2050.0,-1.0,-14.0,
2003.0,2035.0,0.0,-13.0,
2031.0,1973.0,0.0,-13.0,
2012.0,1927.0,0.0,-13.0,
2016.0,1976.0,2.0,-12.0,
2030.0,2019.0,3.0,-12.0,
2029.0,2025.0,4.0,-12.0,
2060.0,2029.0,6.0,-12.0,
2030.0,1950.0,7.0,-12.0,
2018.0,2004.0,9.0,-12.0,
2012.0,1999.0,10.0,-13.0,
2013.0,1996.0,12.0,-13.0,
2030.0,2011.0,13.0,-14.0,
2059.0,2043.0,13.0,-14.0,
2052.0,2031.0,14.0,-14.0,
2028.0,2043.0,15.0,-15.0,
2014.0,2017.0,15.0,-15.0,
2002.0,1987.0,15.0,-15.0,
2025.0,2024.0,15.0,-15.0,
2076.0,2067.0,15.0,-15.0,
2047.0,2062.0,15.0,-15.0,
2021.0,1974.0,15.0,-15.0,
2019.0,1958.0,15.0,-15.0,
2019.0,1997.0,15.0,-14.0,
2012.0,2073.0,15.0,-14.0,
1964.0,2026.0,14.0,-14.0,
1997.0,2053.0,14.0,-14.0,
1995.0,2045.0,14.0,-14.0,
2017.0,2037.0,14.0,-13.0,
2050.0,2050.0,13.0,-13.0,
2027.0,2049.0,13.0,-13.0,
2054.0,2045.0,12.0,-13.0,
2032.0,2017.0,11.0,-13.0,
2029.0,1982.0,11.0,-12.0,
2030.0,2003.0,11.0,-13.0,
2038.0,2073.0,10.0,-13.0,
2019.0,2019.0,10.0,-13.0,
2006.0,2020.0,10.0,-13.0,
2008.0,2002.0,9.0,-13.0,
2030.0,2009.0,9.0,-13.0,
2051.0,2038.0,9.0,-13.0,
2080.0,1997.0,9.0,-13.0,
2019.0,2000.0,9.0,-13.0,
2017.0,2020.0,9.0,-13.0,
2032.0,2029.0,8.0,-12.0,
1948.0,2028.0,9.0,-11.0,
1998.0,2028.0,9.0,-11.0,
2010.0,2010.0,9.0,-11.0,
1999.0,2013.0,10.0,-11.0,
2011.0,2010.0,11.0,-11.0,
2037.0,2027.0,12.0,-11.0,
2027.0,2026.0,13.0,-11.0,
2018.0,2025.0,14.0,-11.0,
2006.0,2031.0,15.0,-12.0,
2021.0,2025.0,16.0,-12.0,
2019.0,2026.0,17.0,-12.0,
2039.0,2029.0,18.0,-13.0,
2002.0,2023.0,18.0,-13.0,
2053.0,2019.0,18.0,-13.0,
2047.0,2019.0,19.0,-12.0,
2035.0,2025.0,19.0,-12.0,
2021.0,2020.0,20.0,-11.0,
2032.0,2016.0,20.0,-11.0,
2017.0,2027.0,20.0,-11.0,
2029.0,2025.0,20.0,-10.0,
2034.0,2020.0,21.0,-10.0,
2051.0,2026.0,22.0,-9.0,
2011.0,2017.0,22.0,-8.0,
2036.0,2018.0,22.0,-7.0,
2026.0,2022.0,22.0,-7.0,
2022.0,2028.0,22.0,-7.0,
2010.0,2030.0,21.0,-6.0,
2010.0,2029.0,21.0,-6.0,
2010.0,2029.0,20.0,-5.0,
2025.0,2021.0,20.0,-4.0,
2038.0,2024.0,20.0,-3.0,
2039.0,2025.0,19.0,-3.0,
2038.0,2018.0,19.0,-4.0,
2038.0,2025.0,18.0,-4.0,
2018.0,2032.0,18.0,-5.0,
2021.0,2024.0,18.0,-6.0,
2023.0,2029.0,19.0,-6.0,
2024.0,2023.0,19.0,-7.0,
2038.0,2026.0,19.0,-9.0,
2033.0,2023.0,18.0,-11.0,
2044.0,2022.0,18.0,-12.0,
2026.0,2020.0,17.0,-13.0,
2028.0,2018.0,17.0,-13.0,
2023.0,2013.0,16.0,-13.0,
2016.0,2026.0,15.0,-13.0,
2037.0,2031.0,15.0,-12.0,
2030.0,2034.0,14.0,-12.0,
2036.0,2038.0,13.0,-12.0,
2040.0,2037.0,0,
2051.0,2021.0,13.0,-11.0,
2054.0,2025.0,12.0,-11.0,
2039.0,2027.0,12.0,-11.0,
2053.0,2017.0,11.0,-10.0,
2039.0,2024.0,11.0,-10.0,
2012.0,2019.0,11.0,-10.0,
2030.0,2040.0,11.0,-10.0,
2041.0,2029.0,11.0,-11.0,
1986.0,2022.0,11.0,-11.0,
2004.0,2019.0,11.0,-12.0,
2021.0,2022.0,12.0,-12.0,
2044.0,2038.0,12.0,-12.0,
2010.0,2015.0,13.0,-13.0,
1987.0,2023.0,14.0,-13.0,
1997.0,2040.0,14.0,-13.0,
1994.0,2053.0,15.0,-13.0,
2022.0,2076.0,15.0,-13.0,
2061.0,2047.0,15.0,-13.0,
2044.0,2052.0,16.0,-13.0,
2044.0,2005.0,16.0,-13.0,
2018.0,1972.0,17.0,-13.0,
2012.0,1957.0,17.0,-12.0,
1987.0,1972.0,17.0,-12.0,
2008.0,2028.0,17.0,-12.0,
2024.0,2081.0,17.0,-12.0,
2035.0,2035.0,18.0,-12.0,
2046.0,2000.0,18.0,-13.0,
2050.0,2018.0,19.0,-13.0,
2043.0,2026.0,19.0,-13.0,
2033.0,2025.0,19.0,-13.0,
2041.0,2023.0,19.0,-13.0,
2022.0,2034.0,19.0,-13.0,
2026.0,2026.0,19.0,-12.0,
2010.0,2032.0,19.0,-12.0,
2029.0,2027.0,19.0,-12.0,
2043.0,2027.0,18.0,-12.0,
2048.0,2028.0,18.0,-12.0,
2033.0,2022.0,18.0,-12.0,
2002.0,2022.0,18.0,-12.0,
2022.0,2015.0,18.0,-12.0,
2015.0,2024.0,18.0,-12.0,
2018.0,2030.0,18.0,-13.0,
2009.0,2030.0,18.0,-13.0,
2033.0,2016.0,17.0,-13.0,
2047.0,2020.0,17.0,-13.0,
2035.0,2013.0,17.0,-13.0,
2048.0,2025.0,17.0,-12.0,
2021.0,2042.0,17.0,-12.0,
2022.0,2041.0,17.0,-12.0,
2012.0,2031.0,17.0,-12.0,
2016.0,2019.0,17.0,-12.0,
2012.0,1994.0,17.0,-12.0,
2015.0,1978.0,17.0,-11.0,
2021.0,1995.0,17.0,-11.0,
2030.0,2049.0,17.0,-11.0,
2044.0,2122.0,17.0,-11.0,
2048.0,2084.0,17.0,-11.0,
2029.0,2066.0,17.0,-11.0,
2011.0,2043.0,17.0,-11.0,
2039.0,2029.0,17.0,-11.0,
2007.0,2000.0,17.0,-11.0,
1996.0,1968.0,17.0,-10.0,
2024.0,1993.0,17.0,-10.0,
2027.0,2005.0,17.0,-10.0,
2003.0,2016.0,17.0,-10.0,
2023.0,2011.0,18.0,-10.0,
2033.0,2020.0,18.0,-10.0,
2026.0,2016.0,18.0,-10.0,
2003.0,2015.0,19.0,-10.0,
2026.0,2023.0,0,
2037.0,2031.0,19.0,-9.0,
2080.0,2028.0,19.0,-9.0,
2044.0,2004.0,20.0,-9.0,
2043.0,2002.0,20.0,-9.0,
2039.0,1992.0,20.0,-9.0,
2035.0,2070.0,20.0,-9.0,
2015.0,2063.0,21.0,-9.0,
2020.0,2055.0,21.0,-9.0,
2037.0,2030.0,21.0,-9.0,
2038.0,2016.0,21.0,-9.0,
2025.0,2022.0,21.0,-9.0,
2036.0,2018.0,21.0,-9.0,
2038.0,2017.0,21.0,-9.0,
2040.0,2019.0,21.0,-9.0,
2029.0,2021.0,21.0,-9.0,
2008.0,2018.0,21.0,-9.0,
2021.0,2029.0,21.0,-9.0,
2014.0,2024.0,21.0,-9.0,
2019.0,2029.0,20.0,-9.0,
2028.0,2027.0,20.0,-9.0,
2036.0,2027.0,20.0,-9.0,
2032.0,2025.0,20.0,-9.0,
2023.0,2024.0,20.0,-9.0,
2021.0,2019.0,19.0,-9.0,
2031.0,2023.0,19.0,-9.0,
2019.0,2030.0,19.0,-9.0,
2023.0,2030.0,19.0,-9.0,
2031.0,2023.0,19.0,-9.0,
2035.0,2023.0,19.0,-9.0,
2060.0,2023.0,19.0,-9.0,
2050.0,2023.0,19.0,-9.0,
2074.0,2022.0,19.0,-9.0,
2038.0,2018.0,18.0,-9.0,
1978.0,2011.0,18.0,-9.0,
2012.0,2020.0,18.0,-9.0,
2005.0,2021.0,18.0,-9.0,
2025.0,2031.0,18.0,-9.0,
2033.0,2028.0,18.0,-9.0,
2034.0,2026.0,18.0,-9.0,
2039.0,2025.0,18.0,-9.0,
2035.0,2030.0,18.0,-9.0,
2023.0,2024.0,18.0,-9.0,
2016.0,2024.0,18.0,-9.0,
2031.0,2030.0,18.0,-9.0,
2028.0,2025.0,18.0,-9.0,
2020.0,2025.0,18.0,-9.0,
2013.0,2048.0,18.0,-9.0,
2032.0,2017.0,18.0,-9.0,
2040.0,2011.0,18.0,-9.0,
2044.0,1982.0,18.0,-9.0,
2023.0,2060.0,18.0,-9.0,
2006.0,2053.0,18.0,-9.0,
2006.0,2028.0,18.0,-9.0,
2010.0,2034.0,18.0,-9.0,
2017.0,2018.0,18.0,-9.0,
2013.0,2019.0,18.0,-9.0,
2024.0,2018.0,18.0,-9.0,
2046.0,2024.0,18.0,-9.0,
2045.0,2025.0,18.0,-9.0,
2018.0,2023.0,18.0,-9.0,
2004.0,2018.0,18.0,-9.0,
2006.0,2021.0,18.0,-9.0,
2019.0,2030.0,18.0,-9.0,
2027.0,2021.0,18.0,-9.0,
2031.0,2016.0,19.0,-9.0,
2033.0,2034.0,19.0,-9.0,
2031.0,2026.0,0,
2038.0,2018.0,19.0,-9.0,
2022.0,2023.0,19.0,-9.0,
2036.0,2031.0,19.0,-9.0,
2008.0,2028.0,19.0,-9.0,
2017.0,2029.0,19.0,-9.0,
2029.0,2031.0,19.0,-9.0,
2037.0,2030.0,19.0,-9.0,
2045.0,2016.0,19.0,-9.0,
2034.0,2021.0,19.0,-9.0,
2024.0,2018.0,19.0,-9.0,
2011.0,2016.0,19.0,-9.0,
2013.0,2028.0,19.0,-9.0,
2025.0,2025.0,19.0,-9.0,
2016.0,2023.0,19.0,-9.0,
2025.0,2021.0,19.0,-9.0,
2026.0,2023.0,19.0,-9.0,
2030.0,2015.0,19.0,-9.0,
2047.0,2028.0,19.0,-9.0,
2074.0,2033.0,18.0,-9.0,
1994.0,2021.0,18.0,-9.0,
1984.0,2011.0,18.0,-9.0,
2014.0,2035.0,18.0,-9.0,
2027.0,2034.0,18.0,-9.0,
2040.0,2039.0,18.0,-9.0,
2055.0,2045.0,18.0,-9.0,
1980.0,2030.0,18.0,-9.0,
1989.0,2004.0,18.0,-9.0,
2022.0,1979.0,18.0,-9.0,
2047.0,2017.0,0,
2030.0,2025.0,18.0,-9.0,
1993.0,2032.0,18.0,-9.0,
2015.0,2029.0,18.0,-9.0,
2002.0,2042.0,18.0,-9.0,
2016.0,2031.0,19.0,-9.0,
2039.0,2029.0,19.0,-9.0,
2047.0,2026.0,19.0,-9.0,
2041.0,2023.0,19.0,-9.0,
2022.0,2026.0,19.0,-9.0,
2020.0,2036.0,20.0,-9.0,
2020.0,2031.0,20.0,-9.0,
2020.0,2025.0,20.0,-9.0,
2036.0,2028.0,20.0,-9.0,
2044.0,2016.0,20.0,-9.0,
2045.0,2023.0,20.0,-9.0,
2053.0,2026.0,20.0,-9.0,
2037.0,2028.0,21.0,-9.0,
2039.0,2021.0,21.0,-9.0,
2021.0,2026.0,21.0,-9.0,
2018.0,2024.0,21.0,-9.0,
2027.0,2032.0,21.0,-9.0,
2031.0,2032.0,21.0,-9.0,
2041.0,2024.0,21.0,-8.0,
2035.0,2016.0,21.0,-8.0,
2050.0,2021.0,21.0,-8.0,
2034.0,2025.0,20.0,-8.0,
2025.0,2021.0,20.0,-8.0,
2025.0,2024.0,20.0,-8.0,
2023.0,2031.0,20.0,-8.0,
2016.0,2038.0,20.0,-9.0,
2016.0,2028.0,19.0,-9.0,
2013.0,2023.0,19.0,-9.0,
2030.0,2026.0,19.0,-9.0,
2030.0,2023.0,19.0,-9.0,
2034.0,2024.0,18.0,-9.0,
2052.0,2017.0,18.0,-9.0,
2032.0,2030.0,18.0,-9.0,
2017.0,2014.0,17.0,-9.0,
1981.0,2013.0,17.0,-9.0,
1997.0,2022.0,17.0,-9.0,
2027.0,2011.0,17.0,-9.0,
2050.0,2020.0,17.0,-9.0,
2021.0,2022.0,17.0,-9.0,
2029.0,2022.0,16.0,-9.0,
2032.0,2018.0,16.0,-9.0,
2026.0,2030.0,16.0,-9.0,
2018.0,2026.0,16.0,-9.0,
2016.0,2026.0,16.0,-9.0,
2025.0,2027.0,16.0,-9.0,
2023.0,2027.0,16.0,-9.0,
2034.0,2020.0,16.0,-9.0,
2037.0,2017.0,16.0,-9.0,
2033.0,2022.0,16.0,-9.0,
2039.0,2024.0,17.0,-9.0,
2028.0,2033.0,17.0,-9.0,
2035.0,2028.0,17.0,-9.0,
2017.0,2031.0,17.0,-9.0,
2021.0,2025.0,17.0,-9.0,
2029.0,2028.0,17.0,-9.0,
2046.0,2032.0,17.0,-9.0,
2054.0,2030.0,17.0,-9.0,
2049.0,2029.0,17.0,-9.0,
2043.0,2014.0,18.0,-9.0,
2013.0,2019.0,18.0,-9.0,
1985.0,2021.0,18.0,-9.0,
1996.0,2021.0,18.0,-9.0,
2027.0,2030.0,18.0,-9.0,
2030.0,2018.0,18.0,-9.0,
2030.0,2034.0,19.0,-9.0,
2058.0,2038.0,19.0,-9.0,
2059.0,2014.0,19.0,-9.0,
1976.0,2003.0,19.0,-9.0,
2000.0,2023.0,19.0,-9.0,
2003.0,2030.0,19.0,-9.0,
2015.0,2029.0,19.0,-9.0,
2010.0,2027.0,19.0,-9.0,
2040.0,2025.0,19.0,-9.0,
2045.0,2022.0,19.0,-9.0,
2059.0,2026.0,20.0,-9.0,
2061.0,2026.0,20.0,-9.0,
2034.0,2028.0,20.0,-9.0,
2041.0,2022.0,20.0,-9.0,
2004.0,2018.0,20.0,-9.0,
2032.0,2020.0,20.0,-9.0,
2038.0,2032.0,20.0,-9.0,
2039.0,2029.0,20.0,-9.0,
2025.0,2024.0,19.0,-9.0,
2031.0,2033.0,19.0,-9.0,
2045.0,2028.0,19.0,-9.0,
2030.0,2017.0,19.0,-9.0,
2003.0,2020.0,19.0,-9.0,
2011.0,2028.0,19.0,-9.0,
2008.0,2027.0,19.0,-9.0,
2022.0,2029.0,19.0,-9.0,
2031.0,2028.0,19.0,-9.0,
2033.0,2022.0,19.0,-9.0,
2045.0,2015.0,19.0,-9.0,
2033.0,2009.0,18.0,-9.0,
2041.0,2017.0,18.0,-9.0,
2024.0,2011.0,18.0,-9.0,
2019.0,2028.0,18.0,-9.0,
2015.0,2023.0,18.0,-9.0,
2007.0,2027.0,18.0,-9.0,
2023.0,2023.0,18.0,-9.0,
2033.0,2014.0,18.0,-9.0,
2064.0,2021.0,18.0,-9.0,
2041.0,2026.0,17.0,-9.0,
2022.0,2021.0,17.0,-9.0,
2030.0,2021.0,17.0,-9.0,
2032.0,2024.0,17.0,-9.0,
2022.0,2029.0,17.0,-9.0,
2023.0,2022.0,17.0,-9.0,
2037.0,2028.0,17.0,-9.0,
2053.0,2030.0,17.0,-9.0,
2053.0,2026.0,17.0,-9.0,
2056.0,2030.0,17.0,-9.0,
2011.0,2013.0,17.0,-9.0,
2004.0,2017.0,17.0,-9.0,
2002.0,2022.0,17.0,-9.0,
2009.0,2022.0,17.0,-9.0,
2030.0,2029.0,18.0,-9.0,
2053.0,2030.0,18.0,-9.0,
2028.0,2035.0,18.0,-9.0,
2022.0,2027.0,18.0,-9.0,
2052.0,2020.0,18.0,-9.0,
2019.0,1989.0,18.0,-9.0,
2022.0,2006.0,0,
1997.0,2008.0,19.0,-9.0,
1993.0,2054.0,19.0,-9.0,
2014.0,2056.0,19.0,-9.0,
2016.0,2035.0,19.0,-9.0,
2027.0,2051.0,19.0,-9.0,
2048.0,2000.0,19.0,-9.0,
2046.0,1964.0,20.0,-8.0,
2030.0,2080.0,20.0,-8.0,
2032.0,1952.0,20.0,-8.0,
2028.0,2063.0,20.0,-8.0,
2043.0,2073.0,20.0,-8.0,
2016.0,2027.0,20.0,-8.0,
2037.0,2027.0,20.0,-8.0,
2032.0,2022.0,20.0,-8.0,
2061.0,2023.0,20.0,-8.0,
2042.0,2021.0,20.0,-9.0,
2041.0,2020.0,20.0,-9.0,
2050.0,2014.0,20.0,-9.0,
2040.0,2010.0,20.0,-9.0,
2031.0,2011.0,20.0,-9.0,
2022.0,1981.0,20.0,-9.0,
2032.0,2022.0,20.0,-9.0,
2038.0,2026.0,19.0,-9.0,
2054.0,2121.0,19.0,-9.0,
2030.0,2035.0,19.0,-9.0,
2018.0,2030.0,19.0,-9.0,
2023.0,2024.0,19.0,-9.0,
2021.0,2027.0,18.0,-9.0,
2015.0,2022.0,18.0,-9.0,
2015.0,2024.0,18.0,-9.0,
2035.0,2026.0,18.0,-9.0,
2038.0,2017.0,18.0,-9.0,
2038.0,2009.0,17.0,-9.0,
2031.0,2017.0,17.0,-9.0,
2029.0,2018.0,17.0,-9.0,
2012.0,2015.0,17.0,-9.0,
2007.0,2019.0,17.0,-9.0,
2014.0,2024.0,17.0,-9.0,
2028.0,2034.0,17.0,-9.0,
2032.0,2027.0,16.0,-9.0,
2026.0,2028.0,16.0,-9.0,
2042.0,2023.0,16.0,-9.0,
2023.0,2016.0,16.0,-9.0,
2025.0,2024.0,16.0,-9.0,
2054.0,2031.0,16.0,-9.0,
2025.0,2023.0,16.0,-9.0,
1984.0,2023.0,16.0,-9.0,
2025.0,2035.0,16.0,-9.0,
2022.0,2028.0,16.0,-9.0,
2004.0,2027.0,16.0,-9.0,
2044.0,2026.0,16.0,-9.0,
2054.0,2032.0,16.0,-9.0,
1987.0,2007.0,16.0,-9.0,
1989.0,2013.0,17.0,-9.0,
2022.0,2035.0,17.0,-9.0,
1990.0,2018.0,17.0,-9.0,
1993.0,2043.0,17.0,-9.0,
2013.0,2058.0,17.0,-9.0,
2055.0,2042.0,18.0,-9.0,
2058.0,2001.0,18.0,-9.0,
2020.0,1959.0,18.0,-9.0,
2016.0,1981.0,19.0,-9.0,
2009.0,1998.0,19.0,-9.0,
2014.0,2035.0,19.0,-9.0,
2026.0,2039.0,19.0,-9.0,
2029.0,2069.0,20.0,-9.0,
2015.0,2012.0,20.0,-9.0,
2024.0,1926.0,20.0,-8.0,
2049.0,1942.0,20.0,-8.0,
2059.0,1990.0,20.0,-8.0,
2060.0,2225.0,20.0,-8.0,
2019.0,2296.0,20.0,-8.0,
2020.0,2048.0,20.0,-8.0,
2003.0,2039.0,20.0,-8.0,
2044.0,1954.0,20.0,-8.0,
2040.0,1869.0,20.0,-8.0,
2040.0,1944.0,20.0,-9.0,
2052.0,1941.0,19.0,-9.0,
2045.0,1990.0,19.0,-9.0,
2028.0,2094.0,19.0,-9.0,
2010.0,2039.0,19.0,-9.0,
2007.0,2072.0,19.0,-9.0,
2029.0,2064.0,19.0,-9.0,
2024.0,2058.0,18.0,-9.0,
2034.0,2033.0,18.0,-9.0,
2031.0,2012.0,18.0,-9.0,
2040.0,2010.0,18.0,-9.0,
2058.0,1985.0,18.0,-9.0,
2049.0,1954.0,18.0,-9.0,
2042.0,1955.0,18.0,-9.0,
2029.0,2072.0,17.0,-9.0,
2028.0,2050.0,17.0,-9.0,
2075.0,2080.0,17.0,-9.0,
2094.0,2096.0,17.0,-9.0,
2025.0,2114.0,17.0,-9.0,
2037.0,2061.0,17.0,-9.0,
1989.0,1970.0,17.0,-9.0,
2021.0,2034.0,17.0,-9.0,
2020.0,2145.0,17.0,-9.0,
2028.0,2112.0,17.0,-9.0,
1938.0,1881.0,17.0,-9.0,
2033.0,1783.0,17.0,-9.0,
2094.0,1743.0,17.0,-9.0,
1976.0,1716.0,17.0,-9.0,
2005.0,1945.0,17.0,-9.0,
2048.0,2570.0,17.0,-9.0,
2059.0,2385.0,17.0,-8.0,
1922.0,2160.0,18.0,-8.0,
1923.0,1809.0,18.0,-8.0,
2063.0,1938.0,18.0,-8.0,
2071.0,1891.0,18.0,-8.0,
2104.0,1958.0,18.0,-7.0,
2038.0,2129.0,19.0,-7.0,
1930.0,2016.0,19.0,-7.0,
1934.0,2072.0,19.0,-7.0,
2066.0,1993.0,20.0,-7.0,
1994.0,1983.0,20.0,-6.0,
1948.0,1914.0,20.0,-6.0,
1974.0,2219.0,20.0,-6.0,
2014.0,1956.0,21.0,-6.0,
2036.0,1913.0,21.0,-6.0,
2082.0,2326.0,21.0,-7.0,
2077.0,2035.0,21.0,-7.0,
2052.0,2063.0,21.0,-7.0,
2057.0,2159.0,21.0,-7.0,
2042.0,2017.0,21.0,-7.0,
2044.0,1938.0,21.0,-7.0,
2043.0,1956.0,21.0,-8.0,
2051.0,1992.0,22.0,-8.0,
2052.0,1990.0,22.0,-8.0,
2053.0,1971.0,22.0,-8.0,
2059.0,1982.0,22.0,-8.0,
2052.0,1958.0,21.0,-9.0,
2063.0,2004.0,21.0,-9.0,
2028.0,1988.0,21.0,-9.0,
2047.0,1965.0,20.0,-9.0,
2026.0,2082.0,20.0,-9.0,
1978.0,2039.0,20.0,-9.0,
2033.0,2100.0,20.0,-10.0,
2021.0,1926.0,19.0,-10.0,
2034.0,1970.0,19.0,-10.0,
2054.0,2059.0,18.0,-10.0,
2049.0,2370.0,18.0,-10.0,
2036.0,1974.0,17.0,-10.0,
2042.0,1878.0,17.0,-10.0,
1997.0,1980.0,16.0,-10.0,
2033.0,1967.0,15.0,-10.0,
2063.0,2223.0,15.0,-10.0,
2096.0,2086.0,14.0,-10.0,
2108.0,2031.0,14.0,-10.0,
2170.0,1972.0,0,
2187.0,2211.0,13.0,-10.0,
1998.0,2129.0,13.0,-10.0,
1829.0,2026.0,13.0,-10.0,
1829.0,1931.0,12.0,-10.0,
1939.0,2231.0,12.0,-9.0,
2055.0,2089.0,12.0,-9.0,
2031.0,1949.0,12.0,-9.0,
2002.0,1955.0,12.0,-8.0,
2034.0,1990.0,12.0,-8.0,
2007.0,1655.0,12.0,-8.0,
2065.0,1704.0,12.0,-8.0,
1966.0,1886.0,12.0,-8.0,
1914.0,1998.0,12.0,-8.0,
1931.0,2067.0,13.0,-8.0,
1982.0,2204.0,13.0,-8.0,
1962.0,2073.0,13.0,-8.0,
2008.0,2086.0,13.0,-8.0,
2028.0,2070.0,14.0,-9.0,
2124.0,2084.0,14.0,-9.0,
2034.0,2036.0,14.0,-9.0,
2034.0,1993.0,15.0,-10.0,
2027.0,1898.0,15.0,-10.0,
2049.0,1964.0,15.0,-10.0,
2053.0,2043.0,16.0,-11.0,
2051.0,2038.0,16.0,-11.0,
2065.0,2070.0,16.0,-11.0,
2053.0,2138.0,16.0,-12.0,
2034.0,1980.0,16.0,-12.0,
2046.0,2016.0,16.0,-12.0,
2035.0,1918.0,16.0,-13.0,
2018.0,2107.0,16.0,-13.0,
2017.0,2199.0,16.0,-13.0,
2054.0,1935.0,16.0,-13.0,
2089.0,1979.0,16.0,-13.0,
2050.0,1971.0,16.0,-13.0,
2001.0,2064.0,16.0,-13.0,
2069.0,2134.0,16.0,-13.0,
2107.0,1676.0,15.0,-13.0,
2116.0,2136.0,15.0,-13.0,
2084.0,1981.0,14.0,-13.0,
2156.0,2168.0,14.0,-12.0,
2025.0,1966.0,14.0,-13.0,
1893.0,2140.0,13.0,-12.0,
1957.0,2084.0,13.0,-12.0,
1890.0,1867.0,12.0,-12.0,
1953.0,1578.0,12.0,-11.0,
2018.0,2026.0,12.0,-11.0,
1999.0,2419.0,12.0,-10.0,
1973.0,2063.0,12.0,-9.0,
1995.0,2324.0,12.0,-9.0,
2036.0,2164.0,12.0,-10.0,
1938.0,2136.0,11.0,-10.0,
2024.0,1941.0,11.0,-10.0,
2087.0,1992.0,11.0,-10.0,
1973.0,1877.0,11.0,-10.0,
2138.0,1729.0,12.0,-10.0,
1959.0,1875.0,12.0,-10.0,
2013.0,2022.0,12.0,-11.0,
2038.0,1984.0,12.0,-11.0,
2107.0,2312.0,12.0,-11.0,
2009.0,2100.0,12.0,-11.0,
1905.0,2052.0,13.0,-11.0,
1977.0,2162.0,13.0,-10.0,
2033.0,2045.0,14.0,-10.0,
2021.0,1782.0,14.0,-11.0,
1989.0,1728.0,14.0,-11.0,
2000.0,1969.0,15.0,-11.0,
2041.0,2025.0,15.0,-11.0,
2031.0,2178.0,15.0,-12.0,
2064.0,2142.0,16.0,-12.0,
2058.0,2425.0,16.0,-12.0,
2054.0,1928.0,16.0,-13.0,
2067.0,1791.0,16.0,-13.0,
2033.0,2072.0,16.0,-14.0,
2026.0,2088.0,15.0,-14.0,
2063.0,2235.0,15.0,-15.0,
2047.0,2057.0,15.0,-15.0,
2038.0,1994.0,14.0,-16.0,
2041.0,1967.0,14.0,-16.0,
2049.0,2028.0,14.0,-17.0,
2072.0,2002.0,14.0,-17.0,
2115.0,2008.0,13.0,-18.0,
2053.0,2030.0,13.0,-19.0,
2009.0,2087.0,12.0,-20.0,
1943.0,1990.0,12.0,-21.0,
1928.0,1967.0,11.0,-21.0,
2009.0,1942.0,11.0,-22.0,
2020.0,2087.0,10.0,-22.0,
2061.0,1979.0,9.0,-23.0,
2061.0,1802.0,8.0,-24.0,
2042.0,1701.0,7.0,-24.0,
2073.0,1750.0,6.0,-24.0,
1967.0,1938.0,5.0,-24.0,
1991.0,2410.0,4.0,-25.0,
1989.0,1946.0,4.0,-25.0,
2097.0,2052.0,3.0,-25.0,
2021.0,2312.0,3.0,-26.0,
2033.0,2153.0,2.0,-26.0,
2076.0,2184.0,1.0,-26.0,
2041.0,2165.0,1.0,-26.0,
2060.0,2010.0,1.0,-26.0,
2055.0,2001.0,1.0,-26.0,
1995.0,2156.0,1.0,-26.0,
1948.0,2406.0,1.0,-26.0,
1850.0,2235.0,1.0,-26.0,
1961.0,1660.0,2.0,-26.0,
2076.0,1607.0,2.0,-26.0,
2052.0,1693.0,3.0,-26.0,
2096.0,1970.0,3.0,-26.0,
2048.0,1987.0,3.0,-26.0,
2050.0,2138.0,4.0,-26.0,
2047.0,1988.0,5.0,-26.0,
2029.0,2006.0,5.0,-26.0,
2086.0,2178.0,6.0,-26.0,
2014.0,1932.0,6.0,-26.0,
1907.0,2068.0,7.0,-26.0,
1972.0,2043.0,8.0,-26.0,
1980.0,2029.0,9.0,-26.0,
1992.0,2073.0,9.0,-26.0,
2025.0,2116.0,10.0,-26.0,
2017.0,1862.0,11.0,-26.0,
2049.0,1805.0,12.0,-26.0,
2071.0,1955.0,12.0,-26.0,
2068.0,2258.0,13.0,-26.0,
2054.0,2080.0,13.0,-27.0,
2019.0,2085.0,13.0,-27.0,
2023.0,2258.0,14.0,-27.0,
2055.0,2014.0,14.0,-27.0,
2061.0,2090.0,14.0,-28.0,
1959.0,2111.0,14.0,-28.0,
2009.0,1880.0,14.0,-28.0,
2032.0,1798.0,14.0,-28.0,
2061.0,2140.0,14.0,-28.0,
2086.0,2242.0,14.0,-28.0,
2111.0,2181.0,14.0,-28.0,
2065.0,2062.0,13.0,-28.0,
2007.0,1953.0,13.0,-28.0,
1976.0,1727.0,12.0,-28.0,
1971.0,1730.0,12.0,-28.0,
2048.0,1728.0,11.0,-28.0,
2069.0,2463.0,10.0,-28.0,
1933.0,1974.0,10.0,-28.0,
1961.0,1907.0,9.0,-28.0,
1937.0,2488.0,8.0,-28.0,
2028.0,2090.0,8.0,-27.0,
2066.0,2028.0,7.0,-27.0,
2031.0,1637.0,7.0,-27.0,
2077.0,1819.0,7.0,-27.0,
1935.0,1991.0,6.0,-27.0,
2032.0,2290.0,6.0,-27.0,
2031.0,2369.0,6.0,-28.0,
2046.0,2031.0,6.0,-28.0,
2012.0,2026.0,5.0,-28.0,
2083.0,1755.0,5.0,-29.0,
2051.0,1581.0,5.0,-29.0,
2020.0,2178.0,5.0,-29.0,
2005.0,2227.0,5.0,-30.0,
1997.0,2340.0,6.0,-30.0,
2080.0,2008.0,6.0,-30.0,
2050.0,2176.0,6.0,-31.0,
2003.0,2109.0,6.0,-31.0,
2014.0,1939.0,6.0,-31.0,
2015.0,2010.0,6.0,-31.0,
2010.0,1980.0,7.0,-32.0,
2036.0,1841.0,7.0,-32.0,
2041.0,2033.0,7.0,-32.0,
2182.0,1986.0,7.0,-33.0,
2027.0,1976.0,7.0,-33.0,
1996.0,1898.0,8.0,-33.0,
1947.0,1939.0,8.0,-33.0,
1982.0,2131.0,8.0,-33.0,
1982.0,2220.0,9.0,-34.0,
2161.0,1787.0,9.0,-34.0,
1875.0,1766.0,9.0,-34.0,
2005.0,1968.0,10.0,-34.0,
2123.0,1939.0,10.0,-34.0,
2074.0,2067.0,10.0,-33.0,
2071.0,2501.0,11.0,-33.0,
2065.0,2385.0,11.0,-33.0,
1977.0,1927.0,11.0,-33.0,
1917.0,1813.0,12.0,-32.0,
1797.0,1865.0,12.0,-32.0,
1975.0,2228.0,12.0,-32.0,
2033.0,1958.0,13.0,-31.0,
2086.0,2172.0,13.0,-31.0,
2076.0,1654.0,13.0,-31.0,
2105.0,2280.0,13.0,-31.0,
2048.0,2057.0,13.0,-31.0,
2147.0,2072.0,13.0,-31.0,
1920.0,1807.0,13.0,-31.0,
1981.0,1974.0,13.0,-31.0,
1992.0,2060.0,13.0,-31.0,
2000.0,2217.0,13.0,-31.0,
2022.0,2099.0,13.0,-31.0,
2067.0,2280.0,13.0,-31.0,
2088.0,1837.0,13.0,-31.0,
2035.0,2004.0,12.0,-32.0,
2083.0,2004.0,12.0,-32.0,
2070.0,2184.0,12.0,-32.0,
2022.0,2158.0,11.0,-33.0,
1955.0,2262.0,11.0,-33.0,
2036.0,2061.0,0,
1999.0,2009.0,11.0,-33.0,
2069.0,2036.0,10.0,-34.0,
2042.0,1646.0,10.0,-34.0,
2052.0,1897.0,9.0,-35.0,
2063.0,2043.0,9.0,-35.0,
2040.0,2094.0,9.0,-35.0,
2045.0,2001.0,9.0,-36.0,
2022.0,1969.0,9.0,-36.0,
2016.0,2123.0,9.0,-36.0,
2032.0,1869.0,8.0,-36.0,
2024.0,1613.0,8.0,-37.0,
2117.0,2370.0,8.0,-37.0,
2054.0,2074.0,8.0,-37.0,
2002.0,1983.0,8.0,-37.0,
1996.0,1659.0,8.0,-37.0,
1960.0,1706.0,8.0,-37.0,
2086.0,2522.0,8.0,-37.0,
2084.0,2204.0,8.0,-37.0,
2066.0,2106.0,8.0,-37.0,
1923.0,1966.0,8.0,-37.0,
1963.0,2122.0,8.0,-37.0,
2059.0,1985.0,8.0,-37.0,
1949.0,2057.0,8.0,-37.0,
2062.0,2233.0,9.0,-37.0,
1987.0,2060.0,9.0,-37.0,
1989.0,1906.0,10.0,-37.0,
1963.0,2134.0,10.0,-37.0,
2102.0,1961.0,10.0,-37.0,
2034.0,1748.0,11.0,-37.0,
1981.0,2065.0,11.0,-37.0,
1934.0,2105.0,12.0,-37.0,
2023.0,2096.0,12.0,-37.0,
2002.0,1933.0,12.0,-37.0,
2054.0,1934.0,13.0,-37.0,
2090.0,1994.0,13.0,-37.0,
1969.0,1862.0,13.0,-37.0,
2045.0,1655.0,13.0,-37.0,
2034.0,2292.0,13.0,-37.0,
2010.0,2072.0,13.0,-37.0,
2046.0,2234.0,13.0,-37.0,
2041.0,2231.0,13.0,-37.0,
2035.0,1997.0,13.0,-37.0,
2065.0,1921.0,13.0,-37.0,
2077.0,1936.0,13.0,-37.0,
2066.0,2092.0,13.0,-37.0,
2044.0,1971.0,13.0,-37.0,
2035.0,1655.0,13.0,-37.0,
2128.0,2278.0,12.0,-37.0,
2001.0,1712.0,12.0,-38.0,
2056.0,2157.0,12.0,-38.0,
2018.0,2438.0,12.0,-38.0,
1955.0,2259.0,12.0,-38.0,
1988.0,2187.0,12.0,-38.0,
2078.0,1938.0,11.0,-39.0,
2020.0,1763.0,11.0,-39.0,
2078.0,1978.0,11.0,-39.0,
2047.0,1884.0,11.0,-39.0,
2022.0,1899.0,11.0,-40.0,
1974.0,2189.0,11.0,-40.0,
2045.0,2107.0,11.0,-40.0,
2035.0,1803.0,11.0,-40.0,
2026.0,2094.0,11.0,-40.0,
2109.0,2317.0,11.0,-40.0,
2061.0,1993.0,11.0,-41.0,
2024.0,1882.0,11.0,-41.0,
1981.0,2131.0,11.0,-41.0,
1943.0,1932.0,11.0,-41.0,
2014.0,1860.0,11.0,-41.0,
2027.0,1991.0,11.0,-41.0,
2117.0,2118.0,10.0,-41.0,
2018.0,1980.0,10.0,-41.0,
1955.0,2057.0,10.0,-42.0,
1989.0,1957.0,10.0,-42.0,
2026.0,2051.0,10.0,-42.0,
1966.0,2075.0,10.0,-42.0,
1977.0,1913.0,10.0,-42.0,
2038.0,1932.0,10.0,-41.0,
2025.0,2135.0,10.0,-41.0,
2059.0,2092.0,10.0,-41.0,
2081.0,2064.0,10.0,-42.0,
2027.0,2039.0,10.0,-42.0,
1996.0,2049.0,10.0,-42.0,
2008.0,2008.0,10.0,-42.0,
2008.0,2038.0,11.0,-42.0,
2055.0,2068.0,11.0,-42.0,
2022.0,2047.0,11.0,-42.0,
2038.0,2031.0,10.0,-42.0,
2039.0,2018.0,10.0,-43.0,
2059.0,2030.0,10.0,-43.0,
2027.0,2025.0,11.0,-43.0,
2032.0,2029.0,11.0,-43.0,
1977.0,2020.0,11.0,-43.0,
1965.0,2024.0,11.0,-43.0,
2032.0,1987.0,11.0,-43.0,
2010.0,1944.0,11.0,-43.0,
2024.0,2147.0,11.0,-43.0,
2042.0,1954.0,11.0,-43.0,
2087.0,2060.0,11.0,-43.0,
2049.0,2154.0,12.0,-43.0,
2028.0,1857.0,12.0,-43.0,
2029.0,1894.0,12.0,-43.0,
2076.0,2174.0,12.0,-43.0,
2068.0,2001.0,12.0,-43.0,
1988.0,2147.0,12.0,-43.0,
2026.0,2001.0,13.0,-42.0,
2080.0,2136.0,13.0,-42.0,
2040.0,1883.0,13.0,-42.0,
2015.0,1839.0,14.0,-41.0,
2006.0,2371.0,14.0,-41.0,
1960.0,2227.0,14.0,-40.0,
2042.0,2174.0,14.0,-40.0,
2029.0,1637.0,14.0,-40.0,
2026.0,1811.0,15.0,-39.0,
2032.0,2025.0,15.0,-39.0,
2013.0,2041.0,14.0,-39.0,
2022.0,2002.0,14.0,-38.0,
2022.0,1999.0,14.0,-38.0,
2023.0,2014.0,14.0,-38.0,
2040.0,2062.0,13.0,-38.0,
1996.0,2060.0,13.0,-38.0,
2012.0,1922.0,13.0,-38.0,
2030.0,1998.0,12.0,-38.0,
2034.0,2096.0,12.0,-39.0,
2022.0,2103.0,11.0,-39.0,
2019.0,2038.0,11.0,-39.0,
2014.0,2058.0,10.0,-40.0,
2020.0,2059.0,10.0,-40.0,
2026.0,2042.0,10.0,-40.0,
2047.0,2033.0,9.0,-40.0,
2084.0,2049.0,9.0,-41.0,
2071.0,2036.0,9.0,-41.0,
2082.0,2071.0,9.0,-41.0,
2110.0,2116.0,9.0,-42.0,
2061.0,1934.0,9.0,-42.0,
2013.0,2023.0,9.0,-42.0,
2006.0,1980.0,9.0,-43.0,
1878.0,1990.0,9.0,-43.0,
1928.0,2077.0,8.0,-43.0,
1938.0,1965.0,8.0,-43.0,
1949.0,1976.0,8.0,-43.0,
1998.0,1831.0,8.0,-43.0,
2043.0,1865.0,7.0,-43.0,
2076.0,2094.0,7.0,-42.0,
2006.0,2229.0,7.0,-42.0,
1979.0,2193.0,7.0,-41.0,
1983.0,1967.0,7.0,-40.0,
2033.0,1911.0,6.0,-40.0,
2062.0,2138.0,6.0,-39.0,
2112.0,2124.0,6.0,-38.0,
2010.0,2068.0,7.0,-38.0,
2034.0,1941.0,7.0,-37.0,
2047.0,1846.0,7.0,-36.0,
1989.0,1988.0,7.0,-36.0,
2031.0,2201.0,7.0,-35.0,
2013.0,1981.0,8.0,-35.0,
2023.0,2075.0,8.0,-34.0,
2040.0,1978.0,8.0,-33.0,
2059.0,1994.0,9.0,-33.0,
2061.0,1995.0,9.0,-33.0,
2034.0,1959.0,9.0,-32.0,
2040.0,2008.0,9.0,-32.0,
2022.0,2028.0,9.0,-31.0,
2005.0,1960.0,9.0,-31.0,
2023.0,1984.0,9.0,-31.0,
2013.0,2182.0,9.0,-30.0,
2043.0,2207.0,9.0,-30.0,
2059.0,2091.0,0,
2029.0,1876.0,9.0,-29.0,
2054.0,1938.0,9.0,-28.0,
2040.0,2011.0,10.0,-26.0,
2008.0,2043.0,11.0,-25.0,
2018.0,2023.0,11.0,-25.0,
2060.0,2103.0,12.0,-25.0,
2072.0,1982.0,12.0,-24.0,
2106.0,1829.0,13.0,-24.0,
2160.0,1902.0,13.0,-24.0,
2066.0,2090.0,13.0,-23.0,
1930.0,2225.0,13.0,-23.0,
1880.0,2223.0,13.0,-24.0,
1926.0,2022.0,13.0,-24.0,
1965.0,1993.0,12.0,-24.0,
1913.0,1998.0,11.0,-24.0,
1979.0,2027.0,10.0,-23.0,
2046.0,2040.0,10.0,-23.0,
2040.0,2010.0,9.0,-22.0,
2042.0,1975.0,9.0,-22.0,
2078.0,1938.0,8.0,-22.0,
2100.0,2017.0,7.0,-21.0,
2116.0,2186.0,7.0,-21.0,
2083.0,2059.0,6.0,-21.0,
1906.0,1945.0,6.0,-21.0,
1928.0,1759.0,6.0,-21.0,
1989.0,2291.0,5.0,-22.0,
2028.0,2005.0,5.0,-22.0,
2049.0,1978.0,4.0,-23.0,
2054.0,1930.0,3.0,-23.0,
2014.0,1960.0,2.0,-23.0,
2020.0,2158.0,2.0,-24.0,
2038.0,2124.0,1.0,-24.0,
2105.0,2025.0,0.0,-24.0,
2103.0,1684.0,0.0,-24.0,
1993.0,1686.0,-1.0,-24.0,
2044.0,2335.0,-2.0,-24.0,
1991.0,2480.0,-2.0,-24.0,
2082.0,1884.0,-2.0,-24.0,
2014.0,2057.0,-2.0,-24.0,
1996.0,1983.0,-2.0,-24.0,
2042.0,1867.0,-2.0,-25.0,
2038.0,1959.0,-2.0,-25.0,
2070.0,2051.0,-1.0,-25.0,
2124.0,2016.0,-1.0,-25.0,
2054.0,2078.0,0.0,-25.0,
1986.0,2030.0,0.0,-25.0,
2003.0,1997.0,0.0,-25.0,
2003.0,2013.0,0.0,-26.0,
2011.0,2002.0,0.0,-26.0,
1994.0,1986.0,0.0,-26.0,
2014.0,2040.0,1.0,-27.0,
2021.0,2059.0,1.0,-27.0,
2050.0,2010.0,1.0,-27.0,
2009.0,2044.0,2.0,-28.0,
2019.0,2062.0,2.0,-28.0,
2037.0,2030.0,2.0,-28.0,
2014.0,2020.0,3.0,-28.0,
2003.0,2030.0,3.0,-28.0,
2032.0,2022.0,4.0,-29.0,
2056.0,2030.0,4.0,-29.0,
2065.0,2025.0,4.0,-29.0,
2029.0,2016.0,5.0,-29.0,
2032.0,2022.0,5.0,-29.0,
2014.0,2016.0,5.0,-29.0,
2005.0,2023.0,5.0,-29.0,
2004.0,2021.0,6.0,-29.0,
1987.0,2026.0,6.0,-29.0,
2010.0,2023.0,6.0,-29.0,
2051.0,2037.0,6.0,-29.0,
2081.0,2024.0,6.0,-29.0,
2085.0,2024.0,6.0,-29.0,
2148.0,2021.0,6.0,-29.0,
2074.0,2028.0,6.0,-29.0,
2009.0,2042.0,6.0,-28.0,
1956.0,2036.0,6.0,-28.0,
1976.0,2063.0,6.0,-28.0,
2021.0,1988.0,6.0,-28.0,
1988.0,1968.0,6.0,-28.0,
2060.0,2003.0,6.0,-27.0,
2109.0,2084.0,6.0,-27.0,
1971.0,2032.0,6.0,-27.0,
1973.0,1976.0,6.0,-26.0,
2128.0,2044.0,6.0,-26.0,
2033.0,2106.0,6.0,-26.0,
1945.0,2039.0,6.0,-25.0,
1925.0,1820.0,5.0,-25.0,
2005.0,1896.0,5.0,-25.0,
1993.0,2324.0,5.0,-25.0,
2018.0,2084.0,5.0,-24.0,
2044.0,1946.0,5.0,-24.0,
2012.0,2194.0,5.0,-24.0,
2024.0,1939.0,4.0,-24.0,
2008.0,1981.0,4.0,-24.0,
2029.0,2147.0,4.0,-24.0,
2048.0,2033.0,4.0,-24.0,
2075.0,2044.0,3.0,-24.0,
2093.0,2042.0,3.0,-24.0,
2043.0,2136.0,3.0,-24.0,
2035.0,2174.0,2.0,-24.0,
2006.0,1925.0,2.0,-25.0,
2037.0,1774.0,1.0,-25.0,
1995.0,1787.0,1.0,-25.0,
2015.0,1804.0,1.0,-25.0,
2010.0,1978.0,0.0,-25.0,
2046.0,2054.0,0.0,-26.0,
2044.0,2095.0,0.0,-26.0,
2040.0,2319.0,0.0,-26.0,
2004.0,1993.0,0.0,-26.0,
2015.0,2149.0,0.0,-26.0,
2060.0,2110.0,-1.0,-26.0,
2073.0,1967.0,-1.0,-26.0,
2023.0,1982.0,-1.0,-26.0,
2036.0,1997.0,-1.0,-26.0,
2057.0,1981.0,-1.0,-26.0,
2064.0,1971.0,-1.0,-26.0,
2072.0,1978.0,-1.0,-26.0,
2040.0,2098.0,-1.0,-26.0,
1985.0,2059.0,-1.0,-26.0,
1947.0,2045.0,0.0,-26.0,
1967.0,2019.0,0.0,-26.0,
1956.0,2038.0,0.0,-26.0,
2004.0,2016.0,0.0,-26.0,
2030.0,2027.0,0.0,-26.0,
2029.0,2041.0,0.0,-26.0,
2021.0,2016.0,0.0,-26.0,
2069.0,2078.0,0.0,-26.0,
2021.0,2044.0,0.0,-26.0,
1977.0,2049.0,1.0,-27.0,
2012.0,2051.0,1.0,-27.0,
2026.0,1935.0,2.0,-27.0,
2020.0,1946.0,2.0,-27.0,
2054.0,2066.0,2.0,-27.0,
2049.0,1971.0,3.0,-27.0,
2024.0,1865.0,3.0,-27.0,
2052.0,2117.0,3.0,-28.0,
2017.0,2008.0,4.0,-28.0,
2041.0,1973.0,4.0,-28.0,
2011.0,1895.0,4.0,-28.0,
2030.0,2023.0,5.0,-28.0,
2050.0,1760.0,5.0,-28.0,
2022.0,2502.0,5.0,-28.0,
2018.0,2218.0,6.0,-27.0,
2024.0,2042.0,6.0,-27.0,
1999.0,2134.0,6.0,-27.0,
2018.0,2063.0,6.0,-27.0,
2009.0,2087.0,7.0,-27.0,
2000.0,1882.0,7.0,-27.0,
2027.0,2028.0,7.0,-26.0,
2035.0,2034.0,7.0,-26.0,
2041.0,2028.0,7.0,-26.0,
2032.0,1984.0,7.0,-26.0,
2065.0,1989.0,7.0,-26.0,
2031.0,2033.0,7.0,-26.0,
2022.0,2070.0,7.0,-26.0,
2056.0,1968.0,7.0,-26.0,
2013.0,1941.0,7.0,-26.0,
2047.0,1961.0,6.0,-26.0,
2041.0,1925.0,6.0,-26.0,
2020.0,1967.0,6.0,-25.0,
2001.0,2047.0,6.0,-25.0,
1997.0,2088.0,5.0,-25.0,
2000.0,2257.0,5.0,-25.0,
2039.0,1975.0,5.0,-25.0,
2047.0,1874.0,5.0,-25.0,
2042.0,1970.0,5.0,-25.0,
2017.0,1920.0,5.0,-25.0,
2039.0,2047.0,5.0,-25.0,
2073.0,2241.0,4.0,-25.0,
2002.0,1970.0,4.0,-25.0,
2020.0,1961.0,4.0,-25.0,
1990.0,2055.0,4.0,-25.0,
2029.0,2071.0,4.0,-25.0,
2066.0,2161.0,4.0,-25.0,
2070.0,2031.0,4.0,-26.0,
2043.0,2020.0,4.0,-26.0,
1980.0,1984.0,4.0,-26.0,
2002.0,1970.0,4.0,-26.0,
1982.0,1994.0,4.0,-26.0,
2026.0,2106.0,4.0,-26.0,
1964.0,1999.0,4.0,-27.0,
2032.0,1794.0,4.0,-27.0,
1994.0,1747.0,4.0,-27.0,
2008.0,1874.0,4.0,-27.0,
2046.0,2142.0,4.0,-26.0,
2075.0,2374.0,4.0,-26.0,
2020.0,2029.0,4.0,-26.0,
2049.0,2339.0,4.0,-26.0,
2054.0,2096.0,4.0,-26.0,
1998.0,1955.0,4.0,-26.0,
2045.0,2197.0,4.0,-26.0,
2026.0,2059.0,4.0,-26.0,
2058.0,1982.0,4.0,-26.0,
2026.0,1992.0,4.0,-26.0,
2041.0,2059.0,4.0,-25.0,
2030.0,2025.0,5.0,-25.0,
2053.0,2050.0,5.0,-25.0,
2062.0,1854.0,5.0,-25.0,
2043.0,1851.0,5.0,-25.0,
2015.0,1983.0,5.0,-26.0,
2023.0,2015.0,5.0,-26.0,
2039.0,2004.0,6.0,-26.0,
2015.0,1924.0,6.0,-26.0,
2036.0,2068.0,6.0,-26.0,
2026.0,1999.0,6.0,-26.0,
2013.0,1976.0,6.0,-26.0,
2051.0,2063.0,5.0,-26.0,
2021.0,2063.0,5.0,-26.0,
2007.0,1956.0,5.0,-26.0,
2029.0,2074.0,5.0,-26.0,
2032.0,2034.0,5.0,-26.0,
1998.0,1949.0,5.0,-26.0,
2024.0,1982.0,5.0,-26.0,
2018.0,2066.0,5.0,-26.0,
2018.0,2160.0,5.0,-26.0,
2014.0,2162.0,5.0,-26.0,
2026.0,2064.0,4.0,-26.0,
2053.0,2021.0,4.0,-26.0,
2054.0,1966.0,4.0,-26.0,
2085.0,1919.0,4.0,-26.0,
2019.0,1883.0,4.0,-26.0,
2053.0,1924.0,4.0,-26.0,
1980.0,1941.0,4.0,-26.0,
1988.0,2000.0,4.0,-26.0,
2000.0,2137.0,4.0,-26.0,
2023.0,2183.0,3.0,-26.0,
2048.0,2213.0,3.0,-26.0,
2031.0,2036.0,3.0,-25.0,
2027.0,2006.0,3.0,-26.0,
2023.0,2000.0,3.0,-26.0,
2021.0,1929.0,3.0,-26.0,
2000.0,2015.0,3.0,-26.0,
2032.0,2194.0,3.0,-26.0,
2048.0,1964.0,3.0,-26.0,
2049.0,2003.0,3.0,-26.0,
2057.0,2235.0,3.0,-26.0,
2062.0,2088.0,3.0,-26.0,
2034.0,1999.0,3.0,-26.0,
2022.0,2015.0,4.0,-26.0,
2039.0,1818.0,4.0,-26.0,
1996.0,1877.0,4.0,-26.0,
2051.0,2288.0,4.0,-26.0,
2031.0,2195.0,4.0,-26.0,
2018.0,1966.0,4.0,-26.0,
2046.0,1900.0,4.0,-26.0,
2012.0,2115.0,4.0,-26.0,
2028.0,2003.0,5.0,-26.0,
2070.0,1929.0,5.0,-26.0,
1998.0,1821.0,5.0,-26.0,
2004.0,1891.0,5.0,-26.0,
2041.0,2119.0,5.0,-26.0,
2056.0,2023.0,5.0,-26.0,
2055.0,1990.0,5.0,-25.0,
2037.0,2083.0,5.0,-25.0,
2013.0,2167.0,5.0,-25.0,
1985.0,2116.0,5.0,-25.0,
2001.0,2020.0,5.0,-25.0,
1996.0,1933.0,5.0,-25.0,
2061.0,2114.0,5.0,-25.0,
2007.0,1999.0,5.0,-25.0,
2010.0,2091.0,5.0,-25.0,
2026.0,1982.0,5.0,-25.0,
2066.0,2022.0,4.0,-25.0,
2067.0,2064.0,4.0,-25.0,
2078.0,2042.0,4.0,-25.0,
2018.0,2168.0,4.0,-25.0,
2020.0,2003.0,4.0,-25.0,
1975.0,1929.0,4.0,-25.0,
1982.0,1895.0,4.0,-25.0,
1982.0,1869.0,4.0,-25.0,
2011.0,1792.0,4.0,-25.0,
1977.0,1982.0,4.0,-25.0,
2036.0,2244.0,4.0,-25.0,
2071.0,2157.0,4.0,-25.0,
2023.0,2110.0,4.0,-24.0,
2039.0,2132.0,4.0,-24.0,
2043.0,1856.0,4.0,-24.0,
2029.0,2198.0,4.0,-24.0,
2057.0,2020.0,4.0,-24.0,
2027.0,1956.0,4.0,-24.0,
2037.0,2040.0,4.0,-24.0,
2040.0,2046.0,5.0,-24.0,
2049.0,1974.0,5.0,-24.0,
2033.0,2073.0,5.0,-24.0,
1939.0,1968.0,5.0,-24.0,
1991.0,1937.0,5.0,-24.0,
2036.0,2061.0,6.0,-24.0,
2037.0,1987.0,6.0,-25.0,
2095.0,1993.0,6.0,-25.0,
2095.0,1954.0,6.0,-25.0,
2000.0,1962.0,6.0,-25.0,
2034.0,2071.0,6.0,-26.0,
2038.0,2093.0,6.0,-26.0,
2014.0,2044.0,6.0,-26.0,
2044.0,2010.0,6.0,-26.0,
1996.0,1999.0,6.0,-26.0,
2046.0,2068.0,6.0,-26.0,
2092.0,2243.0,6.0,-27.0,
2044.0,2117.0,6.0,-27.0,
2031.0,2068.0,6.0,-27.0,
2026.0,2064.0,6.0,-27.0,
2021.0,1933.0,6.0,-27.0,
1997.0,1938.0,5.0,-27.0,
2066.0,2084.0,5.0,-27.0,
2075.0,2035.0,5.0,-27.0,
2012.0,1978.0,5.0,-27.0,
2043.0,2010.0,5.0,-27.0,
2049.0,2108.0,5.0,-26.0,
1942.0,2040.0,4.0,-26.0,
1939.0,1911.0,4.0,-26.0,
1941.0,1588.0,4.0,-26.0,
2032.0,1560.0,4.0,-25.0,
2013.0,2281.0,4.0,-25.0,
2058.0,2480.0,4.0,-24.0,
1967.0,2207.0,4.0,-24.0,
2025.0,2133.0,4.0,-24.0,
2151.0,1774.0,4.0,-23.0,
2107.0,1854.0,4.0,-23.0,
2091.0,1871.0,4.0,-22.0,
2099.0,2248.0,4.0,-22.0,
2152.0,1885.0,4.0,-22.0,
2077.0,2157.0,4.0,-21.0,
2071.0,2285.0,4.0,-21.0,
2037.0,2211.0,4.0,-21.0,
1919.0,2043.0,4.0,-21.0,
1893.0,1943.0,5.0,-21.0,
1959.0,2053.0,5.0,-21.0,
1980.0,2047.0,5.0,-21.0,
2009.0,1888.0,6.0,-21.0,
2018.0,1998.0,6.0,-22.0,
2013.0,1973.0,6.0,-22.0,
1991.0,1986.0,7.0,-22.0,
2049.0,1960.0,7.0,-23.0,
2063.0,2027.0,8.0,-23.0,
2052.0,2030.0,8.0,-23.0,
2045.0,2038.0,8.0,-24.0,
2024.0,2027.0,8.0,-24.0,
2033.0,2041.0,9.0,-24.0,
2087.0,2053.0,9.0,-25.0,
2042.0,2029.0,9.0,-25.0,
1984.0,2022.0,9.0,-25.0,
2014.0,2067.0,8.0,-26.0,
2022.0,2021.0,8.0,-26.0,
2017.0,2027.0,8.0,-26.0,
2033.0,2042.0,7.0,-26.0,
2011.0,2030.0,7.0,-26.0,
2072.0,2001.0,7.0,-26.0,
2041.0,1907.0,6.0,-26.0,
2060.0,1953.0,6.0,-26.0,
2078.0,2035.0,5.0,-26.0,
1962.0,2112.0,5.0,-26.0,
1927.0,2157.0,5.0,-26.0,
2019.0,1849.0,4.0,-26.0,
2058.0,2050.0,4.0,-26.0,
2075.0,2223.0,4.0,-26.0,
2106.0,1951.0,4.0,-26.0,
2134.0,2036.0,4.0,-26.0,
2020.0,1965.0,3.0,-26.0,
1919.0,1774.0,3.0,-26.0,
1914.0,1928.0,3.0,-26.0,
2064.0,2284.0,3.0,-26.0,
1998.0,2370.0,3.0,-25.0,
2042.0,2249.0,3.0,-25.0,
1988.0,2046.0,3.0,-25.0,
1966.0,1854.0,3.0,-25.0,
2043.0,1882.0,3.0,-25.0,
1988.0,1946.0,3.0,-25.0,
2097.0,2005.0,3.0,-24.0,
2138.0,1972.0,3.0,-24.0,
2067.0,1935.0,4.0,-24.0,
1995.0,2006.0,4.0,-24.0,
1938.0,2064.0,5.0,-24.0,
1915.0,2090.0,5.0,-24.0,
1891.0,2062.0,6.0,-24.0,
2022.0,2121.0,6.0,-24.0,
1991.0,1933.0,6.0,-24.0,
2017.0,1988.0,7.0,-24.0,
2056.0,2073.0,7.0,-24.0,
2045.0,2082.0,7.0,-25.0,
2066.0,2060.0,7.0,-25.0,
2041.0,1939.0,7.0,-25.0,
2040.0,2002.0,7.0,-26.0,
2068.0,2002.0,7.0,-26.0,
2092.0,2021.0,7.0,-27.0,
2130.0,2158.0,7.0,-27.0,
2109.0,1947.0,7.0,-27.0,
2062.0,1991.0,7.0,-28.0,
2011.0,2031.0,7.0,-28.0,
1989.0,2144.0,7.0,-29.0,
2005.0,1979.0,7.0,-29.0,
2033.0,2075.0,6.0,-29.0,
1981.0,2003.0,6.0,-30.0,
1990.0,1881.0,6.0,-30.0,
2001.0,1880.0,6.0,-30.0,
2099.0,1848.0,6.0,-30.0,
1915.0,2144.0,5.0,-30.0,
2023.0,2079.0,5.0,-30.0,
2046.0,2210.0,5.0,-30.0,
1924.0,1942.0,5.0,-30.0,
1913.0,2193.0,4.0,-30.0,
2038.0,2499.0,4.0,-30.0,
2175.0,2081.0,4.0,-30.0,
2090.0,1744.0,4.0,-30.0,
2044.0,1819.0,3.0,-31.0,
1989.0,1886.0,3.0,-32.0,
2073.0,2026.0,3.0,-32.0,
2040.0,2002.0,3.0,-31.0,
2049.0,2084.0,3.0,-30.0,
2039.0,2010.0,3.0,-30.0,
2021.0,2028.0,2.0,-31.0,
2051.0,2045.0,2.0,-31.0,
2074.0,2041.0,2.0,-32.0,
2042.0,1893.0,2.0,-32.0,
2052.0,1873.0,2.0,-31.0,
2053.0,2176.0,1.0,-31.0,
2037.0,2169.0,1.0,-31.0,
2020.0,1952.0,1.0,-32.0,
2009.0,1996.0,0.0,-33.0,
2075.0,2057.0,0.0,-33.0,
2031.0,2011.0,0.0,-33.0,
2095.0,2011.0,0.0,-32.0,
2047.0,1990.0,0.0,-33.0,
2047.0,1979.0,0.0,-32.0,
1920.0,1935.0,0.0,-33.0,
2001.0,2030.0,0.0,-32.0,
1941.0,2023.0,0.0,-31.0,
1931.0,2037.0,0.0,-32.0,
1972.0,2041.0,0.0,-32.0,
2047.0,2103.0,1.0,-32.0,
2057.0,2033.0,1.0,-32.0,
2083.0,2021.0,1.0,-32.0,
2064.0,2150.0,2.0,-32.0,
1998.0,2023.0,2.0,-32.0,
2079.0,2046.0,3.0,-32.0,
2062.0,2013.0,3.0,-32.0,
1964.0,1998.0,3.0,-32.0,
1963.0,2000.0,3.0,-33.0,
1997.0,1952.0,3.0,-33.0,
1945.0,2063.0,4.0,-33.0,
1948.0,2160.0,4.0,-33.0,
2060.0,2396.0,4.0,-33.0,
2018.0,1776.0,4.0,-33.0,
2024.0,1434.0,4.0,-34.0,
2004.0,1617.0,4.0,-34.0,
2085.0,2178.0,3.0,-34.0,
2036.0,2241.0,3.0,-34.0,
2034.0,2290.0,3.0,-34.0,
2035.0,2397.0,3.0,-34.0,
2055.0,2035.0,2.0,-34.0,
2022.0,1781.0,2.0,-34.0,
2015.0,1962.0,2.0,-34.0,
2035.0,2191.0,2.0,-34.0,
2053.0,2085.0,1.0,-34.0,
2033.0,1936.0,1.0,-34.0,
2071.0,2003.0,1.0,-34.0,
2033.0,2016.0,1.0,-34.0,
2054.0,1998.0,1.0,-34.0,
2032.0,2051.0,1.0,-34.0,
2018.0,1989.0,1.0,-34.0,
2065.0,1899.0,1.0,-33.0,
2125.0,1980.0,1.0,-32.0,
1920.0,1965.0,1.0,-32.0,
1924.0,1840.0,0.0,-32.0,
1898.0,2272.0,0.0,-32.0,
2022.0,2390.0,0.0,-32.0,
2019.0,1904.0,0.0,-32.0,
2037.0,1866.0,0.0,-32.0,
2045.0,2139.0,0.0,-33.0,
2016.0,1911.0,0.0,-33.0,
2012.0,1864.0,-1.0,-35.0,
2022.0,1899.0,-1.0,-36.0,
2058.0,2296.0,-2.0,-36.0,
2036.0,2106.0,-2.0,-37.0,
2025.0,1957.0,-2.0,-37.0,
2037.0,1988.0,-2.0,-38.0,
2036.0,2199.0,-3.0,-38.0,
2019.0,2094.0,-3.0,-38.0,
2026.0,1996.0,-3.0,-38.0,
2020.0,1984.0,-4.0,-38.0,
2032.0,1979.0,-4.0,-38.0,
2038.0,1999.0,-5.0,-38.0,
2028.0,1997.0,-5.0,-38.0,
2032.0,2004.0,-6.0,-39.0,
2023.0,2013.0,-7.0,-39.0,
2034.0,2062.0,-8.0,-39.0,
2049.0,2041.0,-8.0,-39.0,
2039.0,2034.0,-9.0,-39.0,
2011.0,2093.0,-10.0,-40.0,
1991.0,1953.0,-11.0,-41.0,
2124.0,1734.0,-12.0,-41.0,
2058.0,2049.0,-13.0,-41.0,
2043.0,2167.0,-13.0,-41.0,
2139.0,1852.0,-14.0,-40.0,
2069.0,2131.0,-14.0,-40.0,
1959.0,2013.0,-16.0,-41.0,
1970.0,1992.0,-16.0,-42.0,
1890.0,1941.0,-17.0,-43.0,
1974.0,2104.0,-16.0,-43.0,
1946.0,1948.0,-17.0,-43.0,
2008.0,2107.0,-17.0,-43.0,
2055.0,2220.0,-16.0,-43.0,
2029.0,2001.0,-16.0,-44.0,
2028.0,1940.0,-16.0,-45.0,
2025.0,1911.0,-16.0,-45.0,
2056.0,1904.0,-15.0,-45.0,
2100.0,1944.0,-13.0,-44.0,
2084.0,2330.0,-13.0,-43.0,
2046.0,2252.0,-13.0,-43.0,
1999.0,2059.0,-13.0,-43.0,
2011.0,2102.0,-12.0,-43.0,
1930.0,2039.0,-12.0,-43.0,
1955.0,1865.0,-12.0,-43.0,
1974.0,1937.0,-12.0,-43.0,
2018.0,2004.0,-12.0,-43.0,
2023.0,1998.0,-12.0,-43.0,
2025.0,1948.0,-12.0,-43.0,
2052.0,1991.0,-12.0,-43.0,
2033.0,1956.0,-12.0,-43.0,
2013.0,1970.0,-12.0,-43.0,
2038.0,2141.0,-12.0,-43.0,
2108.0,2072.0,-12.0,-43.0,
2098.0,1866.0,-12.0,-43.0,
2049.0,1918.0,-13.0,-44.0,
2099.0,2356.0,-13.0,-44.0,
1988.0,1940.0,-13.0,-44.0,
2000.0,1921.0,-13.0,-44.0,
2052.0,2298.0,-13.0,-44.0,
2042.0,2131.0,-13.0,-44.0,
2128.0,2029.0,-13.0,-44.0,
2110.0,1902.0,-13.0,-44.0,
1985.0,1748.0,-13.0,-44.0,
1965.0,1826.0,-12.0,-44.0,
2023.0,2230.0,-12.0,-44.0,
1962.0,2248.0,-11.0,-44.0,
1900.0,2018.0,-11.0,-44.0,
1949.0,2037.0,-10.0,-44.0,
2023.0,1987.0,-9.0,-43.0,
1989.0,2079.0,-9.0,-43.0,
2041.0,2056.0,-8.0,-43.0,
2078.0,1979.0,-7.0,-43.0,
2057.0,1976.0,-7.0,-43.0,
2090.0,1975.0,-6.0,-43.0,
2053.0,2044.0,-5.0,-42.0,
1934.0,1962.0,-4.0,-42.0,
2000.0,2219.0,-3.0,-42.0,
2149.0,2216.0,-3.0,-42.0,
2077.0,2045.0,-2.0,-42.0,
1904.0,1922.0,-2.0,-41.0,
1957.0,1861.0,-1.0,-41.0,
1986.0,2059.0,-1.0,-41.0,
1970.0,1927.0,0.0,-41.0,
2012.0,1829.0,0.0,-41.0,
2019.0,1934.0,0.0,-41.0,
2013.0,2028.0,0.0,-40.0,
2027.0,2233.0,0.0,-40.0,
2057.0,2283.0,0.0,-40.0,
2063.0,2086.0,1.0,-40.0,
2083.0,1903.0,1.0,-40.0,
2098.0,2080.0,1.0,-40.0,
2048.0,2042.0,2.0,-40.0,
2056.0,1791.0,2.0,-40.0,
2059.0,1868.0,3.0,-40.0,
2048.0,2031.0,3.0,-40.0,
2059.0,2365.0,3.0,-40.0,
2004.0,2190.0,3.0,-40.0,
2017.0,2085.0,3.0,-40.0,
2043.0,2043.0,3.0,-40.0,
2057.0,2027.0,3.0,-40.0,
2071.0,2004.0,3.0,-40.0,
2058.0,2001.0,3.0,-40.0,
2044.0,1959.0,3.0,-40.0,
2061.0,1951.0,2.0,-40.0,
2024.0,1993.0,2.0,-40.0,
2014.0,2072.0,2.0,-40.0,
2005.0,2067.0,2.0,-40.0,
1997.0,2186.0,2.0,-41.0,
2022.0,1873.0,1.0,-41.0,
2069.0,1894.0,1.0,-41.0,
2114.0,2036.0,1.0,-41.0,
2002.0,1535.0,1.0,-41.0,
1984.0,1828.0,0.0,-41.0,
2101.0,2664.0,0.0,-41.0,
2040.0,2504.0,0.0,-41.0,
2017.0,1758.0,0.0,-41.0,
2020.0,1843.0,0.0,-41.0,
2036.0,2027.0,0.0,-41.0,
1982.0,2044.0,0.0,-41.0,
1997.0,1730.0,0.0,-40.0,
2040.0,1630.0,0.0,-40.0,
1957.0,2013.0,1.0,-40.0,
2023.0,2422.0,2.0,-39.0,
2037.0,2169.0,2.0,-39.0,
1964.0,2060.0,3.0,-39.0,
1987.0,2099.0,5.0,-38.0,
2105.0,2305.0,6.0,-38.0,
2033.0,1948.0,7.0,-38.0,
2042.0,1863.0,8.0,-38.0,
1993.0,2110.0,9.0,-39.0,
1876.0,2021.0,10.0,-39.0,
1950.0,2018.0,11.0,-39.0,
1997.0,2021.0,11.0,-39.0,
1982.0,2010.0,12.0,-39.0,
2037.0,2014.0,13.0,-39.0,
2039.0,2003.0,14.0,-40.0,
2057.0,2021.0,14.0,-40.0,
2087.0,2018.0,15.0,-40.0,
1990.0,2002.0,15.0,-40.0,
1991.0,2033.0,15.0,-39.0,
2024.0,2100.0,16.0,-39.0,
2048.0,2052.0,16.0,-39.0,
2002.0,1922.0,16.0,-39.0,
2030.0,1971.0,16.0,-39.0,
2045.0,2064.0,16.0,-40.0,
2061.0,1956.0,15.0,-40.0,
2012.0,1783.0,15.0,-40.0,
2005.0,1476.0,14.0,-40.0,
2002.0,1848.0,14.0,-40.0,
2063.0,2341.0,13.0,-41.0,
2079.0,3039.0,13.0,-41.0,
2046.0,2271.0,12.0,-41.0,
2059.0,2049.0,12.0,-41.0,
2060.0,2016.0,11.0,-41.0,
2067.0,1796.0,11.0,-41.0,
2049.0,1696.0,10.0,-40.0,
2016.0,2042.0,10.0,-40.0,
1987.0,2059.0,10.0,-41.0,
2026.0,2405.0,10.0,-41.0,
2069.0,1989.0,9.0,-41.0,
2022.0,1898.0,9.0,-41.0,
2020.0,1851.0,9.0,-41.0,
2002.0,1900.0,9.0,-41.0,
2039.0,2092.0,9.0,-41.0,
2079.0,2000.0,9.0,-41.0,
1967.0,1946.0,9.0,-41.0,
1982.0,1958.0,9.0,-41.0,
2007.0,1965.0,9.0,-41.0,
2003.0,2022.0,10.0,-41.0,
2013.0,2030.0,10.0,-41.0,
2024.0,2020.0,11.0,-41.0,
2019.0,1997.0,11.0,-41.0,
2033.0,2035.0,12.0,-41.0,
2055.0,2057.0,13.0,-41.0,
2019.0,1947.0,13.0,-42.0,
1956.0,1911.0,14.0,-42.0,
2026.0,2046.0,15.0,-42.0,
2021.0,2406.0,15.0,-42.0,
2084.0,1940.0,16.0,-42.0,
2021.0,1882.0,17.0,-42.0,
1950.0,2081.0,17.0,-42.0,
2000.0,2216.0,18.0,-42.0,
1985.0,2061.0,18.0,-42.0,
1996.0,1981.0,19.0,-42.0,
1995.0,2146.0,19.0,-42.0,
1995.0,1919.0,20.0,-42.0,
1994.0,1930.0,20.0,-42.0,
2017.0,2126.0,21.0,-42.0,
2026.0,2100.0,21.0,-42.0,
2046.0,1985.0,22.0,-42.0,
2024.0,2043.0,22.0,-42.0,
2030.0,2023.0,23.0,-41.0,
2026.0,2017.0,23.0,-41.0,
2011.0,1999.0,23.0,-41.0,
2041.0,2002.0,23.0,-41.0,
2056.0,2008.0,23.0,-41.0,
2063.0,1999.0,23.0,-41.0,
2056.0,2000.0,23.0,-41.0,
2049.0,2020.0,23.0,-41.0,
2050.0,2039.0,22.0,-41.0,
2043.0,1998.0,22.0,-41.0,
2031.0,2016.0,22.0,-41.0,
2040.0,2030.0,22.0,-41.0,
2048.0,2024.0,22.0,-41.0,
2085.0,2041.0,22.0,-41.0,
2071.0,2018.0,21.0,-41.0,
2044.0,2024.0,21.0,-41.0,
2036.0,2025.0,21.0,-41.0,
2014.0,2024.0,21.0,-41.0,
2044.0,2034.0,21.0,-42.0,
2110.0,2065.0,21.0,-42.0,
1986.0,2037.0,21.0,-42.0,
1943.0,2080.0,21.0,-42.0,
1905.0,2043.0,20.0,-42.0,
1952.0,1954.0,20.0,-42.0,
1959.0,1952.0,20.0,-41.0,
1999.0,1983.0,20.0,-41.0,
1988.0,2199.0,20.0,-40.0,
1981.0,2065.0,20.0,-40.0,
2040.0,1946.0,21.0,-39.0,
2040.0,2046.0,21.0,-39.0,
2067.0,1893.0,21.0,-38.0,
2025.0,1976.0,21.0,-38.0,
2026.0,1999.0,21.0,-37.0,
2044.0,2029.0,22.0,-37.0,
2043.0,1997.0,22.0,-36.0,
2029.0,1998.0,22.0,-36.0,
2012.0,2028.0,23.0,-35.0,
2009.0,2085.0,23.0,-35.0,
2014.0,1970.0,23.0,-35.0,
2038.0,1946.0,24.0,-35.0,
2056.0,2155.0,24.0,-34.0,
2038.0,2098.0,24.0,-34.0,
2050.0,2072.0,24.0,-34.0,
2030.0,2036.0,24.0,-34.0,
2014.0,2054.0,23.0,-34.0,
2021.0,2036.0,23.0,-34.0,
2028.0,1981.0,23.0,-34.0,
2037.0,2004.0,23.0,-33.0,
2060.0,2015.0,22.0,-33.0,
2019.0,2051.0,22.0,-33.0,
2010.0,1998.0,22.0,-33.0,
2033.0,1991.0,21.0,-34.0,
1998.0,1959.0,21.0,-34.0,
2008.0,2188.0,20.0,-34.0,
2022.0,2036.0,20.0,-34.0,
2026.0,1955.0,19.0,-34.0,
2006.0,1987.0,19.0,-34.0,
2020.0,1965.0,18.0,-34.0,
2054.0,2085.0,18.0,-34.0,
2067.0,2014.0,17.0,-34.0,
2056.0,1953.0,17.0,-33.0,
2081.0,1818.0,17.0,-33.0,
2113.0,1794.0,16.0,-32.0,
1997.0,2304.0,16.0,-31.0,
1965.0,2613.0,15.0,-31.0,
1998.0,2189.0,15.0,-30.0,
1941.0,1754.0,15.0,-30.0,
2012.0,1811.0,14.0,-29.0,
2011.0,2147.0,14.0,-28.0,
1983.0,2041.0,14.0,-27.0,
1949.0,1977.0,14.0,-26.0,
1992.0,2016.0,15.0,-25.0,
2002.0,1871.0,15.0,-25.0,
2039.0,1971.0,15.0,-24.0,
2037.0,2308.0,16.0,-23.0,
2092.0,2265.0,16.0,-22.0,
2042.0,1965.0,16.0,-22.0,
2002.0,2042.0,17.0,-21.0,
2036.0,2007.0,17.0,-20.0,
2014.0,1939.0,18.0,-20.0,
2014.0,1860.0,18.0,-20.0,
1997.0,1798.0,18.0,-20.0,
2017.0,2036.0,18.0,-20.0,
2039.0,2021.0,19.0,-21.0,
2043.0,2138.0,19.0,-21.0,
2055.0,2077.0,19.0,-21.0,
2056.0,2033.0,20.0,-22.0,
2027.0,2037.0,20.0,-22.0,
2010.0,2017.0,19.0,-23.0,
2025.0,2028.0,19.0,-24.0,
2026.0,2028.0,19.0,-25.0,
2025.0,2031.0,19.0,-25.0,
2041.0,2042.0,19.0,-26.0,
2044.0,2021.0,19.0,-26.0,
2052.0,2026.0,18.0,-26.0,
2036.0,2037.0,18.0,-26.0,
2032.0,2036.0,18.0,-27.0,
2022.0,2035.0,17.0,-27.0,
2017.0,2035.0,17.0,-27.0,
2019.0,2036.0,17.0,-27.0,
2020.0,2027.0,16.0,-27.0,
2032.0,2037.0,15.0,-27.0,
2061.0,2023.0,15.0,-27.0,
2061.0,2022.0,14.0,-27.0,
2052.0,2018.0,14.0,-27.0,
2047.0,2027.0,13.0,-27.0,
2049.0,2042.0,13.0,-27.0,
1998.0,2011.0,13.0,-27.0,
1992.0,2015.0,12.0,-27.0,
1998.0,2021.0,12.0,-28.0,
2005.0,2027.0,12.0,-28.0,
2011.0,1981.0,12.0,-28.0,
2039.0,2134.0,12.0,-28.0,
2041.0,2170.0,11.0,-28.0,
2079.0,1949.0,11.0,-28.0,
2082.0,1833.0,10.0,-28.0,
1970.0,2099.0,10.0,-28.0,
2023.0,2358.0,9.0,-27.0,
2072.0,2027.0,9.0,-27.0,
2024.0,1670.0,9.0,-27.0,
1986.0,1908.0,9.0,-26.0,
1974.0,1998.0,9.0,-26.0,
1973.0,1959.0,9.0,-26.0,
2042.0,1773.0,9.0,-26.0,
2019.0,2303.0,10.0,-25.0,
1992.0,2098.0,10.0,-25.0,
2019.0,2031.0,11.0,-25.0,
2021.0,2014.0,11.0,-24.0,
2052.0,2023.0,12.0,-24.0,
2031.0,2022.0,13.0,-23.0,
2042.0,1981.0,14.0,-23.0,
2046.0,2101.0,15.0,-23.0,
2046.0,2068.0,16.0,-23.0,
2024.0,2033.0,17.0,-22.0,
1988.0,2108.0,18.0,-22.0,
2005.0,1935.0,18.0,-22.0,
2033.0,1850.0,19.0,-22.0,
1979.0,1920.0,20.0,-22.0,
2000.0,2296.0,21.0,-23.0,
2036.0,2129.0,22.0,-23.0,
2033.0,2056.0,22.0,-23.0,
2014.0,2037.0,23.0,-23.0,
2019.0,1988.0,23.0,-23.0,
2043.0,1952.0,24.0,-23.0,
2036.0,1992.0,24.0,-24.0,
2031.0,2102.0,24.0,-24.0,
2019.0,1935.0,24.0,-24.0,
2027.0,2020.0,24.0,-24.0,
2056.0,1963.0,24.0,-24.0,
2028.0,1948.0,24.0,-24.0,
2013.0,2006.0,24.0,-24.0,
2024.0,2063.0,24.0,-24.0,
2000.0,1998.0,24.0,-24.0,
2019.0,2000.0,24.0,-24.0,
2022.0,2168.0,23.0,-24.0,
2052.0,1984.0,23.0,-24.0,
2042.0,1636.0,23.0,-24.0,
2020.0,1782.0,23.0,-24.0,
2059.0,2587.0,22.0,-24.0,
2083.0,2400.0,22.0,-24.0,
2076.0,2082.0,21.0,-24.0,
2132.0,2083.0,21.0,-24.0,
2128.0,1972.0,20.0,-24.0,
2074.0,2000.0,20.0,-24.0,
2073.0,1937.0,19.0,-23.0,
1958.0,1809.0,19.0,-23.0,
1858.0,1836.0,18.0,-23.0,
1957.0,2335.0,18.0,-23.0,
1980.0,2188.0,18.0,-23.0,
1966.0,2023.0,18.0,-22.0,
2015.0,2023.0,17.0,-22.0,
2076.0,2079.0,17.0,-22.0,
2097.0,2002.0,17.0,-21.0,
2098.0,1734.0,17.0,-21.0,
2190.0,2035.0,17.0,-21.0,
2137.0,2165.0,16.0,-20.0,
2037.0,1903.0,16.0,-20.0,
2027.0,1870.0,16.0,-20.0,
1965.0,2083.0,16.0,-20.0,
1817.0,1975.0,16.0,-20.0,
1841.0,2024.0,16.0,-20.0,
1894.0,2165.0,16.0,-20.0,
1957.0,1945.0,16.0,-20.0,
1981.0,1931.0,16.0,-20.0,
2004.0,2130.0,17.0,-20.0,
2033.0,2050.0,17.0,-20.0,
2007.0,2024.0,17.0,-20.0,
2013.0,2072.0,18.0,-19.0,
2062.0,2089.0,18.0,-19.0,
2019.0,2131.0,19.0,-19.0,
2060.0,2097.0,19.0,-18.0,
2055.0,1872.0,19.0,-18.0,
2047.0,1898.0,20.0,-18.0,
2091.0,1990.0,20.0,-18.0,
2057.0,1960.0,20.0,-18.0,
2045.0,1958.0,20.0,-17.0,
2053.0,2138.0,21.0,-17.0,
2046.0,2167.0,21.0,-17.0,
2071.0,2127.0,21.0,-17.0,
2075.0,2110.0,21.0,-17.0,
2078.0,1970.0,21.0,-17.0,
2114.0,1894.0,21.0,-16.0,
2041.0,1936.0,21.0,-16.0,
1970.0,1968.0,21.0,-16.0,
2071.0,1897.0,21.0,-16.0,
2009.0,1817.0,21.0,-15.0,
1993.0,2097.0,21.0,-15.0,
2017.0,2195.0,21.0,-15.0,
2038.0,2165.0,21.0,-15.0,
2006.0,1998.0,21.0,-15.0,
2006.0,2066.0,21.0,-15.0,
2011.0,2009.0,21.0,-15.0,
2013.0,2023.0,21.0,-15.0,
2025.0,2085.0,21.0,-15.0,
2026.0,2072.0,21.0,-15.0,
2030.0,2016.0,22.0,-15.0,
2091.0,1906.0,22.0,-15.0,
2129.0,1993.0,22.0,-15.0,
2191.0,2230.0,22.0,-15.0,
2246.0,2118.0,22.0,-15.0,
2166.0,2053.0,23.0,-15.0,
2104.0,1990.0,23.0,-15.0,
2022.0,2031.0,23.0,-15.0,
1863.0,1900.0,23.0,-16.0,
1847.0,1872.0,23.0,-16.0,
1910.0,2003.0,23.0,-16.0,
1898.0,2043.0,23.0,-15.0,
1927.0,2082.0,23.0,-15.0,
1951.0,2033.0,24.0,-15.0,
1908.0,2124.0,24.0,-14.0,
1911.0,2120.0,24.0,-14.0,
1903.0,2007.0,25.0,-14.0,
1963.0,1922.0,0,
1977.0,1981.0,25.0,-13.0,
1948.0,2047.0,25.0,-13.0,
2004.0,1948.0,25.0,-13.0,
1981.0,2004.0,26.0,-13.0,
2018.0,1884.0,26.0,-13.0,
1997.0,1975.0,26.0,-13.0,
2054.0,2090.0,26.0,-13.0,
2033.0,2168.0,26.0,-13.0,
2086.0,2002.0,26.0,-13.0,
2089.0,2000.0,26.0,-13.0,
2060.0,2029.0,26.0,-13.0,
2066.0,1893.0,26.0,-13.0,
2076.0,2338.0,26.0,-13.0,
2077.0,2228.0,26.0,-13.0,
2047.0,1923.0,25.0,-13.0,
2090.0,1858.0,25.0,-13.0,
2099.0,2021.0,25.0,-13.0,
2069.0,1991.0,24.0,-13.0,
2057.0,1832.0,24.0,-13.0,
2057.0,1643.0,23.0,-13.0,
2092.0,2026.0,23.0,-13.0,
2123.0,2351.0,23.0,-13.0,
2084.0,2318.0,22.0,-13.0,
2039.0,2127.0,22.0,-14.0,
2053.0,2009.0,21.0,-14.0,
2062.0,1965.0,21.0,-14.0,
2075.0,1985.0,20.0,-14.0,
1999.0,1970.0,20.0,-15.0,
2033.0,1995.0,19.0,-15.0,
2024.0,1977.0,19.0,-15.0,
2034.0,1967.0,19.0,-15.0,
2131.0,2111.0,18.0,-15.0,
1976.0,2034.0,18.0,-15.0,
1961.0,2020.0,18.0,-15.0,
2054.0,2026.0,17.0,-16.0,
2128.0,1958.0,17.0,-15.0,
2260.0,1974.0,18.0,-15.0,
2197.0,2040.0,18.0,-15.0,
2198.0,2051.0,18.0,-15.0,
1971.0,1873.0,18.0,-15.0,
1879.0,1913.0,18.0,-14.0,
1710.0,1940.0,19.0,-14.0,
1620.0,2042.0,19.0,-14.0,
1623.0,1956.0,19.0,-13.0,
1624.0,2018.0,20.0,-13.0,
1832.0,2272.0,20.0,-12.0,
1922.0,2117.0,20.0,-12.0,
1982.0,1814.0,21.0,-12.0,
2034.0,1846.0,21.0,-11.0,
2068.0,2159.0,21.0,-11.0,
2100.0,2144.0,21.0,-11.0,
2084.0,2249.0,21.0,-11.0,
2099.0,2066.0,20.0,-11.0,
2123.0,2231.0,20.0,-10.0,
2094.0,2096.0,19.0,-11.0,
2096.0,1975.0,19.0,-11.0,
2128.0,1807.0,18.0,-11.0,
2106.0,1851.0,18.0,-11.0,
2087.0,2068.0,17.0,-11.0,
2085.0,2278.0,17.0,-12.0,
2056.0,2192.0,16.0,-12.0,
2074.0,2091.0,16.0,-13.0,
2066.0,1900.0,15.0,-13.0,
2069.0,1703.0,15.0,-14.0,
2064.0,1828.0,14.0,-15.0,
2057.0,1909.0,14.0,-15.0,
2070.0,2174.0,13.0,-16.0,
2040.0,2200.0,13.0,-16.0,
2046.0,2294.0,12.0,-16.0,
2037.0,2213.0,12.0,-17.0,
2036.0,1855.0,11.0,-17.0,
2105.0,1954.0,10.0,-17.0,
2096.0,1725.0,10.0,-18.0,
2107.0,1922.0,9.0,-18.0,
2117.0,2127.0,9.0,-18.0,
2073.0,1995.0,8.0,-19.0,
2055.0,2089.0,8.0,-20.0,
2054.0,1992.0,7.0,-20.0,
1967.0,1976.0,7.0,-21.0,
1976.0,2210.0,6.0,-21.0,
1978.0,2021.0,6.0,-21.0,
1896.0,1983.0,6.0,-22.0,
1983.0,1955.0,6.0,-22.0,
2049.0,1901.0,6.0,-22.0,
2081.0,1964.0,6.0,-22.0,
2092.0,1990.0,6.0,-22.0,
2088.0,2130.0,7.0,-23.0,
2111.0,2086.0,7.0,-23.0,
2007.0,2020.0,7.0,-23.0,
1847.0,2010.0,7.0,-22.0,
1851.0,1867.0,8.0,-22.0,
1692.0,1882.0,8.0,-21.0,
1782.0,1971.0,9.0,-20.0,
1845.0,2032.0,9.0,-19.0,
1796.0,2063.0,10.0,-19.0,
1922.0,2023.0,10.0,-19.0,
1939.0,1914.0,9.0,-18.0,
2049.0,1690.0,9.0,-18.0,
2085.0,1960.0,9.0,-17.0,
2166.0,2328.0,9.0,-16.0,
2127.0,2528.0,9.0,-16.0,
2126.0,2188.0,9.0,-16.0,
2141.0,2139.0,8.0,-16.0,
2164.0,1982.0,8.0,-16.0,
2079.0,2016.0,8.0,-16.0,
2112.0,2054.0,7.0,-15.0,
2088.0,2020.0,7.0,-15.0,
2062.0,1941.0,7.0,-15.0,
2108.0,1990.0,7.0,-15.0,
2099.0,1966.0,7.0,-16.0,
2091.0,1992.0,7.0,-16.0,
2077.0,1977.0,6.0,-16.0,
2055.0,2098.0,6.0,-17.0,
2044.0,1969.0,6.0,-17.0,
2081.0,2002.0,6.0,-17.0,
2071.0,2032.0,6.0,-17.0,
2085.0,2033.0,6.0,-17.0,
2098.0,2032.0,6.0,-18.0,
2065.0,2002.0,6.0,-18.0,
2099.0,1972.0,6.0,-19.0,
2089.0,1962.0,6.0,-19.0,
2111.0,2077.0,6.0,-20.0,
2169.0,2097.0,6.0,-20.0,
2137.0,2010.0,6.0,-21.0,
2047.0,2096.0,6.0,-21.0,
1972.0,2054.0,6.0,-21.0,
1822.0,1938.0,6.0,-22.0,
1774.0,1954.0,0,
1793.0,1977.0,7.0,-23.0,
1743.0,1934.0,7.0,-23.0,
1755.0,1928.0,8.0,-23.0,
1796.0,2034.0,8.0,-23.0,
1816.0,1992.0,8.0,-24.0,
1914.0,2046.0,9.0,-24.0,
1977.0,2074.0,9.0,-24.0,
2004.0,2093.0,9.0,-24.0,
2069.0,2088.0,9.0,-23.0,
2082.0,2042.0,9.0,-23.0,
2115.0,1985.0,9.0,-23.0,
2118.0,1974.0,9.0,-23.0,
2147.0,1983.0,9.0,-23.0,
2144.0,2098.0,8.0,-23.0,
2077.0,2054.0,8.0,-22.0,
2085.0,2052.0,8.0,-22.0,
2110.0,2035.0,7.0,-22.0,
2122.0,1992.0,7.0,-22.0,
2080.0,1995.0,7.0,-22.0,
2104.0,1973.0,6.0,-22.0,
2071.0,1919.0,6.0,-22.0,
2097.0,1982.0,6.0,-22.0,
2052.0,2053.0,6.0,-22.0,
2070.0,2149.0,6.0,-22.0,
2078.0,2017.0,6.0,-22.0,
2033.0,1889.0,6.0,-22.0,
2059.0,1850.0,6.0,-22.0,
2139.0,2307.0,6.0,-22.0,
2011.0,2008.0,6.0,-23.0,
2053.0,2050.0,6.0,-23.0,
2008.0,2097.0,6.0,-23.0,
1965.0,2243.0,6.0,-23.0,
1978.0,2050.0,6.0,-23.0,
1994.0,1993.0,7.0,-23.0,
2017.0,1991.0,7.0,-24.0,
2015.0,1972.0,7.0,-24.0,
2043.0,1969.0,7.0,-24.0,
2036.0,1982.0,7.0,-24.0,
1999.0,1987.0,7.0,-24.0,
2015.0,2010.0,7.0,-25.0,
1998.0,2006.0,7.0,-25.0,
1978.0,2000.0,7.0,-25.0,
1964.0,2003.0,7.0,-25.0,
1970.0,1998.0,8.0,-25.0,
1993.0,2011.0,8.0,-25.0,
1982.0,2012.0,8.0,-26.0,
1975.0,2018.0,8.0,-26.0,
1995.0,2024.0,8.0,-26.0,
2011.0,2028.0,8.0,-26.0,
2016.0,2031.0,8.0,-26.0,
1967.0,2027.0,8.0,-26.0,
1976.0,2033.0,8.0,-26.0,
1987.0,2019.0,8.0,-27.0,
2041.0,2018.0,8.0,-27.0,
2059.0,2014.0,8.0,-27.0,
2030.0,2031.0,7.0,-28.0,
2036.0,2035.0,7.0,-28.0,
2046.0,2057.0,7.0,-28.0,
2054.0,2033.0,6.0,-29.0,
2068.0,2040.0,6.0,-29.0,
2058.0,2030.0,5.0,-29.0,
2050.0,2069.0,5.0,-29.0,
2056.0,2094.0,4.0,-30.0,
2029.0,2074.0,4.0,-30.0,
2015.0,2079.0,3.0,-30.0,
2001.0,1933.0,2.0,-30.0,
2024.0,1943.0,2.0,-30.0,
2034.0,1953.0,1.0,-31.0,
2044.0,2020.0,0.0,-31.0,
2049.0,2035.0,0.0,-31.0,
2094.0,2022.0,0.0,-31.0,
2145.0,2038.0,-1.0,-31.0,
2125.0,1979.0,-1.0,-32.0,
2027.0,1958.0,-2.0,-32.0,
1957.0,1921.0,-3.0,-32.0,
1937.0,1930.0,-3.0,-32.0,
1993.0,2032.0,-4.0,-32.0,
1950.0,2198.0,-4.0,-32.0,
1947.0,2218.0,-5.0,-32.0,
2066.0,2341.0,-5.0,-32.0,
2051.0,2111.0,-6.0,-32.0,
2012.0,1871.0,-7.0,-32.0,
2049.0,1960.0,-7.0,-32.0,
2052.0,1909.0,-8.0,-32.0,
2072.0,2016.0,-9.0,-31.0,
2027.0,1997.0,-9.0,-31.0,
2024.0,2015.0,-10.0,-31.0,
2022.0,2046.0,-10.0,-30.0,
1969.0,1890.0,-10.0,-30.0,
1994.0,1934.0,-11.0,-29.0,
1944.0,1811.0,-11.0,-29.0,
2005.0,2055.0,-11.0,-29.0,
2026.0,2324.0,-11.0,-28.0,
2114.0,2408.0,-10.0,-28.0,
2020.0,1997.0,-10.0,-28.0,
2026.0,1938.0,-10.0,-28.0,
2039.0,1996.0,-10.0,-28.0,
2082.0,1903.0,-10.0,-28.0,
2089.0,1999.0,-10.0,-28.0,
2060.0,2026.0,-10.0,-28.0,
2076.0,2007.0,-10.0,-28.0,
2081.0,2043.0,-10.0,-28.0,
2036.0,2064.0,-9.0,-28.0,
2042.0,2016.0,-9.0,-28.0,
1938.0,1947.0,-8.0,-28.0,
1971.0,1965.0,-7.0,-28.0,
1983.0,1984.0,-6.0,-28.0,
1986.0,2005.0,-6.0,-29.0,
1969.0,2003.0,-5.0,-29.0,
1963.0,2034.0,-4.0,-29.0,
1984.0,2024.0,-3.0,-30.0,
1998.0,2033.0,-2.0,-30.0,
2052.0,1996.0,-2.0,-30.0,
2063.0,1992.0,-1.0,-31.0,
2103.0,2033.0,-1.0,-31.0,
2056.0,2228.0,-1.0,-31.0,
1987.0,2126.0,-1.0,-31.0,
1981.0,2041.0,-1.0,-31.0,
1977.0,1877.0,-1.0,-31.0,
1974.0,1891.0,-1.0,-32.0,
2017.0,2177.0,-2.0,-32.0,
2040.0,2076.0,-3.0,-32.0,
2131.0,2248.0,-4.0,-32.0,
2062.0,1924.0,-5.0,-32.0,
2032.0,1857.0,-6.0,-32.0,
2063.0,1793.0,-7.0,-32.0,
2055.0,1760.0,-9.0,-31.0,
2051.0,2337.0,-10.0,-31.0,
2032.0,2067.0,-11.0,-31.0,
2067.0,2226.0,-12.0,-31.0,
2068.0,1979.0,-13.0,-31.0,
2075.0,1989.0,-15.0,-31.0,
2037.0,1981.0,-16.0,-31.0,
1984.0,1994.0,-17.0,-31.0,
2023.0,2174.0,-18.0,-31.0,
1986.0,2026.0,-20.0,-31.0,
1979.0,2054.0,-21.0,-31.0,
2023.0,1968.0,-22.0,-32.0,
1980.0,1928.0,-23.0,-32.0,
1983.0,1834.0,-24.0,-32.0,
2002.0,2056.0,-25.0,-33.0,
2058.0,2119.0,-25.0,-33.0,
2031.0,2101.0,-25.0,-34.0,
2051.0,2070.0,-26.0,-34.0,
2074.0,2097.0,-26.0,-34.0,
2067.0,2057.0,-26.0,-35.0,
2047.0,2007.0,-26.0,-35.0,
2115.0,2024.0,-26.0,-35.0,
2068.0,1810.0,-25.0,-36.0,
2058.0,2052.0,-25.0,-36.0,
2059.0,2123.0,-25.0,-36.0,
1910.0,2057.0,-24.0,-35.0,
1878.0,2050.0,-24.0,-35.0,
1984.0,2040.0,-23.0,-35.0,
2060.0,1854.0,-22.0,-34.0,
2104.0,1884.0,-21.0,-33.0,
2099.0,2311.0,-19.0,-32.0,
2082.0,2184.0,-18.0,-31.0,
1877.0,1905.0,-16.0,-30.0,
1862.0,2076.0,-15.0,-28.0,
1916.0,1978.0,-13.0,-27.0,
1923.0,1868.0,-12.0,-26.0,
1974.0,1894.0,-10.0,-24.0,
1953.0,2012.0,-9.0,-22.0,
1988.0,2063.0,-8.0,-21.0,
1942.0,1851.0,-6.0,-20.0,
2013.0,2039.0,-5.0,-18.0,
2043.0,2165.0,-5.0,-17.0,
2043.0,2104.0,-4.0,-16.0,
2079.0,1865.0,-3.0,-15.0,
2078.0,1930.0,-3.0,-14.0,
2076.0,2196.0,-3.0,-13.0,
2091.0,2098.0,-2.0,-12.0,
2071.0,2060.0,-2.0,-12.0,
2080.0,2039.0,-2.0,-11.0,
2082.0,2015.0,-3.0,-11.0,
2084.0,2003.0,-3.0,-11.0,
2068.0,1879.0,-3.0,-10.0,
2046.0,2160.0,-4.0,-11.0,
2046.0,2125.0,-4.0,-11.0,
2048.0,2184.0,-4.0,-11.0,
2025.0,2074.0,-5.0,-11.0,
2049.0,1981.0,-5.0,-12.0,
2054.0,2121.0,-6.0,-12.0,
2058.0,2073.0,-6.0,-13.0,
2054.0,2011.0,-7.0,-14.0,
2050.0,2052.0,-7.0,-15.0,
2038.0,2021.0,-8.0,-15.0,
2011.0,2024.0,-8.0,-16.0,
2012.0,1912.0,-9.0,-17.0,
1992.0,2045.0,-10.0,-18.0,
1995.0,2156.0,-11.0,-19.0,
2010.0,2248.0,-11.0,-19.0,
2006.0,2008.0,-12.0,-20.0,
2051.0,1903.0,-13.0,-21.0,
2073.0,1828.0,-13.0,-21.0,
2074.0,1744.0,-14.0,-22.0,
2114.0,1838.0,-14.0,-22.0,
2072.0,1975.0,-15.0,-23.0,
2031.0,2037.0,-15.0,-24.0,
2124.0,2098.0,-15.0,-24.0,
2109.0,1987.0,-16.0,-25.0,
2139.0,1865.0,-16.0,-25.0,
2066.0,2025.0,-16.0,-25.0,
2008.0,2263.0,-16.0,-25.0,
2009.0,2294.0,-16.0,-25.0,
1775.0,2264.0,-15.0,-25.0,
1764.0,2186.0,-15.0,-25.0,
1759.0,1897.0,-14.0,-25.0,
1883.0,1763.0,0,
1955.0,2025.0,-13.0,-24.0,
2002.0,1993.0,-11.0,-24.0,
1994.0,1922.0,-10.0,-23.0,
2004.0,1821.0,-9.0,-23.0,
1979.0,2072.0,-8.0,-22.0,
1992.0,2141.0,-7.0,-22.0,
2102.0,1850.0,-5.0,-21.0,
2072.0,1882.0,-5.0,-20.0,
2156.0,2339.0,-4.0,-20.0,
2074.0,2137.0,-3.0,-20.0,
2082.0,2151.0,-3.0,-19.0,
2044.0,2112.0,-3.0,-19.0,
2047.0,2059.0,-2.0,-19.0,
2078.0,2089.0,-2.0,-19.0,
2010.0,2126.0,-2.0,-18.0,
2089.0,1920.0,-2.0,-18.0,
2130.0,1856.0,-1.0,-18.0,
2185.0,1836.0,-1.0,-18.0,
2039.0,1741.0,-1.0,-18.0,
2027.0,1829.0,0.0,-18.0,
2022.0,2149.0,0.0,-18.0,
1945.0,2248.0,0.0,-19.0,
1986.0,2063.0,0.0,-19.0,
2006.0,2059.0,0.0,-19.0,
2023.0,1948.0,1.0,-19.0,
2026.0,2122.0,1.0,-19.0,
2009.0,1990.0,2.0,-20.0,
2082.0,2021.0,2.0,-20.0,
2090.0,1878.0,3.0,-20.0,
2060.0,1978.0,3.0,-20.0,
2067.0,1836.0,3.0,-20.0,
2040.0,2348.0,3.0,-21.0,
2073.0,2089.0,3.0,-21.0,
2108.0,2327.0,3.0,-22.0,
2049.0,2524.0,3.0,-22.0,
1974.0,2140.0,3.0,-23.0,
2019.0,2080.0,3.0,-23.0,
2002.0,1941.0,3.0,-24.0,
1931.0,1857.0,2.0,-24.0,
1984.0,2242.0,2.0,-24.0,
2165.0,2053.0,2.0,-24.0,
2203.0,2116.0,2.0,-24.0,
2153.0,1960.0,3.0,-24.0,
2200.0,1713.0,3.0,-24.0,
1931.0,1455.0,2.0,-24.0,
1765.0,1320.0,2.0,-24.0,
1774.0,1548.0,2.0,-24.0,
1795.0,1671.0,1.0,-23.0,
1859.0,2111.0,1.0,-23.0,
1913.0,2522.0,1.0,-22.0,
1958.0,2082.0,0.0,-22.0,
1986.0,2466.0,0.0,-22.0,
2061.0,2236.0,0.0,-21.0,
2020.0,1842.0,0.0,-21.0,
2058.0,2506.0,0.0,-20.0,
2095.0,2584.0,0.0,-20.0,
2198.0,2252.0,0.0,-19.0,
2081.0,2026.0,0.0,-19.0,
2073.0,1889.0,0.0,-19.0,
1976.0,1722.0,0.0,-19.0,
2101.0,2374.0,0.0,-19.0,
2157.0,1949.0,-1.0,-19.0,
2089.0,1937.0,-1.0,-19.0,
2005.0,1835.0,-1.0,-18.0,
1966.0,1941.0,-2.0,-18.0,
1978.0,1771.0,-2.0,-18.0,
2036.0,1706.0,-2.0,-18.0,
2170.0,2052.0,-2.0,-18.0,
2115.0,2436.0,-2.0,-18.0,
2038.0,2734.0,-3.0,-18.0,
2069.0,2205.0,-3.0,-18.0,
2034.0,1888.0,-3.0,-18.0,
2033.0,2070.0,-3.0,-18.0,
1992.0,1858.0,-4.0,-19.0,
1958.0,1854.0,-4.0,-19.0,
2003.0,2111.0,-5.0,-20.0,
2022.0,2314.0,-6.0,-21.0,
2125.0,2293.0,-7.0,-21.0,
2114.0,2092.0,-8.0,-22.0,
2061.0,1730.0,-9.0,-23.0,
2052.0,1688.0,-10.0,-24.0,
2021.0,1769.0,-11.0,-25.0,
2007.0,1810.0,-13.0,-26.0,
1945.0,1855.0,-14.0,-27.0,
1948.0,2063.0,-15.0,-28.0,
2039.0,2008.0,-16.0,-28.0,
2025.0,1995.0,-16.0,-29.0,
1979.0,2003.0,-17.0,-30.0,
1977.0,1774.0,-17.0,-30.0,
2003.0,1983.0,-17.0,-30.0,
2048.0,2039.0,-16.0,-31.0,
1997.0,2172.0,-16.0,-31.0,
1989.0,2361.0,-15.0,-30.0,
2039.0,2142.0,-14.0,-30.0,
1966.0,2042.0,-13.0,-30.0,
1990.0,2027.0,-11.0,-30.0,
1996.0,1997.0,-10.0,-29.0,
2026.0,2008.0,-9.0,-28.0,
2066.0,2102.0,-7.0,-28.0,
2046.0,2110.0,-6.0,-27.0,
2045.0,1992.0,-5.0,-27.0,
2023.0,1994.0,-4.0,-26.0,
2037.0,1983.0,-2.0,-26.0,
2006.0,1552.0,-2.0,-25.0,
1971.0,1329.0,-1.0,-25.0,
2026.0,1891.0,0.0,-24.0,
2088.0,3043.0,0.0,-24.0,
2084.0,2569.0,0.0,-23.0,
2068.0,2224.0,0.0,-23.0,
2027.0,2176.0,1.0,-23.0,
2031.0,2028.0,1.0,-23.0,
2056.0,2021.0,0.0,-22.0,
2017.0,2009.0,0.0,-22.0,
2002.0,1784.0,0.0,-22.0,
2025.0,2066.0,0.0,-22.0,
2042.0,1922.0,0.0,-22.0,
2045.0,1890.0,0.0,-21.0,
2056.0,1840.0,0.0,-21.0,
2116.0,1926.0,0.0,-21.0,
2118.0,1914.0,0.0,-21.0,
2109.0,1989.0,-1.0,-21.0,
2099.0,1991.0,-1.0,-21.0,
2076.0,1968.0,-1.0,-21.0,
2021.0,1984.0,-2.0,-20.0,
2026.0,2193.0,-2.0,-20.0,
1895.0,2061.0,-2.0,-20.0,
1912.0,2075.0,-2.0,-20.0,
2030.0,2042.0,-3.0,-20.0,
2097.0,2099.0,-3.0,-19.0,
1735.0,2009.0,-4.0,-19.0,
1781.0,1878.0,-4.0,-18.0,
1890.0,1986.0,-5.0,-18.0,
1936.0,2155.0,-5.0,-17.0,
1915.0,1876.0,-6.0,-17.0,
2005.0,1666.0,-7.0,-16.0,
2153.0,2708.0,-7.0,-16.0,
1983.0,2066.0,-8.0,-15.0,
2014.0,2013.0,-9.0,-15.0,
2042.0,2054.0,-10.0,-15.0,
2096.0,2080.0,-11.0,-14.0,
2114.0,1999.0,-11.0,-14.0,
2025.0,1969.0,-11.0,-14.0,
2047.0,2008.0,-11.0,-14.0,
2090.0,2032.0,-11.0,-14.0,
2032.0,2064.0,-11.0,-14.0,
2064.0,1995.0,-10.0,-14.0,
2048.0,1930.0,-9.0,-14.0,
2122.0,1897.0,-8.0,-14.0,
2103.0,1989.0,-7.0,-13.0,
1990.0,2146.0,-6.0,-13.0,
2012.0,2001.0,-5.0,-13.0,
2015.0,1860.0,-4.0,-13.0,
2065.0,2110.0,-3.0,-12.0,
2047.0,2008.0,-2.0,-12.0,
2018.0,2225.0,-1.0,-12.0,
2047.0,2159.0,-1.0,-11.0,
2004.0,2120.0,0.0,-11.0,
2017.0,2081.0,0.0,-11.0,
1998.0,2020.0,1.0,-11.0,
2030.0,2058.0,1.0,-11.0,
2047.0,1909.0,2.0,-11.0,
2048.0,1849.0,2.0,-10.0,
2088.0,2052.0,2.0,-10.0,
2081.0,2129.0,2.0,-10.0,
2049.0,2083.0,2.0,-10.0,
2016.0,1963.0,3.0,-10.0,
1999.0,1869.0,3.0,-10.0,
1996.0,1426.0,3.0,-10.0,
1998.0,1903.0,3.0,-10.0,
2025.0,2668.0,3.0,-10.0,
2014.0,2770.0,3.0,-10.0,
2020.0,1955.0,3.0,-10.0,
1987.0,1913.0,2.0,-11.0,
1996.0,2159.0,1.0,-11.0,
2069.0,1992.0,0.0,-11.0,
2022.0,1792.0,0.0,-11.0,
2035.0,1896.0,-1.0,-10.0,
2057.0,2115.0,-3.0,-10.0,
2060.0,1926.0,-4.0,-10.0,
2011.0,2023.0,-5.0,-10.0,
1992.0,2110.0,-5.0,-10.0,
2007.0,1951.0,-6.0,-10.0,
2001.0,1815.0,-6.0,-9.0,
2031.0,1817.0,-6.0,-10.0,
2034.0,2003.0,-5.0,-10.0,
2021.0,2087.0,-5.0,-10.0,
1972.0,2030.0,-5.0,-10.0,
2009.0,2130.0,-4.0,-10.0,
2101.0,2204.0,-4.0,-10.0,
2075.0,2023.0,-4.0,-10.0,
1995.0,2094.0,-4.0,-10.0,
1971.0,1935.0,-4.0,-10.0,
2017.0,1871.0,-4.0,-10.0,
1996.0,1930.0,-4.0,-10.0,
2069.0,2058.0,-4.0,-10.0,
2016.0,2002.0,-3.0,-10.0,
2050.0,2148.0,-3.0,-10.0,
1990.0,1823.0,-2.0,-11.0,
1989.0,1940.0,-1.0,-12.0,
2061.0,2269.0,-1.0,-12.0,
2057.0,2440.0,0.0,-13.0,
1981.0,2053.0,0.0,-13.0,
2008.0,1939.0,1.0,-13.0,
2044.0,1724.0,2.0,-14.0,
2050.0,1906.0,3.0,-14.0,
2035.0,2052.0,4.0,-14.0,
2138.0,2431.0,4.0,-14.0,
2081.0,1772.0,5.0,-14.0,
1974.0,2018.0,5.0,-14.0,
2014.0,2277.0,4.0,-15.0,
2030.0,2034.0,4.0,-15.0,
2000.0,1925.0,3.0,-16.0,
1967.0,1984.0,3.0,-16.0,
2008.0,2137.0,2.0,-17.0,
2027.0,2063.0,1.0,-17.0,
2031.0,1896.0,1.0,-17.0,
1992.0,1967.0,0.0,-17.0,
2005.0,2070.0,0.0,-18.0,
2019.0,1988.0,0.0,-18.0,
2035.0,1902.0,-1.0,-18.0,
2037.0,2016.0,-2.0,-18.0,
2029.0,2151.0,-2.0,-18.0,
2035.0,2028.0,-3.0,-18.0,
2053.0,1995.0,-4.0,-18.0,
2049.0,2066.0,-5.0,-18.0,
2063.0,2084.0,-5.0,-19.0,
2093.0,2058.0,-6.0,-19.0,
2020.0,1777.0,-7.0,-19.0,
1971.0,1862.0,-7.0,-19.0,
1939.0,1947.0,-8.0,-19.0,
1977.0,2053.0,-8.0,-19.0,
2001.0,2282.0,-8.0,-19.0,
2014.0,2119.0,-8.0,-19.0,
2056.0,2267.0,-8.0,-19.0,
2030.0,1987.0,-8.0,-19.0,
2034.0,1992.0,-8.0,-19.0,
2019.0,2058.0,-7.0,-19.0,
2025.0,2147.0,-7.0,-18.0,
2010.0,1978.0,-7.0,-18.0,
2011.0,2038.0,-7.0,-18.0,
2052.0,1923.0,-6.0,-18.0,
2046.0,1949.0,-6.0,-18.0,
2108.0,2034.0,-6.0,-18.0,
2051.0,2108.0,-6.0,-18.0,
2049.0,2066.0,-6.0,-17.0,
1980.0,2044.0,-6.0,-17.0,
1980.0,2090.0,-6.0,-17.0,
2067.0,1879.0,-6.0,-17.0,
2000.0,2000.0,-6.0,-17.0,
1997.0,1865.0,-5.0,-17.0,
1969.0,1974.0,-5.0,-17.0,
2002.0,2218.0,-5.0,-17.0,
2013.0,2048.0,-5.0,-17.0,
2049.0,1888.0,-5.0,-17.0,
1986.0,1844.0,-5.0,-17.0,
2095.0,1930.0,-5.0,-17.0,
2006.0,2176.0,-5.0,-17.0,
2016.0,2129.0,-5.0,-17.0,
2081.0,2056.0,-5.0,-17.0,
2039.0,2058.0,-5.0,-17.0,
2032.0,2290.0,-5.0,-17.0,
2050.0,1905.0,-5.0,-17.0,
2017.0,1901.0,-5.0,-17.0,
2029.0,2261.0,-6.0,-17.0,
2036.0,2020.0,-6.0,-17.0,
1991.0,2062.0,-6.0,-17.0,
1998.0,2039.0,-6.0,-17.0,
1998.0,1980.0,-6.0,-17.0,
1996.0,1895.0,-6.0,-17.0,
2001.0,1891.0,-6.0,-17.0,
2018.0,2082.0,-6.0,-17.0,
2062.0,2112.0,-6.0,-17.0,
2029.0,1926.0,-7.0,-17.0,
2010.0,2004.0,-7.0,-17.0,
1980.0,2180.0,-7.0,-17.0,
2013.0,2258.0,-7.0,-17.0,
2059.0,2108.0,-7.0,-17.0,
2006.0,1710.0,-7.0,-17.0,
2050.0,1778.0,-8.0,-17.0,
2053.0,1980.0,-8.0,-17.0,
2026.0,1964.0,-8.0,-18.0,
2024.0,1952.0,-8.0,-18.0,
1977.0,1864.0,-8.0,-18.0,
1958.0,2033.0,-8.0,-18.0,
1972.0,2066.0,-9.0,-18.0,
2010.0,2198.0,-9.0,-18.0,
2034.0,1912.0,-9.0,-18.0,
2012.0,1981.0,-9.0,-18.0,
2073.0,2434.0,-9.0,-18.0,
2143.0,2289.0,-9.0,-18.0,
2162.0,2179.0,-9.0,-18.0,
2126.0,1855.0,-9.0,-18.0,
2052.0,1897.0,-9.0,-18.0,
2068.0,2080.0,-8.0,-18.0,
1997.0,2313.0,-8.0,-18.0,
1914.0,2146.0,-8.0,-18.0,
2006.0,1946.0,-8.0,-18.0,
2042.0,1843.0,-8.0,-18.0,
2027.0,1799.0,-7.0,-18.0,
1982.0,1966.0,-7.0,-18.0,
1978.0,1933.0,-7.0,-19.0,
2006.0,2019.0,-6.0,-19.0,
2008.0,2344.0,-6.0,-19.0,
2007.0,2113.0,-5.0,-19.0,
2060.0,1964.0,-4.0,-19.0,
1998.0,1852.0,-3.0,-19.0,
2046.0,1957.0,-2.0,-19.0,
2028.0,1906.0,-1.0,-19.0,
2048.0,1923.0,-1.0,-18.0,
2034.0,1920.0,0.0,-18.0,
2021.0,2090.0,0.0,-18.0,
1994.0,2162.0,0.0,-17.0,
1977.0,2027.0,1.0,-17.0,
2043.0,2038.0,1.0,-17.0,
2040.0,2048.0,1.0,-17.0,
2044.0,1974.0,1.0,-17.0,
2059.0,2124.0,1.0,-17.0,
2033.0,2088.0,1.0,-17.0,
2018.0,2043.0,1.0,-17.0,
1991.0,2106.0,1.0,-17.0,
1948.0,2164.0,1.0,-17.0,
1993.0,1998.0,1.0,-17.0,
2031.0,1942.0,1.0,-17.0,
2086.0,1927.0,1.0,-17.0,
2040.0,1957.0,0.0,-18.0,
2053.0,1784.0,0.0,-18.0,
2024.0,2086.0,0.0,-18.0,
2047.0,2058.0,0.0,-18.0,
2028.0,1986.0,0.0,-18.0,
2019.0,1997.0,-1.0,-18.0,
2058.0,2046.0,-2.0,-18.0,
2020.0,1773.0,-2.0,-17.0,
2021.0,1939.0,-3.0,-17.0,
2059.0,2152.0,-4.0,-17.0,
2086.0,2384.0,-5.0,-17.0,
2022.0,2350.0,-5.0,-17.0,
2069.0,2061.0,-6.0,-17.0,
2000.0,1717.0,-7.0,-17.0,
2068.0,2016.0,-7.0,-16.0,
2002.0,1948.0,-8.0,-16.0,
2012.0,2021.0,-8.0,-16.0,
2015.0,2025.0,-8.0,-16.0,
2013.0,1894.0,-9.0,-16.0,
2047.0,1907.0,-9.0,-16.0,
2052.0,2312.0,-9.0,-16.0,
2007.0,2116.0,-9.0,-15.0,
2045.0,2010.0,-8.0,-15.0,
2011.0,1986.0,-8.0,-15.0,
2004.0,2066.0,-8.0,-15.0,
1996.0,2090.0,-7.0,-15.0,
2040.0,2113.0,-7.0,-15.0,
2004.0,2009.0,-6.0,-15.0,
2049.0,1885.0,-6.0,-15.0,
2036.0,1956.0,-5.0,-15.0,
2006.0,2073.0,-5.0,-15.0,
2070.0,2003.0,-4.0,-15.0,
1975.0,1854.0,-3.0,-14.0,
2031.0,1846.0,-3.0,-14.0,
1990.0,1988.0,-2.0,-14.0,
2084.0,2243.0,-2.0,-14.0,
2075.0,2047.0,-2.0,-14.0,
2061.0,2018.0,-1.0,-14.0,
1999.0,1968.0,-1.0,-14.0,
2016.0,1912.0,0.0,-14.0,
2000.0,2027.0,0.0,-14.0,
1982.0,2203.0,0.0,-14.0,
1996.0,2280.0,0.0,-14.0,
1962.0,2031.0,0.0,-14.0,
2009.0,1975.0,0.0,-14.0,
2036.0,1727.0,0.0,-14.0,
2058.0,2077.0,0.0,-14.0,
2048.0,2063.0,0.0,-14.0,
2054.0,2382.0,0.0,-14.0,
1980.0,2190.0,0.0,-14.0,
1987.0,1856.0,0.0,-14.0,
2045.0,1796.0,0.0,-14.0,
2030.0,2112.0,0.0,-14.0,
2073.0,2195.0,0.0,-14.0,
2040.0,2140.0,-1.0,-14.0,
2023.0,2020.0,-1.0,-14.0,
2022.0,2069.0,-1.0,-14.0,
2097.0,1999.0,-2.0,-14.0,
2031.0,1869.0,-2.0,-14.0,
2033.0,1898.0,-2.0,-14.0,
2022.0,1892.0,-3.0,-14.0,
1970.0,2089.0,-3.0,-13.0,
2047.0,1931.0,-3.0,-13.0,
2010.0,1927.0,-3.0,-13.0,
2085.0,2156.0,-3.0,-13.0,
2058.0,2029.0,-3.0,-13.0,
2035.0,2063.0,-3.0,-12.0,
2003.0,1916.0,-3.0,-12.0,
1997.0,2032.0,-3.0,-12.0,
2009.0,2071.0,-2.0,-12.0,
2019.0,2071.0,-2.0,-12.0,
2062.0,2025.0,-2.0,-12.0,
2004.0,1887.0,-1.0,-12.0,
2056.0,1942.0,-1.0,-12.0,
1999.0,2047.0,0.0,-12.0,
2019.0,2084.0,0.0,-12.0,
1994.0,1969.0,0.0,-12.0,
1985.0,2195.0,0.0,-12.0,
2023.0,2186.0,0.0,-12.0,
2059.0,2086.0,1.0,-12.0,
2089.0,2160.0,1.0,-12.0,
2006.0,2034.0,1.0,-12.0,
2083.0,1979.0,1.0,-12.0,
2083.0,2003.0,2.0,-12.0,
2020.0,2051.0,2.0,-12.0,
2006.0,2080.0,0,
1980.0,2060.0,2.0,-12.0,
2011.0,2005.0,2.0,-13.0,
1974.0,1988.0,2.0,-13.0,
2034.0,1910.0,2.0,-13.0,
1964.0,1715.0,1.0,-13.0,
2004.0,1707.0,1.0,-13.0,
1962.0,1721.0,1.0,-13.0,
1962.0,2355.0,1.0,-13.0,
1949.0,1747.0,1.0,-14.0,
1968.0,2090.0,1.0,-13.0,
2029.0,2583.0,1.0,-13.0,
2258.0,2518.0,1.0,-12.0,
2105.0,1879.0,1.0,-12.0,
1989.0,2194.0,1.0,-12.0,
2093.0,1945.0,1.0,-13.0,
2075.0,2025.0,1.0,-13.0,
1992.0,1744.0,1.0,-13.0,
2004.0,1909.0,1.0,-13.0,
1945.0,1583.0,1.0,-12.0,
2090.0,2280.0,1.0,-12.0,
2150.0,2275.0,1.0,-12.0,
2176.0,2481.0,2.0,-12.0,
2216.0,2252.0,2.0,-12.0,
2125.0,1920.0,2.0,-11.0,
2000.0,1879.0,2.0,-11.0,
1912.0,1812.0,3.0,-10.0,
1802.0,1851.0,3.0,-10.0,
1800.0,2157.0,3.0,-10.0,
1828.0,2190.0,3.0,-9.0,
1887.0,1998.0,3.0,-9.0,
2020.0,1869.0,4.0,-9.0,
2065.0,1692.0,4.0,-9.0,
2119.0,1997.0,5.0,-9.0,
2016.0,2317.0,5.0,-9.0,
2105.0,2353.0,6.0,-8.0,
2071.0,1876.0,6.0,-8.0,
1829.0,1971.0,7.0,-8.0,
1931.0,2110.0,7.0,-8.0,
1961.0,1908.0,8.0,-8.0,
1975.0,1901.0,9.0,-8.0,
1973.0,1801.0,10.0,-8.0,
2020.0,1966.0,11.0,-8.0,
2037.0,2070.0,11.0,-7.0,
2021.0,2022.0,11.0,-7.0,
1993.0,1786.0,11.0,-7.0,
2013.0,2003.0,11.0,-6.0,
2093.0,2130.0,11.0,-6.0,
2066.0,2133.0,10.0,-6.0,
2114.0,2044.0,10.0,-6.0,
2093.0,2030.0,9.0,-6.0,
2125.0,2264.0,8.0,-6.0,
2114.0,2246.0,6.0,-7.0,
2066.0,2075.0,5.0,-7.0,
2017.0,2076.0,4.0,-8.0,
2057.0,2067.0,3.0,-8.0,
2055.0,2064.0,3.0,-8.0,
2080.0,1925.0,2.0,-9.0,
2057.0,1853.0,1.0,-9.0,
2056.0,1883.0,1.0,-9.0,
2039.0,2194.0,1.0,-9.0,
2069.0,2073.0,1.0,-9.0,
2027.0,1937.0,1.0,-9.0,
2027.0,2032.0,1.0,-10.0,
2077.0,2027.0,2.0,-10.0,
2042.0,2248.0,3.0,-10.0,
2060.0,2015.0,3.0,-10.0,
2076.0,1987.0,4.0,-10.0,
2026.0,1963.0,5.0,-10.0,
1995.0,2042.0,6.0,-11.0,
2012.0,2022.0,7.0,-11.0,
2036.0,2016.0,8.0,-12.0,
2019.0,2055.0,8.0,-12.0,
2014.0,2033.0,9.0,-13.0,
1985.0,1977.0,10.0,-13.0,
2012.0,1945.0,11.0,-13.0,
1998.0,1881.0,11.0,-14.0,
2027.0,2144.0,12.0,-14.0,
2042.0,2236.0,12.0,-14.0,
2041.0,1962.0,13.0,-15.0,
2022.0,2026.0,13.0,-15.0,
2015.0,2135.0,13.0,-15.0,
2009.0,2106.0,14.0,-15.0,
2044.0,1996.0,13.0,-16.0,
1966.0,1942.0,13.0,-16.0,
2003.0,1942.0,13.0,-16.0,
2017.0,1987.0,13.0,-16.0,
2036.0,2077.0,13.0,-16.0,
2025.0,2106.0,13.0,-17.0,
2016.0,2070.0,13.0,-17.0,
2002.0,2037.0,12.0,-17.0,
2017.0,1989.0,12.0,-17.0,
2010.0,2007.0,12.0,-17.0,
2007.0,2008.0,12.0,-18.0,
2028.0,2034.0,12.0,-18.0,
2054.0,1941.0,11.0,-18.0,
2044.0,2086.0,11.0,-18.0,
2045.0,2071.0,11.0,-18.0,
2031.0,1978.0,10.0,-18.0,
2024.0,1857.0,10.0,-18.0,
2044.0,1734.0,9.0,-19.0,
2059.0,1909.0,9.0,-19.0,
2022.0,2094.0,8.0,-19.0,
2049.0,2259.0,7.0,-19.0,
2089.0,2247.0,7.0,-20.0,
2056.0,2179.0,6.0,-20.0,
2027.0,2212.0,5.0,-20.0,
1965.0,2078.0,5.0,-21.0,
1869.0,2051.0,5.0,-21.0,
1948.0,2018.0,5.0,-21.0,
2013.0,1884.0,4.0,-22.0,
2048.0,1856.0,4.0,-22.0,
2071.0,2002.0,3.0,-23.0,
2094.0,1869.0,3.0,-23.0,
2113.0,1894.0,1.0,-23.0,
2092.0,2016.0,1.0,-23.0,
2055.0,2227.0,0.0,-23.0,
2044.0,2392.0,0.0,-23.0,
1962.0,1799.0,-1.0,-23.0,
2059.0,2080.0,0,
1996.0,2060.0,-2.0,-23.0,
1956.0,1950.0,-2.0,-23.0,
2034.0,1983.0,-3.0,-23.0,
2038.0,1985.0,-4.0,-23.0,
2027.0,2022.0,-5.0,-23.0,
2025.0,1971.0,-5.0,-23.0,
2030.0,2012.0,-6.0,-22.0,
2027.0,2120.0,-7.0,-22.0,
2038.0,1976.0,-7.0,-22.0,
1993.0,1825.0,-8.0,-21.0,
2015.0,1760.0,-9.0,-21.0,
2050.0,1785.0,-9.0,-20.0,
2087.0,2582.0,-10.0,-20.0,
2071.0,2220.0,-10.0,-20.0,
2040.0,2186.0,-10.0,-19.0,
1958.0,1981.0,-10.0,-19.0,
1989.0,2085.0,-10.0,-19.0,
2061.0,1953.0,-9.0,-19.0,
2176.0,1954.0,-9.0,-18.0,
2140.0,1947.0,-9.0,-18.0,
2127.0,2091.0,-8.0,-18.0,
2017.0,2020.0,-8.0,-17.0,
1855.0,2000.0,-7.0,-18.0,
1874.0,2027.0,-6.0,-19.0,
1919.0,2026.0,-6.0,-19.0,
1983.0,2039.0,-6.0,-19.0,
1991.0,1953.0,-5.0,-19.0,
2016.0,1859.0,-5.0,-19.0,
2059.0,2056.0,-5.0,-19.0,
2048.0,2097.0,-4.0,-20.0,
2035.0,1953.0,-4.0,-20.0,
2024.0,2036.0,-3.0,-21.0,
2053.0,2193.0,-3.0,-21.0,
1961.0,1930.0,-3.0,-22.0,
1894.0,1899.0,-2.0,-23.0,
1935.0,2013.0,-2.0,-23.0,
1914.0,1866.0,-1.0,-24.0,
1977.0,2314.0,0.0,-25.0,
2029.0,2155.0,0.0,-26.0,
2021.0,2035.0,0.0,-26.0,
2002.0,2124.0,0.0,-27.0,
2059.0,2207.0,0.0,-27.0,
2058.0,2057.0,0.0,-28.0,
2052.0,1915.0,1.0,-28.0,
2032.0,2002.0,1.0,-28.0,
2050.0,2096.0,1.0,-28.0,
2071.0,1859.0,2.0,-28.0,
2014.0,1660.0,3.0,-28.0,
2025.0,2245.0,3.0,-28.0,
2103.0,2330.0,3.0,-28.0,
2041.0,2157.0,4.0,-27.0,
2090.0,1686.0,4.0,-26.0,
2058.0,1854.0,5.0,-25.0,
2036.0,1790.0,5.0,-24.0,
2059.0,1978.0,6.0,-23.0,
2062.0,2043.0,6.0,-21.0,
2062.0,2219.0,6.0,-20.0,
2046.0,2146.0,7.0,-19.0,
2028.0,2038.0,7.0,-17.0,
2027.0,2019.0,7.0,-16.0,
1997.0,2042.0,7.0,-15.0,
1998.0,2041.0,7.0,-14.0,
2001.0,2061.0,7.0,-13.0,
1999.0,2029.0,7.0,-13.0,
2011.0,2033.0,6.0,-12.0,
2016.0,1997.0,6.0,-12.0,
2027.0,2200.0,5.0,-12.0,
2048.0,2031.0,5.0,-12.0,
2018.0,2009.0,4.0,-12.0,
1995.0,1937.0,3.0,-12.0,
2008.0,1923.0,2.0,-12.0,
2024.0,1948.0,1.0,-12.0,
2035.0,2005.0,0.0,-12.0,
2028.0,2044.0,0.0,-12.0,
2042.0,2080.0,-1.0,-12.0,
2034.0,2043.0,-2.0,-13.0,
2010.0,1998.0,-2.0,-13.0,
2002.0,2028.0,-3.0,-13.0,
1998.0,2023.0,0,
2012.0,2042.0,-3.0,-13.0,
2013.0,2042.0,-4.0,-13.0,
2032.0,2103.0,-4.0,-13.0,
2035.0,2071.0,-4.0,-13.0,
2046.0,2040.0,-4.0,-14.0,
2059.0,2074.0,-4.0,-14.0,
2039.0,2226.0,-4.0,-14.0,
2042.0,2008.0,-4.0,-14.0,
2005.0,1922.0,-3.0,-14.0,
2014.0,1811.0,-3.0,-15.0,
2020.0,1982.0,-2.0,-15.0,
2052.0,2120.0,-2.0,-15.0,
2060.0,2065.0,-1.0,-16.0,
2072.0,2053.0,-1.0,-16.0,
2035.0,1954.0,-1.0,-17.0,
2048.0,1823.0,-1.0,-17.0,
2028.0,1976.0,-1.0,-17.0,
2013.0,2002.0,-1.0,-17.0,
2026.0,2072.0,-2.0,-16.0,
2014.0,1898.0,-2.0,-16.0,
2059.0,1957.0,-3.0,-15.0,
2072.0,2400.0,-4.0,-14.0,
2056.0,2186.0,-5.0,-13.0,
2057.0,2029.0,-6.0,-12.0,
2041.0,2063.0,-7.0,-11.0,
2032.0,2013.0,-7.0,-10.0,
2001.0,2085.0,-8.0,-9.0,
1994.0,2102.0,-8.0,-8.0,
1998.0,2079.0,-9.0,-8.0,
2022.0,1992.0,-9.0,-8.0,
2043.0,1866.0,-9.0,-8.0,
2040.0,1896.0,-8.0,-7.0,
2040.0,1957.0,-8.0,-7.0,
2034.0,1993.0,-7.0,-7.0,
2014.0,2040.0,-6.0,-7.0,
2019.0,2049.0,-5.0,-7.0,
2007.0,2041.0,-4.0,-7.0,
2013.0,2040.0,-3.0,-7.0,
2032.0,2004.0,-2.0,-6.0,
2048.0,2006.0,-1.0,-5.0,
2050.0,2028.0,0.0,-4.0,
2044.0,2061.0,0.0,-3.0,
2062.0,2062.0,0.0,-2.0,
2016.0,2033.0,2.0,0.0,
2024.0,1963.0,5.0,0.0,
2043.0,1961.0,9.0,1.0,
2031.0,1993.0,13.0,2.0,
2099.0,2039.0,17.0,3.0,
2073.0,2156.0,20.0,3.0,
2061.0,2106.0,23.0,4.0,
2035.0,2099.0,25.0,4.0,
2036.0,2037.0,27.0,4.0,
2050.0,1952.0,29.0,4.0,
2014.0,1914.0,31.0,4.0,
1992.0,1955.0,32.0,4.0,
2090.0,2052.0,33.0,3.0,
2123.0,2200.0,33.0,3.0,
2041.0,2025.0,33.0,3.0,
2202.0,1960.0,33.0,2.0,
2157.0,1986.0,33.0,2.0,
2000.0,2016.0,32.0,2.0,
2014.0,2034.0,33.0,2.0,
1833.0,2014.0,33.0,2.0,
1690.0,2007.0,33.0,3.0,
1834.0,2008.0,32.0,3.0,
1932.0,1997.0,32.0,3.0,
1982.0,1983.0,31.0,3.0,
1989.0,1997.0,29.0,3.0,
1990.0,2030.0,28.0,3.0,
2040.0,2077.0,25.0,2.0,
1992.0,2042.0,24.0,1.0,
2092.0,2053.0,21.0,0.0,
2115.0,2183.0,19.0,0.0,
2108.0,2132.0,16.0,-1.0,
2109.0,2053.0,13.0,-3.0,
2029.0,1920.0,10.0,-4.0,
1948.0,1993.0,7.0,-5.0,
2034.0,1965.0,5.0,-6.0,
2044.0,1889.0,4.0,-6.0,
1992.0,1917.0,5.0,-6.0,
2030.0,2009.0,5.0,-5.0,
2050.0,2062.0,6.0,-5.0,
2088.0,2155.0,7.0,-4.0,
2042.0,1981.0,7.0,-3.0,
1998.0,2034.0,9.0,-2.0,
2053.0,2001.0,11.0,0.0,
2038.0,2019.0,12.0,0.0,
2022.0,2059.0,14.0,0.0,
2019.0,2034.0,15.0,0.0,
2030.0,2239.0,17.0,0.0,
2034.0,2037.0,0,
2027.0,1999.0,19.0,0.0,
2041.0,2007.0,20.0,0.0,
2084.0,2018.0,22.0,0.0,
2041.0,2005.0,23.0,0.0,
2021.0,1972.0,25.0,0.0,
2024.0,1967.0,25.0,0.0,
2007.0,1969.0,26.0,0.0,
1982.0,2101.0,26.0,0.0,
2051.0,2059.0,27.0,0.0,
2036.0,2120.0,27.0,0.0,
2068.0,1951.0,26.0,0.0,
2073.0,1940.0,26.0,0.0,
2068.0,2063.0,25.0,0.0,
2055.0,2134.0,24.0,0.0,
2078.0,2214.0,23.0,-1.0,
2023.0,2083.0,22.0,-1.0,
2005.0,1873.0,21.0,-1.0,
1965.0,1913.0,20.0,-1.0,
1961.0,1983.0,18.0,-1.0,
1988.0,1975.0,17.0,-1.0,
2014.0,2013.0,16.0,-2.0,
2008.0,2010.0,16.0,-2.0,
1994.0,1963.0,15.0,-2.0,
1994.0,1982.0,14.0,-2.0,
2006.0,1985.0,14.0,-2.0,
2028.0,1959.0,14.0,-2.0,
2023.0,2119.0,14.0,-2.0,
2057.0,2118.0,14.0,-2.0,
2147.0,1990.0,14.0,-2.0,
2130.0,2006.0,14.0,-3.0,
2082.0,2017.0,14.0,-3.0,
1906.0,2037.0,14.0,-3.0,
1985.0,2080.0,14.0,-3.0,
2155.0,2060.0,15.0,-3.0,
2223.0,2047.0,15.0,-3.0,
2110.0,2024.0,14.0,-3.0,
1827.0,2031.0,14.0,-3.0,
1807.0,2161.0,15.0,-3.0,
1919.0,2070.0,15.0,-3.0,
1971.0,2036.0,16.0,-3.0,
1968.0,1952.0,16.0,-3.0,
1985.0,2069.0,17.0,-3.0,
1993.0,2057.0,17.0,-3.0,
1986.0,2021.0,17.0,-4.0,
2008.0,2015.0,18.0,-4.0,
2050.0,1970.0,18.0,-4.0,
2059.0,2010.0,18.0,-3.0,
2070.0,2040.0,18.0,-3.0,
2076.0,2093.0,18.0,-3.0,
2018.0,2096.0,18.0,-3.0,
2026.0,1995.0,18.0,-3.0,
2014.0,1903.0,17.0,-2.0,
2018.0,2029.0,17.0,-2.0,
2033.0,1985.0,16.0,-2.0,
2034.0,2017.0,15.0,-2.0,
2049.0,1962.0,15.0,-2.0,
2057.0,2087.0,14.0,-2.0,
2072.0,2090.0,14.0,-1.0,
2050.0,2147.0,14.0,-1.0,
2030.0,2002.0,13.0,-1.0,
2029.0,2039.0,13.0,-1.0,
2011.0,2022.0,13.0,-1.0,
1993.0,2034.0,13.0,-2.0,
2025.0,2089.0,13.0,-1.0,
2055.0,1913.0,13.0,-1.0,
2046.0,1921.0,13.0,-1.0,
2043.0,1873.0,12.0,-1.0,
2036.0,1877.0,12.0,-1.0,
2039.0,2118.0,12.0,-1.0,
2028.0,2253.0,12.0,-1.0,
2008.0,2135.0,13.0,-1.0,
2030.0,1995.0,13.0,-1.0,
2037.0,2017.0,13.0,-1.0,
2016.0,2033.0,13.0,-1.0,
2030.0,2040.0,13.0,-1.0,
2067.0,2017.0,13.0,-1.0,
2069.0,2029.0,13.0,-1.0,
2034.0,2020.0,14.0,-1.0,
2033.0,2239.0,14.0,-1.0,
2011.0,1893.0,14.0,-1.0,
2026.0,2018.0,14.0,-1.0,
2013.0,1999.0,14.0,-1.0,
2033.0,2031.0,15.0,-1.0,
2032.0,2029.0,15.0,-1.0,
2070.0,2030.0,15.0,-1.0,
2076.0,2020.0,15.0,-1.0,
2061.0,2023.0,16.0,-1.0,
2065.0,2027.0,16.0,-1.0,
1983.0,2030.0,16.0,-1.0,
1964.0,2071.0,16.0,-1.0,
1986.0,2090.0,17.0,-1.0,
2023.0,2023.0,17.0,-1.0,
2051.0,2017.0,17.0,-1.0,
2027.0,2028.0,17.0,-1.0,
2019.0,2033.0,17.0,-1.0,
2023.0,2029.0,17.0,-1.0,
2016.0,2029.0,18.0,-1.0,
2016.0,2032.0,18.0,-1.0,
2022.0,2025.0,18.0,-1.0,
2027.0,2035.0,18.0,-1.0,
2018.0,2055.0,18.0,-1.0,
2020.0,2051.0,19.0,-1.0,
2048.0,2016.0,19.0,-1.0,
2083.0,1985.0,19.0,-1.0,
2061.0,2019.0,19.0,-1.0,
1985.0,1975.0,19.0,-1.0,
2015.0,2031.0,19.0,-1.0,
2010.0,2050.0,19.0,-1.0,
2001.0,2047.0,18.0,-1.0,
2032.0,1998.0,18.0,-1.0,
2037.0,2022.0,17.0,-1.0,
2043.0,2019.0,17.0,-1.0,
2027.0,2021.0,16.0,-1.0,
2024.0,2020.0,16.0,-1.0,
2008.0,2025.0,15.0,-1.0,
2009.0,2032.0,15.0,-1.0,
2007.0,2038.0,14.0,-1.0,
2027.0,2027.0,14.0,-1.0,
2029.0,2034.0,14.0,-1.0,
2025.0,2021.0,13.0,-1.0,
2063.0,2031.0,13.0,-1.0,
2045.0,2030.0,13.0,-1.0,
2037.0,2032.0,13.0,-2.0,
2014.0,2027.0,12.0,-2.0,
2011.0,2028.0,12.0,-2.0,
2017.0,2035.0,12.0,-2.0,
2012.0,2031.0,12.0,-2.0,
2022.0,2017.0,11.0,-2.0,
2028.0,2030.0,11.0,-2.0,
2039.0,2017.0,11.0,-2.0,
2036.0,2018.0,11.0,-2.0,
2026.0,2030.0,11.0,-2.0,
2010.0,2016.0,11.0,-2.0,
2004.0,2030.0,11.0,-2.0,
2024.0,2034.0,11.0,-2.0,
2010.0,2035.0,11.0,-2.0,
2033.0,2030.0,11.0,-2.0,
2036.0,2021.0,11.0,-2.0,
2064.0,2028.0,11.0,-2.0,
2048.0,2025.0,11.0,-2.0,
2036.0,2026.0,11.0,-2.0,
2021.0,2038.0,12.0,-2.0,
2019.0,2038.0,12.0,-2.0,
2035.0,2032.0,12.0,-2.0,
2036.0,2018.0,13.0,-2.0,
1987.0,2013.0,13.0,-2.0,
2001.0,2029.0,13.0,-2.0,
2016.0,2023.0,13.0,-2.0,
2028.0,2029.0,13.0,-3.0,
2023.0,2028.0,14.0,-3.0,
2009.0,2034.0,14.0,-3.0,
2015.0,2036.0,14.0,-3.0,
2012.0,2017.0,14.0,-3.0,
2013.0,2028.0,14.0,-3.0,
2038.0,2037.0,14.0,-3.0,
2031.0,2029.0,15.0,-3.0,
2032.0,2017.0,15.0,-3.0,
2048.0,2010.0,15.0,-3.0,
2028.0,1983.0,15.0,-3.0,
2006.0,1956.0,15.0,-3.0,
2027.0,1972.0,15.0,-3.0,
2022.0,2004.0,15.0,-3.0,
2037.0,2215.0,15.0,-3.0,
2014.0,2056.0,15.0,-2.0,
2046.0,2113.0,15.0,-2.0,
2084.0,2209.0,15.0,-2.0,
2040.0,1926.0,15.0,-2.0,
2021.0,1889.0,15.0,-2.0,
2058.0,2147.0,15.0,-2.0,
1999.0,2028.0,14.0,-2.0,
2022.0,2005.0,14.0,-2.0,
2001.0,2009.0,14.0,-3.0,
2025.0,2008.0,14.0,-3.0,
2045.0,2008.0,14.0,-3.0,
2049.0,2009.0,14.0,-3.0,
2028.0,2009.0,14.0,-3.0,
2018.0,2015.0,14.0,-3.0,
2021.0,2017.0,14.0,-3.0,
2006.0,2005.0,14.0,-3.0,
2016.0,2018.0,14.0,-3.0,
2032.0,2024.0,14.0,-4.0,
2029.0,2018.0,14.0,-4.0,
2049.0,2019.0,14.0,-4.0,
2039.0,2011.0,14.0,-4.0,
2043.0,2008.0,15.0,-4.0,
2022.0,2022.0,15.0,-4.0,
2033.0,2030.0,15.0,-4.0,
2029.0,2030.0,15.0,-5.0,
2016.0,2032.0,15.0,-5.0,
2028.0,2031.0,15.0,-5.0,
2000.0,2025.0,15.0,-5.0,
2032.0,2027.0,15.0,-5.0,
2043.0,2031.0,15.0,-5.0,
2043.0,2039.0,15.0,-5.0,
2042.0,2037.0,15.0,-5.0,
2036.0,2041.0,15.0,-5.0,
1995.0,2025.0,15.0,-5.0,
1971.0,2031.0,15.0,-5.0,
2040.0,2039.0,15.0,-5.0,
2014.0,2024.0,15.0,-5.0,
2035.0,2034.0,15.0,-5.0,
2064.0,2050.0,15.0,-5.0,
2018.0,2022.0,15.0,-5.0,
2024.0,2024.0,15.0,-5.0,
1971.0,2009.0,15.0,-5.0,
2032.0,2013.0,15.0,-5.0,
2015.0,2022.0,15.0,-6.0,
2018.0,2031.0,15.0,-6.0,
2022.0,1904.0,15.0,-6.0,
1995.0,1881.0,15.0,-6.0,
2021.0,2004.0,15.0,-6.0,
2040.0,2498.0,15.0,-6.0,
2030.0,2200.0,15.0,-5.0,
2019.0,2068.0,15.0,-5.0,
1995.0,2058.0,15.0,-5.0,
2011.0,1993.0,16.0,-5.0,
2027.0,1890.0,16.0,-5.0,
2047.0,1921.0,16.0,-5.0,
2015.0,1873.0,0,
2025.0,1927.0,16.0,-5.0,
2024.0,1978.0,16.0,-5.0,
2066.0,2154.0,16.0,-5.0,
2043.0,2086.0,16.0,-5.0,
2038.0,2074.0,16.0,-5.0,
2033.0,2015.0,16.0,-5.0,
2011.0,1996.0,16.0,-5.0,
2014.0,2064.0,16.0,-5.0,
2036.0,2025.0,16.0,-5.0,
2038.0,2023.0,16.0,-5.0,
2035.0,2022.0,16.0,-5.0,
2025.0,2026.0,16.0,-5.0,
2024.0,2027.0,16.0,-5.0,
2021.0,2031.0,16.0,-5.0,
2021.0,2025.0,16.0,-5.0,
2023.0,2030.0,16.0,-5.0,
2018.0,2032.0,16.0,-5.0,
2033.0,2031.0,17.0,-5.0,
2030.0,2025.0,17.0,-5.0,
2028.0,2027.0,17.0,-5.0,
2012.0,2039.0,17.0,-5.0,
2011.0,2039.0,17.0,-5.0,
2018.0,2031.0,17.0,-5.0,
2002.0,2027.0,17.0,-6.0,
2004.0,2037.0,17.0,-6.0,
2014.0,2026.0,17.0,-6.0,
2013.0,2050.0,17.0,-6.0,
2039.0,2027.0,17.0,-6.0,
2042.0,2014.0,17.0,-6.0,
2038.0,2032.0,16.0,-6.0,
2041.0,2037.0,16.0,-6.0,
1991.0,2021.0,16.0,-6.0,
1972.0,2031.0,16.0,-6.0,
2019.0,2038.0,16.0,-6.0,
2017.0,2025.0,16.0,-6.0,
1989.0,2030.0,15.0,-7.0,
2050.0,2028.0,15.0,-7.0,
2056.0,2027.0,15.0,-7.0,
2047.0,2034.0,15.0,-7.0,
2021.0,2037.0,15.0,-7.0,
2035.0,2038.0,15.0,-7.0,
1989.0,2011.0,14.0,-7.0,
1969.0,2010.0,14.0,-7.0,
1997.0,2014.0,14.0,-7.0,
2033.0,2018.0,0,
2027.0,2038.0,14.0,-7.0,
2045.0,2043.0,14.0,-7.0,
2047.0,2001.0,14.0,-7.0,
2044.0,2005.0,14.0,-7.0,
1994.0,1967.0,14.0,-7.0,
