2070.0,2081.0,11.0,-11.0,
2103.0,2095.0,11.0,-11.0,
2081.0,2089.0,11.0,-11.0,
2089.0,2087.0,11.0,-11.0,
2104.0,2094.0,11.0,-11.0,
2102.0,2084.0,11.0,-11.0,
2089.0,2076.0,11.0,-11.0,
2062.0,2084.0,11.0,-11.0,
2059.0,2091.0,11.0,-11.0,
2083.0,2086.0,11.0,-11.0,
2081.0,2096.0,11.0,-11.0,
2073.0,2096.0,11.0,-11.0,
2067.0,2096.0,11.0,-11.0,
2082.0,2097.0,11.0,-11.0,
2082.0,2094.0,11.0,-11.0,
2055.0,2086.0,11.0,-11.0,
2046.0,2042.0,11.0,-11.0,
2051.0,2083.0,11.0,-11.0,
2066.0,2092.0,11.0,-11.0,
2066.0,2083.0,11.0,-11.0,
2054.0,2090.0,11.0,-11.0,
2054.0,2091.0,11.0,-11.0,
2075.0,2102.0,11.0,-11.0,
2083.0,2100.0,11.0,-11.0,
2051.0,2095.0,11.0,-11.0,
2047.0,2082.0,11.0,-11.0,
2048.0,2086.0,11.0,-11.0,
2073.0,2086.0,11.0,-11.0,
2092.0,2085.0,11.0,-11.0,
2064.0,2094.0,11.0,-11.0,
2070.0,2099.0,11.0,-11.0,
2084.0,2101.0,11.0,-11.0,
2088.0,2100.0,11.0,-11.0,
2059.0,2087.0,11.0,-11.0,
2049.0,2093.0,11.0,-11.0,
2053.0,2089.0,11.0,-11.0,
2112.0,2094.0,11.0,-11.0,
2074.0,2089.0,11.0,-11.0,
2078.0,2099.0,11.0,-11.0,
2078.0,2096.0,11.0,-11.0,
2095.0,2096.0,12.0,-11.0,
2093.0,2098.0,12.0,-11.0,
2068.0,2091.0,11.0,-11.0,
2056.0,2030.0,11.0,-11.0,
2065.0,2086.0,11.0,-11.0,
2078.0,2096.0,11.0,-11.0,
2074.0,2090.0,11.0,-11.0,
2067.0,2094.0,11.0,-11.0,
2069.0,2096.0,11.0,-11.0,
2085.0,2101.0,11.0,-11.0,
2068.0,2096.0,11.0,-11.0,
2061.0,2090.0,11.0,-11.0,
2046.0,2082.0,11.0,-11.0,
2053.0,2081.0,11.0,-11.0,
2079.0,2085.0,11.0,-11.0,
2086.0,2084.0,11.0,-11.0,
2069.0,2085.0,11.0,-11.0,
2070.0,2088.0,11.0,-11.0,
2101.0,2098.0,11.0,-11.0,
2088.0,2091.0,11.0,-11.0,
2050.0,2095.0,11.0,-11.0,
2044.0,2086.0,11.0,-11.0,
2046.0,2075.0,11.0,-11.0,
2074.0,2089.0,11.0,-11.0,
2070.0,2093.0,11.0,-11.0,
2058.0,2095.0,11.0,-11.0,
2068.0,2084.0,11.0,-11.0,
2035.0,2104.0,11.0,-11.0,
2101.0,2102.0,11.0,-11.0,
2058.0,2098.0,11.0,-11.0,
2049.0,2090.0,11.0,-11.0,
2048.0,2095.0,11.0,-11.0,
2081.0,2088.0,11.0,-11.0,
2080.0,2094.0,11.0,-11.0,
2052.0,2099.0,11.0,-11.0,
2070.0,2098.0,11.0,-11.0,
2097.0,2100.0,11.0,-11.0,
2109.0,2086.0,11.0,-11.0,
2072.0,2090.0,11.0,-11.0,
2065.0,2078.0,11.0,-11.0,
2064.0,2086.0,11.0,-11.0,
2100.0,2087.0,11.0,-11.0,
2083.0,2086.0,0,
2081.0,2090.0,11.0,-11.0,
2081.0,2094.0,11.0,-11.0,
2093.0,2092.0,11.0,-11.0,
2102.0,2054.0,11.0,-11.0,
2062.0,2083.0,11.0,-11.0,
2058.0,2087.0,11.0,-11.0,
2051.0,2095.0,11.0,-11.0,
2071.0,2098.0,11.0,-11.0,
2080.0,2099.0,11.0,-11.0,
2061.0,2092.0,11.0,-11.0,
2070.0,2092.0,11.0,-11.0,
2067.0,2098.0,11.0,-11.0,
2063.0,2094.0,11.0,-11.0,
2042.0,2095.0,11.0,-11.0,
2046.0,2088.0,11.0,-11.0,
2050.0,2093.0,11.0,-11.0,
2078.0,2097.0,11.0,-11.0,
2074.0,2089.0,11.0,-11.0,
2067.0,2089.0,11.0,-11.0,
2076.0,2096.0,11.0,-11.0,
2095.0,2097.0,11.0,-11.0,
2102.0,2092.0,11.0,-11.0,
2069.0,2090.0,11.0,-11.0,
2062.0,2077.0,11.0,-11.0,
2057.0,2076.0,11.0,-11.0,
2096.0,2084.0,11.0,-11.0,
2104.0,2087.0,11.0,-11.0,
2073.0,2081.0,11.0,-11.0,
2080.0,2081.0,11.0,-11.0,
2154.0,2086.0,11.0,-11.0,
2103.0,2091.0,11.0,-11.0,
2058.0,2084.0,11.0,-11.0,
2047.0,2084.0,11.0,-11.0,
2056.0,2083.0,11.0,-11.0,
2081.0,2086.0,11.0,-11.0,
2083.0,2088.0,11.0,-11.0,
2057.0,2085.0,11.0,-11.0,
2069.0,2092.0,11.0,-11.0,
2076.0,2095.0,11.0,-11.0,
2086.0,2088.0,11.0,-11.0,
2054.0,2087.0,11.0,-11.0,
2047.0,2082.0,11.0,-11.0,
2060.0,2089.0,11.0,-11.0,
2076.0,2082.0,11.0,-11.0,
2075.0,2089.0,11.0,-11.0,
2063.0,2093.0,11.0,-11.0,
2074.0,2098.0,11.0,-11.0,
2119.0,2098.0,11.0,-11.0,
2090.0,2095.0,11.0,-11.0,
2063.0,2085.0,11.0,-11.0,
2047.0,2093.0,11.0,-11.0,
2057.0,2083.0,11.0,-11.0,
2114.0,2088.0,11.0,-11.0,
2076.0,2079.0,11.0,-11.0,
2050.0,2095.0,11.0,-11.0,
2067.0,2096.0,11.0,-11.0,
2089.0,2100.0,11.0,-11.0,
2081.0,2095.0,11.0,-11.0,
2047.0,2088.0,11.0,-11.0,
2047.0,2088.0,11.0,-11.0,
2056.0,2078.0,11.0,-11.0,
2075.0,2092.0,11.0,-11.0,
2088.0,2093.0,11.0,-11.0,
2065.0,2103.0,11.0,-11.0,
2074.0,2098.0,11.0,-11.0,
2086.0,2075.0,11.0,-11.0,
2089.0,2090.0,11.0,-11.0,
2062.0,2090.0,11.0,-11.0,
2059.0,2087.0,11.0,-11.0,
2058.0,2085.0,11.0,-11.0,
2088.0,2092.0,11.0,-11.0,
2086.0,2082.0,11.0,-11.0,
2077.0,2094.0,11.0,-11.0,
2085.0,2094.0,11.0,-11.0,
2096.0,2095.0,11.0,-11.0,
2100.0,2064.0,11.0,-11.0,
2065.0,2089.0,11.0,-11.0,
2052.0,2106.0,11.0,-11.0,
2055.0,2080.0,11.0,-11.0,
2071.0,2087.0,11.0,-11.0,
2067.0,2091.0,11.0,-11.0,
2070.0,2094.0,11.0,-11.0,
2072.0,2089.0,11.0,-11.0,
2093.0,2085.0,11.0,-11.0,
2092.0,2093.0,11.0,-11.0,
2059.0,2082.0,11.0,-11.0,
2051.0,2083.0,11.0,-11.0,
2062.0,2078.0,11.0,-11.0,
2083.0,2082.0,11.0,-11.0,
2078.0,2087.0,11.0,-11.0,
2073.0,2096.0,11.0,-11.0,
2068.0,2078.0,11.0,-11.0,
2083.0,2094.0,11.0,-11.0,
2095.0,2096.0,11.0,-11.0,
2067.0,2088.0,11.0,-11.0,
2065.0,2086.0,11.0,-11.0,
2072.0,2096.0,11.0,-11.0,
2084.0,2089.0,11.0,-11.0,
2077.0,2090.0,11.0,-11.0,
2075.0,2095.0,11.0,-11.0,
2082.0,2093.0,11.0,-11.0,
2093.0,2087.0,11.0,-11.0,
2090.0,2096.0,11.0,-11.0,
2058.0,2091.0,11.0,-11.0,
2050.0,2078.0,11.0,-11.0,
2046.0,2084.0,11.0,-11.0,
2077.0,2092.0,11.0,-11.0,
2065.0,2093.0,11.0,-11.0,
2054.0,2096.0,11.0,-11.0,
2076.0,2099.0,11.0,-11.0,
2088.0,2098.0,11.0,-11.0,
2083.0,2100.0,11.0,-11.0,
2042.0,2084.0,11.0,-11.0,
2032.0,2076.0,11.0,-11.0,
2031.0,2078.0,11.0,-11.0,
2069.0,2084.0,11.0,-11.0,
2067.0,2084.0,11.0,-11.0,
2053.0,2082.0,11.0,-11.0,
2070.0,2088.0,11.0,-11.0,
2088.0,2097.0,11.0,-11.0,
2094.0,2091.0,11.0,-11.0,
2052.0,2085.0,11.0,-11.0,
2055.0,2079.0,11.0,-11.0,
2062.0,2085.0,11.0,-11.0,
2080.0,2091.0,11.0,-11.0,
2077.0,2089.0,11.0,-11.0,
2070.0,2090.0,11.0,-11.0,
2069.0,2094.0,11.0,-11.0,
2087.0,2103.0,11.0,-11.0,
2094.0,2090.0,11.0,-11.0,
2065.0,2095.0,11.0,-11.0,
2054.0,2085.0,11.0,-11.0,
2050.0,2082.0,11.0,-11.0,
2078.0,2113.0,11.0,-11.0,
2079.0,2092.0,11.0,-11.0,
2070.0,2090.0,11.0,-11.0,
2082.0,2093.0,11.0,-11.0,
2092.0,2109.0,11.0,-11.0,
2093.0,2113.0,11.0,-11.0,
2061.0,2086.0,11.0,-11.0,
2057.0,2080.0,11.0,-11.0,
2058.0,2085.0,11.0,-11.0,
2088.0,2091.0,11.0,-11.0,
2079.0,2093.0,11.0,-11.0,
2078.0,2097.0,11.0,-11.0,
2074.0,2100.0,11.0,-11.0,
2091.0,2105.0,11.0,-11.0,
2100.0,2073.0,11.0,-11.0,
2060.0,2088.0,11.0,-11.0,
2055.0,2083.0,11.0,-11.0,
2061.0,2081.0,11.0,-11.0,
2080.0,2085.0,11.0,-11.0,
2079.0,2088.0,11.0,-11.0,
2066.0,2090.0,11.0,-11.0,
2076.0,2089.0,11.0,-11.0,
2085.0,2099.0,11.0,-11.0,
2094.0,2067.0,11.0,-11.0,
2064.0,2090.0,11.0,-11.0,
2048.0,2081.0,11.0,-11.0,
2059.0,2078.0,11.0,-11.0,
2076.0,2090.0,11.0,-11.0,
2071.0,2109.0,11.0,-11.0,
2060.0,2092.0,11.0,-11.0,
2074.0,2091.0,11.0,-11.0,
2087.0,2099.0,11.0,-11.0,
2082.0,2094.0,11.0,-11.0,
2050.0,2081.0,11.0,-11.0,
2046.0,2073.0,11.0,-11.0,
2051.0,2084.0,11.0,-11.0,
2071.0,2084.0,11.0,-11.0,
2068.0,2087.0,11.0,-11.0,
2068.0,2097.0,11.0,-11.0,
2068.0,2091.0,11.0,-11.0,
2079.0,2094.0,11.0,-11.0,
2088.0,2088.0,11.0,-11.0,
2048.0,2083.0,11.0,-11.0,
2043.0,2079.0,11.0,-11.0,
2048.0,2081.0,11.0,-11.0,
2089.0,2083.0,11.0,-11.0,
2064.0,2079.0,11.0,-11.0,
2066.0,2089.0,11.0,-11.0,
2078.0,2093.0,11.0,-11.0,
2089.0,2087.0,11.0,-11.0,
2094.0,2092.0,11.0,-11.0,
2062.0,2087.0,11.0,-11.0,
2062.0,2081.0,11.0,-11.0,
2058.0,2081.0,11.0,-11.0,
2091.0,2081.0,11.0,-11.0,
2078.0,2089.0,11.0,-11.0,
2075.0,2093.0,11.0,-11.0,
2082.0,2094.0,11.0,-11.0,
2095.0,2106.0,11.0,-11.0,
2095.0,2093.0,11.0,-11.0,
2059.0,2087.0,11.0,-11.0,
2059.0,2078.0,11.0,-11.0,
2062.0,2084.0,11.0,-11.0,
2090.0,2082.0,11.0,-11.0,
2080.0,2089.0,11.0,-11.0,
2085.0,2097.0,11.0,-11.0,
2085.0,2093.0,11.0,-11.0,
2089.0,2090.0,11.0,-11.0,
2090.0,2087.0,11.0,-11.0,
2048.0,2084.0,11.0,-11.0,
2042.0,2088.0,11.0,-11.0,
2041.0,2085.0,11.0,-11.0,
2072.0,2099.0,11.0,-11.0,
2065.0,2086.0,11.0,-11.0,
2065.0,2087.0,11.0,-11.0,
2071.0,2084.0,11.0,-11.0,
2088.0,2092.0,11.0,-11.0,
2091.0,2092.0,11.0,-11.0,
2058.0,2091.0,11.0,-11.0,
2047.0,2082.0,11.0,-11.0,
2044.0,2074.0,11.0,-11.0,
2075.0,2081.0,11.0,-11.0,
2066.0,2086.0,11.0,-11.0,
2053.0,2092.0,11.0,-11.0,
2072.0,2090.0,11.0,-11.0,
2097.0,2104.0,11.0,-11.0,
2088.0,2096.0,11.0,-11.0,
2048.0,2087.0,11.0,-11.0,
2049.0,2087.0,11.0,-11.0,
2054.0,2082.0,11.0,-11.0,
2075.0,2086.0,11.0,-11.0,
2070.0,2091.0,11.0,-11.0,
2061.0,2098.0,11.0,-11.0,
2077.0,2088.0,11.0,-11.0,
2079.0,2092.0,11.0,-11.0,
2074.0,2091.0,11.0,-11.0,
2049.0,2101.0,11.0,-11.0,
2047.0,2083.0,11.0,-11.0,
2058.0,2081.0,11.0,-11.0,
2089.0,2087.0,11.0,-11.0,
2071.0,2085.0,11.0,-11.0,
2069.0,2090.0,11.0,-11.0,
2084.0,2096.0,11.0,-11.0,
2094.0,2097.0,11.0,-11.0,
2100.0,2104.0,11.0,-11.0,
2065.0,2087.0,11.0,-11.0,
2053.0,2085.0,11.0,-11.0,
2060.0,2085.0,11.0,-11.0,
2087.0,2080.0,11.0,-11.0,
2077.0,2086.0,11.0,-11.0,
2060.0,2093.0,11.0,-11.0,
2068.0,2098.0,11.0,-11.0,
2089.0,2105.0,11.0,-11.0,
2077.0,2092.0,11.0,-11.0,
2049.0,2089.0,11.0,-11.0,
2045.0,2089.0,11.0,-11.0,
2053.0,2080.0,11.0,-11.0,
2065.0,2091.0,11.0,-11.0,
2059.0,2089.0,11.0,-11.0,
2064.0,2103.0,11.0,-11.0,
2070.0,2120.0,11.0,-11.0,
2082.0,2091.0,11.0,-11.0,
2093.0,2090.0,11.0,-11.0,
2052.0,2082.0,11.0,-11.0,
2052.0,2085.0,11.0,-11.0,
2060.0,2081.0,11.0,-11.0,
2082.0,2088.0,11.0,-11.0,
2069.0,2086.0,11.0,-11.0,
2065.0,2093.0,11.0,-11.0,
2081.0,2091.0,11.0,-11.0,
2094.0,2091.0,11.0,-11.0,
2096.0,2095.0,11.0,-11.0,
2067.0,2098.0,11.0,-11.0,
2060.0,2087.0,11.0,-11.0,
2061.0,2088.0,11.0,-11.0,
2084.0,2098.0,11.0,-11.0,
2074.0,2085.0,11.0,-11.0,
2072.0,2096.0,11.0,-11.0,
2070.0,2095.0,11.0,-11.0,
2096.0,2096.0,11.0,-11.0,
2077.0,2091.0,11.0,-11.0,
2045.0,2084.0,11.0,-11.0,
2051.0,2082.0,11.0,-11.0,
2044.0,2079.0,11.0,-11.0,
2091.0,2074.0,11.0,-11.0,
2073.0,2089.0,11.0,-11.0,
2069.0,2097.0,11.0,-11.0,
2077.0,2091.0,11.0,-11.0,
2074.0,2116.0,11.0,-11.0,
2081.0,2095.0,11.0,-11.0,
2050.0,2092.0,11.0,-11.0,
2046.0,2090.0,11.0,-11.0,
2047.0,2092.0,11.0,-11.0,
2079.0,2089.0,11.0,-11.0,
2063.0,2083.0,11.0,-11.0,
2063.0,2085.0,11.0,-11.0,
2057.0,2088.0,11.0,-11.0,
2082.0,2088.0,11.0,-11.0,
2082.0,2091.0,11.0,-11.0,
2051.0,2085.0,11.0,-11.0,
2040.0,2071.0,11.0,-11.0,
2051.0,2076.0,11.0,-11.0,
2075.0,2094.0,11.0,-11.0,
2065.0,2087.0,11.0,-11.0,
2068.0,2087.0,11.0,-11.0,
2087.0,2092.0,11.0,-11.0,
2102.0,2097.0,11.0,-11.0,
2081.0,2093.0,11.0,-11.0,
2054.0,2071.0,11.0,-11.0,
2056.0,2080.0,11.0,-11.0,
2063.0,2078.0,11.0,-11.0,
2090.0,2086.0,11.0,-11.0,
2075.0,2092.0,11.0,-11.0,
2074.0,2092.0,11.0,-11.0,
2084.0,2093.0,11.0,-11.0,
2098.0,2093.0,11.0,-11.0,
2096.0,2096.0,11.0,-11.0,
2056.0,2085.0,11.0,-11.0,
2058.0,2086.0,11.0,-11.0,
2067.0,2082.0,11.0,-11.0,
2076.0,2091.0,11.0,-11.0,
2063.0,2089.0,11.0,-11.0,
2059.0,2090.0,11.0,-11.0,
2067.0,2076.0,11.0,-11.0,
2084.0,2093.0,11.0,-11.0,
2079.0,2085.0,11.0,-11.0,
2059.0,2089.0,11.0,-11.0,
2049.0,2088.0,11.0,-11.0,
2054.0,2084.0,11.0,-11.0,
2076.0,2083.0,11.0,-11.0,
2067.0,2091.0,11.0,-11.0,
2072.0,2089.0,11.0,-11.0,
2078.0,2099.0,11.0,-11.0,
2086.0,2102.0,11.0,-11.0,
2090.0,2101.0,11.0,-11.0,
2055.0,2087.0,11.0,-11.0,
2049.0,2085.0,11.0,-11.0,
2060.0,2087.0,11.0,-11.0,
2086.0,2094.0,11.0,-11.0,
2080.0,2102.0,11.0,-11.0,
2069.0,2100.0,11.0,-11.0,
2070.0,2097.0,11.0,-11.0,
2092.0,2101.0,11.0,-11.0,
2100.0,2099.0,11.0,-11.0,
2056.0,2095.0,11.0,-11.0,
2058.0,2086.0,11.0,-11.0,
2062.0,2096.0,11.0,-11.0,
2082.0,2095.0,11.0,-11.0,
2071.0,2095.0,11.0,-11.0,
2063.0,2101.0,11.0,-11.0,
2068.0,2095.0,11.0,-11.0,
2076.0,2096.0,11.0,-11.0,
2083.0,2084.0,11.0,-11.0,
2051.0,2093.0,11.0,-11.0,
2050.0,2085.0,11.0,-11.0,
2041.0,2088.0,11.0,-11.0,
2070.0,2085.0,11.0,-11.0,
2062.0,2086.0,11.0,-11.0,
2072.0,2090.0,11.0,-11.0,
2086.0,2097.0,11.0,-11.0,
2097.0,2101.0,11.0,-11.0,
2090.0,2090.0,11.0,-11.0,
2054.0,2080.0,11.0,-11.0,
2065.0,2085.0,11.0,-11.0,
2065.0,2083.0,11.0,-11.0,
2087.0,2082.0,11.0,-11.0,
2078.0,2090.0,11.0,-11.0,
2065.0,2091.0,11.0,-11.0,
2073.0,2093.0,11.0,-11.0,
2083.0,2094.0,11.0,-11.0,
2086.0,2085.0,11.0,-11.0,
2052.0,2075.0,11.0,-11.0,
2053.0,2079.0,11.0,-11.0,
2071.0,2081.0,11.0,-11.0,
2077.0,2083.0,11.0,-11.0,
2073.0,2086.0,11.0,-11.0,
2066.0,2090.0,11.0,-11.0,
2072.0,2092.0,11.0,-11.0,
2085.0,2094.0,11.0,-11.0,
2089.0,2094.0,11.0,-11.0,
2062.0,2093.0,11.0,-11.0,
2051.0,2085.0,11.0,-11.0,
2074.0,2083.0,11.0,-11.0,
2084.0,2115.0,11.0,-11.0,
2065.0,2089.0,11.0,-11.0,
2062.0,2096.0,11.0,-11.0,
2078.0,2100.0,11.0,-11.0,
2105.0,2100.0,11.0,-11.0,
2084.0,2098.0,11.0,-11.0,
2051.0,2090.0,11.0,-11.0,
2046.0,2089.0,11.0,-11.0,
2046.0,2087.0,11.0,-11.0,
2072.0,2088.0,11.0,-11.0,
2056.0,2088.0,11.0,-11.0,
2050.0,2104.0,11.0,-11.0,
2066.0,2088.0,11.0,-11.0,
2064.0,2097.0,11.0,-11.0,
2070.0,2084.0,11.0,-11.0,
2050.0,2079.0,11.0,-11.0,
2047.0,2081.0,11.0,-11.0,
2058.0,2087.0,11.0,-11.0,
2077.0,2087.0,11.0,-11.0,
2068.0,2090.0,11.0,-11.0,
2057.0,2093.0,11.0,-11.0,
2058.0,2094.0,11.0,-11.0,
2090.0,2109.0,11.0,-11.0,
2089.0,2099.0,11.0,-11.0,
2065.0,2097.0,11.0,-11.0,
2055.0,2091.0,11.0,-11.0,
2059.0,2084.0,11.0,-11.0,
2085.0,2087.0,11.0,-11.0,
2072.0,2078.0,11.0,-11.0,
2086.0,2090.0,11.0,-11.0,
2085.0,2095.0,11.0,-11.0,
2090.0,2104.0,11.0,-11.0,
2091.0,2088.0,11.0,-11.0,
2062.0,2090.0,11.0,-11.0,
2068.0,2088.0,11.0,-11.0,
2065.0,2083.0,11.0,-11.0,
2093.0,2096.0,11.0,-11.0,
2081.0,2095.0,11.0,-11.0,
2076.0,2098.0,11.0,-11.0,
2080.0,2100.0,11.0,-11.0,
2092.0,2098.0,11.0,-11.0,
2084.0,2095.0,11.0,-11.0,
2055.0,2082.0,11.0,-11.0,
2055.0,2089.0,11.0,-11.0,
2050.0,2087.0,11.0,-11.0,
2077.0,2089.0,11.0,-11.0,
2066.0,2089.0,11.0,-11.0,
2072.0,2085.0,11.0,-11.0,
2076.0,2093.0,11.0,-11.0,
2090.0,2087.0,11.0,-11.0,
2087.0,2089.0,11.0,-11.0,
2064.0,2087.0,11.0,-11.0,
2053.0,2088.0,11.0,-11.0,
2055.0,2082.0,11.0,-11.0,
2088.0,2093.0,11.0,-11.0,
2060.0,2096.0,11.0,-11.0,
2063.0,2095.0,11.0,-11.0,
2076.0,2106.0,11.0,-11.0,
2082.0,2109.0,11.0,-11.0,
2080.0,2100.0,11.0,-11.0,
2045.0,2089.0,11.0,-11.0,
2047.0,2086.0,11.0,-11.0,
2054.0,2091.0,11.0,-11.0,
2097.0,2094.0,11.0,-11.0,
2073.0,2095.0,11.0,-11.0,
2074.0,2075.0,11.0,-11.0,
2075.0,2097.0,11.0,-11.0,
2089.0,2089.0,11.0,-11.0,
2073.0,2091.0,11.0,-11.0,
2055.0,2080.0,11.0,-11.0,
2029.0,2083.0,11.0,-11.0,
2058.0,2084.0,11.0,-11.0,
2094.0,2086.0,11.0,-11.0,
2066.0,2090.0,11.0,-11.0,
2071.0,2092.0,11.0,-11.0,
2082.0,2085.0,11.0,-11.0,
2091.0,2097.0,11.0,-11.0,
2089.0,2090.0,11.0,-11.0,
2062.0,2055.0,11.0,-11.0,
2050.0,2087.0,11.0,-11.0,
2049.0,2085.0,11.0,-11.0,
2081.0,2085.0,11.0,-11.0,
2054.0,2087.0,11.0,-11.0,
2063.0,2090.0,11.0,-11.0,
2077.0,2097.0,11.0,-11.0,
2084.0,2101.0,11.0,-11.0,
2092.0,2090.0,11.0,-11.0,
2055.0,2083.0,11.0,-11.0,
2056.0,2085.0,11.0,-11.0,
2062.0,2087.0,11.0,-11.0,
2086.0,2090.0,11.0,-11.0,
2073.0,2094.0,11.0,-11.0,
2075.0,2089.0,11.0,-11.0,
2082.0,2099.0,11.0,-11.0,
2105.0,2104.0,11.0,-11.0,
2081.0,2091.0,11.0,-11.0,
2058.0,2088.0,11.0,-11.0,
2060.0,2085.0,11.0,-11.0,
2059.0,2084.0,11.0,-11.0,
2066.0,2083.0,11.0,-11.0,
2066.0,2079.0,11.0,-11.0,
2074.0,2094.0,11.0,-11.0,
2078.0,2095.0,11.0,-11.0,
2093.0,2111.0,11.0,-11.0,
2086.0,2094.0,11.0,-11.0,
2060.0,2086.0,11.0,-11.0,
2053.0,2085.0,11.0,-11.0,
2046.0,2085.0,11.0,-11.0,
2087.0,2088.0,11.0,-11.0,
2067.0,2083.0,11.0,-11.0,
2075.0,2090.0,11.0,-11.0,
2082.0,2100.0,11.0,-11.0,
2065.0,2091.0,11.0,-11.0,
2082.0,2084.0,11.0,-11.0,
2049.0,2083.0,11.0,-11.0,
2046.0,2075.0,11.0,-11.0,
2058.0,2080.0,11.0,-11.0,
2079.0,2087.0,11.0,-11.0,
2069.0,2096.0,11.0,-11.0,
2069.0,2091.0,11.0,-11.0,
2074.0,2082.0,11.0,-11.0,
2093.0,2089.0,0,
2081.0,2083.0,11.0,-11.0,
2053.0,2153.0,11.0,-11.0,
2052.0,2087.0,11.0,-11.0,
2052.0,2097.0,11.0,-11.0,
2082.0,2093.0,11.0,-11.0,
2065.0,2093.0,11.0,-11.0,
2062.0,2087.0,11.0,-11.0,
2074.0,2098.0,11.0,-11.0,
2088.0,2101.0,11.0,-11.0,
2081.0,2100.0,11.0,-11.0,
2041.0,2100.0,11.0,-11.0,
2053.0,2091.0,11.0,-11.0,
2054.0,2098.0,11.0,-11.0,
2084.0,2084.0,11.0,-11.0,
2071.0,2095.0,11.0,-11.0,
2067.0,2102.0,11.0,-11.0,
2078.0,2107.0,11.0,-11.0,
2099.0,2102.0,11.0,-11.0,
2075.0,2085.0,11.0,-11.0,
2054.0,2090.0,11.0,-11.0,
2065.0,2090.0,11.0,-11.0,
2052.0,2093.0,11.0,-11.0,
2083.0,2092.0,11.0,-11.0,
2073.0,2091.0,11.0,-11.0,
2061.0,2092.0,11.0,-11.0,
2068.0,2087.0,11.0,-11.0,
2058.0,2090.0,11.0,-11.0,
2078.0,2080.0,11.0,-11.0,
2057.0,2086.0,11.0,-11.0,
2061.0,2086.0,11.0,-11.0,
2056.0,2089.0,11.0,-11.0,
2082.0,2087.0,11.0,-11.0,
2063.0,2091.0,11.0,-11.0,
2062.0,2091.0,11.0,-11.0,
2072.0,2096.0,11.0,-11.0,
2084.0,2099.0,11.0,-11.0,
2083.0,2092.0,11.0,-11.0,
2048.0,2086.0,11.0,-11.0,
2045.0,2085.0,11.0,-11.0,
2049.0,2072.0,11.0,-11.0,
2088.0,2088.0,11.0,-11.0,
2069.0,2092.0,11.0,-11.0,
2069.0,2095.0,11.0,-11.0,
2087.0,2099.0,11.0,-11.0,
2086.0,2100.0,11.0,-11.0,
2076.0,2090.0,11.0,-11.0,
2056.0,2086.0,11.0,-11.0,
2054.0,2084.0,11.0,-11.0,
2055.0,2091.0,11.0,-11.0,
2093.0,2097.0,11.0,-11.0,
2076.0,2102.0,11.0,-11.0,
2074.0,2093.0,11.0,-11.0,
2073.0,2102.0,11.0,-11.0,
2086.0,2125.0,11.0,-11.0,
2080.0,2102.0,11.0,-11.0,
2056.0,2094.0,11.0,-11.0,
2059.0,2088.0,11.0,-11.0,
2059.0,2088.0,11.0,-11.0,
2091.0,2118.0,11.0,-11.0,
2071.0,2087.0,11.0,-11.0,
2077.0,2088.0,11.0,-11.0,
2092.0,2103.0,11.0,-11.0,
2094.0,2098.0,11.0,-11.0,
2088.0,2102.0,11.0,-11.0,
2051.0,2052.0,11.0,-11.0,
2054.0,2079.0,11.0,-11.0,
2053.0,2082.0,11.0,-11.0,
2089.0,2107.0,11.0,-11.0,
2067.0,2081.0,11.0,-11.0,
2077.0,2083.0,11.0,-11.0,
2084.0,2099.0,11.0,-11.0,
2094.0,2097.0,11.0,-11.0,
2068.0,2093.0,11.0,-11.0,
2058.0,2084.0,11.0,-11.0,
2059.0,2083.0,11.0,-11.0,
2057.0,2082.0,11.0,-11.0,
2077.0,2096.0,11.0,-11.0,
2070.0,2087.0,11.0,-11.0,
2064.0,2092.0,11.0,-11.0,
2083.0,2095.0,11.0,-11.0,
2106.0,2099.0,11.0,-11.0,
2088.0,2103.0,11.0,-11.0,
2051.0,2096.0,11.0,-11.0,
2060.0,2096.0,11.0,-11.0,
2049.0,2089.0,11.0,-11.0,
2079.0,2080.0,11.0,-11.0,
2061.0,2091.0,11.0,-11.0,
2064.0,2102.0,11.0,-11.0,
2052.0,2098.0,12.0,-11.0,
2090.0,2102.0,12.0,-11.0,
2072.0,2117.0,12.0,-11.0,
2046.0,2085.0,12.0,-11.0,
2046.0,2087.0,12.0,-11.0,
2048.0,2077.0,12.0,-11.0,
2074.0,2075.0,12.0,-11.0,
2062.0,2087.0,12.0,-11.0,
2070.0,2089.0,12.0,-11.0,
2068.0,2070.0,12.0,-11.0,
2090.0,2088.0,11.0,-11.0,
2084.0,2094.0,11.0,-11.0,
2054.0,2082.0,11.0,-11.0,
2053.0,2080.0,11.0,-11.0,
2063.0,2085.0,11.0,-11.0,
2095.0,2099.0,11.0,-11.0,
2070.0,2097.0,11.0,-11.0,
2066.0,2097.0,11.0,-11.0,
2089.0,2093.0,11.0,-11.0,
2138.0,2097.0,11.0,-11.0,
2095.0,2093.0,11.0,-11.0,
2051.0,2090.0,11.0,-11.0,
2049.0,2084.0,11.0,-11.0,
2050.0,2085.0,11.0,-11.0,
2094.0,2089.0,11.0,-11.0,
2071.0,2092.0,11.0,-11.0,
2060.0,2085.0,11.0,-11.0,
2085.0,2092.0,11.0,-11.0,
2100.0,2098.0,11.0,-11.0,
2088.0,2097.0,11.0,-11.0,
2048.0,2156.0,11.0,-11.0,
2050.0,2088.0,11.0,-11.0,
2059.0,2083.0,11.0,-11.0,
2089.0,2087.0,11.0,-11.0,
2068.0,2090.0,11.0,-11.0,
2080.0,2107.0,11.0,-11.0,
2078.0,2100.0,11.0,-11.0,
2095.0,2099.0,11.0,-11.0,
2093.0,2094.0,11.0,-11.0,
2058.0,2086.0,11.0,-11.0,
2061.0,2082.0,11.0,-11.0,
2062.0,2091.0,11.0,-11.0,
2087.0,2091.0,11.0,-11.0,
2062.0,2086.0,11.0,-11.0,
2065.0,2096.0,11.0,-11.0,
2074.0,2094.0,11.0,-11.0,
2089.0,2099.0,11.0,-11.0,
2083.0,2091.0,11.0,-11.0,
2051.0,2090.0,11.0,-11.0,
2046.0,2082.0,11.0,-11.0,
2053.0,2086.0,11.0,-11.0,
2076.0,2083.0,11.0,-11.0,
2057.0,2087.0,11.0,-11.0,
2060.0,2095.0,11.0,-11.0,
2072.0,2109.0,11.0,-11.0,
2116.0,2110.0,11.0,-11.0,
2078.0,2096.0,11.0,-11.0,
2051.0,2084.0,11.0,-11.0,
2055.0,2088.0,11.0,-11.0,
2067.0,2087.0,11.0,-11.0,
2096.0,2094.0,11.0,-11.0,
2066.0,2090.0,11.0,-11.0,
2086.0,2098.0,11.0,-11.0,
2081.0,2101.0,11.0,-11.0,
2102.0,2103.0,11.0,-11.0,
2088.0,2087.0,11.0,-11.0,
2061.0,2090.0,11.0,-11.0,
2059.0,2076.0,11.0,-11.0,
2069.0,2093.0,11.0,-11.0,
2118.0,2097.0,11.0,-11.0,
2066.0,2097.0,11.0,-11.0,
2073.0,2098.0,11.0,-11.0,
2070.0,2095.0,11.0,-11.0,
2095.0,2105.0,11.0,-11.0,
2081.0,2092.0,11.0,-11.0,
2046.0,2095.0,11.0,-11.0,
2044.0,2089.0,11.0,-11.0,
2049.0,2097.0,11.0,-11.0,
2077.0,2094.0,11.0,-11.0,
2050.0,2098.0,11.0,-11.0,
2060.0,2098.0,11.0,-11.0,
2060.0,2102.0,11.0,-11.0,
2090.0,2091.0,11.0,-11.0,
2032.0,2088.0,11.0,-11.0,
2054.0,2085.0,11.0,-11.0,
2043.0,2087.0,11.0,-11.0,
2060.0,2080.0,11.0,-11.0,
2088.0,2088.0,11.0,-11.0,
2063.0,2085.0,11.0,-11.0,
2068.0,2083.0,11.0,-11.0,
2074.0,2085.0,11.0,-11.0,
2100.0,2089.0,11.0,-11.0,
2081.0,2091.0,11.0,-11.0,
2055.0,2084.0,11.0,-11.0,
2054.0,2089.0,11.0,-11.0,
2070.0,2087.0,11.0,-11.0,
2093.0,2102.0,11.0,-11.0,
2061.0,2093.0,11.0,-11.0,
2059.0,2087.0,11.0,-11.0,
2085.0,2089.0,11.0,-11.0,
2112.0,2091.0,11.0,-11.0,
2083.0,2095.0,11.0,-11.0,
2054.0,2083.0,11.0,-11.0,
2054.0,2092.0,11.0,-11.0,
2062.0,2082.0,11.0,-11.0,
2092.0,2088.0,11.0,-11.0,
2076.0,2089.0,11.0,-11.0,
2087.0,2094.0,11.0,-11.0,
2085.0,2099.0,11.0,-11.0,
2099.0,2101.0,11.0,-11.0,
2078.0,2086.0,11.0,-11.0,
2042.0,2083.0,11.0,-11.0,
2052.0,2073.0,11.0,-11.0,
2063.0,2081.0,11.0,-11.0,
2091.0,2090.0,11.0,-11.0,
2066.0,2086.0,11.0,-11.0,
2065.0,2087.0,11.0,-11.0,
2070.0,2086.0,11.0,-11.0,
2094.0,2101.0,11.0,-11.0,
2070.0,2067.0,11.0,-11.0,
2066.0,2076.0,11.0,-11.0,
2054.0,2076.0,11.0,-11.0,
2069.0,2125.0,11.0,-11.0,
2076.0,2135.0,11.0,-11.0,
2053.0,2085.0,11.0,-11.0,
2061.0,2094.0,11.0,-11.0,
2071.0,2095.0,11.0,-11.0,
2086.0,2093.0,11.0,-11.0,
2077.0,2079.0,11.0,-11.0,
2053.0,2092.0,11.0,-11.0,
2051.0,2085.0,11.0,-11.0,
2058.0,2076.0,11.0,-11.0,
2091.0,2067.0,11.0,-11.0,
2069.0,2106.0,11.0,-11.0,
2064.0,2000.0,11.0,-11.0,
2067.0,2058.0,11.0,-11.0,
2099.0,2112.0,11.0,-11.0,
2059.0,2025.0,11.0,-11.0,
2038.0,2056.0,11.0,-11.0,
2042.0,2138.0,11.0,-11.0,
2093.0,2136.0,11.0,-11.0,
2106.0,2075.0,11.0,-11.0,
2080.0,2128.0,11.0,-11.0,
2055.0,2086.0,11.0,-11.0,
2036.0,2056.0,11.0,-11.0,
2075.0,2097.0,11.0,-11.0,
2053.0,2146.0,11.0,-11.0,
2031.0,2136.0,10.0,-11.0,
2089.0,2035.0,10.0,-11.0,
2096.0,1919.0,10.0,-11.0,
2066.0,1957.0,10.0,-11.0,
2046.0,2058.0,10.0,-11.0,
2080.0,2247.0,10.0,-11.0,
2077.0,2163.0,10.0,-11.0,
2118.0,2189.0,10.0,-11.0,
2122.0,2318.0,10.0,-11.0,
2092.0,2319.0,10.0,-11.0,
2108.0,2198.0,9.0,-11.0,
2088.0,2182.0,9.0,-12.0,
2093.0,2116.0,9.0,-12.0,
2067.0,2071.0,9.0,-12.0,
2060.0,2081.0,8.0,-12.0,
2081.0,2070.0,8.0,-12.0,
2091.0,2032.0,8.0,-12.0,
2070.0,2024.0,8.0,-12.0,
2047.0,2018.0,7.0,-12.0,
2043.0,2020.0,7.0,-12.0,
2055.0,2044.0,7.0,-12.0,
2083.0,2037.0,8.0,-12.0,
2063.0,2060.0,8.0,-12.0,
2051.0,2074.0,8.0,-12.0,
2053.0,2100.0,8.0,-12.0,
2057.0,2005.0,9.0,-12.0,
2062.0,2010.0,9.0,-12.0,
2030.0,2032.0,10.0,-12.0,
2038.0,2074.0,10.0,-11.0,
2045.0,2086.0,10.0,-11.0,
2085.0,2065.0,10.0,-11.0,
2036.0,2017.0,11.0,-11.0,
2053.0,2089.0,11.0,-11.0,
2074.0,2111.0,11.0,-11.0,
2083.0,2121.0,12.0,-11.0,
2061.0,2101.0,12.0,-11.0,
2042.0,2098.0,13.0,-11.0,
2042.0,2136.0,13.0,-11.0,
2038.0,2131.0,13.0,-11.0,
2080.0,2126.0,13.0,-11.0,
2060.0,2016.0,13.0,-11.0,
2078.0,2102.0,13.0,-11.0,
2080.0,2099.0,13.0,-11.0,
2095.0,2069.0,13.0,-11.0,
2084.0,2098.0,13.0,-11.0,
2056.0,2126.0,13.0,-11.0,
2051.0,2142.0,12.0,-11.0,
2074.0,2096.0,12.0,-11.0,
2085.0,2115.0,12.0,-11.0,
2059.0,2127.0,13.0,-11.0,
2069.0,2099.0,13.0,-11.0,
2080.0,2041.0,14.0,-11.0,
2094.0,2050.0,14.0,-11.0,
2077.0,2144.0,14.0,-11.0,
2048.0,2085.0,14.0,-11.0,
2048.0,2076.0,14.0,-11.0,
2059.0,2041.0,14.0,-11.0,
2084.0,2041.0,15.0,-11.0,
2067.0,2026.0,15.0,-11.0,
2069.0,2173.0,15.0,-11.0,
2053.0,2121.0,15.0,-10.0,
2073.0,2132.0,15.0,-10.0,
2072.0,2106.0,15.0,-10.0,
2027.0,2116.0,15.0,-10.0,
2043.0,2106.0,15.0,-10.0,
2068.0,2031.0,15.0,-10.0,
2094.0,2121.0,15.0,-10.0,
2071.0,2154.0,15.0,-10.0,
2066.0,2145.0,15.0,-10.0,
2084.0,2095.0,15.0,-10.0,
2091.0,2085.0,15.0,-10.0,
2064.0,2083.0,15.0,-10.0,
2056.0,1991.0,15.0,-10.0,
2061.0,2029.0,15.0,-10.0,
2049.0,2163.0,15.0,-10.0,
2069.0,2148.0,15.0,-10.0,
2045.0,2062.0,14.0,-10.0,
2088.0,1994.0,14.0,-10.0,
2081.0,2133.0,14.0,-10.0,
2086.0,2118.0,14.0,-10.0,
2115.0,2134.0,14.0,-10.0,
2070.0,2124.0,14.0,-10.0,
2062.0,2150.0,14.0,-10.0,
2129.0,2166.0,14.0,-10.0,
2115.0,2084.0,14.0,-10.0,
2060.0,2036.0,14.0,-10.0,
2056.0,2059.0,14.0,-10.0,
2073.0,2083.0,14.0,-10.0,
2102.0,2097.0,13.0,-10.0,
2080.0,2060.0,13.0,-10.0,
2046.0,2036.0,13.0,-11.0,
2036.0,2031.0,13.0,-11.0,
2028.0,2032.0,13.0,-11.0,
2035.0,2060.0,13.0,-11.0,
2038.0,1990.0,13.0,-11.0,
2017.0,2038.0,13.0,-11.0,
2025.0,2090.0,13.0,-11.0,
2107.0,2201.0,13.0,-11.0,
2142.0,2253.0,13.0,-11.0,
2089.0,2208.0,13.0,-11.0,
2077.0,2241.0,13.0,-11.0,
2074.0,2152.0,13.0,-11.0,
2104.0,2030.0,13.0,-11.0,
2046.0,1928.0,13.0,-11.0,
2070.0,2006.0,14.0,-11.0,
2066.0,2014.0,14.0,-11.0,
2094.0,2049.0,14.0,-11.0,
2085.0,2081.0,14.0,-11.0,
2035.0,2092.0,14.0,-11.0,
2042.0,2050.0,15.0,-10.0,
2068.0,2092.0,15.0,-10.0,
2083.0,2036.0,15.0,-10.0,
2051.0,2121.0,15.0,-10.0,
2051.0,2110.0,15.0,-10.0,
2078.0,2077.0,15.0,-10.0,
2085.0,2123.0,16.0,-10.0,
2086.0,2122.0,16.0,-10.0,
2044.0,2072.0,16.0,-10.0,
2058.0,2132.0,16.0,-10.0,
2050.0,2093.0,16.0,-10.0,
2082.0,2060.0,16.0,-10.0,
2080.0,2033.0,16.0,-10.0,
2071.0,2064.0,16.0,-10.0,
2047.0,2182.0,16.0,-10.0,
2076.0,2147.0,16.0,-10.0,
2097.0,2102.0,16.0,-10.0,
2066.0,2019.0,16.0,-10.0,
2051.0,2022.0,16.0,-10.0,
2041.0,2132.0,16.0,-10.0,
2073.0,2123.0,16.0,-10.0,
2063.0,2151.0,16.0,-10.0,
2092.0,2118.0,15.0,-10.0,
2090.0,2130.0,15.0,-9.0,
2115.0,2126.0,15.0,-9.0,
2096.0,2096.0,15.0,-9.0,
2042.0,2020.0,15.0,-9.0,
2041.0,1961.0,15.0,-9.0,
2039.0,2143.0,15.0,-9.0,
2068.0,2134.0,15.0,-9.0,
2074.0,2135.0,15.0,-9.0,
2076.0,2098.0,15.0,-9.0,
2071.0,2026.0,16.0,-9.0,
2085.0,2074.0,16.0,-9.0,
2081.0,2077.0,16.0,-9.0,
2056.0,2136.0,16.0,-9.0,
2048.0,2171.0,17.0,-9.0,
2076.0,2115.0,17.0,-9.0,
2108.0,2070.0,17.0,-9.0,
2057.0,2146.0,18.0,-9.0,
2081.0,2086.0,18.0,-9.0,
2066.0,2014.0,18.0,-9.0,
2051.0,2080.0,18.0,-9.0,
2078.0,2113.0,19.0,-9.0,
2052.0,2079.0,19.0,-9.0,
2039.0,2075.0,19.0,-9.0,
2074.0,2118.0,19.0,-9.0,
2090.0,2139.0,20.0,-9.0,
2084.0,2118.0,20.0,-9.0,
2072.0,2084.0,20.0,-9.0,
2082.0,2077.0,20.0,-9.0,
2091.0,2080.0,20.0,-9.0,
2096.0,2095.0,20.0,-9.0,
2051.0,2055.0,20.0,-9.0,
2045.0,2140.0,20.0,-9.0,
2044.0,2069.0,20.0,-9.0,
2080.0,2032.0,20.0,-9.0,
2081.0,2065.0,20.0,-9.0,
2075.0,2040.0,20.0,-9.0,
2086.0,2081.0,20.0,-9.0,
2088.0,2169.0,20.0,-9.0,
2078.0,2171.0,20.0,-9.0,
2054.0,2087.0,20.0,-9.0,
2063.0,2077.0,20.0,-9.0,
2063.0,2087.0,20.0,-9.0,
2104.0,2014.0,20.0,-9.0,
2086.0,1996.0,20.0,-9.0,
2077.0,2122.0,20.0,-9.0,
2061.0,2148.0,20.0,-9.0,
2070.0,2105.0,20.0,-9.0,
2071.0,2043.0,20.0,-9.0,
2030.0,2122.0,20.0,-9.0,
2012.0,2043.0,20.0,-9.0,
2049.0,2212.0,20.0,-9.0,
2095.0,2166.0,20.0,-9.0,
2071.0,2109.0,20.0,-9.0,
2074.0,2050.0,20.0,-8.0,
2080.0,2041.0,20.0,-8.0,
2064.0,2070.0,20.0,-9.0,
2057.0,2135.0,20.0,-8.0,
2062.0,2144.0,20.0,-8.0,
2058.0,2082.0,20.0,-9.0,
2083.0,2094.0,20.0,-8.0,
2123.0,2115.0,20.0,-8.0,
2085.0,2059.0,20.0,-8.0,
2072.0,2070.0,20.0,-8.0,
2096.0,2111.0,20.0,-8.0,
2112.0,2122.0,20.0,-8.0,
2111.0,2117.0,20.0,-8.0,
2070.0,2141.0,20.0,-8.0,
2051.0,2123.0,20.0,-8.0,
2065.0,2050.0,20.0,-8.0,
2080.0,2043.0,21.0,-8.0,
2070.0,2063.0,21.0,-8.0,
2087.0,2104.0,21.0,-8.0,
2075.0,2085.0,21.0,-8.0,
2080.0,2083.0,21.0,-9.0,
2069.0,2093.0,21.0,-9.0,
2046.0,2069.0,22.0,-9.0,
2062.0,2068.0,22.0,-9.0,
2049.0,2042.0,22.0,-9.0,
2074.0,2114.0,22.0,-9.0,
2073.0,2102.0,22.0,-9.0,
2054.0,2112.0,22.0,-9.0,
2065.0,1978.0,22.0,-9.0,
2083.0,2081.0,22.0,-9.0,
2093.0,2084.0,22.0,-9.0,
2049.0,2143.0,22.0,-9.0,
2060.0,2096.0,22.0,-9.0,
2058.0,2028.0,22.0,-9.0,
2091.0,2110.0,22.0,-9.0,
2075.0,2119.0,22.0,-9.0,
2061.0,2064.0,22.0,-8.0,
2068.0,2198.0,22.0,-8.0,
2105.0,2058.0,21.0,-8.0,
2095.0,2143.0,21.0,-8.0,
2055.0,2126.0,21.0,-8.0,
2029.0,2099.0,21.0,-8.0,
2055.0,2074.0,21.0,-8.0,
2089.0,2040.0,21.0,-8.0,
2062.0,2046.0,21.0,-8.0,
2052.0,2083.0,21.0,-8.0,
2043.0,2123.0,21.0,-8.0,
2055.0,2140.0,21.0,-8.0,
2092.0,2092.0,21.0,-8.0,
2063.0,2109.0,21.0,-8.0,
2055.0,2113.0,21.0,-8.0,
2084.0,2058.0,21.0,-8.0,
2068.0,2032.0,22.0,-8.0,
2093.0,2257.0,22.0,-8.0,
2100.0,2198.0,22.0,-8.0,
2083.0,2171.0,22.0,-8.0,
2104.0,2115.0,23.0,-8.0,
2089.0,2138.0,23.0,-8.0,
2084.0,2129.0,23.0,-8.0,
2054.0,2048.0,23.0,-8.0,
2057.0,2052.0,23.0,-8.0,
2085.0,2022.0,24.0,-8.0,
2059.0,2075.0,24.0,-8.0,
2050.0,2071.0,24.0,-8.0,
2079.0,2059.0,25.0,-8.0,
2082.0,2120.0,25.0,-8.0,
2074.0,2081.0,25.0,-8.0,
2048.0,2010.0,25.0,-8.0,
2036.0,1979.0,25.0,-8.0,
2046.0,1993.0,25.0,-8.0,
2090.0,2115.0,26.0,-8.0,
2051.0,2108.0,26.0,-8.0,
2070.0,2135.0,26.0,-8.0,
2071.0,2128.0,26.0,-8.0,
2096.0,2136.0,26.0,-8.0,
2054.0,2136.0,26.0,-8.0,
2046.0,1992.0,26.0,-8.0,
2034.0,2019.0,26.0,-8.0,
2061.0,2013.0,26.0,-8.0,
2069.0,2052.0,26.0,-8.0,
2076.0,2098.0,26.0,-8.0,
2079.0,2155.0,26.0,-8.0,
2095.0,2115.0,26.0,-8.0,
2106.0,2153.0,26.0,-8.0,
2067.0,2149.0,27.0,-8.0,
2064.0,2122.0,27.0,-8.0,
2059.0,2063.0,27.0,-8.0,
2078.0,2090.0,27.0,-8.0,
2066.0,2054.0,27.0,-8.0,
2051.0,2084.0,27.0,-8.0,
2070.0,2086.0,27.0,-8.0,
2114.0,2098.0,27.0,-8.0,
2104.0,2023.0,27.0,-8.0,
2029.0,2114.0,28.0,-8.0,
2026.0,2114.0,28.0,-8.0,
2044.0,2113.0,28.0,-8.0,
2101.0,2139.0,28.0,-8.0,
2065.0,2047.0,28.0,-8.0,
2067.0,2120.0,28.0,-8.0,
2060.0,2123.0,28.0,-8.0,
2155.0,2111.0,28.0,-8.0,
2082.0,2109.0,28.0,-8.0,
2054.0,2122.0,28.0,-8.0,
2061.0,2129.0,28.0,-8.0,
2062.0,2053.0,29.0,-8.0,
2087.0,2176.0,29.0,-8.0,
2075.0,2116.0,29.0,-8.0,
2076.0,2101.0,29.0,-8.0,
2119.0,2135.0,29.0,-8.0,
2096.0,2071.0,29.0,-8.0,
2048.0,2016.0,29.0,-8.0,
2032.0,2044.0,30.0,-8.0,
2040.0,2094.0,30.0,-8.0,
2113.0,2157.0,30.0,-8.0,
2106.0,2082.0,30.0,-8.0,
2082.0,2077.0,30.0,-8.0,
2077.0,1983.0,30.0,-8.0,
2093.0,2132.0,30.0,-8.0,
2088.0,1998.0,30.0,-8.0,
2060.0,2066.0,30.0,-8.0,
2040.0,2156.0,30.0,-8.0,
2049.0,2106.0,30.0,-8.0,
2075.0,2098.0,30.0,-8.0,
2078.0,2026.0,30.0,-8.0,
2083.0,2056.0,30.0,-8.0,
2065.0,2014.0,31.0,-8.0,
2103.0,2080.0,31.0,-8.0,
2069.0,2225.0,31.0,-8.0,
2064.0,2172.0,31.0,-7.0,
2074.0,2099.0,31.0,-7.0,
2067.0,2063.0,31.0,-7.0,
2088.0,2018.0,31.0,-7.0,
2062.0,2079.0,31.0,-7.0,
2060.0,2088.0,31.0,-7.0,
2051.0,2129.0,31.0,-7.0,
2075.0,2105.0,31.0,-7.0,
2060.0,2167.0,31.0,-7.0,
2063.0,2077.0,31.0,-7.0,
2049.0,2053.0,31.0,-7.0,
2081.0,2007.0,31.0,-7.0,
2084.0,2013.0,31.0,-7.0,
2087.0,2138.0,31.0,-7.0,
2074.0,2116.0,31.0,-7.0,
2086.0,2121.0,31.0,-7.0,
2121.0,2145.0,31.0,-7.0,
2059.0,2133.0,31.0,-7.0,
2062.0,2091.0,32.0,-7.0,
2063.0,2078.0,32.0,-7.0,
2098.0,2074.0,32.0,-7.0,
2073.0,2112.0,32.0,-7.0,
2061.0,2075.0,32.0,-7.0,
2067.0,1986.0,32.0,-7.0,
2110.0,2088.0,32.0,-7.0,
2079.0,2140.0,33.0,-7.0,
2029.0,2105.0,33.0,-7.0,
2039.0,2067.0,33.0,-8.0,
2071.0,2075.0,33.0,-8.0,
2068.0,2139.0,33.0,-8.0,
2050.0,2085.0,33.0,-8.0,
2056.0,2137.0,33.0,-8.0,
2067.0,2040.0,33.0,-8.0,
2095.0,2072.0,33.0,-8.0,
2052.0,2055.0,34.0,-8.0,
2063.0,2043.0,34.0,-7.0,
2046.0,2052.0,34.0,-7.0,
2081.0,2089.0,34.0,-7.0,
2085.0,2137.0,34.0,-7.0,
2073.0,2032.0,34.0,-7.0,
2075.0,2011.0,35.0,-7.0,
2087.0,2075.0,35.0,-7.0,
2078.0,2281.0,35.0,-8.0,
2055.0,2069.0,35.0,-8.0,
2035.0,2097.0,35.0,-8.0,
2058.0,2114.0,35.0,-8.0,
2075.0,2079.0,36.0,-8.0,
2066.0,2125.0,36.0,-8.0,
2098.0,2062.0,36.0,-8.0,
2076.0,2045.0,35.0,-8.0,
2099.0,2166.0,35.0,-8.0,
2081.0,2020.0,35.0,-8.0,
2028.0,2017.0,36.0,-8.0,
2053.0,2133.0,36.0,-8.0,
2046.0,2147.0,37.0,-8.0,
2087.0,2194.0,37.0,-8.0,
2098.0,2125.0,38.0,-8.0,
2094.0,2055.0,38.0,-7.0,
2081.0,2065.0,38.0,-7.0,
2102.0,2061.0,38.0,-7.0,
2078.0,2159.0,39.0,-7.0,
2054.0,2069.0,39.0,-7.0,
2044.0,2068.0,38.0,-7.0,
2089.0,2007.0,38.0,-7.0,
2083.0,2110.0,37.0,-7.0,
2070.0,2137.0,37.0,-7.0,
2060.0,2114.0,37.0,-7.0,
2090.0,2118.0,37.0,-7.0,
2071.0,2135.0,37.0,-7.0,
2055.0,2145.0,37.0,-7.0,
2064.0,2070.0,37.0,-7.0,
2075.0,2101.0,37.0,-7.0,
2080.0,2065.0,38.0,-7.0,
2069.0,2070.0,38.0,-7.0,
2063.0,2113.0,38.0,-7.0,
2071.0,2070.0,38.0,-7.0,
2090.0,2080.0,38.0,-7.0,
2124.0,2032.0,38.0,-7.0,
2068.0,2174.0,38.0,-7.0,
2045.0,2134.0,38.0,-7.0,
2053.0,2038.0,39.0,-7.0,
2083.0,2109.0,39.0,-7.0,
2074.0,2034.0,39.0,-7.0,
2057.0,2033.0,39.0,-7.0,
2065.0,2041.0,39.0,-7.0,
2080.0,2062.0,39.0,-7.0,
2106.0,2136.0,39.0,-7.0,
2080.0,2115.0,39.0,-7.0,
2073.0,2096.0,39.0,-7.0,
2067.0,2098.0,39.0,-7.0,
2092.0,2185.0,39.0,-7.0,
2058.0,2003.0,39.0,-7.0,
2057.0,1990.0,39.0,-7.0,
2069.0,2169.0,39.0,-7.0,
2111.0,2123.0,39.0,-8.0,
2075.0,2137.0,40.0,-8.0,
2024.0,2173.0,40.0,-8.0,
2017.0,2049.0,40.0,-8.0,
2051.0,2096.0,40.0,-8.0,
2060.0,2081.0,40.0,-8.0,
2081.0,2049.0,40.0,-8.0,
2107.0,2097.0,40.0,-8.0,
2101.0,1963.0,40.0,-8.0,
2127.0,2102.0,41.0,-8.0,
2044.0,2155.0,41.0,-8.0,
2068.0,2120.0,41.0,-8.0,
2068.0,2109.0,41.0,-8.0,
2080.0,2122.0,41.0,-8.0,
2089.0,2085.0,41.0,-8.0,
2061.0,2105.0,41.0,-8.0,
2067.0,2103.0,42.0,-8.0,
2102.0,2074.0,42.0,-8.0,
2100.0,2046.0,43.0,-7.0,
2046.0,2071.0,43.0,-7.0,
2041.0,2071.0,43.0,-7.0,
2084.0,2068.0,43.0,-7.0,
2078.0,2157.0,43.0,-7.0,
2065.0,2099.0,43.0,-7.0,
2065.0,2091.0,43.0,-7.0,
2076.0,2086.0,43.0,-7.0,
2098.0,2106.0,43.0,-7.0,
2089.0,2084.0,42.0,-7.0,
2051.0,2056.0,42.0,-7.0,
2064.0,2036.0,42.0,-7.0,
2088.0,1945.0,43.0,-7.0,
2080.0,2127.0,43.0,-7.0,
2053.0,2170.0,43.0,-7.0,
2060.0,2079.0,43.0,-7.0,
2077.0,2011.0,43.0,-7.0,
2096.0,2128.0,43.0,-7.0,
2077.0,2214.0,43.0,-7.0,
2056.0,2171.0,43.0,-7.0,
2027.0,2055.0,43.0,-7.0,
2075.0,2061.0,43.0,-7.0,
2087.0,2022.0,43.0,-7.0,
2057.0,2140.0,43.0,-7.0,
2086.0,2154.0,44.0,-7.0,
2077.0,2149.0,44.0,-7.0,
2113.0,2184.0,44.0,-7.0,
2064.0,2081.0,44.0,-7.0,
2048.0,2069.0,44.0,-7.0,
2050.0,2069.0,44.0,-7.0,
2080.0,1990.0,44.0,-7.0,
2054.0,2060.0,44.0,-7.0,
2036.0,2115.0,44.0,-7.0,
2057.0,2142.0,44.0,-7.0,
2078.0,2096.0,44.0,-7.0,
2061.0,2134.0,44.0,-8.0,
2083.0,2076.0,44.0,-7.0,
2061.0,2045.0,44.0,-7.0,
2071.0,2094.0,44.0,-7.0,
2078.0,2055.0,45.0,-7.0,
2048.0,2058.0,45.0,-8.0,
2058.0,2094.0,45.0,-8.0,
2102.0,2029.0,45.0,-8.0,
2098.0,2136.0,45.0,-7.0,
2069.0,2144.0,45.0,-7.0,
2055.0,2033.0,45.0,-7.0,
2051.0,2040.0,45.0,-8.0,
2063.0,2138.0,46.0,-8.0,
2094.0,2162.0,46.0,-7.0,
2068.0,2080.0,46.0,-8.0,
2076.0,2005.0,46.0,-8.0,
2095.0,2061.0,46.0,-7.0,
2118.0,2084.0,46.0,-7.0,
2078.0,2115.0,46.0,-7.0,
2061.0,2110.0,46.0,-7.0,
2051.0,2100.0,46.0,-7.0,
2059.0,2107.0,46.0,-7.0,
2081.0,2024.0,46.0,-8.0,
2064.0,2077.0,46.0,-8.0,
2069.0,2186.0,46.0,-8.0,
2093.0,2121.0,46.0,-8.0,
2107.0,2177.0,46.0,-7.0,
2052.0,2058.0,46.0,-7.0,
2061.0,2007.0,46.0,-8.0,
2045.0,2140.0,46.0,-8.0,
2076.0,2106.0,46.0,-7.0,
2070.0,2087.0,46.0,-7.0,
2065.0,2123.0,47.0,-7.0,
2072.0,2058.0,47.0,-7.0,
2076.0,1961.0,47.0,-7.0,
2083.0,2123.0,47.0,-8.0,
2021.0,2088.0,47.0,-8.0,
2076.0,2166.0,47.0,-8.0,
2054.0,2094.0,47.0,-8.0,
2097.0,2105.0,48.0,-8.0,
2092.0,2142.0,48.0,-8.0,
2066.0,2073.0,48.0,-8.0,
2073.0,2067.0,48.0,-8.0,
2087.0,1957.0,48.0,-7.0,
2070.0,2134.0,48.0,-7.0,
2052.0,2219.0,48.0,-7.0,
2091.0,2145.0,48.0,-7.0,
2075.0,2105.0,48.0,-7.0,
2064.0,2110.0,48.0,-7.0,
2040.0,1987.0,48.0,-7.0,
2088.0,2083.0,48.0,-8.0,
2117.0,2168.0,48.0,-8.0,
2112.0,1966.0,49.0,-8.0,
2035.0,2067.0,49.0,-8.0,
2044.0,2035.0,49.0,-8.0,
2041.0,2075.0,49.0,-9.0,
2059.0,2138.0,49.0,-9.0,
2099.0,2151.0,49.0,-9.0,
2090.0,2105.0,49.0,-8.0,
2059.0,2025.0,49.0,-8.0,
2093.0,2076.0,49.0,-8.0,
2100.0,2123.0,49.0,-8.0,
2050.0,2154.0,49.0,-8.0,
2060.0,2113.0,49.0,-8.0,
2053.0,2104.0,49.0,-8.0,
2063.0,2040.0,49.0,-7.0,
2104.0,2082.0,49.0,-7.0,
2086.0,2079.0,50.0,-7.0,
2093.0,2086.0,50.0,-8.0,
2077.0,2103.0,50.0,-8.0,
2076.0,2027.0,50.0,-8.0,
2039.0,2080.0,50.0,-8.0,
2051.0,2138.0,50.0,-8.0,
2077.0,2074.0,50.0,-8.0,
2133.0,2097.0,50.0,-8.0,
2068.0,2093.0,50.0,-8.0,
2056.0,2177.0,50.0,-8.0,
2097.0,2100.0,50.0,-8.0,
2112.0,2095.0,50.0,-8.0,
2052.0,2121.0,50.0,-8.0,
2058.0,2044.0,51.0,-8.0,
2054.0,2157.0,51.0,-8.0,
2077.0,2064.0,51.0,-8.0,
2086.0,2178.0,51.0,-8.0,
2056.0,2119.0,51.0,-8.0,
2068.0,2067.0,51.0,-7.0,
2098.0,1967.0,51.0,-8.0,
2078.0,2200.0,51.0,-8.0,
2033.0,2064.0,51.0,-8.0,
2070.0,2044.0,51.0,-8.0,
2065.0,1942.0,51.0,-8.0,
2092.0,2150.0,51.0,-8.0,
2056.0,2198.0,51.0,-8.0,
2057.0,2063.0,51.0,-8.0,
2045.0,2087.0,51.0,-8.0,
2097.0,2080.0,51.0,-8.0,
2100.0,2140.0,51.0,-8.0,
2056.0,2087.0,51.0,-8.0,
2053.0,2081.0,51.0,-8.0,
2056.0,2061.0,51.0,-8.0,
2114.0,2054.0,51.0,-8.0,
2038.0,1981.0,52.0,-8.0,
2054.0,2055.0,52.0,-8.0,
2086.0,2107.0,52.0,-8.0,
2087.0,2136.0,52.0,-7.0,
2078.0,2119.0,52.0,-7.0,
2061.0,2104.0,52.0,-7.0,
2044.0,2136.0,53.0,-8.0,
2083.0,2069.0,53.0,-8.0,
2104.0,2196.0,53.0,-8.0,
2068.0,2097.0,53.0,-8.0,
2094.0,2102.0,53.0,-8.0,
2107.0,2113.0,53.0,-8.0,
2095.0,2062.0,53.0,-8.0,
2060.0,1977.0,53.0,-8.0,
2057.0,2169.0,53.0,-8.0,
2053.0,2167.0,53.0,-8.0,
2097.0,2005.0,53.0,-8.0,
2081.0,1944.0,53.0,-7.0,
2045.0,2220.0,53.0,-8.0,
2071.0,2165.0,54.0,-8.0,
2101.0,2063.0,54.0,-8.0,
2078.0,2127.0,54.0,-8.0,
2038.0,2085.0,54.0,-8.0,
2067.0,2087.0,54.0,-8.0,
2063.0,1958.0,54.0,-8.0,
2070.0,1924.0,54.0,-8.0,
2061.0,2018.0,54.0,-8.0,
2073.0,2217.0,54.0,-8.0,
2063.0,2201.0,54.0,-8.0,
2085.0,2025.0,54.0,-8.0,
2079.0,2151.0,54.0,-8.0,
2063.0,2129.0,54.0,-8.0,
2070.0,2010.0,54.0,-8.0,
2087.0,2072.0,54.0,-8.0,
2082.0,2070.0,54.0,-8.0,
2056.0,2159.0,54.0,-8.0,
2057.0,2061.0,55.0,-8.0,
2093.0,2172.0,55.0,-8.0,
2094.0,2093.0,55.0,-8.0,
2042.0,2096.0,55.0,-9.0,
2049.0,2068.0,55.0,-9.0,
2057.0,2099.0,55.0,-8.0,
2107.0,2086.0,55.0,-8.0,
2083.0,2115.0,55.0,-7.0,
2071.0,2106.0,55.0,-7.0,
2075.0,2057.0,55.0,-7.0,
2087.0,2113.0,55.0,-7.0,
2087.0,2068.0,55.0,-7.0,
2060.0,2130.0,56.0,-7.0,
2056.0,2047.0,56.0,-7.0,
2065.0,2111.0,56.0,-7.0,
2101.0,2157.0,56.0,-8.0,
2063.0,2091.0,56.0,-8.0,
2070.0,2046.0,56.0,-8.0,
2083.0,2059.0,56.0,-8.0,
2113.0,2045.0,56.0,-8.0,
2068.0,2142.0,56.0,-8.0,
2062.0,2095.0,56.0,-8.0,
2078.0,2073.0,56.0,-8.0,
2109.0,2062.0,57.0,-8.0,
2103.0,1941.0,57.0,-8.0,
2053.0,2117.0,57.0,-8.0,
2089.0,2043.0,57.0,-8.0,
2083.0,2200.0,57.0,-8.0,
2085.0,2129.0,57.0,-8.0,
2050.0,2075.0,57.0,-8.0,
2054.0,2111.0,57.0,-8.0,
2045.0,1992.0,57.0,-8.0,
2080.0,2161.0,57.0,-8.0,
2074.0,2103.0,57.0,-8.0,
2042.0,2133.0,57.0,-8.0,
2072.0,2151.0,57.0,-8.0,
2088.0,2071.0,57.0,-8.0,
2088.0,2065.0,57.0,-8.0,
2062.0,2031.0,57.0,-8.0,
2072.0,2200.0,57.0,-8.0,
2047.0,2145.0,57.0,-8.0,
2077.0,1889.0,58.0,-8.0,
2078.0,2144.0,58.0,-8.0,
2052.0,2052.0,58.0,-8.0,
2075.0,2011.0,58.0,-8.0,
2079.0,2156.0,58.0,-8.0,
2085.0,2085.0,58.0,-8.0,
2093.0,2258.0,58.0,-8.0,
2073.0,2077.0,58.0,-8.0,
2062.0,2087.0,58.0,-8.0,
2065.0,1977.0,58.0,-8.0,
2056.0,2119.0,58.0,-8.0,
2089.0,2068.0,58.0,-8.0,
2085.0,2122.0,58.0,-8.0,
2105.0,2185.0,59.0,-8.0,
2061.0,2183.0,59.0,-8.0,
2077.0,2113.0,59.0,-8.0,
2082.0,2045.0,59.0,-8.0,
2092.0,2123.0,59.0,-8.0,
2083.0,2103.0,59.0,-8.0,
2064.0,2100.0,59.0,-8.0,
2083.0,2068.0,59.0,-8.0,
2099.0,1963.0,59.0,-8.0,
2085.0,2076.0,59.0,-8.0,
2047.0,2140.0,59.0,-9.0,
2050.0,2006.0,60.0,-9.0,
2051.0,2128.0,60.0,-9.0,
2082.0,2078.0,60.0,-8.0,
2076.0,1950.0,60.0,-8.0,
2055.0,2113.0,60.0,-8.0,
2058.0,2246.0,60.0,-8.0,
2073.0,2132.0,60.0,-9.0,
2064.0,2098.0,61.0,-9.0,
2040.0,2122.0,61.0,-8.0,
2049.0,2103.0,61.0,-8.0,
2061.0,2068.0,60.0,-8.0,
2082.0,2102.0,61.0,-9.0,
2071.0,2010.0,61.0,-9.0,
2057.0,2069.0,61.0,-8.0,
2033.0,2145.0,61.0,-8.0,
2073.0,2041.0,61.0,-8.0,
2054.0,2138.0,61.0,-8.0,
2052.0,2102.0,61.0,-8.0,
2070.0,2100.0,61.0,-8.0,
2070.0,2102.0,61.0,-8.0,
2074.0,2093.0,61.0,-8.0,
2069.0,2148.0,61.0,-8.0,
2075.0,2170.0,61.0,-9.0,
2101.0,2092.0,61.0,-9.0,
2097.0,2036.0,61.0,-9.0,
2065.0,2076.0,62.0,-9.0,
2058.0,2042.0,0,
2064.0,1982.0,62.0,-9.0,
2111.0,2087.0,62.0,-9.0,
2085.0,2195.0,62.0,-9.0,
2061.0,2151.0,62.0,-9.0,
2088.0,2131.0,62.0,-8.0,
2093.0,1930.0,62.0,-8.0,
2059.0,2141.0,62.0,-8.0,
2017.0,1994.0,63.0,-8.0,
2043.0,2149.0,63.0,-9.0,
2081.0,2102.0,63.0,-9.0,
2119.0,2175.0,63.0,-9.0,
2072.0,2048.0,63.0,-9.0,
2059.0,2120.0,63.0,-9.0,
2092.0,2066.0,63.0,-9.0,
2106.0,2049.0,63.0,-9.0,
2071.0,2172.0,64.0,-8.0,
2040.0,2159.0,64.0,-8.0,
2060.0,2145.0,64.0,-8.0,
2074.0,1932.0,64.0,-9.0,
2117.0,2005.0,64.0,-9.0,
2063.0,2151.0,64.0,-9.0,
2035.0,2059.0,64.0,-9.0,
2092.0,2230.0,64.0,-9.0,
2075.0,2126.0,65.0,-9.0,
2029.0,2017.0,65.0,-8.0,
2057.0,2091.0,65.0,-8.0,
2058.0,2101.0,65.0,-8.0,
2104.0,2125.0,65.0,-8.0,
2078.0,2042.0,65.0,-8.0,
2060.0,2119.0,65.0,-8.0,
2070.0,2043.0,65.0,-8.0,
2087.0,2125.0,65.0,-8.0,
2094.0,2089.0,65.0,-8.0,
2059.0,2001.0,65.0,-8.0,
2049.0,1951.0,65.0,-9.0,
2094.0,2138.0,65.0,-9.0,
2104.0,2158.0,66.0,-9.0,
2066.0,2108.0,66.0,-8.0,
2066.0,2201.0,66.0,-8.0,
2071.0,2064.0,66.0,-8.0,
2101.0,1999.0,66.0,-8.0,
2049.0,1898.0,66.0,-8.0,
2049.0,2123.0,66.0,-8.0,
2067.0,2082.0,66.0,-8.0,
2078.0,2151.0,66.0,-8.0,
2067.0,2201.0,66.0,-8.0,
2094.0,2222.0,66.0,-8.0,
2039.0,2097.0,66.0,-9.0,
2090.0,2069.0,67.0,-9.0,
2121.0,2127.0,67.0,-9.0,
2070.0,1968.0,67.0,-9.0,
2058.0,2271.0,67.0,-9.0,
2034.0,2110.0,67.0,-9.0,
2081.0,2113.0,67.0,-8.0,
2090.0,1978.0,67.0,-9.0,
2087.0,2146.0,67.0,-8.0,
2103.0,2158.0,67.0,-8.0,
2075.0,2050.0,67.0,-8.0,
2083.0,2041.0,67.0,-9.0,
2073.0,2071.0,67.0,-9.0,
2062.0,2148.0,67.0,-8.0,
2071.0,2007.0,67.0,-8.0,
2098.0,2229.0,68.0,-8.0,
2068.0,2119.0,68.0,-8.0,
2073.0,2064.0,68.0,-8.0,
2092.0,2081.0,68.0,-8.0,
2108.0,2067.0,68.0,-8.0,
2070.0,2072.0,68.0,-8.0,
2044.0,2130.0,68.0,-8.0,
2060.0,1923.0,69.0,-8.0,
2062.0,2191.0,69.0,-9.0,
2069.0,2080.0,69.0,-9.0,
2052.0,2105.0,69.0,-9.0,
2071.0,2108.0,69.0,-9.0,
2090.0,1932.0,69.0,-9.0,
2080.0,2151.0,69.0,-9.0,
2049.0,2076.0,69.0,-9.0,
2049.0,2167.0,70.0,-9.0,
2079.0,2066.0,70.0,-9.0,
2065.0,2144.0,70.0,-8.0,
2068.0,2091.0,70.0,-8.0,
2074.0,1963.0,70.0,-8.0,
2023.0,2078.0,70.0,-8.0,
2047.0,2199.0,70.0,-9.0,
2140.0,2071.0,70.0,-9.0,
2053.0,2066.0,70.0,-9.0,
2028.0,2068.0,70.0,-9.0,
2060.0,2192.0,70.0,-9.0,
2106.0,2058.0,70.0,-8.0,
2070.0,2111.0,70.0,-8.0,
2072.0,2221.0,70.0,-8.0,
2095.0,2047.0,70.0,-8.0,
2098.0,2055.0,70.0,-8.0,
2082.0,2001.0,70.0,-8.0,
2045.0,2107.0,70.0,-8.0,
2001.0,2155.0,71.0,-8.0,
2072.0,2143.0,71.0,-8.0,
2092.0,2074.0,71.0,-8.0,
2069.0,1935.0,71.0,-8.0,
2088.0,1962.0,71.0,-9.0,
2045.0,2179.0,71.0,-9.0,
2055.0,2123.0,71.0,-9.0,
2100.0,2201.0,71.0,-9.0,
2070.0,2140.0,71.0,-9.0,
2082.0,2046.0,71.0,-9.0,
2088.0,2073.0,71.0,-9.0,
2095.0,2061.0,72.0,-9.0,
2057.0,1994.0,72.0,-9.0,
2059.0,2251.0,72.0,-9.0,
2064.0,2096.0,72.0,-9.0,
2086.0,2161.0,72.0,-9.0,
2065.0,1962.0,72.0,-8.0,
2077.0,2130.0,72.0,-8.0,
2055.0,2032.0,72.0,-8.0,
2077.0,2077.0,73.0,-9.0,
2092.0,2086.0,73.0,-9.0,
2075.0,2172.0,73.0,-10.0,
2098.0,2137.0,73.0,-9.0,
2109.0,2153.0,73.0,-9.0,
2114.0,1961.0,0,
2070.0,2133.0,73.0,-9.0,
2082.0,2055.0,73.0,-9.0,
2006.0,2073.0,73.0,-9.0,
2087.0,2094.0,73.0,-9.0,
2083.0,2011.0,73.0,-9.0,
2062.0,2255.0,73.0,-8.0,
2102.0,2072.0,74.0,-8.0,
2077.0,2132.0,74.0,-8.0,
2107.0,2023.0,74.0,-9.0,
2036.0,2170.0,74.0,-9.0,
2035.0,2024.0,74.0,-9.0,
2056.0,2031.0,74.0,-9.0,
2099.0,2200.0,74.0,-9.0,
2047.0,2106.0,74.0,-9.0,
2070.0,2072.0,75.0,-9.0,
2068.0,2082.0,75.0,-9.0,
2041.0,2140.0,75.0,-9.0,
2061.0,2068.0,75.0,-9.0,
2033.0,2039.0,75.0,-9.0,
2040.0,2118.0,75.0,-10.0,
2058.0,2026.0,75.0,-9.0,
2078.0,2150.0,75.0,-9.0,
2061.0,2089.0,75.0,-9.0,
2077.0,2084.0,75.0,-9.0,
2101.0,2141.0,75.0,-9.0,
2078.0,2010.0,75.0,-9.0,
2044.0,2064.0,75.0,-8.0,
2065.0,2036.0,75.0,-8.0,
2067.0,2071.0,75.0,-8.0,
2073.0,1984.0,76.0,-8.0,
2084.0,2051.0,75.0,-8.0,
2069.0,2228.0,76.0,-9.0,
2069.0,2126.0,76.0,-9.0,
2103.0,2075.0,76.0,-9.0,
2134.0,2022.0,76.0,-9.0,
2076.0,2283.0,76.0,-9.0,
2050.0,2061.0,76.0,-9.0,
2064.0,2137.0,76.0,-9.0,
2097.0,2171.0,76.0,-9.0,
2074.0,2085.0,76.0,-9.0,
2077.0,1980.0,77.0,-9.0,
2066.0,1979.0,77.0,-9.0,
2081.0,2025.0,76.0,-9.0,
2060.0,2099.0,76.0,-9.0,
2080.0,2174.0,77.0,-9.0,
2069.0,2107.0,77.0,-9.0,
2077.0,2001.0,77.0,-10.0,
2102.0,2005.0,77.0,-9.0,
2063.0,2076.0,77.0,-9.0,
2075.0,2154.0,77.0,-9.0,
2061.0,2203.0,77.0,-9.0,
2109.0,2190.0,77.0,-9.0,
2078.0,2136.0,77.0,-9.0,
2052.0,2039.0,77.0,-9.0,
2048.0,2130.0,77.0,-9.0,
2050.0,2073.0,77.0,-8.0,
2097.0,2047.0,77.0,-8.0,
2058.0,2061.0,77.0,-9.0,
2081.0,2165.0,78.0,-9.0,
2099.0,2032.0,78.0,-9.0,
2074.0,2099.0,0,
2081.0,1835.0,78.0,-9.0,
2023.0,2021.0,78.0,-9.0,
2088.0,2226.0,78.0,-9.0,
2053.0,2070.0,78.0,-9.0,
2063.0,2245.0,79.0,-9.0,
2024.0,2167.0,79.0,-9.0,
2094.0,2135.0,79.0,-9.0,
2079.0,2169.0,79.0,-9.0,
2102.0,2136.0,79.0,-9.0,
2098.0,1814.0,79.0,-9.0,
2003.0,2043.0,79.0,-9.0,
2054.0,2114.0,79.0,-9.0,
2101.0,2221.0,79.0,-9.0,
2072.0,2121.0,79.0,-9.0,
2087.0,2185.0,79.0,-9.0,
2040.0,1904.0,79.0,-8.0,
2092.0,2160.0,79.0,-8.0,
2094.0,2300.0,79.0,-9.0,
2048.0,2116.0,79.0,-9.0,
2065.0,2090.0,79.0,-9.0,
2075.0,2091.0,79.0,-9.0,
2089.0,1947.0,79.0,-9.0,
2055.0,2042.0,79.0,-10.0,
2098.0,1725.0,79.0,-9.0,
2022.0,2280.0,79.0,-9.0,
2119.0,2226.0,79.0,-9.0,
2088.0,2049.0,79.0,-9.0,
2056.0,2166.0,80.0,-9.0,
2056.0,2120.0,80.0,-9.0,
2072.0,1959.0,80.0,-9.0,
2110.0,2115.0,80.0,-9.0,
2076.0,2118.0,80.0,-8.0,
2072.0,2171.0,80.0,-8.0,
2094.0,2054.0,80.0,-8.0,
2086.0,2149.0,80.0,-8.0,
2046.0,1919.0,80.0,-9.0,
2021.0,2188.0,80.0,-9.0,
2078.0,2201.0,80.0,-9.0,
2072.0,2092.0,80.0,-9.0,
2115.0,1817.0,80.0,-9.0,
2024.0,2207.0,80.0,-9.0,
2063.0,2237.0,80.0,-9.0,
2109.0,2181.0,80.0,-9.0,
2112.0,2180.0,80.0,-9.0,
2052.0,2083.0,80.0,-9.0,
2061.0,2087.0,80.0,-9.0,
2060.0,1913.0,80.0,-9.0,
2073.0,2150.0,81.0,-9.0,
2078.0,1894.0,81.0,-9.0,
2074.0,2020.0,81.0,-9.0,
2061.0,2238.0,81.0,-10.0,
2080.0,2145.0,81.0,-10.0,
2119.0,2095.0,81.0,-9.0,
2062.0,2174.0,81.0,-9.0,
2042.0,2178.0,81.0,-9.0,
1992.0,1853.0,81.0,-9.0,
2104.0,2143.0,81.0,-9.0,
2102.0,2172.0,81.0,-9.0,
2025.0,1969.0,81.0,-9.0,
2075.0,2089.0,81.0,-9.0,
2134.0,2230.0,81.0,-8.0,
2111.0,2172.0,81.0,-8.0,
2051.0,2052.0,81.0,-9.0,
2048.0,2251.0,81.0,-9.0,
2040.0,1963.0,81.0,-9.0,
2093.0,2070.0,82.0,-9.0,
2053.0,2000.0,82.0,-9.0,
2072.0,2111.0,82.0,-9.0,
2093.0,2221.0,82.0,-9.0,
2083.0,2100.0,82.0,-9.0,
2075.0,2214.0,83.0,-9.0,
2079.0,2045.0,83.0,-9.0,
2069.0,2033.0,83.0,-9.0,
2067.0,2154.0,83.0,-9.0,
2089.0,2012.0,83.0,-9.0,
2068.0,2185.0,83.0,-10.0,
2081.0,2152.0,83.0,-10.0,
2121.0,2153.0,83.0,-10.0,
2064.0,1805.0,83.0,-9.0,
2017.0,2101.0,83.0,-9.0,
2007.0,1897.0,83.0,-9.0,
2064.0,2381.0,83.0,-9.0,
2050.0,2106.0,84.0,-9.0,
2055.0,2014.0,84.0,-9.0,
2044.0,2027.0,84.0,-9.0,
2090.0,2215.0,84.0,-8.0,
2160.0,2113.0,84.0,-8.0,
2040.0,2020.0,84.0,-8.0,
2036.0,2081.0,84.0,-9.0,
2026.0,1902.0,84.0,-9.0,
2060.0,2218.0,84.0,-9.0,
2133.0,2121.0,84.0,-9.0,
2086.0,2066.0,84.0,-9.0,
2074.0,2200.0,85.0,-9.0,
2074.0,2116.0,85.0,-9.0,
2122.0,1990.0,85.0,-9.0,
2068.0,2009.0,85.0,-9.0,
1981.0,2010.0,85.0,-9.0,
2080.0,1943.0,85.0,-9.0,
2095.0,2099.0,85.0,-9.0,
2084.0,2148.0,85.0,-9.0,
2061.0,2163.0,85.0,-9.0,
2053.0,2070.0,85.0,-9.0,
2105.0,2065.0,85.0,-9.0,
2053.0,1906.0,86.0,-9.0,
2083.0,2083.0,86.0,-9.0,
2010.0,2249.0,86.0,-9.0,
2060.0,2117.0,86.0,-9.0,
2069.0,2135.0,86.0,-9.0,
2111.0,2195.0,86.0,-9.0,
2077.0,2053.0,86.0,-9.0,
2080.0,1581.0,86.0,-9.0,
2051.0,2332.0,86.0,-9.0,
2088.0,2153.0,86.0,-9.0,
2099.0,2294.0,86.0,-9.0,
2068.0,2204.0,86.0,-9.0,
2058.0,1964.0,86.0,-9.0,
2073.0,2136.0,86.0,-9.0,
2051.0,1885.0,86.0,-9.0,
2076.0,2072.0,86.0,-9.0,
2053.0,2009.0,86.0,-9.0,
2059.0,2213.0,86.0,-9.0,
2135.0,2297.0,86.0,-9.0,
2103.0,2184.0,86.0,-8.0,
2082.0,2078.0,86.0,-9.0,
2047.0,1908.0,86.0,-9.0,
2119.0,1774.0,86.0,-9.0,
1981.0,2122.0,86.0,-8.0,
2064.0,2453.0,86.0,-8.0,
2082.0,2017.0,86.0,-8.0,
2094.0,2218.0,86.0,-9.0,
2070.0,1935.0,86.0,-9.0,
2097.0,2262.0,86.0,-9.0,
2019.0,1991.0,86.0,-9.0,
2055.0,1979.0,86.0,-9.0,
2114.0,2009.0,86.0,-9.0,
2053.0,2131.0,86.0,-9.0,
2056.0,1982.0,86.0,-9.0,
2128.0,2306.0,86.0,-9.0,
2079.0,1939.0,86.0,-9.0,
2116.0,2369.0,86.0,-9.0,
2080.0,2240.0,86.0,-9.0,
2029.0,1994.0,86.0,-9.0,
2074.0,1927.0,86.0,-9.0,
2114.0,2183.0,86.0,-9.0,
2062.0,1857.0,86.0,-9.0,
2025.0,2209.0,86.0,-9.0,
2038.0,2068.0,86.0,-9.0,
2140.0,2327.0,86.0,-9.0,
2101.0,2156.0,86.0,-9.0,
2019.0,2082.0,86.0,-9.0,
2099.0,2070.0,86.0,-9.0,
2107.0,2198.0,86.0,-9.0,
2078.0,2083.0,86.0,-9.0,
2037.0,1922.0,86.0,-9.0,
2037.0,2163.0,86.0,-9.0,
2095.0,2241.0,86.0,-9.0,
2088.0,2142.0,86.0,-9.0,
2076.0,2048.0,86.0,-9.0,
2065.0,1944.0,86.0,-9.0,
2039.0,2012.0,86.0,-9.0,
2092.0,2099.0,87.0,-9.0,
2073.0,2214.0,86.0,-9.0,
2036.0,1971.0,86.0,-9.0,
2085.0,2049.0,86.0,-9.0,
2063.0,2298.0,86.0,-9.0,
2066.0,1904.0,86.0,-9.0,
1992.0,2125.0,86.0,-9.0,
2073.0,2231.0,86.0,-9.0,
2039.0,1959.0,87.0,-9.0,
2110.0,2146.0,87.0,-9.0,
2066.0,1881.0,87.0,-9.0,
2018.0,2050.0,87.0,-9.0,
2111.0,2030.0,87.0,-9.0,
2066.0,2316.0,87.0,-9.0,
2149.0,2270.0,87.0,-9.0,
2094.0,2189.0,87.0,-9.0,
2050.0,1919.0,87.0,-9.0,
2047.0,1987.0,87.0,-9.0,
2106.0,2101.0,87.0,-9.0,
2028.0,1888.0,88.0,-9.0,
1994.0,2029.0,88.0,-9.0,
2049.0,1938.0,0,
2101.0,2402.0,88.0,-10.0,
2188.0,2178.0,88.0,-9.0,
2109.0,2144.0,88.0,-9.0,
2033.0,2100.0,88.0,-9.0,
2056.0,2164.0,88.0,-9.0,
2112.0,2129.0,88.0,-9.0,
2084.0,1730.0,88.0,-9.0,
1981.0,2120.0,88.0,-9.0,
2153.0,2319.0,88.0,-9.0,
2181.0,2094.0,88.0,-8.0,
2022.0,1890.0,89.0,-7.0,
1983.0,2120.0,88.0,-8.0,
2071.0,2435.0,88.0,-9.0,
2155.0,2255.0,88.0,-9.0,
2120.0,2048.0,88.0,-9.0,
1991.0,1774.0,88.0,-9.0,
2065.0,1938.0,88.0,-9.0,
2096.0,2244.0,88.0,-9.0,
2060.0,2115.0,88.0,-9.0,
2108.0,2248.0,89.0,-9.0,
2063.0,2150.0,89.0,-9.0,
2080.0,1988.0,89.0,-9.0,
2047.0,2042.0,89.0,-9.0,
2029.0,1990.0,89.0,-8.0,
2005.0,1992.0,89.0,-8.0,
2123.0,2269.0,89.0,-8.0,
2163.0,2268.0,89.0,-8.0,
2106.0,2164.0,89.0,-8.0,
2028.0,2088.0,89.0,-8.0,
2022.0,1998.0,89.0,-8.0,
2102.0,2253.0,89.0,-8.0,
2095.0,1908.0,89.0,-8.0,
2015.0,2198.0,89.0,-8.0,
2094.0,2049.0,89.0,-8.0,
2079.0,2125.0,89.0,-8.0,
2047.0,1694.0,89.0,-8.0,
1971.0,2145.0,89.0,-8.0,
2080.0,2208.0,89.0,-8.0,
2127.0,2150.0,89.0,-8.0,
2095.0,2087.0,89.0,-8.0,
2074.0,1551.0,89.0,-8.0,
2080.0,2155.0,89.0,-8.0,
2087.0,2131.0,89.0,-8.0,
1965.0,2359.0,89.0,-9.0,
2246.0,2254.0,89.0,-9.0,
2153.0,2123.0,89.0,-9.0,
2024.0,2086.0,89.0,-9.0,
2017.0,2073.0,89.0,-9.0,
2090.0,2090.0,89.0,-9.0,
2096.0,2230.0,89.0,-9.0,
2068.0,2234.0,89.0,-8.0,
2070.0,2211.0,89.0,-8.0,
1983.0,1895.0,89.0,-8.0,
2035.0,2078.0,90.0,-8.0,
2146.0,1934.0,90.0,-9.0,
2060.0,1628.0,89.0,-10.0,
2057.0,2480.0,90.0,-9.0,
2058.0,2210.0,90.0,-8.0,
2102.0,2273.0,90.0,-8.0,
2116.0,2243.0,90.0,-9.0,
2087.0,2077.0,90.0,-9.0,
2149.0,2026.0,90.0,-9.0,
2067.0,1700.0,90.0,-9.0,
2046.0,2075.0,90.0,-9.0,
1828.0,1460.0,90.0,-8.0,
2000.0,2334.0,90.0,-7.0,
2200.0,2452.0,90.0,-8.0,
2118.0,2332.0,90.0,-9.0,
2141.0,2247.0,90.0,-9.0,
2127.0,2152.0,90.0,-9.0,
2116.0,2047.0,90.0,-9.0,
2048.0,1845.0,90.0,-9.0,
1995.0,2027.0,90.0,-9.0,
2020.0,2037.0,90.0,-9.0,
2092.0,2124.0,90.0,-9.0,
2107.0,2217.0,90.0,-9.0,
2110.0,2014.0,90.0,-9.0,
2086.0,2247.0,90.0,-9.0,
2109.0,2194.0,90.0,-9.0,
2069.0,1988.0,90.0,-9.0,
2045.0,1965.0,90.0,-9.0,
2035.0,2263.0,90.0,-9.0,
2076.0,2149.0,90.0,-9.0,
2061.0,2183.0,90.0,-9.0,
2051.0,1688.0,90.0,-9.0,
2135.0,2092.0,90.0,-9.0,
2068.0,2157.0,90.0,-9.0,
2051.0,2261.0,90.0,-9.0,
2158.0,2425.0,90.0,-9.0,
2032.0,1888.0,90.0,-9.0,
2025.0,2091.0,90.0,-9.0,
2050.0,1959.0,90.0,-9.0,
2115.0,2166.0,90.0,-9.0,
2128.0,2074.0,90.0,-9.0,
2047.0,2034.0,91.0,-9.0,
2029.0,1941.0,91.0,-9.0,
2050.0,2158.0,91.0,-9.0,
2139.0,2133.0,91.0,-9.0,
2083.0,2240.0,91.0,-9.0,
2105.0,2121.0,91.0,-9.0,
2026.0,1769.0,91.0,-9.0,
2002.0,2440.0,91.0,-9.0,
2159.0,2307.0,91.0,-9.0,
2136.0,2030.0,91.0,-9.0,
2070.0,2068.0,91.0,-9.0,
2066.0,1978.0,91.0,-9.0,
2030.0,1944.0,91.0,-8.0,
2089.0,1768.0,91.0,-8.0,
1901.0,2052.0,91.0,-9.0,
2048.0,2502.0,91.0,-8.0,
2276.0,2397.0,91.0,-8.0,
2123.0,2136.0,91.0,-8.0,
2037.0,1869.0,91.0,-8.0,
2110.0,2111.0,91.0,-8.0,
2096.0,2120.0,91.0,-8.0,
2035.0,1544.0,91.0,-8.0,
2057.0,2439.0,91.0,-8.0,
2059.0,2045.0,91.0,-8.0,
2102.0,2190.0,91.0,-8.0,
2100.0,2309.0,91.0,-8.0,
2079.0,2126.0,91.0,-9.0,
2004.0,1963.0,91.0,-9.0,
2083.0,1996.0,91.0,-9.0,
2108.0,2006.0,91.0,-9.0,
2041.0,1987.0,91.0,-9.0,
2029.0,2218.0,91.0,-9.0,
2080.0,2129.0,91.0,-8.0,
2047.0,2013.0,91.0,-8.0,
2033.0,2035.0,91.0,-9.0,
2068.0,2035.0,91.0,-9.0,
2104.0,2127.0,91.0,-9.0,
2090.0,2039.0,92.0,-9.0,
2086.0,2244.0,92.0,-8.0,
2050.0,1998.0,92.0,-8.0,
2018.0,2042.0,92.0,-8.0,
2104.0,1777.0,92.0,-9.0,
2041.0,2366.0,92.0,-9.0,
2111.0,2202.0,92.0,-9.0,
2097.0,2214.0,92.0,-9.0,
2076.0,2151.0,92.0,-9.0,
2078.0,1970.0,92.0,-9.0,
2055.0,2212.0,92.0,-9.0,
2056.0,2040.0,92.0,-9.0,
2093.0,1959.0,92.0,-9.0,
2083.0,1948.0,92.0,-9.0,
2081.0,2118.0,92.0,-9.0,
2029.0,2042.0,92.0,-9.0,
2112.0,2098.0,92.0,-8.0,
2138.0,2286.0,92.0,-8.0,
2097.0,2075.0,92.0,-8.0,
2058.0,2048.0,92.0,-8.0,
2091.0,2220.0,92.0,-8.0,
2044.0,2027.0,92.0,-8.0,
2084.0,2099.0,92.0,-8.0,
2107.0,1901.0,92.0,-8.0,
2044.0,2084.0,92.0,-8.0,
2056.0,2240.0,92.0,-8.0,
2124.0,2311.0,91.0,-8.0,
2107.0,2033.0,91.0,-8.0,
2030.0,2038.0,91.0,-9.0,
2033.0,2064.0,91.0,-9.0,
2040.0,1981.0,91.0,-9.0,
2088.0,2150.0,91.0,-9.0,
2051.0,2060.0,91.0,-9.0,
2086.0,2167.0,91.0,-9.0,
2115.0,2145.0,91.0,-9.0,
2103.0,2122.0,91.0,-9.0,
2044.0,2148.0,91.0,-9.0,
2034.0,2055.0,90.0,-9.0,
2082.0,2081.0,90.0,-9.0,
2040.0,2061.0,90.0,-9.0,
2081.0,2125.0,90.0,-9.0,
2079.0,2094.0,90.0,-9.0,
2044.0,2054.0,90.0,-9.0,
2066.0,2088.0,90.0,-9.0,
2052.0,2086.0,90.0,-9.0,
2031.0,2154.0,90.0,-9.0,
2051.0,2027.0,90.0,-9.0,
2075.0,2042.0,90.0,-9.0,
2074.0,1812.0,90.0,-9.0,
2112.0,2112.0,90.0,-9.0,
2135.0,2253.0,90.0,-9.0,
2129.0,1929.0,90.0,-9.0,
2107.0,2313.0,90.0,-9.0,
2076.0,2055.0,90.0,-9.0,
2060.0,2089.0,90.0,-9.0,
2075.0,2170.0,90.0,-9.0,
2076.0,2095.0,90.0,-9.0,
2077.0,2044.0,90.0,-9.0,
2073.0,2092.0,90.0,-9.0,
2053.0,2097.0,90.0,-9.0,
2078.0,2147.0,90.0,-9.0,
2075.0,2050.0,90.0,-9.0,
2078.0,1966.0,90.0,-9.0,
2028.0,2213.0,0,
2045.0,2017.0,90.0,-8.0,
2067.0,1944.0,90.0,-8.0,
2063.0,2197.0,90.0,-8.0,
2059.0,2050.0,90.0,-8.0,
2063.0,2179.0,90.0,-8.0,
2032.0,2089.0,90.0,-8.0,
2111.0,2053.0,90.0,-8.0,
2068.0,2108.0,90.0,-9.0,
2028.0,2017.0,90.0,-9.0,
2024.0,2031.0,90.0,-9.0,
2136.0,2186.0,90.0,-9.0,
2165.0,2026.0,90.0,-9.0,
2075.0,1989.0,90.0,-9.0,
2071.0,2243.0,90.0,-9.0,
2094.0,2088.0,90.0,-9.0,
2105.0,2116.0,90.0,-9.0,
2044.0,2105.0,90.0,-9.0,
2032.0,2042.0,90.0,-9.0,
2039.0,2123.0,90.0,-9.0,
2085.0,2082.0,90.0,-9.0,
2082.0,2000.0,90.0,-9.0,
2071.0,2142.0,90.0,-9.0,
2100.0,1993.0,90.0,-9.0,
2090.0,2187.0,90.0,-9.0,
2088.0,2118.0,90.0,-9.0,
2042.0,2007.0,90.0,-9.0,
2088.0,2014.0,90.0,-9.0,
2062.0,2045.0,90.0,-9.0,
2077.0,1960.0,90.0,-9.0,
2116.0,2288.0,90.0,-8.0,
2069.0,2026.0,90.0,-8.0,
2099.0,2196.0,90.0,-8.0,
2087.0,2115.0,90.0,-8.0,
2085.0,2133.0,90.0,-8.0,
2019.0,2022.0,90.0,-8.0,
2058.0,2107.0,90.0,-8.0,
2081.0,2051.0,90.0,-8.0,
2083.0,1984.0,89.0,-8.0,
2088.0,2222.0,89.0,-8.0,
2089.0,2100.0,89.0,-8.0,
2055.0,2079.0,89.0,-8.0,
2064.0,2115.0,89.0,-8.0,
2067.0,2121.0,89.0,-8.0,
2033.0,1951.0,89.0,-8.0,
2051.0,2037.0,89.0,-8.0,
2069.0,2167.0,89.0,-8.0,
2052.0,2111.0,89.0,-8.0,
2049.0,2145.0,89.0,-8.0,
2021.0,2047.0,89.0,-8.0,
2084.0,2057.0,89.0,-8.0,
2161.0,2112.0,89.0,-8.0,
2069.0,1778.0,89.0,-8.0,
2013.0,2307.0,89.0,-9.0,
2080.0,2227.0,89.0,-8.0,
2073.0,2020.0,89.0,-9.0,
2040.0,2138.0,89.0,-9.0,
2116.0,2129.0,89.0,-9.0,
2123.0,2051.0,89.0,-8.0,
2094.0,2140.0,89.0,-8.0,
2157.0,2016.0,89.0,-8.0,
2029.0,2141.0,89.0,-8.0,
2035.0,2071.0,89.0,-8.0,
2122.0,2045.0,88.0,-8.0,
2094.0,2112.0,89.0,-8.0,
2073.0,2030.0,88.0,-8.0,
2056.0,2201.0,88.0,-8.0,
2018.0,2046.0,88.0,-8.0,
2052.0,2147.0,88.0,-8.0,
2076.0,2121.0,88.0,-8.0,
2093.0,2083.0,88.0,-8.0,
2145.0,2218.0,88.0,-8.0,
2079.0,2025.0,88.0,-8.0,
2089.0,2084.0,88.0,-8.0,
2062.0,2039.0,88.0,-8.0,
2069.0,2128.0,88.0,-8.0,
2076.0,2112.0,88.0,-8.0,
2036.0,1995.0,88.0,-8.0,
2105.0,2216.0,87.0,-8.0,
2052.0,1990.0,87.0,-8.0,
2042.0,2152.0,87.0,-8.0,
2042.0,2008.0,87.0,-8.0,
2063.0,1921.0,87.0,-8.0,
2073.0,2251.0,87.0,-8.0,
2059.0,2186.0,87.0,-8.0,
2060.0,2085.0,87.0,-8.0,
2092.0,2098.0,87.0,-8.0,
2062.0,2095.0,87.0,-8.0,
2070.0,2114.0,87.0,-8.0,
2063.0,2080.0,87.0,-8.0,
2104.0,2083.0,87.0,-8.0,
2059.0,2091.0,86.0,-8.0,
2063.0,2028.0,86.0,-8.0,
2073.0,2060.0,86.0,-8.0,
2092.0,2102.0,86.0,-8.0,
2085.0,2057.0,86.0,-8.0,
2049.0,1989.0,86.0,-8.0,
2044.0,2169.0,86.0,-8.0,
2061.0,2096.0,86.0,-8.0,
2073.0,2123.0,86.0,-8.0,
2009.0,1921.0,86.0,-8.0,
2044.0,2153.0,86.0,-8.0,
2068.0,2291.0,86.0,-9.0,
2093.0,2080.0,86.0,-8.0,
2119.0,2072.0,86.0,-8.0,
2081.0,2186.0,86.0,-9.0,
2027.0,2061.0,86.0,-9.0,
2125.0,2154.0,86.0,-9.0,
2058.0,2081.0,86.0,-9.0,
2022.0,2157.0,86.0,-9.0,
2011.0,2089.0,86.0,-9.0,
2051.0,1998.0,86.0,-9.0,
2136.0,2131.0,86.0,-8.0,
2111.0,2039.0,86.0,-8.0,
2018.0,2049.0,86.0,-8.0,
2058.0,2222.0,86.0,-8.0,
2058.0,2133.0,86.0,-8.0,
2075.0,2094.0,86.0,-8.0,
2144.0,2038.0,86.0,-8.0,
2047.0,2059.0,86.0,-8.0,
2081.0,2123.0,86.0,-8.0,
2104.0,2000.0,86.0,-8.0,
2001.0,2068.0,86.0,-8.0,
1967.0,2085.0,86.0,-8.0,
2199.0,2143.0,87.0,-8.0,
2182.0,2105.0,87.0,-8.0,
2096.0,2078.0,87.0,-8.0,
2137.0,1948.0,87.0,-8.0,
2114.0,2164.0,87.0,-8.0,
2164.0,2208.0,87.0,-8.0,
2128.0,2089.0,87.0,-8.0,
2031.0,1986.0,87.0,-8.0,
2016.0,2141.0,87.0,-8.0,
2015.0,1989.0,87.0,-8.0,
2083.0,2217.0,87.0,-8.0,
2057.0,2046.0,87.0,-8.0,
2108.0,2127.0,87.0,-8.0,
2066.0,2131.0,87.0,-8.0,
2056.0,2073.0,86.0,-8.0,
2086.0,2091.0,86.0,-8.0,
2093.0,1998.0,86.0,-8.0,
2028.0,2081.0,86.0,-8.0,
2025.0,2055.0,86.0,-8.0,
2094.0,2161.0,86.0,-8.0,
2081.0,2179.0,86.0,-8.0,
2052.0,2063.0,85.0,-8.0,
2058.0,2062.0,85.0,-8.0,
2115.0,2167.0,85.0,-8.0,
2072.0,2128.0,85.0,-8.0,
2034.0,2107.0,85.0,-8.0,
1999.0,2082.0,85.0,-8.0,
2010.0,2103.0,85.0,-8.0,
2049.0,2048.0,85.0,-8.0,
2099.0,2001.0,85.0,-8.0,
2188.0,1942.0,85.0,-8.0,
2153.0,2096.0,85.0,-8.0,
2070.0,2083.0,85.0,-8.0,
2071.0,2090.0,85.0,-8.0,
2047.0,2085.0,85.0,-8.0,
2039.0,2109.0,85.0,-8.0,
2074.0,2062.0,85.0,-8.0,
2035.0,2154.0,85.0,-8.0,
2018.0,2128.0,85.0,-8.0,
2058.0,2152.0,85.0,-8.0,
2077.0,2094.0,85.0,-8.0,
2121.0,2062.0,85.0,-8.0,
2124.0,2055.0,85.0,-8.0,
2104.0,2041.0,85.0,-8.0,
2057.0,2038.0,85.0,-8.0,
2103.0,2156.0,85.0,-8.0,
2046.0,1992.0,85.0,-8.0,
2043.0,1944.0,85.0,-8.0,
2072.0,2209.0,85.0,-8.0,
2066.0,2166.0,85.0,-8.0,
2036.0,2184.0,85.0,-8.0,
2051.0,2123.0,85.0,-7.0,
2068.0,2108.0,85.0,-7.0,
2091.0,2140.0,85.0,-8.0,
2143.0,1925.0,85.0,-8.0,
2032.0,2036.0,85.0,-8.0,
2044.0,2094.0,85.0,-8.0,
2081.0,2174.0,85.0,-7.0,
2092.0,2087.0,85.0,-8.0,
2079.0,2102.0,85.0,-8.0,
2096.0,2045.0,85.0,-8.0,
2046.0,2186.0,85.0,-8.0,
2072.0,2153.0,85.0,-8.0,
2064.0,2120.0,85.0,-7.0,
2043.0,2116.0,85.0,-8.0,
2026.0,2046.0,85.0,-8.0,
2089.0,2117.0,85.0,-8.0,
2156.0,2001.0,85.0,-8.0,
2036.0,2163.0,84.0,-8.0,
2008.0,1982.0,84.0,-8.0,
2077.0,2155.0,84.0,-8.0,
2052.0,2073.0,84.0,-8.0,
2048.0,2134.0,84.0,-8.0,
2090.0,2104.0,84.0,-8.0,
2075.0,2020.0,84.0,-8.0,
2092.0,2185.0,84.0,-8.0,
2089.0,2048.0,84.0,-8.0,
2099.0,2035.0,84.0,-8.0,
2071.0,2141.0,84.0,-8.0,
2051.0,2129.0,84.0,-8.0,
2080.0,2080.0,84.0,-8.0,
2062.0,2029.0,83.0,-8.0,
2049.0,2043.0,83.0,-8.0,
2015.0,2086.0,83.0,-8.0,
2027.0,2072.0,83.0,-8.0,
1963.0,2096.0,83.0,-8.0,
1982.0,2139.0,82.0,-8.0,
2034.0,2172.0,82.0,-8.0,
2140.0,2012.0,82.0,-8.0,
2172.0,2060.0,82.0,-8.0,
2116.0,2100.0,82.0,-8.0,
2060.0,2028.0,82.0,-8.0,
2145.0,2038.0,82.0,-8.0,
2143.0,2107.0,82.0,-8.0,
2140.0,2145.0,82.0,-8.0,
2124.0,2152.0,81.0,-8.0,
2169.0,2044.0,81.0,-8.0,
2046.0,2022.0,81.0,-8.0,
2064.0,2013.0,81.0,-8.0,
2045.0,2020.0,81.0,-8.0,
2065.0,2121.0,81.0,-8.0,
2184.0,2111.0,81.0,-8.0,
2183.0,2070.0,81.0,-7.0,
2044.0,2130.0,81.0,-7.0,
1996.0,2069.0,81.0,-7.0,
1984.0,2191.0,81.0,-7.0,
2035.0,2087.0,80.0,-7.0,
2050.0,2115.0,80.0,-7.0,
2051.0,2112.0,80.0,-7.0,
2016.0,2049.0,80.0,-7.0,
2111.0,2129.0,80.0,-8.0,
2127.0,2030.0,80.0,-8.0,
2073.0,2004.0,79.0,-8.0,
2058.0,2098.0,80.0,-8.0,
2074.0,2158.0,80.0,-8.0,
2095.0,2117.0,80.0,-8.0,
2058.0,2127.0,80.0,-8.0,
2006.0,2116.0,80.0,-8.0,
2056.0,2035.0,80.0,-7.0,
2057.0,2168.0,80.0,-7.0,
2089.0,2083.0,80.0,-7.0,
2131.0,2113.0,80.0,-7.0,
2066.0,2015.0,80.0,-7.0,
2056.0,2126.0,80.0,-7.0,
2108.0,2195.0,80.0,-7.0,
2092.0,2114.0,80.0,-7.0,
2073.0,2040.0,80.0,-7.0,
2089.0,2086.0,80.0,-7.0,
2102.0,2090.0,80.0,-7.0,
2076.0,2072.0,80.0,-7.0,
2035.0,2053.0,80.0,-7.0,
2045.0,2100.0,80.0,-7.0,
2056.0,2070.0,80.0,-7.0,
2086.0,2063.0,80.0,-7.0,
2081.0,2107.0,80.0,-7.0,
2114.0,2094.0,80.0,-7.0,
2089.0,2079.0,80.0,-8.0,
2045.0,2085.0,81.0,-8.0,
1974.0,2038.0,81.0,-7.0,
1928.0,2035.0,81.0,-7.0,
1989.0,2078.0,81.0,-8.0,
2124.0,2126.0,81.0,-8.0,
2209.0,2124.0,81.0,-8.0,
2154.0,2111.0,81.0,-8.0,
2081.0,2126.0,80.0,-8.0,
2088.0,2031.0,80.0,-8.0,
2091.0,2051.0,80.0,-8.0,
2104.0,2032.0,80.0,-8.0,
2026.0,2050.0,80.0,-8.0,
2000.0,2166.0,80.0,-8.0,
2118.0,2121.0,79.0,-8.0,
2061.0,2164.0,79.0,-8.0,
2150.0,2093.0,79.0,-8.0,
2123.0,2067.0,79.0,-7.0,
2090.0,2147.0,79.0,-7.0,
2094.0,2060.0,79.0,-7.0,
2067.0,2066.0,78.0,-7.0,
2091.0,2119.0,78.0,-7.0,
2076.0,2123.0,78.0,-7.0,
2071.0,2156.0,78.0,-7.0,
2003.0,2041.0,77.0,-7.0,
1989.0,2062.0,77.0,-7.0,
2065.0,2140.0,77.0,-7.0,
2078.0,2054.0,76.0,-8.0,
2068.0,1987.0,76.0,-8.0,
2062.0,2092.0,76.0,-7.0,
2103.0,2084.0,76.0,-7.0,
2113.0,2092.0,76.0,-7.0,
2092.0,2123.0,76.0,-7.0,
2068.0,2137.0,76.0,-7.0,
2074.0,2120.0,76.0,-7.0,
2070.0,2121.0,76.0,-7.0,
2086.0,2119.0,76.0,-7.0,
2077.0,2124.0,76.0,-7.0,
2028.0,2057.0,76.0,-7.0,
2042.0,2144.0,76.0,-7.0,
2085.0,2088.0,76.0,-7.0,
2075.0,2028.0,76.0,-7.0,
2047.0,2050.0,77.0,-7.0,
2068.0,2084.0,77.0,-7.0,
2051.0,2041.0,77.0,-7.0,
2042.0,2056.0,77.0,-7.0,
2030.0,2106.0,77.0,-7.0,
1991.0,2037.0,77.0,-7.0,
2059.0,2033.0,77.0,-7.0,
2107.0,2055.0,77.0,-7.0,
2108.0,2120.0,77.0,-7.0,
2069.0,2135.0,77.0,-7.0,
2019.0,2103.0,77.0,-7.0,
2054.0,2115.0,77.0,-7.0,
2041.0,2123.0,77.0,-7.0,
2078.0,2144.0,76.0,-7.0,
2168.0,2054.0,76.0,-8.0,
2221.0,2114.0,76.0,-7.0,
2096.0,2066.0,76.0,-7.0,
2091.0,2090.0,76.0,-7.0,
2085.0,2132.0,76.0,-7.0,
2055.0,2087.0,76.0,-8.0,
2077.0,2039.0,76.0,-8.0,
2073.0,2085.0,76.0,-8.0,
2118.0,2157.0,76.0,-8.0,
2079.0,2095.0,76.0,-8.0,
2101.0,2187.0,76.0,-8.0,
2083.0,2155.0,76.0,-8.0,
2047.0,2103.0,76.0,-8.0,
2026.0,2085.0,76.0,-8.0,
2049.0,2111.0,76.0,-8.0,
2066.0,2038.0,76.0,-8.0,
2071.0,2117.0,76.0,-8.0,
2110.0,2101.0,75.0,-8.0,
2056.0,2092.0,75.0,-8.0,
2081.0,2019.0,75.0,-8.0,
2089.0,2017.0,75.0,-8.0,
2051.0,2108.0,75.0,-8.0,
2066.0,2066.0,75.0,-7.0,
2085.0,2110.0,75.0,-7.0,
2088.0,2058.0,75.0,-7.0,
2053.0,2063.0,75.0,-7.0,
2053.0,2141.0,75.0,-7.0,
2035.0,2030.0,75.0,-7.0,
2088.0,2106.0,75.0,-7.0,
2080.0,2045.0,75.0,-7.0,
2076.0,2084.0,75.0,-7.0,
2132.0,2077.0,75.0,-7.0,
2124.0,2086.0,75.0,-7.0,
2088.0,2055.0,75.0,-7.0,
2003.0,2045.0,75.0,-7.0,
2012.0,2093.0,75.0,-7.0,
2046.0,2156.0,75.0,-7.0,
2094.0,2122.0,75.0,-7.0,
2063.0,2100.0,75.0,-7.0,
2062.0,2097.0,75.0,-7.0,
2039.0,2076.0,75.0,-7.0,
2043.0,2067.0,75.0,-7.0,
2034.0,2050.0,75.0,-7.0,
2005.0,2025.0,75.0,-7.0,
2142.0,2022.0,75.0,-7.0,
2134.0,2125.0,75.0,-7.0,
2111.0,2130.0,75.0,-7.0,
2097.0,2149.0,75.0,-7.0,
2096.0,2052.0,75.0,-7.0,
2077.0,2071.0,75.0,-7.0,
2098.0,2148.0,75.0,-7.0,
2047.0,2068.0,75.0,-7.0,
2042.0,2106.0,74.0,-7.0,
2059.0,2076.0,74.0,-7.0,
2063.0,2158.0,74.0,-7.0,
2092.0,2040.0,74.0,-7.0,
2082.0,2161.0,74.0,-7.0,
2079.0,2154.0,74.0,-7.0,
2075.0,2130.0,74.0,-7.0,
2100.0,2095.0,74.0,-8.0,
2061.0,2075.0,73.0,-8.0,
2053.0,2082.0,73.0,-7.0,
2026.0,2029.0,73.0,-7.0,
2054.0,2164.0,73.0,-7.0,
2071.0,2077.0,72.0,-7.0,
2081.0,2063.0,72.0,-7.0,
2078.0,2105.0,72.0,-7.0,
2062.0,2067.0,72.0,-7.0,
2087.0,2067.0,72.0,-7.0,
2084.0,2090.0,72.0,-7.0,
2082.0,2180.0,72.0,-7.0,
2053.0,2103.0,72.0,-7.0,
2077.0,2068.0,72.0,-7.0,
2073.0,2095.0,72.0,-7.0,
2072.0,2087.0,72.0,-7.0,
2100.0,2064.0,72.0,-7.0,
2067.0,2059.0,72.0,-7.0,
2067.0,2052.0,72.0,-7.0,
2035.0,2043.0,72.0,-7.0,
1997.0,2117.0,72.0,-7.0,
1973.0,2059.0,72.0,-7.0,
2018.0,2093.0,72.0,-7.0,
2009.0,2074.0,72.0,-8.0,
2068.0,2090.0,72.0,-7.0,
2298.0,2122.0,72.0,-7.0,
2240.0,2116.0,72.0,-7.0,
2117.0,2105.0,72.0,-7.0,
2033.0,2098.0,72.0,-7.0,
2002.0,2055.0,72.0,-7.0,
2003.0,2109.0,71.0,-7.0,
2037.0,2090.0,71.0,-7.0,
2081.0,2076.0,71.0,-7.0,
2198.0,2062.0,71.0,-7.0,
2154.0,2055.0,71.0,-8.0,
2136.0,2087.0,71.0,-8.0,
2072.0,2007.0,71.0,-8.0,
2033.0,2053.0,71.0,-8.0,
2024.0,2100.0,71.0,-8.0,
2075.0,2088.0,71.0,-8.0,
2053.0,2085.0,71.0,-8.0,
2035.0,2076.0,71.0,-8.0,
2024.0,2163.0,71.0,-8.0,
2111.0,2120.0,71.0,-8.0,
2161.0,2123.0,71.0,-8.0,
2040.0,2123.0,71.0,-7.0,
2027.0,2065.0,71.0,-7.0,
2044.0,2046.0,71.0,-7.0,
2093.0,2064.0,71.0,-7.0,
2065.0,2204.0,71.0,-7.0,
2049.0,2104.0,71.0,-7.0,
2048.0,2071.0,70.0,-7.0,
2086.0,2090.0,70.0,-7.0,
2082.0,2111.0,69.0,-7.0,
2049.0,2107.0,69.0,-7.0,
2036.0,2072.0,69.0,-7.0,
2045.0,2074.0,69.0,-7.0,
2092.0,2078.0,68.0,-7.0,
2116.0,2038.0,68.0,-7.0,
2046.0,2075.0,68.0,-7.0,
2059.0,2121.0,68.0,-7.0,
2051.0,2130.0,68.0,-7.0,
2086.0,2115.0,68.0,-7.0,
2047.0,2037.0,68.0,-7.0,
2045.0,2058.0,68.0,-7.0,
2056.0,2079.0,68.0,-7.0,
2092.0,2107.0,68.0,-7.0,
2069.0,2099.0,68.0,-7.0,
2070.0,2106.0,68.0,-7.0,
2071.0,2096.0,68.0,-7.0,
2064.0,2023.0,69.0,-7.0,
2064.0,2054.0,69.0,-7.0,
2030.0,2061.0,69.0,-7.0,
2039.0,2067.0,68.0,-7.0,
2112.0,2116.0,68.0,-7.0,
2097.0,2109.0,69.0,-7.0,
2067.0,2106.0,69.0,-7.0,
2136.0,2122.0,69.0,-7.0,
2099.0,2118.0,69.0,-7.0,
2065.0,2020.0,69.0,-7.0,
2042.0,2081.0,0,
2025.0,2071.0,68.0,-7.0,
2070.0,2083.0,68.0,-8.0,
2112.0,2106.0,69.0,-7.0,
2055.0,2088.0,69.0,-7.0,
2047.0,2104.0,68.0,-7.0,
2051.0,2123.0,68.0,-7.0,
2035.0,2068.0,68.0,-7.0,
2046.0,2066.0,68.0,-7.0,
2090.0,2070.0,68.0,-7.0,
2137.0,2116.0,68.0,-7.0,
2130.0,2148.0,68.0,-7.0,
2092.0,2099.0,68.0,-7.0,
2102.0,2024.0,68.0,-7.0,
2087.0,2057.0,68.0,-7.0,
2085.0,2167.0,68.0,-8.0,
2060.0,2023.0,68.0,-8.0,
2041.0,1987.0,68.0,-8.0,
2011.0,2057.0,68.0,-8.0,
2063.0,2279.0,68.0,-8.0,
2062.0,2004.0,68.0,-8.0,
2169.0,2114.0,68.0,-8.0,
2110.0,2261.0,67.0,-8.0,
2049.0,1923.0,67.0,-8.0,
2091.0,2062.0,66.0,-7.0,
2086.0,2048.0,66.0,-7.0,
2079.0,2035.0,65.0,-7.0,
2056.0,2179.0,64.0,-7.0,
2011.0,1992.0,64.0,-7.0,
2069.0,2083.0,64.0,-7.0,
2093.0,2117.0,63.0,-7.0,
2056.0,2098.0,63.0,-6.0,
2050.0,2024.0,63.0,-6.0,
2084.0,2025.0,63.0,-6.0,
2105.0,2089.0,63.0,-6.0,
2066.0,2098.0,63.0,-6.0,
2048.0,2100.0,63.0,-7.0,
2053.0,2095.0,63.0,-6.0,
2089.0,2137.0,64.0,-6.0,
2078.0,2083.0,64.0,-6.0,
2058.0,2095.0,64.0,-7.0,
2075.0,2113.0,64.0,-7.0,
2069.0,2100.0,64.0,-7.0,
2064.0,2129.0,64.0,-7.0,
2035.0,2087.0,64.0,-7.0,
2040.0,2078.0,0,
2063.0,2071.0,64.0,-7.0,
2113.0,2087.0,64.0,-7.0,
2077.0,2133.0,64.0,-7.0,
2071.0,2116.0,0,
2083.0,2136.0,64.0,-7.0,
2092.0,2100.0,64.0,-7.0,
2066.0,2074.0,64.0,-7.0,
2047.0,2130.0,64.0,-7.0,
2029.0,2042.0,64.0,-7.0,
2040.0,2071.0,64.0,-7.0,
2088.0,2072.0,64.0,-7.0,
2070.0,2097.0,64.0,-8.0,
2096.0,2008.0,64.0,-8.0,
2067.0,2115.0,64.0,-8.0,
2093.0,2084.0,64.0,-8.0,
2052.0,2142.0,65.0,-8.0,
2073.0,2186.0,65.0,-8.0,
2051.0,2037.0,65.0,-8.0,
2064.0,2053.0,65.0,-8.0,
2062.0,2006.0,65.0,-8.0,
2066.0,2132.0,65.0,-8.0,
2068.0,2106.0,64.0,-8.0,
2063.0,2043.0,64.0,-8.0,
2066.0,2024.0,64.0,-8.0,
2067.0,2130.0,64.0,-8.0,
2069.0,2132.0,63.0,-8.0,
2064.0,2070.0,63.0,-8.0,
2102.0,2148.0,62.0,-7.0,
2104.0,2176.0,62.0,-7.0,
2091.0,2098.0,61.0,-7.0,
2088.0,2117.0,61.0,-7.0,
2107.0,2082.0,60.0,-7.0,
2085.0,2121.0,60.0,-7.0,
2063.0,2074.0,60.0,-7.0,
2047.0,2068.0,60.0,-6.0,
2067.0,2098.0,60.0,-6.0,
2096.0,2159.0,59.0,-6.0,
2080.0,2171.0,60.0,-7.0,
2044.0,2004.0,60.0,-6.0,
2076.0,2092.0,60.0,-6.0,
2102.0,2060.0,60.0,-6.0,
2074.0,2095.0,60.0,-6.0,
2043.0,2042.0,60.0,-6.0,
2043.0,2069.0,60.0,-6.0,
2068.0,2099.0,61.0,-6.0,
2065.0,2103.0,61.0,-7.0,
2081.0,2058.0,61.0,-7.0,
2082.0,2117.0,61.0,-7.0,
2064.0,2057.0,61.0,-7.0,
2079.0,2078.0,61.0,-7.0,
2020.0,2088.0,61.0,-7.0,
2022.0,2105.0,61.0,-7.0,
2046.0,2132.0,61.0,-7.0,
2055.0,2107.0,61.0,-7.0,
2023.0,2086.0,61.0,-7.0,
2034.0,2120.0,61.0,-7.0,
2071.0,2059.0,61.0,-7.0,
2178.0,2089.0,61.0,-7.0,
2230.0,2041.0,61.0,-7.0,
2144.0,2022.0,61.0,-7.0,
2108.0,2051.0,61.0,-7.0,
2093.0,2094.0,61.0,-7.0,
2132.0,2109.0,61.0,-7.0,
2056.0,2051.0,61.0,-7.0,
2073.0,2061.0,61.0,-8.0,
2087.0,2079.0,61.0,-8.0,
2075.0,2174.0,61.0,-8.0,
2052.0,2110.0,61.0,-8.0,
2043.0,2133.0,61.0,-8.0,
2031.0,2104.0,61.0,-8.0,
2057.0,2099.0,60.0,-8.0,
2080.0,2076.0,60.0,-8.0,
2079.0,2108.0,59.0,-8.0,
2058.0,2027.0,58.0,-8.0,
2088.0,2240.0,57.0,-7.0,
2100.0,2120.0,57.0,-7.0,
2028.0,1987.0,56.0,-7.0,
2030.0,2031.0,55.0,-6.0,
2030.0,2065.0,54.0,-6.0,
2066.0,2138.0,54.0,-6.0,
2050.0,2121.0,54.0,-6.0,
2035.0,2095.0,53.0,-6.0,
2060.0,2073.0,53.0,-6.0,
2094.0,2095.0,53.0,-5.0,
2080.0,2076.0,53.0,-5.0,
2060.0,2105.0,53.0,-6.0,
2058.0,2110.0,53.0,-6.0,
2075.0,2090.0,53.0,-6.0,
2097.0,2052.0,53.0,-6.0,
2061.0,2057.0,53.0,-6.0,
2065.0,2083.0,53.0,-6.0,
2086.0,2112.0,53.0,-6.0,
2092.0,2110.0,53.0,-6.0,
2074.0,2142.0,54.0,-6.0,
2055.0,2056.0,54.0,-6.0,
2055.0,2075.0,54.0,-6.0,
2086.0,2032.0,54.0,-7.0,
2079.0,2060.0,54.0,-7.0,
2063.0,2102.0,54.0,-7.0,
2066.0,2090.0,54.0,-7.0,
2081.0,2131.0,54.0,-7.0,
2092.0,2118.0,54.0,-7.0,
2038.0,2084.0,54.0,-7.0,
2034.0,2070.0,54.0,-7.0,
2037.0,2054.0,54.0,-8.0,
2083.0,2071.0,54.0,-8.0,
2054.0,2104.0,54.0,-8.0,
2158.0,2202.0,54.0,-8.0,
2099.0,2279.0,54.0,-8.0,
2066.0,1980.0,55.0,-8.0,
2073.0,2038.0,55.0,-8.0,
2094.0,2068.0,55.0,-8.0,
2073.0,2039.0,55.0,-8.0,
2054.0,2059.0,55.0,-8.0,
2118.0,2034.0,55.0,-8.0,
2059.0,2174.0,55.0,-8.0,
2069.0,1997.0,55.0,-8.0,
2065.0,2119.0,55.0,-8.0,
2084.0,2229.0,56.0,-8.0,
2045.0,2037.0,56.0,-8.0,
2047.0,2110.0,56.0,-8.0,
2046.0,2055.0,56.0,-8.0,
2076.0,2100.0,55.0,-8.0,
2044.0,2103.0,55.0,-7.0,
2072.0,2145.0,55.0,-7.0,
2074.0,2121.0,55.0,-7.0,
2053.0,2044.0,54.0,-7.0,
2118.0,2131.0,54.0,-7.0,
2065.0,2086.0,53.0,-7.0,
2011.0,2178.0,52.0,-7.0,
2048.0,2043.0,51.0,-7.0,
2093.0,2093.0,51.0,-7.0,
2087.0,2272.0,50.0,-7.0,
2045.0,1905.0,50.0,-6.0,
2060.0,2082.0,49.0,-6.0,
2094.0,2061.0,49.0,-6.0,
2069.0,2132.0,49.0,-6.0,
2072.0,2194.0,49.0,-5.0,
2043.0,2025.0,49.0,-5.0,
2068.0,2090.0,49.0,-5.0,
2090.0,2001.0,50.0,-5.0,
2070.0,2093.0,50.0,-5.0,
2043.0,1997.0,50.0,-5.0,
2080.0,2072.0,51.0,-6.0,
2109.0,2129.0,51.0,-6.0,
2073.0,2081.0,51.0,-6.0,
2058.0,2077.0,52.0,-6.0,
2057.0,2074.0,52.0,-6.0,
2066.0,2127.0,52.0,-6.0,
2050.0,2116.0,52.0,-7.0,
2011.0,2042.0,52.0,-7.0,
2054.0,2082.0,53.0,-7.0,
2139.0,2083.0,53.0,-7.0,
2144.0,2079.0,52.0,-7.0,
2095.0,2113.0,52.0,-7.0,
2085.0,2116.0,52.0,-7.0,
2066.0,2147.0,52.0,-7.0,
2100.0,2095.0,52.0,-7.0,
2086.0,2090.0,52.0,-7.0,
2064.0,2076.0,52.0,-7.0,
2077.0,2145.0,51.0,-7.0,
2083.0,2069.0,51.0,-7.0,
2087.0,2098.0,51.0,-7.0,
2038.0,2076.0,51.0,-7.0,
2021.0,2075.0,51.0,-7.0,
2024.0,2091.0,51.0,-7.0,
2074.0,2096.0,51.0,-7.0,
2067.0,2060.0,51.0,-7.0,
2094.0,2073.0,51.0,-7.0,
2069.0,2070.0,51.0,-7.0,
2105.0,2090.0,51.0,-7.0,
2077.0,2108.0,51.0,-7.0,
2054.0,2143.0,51.0,-7.0,
2047.0,2075.0,51.0,-7.0,
2065.0,2060.0,51.0,-7.0,
2111.0,2089.0,52.0,-7.0,
2074.0,2081.0,52.0,-7.0,
2076.0,2085.0,52.0,-7.0,
2080.0,2055.0,52.0,-7.0,
2094.0,2124.0,52.0,-7.0,
2048.0,2103.0,52.0,-7.0,
2070.0,2146.0,53.0,-7.0,
2028.0,2067.0,53.0,-7.0,
2060.0,1934.0,53.0,-7.0,
2077.0,2005.0,53.0,-7.0,
2067.0,2103.0,53.0,-7.0,
2095.0,2171.0,53.0,-7.0,
2077.0,2024.0,53.0,-7.0,
2098.0,2084.0,53.0,-7.0,
2055.0,2088.0,53.0,-7.0,
2036.0,2078.0,53.0,-7.0,
2054.0,2052.0,53.0,-7.0,
2083.0,2105.0,53.0,-7.0,
2052.0,2075.0,53.0,-7.0,
2082.0,2106.0,53.0,-7.0,
2086.0,2082.0,53.0,-6.0,
2097.0,2086.0,53.0,-6.0,
2082.0,2095.0,53.0,-6.0,
2054.0,2087.0,52.0,-6.0,
2061.0,2102.0,52.0,-6.0,
2036.0,2061.0,52.0,-6.0,
2104.0,2076.0,51.0,-7.0,
2075.0,2075.0,51.0,-7.0,
2079.0,2110.0,51.0,-7.0,
2086.0,2051.0,50.0,-7.0,
2118.0,2131.0,50.0,-7.0,
2077.0,2169.0,50.0,-6.0,
2059.0,2049.0,49.0,-6.0,
2049.0,2053.0,49.0,-6.0,
2084.0,2153.0,49.0,-6.0,
2076.0,2054.0,49.0,-6.0,
2081.0,2077.0,49.0,-6.0,
2077.0,2151.0,49.0,-6.0,
2084.0,2120.0,49.0,-6.0,
2111.0,2016.0,49.0,-6.0,
2045.0,2082.0,49.0,-6.0,
2044.0,2049.0,49.0,-6.0,
2055.0,2041.0,49.0,-7.0,
2096.0,2075.0,48.0,-7.0,
2068.0,2080.0,48.0,-7.0,
2062.0,2100.0,48.0,-6.0,
2080.0,2114.0,48.0,-6.0,
2092.0,2174.0,48.0,-6.0,
2088.0,2120.0,48.0,-6.0,
2070.0,2272.0,47.0,-7.0,
2002.0,1860.0,47.0,-7.0,
2052.0,2059.0,47.0,-7.0,
2082.0,2072.0,47.0,-7.0,
2052.0,2076.0,47.0,-7.0,
2071.0,2046.0,47.0,-7.0,
2048.0,2062.0,47.0,-7.0,
2060.0,2094.0,47.0,-7.0,
2047.0,2129.0,46.0,-7.0,
2035.0,2097.0,46.0,-7.0,
2105.0,2117.0,46.0,-7.0,
2097.0,2092.0,46.0,-7.0,
2078.0,2112.0,46.0,-7.0,
2078.0,2121.0,46.0,-7.0,
2078.0,2077.0,46.0,-7.0,
2067.0,2048.0,46.0,-7.0,
2107.0,2075.0,46.0,-7.0,
2092.0,2103.0,46.0,-6.0,
2068.0,2115.0,46.0,-7.0,
2057.0,2061.0,46.0,-7.0,
2084.0,2091.0,47.0,-7.0,
2090.0,2108.0,47.0,-8.0,
2062.0,2047.0,47.0,-7.0,
2054.0,2089.0,47.0,-8.0,
2078.0,2094.0,48.0,-8.0,
2080.0,2065.0,48.0,-8.0,
2063.0,2180.0,48.0,-8.0,
2025.0,2092.0,48.0,-8.0,
2043.0,2103.0,48.0,-8.0,
2077.0,2101.0,48.0,-8.0,
2046.0,2025.0,47.0,-8.0,
2055.0,2121.0,47.0,-8.0,
2076.0,2089.0,46.0,-8.0,
2099.0,2071.0,46.0,-8.0,
2092.0,2146.0,46.0,-7.0,
2037.0,2029.0,45.0,-7.0,
2064.0,1975.0,45.0,-7.0,
2080.0,2019.0,44.0,-6.0,
2074.0,2159.0,43.0,-5.0,
2070.0,2156.0,43.0,-6.0,
2060.0,2085.0,42.0,-6.0,
2089.0,2093.0,42.0,-7.0,
2100.0,2086.0,42.0,-7.0,
2073.0,2079.0,42.0,-7.0,
2058.0,2091.0,42.0,-6.0,
2065.0,2091.0,41.0,-6.0,
2074.0,2042.0,41.0,-6.0,
2078.0,2150.0,41.0,-7.0,
2081.0,2039.0,41.0,-7.0,
2065.0,2075.0,41.0,-7.0,
2092.0,2092.0,42.0,-6.0,
2081.0,2074.0,42.0,-6.0,
2073.0,2062.0,42.0,-6.0,
2071.0,2073.0,42.0,-6.0,
2056.0,2119.0,42.0,-7.0,
2072.0,2128.0,42.0,-7.0,
2083.0,2147.0,42.0,-7.0,
2075.0,2085.0,42.0,-7.0,
2071.0,2098.0,42.0,-7.0,
2099.0,2125.0,42.0,-7.0,
2076.0,2090.0,42.0,-7.0,
2051.0,2089.0,0,
2058.0,2113.0,42.0,-7.0,
2076.0,2065.0,42.0,-7.0,
2100.0,2097.0,42.0,-7.0,
2066.0,2088.0,42.0,-7.0,
2070.0,2113.0,42.0,-7.0,
2089.0,2133.0,42.0,-7.0,
2089.0,2065.0,42.0,-7.0,
2070.0,2106.0,42.0,-7.0,
2070.0,2180.0,43.0,-8.0,
2075.0,2096.0,43.0,-8.0,
2065.0,2042.0,43.0,-8.0,
2075.0,1930.0,43.0,-7.0,
2054.0,2038.0,43.0,-7.0,
2057.0,2036.0,43.0,-7.0,
2072.0,2080.0,43.0,-7.0,
2091.0,2076.0,43.0,-6.0,
2068.0,2221.0,43.0,-6.0,
2041.0,2023.0,43.0,-6.0,
2047.0,2033.0,43.0,-7.0,
2082.0,2164.0,43.0,-7.0,
2077.0,2043.0,43.0,-7.0,
2072.0,2118.0,43.0,-7.0,
2072.0,2149.0,43.0,-7.0,
2084.0,2107.0,43.0,-7.0,
2081.0,2121.0,43.0,-7.0,
2056.0,2102.0,42.0,-8.0,
2044.0,2067.0,42.0,-8.0,
2051.0,2126.0,42.0,-7.0,
2079.0,2109.0,42.0,-6.0,
2048.0,2298.0,41.0,-6.0,
2060.0,2013.0,41.0,-6.0,
2064.0,2119.0,41.0,-6.0,
2050.0,2006.0,40.0,-6.0,
2074.0,2043.0,40.0,-6.0,
2041.0,2048.0,40.0,-6.0,
2031.0,2083.0,40.0,-6.0,
2047.0,2079.0,40.0,-6.0,
2059.0,2059.0,39.0,-7.0,
2041.0,2082.0,39.0,-7.0,
2058.0,2086.0,39.0,-7.0,
2072.0,2074.0,38.0,-6.0,
2079.0,2077.0,38.0,-6.0,
2054.0,2122.0,37.0,-6.0,
2044.0,2102.0,37.0,-6.0,
2055.0,2160.0,36.0,-6.0,
2062.0,1990.0,36.0,-6.0,
2077.0,2045.0,35.0,-6.0,
2071.0,2136.0,35.0,-6.0,
2068.0,2093.0,35.0,-6.0,
2074.0,2096.0,34.0,-6.0,
2089.0,2118.0,34.0,-6.0,
2044.0,2074.0,34.0,-6.0,
2048.0,2051.0,34.0,-6.0,
2049.0,2084.0,33.0,-6.0,
2077.0,2108.0,33.0,-7.0,
2063.0,2042.0,33.0,-7.0,
2080.0,2099.0,33.0,-7.0,
2097.0,2147.0,34.0,-7.0,
2098.0,2105.0,34.0,-7.0,
2098.0,2126.0,34.0,-7.0,
2055.0,2089.0,34.0,-7.0,
2069.0,2052.0,34.0,-7.0,
2087.0,2088.0,34.0,-7.0,
2115.0,2034.0,34.0,-7.0,
2085.0,2101.0,34.0,-7.0,
2063.0,2045.0,35.0,-7.0,
2087.0,2085.0,35.0,-7.0,
2103.0,2080.0,35.0,-7.0,
2068.0,2048.0,35.0,-7.0,
2064.0,2124.0,35.0,-7.0,
2048.0,2174.0,35.0,-8.0,
2084.0,2156.0,35.0,-8.0,
2128.0,2120.0,35.0,-8.0,
2075.0,2086.0,35.0,-8.0,
2099.0,2083.0,35.0,-8.0,
2087.0,2070.0,35.0,-8.0,
2108.0,2089.0,35.0,-8.0,
2080.0,2134.0,35.0,-8.0,
2044.0,2192.0,35.0,-8.0,
2056.0,1984.0,35.0,-8.0,
2081.0,2062.0,35.0,-8.0,
2085.0,2113.0,35.0,-7.0,
2062.0,2044.0,35.0,-6.0,
2058.0,2049.0,35.0,-6.0,
2069.0,2053.0,35.0,-7.0,
2085.0,2055.0,35.0,-7.0,
2052.0,2076.0,35.0,-8.0,
2048.0,2079.0,35.0,-8.0,
2045.0,2094.0,35.0,-8.0,
2082.0,2064.0,35.0,-7.0,
2059.0,2101.0,35.0,-7.0,
2069.0,2145.0,35.0,-8.0,
2088.0,2052.0,35.0,-9.0,
2100.0,2099.0,36.0,-8.0,
2089.0,2120.0,36.0,-8.0,
2055.0,2094.0,36.0,-7.0,
2065.0,2099.0,35.0,-6.0,
2070.0,2095.0,35.0,-6.0,
2099.0,2099.0,35.0,-6.0,
2065.0,2097.0,35.0,-7.0,
2080.0,2102.0,36.0,-7.0,
2090.0,2106.0,36.0,-7.0,
2108.0,2116.0,36.0,-7.0,
2078.0,2101.0,36.0,-7.0,
2033.0,2083.0,36.0,-7.0,
2053.0,2102.0,36.0,-7.0,
2088.0,2109.0,35.0,-7.0,
2085.0,2106.0,35.0,-6.0,
2069.0,2050.0,35.0,-6.0,
2073.0,2052.0,35.0,-6.0,
2086.0,2062.0,35.0,-6.0,
2119.0,2069.0,34.0,-6.0,
2058.0,2061.0,34.0,-6.0,
2060.0,2111.0,34.0,-6.0,
2049.0,2106.0,34.0,-6.0,
2101.0,2155.0,34.0,-6.0,
2085.0,2142.0,33.0,-6.0,
2050.0,2053.0,33.0,-7.0,
2066.0,2019.0,33.0,-7.0,
2091.0,2100.0,33.0,-6.0,
2081.0,2068.0,33.0,-6.0,
2041.0,2048.0,33.0,-6.0,
2047.0,2038.0,33.0,-6.0,
2067.0,2060.0,33.0,-6.0,
2096.0,2107.0,33.0,-7.0,
2072.0,2164.0,33.0,-7.0,
2073.0,2117.0,33.0,-7.0,
2075.0,2099.0,33.0,-7.0,
2101.0,2099.0,32.0,-7.0,
2093.0,2081.0,32.0,-7.0,
2071.0,2084.0,32.0,-7.0,
2075.0,2123.0,32.0,-7.0,
2087.0,2135.0,32.0,-7.0,
2098.0,2066.0,32.0,-7.0,
2068.0,2035.0,31.0,-7.0,
2086.0,2106.0,31.0,-7.0,
2087.0,2049.0,31.0,-8.0,
2107.0,2088.0,31.0,-7.0,
2074.0,2140.0,31.0,-7.0,
2047.0,2022.0,30.0,-7.0,
2063.0,2084.0,30.0,-7.0,
2085.0,2121.0,30.0,-7.0,
2090.0,2113.0,30.0,-7.0,
2065.0,2092.0,30.0,-7.0,
2067.0,2066.0,30.0,-7.0,
2091.0,2096.0,29.0,-7.0,
2098.0,2054.0,29.0,-7.0,
2062.0,2092.0,29.0,-7.0,
2062.0,2097.0,28.0,-8.0,
2050.0,2031.0,28.0,-8.0,
2105.0,2087.0,28.0,-8.0,
2062.0,2021.0,27.0,-7.0,
2061.0,2080.0,27.0,-7.0,
2082.0,2147.0,27.0,-7.0,
2090.0,2102.0,27.0,-8.0,
2067.0,2164.0,26.0,-8.0,
2048.0,2101.0,26.0,-8.0,
2055.0,2070.0,26.0,-8.0,
2077.0,2113.0,26.0,-8.0,
2112.0,2099.0,26.0,-8.0,
2090.0,2085.0,26.0,-8.0,
2072.0,2054.0,26.0,-8.0,
2086.0,2139.0,26.0,-8.0,
2138.0,2151.0,25.0,-8.0,
2097.0,2169.0,25.0,-8.0,
2044.0,2070.0,25.0,-7.0,
2051.0,2020.0,25.0,-7.0,
2076.0,2055.0,25.0,-7.0,
2076.0,2064.0,25.0,-7.0,
2046.0,2086.0,25.0,-8.0,
2053.0,2222.0,25.0,-8.0,
2060.0,2047.0,25.0,-8.0,
2100.0,2101.0,25.0,-8.0,
2055.0,2076.0,24.0,-8.0,
2043.0,2072.0,24.0,-8.0,
2037.0,2114.0,24.0,-8.0,
2076.0,2144.0,24.0,-9.0,
2071.0,2147.0,24.0,-9.0,
2055.0,2109.0,24.0,-8.0,
2071.0,2048.0,24.0,-8.0,
2090.0,2049.0,24.0,-8.0,
2084.0,2052.0,24.0,-8.0,
2060.0,2105.0,24.0,-8.0,
2053.0,2041.0,23.0,-8.0,
2057.0,2072.0,23.0,-8.0,
2091.0,2055.0,24.0,-8.0,
2070.0,2095.0,24.0,-8.0,
2071.0,2099.0,24.0,-8.0,
2077.0,2063.0,24.0,-8.0,
2114.0,2060.0,24.0,-8.0,
2071.0,2075.0,24.0,-8.0,
2052.0,2083.0,24.0,-8.0,
2067.0,2095.0,24.0,-8.0,
2077.0,2096.0,24.0,-8.0,
2096.0,2134.0,24.0,-8.0,
2074.0,2130.0,24.0,-8.0,
2075.0,2173.0,24.0,-8.0,
2073.0,2085.0,25.0,-8.0,
2089.0,2092.0,25.0,-8.0,
2058.0,2024.0,25.0,-8.0,
2058.0,2185.0,25.0,-8.0,
2043.0,1990.0,25.0,-8.0,
2071.0,2016.0,25.0,-8.0,
2084.0,2061.0,25.0,-8.0,
2055.0,2078.0,25.0,-8.0,
2067.0,2100.0,25.0,-8.0,
2085.0,2106.0,25.0,-8.0,
2079.0,2124.0,25.0,-8.0,
2056.0,2113.0,25.0,-7.0,
2049.0,2099.0,25.0,-7.0,
2050.0,2086.0,25.0,-7.0,
2070.0,2083.0,26.0,-7.0,
2057.0,2102.0,26.0,-8.0,
2068.0,2105.0,26.0,-8.0,
2081.0,2089.0,26.0,-8.0,
2095.0,2103.0,26.0,-8.0,
2068.0,2116.0,26.0,-8.0,
2042.0,2098.0,26.0,-8.0,
2043.0,2070.0,26.0,-8.0,
2069.0,2075.0,26.0,-8.0,
2078.0,2078.0,26.0,-8.0,
2056.0,2098.0,26.0,-8.0,
2071.0,2136.0,25.0,-8.0,
2077.0,2087.0,25.0,-7.0,
2093.0,2023.0,25.0,-7.0,
2059.0,2076.0,25.0,-7.0,
2046.0,2094.0,25.0,-7.0,
2057.0,2090.0,25.0,-8.0,
2074.0,2114.0,25.0,-8.0,
2090.0,2130.0,25.0,-8.0,
2075.0,2009.0,25.0,-8.0,
2073.0,2073.0,25.0,-8.0,
2093.0,2090.0,25.0,-8.0,
2100.0,2131.0,25.0,-8.0,
2054.0,2102.0,25.0,-8.0,
2091.0,2160.0,24.0,-8.0,
2085.0,2101.0,24.0,-8.0,
2096.0,2112.0,24.0,-8.0,
2095.0,2124.0,24.0,-8.0,
2069.0,2100.0,24.0,-8.0,
2080.0,2077.0,24.0,-8.0,
2078.0,2029.0,24.0,-8.0,
2088.0,2076.0,24.0,-8.0,
2063.0,2075.0,24.0,-8.0,
2055.0,2052.0,23.0,-8.0,
2029.0,2128.0,23.0,-8.0,
2079.0,2092.0,23.0,-8.0,
2068.0,2111.0,23.0,-8.0,
2054.0,1981.0,23.0,-8.0,
2066.0,2006.0,23.0,-8.0,
2083.0,2112.0,23.0,-8.0,
2060.0,2101.0,23.0,-8.0,
2041.0,2087.0,23.0,-8.0,
2052.0,2124.0,23.0,-8.0,
2063.0,2099.0,23.0,-8.0,
2094.0,2128.0,23.0,-8.0,
2069.0,2115.0,23.0,-8.0,
2072.0,2120.0,22.0,-8.0,
2077.0,2152.0,22.0,-8.0,
2090.0,2143.0,22.0,-8.0,
2060.0,2076.0,22.0,-8.0,
2035.0,2011.0,22.0,-8.0,
2051.0,2052.0,22.0,-8.0,
2079.0,2077.0,22.0,-8.0,
2066.0,2110.0,22.0,-8.0,
2077.0,2092.0,22.0,-8.0,
2063.0,2068.0,22.0,-8.0,
2078.0,2153.0,21.0,-8.0,
2097.0,2067.0,21.0,-8.0,
2064.0,2093.0,21.0,-8.0,
2064.0,2149.0,21.0,-8.0,
2068.0,2122.0,21.0,-8.0,
2077.0,2103.0,21.0,-8.0,
2081.0,2034.0,21.0,-8.0,
2061.0,2080.0,21.0,-8.0,
2069.0,2074.0,21.0,-8.0,
2072.0,2097.0,21.0,-8.0,
2083.0,2105.0,21.0,-8.0,
2052.0,2083.0,21.0,-9.0,
2042.0,2092.0,21.0,-9.0,
2036.0,2079.0,21.0,-9.0,
2064.0,2094.0,21.0,-8.0,
2084.0,2096.0,21.0,-8.0,
2062.0,2074.0,21.0,-8.0,
2074.0,2107.0,21.0,-8.0,
2065.0,2089.0,21.0,-8.0,
2088.0,2101.0,21.0,-8.0,
2060.0,2068.0,21.0,-8.0,
2041.0,2023.0,21.0,-8.0,
2047.0,2100.0,21.0,-8.0,
2060.0,2171.0,21.0,-8.0,
2076.0,2105.0,21.0,-8.0,
2058.0,2179.0,21.0,-8.0,
2060.0,2048.0,21.0,-8.0,
2065.0,2014.0,21.0,-8.0,
2073.0,2010.0,21.0,-8.0,
2079.0,2070.0,21.0,-8.0,
2045.0,2086.0,21.0,-8.0,
2053.0,2128.0,21.0,-8.0,
2093.0,2193.0,21.0,-8.0,
2092.0,2151.0,20.0,-8.0,
2058.0,2115.0,20.0,-8.0,
2073.0,2008.0,20.0,-8.0,
2082.0,2005.0,20.0,-8.0,
2079.0,2030.0,20.0,-8.0,
2062.0,2105.0,20.0,-8.0,
2050.0,2113.0,20.0,-8.0,
2031.0,2029.0,0,
2048.0,2040.0,20.0,-8.0,
2092.0,2094.0,20.0,-8.0,
2076.0,2104.0,20.0,-8.0,
2084.0,2152.0,20.0,-8.0,
2076.0,2098.0,20.0,-8.0,
2082.0,2161.0,20.0,-8.0,
2077.0,2130.0,20.0,-8.0,
2050.0,2121.0,20.0,-8.0,
2054.0,2101.0,20.0,-8.0,
2067.0,2031.0,20.0,-8.0,
2090.0,2089.0,20.0,-8.0,
2061.0,2122.0,20.0,-8.0,
2062.0,2092.0,20.0,-8.0,
2071.0,2094.0,20.0,-8.0,
2109.0,2160.0,20.0,-8.0,
2074.0,2127.0,20.0,-8.0,
2035.0,2062.0,20.0,-9.0,
2031.0,1940.0,20.0,-9.0,
2068.0,2041.0,20.0,-9.0,
2100.0,2065.0,20.0,-9.0,
2060.0,2075.0,21.0,-9.0,
2080.0,2122.0,21.0,-9.0,
2093.0,2108.0,21.0,-9.0,
2099.0,2129.0,21.0,-9.0,
2080.0,2090.0,21.0,-9.0,
2051.0,2120.0,21.0,-9.0,
2054.0,2089.0,21.0,-9.0,
2070.0,2087.0,21.0,-9.0,
2090.0,2111.0,21.0,-9.0,
2067.0,2092.0,21.0,-9.0,
2064.0,2094.0,21.0,-9.0,
2081.0,2144.0,21.0,-9.0,
2090.0,2130.0,21.0,-9.0,
2099.0,2141.0,21.0,-9.0,
2041.0,1997.0,21.0,-9.0,
2055.0,2040.0,20.0,-9.0,
2068.0,2131.0,20.0,-9.0,
2083.0,2076.0,20.0,-9.0,
2067.0,2040.0,20.0,-9.0,
2063.0,2063.0,20.0,-9.0,
2084.0,2102.0,20.0,-9.0,
2099.0,2118.0,19.0,-9.0,
2075.0,2086.0,19.0,-9.0,
2059.0,2097.0,19.0,-9.0,
2066.0,2152.0,19.0,-9.0,
2049.0,2068.0,19.0,-9.0,
2100.0,2110.0,19.0,-9.0,
2063.0,2050.0,18.0,-9.0,
2076.0,2098.0,18.0,-9.0,
2083.0,2080.0,18.0,-9.0,
2082.0,2114.0,18.0,-9.0,
2072.0,2091.0,18.0,-9.0,
2040.0,2092.0,17.0,-9.0,
2047.0,2092.0,17.0,-9.0,
2071.0,2159.0,17.0,-9.0,
2070.0,2118.0,17.0,-9.0,
2072.0,2193.0,17.0,-8.0,
2065.0,2168.0,17.0,-9.0,
2074.0,2089.0,17.0,-9.0,
2084.0,1984.0,16.0,-9.0,
2074.0,1990.0,16.0,-9.0,
2052.0,2020.0,16.0,-9.0,
2049.0,2084.0,16.0,-9.0,
2054.0,2061.0,16.0,-9.0,
2087.0,2113.0,16.0,-9.0,
2060.0,2088.0,16.0,-9.0,
2068.0,2083.0,16.0,-9.0,
2085.0,2097.0,16.0,-9.0,
2106.0,2086.0,16.0,-9.0,
2075.0,2088.0,16.0,-9.0,
2054.0,2115.0,16.0,-9.0,
2059.0,2112.0,16.0,-9.0,
2066.0,2094.0,16.0,-9.0,
2108.0,2154.0,16.0,-9.0,
2073.0,2121.0,16.0,-9.0,
2068.0,2096.0,16.0,-9.0,
2083.0,2025.0,16.0,-9.0,
2101.0,2094.0,16.0,-9.0,
2077.0,2092.0,16.0,-9.0,
2048.0,2103.0,16.0,-9.0,
2043.0,2105.0,16.0,-9.0,
2060.0,2103.0,16.0,-9.0,
2091.0,2086.0,16.0,-9.0,
2074.0,2085.0,16.0,-9.0,
2052.0,2075.0,16.0,-9.0,
2075.0,2094.0,16.0,-9.0,
2075.0,2097.0,16.0,-9.0,
2057.0,2155.0,16.0,-9.0,
2056.0,2088.0,16.0,-9.0,
2052.0,2091.0,16.0,-9.0,
2063.0,2099.0,16.0,-9.0,
2095.0,2096.0,16.0,-9.0,
2063.0,2120.0,16.0,-9.0,
2073.0,2071.0,16.0,-9.0,
2070.0,2035.0,16.0,-9.0,
2090.0,2108.0,16.0,-10.0,
2078.0,2099.0,16.0,-9.0,
2048.0,2142.0,16.0,-9.0,
2048.0,2149.0,16.0,-9.0,
2054.0,2089.0,16.0,-9.0,
2090.0,1988.0,16.0,-9.0,
2073.0,2018.0,16.0,-9.0,
2065.0,2159.0,16.0,-9.0,
2064.0,2112.0,16.0,-9.0,
2096.0,2112.0,16.0,-9.0,
2064.0,2040.0,16.0,-9.0,
2046.0,2041.0,16.0,-9.0,
2050.0,2101.0,15.0,-9.0,
2060.0,2128.0,15.0,-9.0,
2087.0,2101.0,15.0,-9.0,
2074.0,2108.0,15.0,-9.0,
2073.0,2142.0,15.0,-9.0,
2089.0,2136.0,15.0,-9.0,
2093.0,2089.0,15.0,-9.0,
2074.0,2020.0,15.0,-9.0,
2054.0,2036.0,15.0,-9.0,
2054.0,2017.0,15.0,-9.0,
2070.0,2093.0,15.0,-9.0,
2084.0,2087.0,15.0,-9.0,
2073.0,2102.0,15.0,-9.0,
2073.0,2101.0,15.0,-9.0,
2101.0,2131.0,15.0,-9.0,
2095.0,2119.0,15.0,-9.0,
2099.0,2104.0,15.0,-9.0,
2046.0,2086.0,15.0,-9.0,
2046.0,2078.0,16.0,-9.0,
2051.0,2106.0,16.0,-9.0,
2107.0,2110.0,16.0,-9.0,
2057.0,2098.0,16.0,-9.0,
2046.0,2087.0,16.0,-9.0,
2062.0,2090.0,16.0,-9.0,
2079.0,2105.0,16.0,-9.0,
2061.0,2083.0,16.0,-9.0,
2083.0,2084.0,16.0,-9.0,
2056.0,2094.0,16.0,-9.0,
2049.0,2116.0,16.0,-9.0,
2072.0,2121.0,16.0,-9.0,
2054.0,2076.0,16.0,-9.0,
2054.0,2044.0,16.0,-9.0,
2062.0,2085.0,16.0,-9.0,
2067.0,2049.0,16.0,-9.0,
2072.0,2104.0,16.0,-9.0,
1993.0,2097.0,16.0,-9.0,
2035.0,2077.0,16.0,-9.0,
2049.0,2103.0,16.0,-9.0,
2091.0,2124.0,16.0,-9.0,
2076.0,2113.0,15.0,-9.0,
2078.0,2123.0,15.0,-9.0,
2074.0,2053.0,15.0,-9.0,
2063.0,2079.0,15.0,-9.0,
2076.0,2131.0,15.0,-9.0,
2048.0,2204.0,15.0,-9.0,
2040.0,1957.0,15.0,-9.0,
2054.0,2017.0,15.0,-9.0,
2176.0,2094.0,15.0,-9.0,
2106.0,2096.0,15.0,-9.0,
2076.0,2159.0,15.0,-9.0,
2098.0,2167.0,15.0,-9.0,
2091.0,2019.0,15.0,-9.0,
2089.0,2003.0,15.0,-9.0,
2062.0,2043.0,16.0,-9.0,
2047.0,2107.0,16.0,-9.0,
2058.0,2148.0,16.0,-9.0,
2074.0,2125.0,16.0,-9.0,
2073.0,2106.0,16.0,-9.0,
2091.0,2103.0,16.0,-9.0,
2075.0,2044.0,16.0,-9.0,
2056.0,2115.0,16.0,-9.0,
2063.0,2134.0,16.0,-9.0,
2025.0,2163.0,16.0,-9.0,
2032.0,1976.0,17.0,-9.0,
2111.0,2027.0,17.0,-9.0,
2141.0,2023.0,17.0,-9.0,
2101.0,2124.0,17.0,-9.0,
2077.0,2084.0,17.0,-9.0,
2060.0,2114.0,18.0,-9.0,
2114.0,2201.0,18.0,-9.0,
2098.0,2221.0,18.0,-9.0,
2044.0,2042.0,18.0,-9.0,
2025.0,1992.0,18.0,-9.0,
2049.0,2032.0,19.0,-10.0,
2047.0,2064.0,19.0,-10.0,
2014.0,2035.0,19.0,-10.0,
2043.0,2099.0,19.0,-10.0,
2070.0,2094.0,19.0,-10.0,
2113.0,2074.0,19.0,-10.0,
2144.0,2117.0,18.0,-10.0,
2090.0,2133.0,18.0,-10.0,
2052.0,2126.0,18.0,-10.0,
2066.0,2081.0,18.0,-10.0,
2082.0,2106.0,18.0,-9.0,
2063.0,2120.0,18.0,-9.0,
2058.0,2126.0,17.0,-9.0,
2069.0,2095.0,17.0,-9.0,
2085.0,2073.0,17.0,-9.0,
2079.0,2104.0,17.0,-9.0,
2041.0,2107.0,16.0,-9.0,
2049.0,2087.0,16.0,-9.0,
2050.0,2086.0,16.0,-9.0,
2084.0,2089.0,15.0,-9.0,
2067.0,2104.0,15.0,-9.0,
2056.0,2101.0,15.0,-9.0,
2066.0,2120.0,15.0,-9.0,
2085.0,2073.0,14.0,-9.0,
2077.0,2044.0,14.0,-9.0,
2040.0,2079.0,14.0,-9.0,
2051.0,2083.0,14.0,-9.0,
2051.0,2090.0,14.0,-9.0,
2085.0,2076.0,13.0,-9.0,
2067.0,2089.0,14.0,-9.0,
2066.0,2101.0,14.0,-9.0,
2077.0,2097.0,14.0,-9.0,
2083.0,2110.0,14.0,-9.0,
2098.0,2143.0,14.0,-9.0,
2056.0,2108.0,14.0,-9.0,
2037.0,2028.0,14.0,-9.0,
2033.0,2052.0,14.0,-9.0,
2089.0,2074.0,14.0,-9.0,
2063.0,2103.0,14.0,-9.0,
2057.0,2049.0,14.0,-9.0,
2073.0,2065.0,14.0,-9.0,
2079.0,2102.0,14.0,-9.0,
2074.0,2105.0,13.0,-9.0,
2030.0,2070.0,13.0,-10.0,
2047.0,2061.0,13.0,-10.0,
2054.0,2046.0,13.0,-10.0,
2172.0,2071.0,12.0,-10.0,
2085.0,2083.0,12.0,-10.0,
2079.0,2102.0,12.0,-10.0,
2078.0,2100.0,12.0,-10.0,
2105.0,2126.0,11.0,-10.0,
2092.0,2143.0,11.0,-10.0,
2059.0,2126.0,11.0,-10.0,
2072.0,2066.0,11.0,-10.0,
2050.0,2080.0,11.0,-10.0,
2088.0,2044.0,11.0,-10.0,
2078.0,2092.0,11.0,-10.0,
2066.0,2093.0,11.0,-10.0,
2066.0,2073.0,11.0,-10.0,
2101.0,2098.0,11.0,-10.0,
2084.0,2110.0,11.0,-10.0,
2041.0,2095.0,11.0,-10.0,
2046.0,2086.0,11.0,-10.0,
2047.0,2097.0,11.0,-10.0,
2077.0,2095.0,12.0,-10.0,
2063.0,2094.0,12.0,-10.0,
2061.0,2099.0,12.0,-11.0,
2071.0,2097.0,12.0,-11.0,
2078.0,2105.0,12.0,-11.0,
2081.0,2098.0,12.0,-11.0,
2051.0,2093.0,12.0,-11.0,
2061.0,2085.0,12.0,-11.0,
2060.0,2087.0,12.0,-10.0,
2096.0,2091.0,12.0,-10.0,
2060.0,2088.0,12.0,-10.0,
2057.0,2091.0,13.0,-10.0,
2062.0,2089.0,13.0,-10.0,
2088.0,2096.0,13.0,-10.0,
2082.0,2089.0,13.0,-10.0,
2050.0,2090.0,13.0,-10.0,
2068.0,2090.0,13.0,-10.0,
2052.0,2083.0,13.0,-10.0,
2084.0,2088.0,13.0,-10.0,
2070.0,2084.0,13.0,-10.0,
2068.0,2072.0,13.0,-10.0,
2082.0,2108.0,13.0,-10.0,
2096.0,2101.0,12.0,-10.0,
2092.0,2112.0,12.0,-10.0,
2043.0,2069.0,12.0,-10.0,
2077.0,2109.0,12.0,-10.0,
2070.0,2123.0,12.0,-10.0,
2081.0,2054.0,12.0,-10.0,
2072.0,2120.0,12.0,-10.0,
2071.0,2087.0,12.0,-10.0,
2065.0,2107.0,12.0,-10.0,
2086.0,2088.0,12.0,-10.0,
2086.0,2106.0,12.0,-10.0,
2053.0,2050.0,12.0,-10.0,
2042.0,2067.0,12.0,-10.0,
2050.0,2089.0,12.0,-10.0,
2088.0,2111.0,12.0,-10.0,
2058.0,2102.0,12.0,-10.0,
2060.0,2095.0,12.0,-10.0,
2072.0,2079.0,12.0,-10.0,
2091.0,2051.0,12.0,-10.0,
2077.0,2065.0,12.0,-10.0,
2043.0,2064.0,13.0,-10.0,
2050.0,2083.0,13.0,-10.0,
2047.0,2083.0,13.0,-10.0,
2087.0,2096.0,13.0,-10.0,
2065.0,2094.0,13.0,-10.0,
2061.0,2093.0,13.0,-10.0,
2077.0,2109.0,13.0,-10.0,
2097.0,2102.0,13.0,-10.0,
2087.0,2109.0,13.0,-10.0,
2056.0,2126.0,13.0,-10.0,
2055.0,2141.0,13.0,-10.0,
2052.0,2024.0,13.0,-10.0,
2091.0,2063.0,14.0,-10.0,
2070.0,2072.0,14.0,-10.0,
2068.0,2082.0,14.0,-10.0,
2083.0,2084.0,14.0,-10.0,
2099.0,2109.0,14.0,-10.0,
2085.0,2112.0,14.0,-10.0,
2046.0,2069.0,14.0,-10.0,
2052.0,2052.0,14.0,-10.0,
2057.0,2078.0,14.0,-10.0,
2089.0,2097.0,14.0,-10.0,
2067.0,2089.0,14.0,-10.0,
2062.0,2095.0,15.0,-10.0,
2076.0,2098.0,15.0,-10.0,
2099.0,2121.0,15.0,-10.0,
2084.0,2075.0,15.0,-10.0,
2050.0,2100.0,15.0,-10.0,
2049.0,2091.0,15.0,-10.0,
2057.0,2086.0,15.0,-10.0,
2086.0,2094.0,15.0,-10.0,
2077.0,2104.0,15.0,-10.0,
2073.0,2097.0,15.0,-10.0,
2084.0,2097.0,15.0,-10.0,
2089.0,2077.0,15.0,-10.0,
2084.0,2083.0,15.0,-10.0,
2044.0,2078.0,15.0,-10.0,
2048.0,2082.0,15.0,-10.0,
2049.0,2081.0,15.0,-10.0,
2086.0,2087.0,15.0,-10.0,
2070.0,2101.0,15.0,-10.0,
2067.0,2093.0,15.0,-10.0,
2064.0,2078.0,15.0,-10.0,
2086.0,2098.0,15.0,-10.0,
2090.0,2099.0,15.0,-10.0,
2053.0,2093.0,15.0,-10.0,
2056.0,2090.0,15.0,-10.0,
2054.0,2081.0,15.0,-10.0,
2092.0,2088.0,15.0,-10.0,
2066.0,2087.0,15.0,-10.0,
2071.0,2090.0,15.0,-10.0,
2083.0,2115.0,15.0,-10.0,
2093.0,2103.0,15.0,-10.0,
2092.0,2109.0,15.0,-10.0,
2052.0,2083.0,15.0,-10.0,
2056.0,2084.0,15.0,-10.0,
2052.0,2085.0,15.0,-10.0,
2076.0,2078.0,15.0,-10.0,
2063.0,2080.0,15.0,-10.0,
2066.0,2081.0,15.0,-10.0,
2074.0,2086.0,15.0,-10.0,
2088.0,2087.0,15.0,-10.0,
2088.0,2080.0,15.0,-10.0,
2042.0,2082.0,14.0,-10.0,
2046.0,2090.0,14.0,-10.0,
2045.0,2083.0,14.0,-10.0,
2078.0,2094.0,14.0,-10.0,
2063.0,2089.0,14.0,-10.0,
2065.0,2090.0,0,
2074.0,2098.0,14.0,-10.0,
2080.0,2101.0,14.0,-10.0,
2096.0,2116.0,14.0,-10.0,
2061.0,2094.0,14.0,-10.0,
2049.0,2087.0,14.0,-10.0,
2058.0,2085.0,14.0,-10.0,
2096.0,2083.0,14.0,-10.0,
2074.0,2085.0,14.0,-10.0,
2062.0,2087.0,14.0,-10.0,
2078.0,2094.0,14.0,-10.0,
2091.0,2097.0,14.0,-10.0,
2100.0,2093.0,14.0,-10.0,
2062.0,2098.0,14.0,-10.0,
2053.0,2100.0,14.0,-10.0,
2060.0,2094.0,14.0,-10.0,
2082.0,2068.0,13.0,-10.0,
2075.0,2099.0,14.0,-10.0,
2063.0,2078.0,14.0,-10.0,
2073.0,2069.0,14.0,-10.0,
2092.0,2080.0,14.0,-10.0,
2121.0,2090.0,13.0,-10.0,
2058.0,2082.0,13.0,-10.0,
2057.0,2075.0,13.0,-10.0,
2050.0,2114.0,14.0,-10.0,
2091.0,2093.0,14.0,-10.0,
2081.0,2087.0,14.0,-10.0,
2062.0,2103.0,14.0,-10.0,
2072.0,2103.0,14.0,-10.0,
2091.0,2110.0,14.0,-10.0,
2098.0,2106.0,14.0,-10.0,
2047.0,2095.0,14.0,-10.0,
2050.0,2086.0,14.0,-10.0,
2048.0,2084.0,14.0,-10.0,
2085.0,2088.0,14.0,-10.0,
2070.0,2113.0,14.0,-10.0,
2064.0,2117.0,14.0,-10.0,
2079.0,2099.0,14.0,-10.0,
2085.0,2043.0,14.0,-10.0,
2100.0,2068.0,14.0,-10.0,
2054.0,2067.0,15.0,-10.0,
2046.0,2113.0,15.0,-10.0,
2056.0,2089.0,15.0,-10.0,
2094.0,2091.0,15.0,-10.0,
2075.0,2095.0,15.0,-10.0,
2068.0,2093.0,15.0,-10.0,
2074.0,2091.0,15.0,-10.0,
2103.0,2098.0,15.0,-10.0,
2111.0,2092.0,15.0,-10.0,
2063.0,2091.0,15.0,-10.0,
2067.0,2093.0,15.0,-10.0,
2053.0,2088.0,15.0,-10.0,
2097.0,2078.0,15.0,-10.0,
2088.0,2090.0,15.0,-10.0,
2071.0,2088.0,15.0,-10.0,
2078.0,2087.0,15.0,-10.0,
2089.0,2093.0,15.0,-10.0,
2096.0,2112.0,15.0,-10.0,
2047.0,2080.0,15.0,-10.0,
2051.0,2082.0,15.0,-10.0,
2054.0,2076.0,15.0,-10.0,
2079.0,2081.0,15.0,-10.0,
2077.0,2081.0,15.0,-10.0,
2056.0,2093.0,15.0,-10.0,
2060.0,2096.0,15.0,-10.0,
2080.0,2088.0,15.0,-10.0,
2086.0,2089.0,15.0,-10.0,
2052.0,2080.0,15.0,-10.0,
2056.0,2087.0,15.0,-10.0,
2053.0,2083.0,15.0,-10.0,
2076.0,2107.0,15.0,-10.0,
2067.0,2083.0,15.0,-10.0,
2055.0,2075.0,15.0,-10.0,
2067.0,2092.0,15.0,-10.0,
2094.0,2098.0,15.0,-10.0,
2106.0,2103.0,15.0,-10.0,
2070.0,2095.0,15.0,-10.0,
2060.0,2057.0,15.0,-10.0,
2061.0,2076.0,15.0,-10.0,
2094.0,2043.0,15.0,-10.0,
2088.0,2047.0,15.0,-10.0,
2069.0,2093.0,15.0,-10.0,
2075.0,2100.0,15.0,-10.0,
2095.0,2106.0,15.0,-10.0,
2099.0,2095.0,15.0,-10.0,
2052.0,2104.0,15.0,-10.0,
2043.0,2107.0,15.0,-10.0,
2059.0,2100.0,15.0,-10.0,
2086.0,2083.0,15.0,-10.0,
2084.0,2073.0,15.0,-10.0,
2054.0,2092.0,15.0,-10.0,
2103.0,2092.0,15.0,-10.0,
2080.0,2095.0,15.0,-10.0,
2094.0,2095.0,15.0,-10.0,
2046.0,2089.0,15.0,-10.0,
2042.0,2088.0,14.0,-10.0,
2033.0,2097.0,14.0,-10.0,
2071.0,2091.0,14.0,-10.0,
2068.0,2095.0,14.0,-10.0,
2058.0,2093.0,14.0,-10.0,
2062.0,2099.0,15.0,-10.0,
2074.0,2107.0,14.0,-10.0,
2096.0,2109.0,14.0,-10.0,
2059.0,2092.0,14.0,-10.0,
2051.0,2087.0,14.0,-10.0,
2054.0,2081.0,14.0,-11.0,
2081.0,2088.0,14.0,-11.0,
2081.0,2088.0,14.0,-11.0,
2065.0,2089.0,14.0,-11.0,
2071.0,2096.0,14.0,-11.0,
2088.0,2095.0,14.0,-11.0,
2096.0,2126.0,14.0,-11.0,
2055.0,2088.0,15.0,-11.0,
2061.0,2086.0,15.0,-11.0,
2064.0,2084.0,15.0,-11.0,
2115.0,2107.0,15.0,-11.0,
2081.0,2088.0,15.0,-11.0,
2061.0,2089.0,15.0,-11.0,
2074.0,2091.0,15.0,-11.0,
2090.0,2097.0,15.0,-11.0,
2099.0,2096.0,15.0,-10.0,
2063.0,2084.0,15.0,-10.0,
2045.0,2083.0,15.0,-10.0,
2055.0,2078.0,15.0,-10.0,
2079.0,2072.0,15.0,-10.0,
2083.0,2085.0,15.0,-10.0,
2066.0,2087.0,15.0,-10.0,
2074.0,2090.0,15.0,-10.0,
2074.0,2093.0,15.0,-10.0,
2098.0,2090.0,15.0,-10.0,
2059.0,2084.0,15.0,-10.0,
2047.0,2083.0,15.0,-10.0,
2027.0,2080.0,15.0,-10.0,
2076.0,2084.0,15.0,-10.0,
2087.0,2092.0,15.0,-10.0,
2062.0,2095.0,15.0,-10.0,
2073.0,2093.0,15.0,-10.0,
2091.0,2100.0,15.0,-10.0,
2077.0,2098.0,15.0,-10.0,
2072.0,2090.0,15.0,-11.0,
2059.0,2093.0,15.0,-11.0,
2059.0,2090.0,15.0,-10.0,
2079.0,2091.0,15.0,-10.0,
2092.0,2088.0,15.0,-10.0,
2065.0,2091.0,15.0,-10.0,
2074.0,2093.0,15.0,-10.0,
2080.0,2096.0,15.0,-10.0,
2100.0,2088.0,15.0,-10.0,
2058.0,2087.0,15.0,-10.0,
2049.0,2080.0,15.0,-10.0,
2048.0,2083.0,15.0,-10.0,
2085.0,2084.0,15.0,-10.0,
2084.0,2088.0,15.0,-10.0,
2061.0,2094.0,15.0,-10.0,
2070.0,2094.0,15.0,-10.0,
2075.0,2089.0,15.0,-10.0,
2087.0,2099.0,15.0,-10.0,
2056.0,2083.0,15.0,-10.0,
2047.0,2087.0,15.0,-10.0,
2052.0,2091.0,15.0,-11.0,
2070.0,2101.0,15.0,-11.0,
2087.0,2103.0,15.0,-11.0,
2053.0,2094.0,14.0,-11.0,
2063.0,2089.0,15.0,-11.0,
2078.0,2098.0,15.0,-10.0,
2098.0,2098.0,15.0,-10.0,
2063.0,2090.0,15.0,-10.0,
2056.0,2087.0,15.0,-10.0,
2054.0,2080.0,15.0,-10.0,
2085.0,2078.0,15.0,-10.0,
2098.0,2091.0,15.0,-10.0,
2058.0,2088.0,15.0,-10.0,
2077.0,2092.0,15.0,-11.0,
2093.0,2090.0,15.0,-11.0,
2098.0,2105.0,15.0,-11.0,
2066.0,2090.0,14.0,-11.0,
2056.0,2086.0,14.0,-11.0,
2061.0,2090.0,14.0,-11.0,
2091.0,2090.0,14.0,-11.0,
2097.0,2093.0,14.0,-11.0,
2068.0,2093.0,15.0,-11.0,
2062.0,2093.0,15.0,-11.0,
2075.0,2102.0,14.0,-11.0,
2103.0,2101.0,14.0,-11.0,
2059.0,2096.0,15.0,-11.0,
2042.0,2090.0,14.0,-11.0,
2048.0,2087.0,14.0,-10.0,
2090.0,2094.0,14.0,-10.0,
2088.0,2088.0,14.0,-11.0,
2066.0,2092.0,15.0,-11.0,
2065.0,2093.0,15.0,-11.0,
2085.0,2097.0,15.0,-11.0,
2097.0,2107.0,15.0,-10.0,
2068.0,2088.0,15.0,-10.0,
2047.0,2078.0,15.0,-10.0,
2052.0,2080.0,15.0,-10.0,
2081.0,2085.0,15.0,-10.0,
2092.0,2088.0,15.0,-10.0,
2067.0,2089.0,15.0,-10.0,
2074.0,2094.0,15.0,-10.0,
2080.0,2110.0,15.0,-10.0,
2099.0,2092.0,15.0,-10.0,
2068.0,2081.0,15.0,-10.0,
2052.0,2083.0,15.0,-11.0,
2056.0,2078.0,15.0,-11.0,
2077.0,2076.0,15.0,-11.0,
2095.0,2096.0,15.0,-11.0,
2060.0,2093.0,15.0,-11.0,
2063.0,2092.0,15.0,-11.0,
2081.0,2099.0,15.0,-11.0,
2098.0,2102.0,15.0,-11.0,
2065.0,2096.0,15.0,-11.0,
2051.0,2087.0,15.0,-11.0,
2050.0,2091.0,15.0,-11.0,
2090.0,2084.0,15.0,-11.0,
2087.0,2087.0,15.0,-11.0,
2061.0,2085.0,15.0,-11.0,
2066.0,2093.0,15.0,-11.0,
2075.0,2093.0,15.0,-11.0,
2108.0,2097.0,15.0,-11.0,
2054.0,2118.0,15.0,-11.0,
2034.0,2081.0,15.0,-11.0,
2034.0,2082.0,15.0,-11.0,
2062.0,2091.0,15.0,-11.0,
2079.0,2085.0,15.0,-11.0,
2060.0,2091.0,15.0,-11.0,
2066.0,2103.0,15.0,-11.0,
2076.0,2097.0,15.0,-11.0,
2090.0,2100.0,15.0,-11.0,
2064.0,2090.0,15.0,-11.0,
2054.0,2084.0,15.0,-11.0,
2054.0,2084.0,15.0,-11.0,
2084.0,2096.0,15.0,-11.0,
2104.0,2094.0,15.0,-11.0,
2073.0,2100.0,15.0,-11.0,
2080.0,2098.0,15.0,-11.0,
2094.0,2100.0,15.0,-11.0,
2121.0,2098.0,15.0,-11.0,
2083.0,2095.0,15.0,-11.0,
2058.0,2099.0,15.0,-11.0,
2057.0,2093.0,15.0,-11.0,
2077.0,2090.0,15.0,-11.0,
2100.0,2130.0,15.0,-11.0,
2070.0,2088.0,15.0,-11.0,
2074.0,2089.0,15.0,-11.0,
2086.0,2101.0,15.0,-11.0,
2099.0,2095.0,15.0,-11.0,
2069.0,2087.0,15.0,-11.0,
2044.0,2082.0,15.0,-11.0,
2053.0,2082.0,15.0,-11.0,
2072.0,2086.0,15.0,-11.0,
2128.0,2091.0,15.0,-11.0,
2068.0,2096.0,15.0,-11.0,
2064.0,2094.0,15.0,-11.0,
2082.0,2088.0,15.0,-11.0,
2097.0,2100.0,14.0,-11.0,
2076.0,2090.0,15.0,-11.0,
2051.0,2089.0,14.0,-11.0,
2054.0,2083.0,14.0,-11.0,
2046.0,2090.0,14.0,-11.0,
2076.0,2079.0,14.0,-11.0,
2060.0,2113.0,14.0,-11.0,
2062.0,2098.0,14.0,-11.0,
2078.0,2097.0,14.0,-11.0,
2096.0,2096.0,15.0,-11.0,
2070.0,2102.0,14.0,-10.0,
2056.0,2090.0,14.0,-10.0,
2060.0,2082.0,15.0,-10.0,
2073.0,2113.0,15.0,-10.0,
2096.0,2093.0,15.0,-10.0,
2067.0,2099.0,15.0,-10.0,
2081.0,2100.0,15.0,-10.0,
2079.0,2098.0,15.0,-10.0,
2107.0,2095.0,15.0,-10.0,
2072.0,2090.0,15.0,-10.0,
2051.0,2083.0,15.0,-10.0,
2058.0,2086.0,15.0,-10.0,
2071.0,2101.0,14.0,-10.0,
2096.0,2102.0,14.0,-10.0,
2065.0,2088.0,14.0,-10.0,
2065.0,2089.0,0,
2078.0,2092.0,14.0,-10.0,
2109.0,2087.0,14.0,-11.0,
2077.0,2085.0,15.0,-11.0,
2048.0,2087.0,15.0,-11.0,
2049.0,2075.0,15.0,-11.0,
2061.0,2080.0,14.0,-11.0,
2081.0,2084.0,15.0,-11.0,
2070.0,2091.0,15.0,-11.0,
2059.0,2094.0,15.0,-11.0,
2072.0,2100.0,15.0,-11.0,
2099.0,2104.0,15.0,-11.0,
2044.0,2087.0,15.0,-11.0,
2050.0,2090.0,15.0,-11.0,
2047.0,2110.0,15.0,-11.0,
2047.0,2085.0,15.0,-11.0,
2086.0,2097.0,15.0,-11.0,
2073.0,2099.0,15.0,-11.0,
2069.0,2099.0,15.0,-11.0,
2081.0,2101.0,14.0,-11.0,
2104.0,2102.0,14.0,-11.0,
2081.0,2093.0,14.0,-11.0,
2055.0,2094.0,15.0,-11.0,
2051.0,2088.0,15.0,-11.0,
2069.0,2089.0,15.0,-11.0,
2099.0,2015.0,15.0,-11.0,
2066.0,2094.0,15.0,-11.0,
2077.0,2090.0,15.0,-11.0,
2087.0,2086.0,15.0,-11.0,
2105.0,2100.0,15.0,-11.0,
2091.0,2091.0,15.0,-11.0,
2059.0,2081.0,15.0,-11.0,
2066.0,2087.0,15.0,-11.0,
2067.0,2090.0,15.0,-11.0,
2095.0,2086.0,15.0,-11.0,
2077.0,2083.0,15.0,-11.0,
2068.0,2087.0,15.0,-11.0,
2080.0,2101.0,15.0,-11.0,
2094.0,2090.0,15.0,-11.0,
2077.0,2088.0,15.0,-11.0,
2047.0,2085.0,15.0,-11.0,
2051.0,2086.0,15.0,-11.0,
2059.0,2094.0,15.0,-11.0,
2099.0,2092.0,15.0,-11.0,
2070.0,2090.0,15.0,-11.0,
2063.0,2089.0,15.0,-11.0,
2074.0,2091.0,15.0,-11.0,
2095.0,2096.0,15.0,-11.0,
2086.0,2089.0,15.0,-11.0,
2048.0,2090.0,15.0,-11.0,
2052.0,2088.0,15.0,-11.0,
2078.0,2085.0,15.0,-11.0,
2100.0,2094.0,15.0,-11.0,
2060.0,2099.0,15.0,-11.0,
2068.0,2094.0,15.0,-11.0,
2092.0,2098.0,15.0,-11.0,
2113.0,2099.0,15.0,-11.0,
2074.0,2091.0,15.0,-11.0,
2064.0,2086.0,15.0,-11.0,
2056.0,2089.0,15.0,-11.0,
2053.0,2090.0,15.0,-11.0,
2094.0,2102.0,15.0,-11.0,
2062.0,2099.0,15.0,-11.0,
2057.0,2103.0,15.0,-11.0,
2069.0,2096.0,15.0,-11.0,
2093.0,2098.0,15.0,-11.0,
2074.0,2089.0,15.0,-11.0,
2042.0,2084.0,15.0,-11.0,
2047.0,2081.0,15.0,-11.0,
2054.0,2080.0,15.0,-11.0,
2086.0,2088.0,15.0,-11.0,
2055.0,2082.0,15.0,-11.0,
2063.0,2089.0,15.0,-11.0,
2072.0,2093.0,15.0,-11.0,
2103.0,2111.0,14.0,-11.0,
2094.0,2093.0,15.0,-11.0,
2049.0,2094.0,15.0,-11.0,
2051.0,2084.0,15.0,-11.0,
2061.0,2085.0,15.0,-11.0,
2092.0,2086.0,15.0,-11.0,
2071.0,2092.0,14.0,-11.0,
2079.0,2094.0,15.0,-11.0,
2102.0,2094.0,15.0,-11.0,
2104.0,2091.0,15.0,-11.0,
2099.0,2095.0,15.0,-10.0,
2058.0,2087.0,15.0,-11.0,
2062.0,2087.0,15.0,-11.0,
2070.0,2081.0,15.0,-11.0,
2097.0,2083.0,15.0,-11.0,
2065.0,2089.0,15.0,-11.0,
2073.0,2091.0,15.0,-11.0,
2082.0,2098.0,14.0,-11.0,
2096.0,2093.0,14.0,-11.0,
2090.0,2087.0,14.0,-11.0,
2044.0,2085.0,14.0,-11.0,
2059.0,2086.0,14.0,-11.0,
2052.0,2081.0,14.0,-11.0,
2093.0,2087.0,14.0,-11.0,
2066.0,2092.0,14.0,-11.0,
2069.0,2089.0,14.0,-11.0,
2078.0,2090.0,14.0,-11.0,
2093.0,2104.0,14.0,-11.0,
2090.0,2104.0,14.0,-11.0,
2050.0,2087.0,15.0,-11.0,
2045.0,2084.0,15.0,-11.0,
2055.0,2088.0,15.0,-11.0,
2092.0,2090.0,15.0,-11.0,
2074.0,2090.0,15.0,-11.0,
2075.0,2096.0,15.0,-11.0,
2077.0,2098.0,15.0,-11.0,
2093.0,2102.0,15.0,-11.0,
2085.0,2104.0,15.0,-11.0,
2051.0,2097.0,15.0,-11.0,
2042.0,2080.0,15.0,-11.0,
2048.0,2082.0,15.0,-11.0,
2078.0,2092.0,15.0,-11.0,
2063.0,2094.0,15.0,-11.0,
2058.0,2099.0,15.0,-11.0,
2071.0,2100.0,15.0,-11.0,
2088.0,2098.0,15.0,-11.0,
2092.0,2100.0,15.0,-11.0,
2055.0,2090.0,15.0,-11.0,
2050.0,2083.0,15.0,-11.0,
2022.0,2083.0,15.0,-11.0,
2091.0,2094.0,15.0,-11.0,
2067.0,2125.0,15.0,-11.0,
2068.0,2098.0,15.0,-11.0,
2076.0,2095.0,15.0,-11.0,
2098.0,2108.0,15.0,-11.0,
2085.0,2091.0,15.0,-11.0,
2052.0,2086.0,15.0,-11.0,
2042.0,2075.0,15.0,-11.0,
2062.0,2077.0,15.0,-11.0,
2093.0,2085.0,15.0,-11.0,
2070.0,2088.0,15.0,-11.0,
2060.0,2092.0,15.0,-11.0,
2078.0,2092.0,15.0,-11.0,
2094.0,2103.0,15.0,-11.0,
2095.0,2094.0,15.0,-11.0,
2062.0,2088.0,15.0,-11.0,
2053.0,2089.0,15.0,-11.0,
2069.0,2091.0,15.0,-11.0,
2076.0,2093.0,15.0,-11.0,
2079.0,2080.0,15.0,-11.0,
2066.0,2093.0,15.0,-11.0,
2077.0,2098.0,15.0,-11.0,
2077.0,2103.0,15.0,-11.0,
2088.0,2104.0,15.0,-11.0,
2051.0,2085.0,15.0,-11.0,
2044.0,2087.0,15.0,-11.0,
2047.0,2079.0,15.0,-11.0,
2088.0,2091.0,15.0,-11.0,
2074.0,2089.0,15.0,-11.0,
2057.0,2090.0,15.0,-11.0,
2045.0,2103.0,15.0,-11.0,
2086.0,2096.0,15.0,-11.0,
2086.0,2097.0,15.0,-11.0,
2044.0,2085.0,15.0,-11.0,
2043.0,2082.0,15.0,-11.0,
2052.0,2081.0,15.0,-11.0,
2096.0,2094.0,14.0,-11.0,
2070.0,2081.0,14.0,-11.0,
2065.0,2081.0,14.0,-11.0,
2066.0,2084.0,14.0,-11.0,
2090.0,2089.0,14.0,-11.0,
2090.0,2089.0,14.0,-11.0,
2044.0,2094.0,14.0,-11.0,
2048.0,2094.0,14.0,-11.0,
2054.0,2083.0,14.0,-11.0,
2099.0,2088.0,14.0,-11.0,
2075.0,2090.0,14.0,-11.0,
2073.0,2094.0,14.0,-11.0,
2078.0,2091.0,14.0,-11.0,
2067.0,2092.0,14.0,-11.0,
2088.0,2091.0,14.0,-11.0,
2053.0,2085.0,14.0,-11.0,
2049.0,2082.0,14.0,-11.0,
2059.0,2083.0,14.0,-11.0,
2100.0,2100.0,14.0,-11.0,
2077.0,2082.0,14.0,-11.0,
2064.0,2101.0,15.0,-11.0,
2079.0,2101.0,15.0,-11.0,
2090.0,2095.0,15.0,-11.0,
2103.0,2091.0,15.0,-11.0,
2064.0,2087.0,15.0,-11.0,
2054.0,2084.0,15.0,-11.0,
2073.0,2077.0,15.0,-11.0,
2094.0,2084.0,15.0,-11.0,
2078.0,2087.0,15.0,-11.0,
2063.0,2091.0,15.0,-11.0,
2069.0,2099.0,15.0,-11.0,
2093.0,2102.0,15.0,-11.0,
2096.0,2102.0,15.0,-11.0,
2049.0,2101.0,15.0,-11.0,
2040.0,2098.0,15.0,-11.0,
2052.0,2091.0,15.0,-11.0,
2085.0,2105.0,15.0,-11.0,
2072.0,2090.0,15.0,-11.0,
2072.0,2098.0,15.0,-11.0,
2080.0,2095.0,15.0,-11.0,
2086.0,2098.0,15.0,-11.0,
2090.0,2093.0,15.0,-11.0,
2055.0,2080.0,15.0,-11.0,
2044.0,2084.0,15.0,-11.0,
2050.0,2089.0,15.0,-11.0,
2090.0,2084.0,15.0,-11.0,
2077.0,2093.0,15.0,-11.0,
2065.0,2087.0,15.0,-11.0,
2075.0,2098.0,15.0,-11.0,
2084.0,2090.0,15.0,-11.0,
2086.0,2096.0,15.0,-11.0,
2052.0,2086.0,15.0,-11.0,
2050.0,2088.0,15.0,-11.0,
2043.0,2081.0,15.0,-11.0,
2081.0,2087.0,15.0,-11.0,
2069.0,2089.0,15.0,-11.0,
2054.0,2086.0,15.0,-11.0,
2069.0,2082.0,15.0,-11.0,
2086.0,2095.0,15.0,-11.0,
2095.0,2093.0,15.0,-11.0,
2042.0,2084.0,15.0,-11.0,
2046.0,2076.0,14.0,-11.0,
2041.0,2079.0,14.0,-11.0,
2089.0,2088.0,14.0,-11.0,
2085.0,2091.0,14.0,-11.0,
2067.0,2101.0,14.0,-11.0,
2072.0,2104.0,14.0,-11.0,
2095.0,2098.0,14.0,-11.0,
2109.0,2094.0,14.0,-11.0,
2063.0,2088.0,14.0,-11.0,
2053.0,2094.0,14.0,-11.0,
2056.0,2093.0,15.0,-11.0,
2083.0,2104.0,15.0,-11.0,
2080.0,2091.0,15.0,-11.0,
2059.0,2091.0,15.0,-11.0,
2058.0,2081.0,15.0,-11.0,
2086.0,2098.0,0,
2093.0,2095.0,15.0,-11.0,
2054.0,2091.0,15.0,-11.0,
2050.0,2087.0,15.0,-11.0,
2053.0,2091.0,15.0,-11.0,
2086.0,2091.0,15.0,-11.0,
2081.0,2095.0,15.0,-11.0,
2051.0,2094.0,15.0,-11.0,
2069.0,2092.0,15.0,-11.0,
2082.0,2104.0,15.0,-11.0,
2085.0,2076.0,15.0,-11.0,
2050.0,2092.0,15.0,-11.0,
2056.0,2088.0,15.0,-11.0,
2053.0,2084.0,15.0,-11.0,
2083.0,2086.0,15.0,-11.0,
2084.0,2101.0,15.0,-11.0,
2058.0,2089.0,0,
2072.0,2092.0,15.0,-11.0,
2086.0,2099.0,15.0,-11.0,
2125.0,2091.0,15.0,-11.0,
2061.0,2091.0,15.0,-11.0,
2063.0,2091.0,15.0,-11.0,
2058.0,2090.0,15.0,-11.0,
2085.0,2081.0,15.0,-11.0,
2078.0,2080.0,15.0,-11.0,
2059.0,2091.0,15.0,-11.0,
2069.0,2094.0,15.0,-11.0,
2061.0,2105.0,15.0,-11.0,
2088.0,2098.0,15.0,-11.0,
2059.0,2091.0,15.0,-11.0,
2051.0,2085.0,15.0,-11.0,
2057.0,2084.0,15.0,-11.0,
2085.0,2089.0,15.0,-11.0,
2085.0,2088.0,15.0,-11.0,
2066.0,2088.0,15.0,-11.0,
2071.0,2097.0,15.0,-11.0,
2081.0,2096.0,15.0,-11.0,
2089.0,2095.0,15.0,-11.0,
2065.0,2089.0,15.0,-11.0,
2047.0,2089.0,15.0,-10.0,
2053.0,2088.0,15.0,-10.0,
2092.0,2094.0,15.0,-11.0,
2079.0,2093.0,15.0,-11.0,
2060.0,2095.0,15.0,-11.0,
2071.0,2098.0,15.0,-11.0,
2083.0,2095.0,15.0,-11.0,
2096.0,2099.0,15.0,-11.0,
2059.0,2094.0,15.0,-11.0,
2049.0,2094.0,15.0,-11.0,
2051.0,2074.0,15.0,-11.0,
2080.0,2085.0,15.0,-11.0,
2086.0,2088.0,15.0,-11.0,
2063.0,2096.0,15.0,-11.0,
2071.0,2094.0,15.0,-10.0,
2087.0,2094.0,15.0,-10.0,
2092.0,2094.0,15.0,-10.0,
2059.0,2084.0,15.0,-11.0,
2041.0,2090.0,14.0,-10.0,
2042.0,2085.0,15.0,-11.0,
2084.0,2086.0,15.0,-11.0,
2088.0,2092.0,14.0,-11.0,
2062.0,2100.0,15.0,-11.0,
2067.0,2098.0,14.0,-11.0,
2075.0,2097.0,14.0,-11.0,
2091.0,2094.0,14.0,-11.0,
2059.0,2091.0,14.0,-11.0,
2044.0,2091.0,14.0,-11.0,
2057.0,2092.0,14.0,-11.0,
2071.0,2082.0,14.0,-11.0,
2074.0,2090.0,14.0,-11.0,
2060.0,2089.0,14.0,-11.0,
2072.0,2089.0,14.0,-11.0,
2088.0,2095.0,14.0,-11.0,
2090.0,2087.0,15.0,-11.0,
2011.0,2095.0,15.0,-11.0,
2046.0,2085.0,15.0,-11.0,
2047.0,2088.0,15.0,-11.0,
2070.0,2087.0,15.0,-11.0,
2086.0,2089.0,14.0,-11.0,
2064.0,2094.0,14.0,-11.0,
2078.0,2096.0,15.0,-11.0,
2094.0,2100.0,14.0,-11.0,
2100.0,2088.0,14.0,-11.0,
2062.0,2080.0,14.0,-11.0,
2048.0,2093.0,14.0,-11.0,
2052.0,2085.0,14.0,-11.0,
2072.0,2092.0,14.0,-11.0,
2085.0,2100.0,15.0,-11.0,
2057.0,2091.0,15.0,-11.0,
2061.0,2091.0,15.0,-11.0,
2075.0,2092.0,15.0,-11.0,
2097.0,2094.0,15.0,-11.0,
2067.0,2087.0,15.0,-11.0,
2049.0,2089.0,15.0,-11.0,
2044.0,2071.0,15.0,-11.0,
2074.0,2087.0,15.0,-11.0,
2090.0,2084.0,15.0,-11.0,
2062.0,2086.0,15.0,-11.0,
2067.0,2094.0,15.0,-11.0,
2089.0,2099.0,15.0,-11.0,
2099.0,2099.0,15.0,-11.0,
2067.0,2090.0,15.0,-11.0,
2057.0,2093.0,15.0,-11.0,
2050.0,2085.0,15.0,-11.0,
2050.0,2095.0,15.0,-11.0,
2088.0,2095.0,15.0,-11.0,
2068.0,2095.0,15.0,-11.0,
2062.0,2090.0,15.0,-11.0,
2086.0,2105.0,15.0,-11.0,
2099.0,2101.0,15.0,-11.0,
2070.0,2094.0,15.0,-11.0,
2052.0,2093.0,15.0,-11.0,
2050.0,2091.0,15.0,-11.0,
2074.0,2094.0,15.0,-11.0,
2068.0,2095.0,15.0,-11.0,
2050.0,2089.0,15.0,-11.0,
2069.0,2097.0,15.0,-11.0,
2085.0,2095.0,15.0,-11.0,
2089.0,2101.0,15.0,-11.0,
2083.0,2095.0,15.0,-11.0,
2050.0,2089.0,15.0,-11.0,
2051.0,2087.0,15.0,-11.0,
2068.0,2094.0,15.0,-11.0,
2093.0,2079.0,15.0,-11.0,
2064.0,2096.0,15.0,-11.0,
2076.0,2094.0,15.0,-11.0,
2082.0,2100.0,15.0,-11.0,
2102.0,2090.0,15.0,-11.0,
2073.0,2085.0,15.0,-11.0,
2053.0,2081.0,15.0,-11.0,
2060.0,2083.0,15.0,-11.0,
2083.0,2084.0,15.0,-11.0,
2098.0,2095.0,15.0,-11.0,
2069.0,2093.0,15.0,-11.0,
2073.0,2093.0,15.0,-11.0,
2078.0,2102.0,15.0,-11.0,
2097.0,2103.0,15.0,-11.0,
2073.0,2096.0,15.0,-11.0,
2036.0,2091.0,15.0,-11.0,
2045.0,2105.0,15.0,-11.0,
2060.0,2090.0,15.0,-11.0,
2087.0,2092.0,15.0,-11.0,
2049.0,2090.0,15.0,-11.0,
2065.0,2090.0,15.0,-11.0,
2053.0,2100.0,15.0,-11.0,
2095.0,2102.0,15.0,-11.0,
2063.0,2099.0,14.0,-11.0,
2043.0,2085.0,14.0,-11.0,
2055.0,2088.0,15.0,-11.0,
2062.0,2094.0,15.0,-11.0,
2094.0,2090.0,15.0,-11.0,
2070.0,2091.0,15.0,-11.0,
2076.0,2091.0,15.0,-11.0,
2084.0,2094.0,15.0,-11.0,
2093.0,2096.0,15.0,-11.0,
2070.0,2088.0,15.0,-11.0,
2053.0,2086.0,15.0,-11.0,
2046.0,2081.0,15.0,-11.0,
2075.0,2085.0,15.0,-11.0,
2089.0,2094.0,15.0,-11.0,
2061.0,2092.0,15.0,-11.0,
2073.0,2093.0,15.0,-11.0,
2070.0,2094.0,15.0,-11.0,
2090.0,2094.0,15.0,-11.0,
2072.0,2103.0,15.0,-11.0,
2065.0,2089.0,15.0,-11.0,
2052.0,2090.0,15.0,-11.0,
2079.0,2087.0,15.0,-11.0,
2092.0,2088.0,14.0,-11.0,
2054.0,2099.0,15.0,-11.0,
2061.0,2097.0,14.0,-11.0,
2070.0,2097.0,14.0,-11.0,
2086.0,2103.0,14.0,-11.0,
2060.0,2086.0,14.0,-11.0,
2035.0,2084.0,14.0,-11.0,
2043.0,2084.0,14.0,-11.0,
2056.0,2090.0,14.0,-11.0,
2080.0,2095.0,14.0,-11.0,
2058.0,2098.0,14.0,-11.0,
2066.0,2094.0,15.0,-11.0,
2080.0,2099.0,14.0,-11.0,
2096.0,2098.0,15.0,-11.0,
2080.0,2090.0,15.0,-11.0,
2054.0,2092.0,15.0,-10.0,
2066.0,2091.0,15.0,-11.0,
2070.0,2093.0,15.0,-11.0,
2089.0,2091.0,15.0,-11.0,
2065.0,2088.0,15.0,-11.0,
2079.0,2087.0,15.0,-11.0,
2084.0,2098.0,15.0,-11.0,
2112.0,2094.0,15.0,-11.0,
2092.0,2090.0,15.0,-11.0,
2059.0,2086.0,15.0,-11.0,
2062.0,2085.0,15.0,-11.0,
2088.0,2088.0,15.0,-11.0,
2102.0,2082.0,14.0,-11.0,
2078.0,2088.0,14.0,-11.0,
2075.0,2092.0,14.0,-11.0,
2083.0,2094.0,14.0,-11.0,
2098.0,2088.0,15.0,-11.0,
2073.0,2090.0,15.0,-11.0,
2046.0,2085.0,14.0,-11.0,
2051.0,2083.0,14.0,-11.0,
2076.0,2087.0,14.0,-11.0,
2096.0,2097.0,14.0,-11.0,
2065.0,2093.0,15.0,-11.0,
2069.0,2091.0,15.0,-11.0,
2085.0,2096.0,15.0,-11.0,
2107.0,2096.0,14.0,-11.0,
2083.0,2088.0,15.0,-11.0,
2065.0,2087.0,15.0,-11.0,
2048.0,2085.0,15.0,-11.0,
2072.0,2089.0,15.0,-11.0,
2083.0,2090.0,15.0,-11.0,
2055.0,2093.0,15.0,-11.0,
2055.0,2090.0,15.0,-11.0,
2076.0,2099.0,15.0,-11.0,
2095.0,2103.0,15.0,-11.0,
2077.0,2091.0,15.0,-11.0,
2049.0,2088.0,15.0,-11.0,
2053.0,2084.0,15.0,-11.0,
2065.0,2078.0,15.0,-11.0,
2100.0,2091.0,15.0,-11.0,
2077.0,2097.0,15.0,-11.0,
2066.0,2094.0,15.0,-11.0,
2085.0,2095.0,15.0,-11.0,
2094.0,2095.0,15.0,-11.0,
2083.0,2087.0,15.0,-11.0,
2052.0,2083.0,15.0,-11.0,
2058.0,2082.0,15.0,-11.0,
2068.0,2094.0,15.0,-11.0,
2101.0,2092.0,15.0,-11.0,
2073.0,2086.0,15.0,-11.0,
2077.0,2086.0,15.0,-11.0,
2093.0,2101.0,15.0,-11.0,
2101.0,2090.0,15.0,-11.0,
2089.0,2089.0,15.0,-11.0,
2049.0,2073.0,15.0,-11.0,
2052.0,2082.0,15.0,-11.0,
2066.0,2103.0,15.0,-11.0,
2088.0,2094.0,15.0,-11.0,
2064.0,2095.0,15.0,-11.0,
2064.0,2079.0,15.0,-11.0,
2079.0,2064.0,15.0,-11.0,
2086.0,2120.0,15.0,-11.0,
2067.0,2126.0,15.0,-11.0,
2040.0,2088.0,15.0,-11.0,
2046.0,2094.0,15.0,-11.0,
2056.0,2086.0,14.0,-11.0,
2094.0,2092.0,14.0,-11.0,
2072.0,2088.0,14.0,-11.0,
2057.0,2061.0,14.0,-11.0,
2081.0,2054.0,14.0,-11.0,
2106.0,2092.0,14.0,-11.0,
2088.0,2170.0,14.0,-11.0,
2045.0,2115.0,14.0,-11.0,
2054.0,2070.0,14.0,-11.0,
2043.0,2055.0,14.0,-11.0,
2072.0,2059.0,14.0,-11.0,
2049.0,2080.0,14.0,-11.0,
2058.0,2058.0,14.0,-11.0,
2065.0,2141.0,14.0,-11.0,
2092.0,2139.0,14.0,-11.0,
2096.0,2090.0,14.0,-11.0,
2066.0,2042.0,14.0,-11.0,
2066.0,2127.0,14.0,-11.0,
2054.0,2135.0,14.0,-11.0,
2053.0,2064.0,14.0,-11.0,
2068.0,2127.0,14.0,-11.0,
2065.0,2105.0,14.0,-11.0,
2069.0,2095.0,14.0,-11.0,
2079.0,2016.0,13.0,-11.0,
2078.0,2046.0,13.0,-11.0,
2042.0,2041.0,13.0,-11.0,
2055.0,2112.0,13.0,-11.0,
2052.0,2136.0,13.0,-11.0,
2100.0,2115.0,13.0,-11.0,
2082.0,2111.0,13.0,-11.0,
2072.0,2054.0,13.0,-11.0,
2072.0,2055.0,13.0,-11.0,
2078.0,2097.0,13.0,-10.0,
2084.0,2108.0,13.0,-10.0,
2067.0,2178.0,13.0,-10.0,
2092.0,2131.0,13.0,-10.0,
2062.0,2031.0,13.0,-10.0,
2070.0,2140.0,13.0,-11.0,
2025.0,2024.0,13.0,-11.0,
2033.0,1924.0,13.0,-11.0,
2034.0,1920.0,13.0,-11.0,
2084.0,2024.0,13.0,-11.0,
2077.0,2207.0,13.0,-11.0,
2054.0,2245.0,13.0,-11.0,
2072.0,2254.0,13.0,-11.0,
2120.0,2224.0,13.0,-11.0,
2112.0,2165.0,13.0,-11.0,
2070.0,2154.0,13.0,-11.0,
2081.0,2159.0,13.0,-11.0,
2122.0,2053.0,13.0,-11.0,
2109.0,2151.0,13.0,-11.0,
2074.0,2177.0,13.0,-11.0,
2061.0,2075.0,13.0,-11.0,
2055.0,2083.0,13.0,-11.0,
2048.0,2043.0,13.0,-11.0,
2068.0,2092.0,13.0,-11.0,
2043.0,2095.0,13.0,-11.0,
2050.0,2056.0,13.0,-11.0,
2062.0,2048.0,13.0,-11.0,
2064.0,2120.0,13.0,-11.0,
2047.0,2073.0,13.0,-11.0,
2062.0,2053.0,13.0,-11.0,
2057.0,2029.0,13.0,-11.0,
2060.0,2025.0,13.0,-11.0,
2082.0,2084.0,13.0,-11.0,
2062.0,2074.0,13.0,-11.0,
2068.0,2060.0,12.0,-11.0,
2073.0,2013.0,12.0,-11.0,
2101.0,2029.0,13.0,-11.0,
2077.0,2123.0,13.0,-11.0,
2044.0,2109.0,13.0,-11.0,
2055.0,2093.0,13.0,-11.0,
2046.0,2020.0,13.0,-11.0,
2116.0,2052.0,13.0,-11.0,
2069.0,2156.0,14.0,-11.0,
2061.0,2104.0,14.0,-11.0,
2081.0,2053.0,15.0,-11.0,
2106.0,2051.0,15.0,-11.0,
2069.0,2090.0,16.0,-11.0,
2037.0,2141.0,16.0,-11.0,
2029.0,2148.0,17.0,-11.0,
2056.0,2140.0,17.0,-11.0,
2086.0,2118.0,17.0,-11.0,
2059.0,2101.0,18.0,-11.0,
2058.0,2094.0,18.0,-11.0,
2077.0,2031.0,18.0,-11.0,
2090.0,2035.0,18.0,-11.0,
2059.0,2104.0,18.0,-11.0,
2044.0,2096.0,18.0,-11.0,
2039.0,2059.0,18.0,-11.0,
2047.0,2066.0,18.0,-11.0,
2080.0,2101.0,18.0,-11.0,
2073.0,2071.0,18.0,-11.0,
2073.0,2033.0,18.0,-11.0,
2087.0,2113.0,19.0,-10.0,
2087.0,2079.0,19.0,-10.0,
2073.0,2108.0,19.0,-10.0,
2037.0,2093.0,19.0,-10.0,
2048.0,2103.0,19.0,-10.0,
2044.0,2128.0,19.0,-10.0,
2088.0,2053.0,19.0,-10.0,
2069.0,2189.0,19.0,-10.0,
2067.0,2148.0,20.0,-10.0,
2105.0,2118.0,20.0,-9.0,
2088.0,2069.0,20.0,-9.0,
2083.0,2073.0,21.0,-9.0,
2054.0,2102.0,21.0,-9.0,
2028.0,2119.0,21.0,-9.0,
2047.0,2080.0,22.0,-9.0,
2101.0,2096.0,22.0,-9.0,
2052.0,2158.0,23.0,-9.0,
2039.0,2069.0,23.0,-9.0,
2081.0,1983.0,24.0,-9.0,
2101.0,2059.0,24.0,-9.0,
2056.0,2154.0,24.0,-9.0,
2040.0,2090.0,25.0,-9.0,
2054.0,2040.0,25.0,-9.0,
2055.0,2046.0,25.0,-9.0,
2102.0,2071.0,25.0,-9.0,
2076.0,2049.0,26.0,-9.0,
2078.0,2097.0,26.0,-9.0,
2069.0,2118.0,26.0,-9.0,
2096.0,2036.0,25.0,-9.0,
2066.0,2043.0,25.0,-9.0,
2043.0,2089.0,25.0,-9.0,
2034.0,2061.0,25.0,-9.0,
2061.0,2063.0,25.0,-9.0,
2050.0,2069.0,24.0,-9.0,
2036.0,2145.0,24.0,-9.0,
2064.0,2120.0,24.0,-9.0,
2099.0,2144.0,24.0,-9.0,
2114.0,2155.0,23.0,-9.0,
2079.0,2136.0,23.0,-9.0,
2059.0,2107.0,23.0,-9.0,
2093.0,1994.0,23.0,-9.0,
2118.0,2093.0,23.0,-9.0,
2087.0,2158.0,22.0,-9.0,
2057.0,2045.0,22.0,-9.0,
2083.0,2009.0,22.0,-9.0,
2092.0,2080.0,23.0,-9.0,
2106.0,2120.0,23.0,-9.0,
2071.0,2080.0,23.0,-9.0,
2053.0,2154.0,23.0,-9.0,
2060.0,2142.0,23.0,-9.0,
2084.0,2112.0,24.0,-9.0,
2089.0,2093.0,24.0,-9.0,
2085.0,2097.0,24.0,-9.0,
2078.0,2093.0,24.0,-9.0,
2090.0,2067.0,24.0,-9.0,
2089.0,2020.0,24.0,-9.0,
2053.0,2104.0,24.0,-9.0,
2049.0,2064.0,24.0,-9.0,
2062.0,2020.0,24.0,-9.0,
2090.0,2047.0,25.0,-9.0,
2053.0,2056.0,25.0,-9.0,
2077.0,2097.0,25.0,-9.0,
2070.0,2162.0,25.0,-9.0,
2107.0,2129.0,25.0,-9.0,
2074.0,2096.0,25.0,-9.0,
2052.0,2126.0,25.0,-9.0,
2046.0,2025.0,25.0,-9.0,
2062.0,2184.0,25.0,-9.0,
2068.0,2109.0,25.0,-9.0,
2061.0,2060.0,26.0,-9.0,
2080.0,2072.0,26.0,-9.0,
2095.0,2039.0,26.0,-9.0,
2109.0,2077.0,26.0,-9.0,
2065.0,2046.0,26.0,-9.0,
2054.0,2120.0,26.0,-9.0,
2052.0,2099.0,27.0,-9.0,
2080.0,2088.0,27.0,-9.0,
2080.0,2101.0,27.0,-9.0,
2049.0,2043.0,27.0,-9.0,
2058.0,2052.0,27.0,-9.0,
2066.0,2068.0,27.0,-9.0,
2072.0,2027.0,28.0,-9.0,
2050.0,2116.0,28.0,-9.0,
2036.0,2128.0,28.0,-9.0,
2057.0,2107.0,28.0,-9.0,
2097.0,2120.0,28.0,-9.0,
2095.0,2128.0,28.0,-9.0,
2087.0,2118.0,28.0,-9.0,
2081.0,2122.0,28.0,-9.0,
2099.0,1946.0,28.0,-9.0,
2065.0,2151.0,28.0,-9.0,
2037.0,2120.0,29.0,-9.0,
2040.0,2149.0,29.0,-9.0,
2039.0,2097.0,29.0,-9.0,
2094.0,2068.0,29.0,-8.0,
2066.0,2048.0,29.0,-8.0,
2063.0,2083.0,29.0,-8.0,
2084.0,2012.0,29.0,-8.0,
2136.0,2045.0,29.0,-8.0,
2055.0,2144.0,29.0,-8.0,
2062.0,2156.0,29.0,-8.0,
2061.0,2109.0,29.0,-8.0,
2083.0,2107.0,30.0,-8.0,
2085.0,2078.0,30.0,-8.0,
2071.0,2042.0,30.0,-8.0,
2067.0,2114.0,30.0,-8.0,
2087.0,2052.0,30.0,-8.0,
2079.0,2095.0,31.0,-8.0,
2060.0,2136.0,31.0,-8.0,
2077.0,2166.0,31.0,-8.0,
2087.0,2109.0,31.0,-8.0,
2087.0,2062.0,32.0,-9.0,
2059.0,2027.0,32.0,-9.0,
2063.0,2102.0,32.0,-9.0,
2065.0,2156.0,32.0,-9.0,
2094.0,2074.0,32.0,-9.0,
2068.0,2068.0,32.0,-9.0,
2043.0,2045.0,33.0,-9.0,
2056.0,2092.0,33.0,-9.0,
2063.0,2059.0,33.0,-9.0,
2102.0,2012.0,33.0,-9.0,
2063.0,2075.0,33.0,-9.0,
2078.0,2088.0,33.0,-9.0,
2076.0,2123.0,33.0,-9.0,
2101.0,2080.0,33.0,-9.0,
2087.0,2112.0,33.0,-9.0,
2052.0,2105.0,33.0,-9.0,
2058.0,2038.0,33.0,-8.0,
2069.0,2180.0,33.0,-8.0,
2080.0,2097.0,33.0,-8.0,
2070.0,2148.0,33.0,-8.0,
2074.0,2065.0,33.0,-8.0,
2111.0,2070.0,33.0,-8.0,
2096.0,2088.0,33.0,-8.0,
2065.0,2033.0,33.0,-8.0,
2049.0,2047.0,33.0,-8.0,
2051.0,2151.0,33.0,-8.0,
2096.0,2061.0,33.0,-8.0,
2076.0,2008.0,33.0,-8.0,
2042.0,2080.0,33.0,-8.0,
2052.0,2111.0,33.0,-8.0,
2092.0,2092.0,33.0,-8.0,
2085.0,2134.0,33.0,-8.0,
2070.0,2040.0,33.0,-8.0,
2060.0,2091.0,33.0,-8.0,
2066.0,2111.0,33.0,-8.0,
2101.0,2056.0,33.0,-8.0,
2074.0,2012.0,33.0,-8.0,
2087.0,2247.0,34.0,-8.0,
2089.0,2196.0,34.0,-8.0,
2109.0,2047.0,34.0,-8.0,
2077.0,2137.0,34.0,-8.0,
2050.0,2120.0,34.0,-8.0,
2046.0,2081.0,34.0,-8.0,
2076.0,2102.0,34.0,-8.0,
2083.0,2067.0,35.0,-8.0,
2052.0,2055.0,35.0,-8.0,
2067.0,2083.0,35.0,-8.0,
2079.0,2123.0,35.0,-8.0,
2091.0,2073.0,35.0,-8.0,
2058.0,2078.0,35.0,-8.0,
2057.0,2059.0,35.0,-8.0,
2059.0,2055.0,35.0,-8.0,
2089.0,2077.0,36.0,-8.0,
2081.0,2039.0,36.0,-8.0,
2070.0,2116.0,36.0,-8.0,
2065.0,2131.0,0,
2081.0,2144.0,36.0,-8.0,
2079.0,2100.0,37.0,-8.0,
2036.0,2086.0,37.0,-8.0,
2051.0,2063.0,37.0,-8.0,
2040.0,2071.0,37.0,-8.0,
2088.0,2002.0,37.0,-8.0,
2046.0,2091.0,38.0,-8.0,
2040.0,2159.0,38.0,-8.0,
2063.0,2143.0,38.0,-8.0,
2091.0,2146.0,38.0,-8.0,
2071.0,2103.0,38.0,-8.0,
2040.0,2078.0,38.0,-8.0,
2055.0,2073.0,38.0,-8.0,
2084.0,2008.0,38.0,-8.0,
2077.0,2003.0,38.0,-8.0,
2069.0,2083.0,38.0,-8.0,
2046.0,2128.0,38.0,-8.0,
2069.0,2122.0,38.0,-8.0,
2083.0,2077.0,38.0,-8.0,
2038.0,2063.0,38.0,-8.0,
2060.0,2096.0,38.0,-8.0,
2064.0,2143.0,38.0,-8.0,
2095.0,2077.0,38.0,-8.0,
2118.0,2113.0,38.0,-8.0,
2055.0,2108.0,38.0,-8.0,
2065.0,2045.0,38.0,-8.0,
2079.0,2110.0,38.0,-8.0,
2109.0,2227.0,38.0,-8.0,
2075.0,2123.0,39.0,-8.0,
2045.0,2080.0,39.0,-8.0,
2050.0,2070.0,39.0,-8.0,
2089.0,2061.0,40.0,-8.0,
2053.0,2057.0,40.0,-8.0,
2064.0,2185.0,40.0,-8.0,
2084.0,2062.0,40.0,-8.0,
2126.0,2081.0,40.0,-8.0,
2091.0,2151.0,41.0,-8.0,
2072.0,2088.0,41.0,-8.0,
2062.0,2103.0,41.0,-8.0,
2055.0,2086.0,41.0,-8.0,
2103.0,2080.0,41.0,-8.0,
2074.0,1993.0,41.0,-8.0,
2067.0,2018.0,40.0,-8.0,
2095.0,2182.0,41.0,-8.0,
2102.0,2099.0,41.0,-8.0,
2068.0,2115.0,42.0,-8.0,
2047.0,2036.0,42.0,-8.0,
2066.0,2040.0,42.0,-8.0,
2058.0,2114.0,42.0,-8.0,
2072.0,2177.0,43.0,-8.0,
2061.0,2122.0,43.0,-8.0,
2077.0,2068.0,43.0,-8.0,
2093.0,2171.0,43.0,-8.0,
2102.0,2105.0,43.0,-8.0,
2054.0,2056.0,43.0,-8.0,
2057.0,1994.0,42.0,-8.0,
2065.0,2153.0,42.0,-8.0,
2098.0,2136.0,42.0,-8.0,
2085.0,2050.0,43.0,-8.0,
2062.0,2087.0,43.0,-8.0,
2059.0,2128.0,43.0,-8.0,
2076.0,2074.0,43.0,-8.0,
2097.0,2009.0,43.0,-8.0,
2059.0,2019.0,43.0,-8.0,
2045.0,2166.0,43.0,-8.0,
2057.0,2143.0,43.0,-8.0,
2078.0,2133.0,43.0,-8.0,
2046.0,2106.0,43.0,-8.0,
2071.0,2103.0,43.0,-8.0,
2079.0,2116.0,43.0,-8.0,
2102.0,2072.0,43.0,-8.0,
2095.0,2042.0,43.0,-8.0,
2066.0,2003.0,43.0,-8.0,
2051.0,2099.0,43.0,-8.0,
2071.0,2051.0,43.0,-8.0,
2101.0,2142.0,43.0,-8.0,
2038.0,2100.0,43.0,-8.0,
2071.0,2127.0,43.0,-8.0,
2074.0,2108.0,43.0,-8.0,
2090.0,2098.0,43.0,-8.0,
2065.0,2102.0,43.0,-8.0,
2055.0,2037.0,44.0,-8.0,
2051.0,2111.0,44.0,-8.0,
2096.0,2068.0,44.0,-8.0,
2091.0,2058.0,44.0,-8.0,
2082.0,2051.0,44.0,-8.0,
2072.0,2087.0,44.0,-8.0,
2069.0,2096.0,44.0,-8.0,
2108.0,2151.0,44.0,-8.0,
2029.0,2086.0,45.0,-8.0,
2032.0,2102.0,45.0,-8.0,
2051.0,2041.0,45.0,-8.0,
2072.0,1971.0,45.0,-8.0,
2062.0,2110.0,45.0,-8.0,
2044.0,2191.0,45.0,-8.0,
2109.0,2131.0,45.0,-8.0,
2094.0,2142.0,45.0,-8.0,
2084.0,2113.0,45.0,-8.0,
2043.0,2094.0,45.0,-8.0,
2052.0,1926.0,45.0,-8.0,
2055.0,2021.0,45.0,-8.0,
2089.0,2185.0,45.0,-8.0,
2064.0,2177.0,45.0,-9.0,
2065.0,2091.0,45.0,-9.0,
2078.0,2071.0,45.0,-9.0,
2094.0,2074.0,46.0,-8.0,
2079.0,2073.0,46.0,-8.0,
2045.0,2015.0,46.0,-8.0,
2054.0,2055.0,46.0,-8.0,
2091.0,2153.0,46.0,-8.0,
2093.0,2082.0,47.0,-8.0,
2060.0,2081.0,47.0,-8.0,
2069.0,2074.0,47.0,-8.0,
2091.0,2095.0,47.0,-8.0,
2085.0,2088.0,47.0,-8.0,
2058.0,2075.0,47.0,-8.0,
2064.0,2055.0,47.0,-8.0,
2050.0,2075.0,47.0,-8.0,
2072.0,2107.0,47.0,-8.0,
2089.0,2108.0,47.0,-8.0,
2047.0,2072.0,47.0,-8.0,
2058.0,2098.0,47.0,-8.0,
2066.0,2143.0,48.0,-8.0,
2092.0,2091.0,48.0,-8.0,
2049.0,2135.0,48.0,-8.0,
2048.0,2036.0,48.0,-8.0,
2050.0,2072.0,48.0,-8.0,
2069.0,2131.0,49.0,-8.0,
2071.0,2138.0,49.0,-8.0,
2062.0,2107.0,49.0,-8.0,
2084.0,2068.0,49.0,-8.0,
2066.0,2024.0,49.0,-8.0,
2090.0,2149.0,49.0,-9.0,
2049.0,2058.0,49.0,-9.0,
2038.0,2156.0,49.0,-8.0,
2066.0,2081.0,49.0,-8.0,
2117.0,2015.0,49.0,-8.0,
2094.0,1883.0,49.0,-8.0,
2040.0,2154.0,49.0,-8.0,
2063.0,2221.0,49.0,-8.0,
2089.0,2067.0,50.0,-8.0,
2073.0,2132.0,50.0,-8.0,
2043.0,2089.0,50.0,-8.0,
2061.0,2150.0,50.0,-8.0,
2091.0,2083.0,50.0,-9.0,
2100.0,2111.0,50.0,-8.0,
2084.0,2122.0,50.0,-8.0,
2081.0,2059.0,50.0,-8.0,
2093.0,2042.0,50.0,-8.0,
2105.0,2084.0,50.0,-8.0,
2059.0,2075.0,50.0,-8.0,
2061.0,2062.0,51.0,-9.0,
2064.0,2072.0,51.0,-8.0,
2078.0,2087.0,51.0,-8.0,
2080.0,2052.0,51.0,-8.0,
2083.0,2126.0,51.0,-9.0,
2069.0,2064.0,51.0,-9.0,
2112.0,2060.0,52.0,-9.0,
2092.0,2134.0,52.0,-9.0,
2047.0,2112.0,52.0,-9.0,
2048.0,2113.0,52.0,-9.0,
2044.0,1963.0,52.0,-9.0,
2061.0,2115.0,52.0,-9.0,
2062.0,2107.0,52.0,-9.0,
2058.0,2086.0,52.0,-8.0,
2086.0,2171.0,52.0,-8.0,
2090.0,2089.0,52.0,-8.0,
2079.0,2141.0,52.0,-8.0,
2036.0,2099.0,52.0,-9.0,
2057.0,2073.0,53.0,-9.0,
2084.0,2110.0,53.0,-9.0,
2086.0,2048.0,53.0,-9.0,
2053.0,2057.0,53.0,-9.0,
2066.0,2085.0,53.0,-9.0,
2079.0,2124.0,53.0,-9.0,
2095.0,2062.0,53.0,-9.0,
2056.0,2029.0,53.0,-9.0,
2084.0,1980.0,53.0,-9.0,
2042.0,2192.0,53.0,-8.0,
2081.0,2158.0,53.0,-8.0,
2097.0,2181.0,53.0,-8.0,
2082.0,2092.0,53.0,-8.0,
2070.0,2070.0,53.0,-8.0,
2080.0,2116.0,53.0,-8.0,
2081.0,2100.0,54.0,-8.0,
2057.0,2113.0,54.0,-9.0,
2048.0,2062.0,54.0,-9.0,
2037.0,2094.0,54.0,-9.0,
2120.0,2070.0,54.0,-9.0,
2063.0,2106.0,54.0,-9.0,
