2088.0,2102.0,15.0,-11.0,
2107.0,2097.0,15.0,-11.0,
2097.0,2100.0,15.0,-11.0,
2105.0,2098.0,15.0,-11.0,
2068.0,2084.0,15.0,-11.0,
2058.0,2082.0,15.0,-11.0,
2063.0,2083.0,15.0,-11.0,
2083.0,2090.0,15.0,-11.0,
2077.0,2091.0,15.0,-11.0,
2069.0,2087.0,15.0,-11.0,
2082.0,2091.0,15.0,-11.0,
2088.0,2096.0,15.0,-11.0,
2091.0,2091.0,15.0,-11.0,
2050.0,2082.0,15.0,-11.0,
2047.0,2073.0,15.0,-11.0,
2042.0,2086.0,15.0,-12.0,
2071.0,2084.0,15.0,-12.0,
2065.0,2089.0,15.0,-12.0,
2033.0,2094.0,15.0,-12.0,
2066.0,2098.0,15.0,-12.0,
2081.0,2103.0,15.0,-12.0,
2093.0,2108.0,15.0,-12.0,
2046.0,2084.0,15.0,-12.0,
2047.0,2085.0,15.0,-12.0,
2049.0,2083.0,15.0,-12.0,
2075.0,2091.0,15.0,-12.0,
2068.0,2092.0,15.0,-11.0,
2064.0,2097.0,15.0,-11.0,
2067.0,2092.0,15.0,-11.0,
2078.0,2095.0,15.0,-11.0,
2093.0,2090.0,15.0,-11.0,
2046.0,2081.0,15.0,-11.0,
2054.0,2084.0,15.0,-11.0,
2049.0,2085.0,15.0,-11.0,
2081.0,2090.0,15.0,-11.0,
2064.0,2104.0,15.0,-11.0,
2066.0,2096.0,15.0,-11.0,
2076.0,2098.0,15.0,-11.0,
2082.0,2109.0,15.0,-11.0,
2097.0,2108.0,15.0,-11.0,
2066.0,2093.0,15.0,-11.0,
2047.0,2085.0,15.0,-11.0,
2054.0,2078.0,15.0,-11.0,
2085.0,2079.0,15.0,-11.0,
2084.0,2087.0,15.0,-11.0,
2076.0,2090.0,15.0,-11.0,
2084.0,2098.0,15.0,-11.0,
2089.0,2102.0,15.0,-11.0,
2124.0,2097.0,15.0,-11.0,
2064.0,2087.0,15.0,-11.0,
2055.0,2088.0,15.0,-11.0,
2068.0,2078.0,15.0,-11.0,
2088.0,2089.0,15.0,-11.0,
2085.0,2091.0,15.0,-11.0,
2064.0,2091.0,15.0,-11.0,
2070.0,2099.0,15.0,-11.0,
2075.0,2087.0,15.0,-11.0,
2089.0,2101.0,15.0,-11.0,
2052.0,2090.0,15.0,-11.0,
2052.0,2081.0,15.0,-11.0,
2037.0,2089.0,15.0,-11.0,
2056.0,2078.0,15.0,-11.0,
2058.0,2080.0,15.0,-11.0,
2050.0,2081.0,15.0,-11.0,
2056.0,2091.0,15.0,-11.0,
2073.0,2089.0,15.0,-11.0,
2089.0,2096.0,15.0,-11.0,
2048.0,2085.0,15.0,-11.0,
2039.0,2085.0,15.0,-11.0,
2044.0,2097.0,15.0,-11.0,
2071.0,2083.0,15.0,-11.0,
2076.0,2083.0,15.0,-11.0,
2059.0,2085.0,15.0,-11.0,
2082.0,2096.0,15.0,-11.0,
2083.0,2102.0,15.0,-11.0,
2090.0,2100.0,15.0,-11.0,
2063.0,2080.0,15.0,-11.0,
2056.0,2088.0,15.0,-11.0,
2052.0,2084.0,15.0,-11.0,
2078.0,2084.0,15.0,-11.0,
2079.0,2082.0,15.0,-11.0,
2058.0,2094.0,15.0,-11.0,
2063.0,2098.0,15.0,-11.0,
2080.0,2096.0,15.0,-11.0,
2099.0,2101.0,15.0,-11.0,
2064.0,2089.0,15.0,-11.0,
2053.0,2086.0,15.0,-11.0,
2050.0,2090.0,15.0,-11.0,
2087.0,2094.0,15.0,-11.0,
2086.0,2090.0,15.0,-11.0,
2068.0,2092.0,15.0,-11.0,
2078.0,2099.0,15.0,-11.0,
2084.0,2103.0,15.0,-11.0,
2094.0,2098.0,15.0,-11.0,
2057.0,2083.0,15.0,-11.0,
2052.0,2085.0,15.0,-11.0,
2050.0,2071.0,15.0,-11.0,
2073.0,2077.0,15.0,-11.0,
2082.0,2080.0,15.0,-11.0,
2066.0,2093.0,15.0,-11.0,
2068.0,2091.0,15.0,-11.0,
2083.0,2097.0,15.0,-11.0,
2096.0,2097.0,15.0,-11.0,
2062.0,2092.0,15.0,-11.0,
2061.0,2095.0,15.0,-11.0,
2058.0,2076.0,15.0,-11.0,
2073.0,2093.0,15.0,-11.0,
2080.0,2085.0,15.0,-12.0,
2058.0,2100.0,15.0,-12.0,
2057.0,2101.0,15.0,-12.0,
2083.0,2108.0,15.0,-12.0,
2091.0,2101.0,15.0,-11.0,
2075.0,2102.0,15.0,-12.0,
2043.0,2095.0,15.0,-11.0,
2045.0,2094.0,15.0,-11.0,
2067.0,2096.0,15.0,-11.0,
2085.0,2100.0,15.0,-11.0,
2053.0,2095.0,15.0,-11.0,
2066.0,2102.0,15.0,-11.0,
2075.0,2100.0,15.0,-11.0,
2085.0,2139.0,15.0,-11.0,
2064.0,2086.0,15.0,-11.0,
2054.0,2077.0,15.0,-11.0,
2064.0,2088.0,15.0,-11.0,
2081.0,2090.0,15.0,-11.0,
2104.0,2091.0,15.0,-11.0,
2068.0,2087.0,15.0,-11.0,
2069.0,2091.0,15.0,-11.0,
2112.0,2092.0,15.0,-11.0,
2095.0,2080.0,15.0,-11.0,
2070.0,2084.0,15.0,-11.0,
2053.0,2082.0,15.0,-11.0,
2056.0,2083.0,15.0,-11.0,
2069.0,2089.0,15.0,-11.0,
2085.0,2086.0,15.0,-11.0,
2069.0,2091.0,15.0,-11.0,
2078.0,2099.0,15.0,-11.0,
2085.0,2107.0,15.0,-11.0,
2105.0,2113.0,15.0,-11.0,
2061.0,2101.0,15.0,-11.0,
2050.0,2093.0,15.0,-11.0,
2058.0,2087.0,15.0,-11.0,
2071.0,2082.0,15.0,-11.0,
2098.0,2089.0,15.0,-11.0,
2066.0,2093.0,15.0,-11.0,
2069.0,2097.0,15.0,-11.0,
2080.0,2095.0,15.0,-11.0,
2109.0,2099.0,15.0,-11.0,
2068.0,2089.0,15.0,-11.0,
2054.0,2086.0,15.0,-11.0,
2057.0,2083.0,15.0,-11.0,
2080.0,2090.0,15.0,-11.0,
2093.0,2096.0,15.0,-11.0,
2060.0,2085.0,15.0,-11.0,
2063.0,2086.0,15.0,-11.0,
2073.0,2092.0,15.0,-11.0,
2081.0,2096.0,15.0,-11.0,
2067.0,2083.0,15.0,-11.0,
2060.0,2084.0,15.0,-11.0,
2050.0,2083.0,15.0,-11.0,
2066.0,2066.0,15.0,-11.0,
2087.0,2090.0,15.0,-11.0,
2058.0,2090.0,15.0,-11.0,
2067.0,2101.0,15.0,-11.0,
2067.0,2103.0,15.0,-11.0,
2096.0,2103.0,15.0,-11.0,
2065.0,2090.0,15.0,-11.0,
2048.0,2084.0,15.0,-11.0,
2050.0,2082.0,15.0,-11.0,
2073.0,2091.0,15.0,-11.0,
2083.0,2092.0,15.0,-11.0,
2061.0,2084.0,15.0,-11.0,
2063.0,2097.0,15.0,-11.0,
2063.0,2097.0,15.0,-11.0,
2106.0,2094.0,15.0,-11.0,
2068.0,2085.0,15.0,-11.0,
2056.0,2078.0,15.0,-11.0,
2053.0,2090.0,15.0,-11.0,
2065.0,2081.0,15.0,-11.0,
2089.0,2086.0,15.0,-11.0,
2059.0,2082.0,15.0,-11.0,
2065.0,2079.0,15.0,-11.0,
2083.0,2088.0,15.0,-11.0,
2105.0,2091.0,15.0,-11.0,
2070.0,2089.0,15.0,-11.0,
2051.0,2079.0,15.0,-11.0,
2053.0,2077.0,15.0,-11.0,
2052.0,2086.0,15.0,-11.0,
2090.0,2089.0,15.0,-11.0,
2067.0,2089.0,15.0,-11.0,
2068.0,2096.0,15.0,-11.0,
2075.0,2098.0,15.0,-11.0,
2096.0,2103.0,15.0,-11.0,
2078.0,2093.0,15.0,-11.0,
2050.0,2096.0,15.0,-11.0,
2059.0,2089.0,15.0,-11.0,
2064.0,2091.0,15.0,-11.0,
2106.0,2098.0,15.0,-11.0,
2066.0,2096.0,15.0,-11.0,
2065.0,2096.0,15.0,-11.0,
2076.0,2100.0,15.0,-11.0,
2095.0,2091.0,15.0,-11.0,
2072.0,2102.0,15.0,-11.0,
2051.0,2094.0,15.0,-11.0,
2047.0,2075.0,15.0,-11.0,
2058.0,2082.0,15.0,-11.0,
2087.0,2089.0,15.0,-11.0,
2065.0,2088.0,15.0,-11.0,
2065.0,2087.0,15.0,-11.0,
2085.0,2091.0,15.0,-11.0,
2118.0,2099.0,15.0,-11.0,
2077.0,2087.0,15.0,-11.0,
2049.0,2090.0,15.0,-11.0,
2048.0,2096.0,15.0,-11.0,
2046.0,2065.0,15.0,-11.0,
2083.0,2094.0,15.0,-11.0,
2045.0,2077.0,15.0,-11.0,
2050.0,2089.0,15.0,-11.0,
2059.0,2075.0,15.0,-11.0,
2084.0,2089.0,15.0,-11.0,
2073.0,2078.0,15.0,-11.0,
2041.0,2076.0,15.0,-11.0,
2050.0,2078.0,15.0,-11.0,
2067.0,2099.0,15.0,-11.0,
2097.0,2092.0,15.0,-11.0,
2074.0,2092.0,15.0,-11.0,
2077.0,2092.0,15.0,-11.0,
2082.0,2102.0,15.0,-11.0,
2100.0,2111.0,15.0,-11.0,
2077.0,2106.0,15.0,-11.0,
2045.0,2090.0,15.0,-11.0,
2043.0,2086.0,15.0,-11.0,
2059.0,2086.0,15.0,-11.0,
2103.0,2094.0,15.0,-11.0,
2065.0,2091.0,15.0,-11.0,
2070.0,2092.0,15.0,-11.0,
2080.0,2107.0,15.0,-11.0,
2091.0,2096.0,15.0,-11.0,
2082.0,2100.0,15.0,-11.0,
2052.0,2084.0,15.0,-11.0,
2051.0,2075.0,15.0,-11.0,
2059.0,2080.0,15.0,-11.0,
2108.0,2084.0,15.0,-11.0,
2064.0,2089.0,15.0,-11.0,
2069.0,2089.0,15.0,-11.0,
2081.0,2092.0,15.0,-11.0,
2099.0,2087.0,15.0,-11.0,
2088.0,2087.0,15.0,-11.0,
2056.0,2087.0,15.0,-11.0,
2060.0,2096.0,15.0,-11.0,
2054.0,2081.0,15.0,-11.0,
2095.0,2090.0,15.0,-11.0,
2070.0,2098.0,15.0,-11.0,
2067.0,2097.0,15.0,-11.0,
2085.0,2102.0,15.0,-11.0,
2097.0,2105.0,15.0,-11.0,
2087.0,2090.0,15.0,-11.0,
2050.0,2083.0,15.0,-11.0,
2047.0,2077.0,15.0,-11.0,
2057.0,2081.0,15.0,-11.0,
2090.0,2088.0,15.0,-11.0,
2080.0,2094.0,15.0,-11.0,
2079.0,2102.0,15.0,-11.0,
2074.0,2103.0,15.0,-11.0,
2102.0,2090.0,15.0,-11.0,
2094.0,2097.0,15.0,-11.0,
2056.0,2087.0,15.0,-11.0,
2059.0,2088.0,15.0,-11.0,
2051.0,2082.0,15.0,-11.0,
2077.0,2086.0,15.0,-11.0,
2065.0,2086.0,15.0,-11.0,
2067.0,2093.0,15.0,-11.0,
2076.0,2091.0,15.0,-11.0,
2091.0,2101.0,15.0,-11.0,
2094.0,2090.0,15.0,-11.0,
2053.0,2090.0,15.0,-11.0,
2048.0,2077.0,15.0,-11.0,
2054.0,2084.0,15.0,-11.0,
2090.0,2088.0,15.0,-11.0,
2067.0,2087.0,15.0,-11.0,
2072.0,2083.0,15.0,-11.0,
2080.0,2085.0,15.0,-11.0,
2104.0,2074.0,15.0,-11.0,
2089.0,2097.0,15.0,-11.0,
2057.0,2085.0,15.0,-11.0,
2053.0,2083.0,15.0,-11.0,
2061.0,2097.0,15.0,-11.0,
2099.0,2097.0,15.0,-11.0,
2082.0,2098.0,15.0,-11.0,
2067.0,2102.0,15.0,-11.0,
2071.0,2092.0,15.0,-11.0,
2085.0,2097.0,15.0,-11.0,
2089.0,2098.0,15.0,-11.0,
2042.0,2089.0,15.0,-11.0,
2049.0,2084.0,15.0,-11.0,
2048.0,2078.0,15.0,-11.0,
2067.0,2088.0,15.0,-11.0,
2051.0,2086.0,15.0,-11.0,
2060.0,2081.0,15.0,-11.0,
2062.0,2092.0,15.0,-11.0,
2052.0,2101.0,15.0,-11.0,
2096.0,2092.0,15.0,-11.0,
2059.0,2080.0,15.0,-11.0,
2051.0,2078.0,15.0,-11.0,
2057.0,2079.0,15.0,-11.0,
2093.0,2084.0,15.0,-11.0,
2079.0,2084.0,15.0,-11.0,
2071.0,2088.0,15.0,-11.0,
2066.0,2085.0,15.0,-11.0,
2088.0,2090.0,15.0,-11.0,
2093.0,2094.0,15.0,-11.0,
2053.0,2083.0,15.0,-11.0,
2045.0,2092.0,15.0,-11.0,
2046.0,2091.0,15.0,-11.0,
2079.0,2094.0,15.0,-11.0,
2069.0,2091.0,15.0,-11.0,
2055.0,2099.0,15.0,-11.0,
2072.0,2100.0,15.0,-11.0,
2079.0,2100.0,15.0,-11.0,
2080.0,2124.0,15.0,-11.0,
2050.0,2102.0,15.0,-11.0,
2044.0,2088.0,15.0,-11.0,
2048.0,2093.0,15.0,-11.0,
2079.0,2090.0,15.0,-11.0,
2070.0,2088.0,15.0,-11.0,
2070.0,2095.0,15.0,-11.0,
2084.0,2100.0,15.0,-11.0,
2099.0,2106.0,15.0,-11.0,
2093.0,2093.0,15.0,-11.0,
2058.0,2091.0,15.0,-11.0,
2048.0,2084.0,15.0,-11.0,
2054.0,2084.0,15.0,-11.0,
2085.0,2084.0,15.0,-11.0,
2077.0,2094.0,15.0,-11.0,
2064.0,2093.0,15.0,-11.0,
2067.0,2097.0,15.0,-11.0,
2072.0,2097.0,15.0,-11.0,
2100.0,2093.0,15.0,-11.0,
2048.0,2089.0,15.0,-11.0,
2054.0,2096.0,15.0,-11.0,
2061.0,2080.0,15.0,-11.0,
2085.0,2070.0,15.0,-11.0,
2071.0,2080.0,15.0,-12.0,
2066.0,2090.0,15.0,-12.0,
2078.0,2095.0,15.0,-12.0,
2093.0,2094.0,15.0,-12.0,
2101.0,2084.0,15.0,-12.0,
2056.0,2071.0,15.0,-12.0,
2055.0,2072.0,15.0,-11.0,
2060.0,2071.0,15.0,-12.0,
2091.0,2080.0,15.0,-12.0,
2089.0,2086.0,15.0,-11.0,
2069.0,2091.0,15.0,-11.0,
2096.0,2090.0,15.0,-11.0,
2092.0,2118.0,15.0,-11.0,
2092.0,2089.0,15.0,-11.0,
2045.0,2082.0,15.0,-11.0,
2051.0,2079.0,15.0,-11.0,
2061.0,2084.0,15.0,-11.0,
2083.0,2074.0,15.0,-11.0,
2078.0,2085.0,15.0,-11.0,
2063.0,2091.0,15.0,-11.0,
2074.0,2085.0,15.0,-11.0,
2073.0,2103.0,15.0,-11.0,
2090.0,2109.0,15.0,-11.0,
2057.0,2096.0,15.0,-11.0,
2044.0,2091.0,15.0,-11.0,
2064.0,2077.0,15.0,-11.0,
2087.0,2089.0,15.0,-11.0,
2085.0,2094.0,15.0,-11.0,
2069.0,2098.0,15.0,-11.0,
2082.0,2098.0,15.0,-11.0,
2103.0,2101.0,15.0,-11.0,
2105.0,2107.0,15.0,-11.0,
2045.0,2086.0,15.0,-11.0,
2023.0,2086.0,15.0,-11.0,
2050.0,2081.0,15.0,-11.0,
2072.0,2088.0,15.0,-11.0,
2070.0,2091.0,15.0,-11.0,
2061.0,2093.0,15.0,-11.0,
2061.0,2090.0,0,
2091.0,2082.0,15.0,-11.0,
2098.0,2090.0,15.0,-11.0,
2059.0,2083.0,15.0,-11.0,
2058.0,2082.0,15.0,-11.0,
2050.0,2075.0,15.0,-11.0,
2081.0,2090.0,15.0,-11.0,
2082.0,2090.0,15.0,-11.0,
2066.0,2105.0,15.0,-11.0,
2072.0,2095.0,15.0,-11.0,
2079.0,2087.0,15.0,-11.0,
2100.0,2100.0,15.0,-11.0,
2062.0,2088.0,15.0,-11.0,
2042.0,2082.0,15.0,-11.0,
2049.0,2083.0,15.0,-11.0,
2072.0,2098.0,15.0,-11.0,
2076.0,2088.0,15.0,-11.0,
2014.0,2093.0,15.0,-11.0,
2076.0,2091.0,15.0,-11.0,
2048.0,2103.0,15.0,-12.0,
2102.0,2096.0,15.0,-12.0,
2061.0,2089.0,15.0,-11.0,
2048.0,2083.0,15.0,-12.0,
2058.0,2080.0,15.0,-12.0,
2080.0,2085.0,15.0,-12.0,
2088.0,2091.0,15.0,-12.0,
2063.0,2083.0,15.0,-11.0,
2069.0,2090.0,15.0,-11.0,
2082.0,2093.0,15.0,-11.0,
2102.0,2096.0,15.0,-11.0,
2069.0,2095.0,15.0,-11.0,
2057.0,2091.0,15.0,-11.0,
2067.0,2083.0,15.0,-11.0,
2087.0,2082.0,15.0,-11.0,
2087.0,2083.0,15.0,-11.0,
2078.0,2083.0,15.0,-11.0,
2076.0,2090.0,15.0,-11.0,
2084.0,2097.0,15.0,-11.0,
2089.0,2093.0,15.0,-11.0,
2051.0,2081.0,15.0,-11.0,
2041.0,2089.0,15.0,-11.0,
2046.0,2099.0,15.0,-11.0,
2067.0,2089.0,15.0,-11.0,
2078.0,2085.0,15.0,-11.0,
2067.0,2094.0,15.0,-11.0,
2071.0,2094.0,15.0,-11.0,
2071.0,2094.0,15.0,-11.0,
2094.0,2097.0,15.0,-11.0,
2054.0,2088.0,15.0,-11.0,
2046.0,2079.0,15.0,-11.0,
2048.0,2077.0,15.0,-11.0,
2096.0,2039.0,15.0,-11.0,
2093.0,2092.0,15.0,-11.0,
2061.0,2087.0,15.0,-11.0,
2069.0,2092.0,15.0,-11.0,
2093.0,2093.0,15.0,-11.0,
2104.0,2110.0,15.0,-11.0,
2061.0,2090.0,15.0,-11.0,
2057.0,2088.0,15.0,-11.0,
2054.0,2088.0,15.0,-11.0,
2075.0,2084.0,15.0,-11.0,
2090.0,2095.0,15.0,-11.0,
2063.0,2100.0,15.0,-11.0,
2071.0,2101.0,15.0,-11.0,
2086.0,2101.0,15.0,-11.0,
2108.0,2101.0,15.0,-11.0,
2068.0,2086.0,15.0,-11.0,
2057.0,2086.0,15.0,-11.0,
2058.0,2085.0,15.0,-11.0,
2077.0,2084.0,15.0,-11.0,
2093.0,2091.0,15.0,-11.0,
2060.0,2090.0,15.0,-11.0,
2061.0,2090.0,15.0,-11.0,
2076.0,2092.0,15.0,-11.0,
2095.0,2094.0,15.0,-11.0,
2056.0,2085.0,15.0,-11.0,
2038.0,2085.0,15.0,-11.0,
2040.0,2086.0,15.0,-11.0,
2073.0,2099.0,15.0,-11.0,
2094.0,2083.0,15.0,-11.0,
2056.0,2082.0,15.0,-11.0,
2068.0,2091.0,15.0,-11.0,
2084.0,2097.0,15.0,-11.0,
2101.0,2082.0,15.0,-11.0,
2080.0,2089.0,15.0,-11.0,
2060.0,2079.0,15.0,-11.0,
2058.0,2072.0,15.0,-11.0,
2070.0,2084.0,15.0,-11.0,
2098.0,2076.0,15.0,-12.0,
2074.0,2078.0,15.0,-11.0,
2071.0,2089.0,15.0,-11.0,
2088.0,2104.0,15.0,-11.0,
2095.0,2090.0,15.0,-12.0,
2075.0,2082.0,15.0,-12.0,
2053.0,2079.0,15.0,-12.0,
2056.0,2082.0,15.0,-12.0,
2073.0,2080.0,15.0,-11.0,
2095.0,2088.0,15.0,-11.0,
2071.0,2085.0,15.0,-11.0,
2074.0,2096.0,15.0,-11.0,
2087.0,2095.0,15.0,-11.0,
2101.0,2097.0,15.0,-11.0,
2076.0,2095.0,15.0,-11.0,
2058.0,2093.0,15.0,-11.0,
2066.0,2099.0,15.0,-11.0,
2070.0,2085.0,15.0,-11.0,
2086.0,2088.0,15.0,-11.0,
2069.0,2090.0,15.0,-11.0,
2081.0,2104.0,15.0,-11.0,
2085.0,2103.0,15.0,-11.0,
2095.0,2098.0,15.0,-11.0,
2066.0,2097.0,15.0,-11.0,
2050.0,2084.0,15.0,-11.0,
2043.0,2089.0,15.0,-11.0,
2061.0,2082.0,15.0,-11.0,
2085.0,2087.0,15.0,-11.0,
2068.0,2103.0,15.0,-11.0,
2078.0,2103.0,15.0,-11.0,
2082.0,2098.0,15.0,-11.0,
2097.0,2097.0,15.0,-11.0,
2086.0,2092.0,15.0,-11.0,
2054.0,2097.0,15.0,-11.0,
2050.0,2080.0,15.0,-11.0,
2066.0,2082.0,15.0,-11.0,
2077.0,2084.0,15.0,-11.0,
2065.0,2090.0,15.0,-11.0,
2073.0,2094.0,15.0,-11.0,
2089.0,2078.0,15.0,-11.0,
2106.0,2093.0,15.0,-11.0,
2082.0,2084.0,15.0,-11.0,
2062.0,2087.0,15.0,-11.0,
2057.0,2084.0,15.0,-11.0,
2071.0,2074.0,15.0,-11.0,
2081.0,2090.0,15.0,-11.0,
2063.0,2089.0,15.0,-11.0,
2062.0,2102.0,15.0,-11.0,
2077.0,2108.0,15.0,-11.0,
2090.0,2100.0,15.0,-11.0,
2079.0,2101.0,15.0,-11.0,
2052.0,2089.0,15.0,-11.0,
2054.0,2083.0,15.0,-11.0,
2060.0,2085.0,15.0,-11.0,
2086.0,2081.0,15.0,-11.0,
2065.0,2086.0,15.0,-11.0,
2053.0,2092.0,15.0,-11.0,
2068.0,2096.0,15.0,-11.0,
2086.0,2093.0,15.0,-11.0,
2069.0,2086.0,15.0,-11.0,
2047.0,2082.0,15.0,-11.0,
2057.0,2077.0,15.0,-11.0,
2071.0,2074.0,15.0,-11.0,
2086.0,2082.0,15.0,-11.0,
2071.0,2096.0,15.0,-11.0,
2070.0,2075.0,15.0,-11.0,
2084.0,2089.0,15.0,-11.0,
2089.0,2087.0,15.0,-11.0,
2076.0,2087.0,15.0,-11.0,
2047.0,2076.0,15.0,-11.0,
2050.0,2080.0,15.0,-11.0,
2057.0,2080.0,15.0,-11.0,
2090.0,2090.0,15.0,-11.0,
2061.0,2081.0,15.0,-11.0,
2060.0,2097.0,15.0,-11.0,
2067.0,2103.0,15.0,-11.0,
2070.0,2102.0,15.0,-11.0,
2070.0,2097.0,15.0,-11.0,
2042.0,2088.0,15.0,-11.0,
2048.0,2086.0,15.0,-11.0,
2047.0,2091.0,15.0,-11.0,
2087.0,2093.0,15.0,-11.0,
2064.0,2094.0,15.0,-11.0,
2072.0,2092.0,15.0,-11.0,
2089.0,2087.0,15.0,-11.0,
2106.0,2101.0,15.0,-11.0,
2079.0,2097.0,15.0,-11.0,
2051.0,2090.0,15.0,-11.0,
2050.0,2062.0,15.0,-11.0,
2064.0,2056.0,15.0,-11.0,
2080.0,2129.0,15.0,-12.0,
2073.0,2094.0,15.0,-11.0,
2062.0,2083.0,15.0,-11.0,
2078.0,2125.0,15.0,-11.0,
2096.0,2096.0,15.0,-11.0,
2080.0,2091.0,15.0,-11.0,
2046.0,2073.0,15.0,-11.0,
2045.0,2034.0,15.0,-12.0,
2034.0,2009.0,15.0,-11.0,
2073.0,2149.0,15.0,-11.0,
2074.0,2171.0,15.0,-11.0,
2068.0,2051.0,15.0,-11.0,
2083.0,2094.0,15.0,-11.0,
2100.0,2082.0,15.0,-11.0,
2097.0,2040.0,15.0,-11.0,
2057.0,2151.0,14.0,-11.0,
2048.0,2069.0,14.0,-11.0,
2076.0,2103.0,14.0,-11.0,
2093.0,2188.0,14.0,-11.0,
2124.0,2118.0,14.0,-11.0,
2076.0,2085.0,14.0,-11.0,
2080.0,2118.0,14.0,-11.0,
2088.0,2069.0,14.0,-11.0,
2090.0,2080.0,14.0,-11.0,
2042.0,2074.0,13.0,-11.0,
2052.0,2119.0,13.0,-11.0,
2047.0,2077.0,13.0,-11.0,
2059.0,2025.0,13.0,-11.0,
2040.0,2019.0,13.0,-11.0,
2039.0,2030.0,13.0,-11.0,
2050.0,2069.0,13.0,-11.0,
2062.0,2127.0,13.0,-11.0,
2105.0,2138.0,13.0,-11.0,
2106.0,2143.0,13.0,-11.0,
2073.0,2164.0,13.0,-11.0,
2101.0,2130.0,14.0,-11.0,
2110.0,2057.0,14.0,-11.0,
2086.0,2028.0,14.0,-12.0,
2028.0,1948.0,14.0,-12.0,
2025.0,2073.0,14.0,-12.0,
2073.0,2114.0,15.0,-12.0,
2066.0,2088.0,15.0,-12.0,
2042.0,2088.0,15.0,-12.0,
2078.0,2140.0,15.0,-12.0,
2090.0,2054.0,15.0,-12.0,
2111.0,2062.0,15.0,-12.0,
2096.0,2150.0,15.0,-12.0,
2077.0,2076.0,15.0,-12.0,
2105.0,2342.0,15.0,-12.0,
2094.0,2247.0,15.0,-12.0,
2115.0,2190.0,15.0,-12.0,
2069.0,2089.0,15.0,-12.0,
2051.0,2014.0,14.0,-12.0,
2046.0,2016.0,14.0,-12.0,
2075.0,1993.0,14.0,-12.0,
2057.0,1964.0,13.0,-12.0,
2063.0,2030.0,13.0,-12.0,
2042.0,2138.0,13.0,-12.0,
2069.0,2088.0,12.0,-12.0,
2092.0,2103.0,12.0,-12.0,
2063.0,2114.0,12.0,-12.0,
2054.0,2142.0,12.0,-12.0,
2080.0,2049.0,12.0,-12.0,
2095.0,2185.0,11.0,-12.0,
2076.0,2139.0,11.0,-12.0,
2050.0,2104.0,11.0,-12.0,
2051.0,2010.0,11.0,-12.0,
2078.0,2036.0,11.0,-11.0,
2080.0,2027.0,11.0,-11.0,
2029.0,2033.0,12.0,-11.0,
2050.0,2075.0,12.0,-11.0,
2023.0,2010.0,12.0,-11.0,
2064.0,1983.0,12.0,-11.0,
2077.0,2039.0,12.0,-11.0,
2061.0,2032.0,12.0,-11.0,
2074.0,2075.0,12.0,-11.0,
2085.0,2054.0,12.0,-11.0,
2079.0,2083.0,13.0,-11.0,
2012.0,2069.0,13.0,-11.0,
2020.0,2077.0,13.0,-11.0,
2039.0,2098.0,14.0,-11.0,
2073.0,2268.0,14.0,-11.0,
2062.0,2111.0,15.0,-11.0,
2060.0,2106.0,0,
2086.0,2207.0,15.0,-11.0,
2117.0,2156.0,16.0,-11.0,
2098.0,2021.0,16.0,-11.0,
2044.0,2068.0,16.0,-11.0,
2007.0,2062.0,17.0,-11.0,
2032.0,2072.0,17.0,-11.0,
2111.0,2312.0,17.0,-11.0,
2104.0,2161.0,17.0,-11.0,
2078.0,2141.0,18.0,-11.0,
2082.0,2080.0,18.0,-11.0,
2091.0,2072.0,18.0,-11.0,
2080.0,2120.0,18.0,-11.0,
2041.0,2015.0,19.0,-11.0,
2055.0,2016.0,19.0,-11.0,
2023.0,2062.0,19.0,-11.0,
2082.0,2170.0,19.0,-11.0,
2094.0,2109.0,19.0,-11.0,
2070.0,2022.0,20.0,-11.0,
2073.0,2060.0,20.0,-11.0,
2068.0,2119.0,21.0,-11.0,
2056.0,2013.0,21.0,-11.0,
2039.0,2051.0,22.0,-11.0,
2072.0,2158.0,22.0,-11.0,
2061.0,2094.0,23.0,-11.0,
2080.0,2071.0,23.0,-11.0,
2067.0,1986.0,24.0,-11.0,
2057.0,2020.0,24.0,-11.0,
2076.0,2032.0,24.0,-11.0,
2085.0,2179.0,25.0,-11.0,
2081.0,2189.0,25.0,-11.0,
2055.0,2059.0,25.0,-11.0,
2048.0,2090.0,26.0,-11.0,
2029.0,2075.0,26.0,-10.0,
2098.0,2182.0,26.0,-10.0,
2076.0,2065.0,27.0,-10.0,
2088.0,2113.0,27.0,-10.0,
2071.0,2080.0,27.0,-10.0,
2052.0,2126.0,27.0,-10.0,
2061.0,2074.0,28.0,-10.0,
2076.0,2061.0,28.0,-10.0,
2092.0,2081.0,28.0,-10.0,
2067.0,2216.0,29.0,-10.0,
2068.0,2029.0,29.0,-9.0,
2080.0,1934.0,30.0,-9.0,
2073.0,2258.0,30.0,-9.0,
2098.0,2250.0,30.0,-9.0,
2087.0,2109.0,31.0,-9.0,
2050.0,2011.0,31.0,-9.0,
2044.0,2059.0,32.0,-9.0,
2050.0,2042.0,32.0,-9.0,
2095.0,1954.0,32.0,-9.0,
2040.0,2075.0,33.0,-9.0,
2039.0,2005.0,33.0,-9.0,
2075.0,2187.0,33.0,-9.0,
2080.0,2207.0,33.0,-9.0,
2067.0,2022.0,34.0,-9.0,
2048.0,1881.0,34.0,-9.0,
2042.0,2059.0,34.0,-9.0,
2044.0,2192.0,34.0,-9.0,
2073.0,2086.0,34.0,-8.0,
2078.0,2046.0,34.0,-8.0,
2069.0,2141.0,34.0,-8.0,
2053.0,2145.0,34.0,-8.0,
2112.0,2145.0,34.0,-8.0,
2094.0,2071.0,34.0,-8.0,
2053.0,2135.0,34.0,-8.0,
2058.0,1980.0,34.0,-8.0,
2114.0,2073.0,34.0,-8.0,
2078.0,2291.0,34.0,-8.0,
2072.0,2076.0,34.0,-8.0,
2072.0,2084.0,34.0,-8.0,
2089.0,2093.0,33.0,-8.0,
2104.0,2103.0,33.0,-8.0,
2023.0,1950.0,33.0,-8.0,
2055.0,2052.0,33.0,-8.0,
2077.0,2044.0,34.0,-7.0,
2110.0,2050.0,34.0,-7.0,
2068.0,2253.0,35.0,-7.0,
2081.0,1979.0,36.0,-7.0,
2080.0,2149.0,36.0,-7.0,
2096.0,2194.0,37.0,-7.0,
2107.0,2068.0,38.0,-7.0,
2032.0,2088.0,38.0,-7.0,
2060.0,2226.0,39.0,-7.0,
2065.0,2124.0,39.0,-7.0,
2068.0,1994.0,39.0,-7.0,
2108.0,2008.0,39.0,-7.0,
2084.0,1930.0,39.0,-7.0,
2084.0,2126.0,39.0,-7.0,
2106.0,2159.0,40.0,-7.0,
2074.0,1995.0,40.0,-7.0,
2036.0,2132.0,40.0,-7.0,
2042.0,2123.0,40.0,-7.0,
2041.0,2070.0,41.0,-7.0,
2077.0,2039.0,41.0,-7.0,
2068.0,2021.0,41.0,-7.0,
2065.0,2139.0,42.0,-7.0,
2021.0,2053.0,43.0,-7.0,
2098.0,2140.0,44.0,-7.0,
2078.0,2023.0,45.0,-7.0,
2036.0,2027.0,46.0,-7.0,
2076.0,2169.0,46.0,-7.0,
2072.0,2178.0,46.0,-7.0,
2079.0,2105.0,46.0,-7.0,
2084.0,2116.0,47.0,-7.0,
2081.0,2021.0,47.0,-7.0,
2089.0,2140.0,47.0,-7.0,
2076.0,2047.0,46.0,-7.0,
2073.0,2094.0,46.0,-7.0,
2040.0,2117.0,45.0,-7.0,
2058.0,2159.0,44.0,-7.0,
2103.0,2093.0,44.0,-7.0,
2093.0,2031.0,45.0,-7.0,
2063.0,2017.0,45.0,-7.0,
2060.0,2052.0,45.0,-7.0,
2094.0,2083.0,45.0,-7.0,
2116.0,2094.0,45.0,-7.0,
2032.0,2022.0,45.0,-7.0,
2030.0,2185.0,45.0,-7.0,
2069.0,2095.0,46.0,-7.0,
2119.0,2119.0,46.0,-7.0,
2057.0,2101.0,46.0,-7.0,
2072.0,2141.0,46.0,-7.0,
2058.0,2121.0,46.0,-7.0,
2077.0,2112.0,46.0,-7.0,
2076.0,2117.0,47.0,-7.0,
2044.0,2027.0,47.0,-7.0,
2068.0,2010.0,47.0,-7.0,
2069.0,2052.0,47.0,-7.0,
2096.0,2131.0,47.0,-7.0,
2086.0,2097.0,48.0,-7.0,
2064.0,2034.0,48.0,-7.0,
2060.0,2118.0,48.0,-7.0,
2075.0,2166.0,48.0,-7.0,
2062.0,2031.0,49.0,-7.0,
2054.0,2036.0,49.0,-7.0,
2062.0,2095.0,49.0,-7.0,
2109.0,2126.0,49.0,-7.0,
2087.0,2008.0,49.0,-7.0,
2075.0,2019.0,49.0,-7.0,
2044.0,2056.0,50.0,-7.0,
2076.0,2148.0,50.0,-7.0,
2102.0,1997.0,50.0,-7.0,
2092.0,2171.0,50.0,-7.0,
2047.0,2121.0,50.0,-7.0,
2032.0,2150.0,50.0,-7.0,
2102.0,2096.0,51.0,-7.0,
2101.0,2100.0,51.0,-7.0,
2062.0,2091.0,51.0,-7.0,
2057.0,2108.0,51.0,-7.0,
2063.0,2077.0,51.0,-7.0,
2095.0,2067.0,51.0,-7.0,
2032.0,2043.0,51.0,-7.0,
2051.0,2061.0,51.0,-7.0,
2068.0,2017.0,51.0,-7.0,
2114.0,2176.0,51.0,-7.0,
2062.0,2037.0,51.0,-7.0,
2092.0,2090.0,52.0,-7.0,
2108.0,2148.0,52.0,-7.0,
2061.0,2153.0,52.0,-7.0,
2057.0,2028.0,52.0,-7.0,
2072.0,2053.0,52.0,-7.0,
2054.0,1999.0,53.0,-7.0,
2076.0,2022.0,53.0,-7.0,
2092.0,2110.0,53.0,-7.0,
2088.0,2122.0,54.0,-7.0,
2055.0,2192.0,54.0,-7.0,
2072.0,2109.0,54.0,-7.0,
2118.0,2188.0,54.0,-7.0,
2061.0,2093.0,54.0,-7.0,
2027.0,2075.0,54.0,-7.0,
2014.0,2056.0,54.0,-7.0,
2072.0,2039.0,54.0,-7.0,
2087.0,1993.0,54.0,-7.0,
2056.0,2067.0,54.0,-7.0,
2080.0,2151.0,54.0,-7.0,
2076.0,1975.0,54.0,-7.0,
2048.0,2215.0,55.0,-8.0,
2076.0,2091.0,55.0,-7.0,
2034.0,2084.0,55.0,-7.0,
2033.0,2152.0,55.0,-7.0,
2097.0,2064.0,55.0,-7.0,
2066.0,1996.0,55.0,-7.0,
2073.0,2020.0,55.0,-7.0,
2077.0,2277.0,56.0,-7.0,
2078.0,2136.0,56.0,-7.0,
2076.0,2076.0,56.0,-7.0,
2073.0,2141.0,56.0,-7.0,
2035.0,2037.0,56.0,-7.0,
2047.0,2054.0,56.0,-7.0,
2100.0,1994.0,56.0,-7.0,
2084.0,2092.0,56.0,-8.0,
2069.0,2056.0,56.0,-8.0,
2069.0,2125.0,57.0,-7.0,
2087.0,2134.0,57.0,-7.0,
2063.0,2146.0,57.0,-7.0,
2073.0,2117.0,57.0,-7.0,
2079.0,2095.0,57.0,-7.0,
2099.0,2061.0,57.0,-7.0,
2113.0,2154.0,57.0,-7.0,
2077.0,2085.0,57.0,-7.0,
2083.0,2006.0,57.0,-8.0,
2098.0,2077.0,57.0,-8.0,
2069.0,2160.0,57.0,-8.0,
2059.0,2019.0,58.0,-8.0,
2069.0,2107.0,58.0,-8.0,
2055.0,2115.0,58.0,-8.0,
2076.0,2048.0,58.0,-8.0,
2071.0,2049.0,58.0,-8.0,
2053.0,2063.0,58.0,-8.0,
2066.0,2069.0,59.0,-8.0,
2065.0,2004.0,59.0,-8.0,
2115.0,2132.0,59.0,-8.0,
2086.0,1982.0,60.0,-8.0,
2035.0,2236.0,60.0,-8.0,
2047.0,2106.0,60.0,-8.0,
2094.0,2060.0,60.0,-8.0,
2081.0,2189.0,60.0,-8.0,
2087.0,2121.0,60.0,-8.0,
2073.0,2010.0,61.0,-8.0,
2153.0,2254.0,61.0,-8.0,
2071.0,2007.0,61.0,-8.0,
2031.0,2025.0,61.0,-8.0,
2058.0,2101.0,61.0,-8.0,
2059.0,2167.0,61.0,-8.0,
2072.0,2067.0,61.0,-8.0,
2061.0,2053.0,61.0,-8.0,
2070.0,2095.0,61.0,-8.0,
2082.0,2089.0,61.0,-8.0,
2094.0,2005.0,61.0,-8.0,
2061.0,2048.0,62.0,-8.0,
2067.0,2155.0,62.0,-8.0,
2020.0,2054.0,62.0,-8.0,
2077.0,2174.0,62.0,-8.0,
2067.0,2093.0,62.0,-8.0,
2075.0,2024.0,62.0,-8.0,
2067.0,2075.0,63.0,-8.0,
2090.0,2030.0,63.0,-8.0,
2087.0,2196.0,63.0,-8.0,
2047.0,2062.0,63.0,-8.0,
2085.0,2132.0,64.0,-8.0,
2075.0,2171.0,64.0,-8.0,
2060.0,1989.0,64.0,-8.0,
2068.0,2014.0,64.0,-8.0,
2080.0,2149.0,64.0,-8.0,
2089.0,2147.0,65.0,-8.0,
2086.0,2124.0,65.0,-8.0,
2074.0,2147.0,65.0,-8.0,
2067.0,1927.0,65.0,-8.0,
2070.0,2267.0,65.0,-8.0,
2054.0,2107.0,65.0,-8.0,
2094.0,1909.0,65.0,-8.0,
2029.0,2222.0,65.0,-8.0,
2053.0,2092.0,66.0,-8.0,
2085.0,2042.0,66.0,-8.0,
2065.0,2060.0,66.0,-8.0,
2021.0,2042.0,66.0,-8.0,
2088.0,2129.0,66.0,-8.0,
2052.0,2065.0,66.0,-8.0,
2096.0,2230.0,66.0,-8.0,
2103.0,2167.0,66.0,-8.0,
2072.0,2097.0,67.0,-8.0,
2065.0,2008.0,67.0,-8.0,
2082.0,2178.0,67.0,-8.0,
2077.0,2002.0,67.0,-8.0,
2056.0,2075.0,67.0,-8.0,
2022.0,2074.0,67.0,-8.0,
2055.0,1981.0,67.0,-8.0,
2099.0,2281.0,67.0,-8.0,
2075.0,2215.0,67.0,-8.0,
2070.0,2087.0,68.0,-8.0,
2080.0,2071.0,68.0,-8.0,
2103.0,2077.0,68.0,-8.0,
2069.0,2061.0,68.0,-8.0,
2068.0,2058.0,68.0,-8.0,
2077.0,2101.0,68.0,-8.0,
2054.0,2193.0,68.0,-8.0,
2097.0,2140.0,69.0,-8.0,
2037.0,2009.0,69.0,-8.0,
2069.0,2060.0,69.0,-8.0,
2079.0,2100.0,69.0,-8.0,
2072.0,2061.0,69.0,-8.0,
2073.0,2113.0,69.0,-8.0,
2065.0,2083.0,69.0,-8.0,
2059.0,1948.0,69.0,-8.0,
2062.0,2060.0,69.0,-8.0,
2082.0,2158.0,69.0,-8.0,
2064.0,2100.0,69.0,-8.0,
2068.0,2104.0,69.0,-8.0,
2089.0,2118.0,69.0,-8.0,
2097.0,2024.0,70.0,-8.0,
2022.0,2006.0,70.0,-8.0,
2038.0,2088.0,70.0,-8.0,
2063.0,2152.0,70.0,-8.0,
2087.0,2098.0,70.0,-8.0,
2066.0,2076.0,70.0,-8.0,
2063.0,2194.0,70.0,-8.0,
2080.0,2014.0,70.0,-8.0,
2071.0,2173.0,70.0,-8.0,
2078.0,2098.0,70.0,-8.0,
2051.0,2119.0,70.0,-8.0,
2059.0,2056.0,70.0,-8.0,
2058.0,2062.0,70.0,-8.0,
2059.0,2133.0,70.0,-8.0,
2101.0,1995.0,70.0,-8.0,
2063.0,2106.0,70.0,-8.0,
2083.0,2193.0,70.0,-8.0,
2082.0,2049.0,70.0,-8.0,
2058.0,2127.0,70.0,-8.0,
2072.0,2224.0,70.0,-8.0,
2078.0,2078.0,70.0,-8.0,
2094.0,2203.0,71.0,-8.0,
2110.0,2046.0,71.0,-8.0,
2071.0,1940.0,71.0,-8.0,
2075.0,2245.0,71.0,-8.0,
2053.0,2100.0,71.0,-8.0,
2104.0,2078.0,71.0,-8.0,
2053.0,2014.0,71.0,-8.0,
2047.0,2090.0,71.0,-8.0,
2074.0,2123.0,71.0,-8.0,
2046.0,1998.0,71.0,-8.0,
2048.0,2107.0,71.0,-8.0,
2097.0,2015.0,71.0,-8.0,
2100.0,2186.0,71.0,-8.0,
2072.0,2161.0,71.0,-8.0,
2079.0,2054.0,71.0,-8.0,
2073.0,2102.0,71.0,-8.0,
2049.0,2062.0,71.0,-9.0,
2046.0,2081.0,71.0,-8.0,
2086.0,2045.0,71.0,-9.0,
2063.0,2103.0,71.0,-9.0,
2051.0,2025.0,72.0,-9.0,
2098.0,2180.0,72.0,-8.0,
2114.0,2001.0,72.0,-8.0,
2100.0,2171.0,72.0,-8.0,
2032.0,2041.0,72.0,-9.0,
2044.0,2139.0,72.0,-8.0,
2041.0,2103.0,72.0,-8.0,
2097.0,2084.0,72.0,-8.0,
2061.0,2065.0,72.0,-8.0,
2049.0,2101.0,72.0,-8.0,
2094.0,2186.0,72.0,-9.0,
2124.0,2091.0,73.0,-9.0,
2097.0,2126.0,73.0,-9.0,
2058.0,2103.0,73.0,-9.0,
2042.0,2016.0,73.0,-9.0,
2057.0,1788.0,73.0,-9.0,
2086.0,2275.0,73.0,-9.0,
2084.0,2229.0,73.0,-9.0,
2074.0,2117.0,73.0,-8.0,
2076.0,2072.0,73.0,-8.0,
2093.0,2084.0,73.0,-8.0,
2060.0,2072.0,73.0,-8.0,
2062.0,2077.0,73.0,-8.0,
2042.0,2133.0,73.0,-8.0,
2039.0,2139.0,73.0,-8.0,
2075.0,2074.0,74.0,-8.0,
2073.0,2120.0,74.0,-9.0,
2075.0,1983.0,74.0,-9.0,
2088.0,2059.0,74.0,-9.0,
2141.0,1935.0,74.0,-9.0,
2056.0,2173.0,74.0,-9.0,
2018.0,2170.0,74.0,-9.0,
2041.0,2141.0,75.0,-9.0,
2069.0,2099.0,75.0,-9.0,
2090.0,1973.0,75.0,-9.0,
2053.0,2156.0,75.0,-9.0,
2082.0,1973.0,75.0,-8.0,
2071.0,2149.0,75.0,-8.0,
2128.0,2159.0,75.0,-8.0,
2045.0,2177.0,75.0,-9.0,
2039.0,2054.0,75.0,-9.0,
2069.0,1943.0,75.0,-9.0,
2103.0,2215.0,75.0,-9.0,
2086.0,2147.0,75.0,-9.0,
2056.0,1986.0,75.0,-9.0,
2071.0,2034.0,75.0,-9.0,
2098.0,2107.0,75.0,-9.0,
2107.0,2043.0,75.0,-9.0,
2054.0,2156.0,76.0,-9.0,
2056.0,1988.0,76.0,-9.0,
2057.0,2194.0,76.0,-8.0,
2078.0,2102.0,76.0,-8.0,
2082.0,2161.0,76.0,-8.0,
2048.0,2037.0,76.0,-8.0,
2062.0,2000.0,76.0,-8.0,
2108.0,2204.0,76.0,-9.0,
2088.0,2136.0,77.0,-9.0,
2097.0,2042.0,77.0,-9.0,
2023.0,2180.0,77.0,-9.0,
2046.0,2086.0,77.0,-9.0,
2044.0,2069.0,77.0,-9.0,
2061.0,2000.0,77.0,-9.0,
2070.0,1953.0,77.0,-9.0,
2076.0,1958.0,77.0,-9.0,
2097.0,2245.0,77.0,-9.0,
2103.0,2137.0,77.0,-9.0,
2032.0,2043.0,77.0,-9.0,
2044.0,2152.0,78.0,-9.0,
2078.0,2032.0,78.0,-9.0,
2070.0,1839.0,78.0,-8.0,
2062.0,2014.0,78.0,-8.0,
2064.0,2372.0,78.0,-8.0,
2085.0,1911.0,78.0,-8.0,
2096.0,2271.0,78.0,-8.0,
2082.0,2116.0,78.0,-8.0,
2013.0,2251.0,78.0,-9.0,
2071.0,2017.0,78.0,-9.0,
2096.0,1906.0,78.0,-9.0,
2078.0,2290.0,78.0,-9.0,
2087.0,1989.0,78.0,-9.0,
2033.0,2095.0,78.0,-9.0,
2015.0,1945.0,79.0,-9.0,
2133.0,2075.0,79.0,-9.0,
2087.0,2015.0,79.0,-9.0,
2065.0,2088.0,79.0,-9.0,
2051.0,2171.0,79.0,-9.0,
2108.0,2176.0,79.0,-9.0,
2090.0,2100.0,79.0,-9.0,
2059.0,2128.0,79.0,-8.0,
2058.0,2171.0,79.0,-9.0,
2092.0,2117.0,79.0,-9.0,
2078.0,2084.0,79.0,-8.0,
2074.0,2084.0,79.0,-8.0,
2060.0,2121.0,79.0,-8.0,
2037.0,2102.0,80.0,-8.0,
2109.0,2072.0,80.0,-9.0,
2065.0,2060.0,80.0,-9.0,
2118.0,2076.0,80.0,-9.0,
2035.0,2047.0,80.0,-9.0,
2115.0,2084.0,80.0,-9.0,
2078.0,1878.0,80.0,-9.0,
2037.0,2350.0,80.0,-9.0,
2028.0,2117.0,81.0,-9.0,
2056.0,2138.0,81.0,-9.0,
2096.0,2086.0,81.0,-9.0,
2040.0,2042.0,81.0,-9.0,
2041.0,1890.0,81.0,-9.0,
2085.0,2226.0,81.0,-9.0,
2104.0,2213.0,81.0,-9.0,
2062.0,1962.0,81.0,-9.0,
2026.0,2047.0,81.0,-9.0,
2071.0,2204.0,81.0,-9.0,
2088.0,1898.0,81.0,-9.0,
2068.0,2037.0,81.0,-9.0,
2100.0,2357.0,81.0,-9.0,
2057.0,2213.0,81.0,-9.0,
2078.0,2116.0,81.0,-9.0,
2128.0,2099.0,81.0,-9.0,
2072.0,2070.0,81.0,-9.0,
1987.0,1804.0,81.0,-9.0,
2025.0,2162.0,82.0,-9.0,
2169.0,2161.0,82.0,-9.0,
2134.0,2077.0,82.0,-9.0,
2037.0,2175.0,82.0,-9.0,
2063.0,2097.0,82.0,-9.0,
2067.0,1766.0,82.0,-9.0,
2086.0,2092.0,82.0,-9.0,
2073.0,2289.0,82.0,-9.0,
2046.0,2190.0,82.0,-8.0,
2065.0,2165.0,82.0,-8.0,
2088.0,1940.0,82.0,-8.0,
2078.0,2194.0,82.0,-8.0,
2069.0,1904.0,83.0,-8.0,
2102.0,2282.0,83.0,-8.0,
2079.0,2074.0,83.0,-8.0,
2098.0,2170.0,83.0,-8.0,
2033.0,2080.0,83.0,-8.0,
2049.0,2108.0,83.0,-8.0,
2020.0,1761.0,83.0,-9.0,
2109.0,2112.0,83.0,-9.0,
2095.0,2267.0,84.0,-9.0,
1975.0,2131.0,84.0,-9.0,
2067.0,2001.0,84.0,-9.0,
2099.0,1908.0,84.0,-9.0,
2110.0,2398.0,84.0,-9.0,
1986.0,1946.0,84.0,-9.0,
2104.0,2093.0,84.0,-9.0,
2106.0,2207.0,84.0,-9.0,
2107.0,2181.0,84.0,-9.0,
2073.0,2057.0,84.0,-9.0,
2078.0,2007.0,84.0,-9.0,
2075.0,1998.0,84.0,-9.0,
2063.0,2096.0,84.0,-9.0,
2007.0,2005.0,84.0,-9.0,
2088.0,1558.0,84.0,-9.0,
2051.0,2498.0,84.0,-9.0,
2086.0,2314.0,85.0,-9.0,
2061.0,2094.0,85.0,-9.0,
2082.0,2071.0,85.0,-9.0,
2108.0,2002.0,85.0,-9.0,
2077.0,2243.0,85.0,-9.0,
2095.0,2139.0,85.0,-9.0,
2033.0,1848.0,85.0,-9.0,
2019.0,2274.0,85.0,-9.0,
2121.0,2076.0,85.0,-9.0,
2059.0,2041.0,85.0,-9.0,
2075.0,2180.0,85.0,-9.0,
2031.0,1916.0,85.0,-9.0,
2029.0,1948.0,85.0,-9.0,
2091.0,1870.0,85.0,-9.0,
2072.0,2373.0,85.0,-9.0,
2152.0,2289.0,85.0,-9.0,
2047.0,2058.0,85.0,-9.0,
2031.0,1912.0,85.0,-9.0,
2089.0,2181.0,85.0,-9.0,
1998.0,2025.0,85.0,-9.0,
2042.0,2160.0,85.0,-9.0,
2148.0,2172.0,0,
2129.0,1944.0,85.0,-9.0,
2024.0,2148.0,85.0,-9.0,
2015.0,2217.0,85.0,-9.0,
1979.0,2015.0,85.0,-9.0,
2053.0,2221.0,85.0,-9.0,
2101.0,2104.0,85.0,-9.0,
2111.0,1946.0,85.0,-9.0,
2058.0,2188.0,85.0,-9.0,
2071.0,2011.0,85.0,-9.0,
2096.0,2064.0,85.0,-9.0,
2132.0,2157.0,85.0,-9.0,
2068.0,2057.0,85.0,-9.0,
2050.0,2193.0,85.0,-9.0,
2060.0,1995.0,86.0,-9.0,
2108.0,2027.0,86.0,-9.0,
2054.0,1993.0,86.0,-8.0,
2057.0,1957.0,86.0,-8.0,
2070.0,2184.0,86.0,-8.0,
2105.0,2169.0,86.0,-8.0,
2040.0,2082.0,86.0,-8.0,
2045.0,2208.0,86.0,-8.0,
2021.0,1855.0,86.0,-8.0,
2097.0,1955.0,86.0,-8.0,
2094.0,2326.0,86.0,-9.0,
2074.0,2189.0,86.0,-9.0,
2086.0,2178.0,86.0,-9.0,
2109.0,2025.0,86.0,-9.0,
2072.0,2061.0,86.0,-9.0,
2072.0,1976.0,86.0,-9.0,
2051.0,2160.0,87.0,-9.0,
2002.0,1989.0,87.0,-9.0,
2034.0,2099.0,87.0,-9.0,
2099.0,1971.0,87.0,-9.0,
2038.0,2129.0,87.0,-9.0,
2037.0,2105.0,87.0,-9.0,
2110.0,2102.0,87.0,-9.0,
2108.0,2059.0,87.0,-9.0,
2136.0,2403.0,87.0,-9.0,
2019.0,2252.0,87.0,-9.0,
2069.0,2097.0,87.0,-9.0,
2116.0,2137.0,87.0,-9.0,
1969.0,2024.0,88.0,-9.0,
2110.0,2099.0,88.0,-9.0,
2077.0,2140.0,88.0,-9.0,
2113.0,2167.0,88.0,-9.0,
2074.0,2061.0,88.0,-10.0,
2048.0,2034.0,88.0,-10.0,
2087.0,1973.0,88.0,-9.0,
1966.0,1845.0,88.0,-9.0,
2116.0,2323.0,88.0,-9.0,
2043.0,1878.0,88.0,-9.0,
1995.0,2176.0,88.0,-9.0,
2152.0,2344.0,88.0,-9.0,
2144.0,2091.0,88.0,-9.0,
2062.0,2025.0,88.0,-8.0,
2050.0,2304.0,88.0,-8.0,
2045.0,2082.0,88.0,-8.0,
2083.0,2121.0,88.0,-9.0,
2055.0,1947.0,88.0,-9.0,
2067.0,2263.0,88.0,-9.0,
2048.0,2068.0,88.0,-9.0,
2030.0,1913.0,88.0,-9.0,
2084.0,1645.0,88.0,-9.0,
2071.0,2240.0,88.0,-9.0,
2070.0,2289.0,88.0,-9.0,
2061.0,2192.0,88.0,-9.0,
2103.0,2029.0,88.0,-9.0,
2036.0,2020.0,88.0,-9.0,
2066.0,2319.0,88.0,-9.0,
2121.0,2023.0,88.0,-9.0,
2034.0,2138.0,88.0,-9.0,
2211.0,2030.0,88.0,-9.0,
1968.0,2060.0,88.0,-9.0,
2028.0,2112.0,88.0,-9.0,
2102.0,2030.0,88.0,-9.0,
2066.0,1961.0,88.0,-9.0,
2015.0,2112.0,88.0,-9.0,
2101.0,2225.0,88.0,-9.0,
2110.0,1915.0,88.0,-9.0,
2066.0,2141.0,88.0,-9.0,
2094.0,1934.0,88.0,-9.0,
2047.0,2037.0,88.0,-9.0,
2064.0,2347.0,88.0,-9.0,
2078.0,2153.0,88.0,-9.0,
2114.0,2224.0,88.0,-9.0,
2024.0,2060.0,88.0,-9.0,
2020.0,1848.0,88.0,-9.0,
2150.0,2052.0,88.0,-9.0,
2091.0,2048.0,88.0,-9.0,
2002.0,2316.0,88.0,-9.0,
2082.0,2153.0,88.0,-9.0,
2087.0,2055.0,88.0,-9.0,
2056.0,2077.0,88.0,-9.0,
2064.0,1888.0,88.0,-9.0,
2062.0,2260.0,88.0,-9.0,
2054.0,2044.0,88.0,-9.0,
2085.0,2191.0,88.0,-9.0,
2102.0,2134.0,88.0,-9.0,
2066.0,1920.0,88.0,-9.0,
2012.0,2045.0,88.0,-9.0,
2039.0,1873.0,88.0,-9.0,
2048.0,2270.0,88.0,-9.0,
2053.0,2076.0,88.0,-9.0,
2070.0,2020.0,88.0,-9.0,
2073.0,2349.0,88.0,-8.0,
2146.0,2214.0,88.0,-9.0,
2124.0,2153.0,88.0,-9.0,
2066.0,2090.0,88.0,-9.0,
2068.0,2082.0,88.0,-9.0,
2063.0,2003.0,88.0,-9.0,
2107.0,2087.0,88.0,-9.0,
2000.0,1650.0,88.0,-9.0,
2084.0,2148.0,88.0,-9.0,
2062.0,2221.0,88.0,-9.0,
2040.0,2014.0,88.0,-9.0,
2072.0,2330.0,88.0,-9.0,
1949.0,2019.0,88.0,-9.0,
2085.0,2103.0,88.0,-9.0,
2129.0,2106.0,88.0,-8.0,
2143.0,2232.0,89.0,-9.0,
2058.0,2035.0,89.0,-9.0,
2131.0,2043.0,89.0,-9.0,
2027.0,1980.0,89.0,-9.0,
2069.0,2144.0,88.0,-9.0,
2076.0,2062.0,88.0,-9.0,
2064.0,1993.0,89.0,-9.0,
2042.0,2096.0,88.0,-9.0,
2014.0,2372.0,89.0,-9.0,
2156.0,2084.0,89.0,-9.0,
2064.0,2177.0,89.0,-9.0,
2048.0,2135.0,89.0,-9.0,
2062.0,2029.0,89.0,-9.0,
2094.0,2016.0,89.0,-9.0,
2112.0,2047.0,89.0,-9.0,
2076.0,2026.0,89.0,-9.0,
1980.0,2122.0,89.0,-8.0,
2110.0,2244.0,89.0,-8.0,
2131.0,2111.0,89.0,-8.0,
2081.0,2145.0,89.0,-9.0,
2081.0,2065.0,89.0,-9.0,
2084.0,1960.0,89.0,-9.0,
2079.0,2083.0,89.0,-8.0,
1996.0,1970.0,89.0,-8.0,
2056.0,1912.0,89.0,-8.0,
2034.0,2149.0,89.0,-8.0,
2015.0,2038.0,89.0,-8.0,
2128.0,2240.0,89.0,-8.0,
2102.0,2132.0,90.0,-8.0,
2067.0,2074.0,90.0,-8.0,
2079.0,2109.0,90.0,-8.0,
2106.0,2094.0,90.0,-8.0,
2056.0,2229.0,90.0,-8.0,
2043.0,2029.0,90.0,-9.0,
2032.0,1954.0,90.0,-9.0,
2051.0,2024.0,90.0,-9.0,
2073.0,2060.0,90.0,-9.0,
2080.0,2155.0,90.0,-9.0,
2074.0,2166.0,90.0,-9.0,
2090.0,2118.0,90.0,-9.0,
2079.0,2087.0,90.0,-8.0,
2071.0,1962.0,90.0,-8.0,
1968.0,1980.0,90.0,-8.0,
2111.0,2198.0,90.0,-8.0,
2162.0,2112.0,90.0,-8.0,
2091.0,2030.0,90.0,-8.0,
2041.0,2078.0,90.0,-8.0,
2066.0,2022.0,90.0,-8.0,
2155.0,2209.0,90.0,-8.0,
2080.0,2144.0,90.0,-8.0,
2070.0,2106.0,90.0,-8.0,
2020.0,1826.0,90.0,-8.0,
2082.0,2271.0,90.0,-8.0,
2070.0,2161.0,90.0,-8.0,
2085.0,2238.0,90.0,-8.0,
2070.0,2063.0,90.0,-8.0,
2083.0,2053.0,90.0,-8.0,
2074.0,2209.0,90.0,-8.0,
2051.0,1993.0,90.0,-8.0,
2046.0,1989.0,90.0,-8.0,
2071.0,2051.0,90.0,-8.0,
2095.0,2198.0,90.0,-8.0,
2044.0,1902.0,90.0,-8.0,
2076.0,2237.0,90.0,-8.0,
2069.0,2051.0,89.0,-8.0,
2061.0,1954.0,89.0,-8.0,
2068.0,2210.0,89.0,-8.0,
2042.0,2123.0,89.0,-8.0,
2042.0,2099.0,89.0,-8.0,
2054.0,2034.0,89.0,-8.0,
2080.0,2118.0,89.0,-8.0,
2074.0,2012.0,89.0,-8.0,
2085.0,2124.0,89.0,-8.0,
2097.0,2096.0,89.0,-9.0,
2111.0,2109.0,89.0,-9.0,
2092.0,2106.0,89.0,-9.0,
2027.0,2060.0,89.0,-9.0,
2070.0,2060.0,89.0,-9.0,
2087.0,2074.0,89.0,-9.0,
2105.0,2072.0,89.0,-9.0,
2077.0,2049.0,89.0,-9.0,
2083.0,2107.0,89.0,-9.0,
2107.0,2119.0,89.0,-9.0,
2093.0,2146.0,89.0,-9.0,
2066.0,2081.0,89.0,-9.0,
2028.0,2058.0,89.0,-9.0,
2018.0,2015.0,89.0,-9.0,
2043.0,2075.0,89.0,-9.0,
2084.0,2075.0,90.0,-9.0,
2050.0,2122.0,90.0,-9.0,
2077.0,2099.0,90.0,-9.0,
2063.0,2026.0,90.0,-9.0,
2092.0,2150.0,90.0,-9.0,
2041.0,2112.0,90.0,-9.0,
2045.0,2062.0,90.0,-8.0,
2046.0,2066.0,90.0,-8.0,
2088.0,2090.0,90.0,-8.0,
2076.0,2109.0,91.0,-8.0,
2036.0,2052.0,91.0,-8.0,
2073.0,2140.0,91.0,-8.0,
2097.0,2052.0,91.0,-8.0,
2059.0,2097.0,91.0,-8.0,
2075.0,2157.0,91.0,-8.0,
2061.0,2058.0,91.0,-8.0,
2060.0,2115.0,91.0,-8.0,
2091.0,2082.0,91.0,-8.0,
2064.0,2020.0,91.0,-8.0,
2071.0,2040.0,91.0,-8.0,
2095.0,2132.0,91.0,-8.0,
2089.0,2067.0,91.0,-8.0,
2089.0,2142.0,90.0,-8.0,
2041.0,2042.0,90.0,-8.0,
2042.0,2061.0,90.0,-8.0,
2062.0,2069.0,90.0,-8.0,
2116.0,2040.0,90.0,-8.0,
2054.0,2128.0,90.0,-8.0,
2061.0,2189.0,89.0,-8.0,
2092.0,2097.0,89.0,-8.0,
2092.0,2026.0,89.0,-8.0,
2069.0,2035.0,89.0,-8.0,
2047.0,2174.0,88.0,-8.0,
2061.0,2087.0,88.0,-8.0,
2077.0,2065.0,88.0,-8.0,
2075.0,2064.0,88.0,-8.0,
2061.0,2070.0,88.0,-8.0,
2073.0,2045.0,87.0,-8.0,
2084.0,2102.0,87.0,-8.0,
2101.0,2099.0,87.0,-8.0,
2047.0,2083.0,87.0,-8.0,
2030.0,2077.0,86.0,-8.0,
2063.0,2107.0,86.0,-8.0,
2068.0,2117.0,86.0,-8.0,
2072.0,2114.0,86.0,-8.0,
2052.0,2081.0,86.0,-8.0,
2065.0,2068.0,86.0,-8.0,
2135.0,2081.0,86.0,-8.0,
2123.0,2027.0,86.0,-8.0,
2034.0,1987.0,85.0,-8.0,
2071.0,2248.0,85.0,-8.0,
2092.0,2146.0,85.0,-8.0,
2116.0,2199.0,85.0,-8.0,
2077.0,2012.0,85.0,-8.0,
2047.0,2068.0,85.0,-9.0,
2088.0,2084.0,85.0,-9.0,
2101.0,2060.0,85.0,-9.0,
2067.0,2061.0,85.0,-9.0,
2042.0,2079.0,85.0,-9.0,
2035.0,2148.0,84.0,-9.0,
2074.0,2179.0,84.0,-9.0,
2063.0,2092.0,84.0,-9.0,
2071.0,2041.0,84.0,-9.0,
2038.0,2114.0,83.0,-9.0,
2068.0,2115.0,83.0,-8.0,
2086.0,2096.0,83.0,-8.0,
2066.0,2083.0,82.0,-8.0,
2054.0,2033.0,82.0,-8.0,
2051.0,2088.0,81.0,-8.0,
2069.0,2121.0,81.0,-8.0,
2095.0,2033.0,80.0,-8.0,
2054.0,2109.0,80.0,-7.0,
2064.0,2114.0,79.0,-7.0,
2072.0,2162.0,79.0,-7.0,
2109.0,2103.0,79.0,-7.0,
2037.0,2058.0,78.0,-7.0,
2061.0,2060.0,78.0,-7.0,
2065.0,2028.0,78.0,-7.0,
2055.0,2121.0,78.0,-7.0,
2056.0,2087.0,78.0,-7.0,
2063.0,2043.0,78.0,-7.0,
2066.0,2049.0,78.0,-8.0,
2084.0,2060.0,77.0,-8.0,
2101.0,2124.0,77.0,-8.0,
2060.0,2109.0,77.0,-8.0,
2037.0,2113.0,77.0,-8.0,
2037.0,2066.0,77.0,-8.0,
2066.0,2084.0,77.0,-8.0,
2057.0,2118.0,77.0,-8.0,
2049.0,2099.0,77.0,-8.0,
2113.0,2048.0,76.0,-8.0,
2098.0,2119.0,76.0,-8.0,
2093.0,2093.0,76.0,-9.0,
2056.0,2077.0,76.0,-9.0,
2093.0,2116.0,76.0,-9.0,
2057.0,2048.0,76.0,-9.0,
2091.0,2117.0,76.0,-9.0,
2065.0,2084.0,75.0,-9.0,
2052.0,2078.0,75.0,-9.0,
2068.0,2088.0,75.0,-9.0,
2097.0,2101.0,74.0,-9.0,
2057.0,2084.0,74.0,-9.0,
2026.0,2057.0,74.0,-9.0,
2034.0,2108.0,74.0,-9.0,
2078.0,2074.0,73.0,-9.0,
2108.0,2086.0,73.0,-9.0,
2055.0,2129.0,73.0,-9.0,
2069.0,2129.0,73.0,-9.0,
2082.0,2115.0,73.0,-9.0,
2110.0,2064.0,73.0,-9.0,
2088.0,2042.0,72.0,-9.0,
2031.0,2097.0,72.0,-9.0,
2037.0,2084.0,72.0,-9.0,
2072.0,2093.0,72.0,-9.0,
2100.0,2184.0,72.0,-9.0,
2080.0,2110.0,71.0,-9.0,
2077.0,2044.0,71.0,-9.0,
2069.0,2106.0,71.0,-9.0,
2111.0,2123.0,70.0,-8.0,
2055.0,2080.0,70.0,-8.0,
2044.0,2092.0,70.0,-8.0,
2041.0,2098.0,69.0,-8.0,
2075.0,2040.0,69.0,-7.0,
2078.0,2071.0,69.0,-7.0,
2059.0,2166.0,68.0,-7.0,
2054.0,2069.0,68.0,-6.0,
2076.0,2095.0,68.0,-6.0,
2098.0,2073.0,68.0,-6.0,
2039.0,2050.0,68.0,-6.0,
2042.0,2073.0,68.0,-6.0,
2042.0,2053.0,68.0,-6.0,
2061.0,2083.0,68.0,-6.0,
2070.0,2091.0,68.0,-6.0,
2064.0,2068.0,68.0,-6.0,
2098.0,2188.0,68.0,-7.0,
2093.0,2074.0,68.0,-7.0,
2089.0,2061.0,68.0,-7.0,
2064.0,2076.0,69.0,-7.0,
2070.0,2085.0,69.0,-7.0,
2068.0,2079.0,69.0,-7.0,
2108.0,2124.0,69.0,-7.0,
2071.0,2102.0,69.0,-7.0,
2057.0,2075.0,69.0,-8.0,
2070.0,2103.0,69.0,-8.0,
2107.0,2107.0,69.0,-8.0,
2082.0,2126.0,69.0,-8.0,
2050.0,2072.0,69.0,-8.0,
2047.0,2087.0,69.0,-8.0,
2072.0,2081.0,69.0,-8.0,
2083.0,2097.0,69.0,-8.0,
2047.0,2008.0,69.0,-8.0,
2083.0,2103.0,69.0,-9.0,
2100.0,2118.0,69.0,-9.0,
2087.0,2079.0,69.0,-9.0,
2039.0,2047.0,69.0,-9.0,
2050.0,2057.0,69.0,-9.0,
2060.0,2092.0,69.0,-9.0,
2098.0,2189.0,69.0,-9.0,
2058.0,2119.0,68.0,-9.0,
2076.0,2117.0,68.0,-9.0,
2067.0,2036.0,68.0,-9.0,
2088.0,2150.0,67.0,-9.0,
2111.0,2100.0,66.0,-9.0,
2058.0,1963.0,66.0,-9.0,
2036.0,2151.0,65.0,-9.0,
2031.0,2081.0,64.0,-9.0,
2076.0,2064.0,63.0,-8.0,
2069.0,2093.0,62.0,-8.0,
2061.0,2140.0,61.0,-7.0,
2066.0,2130.0,60.0,-7.0,
2117.0,2076.0,58.0,-6.0,
2052.0,2076.0,57.0,-6.0,
2048.0,2073.0,57.0,-6.0,
2040.0,2097.0,56.0,-6.0,
2053.0,2056.0,55.0,-5.0,
2076.0,2106.0,54.0,-5.0,
2054.0,2079.0,54.0,-4.0,
2075.0,2074.0,53.0,-4.0,
2076.0,2083.0,54.0,-5.0,
2099.0,2114.0,54.0,-5.0,
2069.0,2049.0,54.0,-6.0,
2062.0,2082.0,54.0,-6.0,
2071.0,2088.0,55.0,-6.0,
2096.0,2114.0,55.0,-6.0,
2101.0,2130.0,55.0,-6.0,
2078.0,2102.0,55.0,-7.0,
2069.0,2071.0,55.0,-7.0,
2073.0,2133.0,55.0,-7.0,
2114.0,2089.0,55.0,-7.0,
2052.0,2077.0,56.0,-7.0,
2044.0,2074.0,56.0,-8.0,
2052.0,2100.0,56.0,-8.0,
2092.0,2106.0,56.0,-8.0,
2062.0,2062.0,55.0,-8.0,
2051.0,2068.0,55.0,-8.0,
2082.0,2097.0,55.0,-8.0,
2106.0,2132.0,55.0,-8.0,
2090.0,2074.0,55.0,-9.0,
2048.0,2080.0,55.0,-9.0,
2058.0,2060.0,55.0,-9.0,
2066.0,2073.0,55.0,-9.0,
2083.0,2127.0,55.0,-9.0,
2056.0,2095.0,55.0,-9.0,
2064.0,2090.0,56.0,-9.0,
2090.0,2086.0,56.0,-9.0,
2103.0,2101.0,56.0,-9.0,
2070.0,2087.0,57.0,-9.0,
2051.0,2101.0,57.0,-9.0,
2036.0,2111.0,57.0,-9.0,
2095.0,2114.0,56.0,-9.0,
2083.0,2034.0,56.0,-9.0,
2055.0,2073.0,54.0,-9.0,
2056.0,2095.0,52.0,-9.0,
2077.0,2093.0,51.0,-9.0,
2089.0,2093.0,50.0,-9.0,
2051.0,2140.0,49.0,-8.0,
2042.0,2090.0,48.0,-7.0,
2044.0,2057.0,46.0,-7.0,
2103.0,2118.0,44.0,-7.0,
2095.0,2049.0,44.0,-7.0,
2071.0,2066.0,42.0,-6.0,
2068.0,2073.0,43.0,-6.0,
2080.0,2061.0,44.0,-6.0,
2078.0,2094.0,43.0,-5.0,
2048.0,2050.0,42.0,-6.0,
2043.0,2068.0,41.0,-6.0,
2047.0,2086.0,41.0,-6.0,
2137.0,2104.0,40.0,-6.0,
2092.0,2089.0,40.0,-6.0,
2077.0,2119.0,40.0,-6.0,
2079.0,2131.0,41.0,-6.0,
2090.0,2111.0,41.0,-7.0,
2077.0,2099.0,41.0,-7.0,
2032.0,2066.0,41.0,-7.0,
2043.0,2089.0,41.0,-7.0,
2056.0,2129.0,41.0,-7.0,
2094.0,2132.0,42.0,-7.0,
2061.0,2096.0,42.0,-7.0,
2057.0,2047.0,42.0,-7.0,
2063.0,2065.0,42.0,-7.0,
2093.0,2096.0,42.0,-7.0,
2083.0,2106.0,42.0,-7.0,
2051.0,2081.0,43.0,-8.0,
2044.0,2079.0,43.0,-8.0,
2079.0,2089.0,43.0,-8.0,
2095.0,2091.0,43.0,-8.0,
2058.0,2095.0,44.0,-8.0,
2065.0,2116.0,44.0,-8.0,
2076.0,2073.0,44.0,-8.0,
2085.0,2077.0,45.0,-8.0,
2038.0,2093.0,45.0,-8.0,
2049.0,2090.0,45.0,-8.0,
2092.0,2098.0,46.0,-8.0,
2127.0,2062.0,46.0,-8.0,
2076.0,2042.0,46.0,-8.0,
2065.0,2100.0,46.0,-8.0,
2079.0,2115.0,46.0,-8.0,
2100.0,2106.0,46.0,-8.0,
2100.0,2062.0,46.0,-8.0,
2042.0,2093.0,46.0,-8.0,
2050.0,2101.0,46.0,-8.0,
2052.0,2139.0,45.0,-8.0,
2085.0,2070.0,45.0,-7.0,
2078.0,2086.0,44.0,-7.0,
2071.0,2145.0,43.0,-7.0,
2079.0,2108.0,43.0,-8.0,
2100.0,2079.0,42.0,-8.0,
2066.0,2102.0,41.0,-8.0,
2057.0,2111.0,40.0,-8.0,
2039.0,2050.0,39.0,-8.0,
2061.0,2042.0,38.0,-7.0,
2091.0,2072.0,37.0,-7.0,
2051.0,2093.0,37.0,-7.0,
2064.0,2111.0,36.0,-8.0,
2069.0,2089.0,35.0,-7.0,
2102.0,2116.0,35.0,-7.0,
2066.0,2113.0,35.0,-7.0,
2071.0,2105.0,34.0,-7.0,
2051.0,2104.0,34.0,-7.0,
2059.0,2049.0,34.0,-6.0,
2055.0,2083.0,34.0,-7.0,
2047.0,2101.0,34.0,-7.0,
2053.0,2080.0,34.0,-8.0,
2131.0,2095.0,34.0,-8.0,
2104.0,2062.0,35.0,-8.0,
2069.0,2080.0,35.0,-8.0,
2052.0,2079.0,34.0,-7.0,
2051.0,2085.0,34.0,-7.0,
2092.0,2096.0,34.0,-8.0,
2077.0,2082.0,34.0,-8.0,
2068.0,2097.0,34.0,-8.0,
2081.0,2102.0,34.0,-8.0,
2106.0,2127.0,34.0,-8.0,
2097.0,2097.0,34.0,-8.0,
2043.0,2100.0,34.0,-8.0,
2049.0,2100.0,34.0,-8.0,
2068.0,2113.0,34.0,-8.0,
2114.0,2085.0,35.0,-8.0,
2064.0,2079.0,35.0,-8.0,
2066.0,2074.0,35.0,-8.0,
2070.0,2082.0,35.0,-8.0,
2105.0,2085.0,35.0,-8.0,
2081.0,2108.0,36.0,-8.0,
2044.0,2080.0,36.0,-8.0,
2043.0,2090.0,36.0,-8.0,
2076.0,2087.0,37.0,-8.0,
2094.0,2065.0,37.0,-8.0,
2061.0,2093.0,37.0,-8.0,
2076.0,2109.0,37.0,-8.0,
2089.0,2106.0,37.0,-8.0,
2108.0,2115.0,37.0,-8.0,
2047.0,2107.0,37.0,-8.0,
2047.0,2072.0,37.0,-8.0,
2045.0,2071.0,37.0,-8.0,
2103.0,2100.0,37.0,-8.0,
2076.0,2092.0,37.0,-8.0,
2061.0,2104.0,36.0,-9.0,
2056.0,2102.0,36.0,-9.0,
2103.0,2121.0,36.0,-9.0,
2096.0,2095.0,36.0,-9.0,
2028.0,2076.0,35.0,-8.0,
2035.0,2095.0,35.0,-8.0,
2033.0,2086.0,35.0,-8.0,
2080.0,2064.0,35.0,-8.0,
2090.0,2058.0,35.0,-8.0,
2107.0,2064.0,34.0,-8.0,
2086.0,2094.0,34.0,-8.0,
2097.0,2112.0,34.0,-8.0,
2090.0,2107.0,34.0,-8.0,
2053.0,2099.0,34.0,-8.0,
2056.0,2105.0,34.0,-9.0,
2056.0,2084.0,34.0,-8.0,
2084.0,2093.0,34.0,-8.0,
2061.0,2111.0,33.0,-8.0,
2069.0,2048.0,33.0,-8.0,
2085.0,2085.0,32.0,-8.0,
2104.0,2115.0,32.0,-8.0,
2057.0,2031.0,32.0,-8.0,
2054.0,2085.0,31.0,-8.0,
2048.0,2049.0,31.0,-8.0,
2083.0,2103.0,30.0,-8.0,
2092.0,2059.0,29.0,-8.0,
2068.0,2100.0,28.0,-8.0,
2075.0,2110.0,28.0,-8.0,
2089.0,2092.0,27.0,-8.0,
2105.0,2102.0,26.0,-8.0,
2066.0,2099.0,26.0,-8.0,
2063.0,2097.0,26.0,-8.0,
2060.0,2123.0,25.0,-8.0,
2080.0,2088.0,24.0,-8.0,
2077.0,2101.0,24.0,-8.0,
2068.0,2099.0,23.0,-8.0,
2070.0,2073.0,23.0,-8.0,
2108.0,2081.0,23.0,-8.0,
2101.0,2089.0,22.0,-8.0,
2064.0,2101.0,22.0,-8.0,
2058.0,2102.0,22.0,-8.0,
2060.0,2090.0,22.0,-8.0,
2105.0,2081.0,22.0,-8.0,
2081.0,2092.0,22.0,-8.0,
2070.0,2086.0,22.0,-9.0,
2083.0,2126.0,22.0,-9.0,
2101.0,2116.0,23.0,-9.0,
2109.0,2062.0,23.0,-9.0,
2064.0,2080.0,23.0,-9.0,
2007.0,2080.0,23.0,-9.0,
2059.0,2073.0,23.0,-9.0,
2078.0,2102.0,23.0,-9.0,
2065.0,2038.0,23.0,-9.0,
2070.0,2069.0,23.0,-10.0,
2068.0,2107.0,23.0,-10.0,
2082.0,2109.0,23.0,-10.0,
2090.0,2085.0,23.0,-10.0,
2053.0,2083.0,23.0,-10.0,
2046.0,2081.0,23.0,-10.0,
2060.0,2101.0,23.0,-10.0,
2103.0,2108.0,23.0,-10.0,
2086.0,2105.0,22.0,-10.0,
2063.0,2120.0,22.0,-10.0,
2097.0,2083.0,22.0,-10.0,
2084.0,2092.0,22.0,-10.0,
2093.0,2102.0,22.0,-10.0,
2058.0,2078.0,22.0,-10.0,
2051.0,2089.0,22.0,-10.0,
2059.0,2096.0,21.0,-11.0,
2091.0,2090.0,21.0,-11.0,
2079.0,2097.0,21.0,-11.0,
2057.0,2115.0,21.0,-11.0,
2076.0,2100.0,21.0,-11.0,
2092.0,2104.0,20.0,-11.0,
2084.0,2083.0,20.0,-11.0,
2062.0,2074.0,20.0,-11.0,
2051.0,2080.0,20.0,-11.0,
2061.0,2131.0,19.0,-11.0,
2082.0,2046.0,19.0,-11.0,
2077.0,2064.0,19.0,-11.0,
2058.0,2092.0,19.0,-11.0,
2077.0,2121.0,19.0,-11.0,
2098.0,2110.0,19.0,-11.0,
2104.0,2093.0,18.0,-11.0,
2059.0,2055.0,18.0,-11.0,
2044.0,2036.0,18.0,-11.0,
2052.0,2077.0,18.0,-11.0,
2091.0,2087.0,18.0,-11.0,
2088.0,2095.0,18.0,-11.0,
2072.0,2102.0,17.0,-11.0,
2071.0,2078.0,17.0,-11.0,
2092.0,2053.0,17.0,-11.0,
2102.0,2078.0,17.0,-11.0,
2056.0,2143.0,17.0,-10.0,
2050.0,2113.0,17.0,-10.0,
2056.0,2109.0,17.0,-10.0,
2109.0,2127.0,17.0,-10.0,
2080.0,2077.0,17.0,-10.0,
2054.0,2071.0,17.0,-10.0,
2072.0,2107.0,17.0,-10.0,
2100.0,2105.0,17.0,-10.0,
2092.0,2094.0,18.0,-10.0,
2052.0,2086.0,18.0,-10.0,
2035.0,2078.0,18.0,-10.0,
2046.0,2085.0,18.0,-10.0,
2084.0,2078.0,18.0,-10.0,
2088.0,2084.0,18.0,-10.0,
2057.0,2114.0,18.0,-10.0,
2066.0,2122.0,18.0,-10.0,
2084.0,2097.0,18.0,-10.0,
2108.0,2094.0,18.0,-10.0,
2054.0,2095.0,18.0,-10.0,
2038.0,2071.0,18.0,-10.0,
2070.0,2077.0,18.0,-10.0,
2086.0,2076.0,18.0,-10.0,
2080.0,2118.0,18.0,-10.0,
2051.0,2126.0,18.0,-10.0,
2048.0,2108.0,18.0,-10.0,
2087.0,2135.0,18.0,-10.0,
2101.0,2110.0,19.0,-10.0,
2045.0,2055.0,19.0,-10.0,
2043.0,2083.0,19.0,-10.0,
2053.0,2084.0,19.0,-10.0,
2080.0,2065.0,19.0,-10.0,
2081.0,2052.0,19.0,-10.0,
2055.0,2054.0,19.0,-10.0,
2066.0,2084.0,19.0,-10.0,
2126.0,2108.0,20.0,-10.0,
2095.0,2094.0,20.0,-10.0,
2066.0,2092.0,20.0,-11.0,
2046.0,2095.0,20.0,-11.0,
2057.0,2086.0,20.0,-10.0,
2086.0,2093.0,20.0,-10.0,
2089.0,2097.0,19.0,-10.0,
2057.0,2102.0,19.0,-10.0,
2078.0,2122.0,19.0,-10.0,
2078.0,2099.0,19.0,-10.0,
2098.0,2099.0,19.0,-10.0,
2053.0,2094.0,19.0,-10.0,
2043.0,2093.0,18.0,-10.0,
2049.0,2093.0,18.0,-10.0,
2072.0,2098.0,18.0,-10.0,
2072.0,2110.0,18.0,-10.0,
2052.0,2080.0,18.0,-10.0,
2058.0,2081.0,18.0,-10.0,
2077.0,2110.0,18.0,-10.0,
2094.0,2088.0,17.0,-10.0,
2062.0,2097.0,17.0,-10.0,
2039.0,2091.0,17.0,-10.0,
2043.0,2080.0,17.0,-10.0,
2089.0,2071.0,17.0,-10.0,
2091.0,2030.0,17.0,-10.0,
2062.0,2071.0,16.0,-10.0,
2073.0,2029.0,16.0,-10.0,
2090.0,2135.0,16.0,-10.0,
2089.0,2141.0,16.0,-10.0,
2062.0,2105.0,16.0,-10.0,
2053.0,2097.0,16.0,-11.0,
2070.0,2131.0,15.0,-11.0,
2078.0,2056.0,15.0,-11.0,
2092.0,2090.0,15.0,-11.0,
2067.0,2072.0,14.0,-11.0,
2070.0,2067.0,14.0,-11.0,
2077.0,2065.0,14.0,-11.0,
2098.0,2074.0,14.0,-11.0,
2071.0,2103.0,14.0,-11.0,
2041.0,2068.0,13.0,-11.0,
2066.0,2083.0,13.0,-11.0,
2077.0,2130.0,13.0,-11.0,
2088.0,2091.0,13.0,-11.0,
2066.0,2119.0,13.0,-11.0,
2064.0,2070.0,13.0,-11.0,
2076.0,2085.0,13.0,-11.0,
2099.0,2097.0,13.0,-11.0,
2055.0,2067.0,13.0,-11.0,
2037.0,2071.0,13.0,-11.0,
2048.0,2086.0,13.0,-11.0,
2063.0,2103.0,13.0,-12.0,
2089.0,2107.0,13.0,-12.0,
2054.0,2110.0,13.0,-12.0,
2071.0,2083.0,13.0,-12.0,
2078.0,2086.0,13.0,-12.0,
2096.0,2092.0,13.0,-12.0,
2064.0,2092.0,13.0,-12.0,
2042.0,2099.0,14.0,-12.0,
2043.0,2097.0,14.0,-12.0,
2064.0,2105.0,14.0,-12.0,
2056.0,2088.0,14.0,-12.0,
2041.0,2105.0,14.0,-12.0,
2051.0,2050.0,14.0,-12.0,
2066.0,2072.0,14.0,-12.0,
2091.0,2106.0,14.0,-12.0,
2048.0,2091.0,14.0,-12.0,
2060.0,2100.0,14.0,-12.0,
2041.0,2101.0,14.0,-12.0,
2066.0,2122.0,14.0,-12.0,
2090.0,2122.0,14.0,-12.0,
2055.0,2082.0,14.0,-12.0,
2063.0,2043.0,14.0,-12.0,
2070.0,2056.0,14.0,-12.0,
2092.0,2094.0,14.0,-12.0,
2063.0,2088.0,14.0,-12.0,
2044.0,2084.0,14.0,-12.0,
2044.0,2082.0,14.0,-12.0,
2067.0,2094.0,14.0,-12.0,
2081.0,2095.0,14.0,-12.0,
2050.0,2096.0,15.0,-12.0,
2057.0,2098.0,15.0,-12.0,
2077.0,2119.0,15.0,-12.0,
2092.0,2129.0,15.0,-12.0,
2066.0,2095.0,15.0,-12.0,
2052.0,2094.0,15.0,-12.0,
2054.0,2058.0,15.0,-12.0,
2083.0,2085.0,14.0,-12.0,
2089.0,2086.0,14.0,-12.0,
2066.0,2113.0,14.0,-12.0,
2060.0,2049.0,14.0,-12.0,
2067.0,2119.0,14.0,-11.0,
2093.0,2088.0,14.0,-11.0,
2082.0,2092.0,14.0,-11.0,
2048.0,2088.0,14.0,-11.0,
2061.0,2071.0,14.0,-11.0,
2064.0,2069.0,14.0,-11.0,
2090.0,2094.0,13.0,-11.0,
2059.0,2106.0,13.0,-11.0,
2052.0,2039.0,13.0,-11.0,
2069.0,2093.0,13.0,-11.0,
2095.0,2127.0,13.0,-11.0,
2064.0,2112.0,13.0,-11.0,
2043.0,2113.0,13.0,-11.0,
2041.0,2083.0,13.0,-11.0,
2061.0,2062.0,13.0,-11.0,
2091.0,2094.0,13.0,-11.0,
2040.0,2098.0,13.0,-11.0,
2061.0,2101.0,13.0,-11.0,
2076.0,2104.0,13.0,-11.0,
2121.0,2090.0,13.0,-11.0,
2062.0,2098.0,13.0,-11.0,
2042.0,2102.0,13.0,-11.0,
2063.0,2085.0,13.0,-11.0,
2048.0,2040.0,13.0,-11.0,
2084.0,2047.0,14.0,-11.0,
2066.0,2052.0,14.0,-11.0,
2057.0,2074.0,14.0,-11.0,
2072.0,2103.0,14.0,-11.0,
2100.0,2142.0,14.0,-11.0,
2093.0,2140.0,15.0,-11.0,
2035.0,2119.0,15.0,-11.0,
2052.0,2092.0,15.0,-11.0,
2071.0,2076.0,15.0,-11.0,
2112.0,2090.0,15.0,-11.0,
2051.0,2113.0,15.0,-11.0,
2060.0,2108.0,15.0,-11.0,
2089.0,2110.0,16.0,-11.0,
2095.0,2123.0,16.0,-11.0,
2072.0,2100.0,16.0,-11.0,
2055.0,2065.0,16.0,-11.0,
2052.0,2064.0,16.0,-11.0,
2066.0,2074.0,16.0,-11.0,
2098.0,2091.0,17.0,-11.0,
2064.0,2098.0,17.0,-11.0,
2070.0,2082.0,17.0,-11.0,
2075.0,2088.0,17.0,-11.0,
2100.0,2097.0,17.0,-11.0,
2079.0,2097.0,16.0,-12.0,
2051.0,2091.0,16.0,-12.0,
2052.0,2093.0,16.0,-12.0,
2060.0,2090.0,16.0,-12.0,
2084.0,2086.0,16.0,-12.0,
2061.0,2084.0,15.0,-12.0,
2073.0,2090.0,15.0,-12.0,
2076.0,2094.0,15.0,-11.0,
2091.0,2105.0,14.0,-11.0,
2067.0,2088.0,14.0,-11.0,
2038.0,2101.0,14.0,-11.0,
2052.0,2089.0,14.0,-11.0,
2058.0,2085.0,13.0,-11.0,
2085.0,2096.0,13.0,-11.0,
2054.0,2097.0,13.0,-11.0,
2049.0,2092.0,13.0,-11.0,
2067.0,2089.0,13.0,-11.0,
2097.0,2095.0,13.0,-11.0,
2082.0,2095.0,13.0,-11.0,
2043.0,2120.0,13.0,-11.0,
2053.0,2151.0,13.0,-11.0,
2064.0,2105.0,13.0,-11.0,
2083.0,2086.0,13.0,-11.0,
2053.0,2024.0,13.0,-11.0,
2083.0,2031.0,13.0,-11.0,
2081.0,2123.0,13.0,-11.0,
2099.0,2092.0,13.0,-11.0,
2089.0,2110.0,12.0,-11.0,
2058.0,2070.0,12.0,-11.0,
2059.0,2076.0,12.0,-11.0,
2056.0,2114.0,12.0,-11.0,
2083.0,2129.0,11.0,-11.0,
2053.0,2092.0,11.0,-11.0,
2070.0,2108.0,11.0,-11.0,
2083.0,2092.0,10.0,-11.0,
2102.0,2088.0,10.0,-11.0,
2100.0,2100.0,9.0,-11.0,
2064.0,2119.0,9.0,-11.0,
2057.0,2117.0,9.0,-11.0,
2071.0,2125.0,9.0,-11.0,
2109.0,2114.0,8.0,-11.0,
2077.0,2063.0,8.0,-12.0,
2059.0,1978.0,8.0,-12.0,
2073.0,2061.0,8.0,-12.0,
2100.0,2089.0,8.0,-12.0,
2086.0,2090.0,8.0,-12.0,
2046.0,2071.0,9.0,-12.0,
2054.0,2087.0,9.0,-12.0,
2057.0,2085.0,9.0,-12.0,
2089.0,2100.0,9.0,-12.0,
2072.0,2095.0,10.0,-12.0,
2057.0,2089.0,10.0,-12.0,
2070.0,2108.0,10.0,-12.0,
2102.0,2109.0,10.0,-12.0,
2078.0,2102.0,10.0,-13.0,
2043.0,2112.0,11.0,-13.0,
2043.0,2094.0,11.0,-13.0,
2049.0,2110.0,11.0,-13.0,
2074.0,2080.0,11.0,-13.0,
2059.0,2087.0,11.0,-13.0,
2060.0,2096.0,11.0,-13.0,
2065.0,2112.0,11.0,-13.0,
2091.0,2124.0,11.0,-13.0,
2076.0,2077.0,11.0,-13.0,
2050.0,2096.0,11.0,-13.0,
2056.0,2104.0,11.0,-13.0,
2067.0,2109.0,10.0,-13.0,
2096.0,2074.0,10.0,-13.0,
2062.0,2063.0,10.0,-13.0,
2071.0,2060.0,10.0,-13.0,
2073.0,2074.0,10.0,-12.0,
2096.0,2095.0,10.0,-12.0,
2093.0,2097.0,10.0,-12.0,
2055.0,2082.0,10.0,-12.0,
2065.0,2081.0,10.0,-12.0,
2061.0,2084.0,10.0,-12.0,
2090.0,2077.0,10.0,-12.0,
2072.0,2099.0,10.0,-12.0,
2066.0,2101.0,10.0,-12.0,
2076.0,2104.0,10.0,-12.0,
2102.0,2121.0,10.0,-12.0,
2083.0,2097.0,10.0,-12.0,
2053.0,2086.0,10.0,-12.0,
2044.0,2086.0,10.0,-12.0,
2040.0,2091.0,10.0,-12.0,
2078.0,2083.0,10.0,-12.0,
2064.0,2099.0,10.0,-12.0,
2053.0,2087.0,10.0,-12.0,
2076.0,2090.0,10.0,-12.0,
2088.0,2092.0,10.0,-12.0,
2095.0,2093.0,10.0,-12.0,
2051.0,2086.0,10.0,-12.0,
2050.0,2091.0,10.0,-12.0,
2055.0,2088.0,10.0,-12.0,
2097.0,2088.0,10.0,-12.0,
2073.0,2091.0,10.0,-12.0,
2065.0,2091.0,11.0,-12.0,
2087.0,2097.0,11.0,-12.0,
2098.0,2099.0,11.0,-12.0,
2106.0,2097.0,11.0,-12.0,
2047.0,2103.0,11.0,-12.0,
2039.0,2102.0,11.0,-12.0,
2046.0,2085.0,11.0,-12.0,
2084.0,2063.0,11.0,-12.0,
2072.0,2072.0,11.0,-12.0,
2059.0,2088.0,11.0,-12.0,
2077.0,2105.0,11.0,-12.0,
2097.0,2093.0,11.0,-12.0,
2103.0,2102.0,11.0,-12.0,
2053.0,2110.0,11.0,-12.0,
2056.0,2112.0,11.0,-12.0,
2060.0,2101.0,11.0,-12.0,
2095.0,2078.0,11.0,-12.0,
2072.0,2057.0,11.0,-12.0,
2068.0,2083.0,11.0,-12.0,
2080.0,2100.0,11.0,-12.0,
2097.0,2099.0,11.0,-12.0,
2101.0,2095.0,12.0,-12.0,
2050.0,2092.0,12.0,-12.0,
2045.0,2100.0,12.0,-12.0,
2044.0,2100.0,12.0,-12.0,
2089.0,2090.0,12.0,-12.0,
2088.0,2089.0,12.0,-12.0,
2060.0,2101.0,12.0,-12.0,
2074.0,2108.0,12.0,-12.0,
2105.0,2104.0,12.0,-12.0,
2092.0,2099.0,12.0,-12.0,
2056.0,2074.0,12.0,-12.0,
2038.0,2081.0,12.0,-12.0,
2044.0,2082.0,12.0,-12.0,
2081.0,2089.0,12.0,-12.0,
2060.0,2091.0,12.0,-12.0,
2057.0,2099.0,12.0,-12.0,
2061.0,2094.0,12.0,-12.0,
2081.0,2100.0,12.0,-12.0,
2095.0,2098.0,12.0,-12.0,
2046.0,2085.0,12.0,-12.0,
2056.0,2085.0,12.0,-12.0,
2054.0,2079.0,13.0,-12.0,
2090.0,2098.0,13.0,-12.0,
2075.0,2088.0,13.0,-12.0,
2063.0,2088.0,13.0,-12.0,
2061.0,2084.0,13.0,-12.0,
2095.0,2089.0,13.0,-12.0,
2101.0,2100.0,13.0,-12.0,
2067.0,2090.0,13.0,-12.0,
2042.0,2084.0,13.0,-12.0,
2061.0,2076.0,13.0,-12.0,
2083.0,2089.0,13.0,-12.0,
2081.0,2086.0,13.0,-12.0,
2060.0,2086.0,13.0,-12.0,
2076.0,2093.0,13.0,-12.0,
2097.0,2109.0,13.0,-12.0,
2088.0,2098.0,13.0,-12.0,
2051.0,2087.0,13.0,-12.0,
2050.0,2089.0,13.0,-12.0,
2050.0,2076.0,13.0,-12.0,
2082.0,2091.0,12.0,-12.0,
2080.0,2085.0,12.0,-12.0,
2057.0,2094.0,12.0,-12.0,
2072.0,2091.0,12.0,-12.0,
2088.0,2096.0,12.0,-12.0,
2102.0,2083.0,12.0,-12.0,
2057.0,2093.0,12.0,-12.0,
2042.0,2092.0,12.0,-12.0,
2048.0,2088.0,12.0,-12.0,
2074.0,2072.0,12.0,-12.0,
2085.0,2081.0,12.0,-12.0,
2051.0,2093.0,12.0,-12.0,
2072.0,2096.0,12.0,-12.0,
2083.0,2103.0,12.0,-12.0,
2098.0,2100.0,12.0,-12.0,
2055.0,2085.0,12.0,-12.0,
2051.0,2083.0,12.0,-12.0,
2054.0,2085.0,12.0,-12.0,
2082.0,2090.0,12.0,-12.0,
2082.0,2086.0,12.0,-12.0,
2074.0,2088.0,12.0,-12.0,
2083.0,2104.0,12.0,-12.0,
2086.0,2095.0,12.0,-12.0,
2097.0,2100.0,12.0,-12.0,
2052.0,2092.0,12.0,-12.0,
2055.0,2083.0,12.0,-12.0,
2058.0,2087.0,12.0,-12.0,
2087.0,2078.0,12.0,-12.0,
2075.0,2104.0,12.0,-12.0,
2065.0,2107.0,12.0,-12.0,
2057.0,2108.0,12.0,-12.0,
2080.0,2095.0,12.0,-12.0,
2062.0,2089.0,12.0,-12.0,
2052.0,2097.0,12.0,-12.0,
2053.0,2101.0,12.0,-12.0,
2050.0,2094.0,12.0,-12.0,
2062.0,2071.0,12.0,-12.0,
2078.0,2092.0,12.0,-12.0,
2060.0,2084.0,12.0,-12.0,
2067.0,2094.0,12.0,-12.0,
2078.0,2097.0,12.0,-12.0,
2095.0,2089.0,12.0,-12.0,
2053.0,2085.0,12.0,-12.0,
2051.0,2084.0,0,
2059.0,2079.0,12.0,-12.0,
2091.0,2091.0,12.0,-12.0,
2092.0,2076.0,12.0,-12.0,
2081.0,2087.0,13.0,-12.0,
2079.0,2091.0,13.0,-12.0,
2094.0,2094.0,13.0,-12.0,
2114.0,2089.0,13.0,-12.0,
2072.0,2083.0,13.0,-12.0,
2058.0,2087.0,13.0,-12.0,
2063.0,2086.0,13.0,-12.0,
2083.0,2092.0,13.0,-12.0,
2085.0,2086.0,13.0,-12.0,
2070.0,2082.0,13.0,-12.0,
2080.0,2079.0,13.0,-12.0,
2086.0,2096.0,13.0,-12.0,
2107.0,2094.0,13.0,-12.0,
2075.0,2090.0,13.0,-12.0,
2057.0,2084.0,13.0,-12.0,
2052.0,2085.0,13.0,-12.0,
2082.0,2087.0,13.0,-12.0,
2087.0,2091.0,13.0,-12.0,
2064.0,2092.0,13.0,-12.0,
2075.0,2117.0,13.0,-12.0,
2094.0,2108.0,13.0,-12.0,
2100.0,2100.0,13.0,-12.0,
2054.0,2092.0,13.0,-12.0,
2047.0,2081.0,13.0,-12.0,
2044.0,2085.0,13.0,-12.0,
2069.0,2109.0,13.0,-12.0,
2077.0,2094.0,13.0,-12.0,
2060.0,2082.0,13.0,-12.0,
2067.0,2085.0,13.0,-12.0,
2076.0,2099.0,13.0,-12.0,
2096.0,2099.0,13.0,-12.0,
2058.0,2093.0,13.0,-12.0,
2047.0,2090.0,13.0,-12.0,
2052.0,2076.0,13.0,-12.0,
2068.0,2082.0,13.0,-12.0,
2084.0,2087.0,13.0,-12.0,
2058.0,2096.0,13.0,-12.0,
2067.0,2095.0,13.0,-12.0,
2084.0,2094.0,13.0,-12.0,
2110.0,2095.0,13.0,-12.0,
2075.0,2088.0,13.0,-12.0,
2057.0,2070.0,13.0,-12.0,
2052.0,2075.0,13.0,-12.0,
2076.0,2081.0,13.0,-12.0,
2088.0,2085.0,13.0,-12.0,
2065.0,2088.0,13.0,-12.0,
2075.0,2096.0,13.0,-12.0,
2073.0,2098.0,13.0,-12.0,
2093.0,2100.0,13.0,-12.0,
2056.0,2094.0,13.0,-12.0,
2049.0,2087.0,13.0,-12.0,
2058.0,2090.0,13.0,-12.0,
2089.0,2097.0,13.0,-12.0,
2109.0,2089.0,13.0,-12.0,
2065.0,2092.0,13.0,-12.0,
2073.0,2094.0,13.0,-12.0,
2095.0,2094.0,13.0,-12.0,
2108.0,2099.0,13.0,-12.0,
2073.0,2091.0,13.0,-12.0,
2043.0,2082.0,13.0,-12.0,
2053.0,2077.0,13.0,-12.0,
2075.0,2079.0,13.0,-12.0,
2099.0,2087.0,13.0,-12.0,
2063.0,2094.0,13.0,-12.0,
2069.0,2089.0,13.0,-12.0,
2080.0,2098.0,13.0,-12.0,
2098.0,2094.0,13.0,-12.0,
2058.0,2081.0,13.0,-12.0,
2040.0,2087.0,13.0,-12.0,
2042.0,2084.0,13.0,-12.0,
2077.0,2083.0,13.0,-12.0,
2092.0,2086.0,13.0,-12.0,
2069.0,2099.0,13.0,-12.0,
2069.0,2105.0,13.0,-12.0,
2077.0,2093.0,13.0,-12.0,
2099.0,2088.0,13.0,-12.0,
2064.0,2086.0,13.0,-12.0,
2041.0,2082.0,13.0,-12.0,
2045.0,2080.0,13.0,-12.0,
2062.0,2085.0,13.0,-12.0,
2089.0,2082.0,13.0,-12.0,
2050.0,2086.0,13.0,-12.0,
2065.0,2084.0,13.0,-12.0,
2081.0,2098.0,13.0,-12.0,
2091.0,2096.0,13.0,-12.0,
2061.0,2096.0,13.0,-12.0,
2041.0,2086.0,13.0,-12.0,
2048.0,2085.0,13.0,-12.0,
2067.0,2087.0,13.0,-12.0,
2088.0,2093.0,13.0,-12.0,
2052.0,2085.0,13.0,-12.0,
2056.0,2089.0,13.0,-12.0,
2080.0,2094.0,13.0,-12.0,
2102.0,2104.0,13.0,-12.0,
2070.0,2089.0,13.0,-12.0,
2057.0,2088.0,13.0,-12.0,
2045.0,2080.0,13.0,-12.0,
2062.0,2098.0,13.0,-12.0,
2091.0,2088.0,13.0,-12.0,
2067.0,2091.0,13.0,-12.0,
2066.0,2093.0,13.0,-12.0,
2079.0,2094.0,13.0,-12.0,
2104.0,2099.0,13.0,-12.0,
2079.0,2092.0,13.0,-12.0,
2052.0,2090.0,13.0,-12.0,
2056.0,2096.0,13.0,-12.0,
2071.0,2092.0,13.0,-12.0,
2092.0,2095.0,13.0,-12.0,
2058.0,2075.0,13.0,-12.0,
2062.0,2080.0,13.0,-12.0,
2078.0,2100.0,13.0,-12.0,
2104.0,2115.0,13.0,-12.0,
2095.0,2101.0,13.0,-12.0,
2053.0,2064.0,13.0,-12.0,
2052.0,2069.0,13.0,-12.0,
2064.0,2071.0,13.0,-12.0,
2093.0,2082.0,13.0,-12.0,
2058.0,2077.0,13.0,-12.0,
2073.0,2093.0,13.0,-12.0,
2092.0,2100.0,13.0,-12.0,
2115.0,2096.0,13.0,-12.0,
2073.0,2088.0,13.0,-12.0,
2047.0,2095.0,13.0,-12.0,
2051.0,2093.0,13.0,-12.0,
2074.0,2091.0,13.0,-12.0,
2091.0,2104.0,13.0,-12.0,
2064.0,2102.0,13.0,-12.0,
2069.0,2091.0,13.0,-12.0,
2077.0,2096.0,13.0,-12.0,
2101.0,2096.0,13.0,-12.0,
2068.0,2093.0,13.0,-12.0,
2038.0,2091.0,13.0,-12.0,
2047.0,2099.0,13.0,-12.0,
2068.0,2084.0,13.0,-12.0,
2096.0,2085.0,13.0,-12.0,
2071.0,2080.0,13.0,-12.0,
2062.0,2087.0,13.0,-12.0,
2081.0,2096.0,13.0,-12.0,
2100.0,2098.0,13.0,-12.0,
2070.0,2103.0,13.0,-12.0,
2037.0,2082.0,13.0,-12.0,
2043.0,2096.0,13.0,-12.0,
2058.0,2096.0,13.0,-12.0,
2087.0,2089.0,13.0,-12.0,
2056.0,2089.0,13.0,-12.0,
2061.0,2089.0,13.0,-12.0,
2078.0,2109.0,13.0,-12.0,
2092.0,2099.0,13.0,-12.0,
2076.0,2087.0,13.0,-12.0,
2053.0,2084.0,13.0,-12.0,
2052.0,2084.0,13.0,-12.0,
2068.0,2080.0,13.0,-12.0,
2091.0,2085.0,13.0,-12.0,
2058.0,2088.0,13.0,-12.0,
2053.0,2097.0,13.0,-12.0,
2072.0,2101.0,13.0,-12.0,
2091.0,2097.0,13.0,-12.0,
2067.0,2090.0,13.0,-12.0,
2046.0,2082.0,13.0,-12.0,
2049.0,2087.0,13.0,-12.0,
2066.0,2084.0,13.0,-12.0,
2092.0,2086.0,13.0,-12.0,
2066.0,2087.0,13.0,-12.0,
2060.0,2096.0,13.0,-12.0,
2077.0,2121.0,13.0,-12.0,
2093.0,2099.0,13.0,-12.0,
2075.0,2105.0,13.0,-12.0,
2049.0,2086.0,13.0,-12.0,
2044.0,2082.0,13.0,-12.0,
2062.0,2080.0,13.0,-12.0,
2090.0,2092.0,13.0,-12.0,
2067.0,2087.0,13.0,-12.0,
2068.0,2090.0,13.0,-12.0,
2053.0,2089.0,13.0,-12.0,
2068.0,2098.0,13.0,-12.0,
2075.0,2085.0,13.0,-12.0,
2050.0,2083.0,13.0,-12.0,
2049.0,2083.0,13.0,-12.0,
2072.0,2086.0,13.0,-12.0,
2102.0,2099.0,13.0,-12.0,
2068.0,2095.0,13.0,-12.0,
2068.0,2093.0,13.0,-12.0,
2080.0,2093.0,13.0,-12.0,
2103.0,2097.0,13.0,-12.0,
2079.0,2093.0,13.0,-12.0,
2048.0,2092.0,13.0,-12.0,
2040.0,2090.0,13.0,-12.0,
2054.0,2076.0,13.0,-12.0,
2089.0,2081.0,13.0,-12.0,
2076.0,2086.0,13.0,-12.0,
2077.0,2103.0,13.0,-12.0,
2083.0,2106.0,13.0,-12.0,
2106.0,2100.0,13.0,-12.0,
2084.0,2054.0,13.0,-12.0,
2076.0,2069.0,13.0,-12.0,
2050.0,2085.0,13.0,-12.0,
2067.0,2083.0,13.0,-12.0,
2090.0,2088.0,13.0,-12.0,
2066.0,2088.0,13.0,-12.0,
2075.0,2095.0,13.0,-12.0,
2079.0,2095.0,13.0,-12.0,
2098.0,2093.0,13.0,-12.0,
2073.0,2094.0,13.0,-12.0,
2048.0,2093.0,13.0,-12.0,
2061.0,2089.0,13.0,-12.0,
2057.0,2095.0,13.0,-12.0,
2088.0,2105.0,13.0,-12.0,
2058.0,2092.0,13.0,-12.0,
2065.0,2099.0,13.0,-12.0,
2079.0,2108.0,13.0,-12.0,
2099.0,2103.0,13.0,-12.0,
2086.0,2093.0,13.0,-12.0,
2054.0,2088.0,13.0,-12.0,
2058.0,2082.0,13.0,-12.0,
2066.0,2082.0,13.0,-12.0,
2089.0,2097.0,13.0,-12.0,
2060.0,2086.0,13.0,-12.0,
2076.0,2104.0,13.0,-12.0,
2081.0,2099.0,13.0,-12.0,
2092.0,2111.0,13.0,-12.0,
2069.0,2088.0,13.0,-12.0,
2048.0,2086.0,13.0,-12.0,
2043.0,2082.0,13.0,-12.0,
2061.0,2086.0,13.0,-12.0,
2084.0,2085.0,13.0,-12.0,
2065.0,2093.0,13.0,-12.0,
2061.0,2091.0,13.0,-12.0,
2076.0,2094.0,13.0,-12.0,
2105.0,2095.0,13.0,-12.0,
2080.0,2081.0,13.0,-12.0,
2048.0,2085.0,13.0,-12.0,
2043.0,2087.0,13.0,-12.0,
2069.0,2084.0,13.0,-12.0,
2091.0,2082.0,13.0,-12.0,
2073.0,2079.0,13.0,-12.0,
2070.0,2074.0,13.0,-12.0,
2103.0,2077.0,13.0,-12.0,
2104.0,2092.0,13.0,-12.0,
2087.0,2083.0,13.0,-12.0,
2044.0,2081.0,13.0,-12.0,
2047.0,2086.0,13.0,-12.0,
2049.0,2081.0,13.0,-12.0,
2085.0,2093.0,13.0,-12.0,
2063.0,2093.0,13.0,-12.0,
2049.0,2097.0,13.0,-12.0,
2072.0,2099.0,13.0,-12.0,
2083.0,2095.0,13.0,-12.0,
2086.0,2094.0,13.0,-12.0,
2036.0,2090.0,13.0,-12.0,
2036.0,2091.0,13.0,-12.0,
2057.0,2092.0,13.0,-12.0,
2081.0,2098.0,13.0,-12.0,
2064.0,2098.0,13.0,-12.0,
2060.0,2094.0,13.0,-12.0,
2086.0,2095.0,13.0,-12.0,
2099.0,2095.0,13.0,-12.0,
2085.0,2095.0,13.0,-12.0,
2045.0,2095.0,13.0,-12.0,
2058.0,2094.0,13.0,-12.0,
2060.0,2088.0,13.0,-12.0,
2096.0,2089.0,13.0,-12.0,
2064.0,2084.0,13.0,-12.0,
2069.0,2090.0,13.0,-12.0,
2085.0,2092.0,13.0,-12.0,
2094.0,2091.0,13.0,-12.0,
2091.0,2089.0,13.0,-12.0,
2047.0,2074.0,13.0,-12.0,
2046.0,2079.0,13.0,-12.0,
2052.0,2090.0,13.0,-12.0,
2091.0,2093.0,13.0,-12.0,
2058.0,2089.0,13.0,-12.0,
2062.0,2100.0,13.0,-12.0,
2079.0,2110.0,13.0,-12.0,
2100.0,2094.0,13.0,-12.0,
2087.0,2090.0,13.0,-12.0,
2046.0,2081.0,13.0,-12.0,
2045.0,2078.0,13.0,-12.0,
2053.0,2084.0,13.0,-12.0,
2084.0,2089.0,13.0,-12.0,
2064.0,2093.0,13.0,-12.0,
2062.0,2095.0,13.0,-12.0,
2076.0,2091.0,13.0,-12.0,
2092.0,2105.0,13.0,-12.0,
2092.0,2097.0,13.0,-12.0,
2054.0,2092.0,13.0,-12.0,
2056.0,2095.0,13.0,-12.0,
2068.0,2090.0,13.0,-12.0,
2092.0,2089.0,13.0,-12.0,
2073.0,2092.0,13.0,-12.0,
2064.0,2088.0,13.0,-12.0,
2081.0,2092.0,13.0,-12.0,
2096.0,2102.0,13.0,-12.0,
2094.0,2134.0,13.0,-12.0,
2052.0,2081.0,13.0,-12.0,
2056.0,2081.0,13.0,-12.0,
2055.0,2082.0,13.0,-12.0,
2100.0,2089.0,13.0,-12.0,
2069.0,2094.0,13.0,-12.0,
2060.0,2086.0,13.0,-12.0,
2073.0,2070.0,13.0,-12.0,
2088.0,2086.0,13.0,-12.0,
2079.0,2089.0,13.0,-12.0,
2043.0,2078.0,13.0,-12.0,
2047.0,2085.0,13.0,-12.0,
2053.0,2088.0,13.0,-12.0,
2107.0,2099.0,13.0,-12.0,
2075.0,2090.0,13.0,-12.0,
2067.0,2089.0,13.0,-12.0,
2071.0,2091.0,13.0,-12.0,
2102.0,2099.0,13.0,-12.0,
2096.0,2091.0,13.0,-12.0,
2051.0,2084.0,13.0,-12.0,
2052.0,2083.0,13.0,-12.0,
2054.0,2077.0,13.0,-12.0,
2094.0,2086.0,13.0,-12.0,
2070.0,2090.0,13.0,-12.0,
2066.0,2083.0,13.0,-12.0,
2078.0,2080.0,13.0,-12.0,
2100.0,2095.0,13.0,-12.0,
2105.0,2090.0,13.0,-12.0,
2048.0,2084.0,13.0,-12.0,
2048.0,2076.0,13.0,-12.0,
2054.0,2078.0,13.0,-12.0,
2097.0,2092.0,13.0,-12.0,
2074.0,2095.0,13.0,-12.0,
2068.0,2102.0,13.0,-12.0,
2082.0,2095.0,13.0,-12.0,
2101.0,2095.0,13.0,-12.0,
2100.0,2092.0,13.0,-12.0,
2052.0,2083.0,13.0,-12.0,
2058.0,2092.0,13.0,-12.0,
2051.0,2097.0,13.0,-12.0,
2090.0,2099.0,13.0,-12.0,
2064.0,2097.0,13.0,-12.0,
2061.0,2097.0,13.0,-12.0,
2069.0,2097.0,13.0,-12.0,
2089.0,2099.0,13.0,-12.0,
2094.0,2096.0,13.0,-12.0,
2050.0,2089.0,13.0,-12.0,
2061.0,2085.0,13.0,-12.0,
2040.0,2080.0,13.0,-12.0,
2094.0,2087.0,13.0,-12.0,
2063.0,2083.0,13.0,-12.0,
2058.0,2089.0,13.0,-12.0,
2064.0,2094.0,13.0,-12.0,
2086.0,2092.0,13.0,-12.0,
2086.0,2097.0,13.0,-12.0,
2052.0,2082.0,13.0,-12.0,
2046.0,2080.0,13.0,-12.0,
2051.0,2078.0,13.0,-12.0,
2089.0,2089.0,13.0,-12.0,
2069.0,2085.0,13.0,-12.0,
2065.0,2096.0,13.0,-12.0,
2127.0,2091.0,13.0,-12.0,
2089.0,2099.0,13.0,-12.0,
2086.0,2092.0,13.0,-12.0,
2046.0,2091.0,13.0,-12.0,
2050.0,2085.0,13.0,-12.0,
2040.0,2084.0,13.0,-12.0,
2093.0,2093.0,13.0,-12.0,
2077.0,2083.0,13.0,-12.0,
2064.0,2159.0,13.0,-12.0,
2078.0,2098.0,13.0,-12.0,
2099.0,2096.0,13.0,-12.0,
2088.0,2108.0,13.0,-12.0,
2053.0,2106.0,13.0,-12.0,
2074.0,2090.0,13.0,-12.0,
2058.0,2059.0,13.0,-12.0,
2099.0,2057.0,13.0,-12.0,
2073.0,2076.0,13.0,-12.0,
2066.0,2081.0,13.0,-12.0,
2075.0,2095.0,13.0,-12.0,
2069.0,2100.0,13.0,-12.0,
2083.0,2095.0,13.0,-12.0,
2050.0,2092.0,13.0,-12.0,
2048.0,2090.0,13.0,-12.0,
2061.0,2078.0,13.0,-12.0,
2090.0,2091.0,13.0,-12.0,
2066.0,2086.0,13.0,-12.0,
2069.0,2099.0,13.0,-12.0,
2072.0,2091.0,13.0,-12.0,
2090.0,2098.0,13.0,-12.0,
2083.0,2101.0,13.0,-12.0,
2057.0,2075.0,13.0,-12.0,
2056.0,2095.0,13.0,-12.0,
2047.0,2109.0,13.0,-12.0,
2089.0,2099.0,13.0,-12.0,
2076.0,2103.0,13.0,-12.0,
2062.0,2095.0,13.0,-12.0,
2072.0,2098.0,13.0,-12.0,
2091.0,2100.0,13.0,-12.0,
2101.0,2098.0,13.0,-12.0,
2054.0,2035.0,13.0,-12.0,
2047.0,2076.0,13.0,-12.0,
2055.0,2070.0,13.0,-12.0,
2093.0,2097.0,13.0,-12.0,
2070.0,2087.0,13.0,-12.0,
2061.0,2081.0,13.0,-12.0,
2078.0,2082.0,13.0,-12.0,
2098.0,2071.0,13.0,-12.0,
2097.0,2079.0,13.0,-12.0,
2070.0,2097.0,13.0,-12.0,
2051.0,2089.0,13.0,-12.0,
2068.0,2064.0,13.0,-12.0,
2086.0,2095.0,13.0,-12.0,
2078.0,2080.0,13.0,-12.0,
2054.0,2099.0,13.0,-12.0,
2065.0,2119.0,13.0,-12.0,
2086.0,2078.0,13.0,-12.0,
2086.0,2102.0,13.0,-12.0,
2048.0,2077.0,13.0,-12.0,
2062.0,2103.0,13.0,-12.0,
2059.0,2089.0,13.0,-12.0,
2085.0,2085.0,13.0,-12.0,
2061.0,2070.0,13.0,-12.0,
2048.0,2059.0,13.0,-12.0,
2070.0,2042.0,13.0,-12.0,
2077.0,2079.0,13.0,-12.0,
2090.0,2104.0,13.0,-12.0,
2069.0,2096.0,13.0,-12.0,
2047.0,2094.0,13.0,-12.0,
2049.0,2134.0,13.0,-12.0,
2095.0,2126.0,13.0,-12.0,
2085.0,2122.0,13.0,-12.0,
2067.0,2097.0,13.0,-12.0,
2072.0,2103.0,13.0,-12.0,
2090.0,2109.0,13.0,-12.0,
2098.0,2112.0,13.0,-12.0,
2058.0,2082.0,13.0,-12.0,
2054.0,2077.0,13.0,-12.0,
2054.0,2064.0,13.0,-12.0,
2076.0,2061.0,13.0,-12.0,
2063.0,2057.0,13.0,-12.0,
2055.0,2052.0,13.0,-12.0,
2030.0,2054.0,13.0,-12.0,
2075.0,2075.0,13.0,-12.0,
2072.0,2099.0,13.0,-12.0,
2051.0,2106.0,14.0,-12.0,
2068.0,2137.0,14.0,-12.0,
2097.0,2113.0,14.0,-12.0,
2116.0,2102.0,14.0,-12.0,
2089.0,1998.0,14.0,-12.0,
2058.0,2083.0,14.0,-12.0,
2087.0,2095.0,14.0,-12.0,
2109.0,2098.0,14.0,-12.0,
2090.0,2124.0,14.0,-12.0,
2058.0,2121.0,14.0,-12.0,
2059.0,2133.0,14.0,-12.0,
2056.0,2129.0,14.0,-12.0,
2082.0,2129.0,14.0,-12.0,
2091.0,1997.0,14.0,-12.0,
2015.0,2043.0,14.0,-12.0,
2066.0,2056.0,14.0,-12.0,
2064.0,2055.0,14.0,-12.0,
2066.0,2111.0,14.0,-12.0,
2067.0,2147.0,14.0,-12.0,
2067.0,2099.0,14.0,-12.0,
2081.0,2095.0,14.0,-12.0,
2101.0,2103.0,13.0,-12.0,
2037.0,2124.0,13.0,-12.0,
2063.0,2074.0,13.0,-12.0,
2058.0,2048.0,13.0,-12.0,
2091.0,2103.0,13.0,-12.0,
2092.0,2134.0,13.0,-12.0,
2046.0,2066.0,13.0,-12.0,
2050.0,2124.0,13.0,-12.0,
2055.0,2130.0,12.0,-12.0,
2109.0,2073.0,12.0,-12.0,
2089.0,2071.0,12.0,-12.0,
2068.0,2073.0,12.0,-12.0,
2066.0,2071.0,12.0,-12.0,
2086.0,2069.0,12.0,-12.0,
2102.0,2063.0,12.0,-12.0,
2041.0,2048.0,12.0,-12.0,
2045.0,2043.0,12.0,-12.0,
2031.0,2048.0,12.0,-12.0,
2063.0,2095.0,12.0,-12.0,
2070.0,2116.0,12.0,-12.0,
2051.0,2062.0,12.0,-12.0,
2053.0,2122.0,13.0,-12.0,
2087.0,2150.0,13.0,-12.0,
2112.0,2159.0,13.0,-12.0,
2067.0,2118.0,13.0,-12.0,
2058.0,2066.0,13.0,-12.0,
2055.0,2074.0,13.0,-12.0,
2078.0,2050.0,14.0,-12.0,
2067.0,2040.0,14.0,-12.0,
2056.0,2055.0,14.0,-12.0,
2061.0,2033.0,14.0,-12.0,
2050.0,2102.0,14.0,-12.0,
2080.0,2089.0,15.0,-12.0,
2042.0,2184.0,15.0,-12.0,
2023.0,2135.0,15.0,-12.0,
2033.0,2090.0,15.0,-12.0,
2090.0,2090.0,15.0,-12.0,
2104.0,2169.0,15.0,-12.0,
2059.0,2109.0,16.0,-12.0,
2086.0,2047.0,16.0,-12.0,
2075.0,2012.0,16.0,-12.0,
2067.0,2046.0,16.0,-12.0,
2034.0,2012.0,16.0,-12.0,
1991.0,2077.0,16.0,-12.0,
2036.0,2173.0,16.0,-12.0,
2088.0,2249.0,16.0,-12.0,
2083.0,2201.0,16.0,-12.0,
2091.0,2119.0,16.0,-12.0,
2080.0,2046.0,16.0,-12.0,
2088.0,2030.0,15.0,-12.0,
2062.0,2057.0,15.0,-12.0,
2045.0,2071.0,15.0,-12.0,
2046.0,2029.0,15.0,-12.0,
2032.0,2071.0,15.0,-12.0,
2091.0,2148.0,14.0,-12.0,
2116.0,2274.0,14.0,-12.0,
2055.0,2078.0,14.0,-12.0,
2062.0,1921.0,14.0,-12.0,
2068.0,1971.0,14.0,-11.0,
2088.0,2100.0,14.0,-11.0,
2050.0,2033.0,14.0,-11.0,
2034.0,2166.0,13.0,-11.0,
2045.0,2221.0,13.0,-11.0,
2106.0,2138.0,13.0,-11.0,
2125.0,2039.0,14.0,-11.0,
2073.0,2044.0,14.0,-11.0,
2060.0,2158.0,14.0,-11.0,
2094.0,2111.0,14.0,-11.0,
2108.0,2068.0,14.0,-11.0,
2077.0,2083.0,15.0,-11.0,
2049.0,2052.0,15.0,-11.0,
2047.0,2031.0,16.0,-11.0,
2100.0,2079.0,16.0,-11.0,
2074.0,2103.0,16.0,-11.0,
2059.0,2109.0,17.0,-11.0,
2076.0,2110.0,17.0,-11.0,
2081.0,2106.0,17.0,-11.0,
2091.0,2080.0,17.0,-11.0,
2049.0,2101.0,18.0,-11.0,
2036.0,2053.0,18.0,-11.0,
2041.0,2037.0,18.0,-11.0,
2056.0,1933.0,18.0,-11.0,
2070.0,2036.0,18.0,-11.0,
2038.0,2131.0,18.0,-11.0,
2037.0,2141.0,19.0,-11.0,
2058.0,2106.0,19.0,-11.0,
2085.0,2124.0,19.0,-11.0,
2052.0,2119.0,19.0,-11.0,
2021.0,2139.0,19.0,-11.0,
2040.0,2088.0,19.0,-11.0,
2075.0,2089.0,19.0,-11.0,
2086.0,2068.0,19.0,-11.0,
2079.0,2079.0,19.0,-11.0,
2070.0,2085.0,19.0,-11.0,
2107.0,2118.0,19.0,-11.0,
2101.0,2088.0,20.0,-11.0,
2068.0,2022.0,20.0,-11.0,
2047.0,2012.0,20.0,-11.0,
2047.0,2073.0,21.0,-11.0,
2052.0,2179.0,21.0,-11.0,
2080.0,2108.0,21.0,-10.0,
2083.0,2057.0,22.0,-10.0,
2088.0,2179.0,22.0,-10.0,
2111.0,2260.0,22.0,-10.0,
2117.0,2123.0,23.0,-10.0,
2070.0,2033.0,23.0,-10.0,
2033.0,1955.0,23.0,-10.0,
2040.0,2052.0,23.0,-10.0,
2063.0,2192.0,24.0,-10.0,
2058.0,2117.0,24.0,-10.0,
2069.0,2127.0,24.0,-10.0,
2063.0,2149.0,24.0,-10.0,
2078.0,2053.0,24.0,-10.0,
2096.0,2125.0,24.0,-10.0,
2049.0,2103.0,24.0,-10.0,
2040.0,2046.0,23.0,-10.0,
2069.0,2051.0,23.0,-10.0,
2070.0,2040.0,22.0,-10.0,
2069.0,1995.0,21.0,-10.0,
2057.0,1987.0,21.0,-10.0,
2052.0,1989.0,21.0,-9.0,
2060.0,2087.0,0,
2101.0,2155.0,20.0,-9.0,
2048.0,2156.0,20.0,-9.0,
2048.0,2132.0,20.0,-9.0,
2026.0,2070.0,20.0,-9.0,
2054.0,2129.0,20.0,-9.0,
2077.0,2146.0,20.0,-9.0,
2081.0,2141.0,20.0,-9.0,
2090.0,2073.0,20.0,-9.0,
2122.0,2080.0,20.0,-9.0,
2092.0,2041.0,21.0,-9.0,
2052.0,2079.0,21.0,-9.0,
2059.0,2061.0,21.0,-9.0,
2050.0,2004.0,22.0,-9.0,
2093.0,2109.0,22.0,-9.0,
2092.0,2125.0,23.0,-9.0,
2042.0,2027.0,24.0,-9.0,
2040.0,2017.0,24.0,-9.0,
2065.0,2128.0,25.0,-9.0,
2102.0,2099.0,26.0,-9.0,
2102.0,2091.0,26.0,-9.0,
2057.0,2134.0,27.0,-9.0,
2047.0,2015.0,27.0,-9.0,
2098.0,2093.0,28.0,-9.0,
2059.0,2108.0,28.0,-9.0,
2079.0,2151.0,29.0,-9.0,
2083.0,2167.0,29.0,-9.0,
2110.0,2086.0,29.0,-9.0,
2079.0,2025.0,30.0,-9.0,
2047.0,2167.0,30.0,-9.0,
2038.0,2123.0,30.0,-9.0,
2058.0,2091.0,30.0,-9.0,
2092.0,2037.0,30.0,-9.0,
2058.0,2058.0,30.0,-9.0,
2054.0,2075.0,30.0,-9.0,
2082.0,2071.0,30.0,-9.0,
2094.0,2053.0,30.0,-9.0,
2065.0,2011.0,30.0,-9.0,
2049.0,2136.0,30.0,-9.0,
2024.0,2095.0,30.0,-9.0,
2061.0,2145.0,30.0,-9.0,
2095.0,2141.0,30.0,-9.0,
2067.0,2170.0,30.0,-9.0,
2062.0,1960.0,30.0,-9.0,
2088.0,2006.0,30.0,-9.0,
2093.0,2141.0,30.0,-9.0,
2046.0,2144.0,30.0,-9.0,
2078.0,2092.0,30.0,-8.0,
2082.0,2052.0,30.0,-8.0,
2080.0,2082.0,29.0,-8.0,
2076.0,2191.0,29.0,-8.0,
2063.0,2177.0,29.0,-8.0,
2075.0,2107.0,29.0,-8.0,
2099.0,2142.0,29.0,-8.0,
2088.0,2058.0,29.0,-8.0,
2030.0,1949.0,30.0,-8.0,
2028.0,2018.0,30.0,-8.0,
2068.0,2019.0,30.0,-8.0,
2076.0,2120.0,30.0,-8.0,
2061.0,2119.0,30.0,-8.0,
2062.0,2189.0,30.0,-8.0,
2099.0,2114.0,30.0,-8.0,
2111.0,2105.0,30.0,-8.0,
2057.0,2005.0,30.0,-8.0,
2047.0,1989.0,31.0,-8.0,
2045.0,2089.0,31.0,-8.0,
2077.0,2109.0,31.0,-8.0,
2092.0,2129.0,32.0,-8.0,
2060.0,2025.0,32.0,-8.0,
2052.0,2038.0,32.0,-8.0,
2074.0,2090.0,32.0,-8.0,
2101.0,2062.0,33.0,-8.0,
2051.0,2081.0,33.0,-8.0,
2052.0,2072.0,33.0,-8.0,
2098.0,2190.0,33.0,-8.0,
2081.0,2159.0,33.0,-8.0,
2088.0,2098.0,34.0,-8.0,
2074.0,2040.0,34.0,-8.0,
2045.0,2011.0,34.0,-8.0,
2081.0,2051.0,34.0,-8.0,
2082.0,2103.0,34.0,-8.0,
2071.0,2095.0,34.0,-8.0,
2091.0,2139.0,35.0,-8.0,
2076.0,2091.0,35.0,-8.0,
2107.0,2085.0,35.0,-8.0,
2055.0,2019.0,35.0,-8.0,
2061.0,2118.0,36.0,-8.0,
2087.0,2154.0,36.0,-8.0,
2081.0,2229.0,36.0,-8.0,
2059.0,2143.0,36.0,-8.0,
2037.0,2127.0,36.0,-8.0,
2063.0,2103.0,36.0,-8.0,
2065.0,2100.0,35.0,-8.0,
2080.0,2086.0,35.0,-8.0,
2026.0,2019.0,35.0,-8.0,
2043.0,1975.0,34.0,-8.0,
2087.0,2054.0,34.0,-8.0,
2112.0,2061.0,34.0,-7.0,
2057.0,2007.0,34.0,-7.0,
2044.0,1978.0,33.0,-7.0,
2049.0,2230.0,33.0,-7.0,
2082.0,2211.0,33.0,-7.0,
2111.0,2161.0,34.0,-7.0,
2059.0,2152.0,34.0,-7.0,
2061.0,2104.0,34.0,-7.0,
2088.0,2029.0,34.0,-7.0,
2093.0,2022.0,34.0,-7.0,
2041.0,2096.0,34.0,-7.0,
2054.0,2102.0,35.0,-7.0,
2067.0,2113.0,35.0,-7.0,
2098.0,1997.0,35.0,-7.0,
2064.0,2069.0,35.0,-7.0,
2049.0,2018.0,35.0,-7.0,
2063.0,2105.0,36.0,-7.0,
2097.0,2161.0,36.0,-7.0,
2115.0,2084.0,36.0,-7.0,
2049.0,2022.0,37.0,-7.0,
2033.0,1968.0,37.0,-7.0,
2043.0,2067.0,38.0,-7.0,
2109.0,2182.0,38.0,-7.0,
2076.0,2181.0,38.0,-7.0,
2066.0,2171.0,39.0,-7.0,
2093.0,2148.0,39.0,-7.0,
2101.0,2123.0,39.0,-7.0,
2084.0,2017.0,40.0,-7.0,
2048.0,2075.0,40.0,-7.0,
2038.0,1988.0,40.0,-7.0,
2062.0,2155.0,40.0,-7.0,
2080.0,2034.0,41.0,-7.0,
2063.0,2117.0,41.0,-7.0,
2062.0,2050.0,41.0,-7.0,
2076.0,2058.0,41.0,-7.0,
2096.0,2113.0,41.0,-7.0,
2060.0,2205.0,41.0,-7.0,
2053.0,2140.0,42.0,-7.0,
2071.0,2177.0,42.0,-7.0,
2078.0,2100.0,42.0,-7.0,
2093.0,2042.0,42.0,-7.0,
2080.0,2113.0,42.0,-7.0,
2073.0,2111.0,41.0,-7.0,
2103.0,2074.0,41.0,-7.0,
2117.0,2073.0,41.0,-7.0,
2049.0,2064.0,41.0,-7.0,
2051.0,1985.0,41.0,-7.0,
2065.0,2046.0,41.0,-7.0,
2082.0,2101.0,42.0,-7.0,
2067.0,2081.0,42.0,-7.0,
2054.0,2051.0,42.0,-7.0,
2060.0,2061.0,42.0,-7.0,
2103.0,2096.0,42.0,-7.0,
2073.0,2081.0,0,
2035.0,2112.0,42.0,-7.0,
2060.0,2127.0,43.0,-7.0,
2071.0,2150.0,44.0,-6.0,
2071.0,2046.0,44.0,-6.0,
2061.0,2105.0,45.0,-6.0,
2084.0,2017.0,45.0,-6.0,
2089.0,2116.0,45.0,-6.0,
2095.0,2191.0,45.0,-6.0,
2090.0,2127.0,46.0,-6.0,
2063.0,2078.0,45.0,-6.0,
2043.0,2142.0,45.0,-6.0,
2057.0,2132.0,45.0,-6.0,
2078.0,2044.0,45.0,-6.0,
2041.0,2022.0,45.0,-6.0,
2067.0,2052.0,45.0,-6.0,
2102.0,2025.0,45.0,-6.0,
2066.0,2008.0,46.0,-6.0,
2071.0,2050.0,46.0,-6.0,
2072.0,2137.0,46.0,-6.0,
2022.0,2124.0,47.0,-6.0,
2074.0,2012.0,47.0,-6.0,
2089.0,2125.0,47.0,-6.0,
2061.0,2147.0,46.0,-6.0,
2061.0,2183.0,46.0,-6.0,
2111.0,2130.0,46.0,-7.0,
2113.0,2004.0,46.0,-7.0,
2044.0,2274.0,46.0,-7.0,
2074.0,2057.0,46.0,-7.0,
2064.0,2040.0,46.0,-7.0,
2052.0,2175.0,46.0,-7.0,
2064.0,2136.0,46.0,-7.0,
2094.0,2097.0,46.0,-7.0,
2071.0,2009.0,46.0,-7.0,
2065.0,1988.0,46.0,-7.0,
2093.0,2105.0,46.0,-7.0,
2034.0,2048.0,46.0,-7.0,
2035.0,2125.0,46.0,-7.0,
2096.0,2093.0,46.0,-7.0,
2085.0,2081.0,46.0,-7.0,
2081.0,2086.0,46.0,-7.0,
2088.0,2079.0,47.0,-7.0,
2105.0,2070.0,47.0,-7.0,
2116.0,2092.0,47.0,-7.0,
2099.0,2033.0,47.0,-7.0,
2032.0,2004.0,47.0,-7.0,
2037.0,2082.0,47.0,-7.0,
2077.0,2048.0,48.0,-7.0,
2101.0,2065.0,48.0,-7.0,
2071.0,1992.0,48.0,-7.0,
2069.0,2118.0,48.0,-7.0,
2088.0,2206.0,49.0,-7.0,
2084.0,2120.0,49.0,-7.0,
2076.0,2065.0,49.0,-7.0,
2040.0,2060.0,49.0,-7.0,
2035.0,2125.0,49.0,-7.0,
2074.0,2109.0,50.0,-7.0,
2069.0,1991.0,50.0,-7.0,
2043.0,2088.0,50.0,-7.0,
2024.0,2123.0,50.0,-7.0,
2093.0,2139.0,50.0,-7.0,
2072.0,2124.0,50.0,-7.0,
2053.0,2124.0,50.0,-7.0,
2041.0,2038.0,50.0,-7.0,
2092.0,2024.0,50.0,-7.0,
2109.0,2115.0,50.0,-7.0,
2066.0,2237.0,50.0,-7.0,
2056.0,2166.0,50.0,-7.0,
2075.0,2147.0,50.0,-7.0,
2090.0,2043.0,50.0,-7.0,
2083.0,2111.0,50.0,-7.0,
2023.0,2038.0,50.0,-7.0,
2045.0,2152.0,50.0,-7.0,
2077.0,2107.0,50.0,-7.0,
2108.0,2114.0,50.0,-7.0,
2094.0,1900.0,50.0,-7.0,
2093.0,2040.0,51.0,-7.0,
2046.0,2088.0,51.0,-7.0,
2079.0,2179.0,51.0,-7.0,
2048.0,2123.0,51.0,-7.0,
1986.0,2149.0,51.0,-7.0,
2066.0,2089.0,52.0,-7.0,
2104.0,2085.0,52.0,-7.0,
2111.0,2088.0,52.0,-7.0,
2042.0,2032.0,52.0,-7.0,
2058.0,2031.0,52.0,-7.0,
2085.0,2123.0,52.0,-7.0,
2115.0,2060.0,52.0,-7.0,
2055.0,2041.0,52.0,-7.0,
2035.0,2017.0,52.0,-7.0,
2053.0,2132.0,52.0,-7.0,
2114.0,2108.0,53.0,-7.0,
2089.0,2113.0,53.0,-7.0,
2077.0,1997.0,53.0,-7.0,
2083.0,2042.0,54.0,-7.0,
2102.0,2149.0,54.0,-7.0,
2115.0,2045.0,54.0,-7.0,
2070.0,2086.0,54.0,-7.0,
2056.0,2169.0,54.0,-7.0,
2061.0,2140.0,55.0,-7.0,
2092.0,2022.0,55.0,-7.0,
2050.0,2105.0,55.0,-7.0,
2046.0,2215.0,55.0,-7.0,
2088.0,2096.0,55.0,-7.0,
2102.0,2054.0,55.0,-8.0,
2032.0,2044.0,55.0,-8.0,
2072.0,2135.0,55.0,-8.0,
2070.0,2093.0,55.0,-8.0,
2075.0,1998.0,55.0,-7.0,
2093.0,2132.0,55.0,-7.0,
2036.0,2052.0,55.0,-7.0,
2064.0,2049.0,56.0,-7.0,
2080.0,2109.0,56.0,-7.0,
2098.0,2029.0,56.0,-7.0,
2059.0,2051.0,56.0,-7.0,
2049.0,2140.0,56.0,-7.0,
2073.0,2155.0,56.0,-7.0,
2075.0,2094.0,56.0,-7.0,
2079.0,2054.0,56.0,-7.0,
2063.0,2064.0,56.0,-7.0,
2056.0,2180.0,56.0,-7.0,
2087.0,2103.0,56.0,-7.0,
2109.0,2031.0,57.0,-7.0,
2035.0,2093.0,57.0,-7.0,
2072.0,2105.0,57.0,-7.0,
2144.0,2089.0,57.0,-7.0,
2104.0,2055.0,57.0,-7.0,
2062.0,2106.0,57.0,-7.0,
2077.0,2116.0,57.0,-7.0,
2105.0,2084.0,58.0,-7.0,
2087.0,2135.0,58.0,-7.0,
2070.0,2050.0,58.0,-7.0,
2049.0,1997.0,58.0,-7.0,
2047.0,2095.0,58.0,-7.0,
2048.0,2021.0,58.0,-7.0,
2106.0,2139.0,58.0,-7.0,
2066.0,2174.0,59.0,-7.0,
2060.0,2098.0,59.0,-7.0,
2086.0,2097.0,59.0,-7.0,
2091.0,2101.0,59.0,-7.0,
2051.0,2080.0,59.0,-8.0,
2035.0,2085.0,59.0,-8.0,
2061.0,2040.0,59.0,-8.0,
2099.0,1925.0,59.0,-8.0,
2099.0,2128.0,59.0,-8.0,
2026.0,2142.0,59.0,-8.0,
2057.0,2045.0,59.0,-8.0,
2098.0,2219.0,59.0,-8.0,
2129.0,2218.0,60.0,-8.0,
2065.0,2036.0,60.0,-8.0,
2052.0,2100.0,60.0,-8.0,
2080.0,2023.0,60.0,-8.0,
2114.0,2164.0,60.0,-7.0,
2062.0,2142.0,60.0,-8.0,
2068.0,2008.0,60.0,-8.0,
2101.0,2106.0,60.0,-8.0,
2104.0,2024.0,60.0,-8.0,
2065.0,2204.0,61.0,-7.0,
2047.0,2103.0,61.0,-7.0,
2042.0,2063.0,61.0,-7.0,
2036.0,1983.0,61.0,-8.0,
2090.0,2156.0,61.0,-8.0,
2089.0,2094.0,61.0,-8.0,
2061.0,2138.0,61.0,-8.0,
2059.0,2034.0,61.0,-8.0,
2069.0,1948.0,61.0,-8.0,
2044.0,2092.0,62.0,-8.0,
2032.0,2158.0,62.0,-8.0,
2040.0,2101.0,62.0,-8.0,
2115.0,2104.0,62.0,-8.0,
2097.0,2099.0,62.0,-8.0,
2079.0,2113.0,62.0,-8.0,
2072.0,2075.0,62.0,-8.0,
2067.0,2004.0,63.0,-8.0,
2070.0,2083.0,63.0,-8.0,
2056.0,2072.0,63.0,-8.0,
2042.0,2086.0,63.0,-8.0,
2051.0,2235.0,63.0,-8.0,
2097.0,2122.0,63.0,-8.0,
2058.0,2218.0,63.0,-8.0,
2058.0,2141.0,64.0,-8.0,
2086.0,2022.0,64.0,-8.0,
2093.0,2123.0,64.0,-8.0,
2112.0,2093.0,64.0,-8.0,
2076.0,2020.0,64.0,-8.0,
2037.0,2144.0,64.0,-8.0,
2066.0,2053.0,64.0,-8.0,
2077.0,2005.0,64.0,-8.0,
2027.0,1856.0,64.0,-8.0,
2080.0,2315.0,64.0,-8.0,
2097.0,2140.0,64.0,-8.0,
2100.0,2092.0,65.0,-8.0,
2072.0,2051.0,65.0,-8.0,
2037.0,2032.0,65.0,-8.0,
2061.0,1950.0,65.0,-8.0,
2041.0,2074.0,65.0,-8.0,
2110.0,2184.0,65.0,-8.0,
2085.0,2129.0,65.0,-8.0,
2104.0,2112.0,66.0,-8.0,
2092.0,2188.0,66.0,-8.0,
2110.0,2122.0,66.0,-8.0,
2047.0,2112.0,66.0,-8.0,
2044.0,2032.0,66.0,-8.0,
2071.0,1995.0,66.0,-8.0,
2073.0,2243.0,66.0,-8.0,
2074.0,2048.0,66.0,-8.0,
2049.0,2140.0,66.0,-8.0,
2100.0,2038.0,66.0,-8.0,
2113.0,1991.0,67.0,-8.0,
2079.0,1987.0,67.0,-8.0,
2049.0,2190.0,67.0,-8.0,
2068.0,2207.0,67.0,-8.0,
2097.0,2140.0,67.0,-8.0,
2094.0,2048.0,67.0,-8.0,
2079.0,1873.0,67.0,-8.0,
2040.0,2242.0,67.0,-8.0,
2060.0,2059.0,68.0,-8.0,
2102.0,2098.0,68.0,-8.0,
2082.0,2072.0,68.0,-8.0,
2034.0,2128.0,68.0,-8.0,
2046.0,2145.0,68.0,-8.0,
2071.0,2036.0,68.0,-8.0,
2095.0,2128.0,68.0,-8.0,
2052.0,2056.0,68.0,-8.0,
2045.0,2024.0,68.0,-8.0,
2014.0,2100.0,69.0,-8.0,
2087.0,2157.0,69.0,-8.0,
2071.0,2028.0,69.0,-8.0,
2028.0,2112.0,69.0,-8.0,
2042.0,2105.0,69.0,-8.0,
2076.0,2165.0,69.0,-8.0,
2117.0,2074.0,69.0,-8.0,
2068.0,2120.0,69.0,-8.0,
2066.0,2061.0,69.0,-8.0,
2135.0,2183.0,69.0,-8.0,
2111.0,2197.0,69.0,-8.0,
2080.0,2082.0,70.0,-8.0,
2128.0,2042.0,70.0,-8.0,
2080.0,2115.0,70.0,-8.0,
2116.0,1944.0,70.0,-9.0,
2082.0,2165.0,70.0,-9.0,
2077.0,2092.0,70.0,-8.0,
2079.0,1977.0,70.0,-8.0,
2091.0,2121.0,70.0,-8.0,
2110.0,2088.0,70.0,-8.0,
2070.0,2076.0,70.0,-8.0,
2067.0,2149.0,70.0,-8.0,
2052.0,2099.0,71.0,-8.0,
2091.0,2089.0,71.0,-8.0,
2081.0,2114.0,71.0,-8.0,
2048.0,2100.0,71.0,-8.0,
2075.0,2010.0,71.0,-8.0,
2090.0,2163.0,71.0,-8.0,
2086.0,2020.0,71.0,-8.0,
2050.0,2233.0,71.0,-8.0,
2032.0,2100.0,71.0,-8.0,
2071.0,2152.0,71.0,-8.0,
2113.0,2092.0,71.0,-8.0,
2052.0,2026.0,71.0,-9.0,
2068.0,2113.0,71.0,-9.0,
2072.0,1990.0,71.0,-9.0,
2115.0,2128.0,71.0,-9.0,
2045.0,2157.0,71.0,-9.0,
2030.0,2070.0,0,
2053.0,2066.0,71.0,-8.0,
2026.0,2061.0,71.0,-8.0,
2111.0,2179.0,71.0,-8.0,
2028.0,1955.0,72.0,-8.0,
2037.0,2199.0,72.0,-8.0,
2092.0,2022.0,72.0,-8.0,
2109.0,2166.0,72.0,-8.0,
2048.0,2062.0,72.0,-8.0,
2038.0,1977.0,72.0,-8.0,
2068.0,2043.0,72.0,-8.0,
2037.0,2027.0,72.0,-9.0,
2096.0,2091.0,72.0,-9.0,
2081.0,2125.0,72.0,-9.0,
2084.0,2103.0,72.0,-9.0,
2103.0,2139.0,73.0,-9.0,
2071.0,1931.0,73.0,-9.0,
2022.0,2072.0,73.0,-9.0,
2072.0,2159.0,73.0,-9.0,
2048.0,2022.0,73.0,-9.0,
2079.0,2018.0,73.0,-9.0,
2086.0,2169.0,73.0,-9.0,
2075.0,2187.0,73.0,-9.0,
2098.0,2067.0,73.0,-9.0,
2100.0,2243.0,73.0,-8.0,
2087.0,2078.0,73.0,-8.0,
2041.0,2061.0,73.0,-8.0,
2077.0,2090.0,73.0,-9.0,
2036.0,2100.0,74.0,-9.0,
2078.0,2089.0,74.0,-9.0,
2033.0,2063.0,74.0,-9.0,
2063.0,2158.0,74.0,-9.0,
2123.0,2048.0,74.0,-9.0,
2116.0,2096.0,0,
2065.0,2121.0,74.0,-9.0,
2051.0,2081.0,74.0,-9.0,
2055.0,2079.0,74.0,-9.0,
2083.0,2095.0,74.0,-9.0,
2084.0,2077.0,74.0,-9.0,
2065.0,2014.0,75.0,-9.0,
2076.0,1955.0,75.0,-9.0,
2028.0,2187.0,75.0,-9.0,
2064.0,2051.0,75.0,-9.0,
2082.0,2197.0,75.0,-9.0,
2046.0,2082.0,75.0,-9.0,
2077.0,2055.0,75.0,-9.0,
2084.0,2084.0,75.0,-9.0,
2092.0,2042.0,75.0,-8.0,
2088.0,2156.0,75.0,-8.0,
2063.0,2100.0,75.0,-8.0,
2066.0,2136.0,75.0,-8.0,
2117.0,2136.0,75.0,-8.0,
2028.0,2143.0,75.0,-8.0,
2046.0,2043.0,75.0,-8.0,
2003.0,1908.0,75.0,-8.0,
2112.0,2051.0,75.0,-8.0,
2116.0,2174.0,75.0,-9.0,
2104.0,2117.0,75.0,-9.0,
2076.0,2227.0,76.0,-9.0,
2073.0,2094.0,76.0,-9.0,
2107.0,2025.0,76.0,-9.0,
2070.0,2169.0,76.0,-9.0,
2025.0,2041.0,76.0,-9.0,
2083.0,1986.0,76.0,-9.0,
2099.0,2217.0,76.0,-9.0,
2098.0,2121.0,76.0,-9.0,
2074.0,2132.0,76.0,-9.0,
2058.0,2046.0,76.0,-9.0,
2072.0,2164.0,76.0,-9.0,
2047.0,2104.0,76.0,-8.0,
2037.0,2098.0,76.0,-9.0,
2058.0,2121.0,76.0,-9.0,
2055.0,1972.0,77.0,-9.0,
2110.0,2085.0,77.0,-8.0,
2081.0,1980.0,77.0,-8.0,
2056.0,2126.0,77.0,-9.0,
2086.0,2180.0,77.0,-9.0,
2156.0,2034.0,77.0,-9.0,
2076.0,2125.0,78.0,-9.0,
2051.0,2184.0,78.0,-9.0,
2051.0,2086.0,78.0,-9.0,
2083.0,2120.0,78.0,-9.0,
2077.0,2083.0,78.0,-9.0,
2057.0,2178.0,78.0,-9.0,
2056.0,2093.0,78.0,-9.0,
2082.0,1965.0,78.0,-9.0,
2074.0,2072.0,78.0,-9.0,
2039.0,2099.0,78.0,-9.0,
2056.0,2062.0,78.0,-9.0,
1996.0,2129.0,78.0,-10.0,
2087.0,2017.0,78.0,-10.0,
2136.0,2084.0,78.0,-9.0,
2095.0,2230.0,78.0,-9.0,
2061.0,2130.0,78.0,-9.0,
2074.0,2041.0,78.0,-9.0,
2078.0,2154.0,78.0,-9.0,
2061.0,1988.0,79.0,-9.0,
2034.0,1979.0,79.0,-9.0,
2021.0,2080.0,79.0,-9.0,
2109.0,2062.0,79.0,-8.0,
2084.0,2215.0,79.0,-8.0,
2095.0,2079.0,79.0,-8.0,
2114.0,1996.0,79.0,-9.0,
2082.0,1896.0,79.0,-9.0,
2107.0,2239.0,80.0,-9.0,
2064.0,2092.0,80.0,-9.0,
2006.0,1986.0,80.0,-9.0,
2069.0,2119.0,80.0,-9.0,
2144.0,2308.0,80.0,-9.0,
2066.0,2086.0,80.0,-9.0,
2060.0,2122.0,80.0,-9.0,
2073.0,2082.0,80.0,-9.0,
2089.0,2122.0,80.0,-9.0,
2084.0,2025.0,80.0,-9.0,
2039.0,1802.0,80.0,-9.0,
2066.0,1995.0,80.0,-9.0,
2066.0,2237.0,80.0,-9.0,
2086.0,2145.0,80.0,-10.0,
2080.0,2214.0,80.0,-10.0,
2067.0,2060.0,80.0,-10.0,
2073.0,2008.0,80.0,-9.0,
2095.0,1985.0,80.0,-9.0,
2020.0,2205.0,81.0,-9.0,
1989.0,2070.0,81.0,-9.0,
2030.0,2069.0,81.0,-9.0,
2119.0,1983.0,81.0,-9.0,
2079.0,2142.0,81.0,-9.0,
2030.0,2018.0,81.0,-8.0,
2053.0,2305.0,81.0,-7.0,
2102.0,2228.0,82.0,-8.0,
2075.0,2098.0,82.0,-9.0,
2061.0,2101.0,82.0,-9.0,
2080.0,2120.0,82.0,-9.0,
2053.0,2017.0,82.0,-9.0,
2065.0,2123.0,82.0,-9.0,
2068.0,2109.0,82.0,-9.0,
2069.0,1989.0,82.0,-9.0,
2047.0,2136.0,82.0,-9.0,
2126.0,2108.0,82.0,-9.0,
2093.0,2039.0,82.0,-9.0,
2061.0,1989.0,83.0,-9.0,
2032.0,1974.0,83.0,-9.0,
2085.0,2127.0,83.0,-9.0,
2107.0,2111.0,83.0,-9.0,
2106.0,1897.0,83.0,-9.0,
2057.0,2394.0,83.0,-9.0,
2079.0,2145.0,83.0,-9.0,
2080.0,2198.0,83.0,-9.0,
2013.0,2019.0,83.0,-9.0,
2060.0,2161.0,83.0,-9.0,
2062.0,1974.0,83.0,-10.0,
2073.0,1952.0,83.0,-10.0,
2120.0,2199.0,83.0,-9.0,
2034.0,2166.0,83.0,-9.0,
2057.0,2146.0,83.0,-9.0,
2104.0,2136.0,83.0,-9.0,
2100.0,2141.0,83.0,-9.0,
2035.0,1997.0,83.0,-9.0,
2006.0,1967.0,83.0,-9.0,
2046.0,2199.0,84.0,-9.0,
2118.0,2148.0,84.0,-8.0,
2164.0,2037.0,84.0,-8.0,
2058.0,2098.0,84.0,-9.0,
2039.0,2118.0,84.0,-9.0,
2086.0,2013.0,84.0,-9.0,
2108.0,2091.0,84.0,-9.0,
2038.0,1764.0,84.0,-9.0,
2032.0,2332.0,84.0,-9.0,
2018.0,2372.0,84.0,-9.0,
2094.0,2169.0,84.0,-9.0,
2089.0,2199.0,84.0,-9.0,
2060.0,1945.0,84.0,-9.0,
2080.0,1893.0,84.0,-9.0,
2071.0,2050.0,84.0,-9.0,
2098.0,1945.0,84.0,-9.0,
2060.0,2241.0,84.0,-9.0,
2049.0,2249.0,84.0,-9.0,
2055.0,2180.0,84.0,-9.0,
2072.0,1962.0,84.0,-10.0,
2029.0,2257.0,84.0,-10.0,
2092.0,2015.0,84.0,-9.0,
2104.0,2083.0,84.0,-9.0,
2136.0,2157.0,85.0,-8.0,
2065.0,2100.0,85.0,-8.0,
2053.0,2079.0,85.0,-8.0,
2022.0,1752.0,85.0,-8.0,
2024.0,1996.0,85.0,-8.0,
2095.0,2049.0,85.0,-8.0,
2062.0,2314.0,85.0,-8.0,
2089.0,2358.0,86.0,-7.0,
2095.0,2188.0,86.0,-8.0,
2095.0,2100.0,86.0,-9.0,
2080.0,2138.0,86.0,-9.0,
2018.0,1745.0,86.0,-9.0,
2066.0,2241.0,86.0,-9.0,
2008.0,1973.0,86.0,-9.0,
2098.0,2046.0,86.0,-9.0,
2121.0,2334.0,86.0,-9.0,
2071.0,2280.0,86.0,-9.0,
2073.0,2047.0,85.0,-9.0,
2089.0,1895.0,85.0,-9.0,
2037.0,2193.0,85.0,-9.0,
2039.0,2138.0,85.0,-9.0,
2024.0,1875.0,85.0,-9.0,
2109.0,2214.0,85.0,-9.0,
2083.0,1923.0,85.0,-9.0,
2045.0,2218.0,85.0,-9.0,
2147.0,2231.0,85.0,-9.0,
2081.0,2147.0,85.0,-9.0,
2116.0,2157.0,85.0,-9.0,
2077.0,2086.0,85.0,-9.0,
2073.0,2029.0,85.0,-9.0,
2039.0,1755.0,85.0,-9.0,
2076.0,1945.0,85.0,-9.0,
2020.0,2295.0,85.0,-9.0,
2122.0,2187.0,85.0,-9.0,
2103.0,2222.0,85.0,-9.0,
2115.0,2169.0,85.0,-9.0,
2107.0,2017.0,85.0,-9.0,
2045.0,2027.0,85.0,-9.0,
1986.0,2084.0,85.0,-9.0,
2074.0,1986.0,85.0,-9.0,
2096.0,2040.0,85.0,-9.0,
2117.0,1959.0,86.0,-9.0,
2041.0,2052.0,85.0,-9.0,
2057.0,2002.0,86.0,-9.0,
2145.0,2298.0,86.0,-9.0,
2070.0,1920.0,86.0,-9.0,
2038.0,2389.0,86.0,-9.0,
2064.0,2094.0,86.0,-9.0,
2050.0,2178.0,0,
2086.0,2085.0,86.0,-9.0,
2088.0,2201.0,87.0,-9.0,
2064.0,2149.0,87.0,-9.0,
2057.0,1977.0,87.0,-9.0,
2097.0,2010.0,87.0,-9.0,
2109.0,2177.0,87.0,-9.0,
2038.0,1904.0,87.0,-9.0,
2090.0,2217.0,87.0,-9.0,
2081.0,2178.0,87.0,-9.0,
2062.0,2014.0,87.0,-9.0,
1995.0,2102.0,87.0,-9.0,
2053.0,2170.0,87.0,-9.0,
2081.0,1808.0,87.0,-9.0,
2129.0,2358.0,87.0,-8.0,
2064.0,2234.0,87.0,-8.0,
2091.0,2235.0,87.0,-9.0,
2081.0,1995.0,87.0,-9.0,
2069.0,2106.0,87.0,-9.0,
2072.0,1948.0,87.0,-9.0,
1989.0,1864.0,87.0,-9.0,
2073.0,2118.0,87.0,-8.0,
2101.0,2291.0,87.0,-8.0,
2135.0,2120.0,87.0,-9.0,
2098.0,2015.0,87.0,-9.0,
2011.0,1980.0,87.0,-9.0,
2069.0,1908.0,87.0,-9.0,
2064.0,2456.0,87.0,-9.0,
2086.0,2180.0,87.0,-9.0,
2064.0,2102.0,87.0,-9.0,
2048.0,1920.0,87.0,-9.0,
2041.0,1878.0,87.0,-9.0,
2043.0,2287.0,87.0,-9.0,
2076.0,2118.0,87.0,-9.0,
2089.0,2207.0,87.0,-9.0,
2093.0,2198.0,87.0,-9.0,
2111.0,2180.0,87.0,-9.0,
2079.0,1986.0,87.0,-9.0,
2030.0,1881.0,87.0,-9.0,
2099.0,2062.0,87.0,-9.0,
2121.0,2201.0,87.0,-9.0,
2050.0,1868.0,87.0,-9.0,
2063.0,2152.0,87.0,-9.0,
2048.0,2221.0,87.0,-9.0,
2071.0,2128.0,87.0,-9.0,
2071.0,2108.0,87.0,-9.0,
2057.0,2011.0,87.0,-9.0,
2070.0,2161.0,87.0,-9.0,
2083.0,2108.0,87.0,-9.0,
2072.0,1752.0,87.0,-9.0,
2087.0,2293.0,87.0,-9.0,
2088.0,2236.0,87.0,-9.0,
2062.0,2108.0,87.0,-9.0,
2000.0,1882.0,86.0,-9.0,
2127.0,1980.0,86.0,-9.0,
2079.0,1998.0,87.0,-9.0,
2068.0,2164.0,87.0,-9.0,
1980.0,2059.0,87.0,-9.0,
2130.0,2298.0,87.0,-9.0,
2100.0,2210.0,87.0,-9.0,
2044.0,2119.0,87.0,-9.0,
2064.0,1942.0,87.0,-9.0,
2097.0,2194.0,87.0,-9.0,
2110.0,2105.0,87.0,-9.0,
2098.0,1994.0,87.0,-9.0,
2027.0,2234.0,88.0,-9.0,
2089.0,2070.0,88.0,-9.0,
2112.0,1890.0,88.0,-9.0,
2017.0,2005.0,88.0,-9.0,
2013.0,1925.0,88.0,-9.0,
2024.0,2150.0,88.0,-9.0,
2130.0,2267.0,88.0,-9.0,
2106.0,2216.0,88.0,-9.0,
2086.0,2123.0,88.0,-9.0,
2097.0,2156.0,88.0,-9.0,
2071.0,1968.0,88.0,-9.0,
2052.0,2023.0,88.0,-9.0,
2020.0,1864.0,0,
2055.0,2027.0,88.0,-9.0,
2044.0,1851.0,88.0,-9.0,
2126.0,1974.0,88.0,-9.0,
2099.0,2192.0,88.0,-9.0,
2026.0,2409.0,88.0,-9.0,
2077.0,2325.0,88.0,-9.0,
2134.0,2123.0,88.0,-11.0,
2072.0,2151.0,88.0,-10.0,
2047.0,1987.0,88.0,-9.0,
2063.0,1935.0,88.0,-9.0,
2022.0,2268.0,88.0,-9.0,
2047.0,2156.0,88.0,-9.0,
2091.0,1981.0,88.0,-9.0,
2094.0,2211.0,88.0,-9.0,
2058.0,2041.0,88.0,-9.0,
2106.0,2158.0,88.0,-9.0,
2080.0,1948.0,88.0,-7.0,
2082.0,1794.0,88.0,-7.0,
1978.0,2026.0,88.0,-9.0,
2053.0,2123.0,88.0,-9.0,
2074.0,2125.0,88.0,-9.0,
2095.0,2280.0,0,
2116.0,2152.0,88.0,-9.0,
2115.0,2111.0,88.0,-9.0,
2096.0,2158.0,88.0,-9.0,
2042.0,1923.0,88.0,-9.0,
2065.0,2156.0,88.0,-9.0,
2030.0,1963.0,88.0,-9.0,
2097.0,2203.0,88.0,-9.0,
2104.0,2215.0,88.0,-9.0,
2101.0,2182.0,88.0,-9.0,
2067.0,1946.0,88.0,-9.0,
2051.0,2039.0,88.0,-9.0,
2113.0,2139.0,88.0,-9.0,
2065.0,1961.0,88.0,-9.0,
2020.0,2111.0,89.0,-9.0,
2049.0,2179.0,89.0,-9.0,
2093.0,2059.0,89.0,-9.0,
2076.0,2118.0,89.0,-9.0,
2130.0,1935.0,89.0,-9.0,
2049.0,2291.0,89.0,-9.0,
2062.0,1947.0,89.0,-9.0,
2104.0,2307.0,89.0,-9.0,
2116.0,2102.0,89.0,-9.0,
2041.0,2108.0,89.0,-9.0,
2059.0,2096.0,89.0,-9.0,
2160.0,2265.0,89.0,-9.0,
2086.0,1933.0,89.0,-9.0,
1986.0,2117.0,89.0,-9.0,
2082.0,2062.0,90.0,-9.0,
2082.0,1942.0,90.0,-8.0,
2065.0,2143.0,90.0,-8.0,
1988.0,2177.0,90.0,-8.0,
2103.0,2176.0,90.0,-9.0,
2112.0,2185.0,90.0,-9.0,
2124.0,2142.0,89.0,-8.0,
2097.0,2084.0,89.0,-8.0,
2067.0,1443.0,89.0,-9.0,
2080.0,2322.0,89.0,-9.0,
2059.0,2322.0,89.0,-9.0,
2060.0,2088.0,89.0,-9.0,
2026.0,2084.0,89.0,-9.0,
2072.0,2054.0,89.0,-9.0,
2060.0,1980.0,89.0,-9.0,
2076.0,2291.0,89.0,-9.0,
2062.0,2036.0,89.0,-9.0,
2050.0,1967.0,89.0,-9.0,
2039.0,2276.0,89.0,-9.0,
2132.0,2240.0,89.0,-9.0,
2069.0,2083.0,89.0,-9.0,
2041.0,2109.0,89.0,-9.0,
2059.0,2052.0,89.0,-9.0,
2088.0,2000.0,89.0,-9.0,
2017.0,1968.0,89.0,-9.0,
2051.0,1864.0,89.0,-9.0,
2095.0,2090.0,89.0,-9.0,
2167.0,1967.0,89.0,-9.0,
2033.0,2324.0,89.0,-9.0,
2082.0,2123.0,89.0,-9.0,
2077.0,1865.0,89.0,-9.0,
2010.0,2044.0,89.0,-9.0,
2122.0,2121.0,89.0,-9.0,
2041.0,2206.0,89.0,-9.0,
2058.0,2204.0,89.0,-9.0,
2103.0,2148.0,89.0,-9.0,
2093.0,2070.0,89.0,-9.0,
2107.0,2163.0,90.0,-9.0,
2054.0,1998.0,89.0,-9.0,
1952.0,2035.0,89.0,-9.0,
2106.0,1942.0,89.0,-9.0,
2165.0,2124.0,89.0,-9.0,
2105.0,2154.0,89.0,-9.0,
2005.0,1902.0,89.0,-9.0,
2127.0,2059.0,89.0,-9.0,
2144.0,2210.0,89.0,-9.0,
2080.0,2176.0,89.0,-9.0,
2060.0,1989.0,89.0,-9.0,
2027.0,1786.0,89.0,-9.0,
2069.0,2220.0,89.0,-9.0,
2071.0,2036.0,89.0,-9.0,
2095.0,2302.0,89.0,-9.0,
2097.0,2179.0,89.0,-9.0,
2074.0,2031.0,89.0,-9.0,
2058.0,1837.0,89.0,-9.0,
2035.0,2113.0,89.0,-9.0,
2025.0,1725.0,89.0,-9.0,
2047.0,2089.0,89.0,-9.0,
2080.0,2557.0,90.0,-9.0,
2094.0,2232.0,90.0,-9.0,
2082.0,2171.0,90.0,-9.0,
2090.0,2109.0,90.0,-9.0,
2112.0,2095.0,90.0,-9.0,
2108.0,2071.0,90.0,-9.0,
2054.0,1742.0,90.0,-9.0,
2058.0,2120.0,90.0,-9.0,
2074.0,2048.0,90.0,-9.0,
2047.0,1966.0,90.0,-9.0,
2046.0,2311.0,90.0,-9.0,
2067.0,2106.0,90.0,-9.0,
2072.0,2049.0,90.0,-9.0,
2152.0,2178.0,90.0,-9.0,
2067.0,2110.0,90.0,-9.0,
2075.0,1900.0,90.0,-9.0,
1943.0,1778.0,90.0,-9.0,
2041.0,2391.0,90.0,-9.0,
2165.0,2370.0,90.0,-9.0,
2055.0,2229.0,90.0,-9.0,
2089.0,2166.0,90.0,-9.0,
2084.0,2064.0,90.0,-9.0,
2049.0,2031.0,90.0,-9.0,
2040.0,1992.0,90.0,-9.0,
2029.0,1877.0,90.0,-9.0,
2064.0,2011.0,90.0,-9.0,
2100.0,2209.0,90.0,-9.0,
2097.0,2189.0,90.0,-9.0,
2061.0,2155.0,90.0,-9.0,
2058.0,1953.0,90.0,-9.0,
2098.0,2209.0,90.0,-9.0,
2087.0,1981.0,90.0,-9.0,
1997.0,2114.0,90.0,-9.0,
2057.0,2104.0,90.0,-9.0,
2049.0,1988.0,90.0,-9.0,
2037.0,2069.0,90.0,-9.0,
2062.0,1965.0,90.0,-9.0,
2111.0,2070.0,90.0,-9.0,
2105.0,2230.0,90.0,-9.0,
2101.0,2198.0,90.0,-9.0,
2077.0,2109.0,90.0,-9.0,
2037.0,2100.0,90.0,-9.0,
2046.0,2074.0,90.0,-9.0,
2094.0,2042.0,90.0,-9.0,
2072.0,2040.0,90.0,-9.0,
2045.0,2074.0,90.0,-9.0,
2085.0,2133.0,90.0,-9.0,
2073.0,2071.0,90.0,-9.0,
2088.0,1983.0,90.0,-9.0,
2049.0,2112.0,90.0,-9.0,
2050.0,2166.0,90.0,-9.0,
2075.0,2022.0,90.0,-9.0,
2075.0,2185.0,90.0,-9.0,
2105.0,2050.0,90.0,-9.0,
2074.0,2019.0,90.0,-9.0,
2069.0,2187.0,90.0,-9.0,
2086.0,2033.0,90.0,-9.0,
2100.0,2135.0,90.0,-9.0,
2062.0,2001.0,90.0,-9.0,
2049.0,2115.0,90.0,-9.0,
2062.0,2124.0,90.0,-9.0,
2081.0,2066.0,90.0,-9.0,
2066.0,2039.0,90.0,-9.0,
2076.0,2089.0,90.0,-9.0,
2060.0,2167.0,90.0,-9.0,
2117.0,2111.0,90.0,-9.0,
2095.0,2121.0,90.0,-9.0,
2051.0,2036.0,90.0,-9.0,
2051.0,2069.0,90.0,-9.0,
2022.0,1959.0,90.0,-9.0,
2065.0,2123.0,90.0,-9.0,
2093.0,2057.0,90.0,-9.0,
2112.0,2194.0,90.0,-9.0,
2068.0,2036.0,90.0,-9.0,
2082.0,2227.0,90.0,-9.0,
2062.0,2154.0,90.0,-9.0,
2042.0,2079.0,90.0,-9.0,
2055.0,2118.0,90.0,-9.0,
2061.0,2022.0,90.0,-9.0,
2078.0,2104.0,90.0,-9.0,
2045.0,2075.0,90.0,-9.0,
2075.0,2118.0,90.0,-9.0,
2083.0,2118.0,90.0,-9.0,
2098.0,2119.0,90.0,-9.0,
2049.0,2052.0,89.0,-9.0,
2055.0,2065.0,89.0,-9.0,
2039.0,2058.0,89.0,-9.0,
2075.0,2052.0,89.0,-9.0,
2094.0,2131.0,89.0,-9.0,
2108.0,1979.0,89.0,-9.0,
2097.0,2081.0,89.0,-9.0,
2153.0,2137.0,89.0,-9.0,
2075.0,2110.0,89.0,-9.0,
2042.0,2057.0,89.0,-9.0,
2042.0,2010.0,89.0,-9.0,
2066.0,2081.0,89.0,-9.0,
2111.0,2142.0,89.0,-9.0,
2070.0,2011.0,89.0,-9.0,
2051.0,2076.0,89.0,-9.0,
2077.0,2148.0,89.0,-9.0,
2062.0,2144.0,89.0,-9.0,
2077.0,2047.0,89.0,-9.0,
2050.0,2148.0,89.0,-9.0,
2031.0,2034.0,89.0,-9.0,
2059.0,2118.0,89.0,-9.0,
2125.0,2087.0,88.0,-9.0,
2086.0,2087.0,88.0,-9.0,
2081.0,2051.0,88.0,-9.0,
2078.0,2096.0,88.0,-9.0,
2100.0,2123.0,88.0,-9.0,
2068.0,2116.0,88.0,-9.0,
2060.0,2135.0,88.0,-8.0,
2049.0,2038.0,88.0,-8.0,
2075.0,2043.0,88.0,-8.0,
2084.0,2081.0,87.0,-8.0,
2084.0,2130.0,87.0,-8.0,
2059.0,2038.0,87.0,-8.0,
2071.0,2070.0,87.0,-8.0,
2065.0,1996.0,87.0,-9.0,
2069.0,2149.0,87.0,-9.0,
2030.0,2051.0,87.0,-9.0,
1973.0,1869.0,87.0,-9.0,
2136.0,2394.0,87.0,-9.0,
2139.0,2138.0,87.0,-9.0,
2071.0,2068.0,87.0,-9.0,
2084.0,2112.0,87.0,-9.0,
2092.0,2174.0,87.0,-9.0,
2032.0,2083.0,87.0,-9.0,
2054.0,2047.0,87.0,-9.0,
2060.0,2114.0,87.0,-9.0,
2053.0,2078.0,87.0,-9.0,
2078.0,2016.0,87.0,-9.0,
2070.0,2099.0,87.0,-9.0,
2056.0,2084.0,86.0,-9.0,
2055.0,2089.0,86.0,-9.0,
2073.0,2071.0,86.0,-9.0,
2063.0,2056.0,86.0,-9.0,
2012.0,2121.0,86.0,-9.0,
2026.0,2044.0,85.0,-9.0,
2039.0,2043.0,85.0,-8.0,
2095.0,2088.0,85.0,-8.0,
2114.0,2080.0,85.0,-8.0,
2116.0,2113.0,85.0,-9.0,
2081.0,2146.0,85.0,-8.0,
2055.0,2099.0,85.0,-9.0,
2045.0,2091.0,84.0,-9.0,
2026.0,2076.0,84.0,-9.0,
2013.0,2030.0,84.0,-9.0,
2079.0,2024.0,84.0,-9.0,
2118.0,2067.0,84.0,-9.0,
2121.0,2100.0,84.0,-9.0,
2088.0,2048.0,84.0,-9.0,
2137.0,2130.0,84.0,-9.0,
2139.0,2199.0,84.0,-9.0,
2101.0,2056.0,84.0,-9.0,
2042.0,2102.0,84.0,-9.0,
2077.0,1992.0,84.0,-9.0,
2094.0,2080.0,84.0,-9.0,
2078.0,2179.0,84.0,-9.0,
2041.0,2075.0,84.0,-9.0,
2044.0,2056.0,84.0,-8.0,
2039.0,2110.0,84.0,-8.0,
2067.0,2126.0,84.0,-8.0,
2050.0,2107.0,83.0,-8.0,
2059.0,2064.0,83.0,-8.0,
2080.0,2084.0,83.0,-8.0,
2078.0,2067.0,83.0,-8.0,
2070.0,2097.0,83.0,-8.0,
2044.0,2070.0,82.0,-8.0,
2042.0,2041.0,82.0,-8.0,
2064.0,2086.0,82.0,-8.0,
2087.0,2118.0,82.0,-8.0,
2053.0,2062.0,82.0,-8.0,
2056.0,2092.0,82.0,-8.0,
2058.0,2118.0,81.0,-8.0,
2084.0,2051.0,81.0,-8.0,
2051.0,2080.0,81.0,-8.0,
2082.0,2116.0,81.0,-8.0,
2090.0,2101.0,81.0,-8.0,
2078.0,2095.0,81.0,-8.0,
2079.0,2112.0,81.0,-8.0,
2038.0,2018.0,81.0,-8.0,
2060.0,2109.0,81.0,-8.0,
2035.0,2035.0,81.0,-8.0,
2065.0,2157.0,81.0,-8.0,
2059.0,2078.0,81.0,-8.0,
2069.0,2109.0,81.0,-8.0,
2056.0,2085.0,81.0,-8.0,
2094.0,2059.0,80.0,-8.0,
2136.0,2137.0,80.0,-8.0,
2039.0,2054.0,80.0,-8.0,
2078.0,2078.0,80.0,-8.0,
2092.0,1996.0,80.0,-8.0,
2071.0,2083.0,79.0,-8.0,
2063.0,2109.0,79.0,-8.0,
2067.0,2125.0,79.0,-8.0,
2096.0,2132.0,79.0,-8.0,
2110.0,2039.0,79.0,-8.0,
2058.0,2034.0,78.0,-8.0,
2040.0,2081.0,78.0,-8.0,
2061.0,2056.0,78.0,-8.0,
2093.0,2092.0,78.0,-8.0,
2104.0,2033.0,77.0,-8.0,
2070.0,2084.0,77.0,-8.0,
2054.0,2100.0,77.0,-8.0,
2075.0,2101.0,76.0,-9.0,
2089.0,2138.0,76.0,-8.0,
2057.0,2077.0,76.0,-8.0,
2034.0,2068.0,76.0,-8.0,
2031.0,2094.0,75.0,-8.0,
2071.0,2135.0,75.0,-8.0,
2061.0,2091.0,75.0,-8.0,
2069.0,2116.0,75.0,-8.0,
2093.0,2067.0,75.0,-8.0,
2086.0,2088.0,75.0,-8.0,
2085.0,2125.0,74.0,-8.0,
2038.0,2135.0,74.0,-8.0,
2027.0,2037.0,74.0,-8.0,
2042.0,2074.0,74.0,-8.0,
2143.0,2091.0,74.0,-8.0,
2069.0,2121.0,74.0,-8.0,
2066.0,2054.0,74.0,-8.0,
2071.0,2064.0,74.0,-8.0,
2102.0,2099.0,74.0,-8.0,
2082.0,2087.0,74.0,-8.0,
2050.0,2135.0,74.0,-8.0,
2056.0,2075.0,74.0,-8.0,
2072.0,2166.0,74.0,-8.0,
2099.0,2084.0,74.0,-8.0,
2060.0,2037.0,73.0,-8.0,
2064.0,2052.0,73.0,-8.0,
2087.0,2112.0,73.0,-9.0,
2095.0,2053.0,73.0,-9.0,
2061.0,2107.0,73.0,-9.0,
2033.0,2095.0,73.0,-9.0,
2036.0,2041.0,73.0,-8.0,
2087.0,2117.0,72.0,-8.0,
2105.0,2153.0,72.0,-8.0,
2060.0,2061.0,72.0,-8.0,
2074.0,2111.0,72.0,-8.0,
2114.0,2156.0,71.0,-8.0,
2085.0,2135.0,71.0,-8.0,
2068.0,2060.0,71.0,-8.0,
2066.0,2072.0,70.0,-8.0,
2049.0,2031.0,70.0,-8.0,
2059.0,1999.0,69.0,-8.0,
2072.0,2097.0,69.0,-8.0,
2069.0,2019.0,68.0,-8.0,
2088.0,2189.0,68.0,-8.0,
2078.0,2069.0,67.0,-8.0,
2097.0,2114.0,67.0,-8.0,
2053.0,2080.0,67.0,-8.0,
2033.0,2073.0,66.0,-7.0,
2058.0,2044.0,66.0,-7.0,
2067.0,2197.0,66.0,-7.0,
2089.0,2114.0,65.0,-7.0,
2064.0,2101.0,65.0,-7.0,
2075.0,2071.0,65.0,-7.0,
2096.0,2079.0,65.0,-7.0,
2083.0,2047.0,65.0,-7.0,
2049.0,2053.0,65.0,-7.0,
2044.0,2061.0,64.0,-7.0,
2048.0,2057.0,64.0,-8.0,
2100.0,2050.0,64.0,-8.0,
2055.0,2059.0,64.0,-8.0,
2058.0,2124.0,64.0,-8.0,
2081.0,2142.0,64.0,-8.0,
2104.0,2086.0,64.0,-8.0,
2051.0,2021.0,63.0,-8.0,
2025.0,2052.0,63.0,-8.0,
2045.0,2115.0,63.0,-8.0,
2047.0,2073.0,63.0,-8.0,
2069.0,2078.0,63.0,-8.0,
2029.0,2061.0,63.0,-8.0,
2038.0,2101.0,63.0,-8.0,
2048.0,2094.0,63.0,-8.0,
2093.0,2125.0,63.0,-8.0,
2081.0,2199.0,63.0,-9.0,
2138.0,2137.0,63.0,-9.0,
2040.0,2156.0,63.0,-9.0,
2039.0,2003.0,63.0,-9.0,
2048.0,1968.0,63.0,-9.0,
2067.0,2093.0,63.0,-9.0,
2112.0,1999.0,63.0,-9.0,
2162.0,2072.0,63.0,-9.0,
2158.0,2102.0,63.0,-9.0,
2083.0,2027.0,64.0,-9.0,
2060.0,2172.0,63.0,-9.0,
2072.0,2080.0,63.0,-9.0,
2092.0,2025.0,63.0,-9.0,
2057.0,2058.0,63.0,-9.0,
2063.0,2049.0,63.0,-9.0,
2069.0,2015.0,63.0,-9.0,
2107.0,2184.0,62.0,-8.0,
2039.0,2187.0,62.0,-8.0,
2048.0,2144.0,62.0,-9.0,
2068.0,2111.0,61.0,-8.0,
2069.0,2028.0,61.0,-8.0,
2063.0,2204.0,60.0,-7.0,
2078.0,2246.0,60.0,-7.0,
2081.0,2142.0,59.0,-7.0,
2069.0,1989.0,59.0,-7.0,
2075.0,2105.0,58.0,-7.0,
2037.0,1900.0,57.0,-7.0,
2012.0,1997.0,56.0,-7.0,
2044.0,2113.0,56.0,-6.0,
2099.0,2152.0,55.0,-6.0,
2084.0,2067.0,54.0,-6.0,
2061.0,2082.0,53.0,-6.0,
2069.0,2066.0,52.0,-6.0,
2060.0,2112.0,51.0,-6.0,
2095.0,2137.0,51.0,-6.0,
2059.0,2157.0,51.0,-6.0,
2043.0,2130.0,51.0,-6.0,
2050.0,2214.0,52.0,-6.0,
2080.0,2068.0,52.0,-6.0,
2058.0,2054.0,52.0,-7.0,
2092.0,2038.0,52.0,-7.0,
2078.0,2040.0,53.0,-7.0,
2084.0,2061.0,54.0,-7.0,
2069.0,2077.0,54.0,-7.0,
2034.0,2035.0,54.0,-7.0,
2042.0,2021.0,54.0,-8.0,
2101.0,2107.0,54.0,-8.0,
2108.0,2124.0,54.0,-8.0,
2063.0,2117.0,54.0,-8.0,
2039.0,2087.0,55.0,-8.0,
2044.0,2048.0,55.0,-8.0,
2030.0,2049.0,55.0,-8.0,
2005.0,2037.0,55.0,-8.0,
1991.0,2106.0,56.0,-8.0,
2043.0,2141.0,56.0,-8.0,
2175.0,2160.0,56.0,-8.0,
2130.0,2099.0,56.0,-8.0,
2106.0,2075.0,55.0,-8.0,
2172.0,2057.0,55.0,-8.0,
2109.0,2024.0,55.0,-8.0,
2121.0,2084.0,55.0,-8.0,
2064.0,2165.0,55.0,-7.0,
2061.0,2113.0,54.0,-7.0,
2068.0,2063.0,54.0,-7.0,
2103.0,2102.0,53.0,-7.0,
2060.0,2140.0,53.0,-7.0,
2060.0,2162.0,52.0,-7.0,
2059.0,2073.0,52.0,-7.0,
2082.0,2146.0,51.0,-7.0,
2072.0,1933.0,50.0,-6.0,
2043.0,2046.0,49.0,-6.0,
2042.0,2068.0,47.0,-7.0,
2090.0,2106.0,46.0,-6.0,
2107.0,2101.0,45.0,-6.0,
2085.0,2147.0,44.0,-6.0,
2064.0,2083.0,44.0,-6.0,
2068.0,2070.0,43.0,-6.0,
2083.0,1996.0,43.0,-6.0,
2074.0,2024.0,43.0,-6.0,
2046.0,2056.0,43.0,-6.0,
2047.0,2142.0,43.0,-6.0,
2065.0,2137.0,43.0,-7.0,
2086.0,2171.0,43.0,-6.0,
2041.0,2058.0,43.0,-6.0,
2032.0,1977.0,43.0,-6.0,
2061.0,2039.0,43.0,-6.0,
2084.0,2164.0,43.0,-7.0,
2039.0,2074.0,43.0,-7.0,
2098.0,2124.0,43.0,-7.0,
2051.0,2109.0,43.0,-7.0,
2084.0,2104.0,43.0,-7.0,
2054.0,2055.0,43.0,-7.0,
2060.0,2077.0,44.0,-7.0,
2060.0,2038.0,44.0,-7.0,
2089.0,2093.0,44.0,-8.0,
2087.0,2117.0,44.0,-8.0,
2046.0,2106.0,44.0,-8.0,
2040.0,2126.0,45.0,-8.0,
2074.0,2179.0,45.0,-8.0,
2138.0,2177.0,46.0,-8.0,
2087.0,2172.0,46.0,-8.0,
2070.0,2028.0,47.0,-8.0,
2073.0,1991.0,47.0,-8.0,
2061.0,2124.0,47.0,-8.0,
2041.0,2058.0,48.0,-8.0,
2027.0,2022.0,48.0,-8.0,
2037.0,2036.0,48.0,-8.0,
2093.0,2036.0,48.0,-8.0,
2164.0,2083.0,48.0,-8.0,
2110.0,2102.0,49.0,-8.0,
2052.0,2095.0,49.0,-8.0,
2039.0,2081.0,49.0,-8.0,
2078.0,2155.0,49.0,-8.0,
2070.0,1993.0,49.0,-8.0,
2069.0,2081.0,0,
2097.0,2111.0,49.0,-8.0,
2121.0,2197.0,49.0,-8.0,
2069.0,2085.0,50.0,-7.0,
2040.0,2068.0,50.0,-7.0,
2096.0,2084.0,50.0,-7.0,
2095.0,2134.0,50.0,-7.0,
2053.0,2058.0,49.0,-7.0,
2026.0,2077.0,49.0,-7.0,
2014.0,2077.0,49.0,-7.0,
2037.0,2117.0,49.0,-7.0,
2152.0,2097.0,48.0,-7.0,
2079.0,2107.0,48.0,-7.0,
2055.0,2039.0,47.0,-7.0,
2050.0,1928.0,47.0,-6.0,
2095.0,2129.0,46.0,-6.0,
2072.0,2150.0,46.0,-7.0,
2037.0,2110.0,45.0,-7.0,
2064.0,2100.0,45.0,-7.0,
2073.0,2083.0,45.0,-6.0,
2097.0,2104.0,44.0,-6.0,
2077.0,2118.0,44.0,-6.0,
2070.0,2105.0,43.0,-6.0,
2068.0,2071.0,42.0,-6.0,
2113.0,2087.0,41.0,-7.0,
2085.0,2089.0,41.0,-6.0,
2054.0,2095.0,40.0,-6.0,
2075.0,2073.0,40.0,-6.0,
2098.0,2083.0,39.0,-6.0,
2083.0,2116.0,38.0,-5.0,
2059.0,2041.0,38.0,-5.0,
2058.0,2033.0,38.0,-5.0,
2094.0,2099.0,37.0,-6.0,
2104.0,2100.0,38.0,-6.0,
2049.0,2092.0,38.0,-6.0,
2050.0,2094.0,38.0,-6.0,
2048.0,2138.0,38.0,-6.0,
2090.0,2105.0,38.0,-6.0,
2083.0,2006.0,38.0,-6.0,
2064.0,2069.0,38.0,-6.0,
2065.0,2124.0,38.0,-7.0,
2112.0,2105.0,38.0,-7.0,
2089.0,2017.0,39.0,-7.0,
2056.0,2055.0,39.0,-7.0,
2052.0,2106.0,39.0,-7.0,
2059.0,2144.0,39.0,-7.0,
2115.0,2153.0,39.0,-7.0,
2076.0,2105.0,39.0,-7.0,
2059.0,2022.0,39.0,-7.0,
2079.0,2075.0,40.0,-7.0,
2112.0,2129.0,39.0,-7.0,
2101.0,2112.0,40.0,-7.0,
2051.0,2103.0,40.0,-7.0,
2066.0,2116.0,40.0,-7.0,
2074.0,2075.0,40.0,-7.0,
2104.0,2078.0,40.0,-7.0,
2063.0,2080.0,40.0,-7.0,
2053.0,2119.0,40.0,-7.0,
2035.0,2063.0,40.0,-8.0,
2081.0,2081.0,40.0,-8.0,
2049.0,2068.0,40.0,-8.0,
2070.0,2077.0,40.0,-8.0,
2092.0,2076.0,40.0,-8.0,
2112.0,2130.0,40.0,-8.0,
2097.0,2143.0,40.0,-8.0,
2068.0,2089.0,39.0,-8.0,
2065.0,2026.0,39.0,-7.0,
2095.0,2043.0,39.0,-7.0,
2106.0,2092.0,38.0,-7.0,
2060.0,2101.0,38.0,-7.0,
2043.0,2094.0,38.0,-7.0,
2060.0,2081.0,37.0,-7.0,
2077.0,2082.0,37.0,-7.0,
2063.0,2066.0,36.0,-7.0,
2022.0,2077.0,36.0,-7.0,
2041.0,2095.0,36.0,-7.0,
2067.0,2104.0,35.0,-7.0,
2117.0,2075.0,35.0,-7.0,
2097.0,2066.0,34.0,-7.0,
2086.0,2131.0,33.0,-7.0,
2055.0,2097.0,32.0,-7.0,
2089.0,2080.0,31.0,-7.0,
2052.0,2067.0,30.0,-6.0,
2061.0,2101.0,30.0,-7.0,
2067.0,2098.0,29.0,-7.0,
2080.0,2069.0,28.0,-7.0,
2055.0,2103.0,27.0,-7.0,
2028.0,2077.0,25.0,-7.0,
2041.0,2087.0,25.0,-7.0,
2086.0,2070.0,24.0,-7.0,
2132.0,2169.0,23.0,-7.0,
2096.0,2150.0,22.0,-7.0,
2086.0,2053.0,21.0,-7.0,
2085.0,2103.0,20.0,-7.0,
2100.0,2039.0,20.0,-7.0,
2092.0,2105.0,20.0,-7.0,
2093.0,2147.0,20.0,-7.0,
2072.0,2176.0,19.0,-7.0,
2056.0,2018.0,19.0,-7.0,
2056.0,1985.0,19.0,-7.0,
2068.0,2014.0,20.0,-7.0,
2072.0,2061.0,20.0,-7.0,
2084.0,2086.0,20.0,-7.0,
2128.0,2118.0,20.0,-8.0,
2117.0,2159.0,0,
2076.0,2142.0,21.0,-8.0,
2062.0,2087.0,21.0,-8.0,
2064.0,2031.0,21.0,-8.0,
2106.0,1950.0,21.0,-8.0,
2081.0,2112.0,21.0,-8.0,
2087.0,2110.0,21.0,-8.0,
2093.0,2102.0,22.0,-8.0,
2082.0,2102.0,22.0,-8.0,
2080.0,2074.0,22.0,-9.0,
2058.0,2088.0,22.0,-9.0,
2067.0,2090.0,22.0,-9.0,
2075.0,2118.0,22.0,-9.0,
2096.0,2114.0,21.0,-9.0,
2081.0,2109.0,21.0,-9.0,
2081.0,2117.0,21.0,-9.0,
2086.0,2077.0,21.0,-9.0,
2098.0,2084.0,21.0,-9.0,
2094.0,2134.0,20.0,-9.0,
2064.0,2025.0,20.0,-9.0,
2052.0,2063.0,20.0,-9.0,
2056.0,2051.0,20.0,-9.0,
2072.0,2096.0,20.0,-9.0,
2045.0,2101.0,19.0,-9.0,
2074.0,2162.0,19.0,-9.0,
2144.0,2059.0,19.0,-9.0,
2116.0,2089.0,19.0,-10.0,
2091.0,2091.0,19.0,-10.0,
2060.0,2078.0,19.0,-10.0,
2056.0,2094.0,19.0,-10.0,
2073.0,2093.0,19.0,-10.0,
2089.0,2101.0,19.0,-9.0,
2051.0,2035.0,19.0,-9.0,
2060.0,2076.0,19.0,-9.0,
2076.0,2114.0,19.0,-9.0,
2089.0,2089.0,19.0,-9.0,
2081.0,2094.0,19.0,-9.0,
2048.0,2068.0,19.0,-9.0,
2044.0,2064.0,19.0,-9.0,
2045.0,2119.0,19.0,-9.0,
2060.0,2076.0,19.0,-9.0,
2067.0,2070.0,19.0,-9.0,
2092.0,2030.0,19.0,-9.0,
2078.0,2128.0,19.0,-9.0,
2089.0,2098.0,19.0,-9.0,
2063.0,2056.0,19.0,-9.0,
2022.0,2098.0,19.0,-9.0,
2072.0,2152.0,19.0,-9.0,
2077.0,2081.0,19.0,-8.0,
2077.0,2061.0,19.0,-8.0,
2044.0,2057.0,19.0,-8.0,
2061.0,2071.0,19.0,-8.0,
2076.0,2080.0,18.0,-8.0,
2084.0,2125.0,18.0,-8.0,
2080.0,2091.0,18.0,-8.0,
2028.0,2092.0,18.0,-8.0,
2021.0,2057.0,18.0,-8.0,
2019.0,2057.0,18.0,-8.0,
2093.0,2079.0,19.0,-8.0,
2054.0,2058.0,19.0,-8.0,
2089.0,2118.0,19.0,-8.0,
2095.0,2134.0,19.0,-8.0,
2099.0,2116.0,19.0,-8.0,
2073.0,2033.0,19.0,-8.0,
2063.0,2048.0,19.0,-8.0,
2041.0,2093.0,19.0,-8.0,
2058.0,2122.0,19.0,-8.0,
2098.0,2090.0,19.0,-8.0,
2064.0,2072.0,20.0,-8.0,
2054.0,2111.0,20.0,-8.0,
2064.0,2145.0,20.0,-8.0,
2096.0,2081.0,20.0,-8.0,
2059.0,2035.0,20.0,-8.0,
2038.0,2116.0,20.0,-8.0,
2150.0,2151.0,20.0,-8.0,
2112.0,2109.0,20.0,-8.0,
2109.0,2103.0,21.0,-8.0,
2095.0,2070.0,21.0,-9.0,
2075.0,2056.0,20.0,-9.0,
2084.0,2099.0,20.0,-9.0,
2100.0,2061.0,20.0,-9.0,
2097.0,2102.0,20.0,-9.0,
2056.0,2034.0,20.0,-9.0,
2051.0,2017.0,19.0,-9.0,
2053.0,2073.0,19.0,-9.0,
2091.0,2158.0,19.0,-9.0,
2074.0,2093.0,19.0,-9.0,
2065.0,2141.0,19.0,-9.0,
2077.0,2055.0,18.0,-9.0,
2105.0,2062.0,18.0,-9.0,
2106.0,2084.0,18.0,-9.0,
2061.0,2111.0,18.0,-9.0,
2077.0,2114.0,18.0,-9.0,
2072.0,2183.0,17.0,-9.0,
2092.0,2090.0,17.0,-9.0,
2074.0,2031.0,17.0,-9.0,
2069.0,1999.0,17.0,-9.0,
2074.0,2078.0,16.0,-9.0,
2088.0,2110.0,16.0,-9.0,
2077.0,2046.0,16.0,-9.0,
2040.0,2014.0,16.0,-9.0,
2053.0,2095.0,15.0,-9.0,
2062.0,2083.0,15.0,-9.0,
2086.0,2093.0,15.0,-9.0,
2069.0,2121.0,15.0,-9.0,
2050.0,2058.0,14.0,-9.0,
2077.0,2105.0,14.0,-9.0,
2094.0,2139.0,14.0,-9.0,
2105.0,2138.0,14.0,-9.0,
2083.0,2174.0,14.0,-9.0,
2055.0,2130.0,14.0,-9.0,
2056.0,1973.0,14.0,-9.0,
2080.0,2006.0,14.0,-9.0,
2059.0,2117.0,14.0,-9.0,
2061.0,2150.0,14.0,-9.0,
2091.0,2097.0,14.0,-9.0,
2083.0,1978.0,14.0,-9.0,
2103.0,2086.0,14.0,-9.0,
2061.0,2141.0,14.0,-9.0,
2028.0,2081.0,14.0,-9.0,
2057.0,2081.0,15.0,-9.0,
2099.0,2073.0,15.0,-9.0,
2072.0,2074.0,15.0,-9.0,
2053.0,2062.0,15.0,-9.0,
2062.0,2069.0,15.0,-10.0,
2086.0,2093.0,15.0,-10.0,
2075.0,2087.0,15.0,-10.0,
2032.0,2087.0,16.0,-10.0,
2045.0,2086.0,16.0,-10.0,
2045.0,2098.0,16.0,-10.0,
2094.0,2131.0,16.0,-10.0,
2060.0,2133.0,16.0,-10.0,
2059.0,2092.0,16.0,-10.0,
2074.0,2099.0,16.0,-10.0,
2083.0,2100.0,16.0,-10.0,
2101.0,2092.0,16.0,-10.0,
2074.0,2101.0,15.0,-10.0,
2083.0,2119.0,15.0,-10.0,
2089.0,2117.0,15.0,-10.0,
2096.0,2082.0,15.0,-10.0,
2077.0,2131.0,14.0,-10.0,
2073.0,2136.0,14.0,-10.0,
2072.0,2136.0,14.0,-10.0,
2094.0,2110.0,13.0,-10.0,
2081.0,2080.0,13.0,-10.0,
2052.0,2039.0,13.0,-10.0,
2043.0,2061.0,12.0,-10.0,
2059.0,2085.0,12.0,-10.0,
2074.0,2025.0,12.0,-10.0,
2075.0,2080.0,12.0,-10.0,
2055.0,2090.0,11.0,-10.0,
2069.0,2075.0,11.0,-10.0,
2096.0,2142.0,11.0,-10.0,
2084.0,2044.0,11.0,-10.0,
2054.0,2037.0,11.0,-10.0,
2036.0,2112.0,11.0,-10.0,
2050.0,2098.0,11.0,-10.0,
2083.0,2099.0,11.0,-10.0,
2075.0,2053.0,11.0,-10.0,
2064.0,2002.0,11.0,-10.0,
2070.0,2042.0,11.0,-10.0,
2068.0,2099.0,11.0,-10.0,
2085.0,2081.0,11.0,-10.0,
2068.0,2095.0,11.0,-10.0,
2051.0,2092.0,11.0,-10.0,
2049.0,2075.0,11.0,-10.0,
2080.0,2094.0,11.0,-10.0,
2084.0,2108.0,11.0,-10.0,
2070.0,2122.0,11.0,-10.0,
2071.0,2075.0,10.0,-10.0,
2079.0,2091.0,10.0,-10.0,
2095.0,2095.0,10.0,-10.0,
2049.0,2129.0,10.0,-10.0,
2041.0,2114.0,10.0,-10.0,
2067.0,2113.0,9.0,-10.0,
2091.0,2110.0,10.0,-10.0,
2074.0,2076.0,10.0,-10.0,
2052.0,2084.0,9.0,-10.0,
2063.0,2080.0,9.0,-10.0,
2086.0,2087.0,9.0,-10.0,
2097.0,2098.0,9.0,-10.0,
2057.0,2087.0,9.0,-10.0,
2052.0,2091.0,10.0,-10.0,
2034.0,2076.0,10.0,-10.0,
2074.0,2080.0,10.0,-10.0,
2069.0,2086.0,10.0,-10.0,
2054.0,2081.0,11.0,-10.0,
2065.0,2092.0,11.0,-10.0,
2067.0,2093.0,11.0,-10.0,
2088.0,2106.0,11.0,-10.0,
2047.0,2085.0,12.0,-10.0,
2062.0,2072.0,12.0,-10.0,
2054.0,2096.0,12.0,-10.0,
2086.0,2063.0,12.0,-10.0,
2097.0,2085.0,12.0,-10.0,
2078.0,2096.0,13.0,-10.0,
2082.0,2081.0,13.0,-10.0,
2086.0,2125.0,13.0,-10.0,
2098.0,2127.0,13.0,-10.0,
2062.0,2123.0,13.0,-10.0,
2049.0,2041.0,13.0,-10.0,
2055.0,2037.0,13.0,-10.0,
2084.0,2074.0,13.0,-10.0,
2079.0,2074.0,14.0,-10.0,
2051.0,1992.0,14.0,-10.0,
2070.0,2056.0,14.0,-10.0,
2096.0,2093.0,14.0,-10.0,
2100.0,2105.0,14.0,-10.0,
2050.0,2070.0,14.0,-10.0,
2040.0,2076.0,14.0,-10.0,
2049.0,2060.0,14.0,-10.0,
2070.0,2070.0,15.0,-10.0,
2090.0,2095.0,15.0,-10.0,
2057.0,2113.0,15.0,-10.0,
2063.0,2101.0,15.0,-10.0,
2084.0,2094.0,15.0,-10.0,
2098.0,2116.0,15.0,-10.0,
2042.0,2147.0,15.0,-10.0,
2034.0,2078.0,15.0,-10.0,
2047.0,2104.0,15.0,-10.0,
2080.0,2106.0,15.0,-10.0,
2078.0,2094.0,15.0,-10.0,
2056.0,2056.0,15.0,-10.0,
2091.0,2077.0,14.0,-10.0,
2073.0,2081.0,14.0,-10.0,
2088.0,2107.0,14.0,-10.0,
2049.0,2103.0,14.0,-10.0,
2046.0,2106.0,14.0,-10.0,
2048.0,2108.0,13.0,-10.0,
2067.0,2107.0,13.0,-10.0,
2077.0,2097.0,13.0,-10.0,
2051.0,2062.0,13.0,-10.0,
2052.0,2076.0,13.0,-10.0,
2072.0,2086.0,13.0,-10.0,
2100.0,2110.0,13.0,-10.0,
2053.0,2078.0,12.0,-10.0,
2053.0,2108.0,12.0,-10.0,
2038.0,2057.0,12.0,-10.0,
2074.0,2080.0,12.0,-10.0,
2081.0,2084.0,12.0,-10.0,
2046.0,2078.0,12.0,-10.0,
2056.0,2096.0,12.0,-10.0,
2065.0,2089.0,12.0,-10.0,
2084.0,2058.0,13.0,-10.0,
2041.0,2088.0,13.0,-10.0,
2045.0,2086.0,13.0,-10.0,
2052.0,2091.0,13.0,-10.0,
2090.0,2106.0,13.0,-10.0,
2091.0,2106.0,13.0,-10.0,
2072.0,2084.0,13.0,-10.0,
2071.0,2086.0,13.0,-10.0,
2079.0,2082.0,13.0,-10.0,
2101.0,2080.0,13.0,-10.0,
2069.0,2096.0,13.0,-10.0,
2069.0,2096.0,13.0,-10.0,
2059.0,2082.0,13.0,-10.0,
2090.0,2082.0,13.0,-10.0,
2097.0,2086.0,13.0,-10.0,
2057.0,2085.0,13.0,-10.0,
2075.0,2093.0,13.0,-10.0,
2069.0,2096.0,13.0,-10.0,
2108.0,2097.0,13.0,-10.0,
2067.0,2072.0,13.0,-10.0,
2050.0,2077.0,13.0,-10.0,
2039.0,2090.0,13.0,-10.0,
2091.0,2103.0,13.0,-10.0,
2101.0,2092.0,12.0,-10.0,
2070.0,2064.0,12.0,-10.0,
2073.0,2094.0,12.0,-10.0,
2097.0,2089.0,12.0,-10.0,
2101.0,2090.0,12.0,-10.0,
2067.0,2085.0,12.0,-10.0,
2048.0,2078.0,12.0,-11.0,
2054.0,2087.0,12.0,-11.0,
2085.0,2055.0,12.0,-11.0,
2095.0,2091.0,12.0,-11.0,
2059.0,2094.0,12.0,-10.0,
2062.0,2100.0,12.0,-10.0,
2087.0,2095.0,12.0,-10.0,
2107.0,2095.0,12.0,-10.0,
2058.0,2081.0,12.0,-10.0,
2049.0,2090.0,12.0,-10.0,
2042.0,2086.0,12.0,-10.0,
2068.0,2085.0,12.0,-10.0,
2092.0,2078.0,12.0,-10.0,
2051.0,2067.0,13.0,-11.0,
2065.0,2098.0,13.0,-11.0,
2078.0,2104.0,13.0,-11.0,
2099.0,2114.0,13.0,-11.0,
2059.0,2086.0,13.0,-10.0,
2038.0,2079.0,13.0,-10.0,
2045.0,2074.0,13.0,-10.0,
2086.0,2080.0,13.0,-10.0,
2094.0,2087.0,13.0,-10.0,
2057.0,2088.0,13.0,-10.0,
2056.0,2086.0,13.0,-10.0,
2068.0,2115.0,13.0,-10.0,
2087.0,2096.0,13.0,-10.0,
2052.0,2085.0,13.0,-10.0,
2046.0,2086.0,13.0,-10.0,
2050.0,2087.0,13.0,-10.0,
2084.0,2085.0,13.0,-10.0,
2084.0,2076.0,13.0,-10.0,
2057.0,2085.0,13.0,-10.0,
2067.0,2102.0,13.0,-10.0,
2085.0,2089.0,13.0,-10.0,
2105.0,2097.0,13.0,-11.0,
2039.0,2080.0,13.0,-11.0,
2058.0,2057.0,13.0,-11.0,
2054.0,2058.0,13.0,-11.0,
2066.0,2077.0,13.0,-11.0,
2090.0,2111.0,13.0,-11.0,
2066.0,2096.0,13.0,-11.0,
2069.0,2097.0,13.0,-11.0,
2076.0,2082.0,14.0,-11.0,
2101.0,2103.0,14.0,-11.0,
2055.0,2086.0,14.0,-11.0,
2038.0,2076.0,14.0,-11.0,
2036.0,2066.0,14.0,-11.0,
2070.0,2096.0,14.0,-11.0,
2088.0,2097.0,14.0,-11.0,
2066.0,2102.0,14.0,-11.0,
2072.0,2094.0,14.0,-11.0,
2084.0,2101.0,14.0,-11.0,
2117.0,2109.0,14.0,-11.0,
2074.0,2091.0,14.0,-11.0,
2046.0,2075.0,14.0,-11.0,
2051.0,2088.0,14.0,-11.0,
2078.0,2072.0,14.0,-11.0,
2092.0,2074.0,14.0,-11.0,
2070.0,2078.0,14.0,-11.0,
2112.0,2080.0,14.0,-11.0,
2089.0,2090.0,14.0,-11.0,
2109.0,2087.0,14.0,-11.0,
2077.0,2085.0,14.0,-11.0,
2043.0,2077.0,14.0,-11.0,
2041.0,2082.0,14.0,-11.0,
2064.0,2082.0,14.0,-11.0,
2085.0,2096.0,14.0,-11.0,
2063.0,2097.0,14.0,-11.0,
2072.0,2106.0,14.0,-11.0,
2086.0,2108.0,14.0,-11.0,
2111.0,2103.0,14.0,-11.0,
2083.0,2065.0,14.0,-11.0,
2049.0,2065.0,14.0,-11.0,
2052.0,2075.0,15.0,-11.0,
2080.0,2085.0,15.0,-11.0,
2104.0,2094.0,15.0,-11.0,
2062.0,2081.0,15.0,-11.0,
2070.0,2090.0,15.0,-11.0,
2086.0,2091.0,15.0,-11.0,
2104.0,2098.0,15.0,-11.0,
2077.0,2094.0,15.0,-11.0,
2046.0,2093.0,15.0,-11.0,
2044.0,2091.0,15.0,-11.0,
2065.0,2103.0,15.0,-11.0,
2084.0,2101.0,15.0,-11.0,
2065.0,2094.0,15.0,-11.0,
2065.0,2101.0,15.0,-11.0,
2074.0,2095.0,15.0,-11.0,
2104.0,2104.0,15.0,-11.0,
2065.0,2089.0,15.0,-11.0,
2046.0,2081.0,15.0,-11.0,
2036.0,2078.0,15.0,-11.0,
2059.0,2082.0,15.0,-11.0,
2089.0,2091.0,15.0,-11.0,
2062.0,2090.0,15.0,-11.0,
2070.0,2090.0,14.0,-11.0,
2078.0,2095.0,14.0,-11.0,
2083.0,2090.0,14.0,-11.0,
2081.0,2091.0,14.0,-11.0,
2045.0,2082.0,14.0,-11.0,
2046.0,2079.0,14.0,-11.0,
2072.0,2085.0,14.0,-11.0,
2083.0,2076.0,14.0,-11.0,
2055.0,2082.0,14.0,-11.0,
2054.0,2089.0,14.0,-11.0,
2068.0,2103.0,14.0,-11.0,
2110.0,2108.0,14.0,-11.0,
2084.0,2101.0,14.0,-11.0,
2053.0,2079.0,14.0,-11.0,
2050.0,2087.0,14.0,-11.0,
2063.0,2085.0,14.0,-11.0,
2102.0,2111.0,14.0,-11.0,
2070.0,2087.0,14.0,-11.0,
2073.0,2086.0,14.0,-11.0,
2081.0,2033.0,14.0,-11.0,
2108.0,2092.0,15.0,-11.0,
2085.0,2086.0,15.0,-11.0,
2046.0,2080.0,15.0,-11.0,
2054.0,2074.0,15.0,-11.0,
2069.0,2085.0,15.0,-11.0,
2094.0,2095.0,15.0,-11.0,
2059.0,2096.0,15.0,-11.0,
2055.0,2067.0,15.0,-11.0,
2070.0,2082.0,15.0,-11.0,
2091.0,2080.0,15.0,-11.0,
2076.0,2082.0,15.0,-11.0,
2053.0,2079.0,15.0,-11.0,
2061.0,2078.0,15.0,-11.0,
2019.0,2083.0,15.0,-11.0,
2102.0,2080.0,15.0,-11.0,
2073.0,2088.0,15.0,-11.0,
2068.0,2093.0,14.0,-11.0,
2085.0,2092.0,14.0,-11.0,
2103.0,2094.0,14.0,-11.0,
2096.0,2092.0,14.0,-11.0,
2052.0,2072.0,14.0,-11.0,
2056.0,2076.0,14.0,-11.0,
2064.0,2046.0,14.0,-11.0,
2095.0,2082.0,14.0,-11.0,
2072.0,2088.0,14.0,-11.0,
2065.0,2095.0,13.0,-11.0,
2074.0,2105.0,13.0,-11.0,
2094.0,2091.0,13.0,-11.0,
2068.0,2086.0,13.0,-11.0,
2044.0,2087.0,13.0,-11.0,
2038.0,2091.0,13.0,-11.0,
2051.0,2071.0,13.0,-11.0,
2097.0,2103.0,13.0,-11.0,
2063.0,2082.0,13.0,-11.0,
2060.0,2064.0,13.0,-11.0,
2067.0,2090.0,13.0,-11.0,
2085.0,2098.0,13.0,-11.0,
2078.0,2087.0,13.0,-11.0,
2041.0,2092.0,13.0,-11.0,
2051.0,2091.0,13.0,-11.0,
2056.0,2082.0,13.0,-11.0,
2087.0,2089.0,13.0,-11.0,
2063.0,2095.0,14.0,-11.0,
2064.0,2092.0,14.0,-11.0,
2081.0,2106.0,14.0,-11.0,
2091.0,2103.0,14.0,-11.0,
2071.0,2102.0,14.0,-11.0,
2048.0,2087.0,14.0,-11.0,
2041.0,2079.0,14.0,-11.0,
2054.0,2082.0,14.0,-11.0,
2087.0,2083.0,14.0,-11.0,
2068.0,2096.0,14.0,-11.0,
2077.0,2098.0,14.0,-11.0,
2078.0,2097.0,14.0,-11.0,
2100.0,2095.0,14.0,-11.0,
2079.0,2092.0,14.0,-11.0,
2054.0,2077.0,14.0,-11.0,
2062.0,2080.0,15.0,-11.0,
2062.0,2081.0,15.0,-11.0,
2096.0,2089.0,15.0,-11.0,
2068.0,2088.0,15.0,-11.0,
2070.0,2093.0,15.0,-11.0,
2141.0,2087.0,15.0,-11.0,
2096.0,2071.0,15.0,-11.0,
2091.0,2087.0,15.0,-11.0,
2053.0,2089.0,15.0,-11.0,
2062.0,2077.0,15.0,-11.0,
2052.0,2081.0,15.0,-11.0,
2083.0,2086.0,15.0,-11.0,
2069.0,2089.0,15.0,-11.0,
2068.0,2101.0,15.0,-11.0,
2082.0,2099.0,15.0,-11.0,
2099.0,2100.0,15.0,-11.0,
2095.0,2088.0,15.0,-11.0,
2061.0,2086.0,15.0,-11.0,
2056.0,2080.0,15.0,-11.0,
2058.0,2077.0,15.0,-11.0,
2088.0,2084.0,15.0,-11.0,
2064.0,2079.0,15.0,-11.0,
2054.0,2095.0,15.0,-11.0,
2071.0,2089.0,15.0,-11.0,
2081.0,2098.0,15.0,-11.0,
2079.0,2099.0,15.0,-11.0,
2043.0,2096.0,15.0,-11.0,
2046.0,2094.0,15.0,-11.0,
2045.0,2089.0,15.0,-11.0,
2081.0,2092.0,15.0,-11.0,
2058.0,2092.0,15.0,-11.0,
2064.0,2092.0,15.0,-11.0,
2073.0,2102.0,15.0,-11.0,
2089.0,2092.0,15.0,-11.0,
2092.0,2090.0,15.0,-11.0,
2053.0,2090.0,15.0,-11.0,
2049.0,2085.0,14.0,-11.0,
2041.0,2076.0,14.0,-11.0,
2082.0,2094.0,14.0,-11.0,
2062.0,2088.0,14.0,-11.0,
2063.0,2094.0,14.0,-11.0,
2078.0,2102.0,14.0,-11.0,
2083.0,2093.0,14.0,-11.0,
2086.0,2092.0,14.0,-11.0,
2041.0,2076.0,14.0,-11.0,
2047.0,2087.0,14.0,-11.0,
2049.0,2081.0,14.0,-11.0,
2087.0,2087.0,14.0,-11.0,
2062.0,2093.0,14.0,-11.0,
2056.0,2091.0,14.0,-11.0,
2068.0,2086.0,14.0,-11.0,
2086.0,2088.0,14.0,-11.0,
2093.0,2090.0,14.0,-11.0,
2053.0,2086.0,14.0,-11.0,
2058.0,2080.0,14.0,-11.0,
2064.0,2077.0,14.0,-11.0,
2085.0,2083.0,14.0,-11.0,
2078.0,2083.0,14.0,-11.0,
2064.0,2077.0,0,
2085.0,2083.0,0,
2078.0,2083.0,0,
2080.0,2089.0,0,
2086.0,2091.0,14.0,-11.0,
2094.0,2097.0,14.0,-11.0,
2108.0,2104.0,14.0,-11.0,
2062.0,2087.0,14.0,-11.0,
2051.0,2084.0,14.0,-11.0,
2058.0,2081.0,14.0,-11.0,
2086.0,2079.0,14.0,-11.0,
2082.0,2090.0,14.0,-11.0,
2063.0,2091.0,14.0,-11.0,
2077.0,2085.0,14.0,-11.0,
2092.0,2094.0,14.0,-11.0,
2092.0,2085.0,14.0,-11.0,
2053.0,2087.0,14.0,-11.0,
2054.0,2075.0,14.0,-11.0,
2059.0,2081.0,14.0,-11.0,
2097.0,2096.0,14.0,-11.0,
2065.0,2100.0,14.0,-11.0,
2062.0,2093.0,14.0,-11.0,
2070.0,2093.0,14.0,-11.0,
2091.0,2094.0,14.0,-11.0,
2086.0,2097.0,14.0,-11.0,
2047.0,2092.0,14.0,-11.0,
2052.0,2090.0,14.0,-11.0,
2054.0,2080.0,14.0,-11.0,
2088.0,2078.0,14.0,-11.0,
2077.0,2083.0,14.0,-11.0,
2067.0,2091.0,14.0,-11.0,
2079.0,2085.0,14.0,-11.0,
2087.0,2094.0,14.0,-11.0,
2091.0,2086.0,14.0,-11.0,
2051.0,2089.0,14.0,-11.0,
2043.0,2084.0,14.0,-11.0,
2061.0,2086.0,14.0,-11.0,
2085.0,2085.0,14.0,-11.0,
2074.0,2087.0,14.0,-11.0,
2067.0,2095.0,14.0,-11.0,
2098.0,2084.0,14.0,-11.0,
2090.0,2091.0,14.0,-11.0,
2091.0,2065.0,14.0,-11.0,
2060.0,2081.0,14.0,-11.0,
2064.0,2086.0,14.0,-11.0,
2058.0,2085.0,14.0,-11.0,
2083.0,2089.0,14.0,-11.0,
2081.0,2085.0,14.0,-11.0,
2071.0,2086.0,14.0,-11.0,
2084.0,2085.0,14.0,-11.0,
2076.0,2093.0,14.0,-11.0,
2108.0,2088.0,14.0,-11.0,
2059.0,2089.0,14.0,-11.0,
2053.0,2075.0,14.0,-11.0,
2050.0,2080.0,14.0,-11.0,
2090.0,2088.0,14.0,-11.0,
2075.0,2089.0,14.0,-11.0,
2067.0,2100.0,14.0,-11.0,
2069.0,2105.0,14.0,-11.0,
2076.0,2095.0,14.0,-11.0,
2091.0,2094.0,14.0,-11.0,
2054.0,2085.0,14.0,-11.0,
2046.0,2091.0,14.0,-11.0,
2047.0,2077.0,14.0,-11.0,
2083.0,2078.0,14.0,-11.0,
2065.0,2084.0,14.0,-11.0,
2063.0,2085.0,14.0,-11.0,
2071.0,2081.0,14.0,-11.0,
2082.0,2096.0,14.0,-11.0,
2095.0,2102.0,14.0,-11.0,
2058.0,2104.0,14.0,-11.0,
2051.0,2127.0,14.0,-11.0,
2062.0,2108.0,14.0,-11.0,
2134.0,2112.0,14.0,-11.0,
2099.0,2089.0,14.0,-11.0,
2069.0,2059.0,14.0,-11.0,
2085.0,2100.0,14.0,-11.0,
2091.0,2093.0,14.0,-11.0,
2108.0,2090.0,14.0,-11.0,
2057.0,2098.0,14.0,-11.0,
2064.0,2124.0,14.0,-11.0,
2063.0,2120.0,14.0,-11.0,
2084.0,2108.0,14.0,-11.0,
2087.0,2090.0,14.0,-11.0,
2072.0,2086.0,14.0,-11.0,
2074.0,2107.0,14.0,-12.0,
2085.0,2042.0,14.0,-11.0,
2100.0,2039.0,14.0,-12.0,
2056.0,2066.0,14.0,-12.0,
2047.0,2077.0,14.0,-11.0,
2046.0,2087.0,14.0,-11.0,
2055.0,2034.0,14.0,-11.0,
2089.0,2129.0,14.0,-11.0,
2065.0,2197.0,14.0,-11.0,
2088.0,2149.0,14.0,-11.0,
2092.0,2145.0,14.0,-11.0,
2107.0,2102.0,14.0,-11.0,
2065.0,2010.0,14.0,-11.0,
2039.0,1985.0,14.0,-11.0,
2044.0,2051.0,13.0,-11.0,
2061.0,2067.0,13.0,-11.0,
2085.0,2092.0,13.0,-11.0,
2075.0,2085.0,13.0,-11.0,
2074.0,2090.0,13.0,-11.0,
2068.0,2111.0,13.0,-11.0,
2085.0,2113.0,13.0,-11.0,
2047.0,2070.0,13.0,-11.0,
2032.0,2040.0,13.0,-11.0,
2051.0,2085.0,13.0,-11.0,
2098.0,2158.0,13.0,-11.0,
2085.0,2077.0,13.0,-11.0,
2058.0,2007.0,13.0,-11.0,
2059.0,2059.0,13.0,-11.0,
2083.0,2043.0,13.0,-11.0,
2105.0,2094.0,13.0,-11.0,
2066.0,2151.0,13.0,-11.0,
2060.0,2103.0,13.0,-11.0,
2065.0,2135.0,13.0,-11.0,
2069.0,2162.0,13.0,-12.0,
2085.0,2126.0,13.0,-12.0,
2073.0,2156.0,13.0,-12.0,
2069.0,2104.0,14.0,-12.0,
2078.0,2100.0,14.0,-12.0,
2085.0,2074.0,14.0,-11.0,
2048.0,2058.0,14.0,-11.0,
2036.0,2070.0,14.0,-11.0,
2051.0,2068.0,13.0,-11.0,
2070.0,2055.0,13.0,-11.0,
2080.0,2109.0,13.0,-11.0,
2059.0,2150.0,13.0,-11.0,
2070.0,2138.0,13.0,-11.0,
2072.0,2083.0,13.0,-11.0,
2104.0,2061.0,13.0,-11.0,
2045.0,2047.0,13.0,-11.0,
2049.0,2030.0,14.0,-11.0,
2059.0,1989.0,14.0,-11.0,
2063.0,2064.0,14.0,-11.0,
2093.0,2102.0,14.0,-11.0,
2056.0,2103.0,15.0,-11.0,
2072.0,2109.0,15.0,-11.0,
2088.0,2072.0,15.0,-11.0,
2093.0,2000.0,15.0,-11.0,
2042.0,2123.0,15.0,-11.0,
2029.0,2151.0,15.0,-11.0,
2042.0,2140.0,15.0,-11.0,
2069.0,2199.0,16.0,-11.0,
2060.0,2101.0,16.0,-11.0,
2043.0,2093.0,16.0,-11.0,
2031.0,2176.0,16.0,-11.0,
2070.0,2163.0,16.0,-11.0,
2099.0,2088.0,16.0,-11.0,
2042.0,2089.0,16.0,-11.0,
2044.0,2123.0,16.0,-11.0,
2042.0,2091.0,16.0,-11.0,
2054.0,2007.0,16.0,-11.0,
2079.0,2046.0,16.0,-11.0,
2095.0,2066.0,16.0,-11.0,
2079.0,1984.0,15.0,-11.0,
2082.0,2010.0,15.0,-11.0,
2100.0,2092.0,15.0,-11.0,
2062.0,2047.0,15.0,-11.0,
2045.0,2028.0,16.0,-11.0,
2071.0,2189.0,16.0,-11.0,
2094.0,2181.0,16.0,-11.0,
2129.0,2240.0,16.0,-11.0,
2073.0,2141.0,16.0,-11.0,
2114.0,1997.0,16.0,-11.0,
2124.0,2098.0,16.0,-11.0,
2101.0,2077.0,16.0,-11.0,
2063.0,1998.0,16.0,-11.0,
