2150.0,2195.0,69.0,-4.0,
2110.0,2058.0,69.0,-4.0,
2130.0,2093.0,69.0,-4.0,
2109.0,2108.0,69.0,-4.0,
2034.0,2063.0,69.0,-4.0,
2042.0,2091.0,69.0,-4.0,
2067.0,2062.0,69.0,-4.0,
2102.0,2098.0,69.0,-4.0,
2123.0,2128.0,69.0,-4.0,
2138.0,2117.0,69.0,-4.0,
2092.0,2078.0,69.0,-4.0,
2037.0,2056.0,69.0,-4.0,
2026.0,2042.0,69.0,-4.0,
2030.0,2027.0,69.0,-4.0,
2059.0,2139.0,69.0,-4.0,
2075.0,1982.0,69.0,-4.0,
2099.0,2018.0,69.0,-4.0,
2133.0,2075.0,69.0,-4.0,
2110.0,2100.0,69.0,-4.0,
2060.0,2064.0,69.0,-4.0,
2039.0,2050.0,69.0,-4.0,
2040.0,2060.0,69.0,-4.0,
2067.0,2060.0,69.0,-4.0,
2085.0,2117.0,69.0,-4.0,
2108.0,2092.0,69.0,-4.0,
2128.0,2076.0,69.0,-4.0,
2115.0,2065.0,69.0,-4.0,
2098.0,2088.0,69.0,-4.0,
2054.0,2027.0,69.0,-4.0,
2056.0,2073.0,69.0,-4.0,
2055.0,2068.0,69.0,-4.0,
2078.0,2103.0,69.0,-4.0,
2103.0,2173.0,69.0,-4.0,
2066.0,2066.0,69.0,-4.0,
2102.0,2061.0,69.0,-4.0,
2113.0,2076.0,69.0,-4.0,
2053.0,2084.0,69.0,-4.0,
2077.0,2116.0,69.0,-4.0,
2035.0,2031.0,69.0,-4.0,
2039.0,2066.0,69.0,-4.0,
2062.0,1996.0,69.0,-4.0,
2058.0,2055.0,69.0,-4.0,
2114.0,2114.0,69.0,-4.0,
2126.0,2090.0,69.0,-5.0,
2147.0,2091.0,69.0,-5.0,
2142.0,2063.0,69.0,-4.0,
2065.0,2075.0,69.0,-5.0,
2048.0,2074.0,69.0,-4.0,
2054.0,2079.0,69.0,-4.0,
2057.0,2091.0,69.0,-4.0,
2088.0,2082.0,69.0,-4.0,
2104.0,2098.0,69.0,-4.0,
2115.0,2096.0,69.0,-4.0,
2120.0,2104.0,69.0,-4.0,
2080.0,2109.0,69.0,-4.0,
2058.0,2082.0,69.0,-4.0,
2032.0,2062.0,69.0,-4.0,
2028.0,2101.0,69.0,-4.0,
2055.0,2182.0,69.0,-4.0,
2105.0,2115.0,69.0,-4.0,
2066.0,2028.0,69.0,-4.0,
2113.0,2013.0,69.0,-4.0,
2094.0,2034.0,69.0,-4.0,
2105.0,1975.0,69.0,-4.0,
2072.0,2028.0,69.0,-4.0,
2095.0,2080.0,69.0,-4.0,
2043.0,2009.0,69.0,-4.0,
2069.0,2030.0,69.0,-4.0,
2091.0,2076.0,69.0,-4.0,
2100.0,2095.0,69.0,-4.0,
2134.0,2073.0,69.0,-4.0,
2107.0,2091.0,69.0,-4.0,
2098.0,2149.0,69.0,-4.0,
2043.0,2067.0,69.0,-4.0,
2034.0,2017.0,69.0,-4.0,
2043.0,2084.0,69.0,-4.0,
2066.0,2096.0,69.0,-4.0,
2093.0,2126.0,69.0,-4.0,
2111.0,2108.0,69.0,-4.0,
2105.0,2062.0,69.0,-4.0,
2106.0,2141.0,69.0,-4.0,
2094.0,2188.0,69.0,-4.0,
2030.0,1981.0,69.0,-4.0,
2044.0,2100.0,69.0,-4.0,
2044.0,1951.0,69.0,-4.0,
2055.0,2076.0,69.0,-4.0,
2115.0,2133.0,69.0,-4.0,
2123.0,2041.0,69.0,-4.0,
2139.0,2078.0,69.0,-4.0,
2141.0,2107.0,69.0,-4.0,
2094.0,2132.0,69.0,-4.0,
2063.0,2071.0,69.0,-4.0,
2035.0,2014.0,69.0,-4.0,
2081.0,2074.0,69.0,-4.0,
2108.0,2094.0,69.0,-4.0,
2120.0,2113.0,69.0,-4.0,
2125.0,2080.0,69.0,-4.0,
2098.0,2091.0,69.0,-4.0,
2087.0,2091.0,69.0,-5.0,
2066.0,2090.0,69.0,-4.0,
2049.0,2060.0,69.0,-4.0,
2036.0,2064.0,69.0,-4.0,
2068.0,2095.0,69.0,-4.0,
2084.0,2050.0,69.0,-4.0,
2140.0,2084.0,69.0,-4.0,
2132.0,2128.0,69.0,-4.0,
2110.0,2057.0,69.0,-4.0,
2083.0,2082.0,69.0,-4.0,
2064.0,2088.0,69.0,-4.0,
2036.0,2098.0,69.0,-4.0,
2011.0,2023.0,69.0,-4.0,
2101.0,2016.0,69.0,-4.0,
2102.0,2033.0,69.0,-4.0,
2103.0,2056.0,69.0,-4.0,
2114.0,2077.0,69.0,-4.0,
2106.0,2080.0,69.0,-4.0,
2083.0,2100.0,69.0,-4.0,
2072.0,2110.0,69.0,-4.0,
2066.0,2114.0,70.0,-4.0,
2028.0,1946.0,70.0,-4.0,
2081.0,2053.0,70.0,-4.0,
2105.0,2084.0,70.0,-4.0,
2111.0,2098.0,70.0,-4.0,
2070.0,2102.0,70.0,-4.0,
2093.0,2097.0,70.0,-5.0,
2073.0,2087.0,70.0,-5.0,
2057.0,2075.0,70.0,-5.0,
2046.0,2068.0,70.0,-5.0,
2060.0,2087.0,70.0,-5.0,
2072.0,2138.0,70.0,-5.0,
2107.0,2096.0,70.0,-5.0,
2073.0,2055.0,70.0,-5.0,
2117.0,2099.0,70.0,-5.0,
2089.0,2113.0,70.0,-5.0,
2040.0,2125.0,70.0,-5.0,
2016.0,2006.0,70.0,-5.0,
2005.0,2129.0,70.0,-5.0,
2036.0,1980.0,70.0,-5.0,
2139.0,2040.0,70.0,-5.0,
2130.0,2105.0,70.0,-5.0,
2098.0,2055.0,70.0,-5.0,
2112.0,2004.0,70.0,-5.0,
2112.0,2095.0,70.0,-5.0,
2061.0,2061.0,70.0,-5.0,
2027.0,1991.0,70.0,-5.0,
2069.0,2052.0,69.0,-4.0,
2069.0,2111.0,69.0,-4.0,
2083.0,2151.0,69.0,-4.0,
2086.0,2031.0,69.0,-4.0,
2082.0,2083.0,69.0,-5.0,
2082.0,2111.0,69.0,-5.0,
2103.0,2118.0,69.0,-5.0,
2064.0,2072.0,69.0,-5.0,
2035.0,2060.0,69.0,-5.0,
2050.0,2084.0,69.0,-5.0,
2072.0,2104.0,69.0,-5.0,
2085.0,2107.0,69.0,-5.0,
2100.0,2108.0,69.0,-5.0,
2109.0,2117.0,69.0,-5.0,
2089.0,2108.0,69.0,-5.0,
2081.0,2095.0,69.0,-5.0,
2054.0,2058.0,69.0,-5.0,
2054.0,2106.0,69.0,-4.0,
2081.0,2041.0,69.0,-4.0,
2099.0,2081.0,69.0,-4.0,
2070.0,2146.0,69.0,-4.0,
2110.0,2014.0,69.0,-4.0,
2104.0,2028.0,69.0,-4.0,
2109.0,2083.0,69.0,-4.0,
2103.0,2074.0,69.0,-5.0,
2052.0,2065.0,69.0,-5.0,
2041.0,2084.0,69.0,-5.0,
2066.0,2086.0,69.0,-5.0,
2103.0,2012.0,69.0,-4.0,
2125.0,2012.0,69.0,-4.0,
2138.0,2153.0,69.0,-4.0,
2113.0,2095.0,69.0,-4.0,
2069.0,2000.0,69.0,-4.0,
2056.0,2066.0,69.0,-4.0,
2037.0,2076.0,69.0,-4.0,
2049.0,2086.0,69.0,-4.0,
2052.0,2076.0,69.0,-4.0,
2077.0,2089.0,69.0,-4.0,
2111.0,2125.0,69.0,-4.0,
2130.0,2154.0,69.0,-4.0,
2089.0,2056.0,69.0,-4.0,
2049.0,2089.0,69.0,-4.0,
2050.0,2080.0,69.0,-4.0,
2081.0,2079.0,69.0,-4.0,
2036.0,2105.0,69.0,-5.0,
2029.0,2063.0,69.0,-4.0,
2110.0,2076.0,69.0,-4.0,
2116.0,2098.0,69.0,-5.0,
2160.0,2072.0,69.0,-5.0,
2108.0,2084.0,69.0,-5.0,
2094.0,2092.0,69.0,-5.0,
2057.0,2087.0,70.0,-5.0,
2064.0,2030.0,69.0,-5.0,
2054.0,2109.0,70.0,-5.0,
2094.0,2139.0,69.0,-5.0,
2096.0,2052.0,69.0,-5.0,
2126.0,2120.0,70.0,-5.0,
2108.0,2052.0,70.0,-5.0,
2074.0,2012.0,70.0,-5.0,
2064.0,2098.0,70.0,-5.0,
2033.0,1929.0,69.0,-5.0,
2015.0,2048.0,70.0,-5.0,
2044.0,2035.0,70.0,-4.0,
2100.0,2103.0,70.0,-4.0,
2111.0,2099.0,70.0,-4.0,
2112.0,2090.0,70.0,-4.0,
2117.0,2128.0,69.0,-4.0,
2080.0,2176.0,69.0,-4.0,
2056.0,2042.0,69.0,-4.0,
2043.0,2074.0,69.0,-4.0,
2085.0,2081.0,69.0,-4.0,
2091.0,2088.0,69.0,-4.0,
2111.0,2087.0,69.0,-4.0,
2116.0,2106.0,69.0,-4.0,
2108.0,2143.0,69.0,-4.0,
2086.0,2111.0,69.0,-4.0,
2053.0,2107.0,69.0,-4.0,
2061.0,2022.0,69.0,-4.0,
2088.0,2027.0,69.0,-4.0,
2028.0,2068.0,69.0,-4.0,
2057.0,2033.0,69.0,-4.0,
2051.0,2089.0,69.0,-4.0,
2082.0,2161.0,0,
2118.0,2076.0,69.0,-4.0,
2088.0,2027.0,69.0,-4.0,
2064.0,2025.0,69.0,-4.0,
2061.0,2060.0,69.0,-4.0,
2031.0,2109.0,69.0,-4.0,
2031.0,2071.0,69.0,-4.0,
2047.0,2072.0,69.0,-4.0,
2071.0,2072.0,69.0,-4.0,
2085.0,2112.0,69.0,-4.0,
2115.0,2110.0,69.0,-4.0,
2108.0,2103.0,69.0,-4.0,
2079.0,2076.0,69.0,-4.0,
2050.0,2062.0,69.0,-4.0,
2059.0,2077.0,69.0,-4.0,
2054.0,2109.0,69.0,-4.0,
2069.0,2021.0,69.0,-4.0,
2111.0,2081.0,69.0,-4.0,
2104.0,2100.0,69.0,-4.0,
2120.0,2123.0,69.0,-4.0,
2084.0,2029.0,69.0,-4.0,
2044.0,2075.0,69.0,-4.0,
2036.0,2080.0,69.0,-4.0,
2052.0,2072.0,69.0,-4.0,
2055.0,2069.0,69.0,-4.0,
2073.0,2157.0,69.0,-4.0,
2121.0,2080.0,69.0,-4.0,
2091.0,2026.0,69.0,-4.0,
2119.0,2092.0,69.0,-4.0,
2122.0,2037.0,69.0,-4.0,
2011.0,2011.0,69.0,-4.0,
2030.0,2057.0,69.0,-4.0,
2063.0,2009.0,69.0,-4.0,
2070.0,2066.0,69.0,-4.0,
2101.0,2164.0,69.0,-4.0,
2126.0,2108.0,69.0,-4.0,
2142.0,2053.0,69.0,-4.0,
2094.0,2062.0,69.0,-4.0,
2050.0,2101.0,69.0,-4.0,
2052.0,2089.0,69.0,-4.0,
2043.0,2124.0,69.0,-4.0,
2057.0,2080.0,69.0,-4.0,
2133.0,2071.0,69.0,-5.0,
2104.0,2102.0,69.0,-5.0,
2096.0,2081.0,69.0,-5.0,
2108.0,2121.0,69.0,-5.0,
2091.0,2163.0,69.0,-4.0,
2100.0,2106.0,69.0,-4.0,
2057.0,2069.0,69.0,-4.0,
2027.0,2042.0,69.0,-4.0,
2072.0,2023.0,69.0,-4.0,
2022.0,2057.0,69.0,-4.0,
2073.0,2084.0,69.0,-4.0,
2124.0,2105.0,69.0,-4.0,
2100.0,2135.0,69.0,-4.0,
2084.0,2038.0,69.0,-4.0,
2069.0,2035.0,69.0,-4.0,
2036.0,2049.0,69.0,-4.0,
2027.0,2062.0,69.0,-4.0,
2038.0,2084.0,69.0,-4.0,
2076.0,2105.0,69.0,-4.0,
2133.0,2112.0,69.0,-4.0,
2111.0,2118.0,69.0,-4.0,
2110.0,2120.0,69.0,-4.0,
2099.0,2096.0,69.0,-4.0,
2055.0,2048.0,69.0,-4.0,
2036.0,2054.0,69.0,-4.0,
2047.0,2096.0,69.0,-4.0,
2073.0,2091.0,69.0,-4.0,
2061.0,1976.0,69.0,-4.0,
2101.0,2093.0,69.0,-4.0,
2108.0,2070.0,69.0,-4.0,
2114.0,2112.0,69.0,-4.0,
2095.0,2120.0,69.0,-4.0,
2091.0,2086.0,69.0,-4.0,
2049.0,1971.0,69.0,-4.0,
2074.0,2037.0,70.0,-4.0,
2075.0,2070.0,69.0,-4.0,
2091.0,2115.0,69.0,-4.0,
2099.0,2078.0,69.0,-4.0,
2108.0,2112.0,70.0,-4.0,
2088.0,2127.0,70.0,-4.0,
2052.0,2022.0,70.0,-4.0,
2046.0,2012.0,69.0,-4.0,
2066.0,2061.0,69.0,-4.0,
2066.0,2076.0,69.0,-5.0,
2107.0,2135.0,69.0,-5.0,
2093.0,2101.0,69.0,-5.0,
2103.0,2075.0,69.0,-5.0,
2114.0,2065.0,69.0,-5.0,
2111.0,2086.0,69.0,-4.0,
2064.0,2085.0,69.0,-5.0,
2043.0,2087.0,69.0,-5.0,
2056.0,2051.0,69.0,-5.0,
2101.0,2101.0,69.0,-5.0,
2099.0,2144.0,69.0,-4.0,
2090.0,2012.0,70.0,-4.0,
2127.0,2096.0,70.0,-4.0,
2113.0,2105.0,69.0,-4.0,
2096.0,2099.0,69.0,-4.0,
2057.0,2074.0,69.0,-4.0,
2037.0,2076.0,69.0,-4.0,
2034.0,2046.0,69.0,-4.0,
2064.0,2069.0,69.0,-4.0,
2067.0,2077.0,69.0,-4.0,
2114.0,2090.0,69.0,-4.0,
2146.0,2095.0,69.0,-4.0,
2105.0,2085.0,69.0,-4.0,
2096.0,2079.0,69.0,-4.0,
2065.0,2107.0,69.0,-4.0,
2039.0,2078.0,69.0,-4.0,
2036.0,2117.0,69.0,-4.0,
2098.0,2082.0,69.0,-4.0,
2123.0,2063.0,69.0,-4.0,
2078.0,2042.0,69.0,-4.0,
2110.0,2081.0,69.0,-4.0,
2077.0,1983.0,69.0,-4.0,
2115.0,2165.0,69.0,-4.0,
2053.0,1978.0,69.0,-4.0,
2042.0,1896.0,69.0,-4.0,
2074.0,2003.0,69.0,-4.0,
2058.0,2083.0,69.0,-4.0,
2116.0,2085.0,69.0,-4.0,
2126.0,2186.0,69.0,-4.0,
2140.0,2108.0,70.0,-4.0,
2097.0,2027.0,69.0,-4.0,
2065.0,2032.0,69.0,-4.0,
2043.0,2051.0,69.0,-4.0,
2041.0,2088.0,69.0,-4.0,
2054.0,2088.0,69.0,-4.0,
2094.0,2078.0,69.0,-5.0,
2114.0,2103.0,69.0,-5.0,
2136.0,2150.0,69.0,-5.0,
2132.0,2163.0,69.0,-5.0,
2081.0,2062.0,69.0,-5.0,
2076.0,2091.0,69.0,-4.0,
2035.0,2106.0,69.0,-4.0,
2063.0,2117.0,69.0,-4.0,
2046.0,2030.0,69.0,-5.0,
2082.0,2089.0,69.0,-4.0,
2098.0,2064.0,69.0,-4.0,
2116.0,2110.0,69.0,-4.0,
2087.0,2076.0,69.0,-5.0,
2075.0,2071.0,69.0,-5.0,
2067.0,2050.0,69.0,-4.0,
2071.0,2057.0,69.0,-4.0,
2054.0,2079.0,69.0,-5.0,
2077.0,2106.0,69.0,-5.0,
2098.0,2067.0,69.0,-5.0,
2117.0,2094.0,69.0,-5.0,
2123.0,2142.0,69.0,-5.0,
2077.0,2004.0,69.0,-5.0,
2074.0,2079.0,69.0,-5.0,
2072.0,2108.0,69.0,-4.0,
2036.0,1997.0,69.0,-5.0,
2029.0,2026.0,69.0,-5.0,
2062.0,2079.0,69.0,-5.0,
2110.0,2072.0,69.0,-5.0,
2111.0,2096.0,69.0,-5.0,
2127.0,2076.0,69.0,-4.0,
2097.0,2088.0,69.0,-4.0,
2094.0,2115.0,69.0,-5.0,
2069.0,2115.0,69.0,-5.0,
2046.0,2046.0,69.0,-5.0,
2059.0,2058.0,69.0,-5.0,
2092.0,2106.0,69.0,-4.0,
2100.0,2074.0,69.0,-4.0,
2123.0,2121.0,69.0,-4.0,
2122.0,2011.0,69.0,-4.0,
2084.0,2093.0,69.0,-4.0,
2060.0,2094.0,69.0,-4.0,
2064.0,2089.0,69.0,-4.0,
2027.0,2066.0,69.0,-4.0,
2039.0,2040.0,69.0,-4.0,
2085.0,2097.0,69.0,-4.0,
2114.0,2127.0,69.0,-4.0,
2169.0,2132.0,69.0,-4.0,
2098.0,2016.0,69.0,-4.0,
2059.0,2059.0,69.0,-4.0,
2062.0,2123.0,69.0,-4.0,
2041.0,1985.0,69.0,-4.0,
2047.0,2023.0,69.0,-4.0,
2048.0,2103.0,69.0,-4.0,
2085.0,2058.0,69.0,-4.0,
2119.0,2074.0,69.0,-4.0,
2106.0,2104.0,69.0,-4.0,
2097.0,2120.0,69.0,-4.0,
2101.0,2086.0,69.0,-4.0,
2053.0,2052.0,69.0,-4.0,
2081.0,2075.0,69.0,-4.0,
2068.0,2093.0,69.0,-4.0,
2081.0,2059.0,69.0,-4.0,
2114.0,2115.0,69.0,-4.0,
2119.0,2088.0,69.0,-4.0,
2096.0,2085.0,69.0,-4.0,
2108.0,2093.0,69.0,-4.0,
2084.0,2077.0,69.0,-4.0,
2045.0,2056.0,69.0,-4.0,
2045.0,2092.0,69.0,-4.0,
2051.0,2065.0,69.0,-4.0,
2084.0,2100.0,69.0,-4.0,
2089.0,2127.0,69.0,-4.0,
2167.0,2111.0,69.0,-4.0,
2161.0,2082.0,69.0,-4.0,
2114.0,2018.0,69.0,-4.0,
2078.0,2038.0,69.0,-4.0,
2053.0,2037.0,69.0,-4.0,
2027.0,2086.0,69.0,-4.0,
2065.0,1982.0,69.0,-4.0,
2069.0,2055.0,69.0,-4.0,
2109.0,2134.0,69.0,-4.0,
2127.0,2058.0,69.0,-4.0,
2099.0,2033.0,69.0,-4.0,
2075.0,2041.0,69.0,-4.0,
2068.0,2082.0,69.0,-4.0,
2063.0,2052.0,69.0,-4.0,
2059.0,2082.0,69.0,-4.0,
2076.0,2080.0,69.0,-4.0,
2087.0,2116.0,69.0,-4.0,
2116.0,2131.0,69.0,-4.0,
2122.0,2103.0,69.0,-4.0,
2089.0,2072.0,69.0,-4.0,
2097.0,2096.0,69.0,-4.0,
2090.0,2105.0,69.0,-4.0,
2049.0,2095.0,69.0,-4.0,
2074.0,2064.0,69.0,-4.0,
2077.0,2091.0,69.0,-4.0,
2099.0,2099.0,69.0,-4.0,
2105.0,2100.0,69.0,-4.0,
2126.0,2127.0,69.0,-4.0,
2106.0,2178.0,69.0,-4.0,
2085.0,2177.0,69.0,-4.0,
2048.0,1955.0,69.0,-4.0,
2060.0,2067.0,69.0,-4.0,
2112.0,2066.0,69.0,-4.0,
2104.0,1927.0,69.0,-4.0,
2073.0,2035.0,69.0,-4.0,
2080.0,2011.0,69.0,-4.0,
2099.0,2077.0,69.0,-4.0,
2067.0,2058.0,69.0,-4.0,
2072.0,2083.0,69.0,-4.0,
2058.0,2082.0,69.0,-4.0,
2051.0,2038.0,69.0,-4.0,
2054.0,2081.0,69.0,-4.0,
2081.0,2111.0,69.0,-4.0,
2100.0,2125.0,69.0,-4.0,
2122.0,2127.0,69.0,-4.0,
2119.0,2063.0,69.0,-4.0,
2083.0,2083.0,69.0,-4.0,
2055.0,2098.0,69.0,-4.0,
2040.0,2122.0,69.0,-4.0,
2060.0,2035.0,69.0,-4.0,
2043.0,2059.0,69.0,-4.0,
2100.0,2147.0,69.0,-4.0,
2128.0,2136.0,69.0,-4.0,
2128.0,2044.0,69.0,-4.0,
2106.0,2058.0,69.0,-4.0,
2088.0,2153.0,69.0,-4.0,
2073.0,2010.0,69.0,-4.0,
2025.0,1990.0,69.0,-4.0,
2025.0,2076.0,69.0,-4.0,
2056.0,2108.0,69.0,-4.0,
2100.0,2010.0,69.0,-4.0,
2147.0,2077.0,69.0,-4.0,
2129.0,2134.0,69.0,-4.0,
2117.0,2157.0,69.0,-4.0,
2081.0,2078.0,69.0,-4.0,
2042.0,1981.0,69.0,-4.0,
2014.0,2045.0,69.0,-4.0,
2043.0,2048.0,69.0,-4.0,
2070.0,2075.0,69.0,-4.0,
2098.0,2097.0,69.0,-4.0,
2151.0,2104.0,69.0,-4.0,
2138.0,2118.0,69.0,-4.0,
2141.0,2126.0,69.0,-4.0,
2071.0,2108.0,69.0,-4.0,
2008.0,1995.0,69.0,-4.0,
2014.0,2057.0,69.0,-4.0,
2043.0,2061.0,69.0,-4.0,
2080.0,2112.0,69.0,-4.0,
2135.0,2078.0,70.0,-4.0,
2144.0,2021.0,69.0,-4.0,
2139.0,2068.0,69.0,-4.0,
2106.0,2074.0,69.0,-4.0,
2079.0,2076.0,69.0,-4.0,
2058.0,2122.0,69.0,-4.0,
2068.0,2042.0,69.0,-4.0,
2056.0,2057.0,69.0,-4.0,
2078.0,2056.0,69.0,-4.0,
2111.0,2080.0,69.0,-4.0,
2128.0,2095.0,69.0,-5.0,
2136.0,2119.0,69.0,-5.0,
2095.0,2167.0,69.0,-5.0,
2076.0,2111.0,69.0,-5.0,
2069.0,2144.0,69.0,-5.0,
2035.0,2029.0,70.0,-5.0,
2046.0,1962.0,70.0,-5.0,
2061.0,1973.0,70.0,-5.0,
2087.0,2040.0,70.0,-5.0,
2114.0,2092.0,70.0,-5.0,
2159.0,2159.0,69.0,-5.0,
2092.0,2066.0,69.0,-5.0,
2037.0,2013.0,69.0,-5.0,
2047.0,2044.0,69.0,-5.0,
2010.0,2051.0,69.0,-5.0,
2097.0,2109.0,69.0,-5.0,
2092.0,2127.0,69.0,-5.0,
2108.0,2107.0,69.0,-5.0,
2112.0,2090.0,69.0,-5.0,
2085.0,2076.0,69.0,-5.0,
2071.0,2165.0,69.0,-4.0,
2047.0,2149.0,69.0,-4.0,
2037.0,2041.0,69.0,-4.0,
2046.0,1983.0,69.0,-4.0,
2083.0,2086.0,69.0,-4.0,
2100.0,2073.0,69.0,-4.0,
2113.0,2078.0,69.0,-4.0,
2152.0,2153.0,69.0,-4.0,
2112.0,2136.0,0,
2065.0,1996.0,69.0,-4.0,
2050.0,2153.0,69.0,-4.0,
2038.0,1973.0,69.0,-4.0,
2046.0,2039.0,69.0,-4.0,
2065.0,2139.0,69.0,-4.0,
2111.0,2099.0,69.0,-4.0,
2115.0,2016.0,69.0,-4.0,
2144.0,2051.0,69.0,-4.0,
2105.0,2065.0,69.0,-4.0,
2066.0,2069.0,69.0,-4.0,
2046.0,2072.0,69.0,-4.0,
2060.0,2090.0,69.0,-4.0,
2064.0,2122.0,69.0,-4.0,
2075.0,2056.0,69.0,-4.0,
2094.0,2062.0,69.0,-4.0,
2087.0,2079.0,69.0,-4.0,
2118.0,2106.0,69.0,-4.0,
2088.0,2067.0,69.0,-4.0,
2048.0,2101.0,69.0,-4.0,
2020.0,2079.0,69.0,-4.0,
2038.0,2067.0,69.0,-4.0,
2080.0,2127.0,69.0,-4.0,
2075.0,2066.0,69.0,-4.0,
2074.0,2069.0,69.0,-4.0,
2076.0,2047.0,69.0,-4.0,
2071.0,2075.0,69.0,-4.0,
2064.0,2038.0,69.0,-4.0,
2079.0,2080.0,69.0,-4.0,
2062.0,2160.0,69.0,-4.0,
2044.0,2062.0,69.0,-5.0,
2026.0,1905.0,69.0,-5.0,
2089.0,2056.0,69.0,-5.0,
2132.0,2076.0,69.0,-5.0,
2119.0,2100.0,69.0,-5.0,
2114.0,2125.0,69.0,-5.0,
2100.0,2162.0,69.0,-5.0,
2047.0,2047.0,69.0,-5.0,
2056.0,2086.0,69.0,-5.0,
2074.0,2050.0,69.0,-5.0,
2086.0,2047.0,69.0,-5.0,
2138.0,2076.0,69.0,-5.0,
2122.0,2097.0,69.0,-5.0,
2136.0,2105.0,69.0,-5.0,
2089.0,2106.0,69.0,-5.0,
2067.0,2101.0,69.0,-5.0,
2018.0,2015.0,69.0,-5.0,
2048.0,1998.0,69.0,-5.0,
2072.0,2049.0,69.0,-5.0,
2080.0,2088.0,69.0,-5.0,
2104.0,2134.0,69.0,-5.0,
2109.0,2064.0,69.0,-4.0,
2121.0,2094.0,69.0,-4.0,
2093.0,2098.0,69.0,-4.0,
2047.0,2095.0,69.0,-4.0,
2059.0,2081.0,69.0,-4.0,
2046.0,2088.0,69.0,-4.0,
2054.0,2090.0,69.0,-4.0,
2110.0,2105.0,0,
2125.0,2133.0,69.0,-4.0,
2123.0,2150.0,69.0,-4.0,
2096.0,2029.0,69.0,-4.0,
2070.0,2057.0,69.0,-4.0,
2057.0,2116.0,69.0,-4.0,
2043.0,2048.0,69.0,-4.0,
2052.0,2048.0,69.0,-4.0,
2048.0,1982.0,69.0,-4.0,
2082.0,2046.0,69.0,-4.0,
2121.0,2096.0,69.0,-4.0,
2128.0,2101.0,69.0,-4.0,
2096.0,2054.0,69.0,-4.0,
2060.0,2076.0,69.0,-4.0,
2059.0,2032.0,69.0,-4.0,
2036.0,2027.0,69.0,-4.0,
2065.0,2096.0,69.0,-4.0,
2076.0,2090.0,69.0,-4.0,
2082.0,2085.0,69.0,-4.0,
2116.0,2092.0,69.0,-4.0,
2098.0,2066.0,69.0,-4.0,
2109.0,2033.0,69.0,-4.0,
2064.0,2076.0,69.0,-4.0,
2036.0,2133.0,69.0,-4.0,
2025.0,2065.0,69.0,-4.0,
2053.0,2066.0,69.0,-4.0,
2095.0,2084.0,69.0,-4.0,
2083.0,2085.0,69.0,-4.0,
2134.0,2107.0,69.0,-4.0,
2145.0,2081.0,69.0,-4.0,
2079.0,2116.0,69.0,-4.0,
2074.0,2152.0,69.0,-4.0,
2048.0,2021.0,69.0,-4.0,
2013.0,2055.0,69.0,-4.0,
2067.0,2076.0,69.0,-4.0,
2078.0,2052.0,69.0,-4.0,
2112.0,2065.0,69.0,-4.0,
2138.0,2128.0,69.0,-4.0,
2104.0,2101.0,69.0,-4.0,
2063.0,2024.0,69.0,-4.0,
2069.0,2055.0,69.0,-4.0,
2040.0,2065.0,69.0,-4.0,
2055.0,2080.0,69.0,-4.0,
2081.0,2088.0,69.0,-4.0,
2110.0,2129.0,69.0,-4.0,
2120.0,2141.0,69.0,-4.0,
2079.0,2059.0,69.0,-4.0,
2069.0,2095.0,69.0,-4.0,
2057.0,2055.0,69.0,-4.0,
2034.0,2084.0,69.0,-4.0,
2043.0,2050.0,69.0,-4.0,
2053.0,2048.0,69.0,-4.0,
2066.0,2070.0,69.0,-4.0,
2090.0,2094.0,69.0,-5.0,
2099.0,2070.0,69.0,-4.0,
2114.0,2081.0,69.0,-4.0,
2094.0,2082.0,69.0,-5.0,
2088.0,2075.0,69.0,-5.0,
2031.0,2064.0,69.0,-5.0,
2053.0,2078.0,69.0,-5.0,
2068.0,2121.0,69.0,-5.0,
2088.0,2099.0,69.0,-5.0,
2104.0,2081.0,69.0,-4.0,
2101.0,2169.0,69.0,-4.0,
2139.0,2054.0,69.0,-4.0,
2085.0,1993.0,70.0,-4.0,
2053.0,2036.0,70.0,-4.0,
2029.0,2004.0,70.0,-4.0,
2053.0,2039.0,70.0,-4.0,
2067.0,2038.0,70.0,-4.0,
2081.0,2024.0,70.0,-4.0,
2122.0,2054.0,70.0,-4.0,
2126.0,2113.0,70.0,-4.0,
2100.0,2116.0,70.0,-4.0,
2105.0,2092.0,70.0,-4.0,
2070.0,2103.0,70.0,-4.0,
2037.0,2098.0,70.0,-4.0,
2050.0,2084.0,69.0,-4.0,
2068.0,2106.0,69.0,-4.0,
2095.0,2144.0,69.0,-4.0,
2116.0,2075.0,70.0,-4.0,
2121.0,2104.0,69.0,-4.0,
2107.0,2108.0,69.0,-4.0,
2131.0,2174.0,69.0,-4.0,
2094.0,2002.0,69.0,-4.0,
2035.0,1979.0,69.0,-4.0,
2013.0,2022.0,69.0,-4.0,
2069.0,2080.0,69.0,-4.0,
2068.0,2057.0,69.0,-4.0,
2092.0,2092.0,69.0,-4.0,
2114.0,2104.0,69.0,-4.0,
2067.0,2093.0,69.0,-4.0,
2054.0,2060.0,69.0,-4.0,
2048.0,2060.0,69.0,-4.0,
2057.0,2114.0,69.0,-4.0,
2054.0,2042.0,69.0,-4.0,
2073.0,2047.0,69.0,-4.0,
2133.0,2099.0,69.0,-4.0,
2099.0,2124.0,69.0,-4.0,
2126.0,2140.0,69.0,-4.0,
2084.0,2069.0,69.0,-5.0,
2067.0,2060.0,69.0,-5.0,
2036.0,2062.0,69.0,-4.0,
2056.0,2098.0,69.0,-5.0,
2073.0,2085.0,69.0,-5.0,
2114.0,2151.0,69.0,-5.0,
2078.0,2041.0,69.0,-5.0,
2097.0,2026.0,69.0,-5.0,
2112.0,2056.0,69.0,-4.0,
2099.0,2109.0,69.0,-4.0,
2056.0,2063.0,69.0,-4.0,
2047.0,2081.0,69.0,-4.0,
2037.0,2021.0,69.0,-5.0,
2045.0,2032.0,69.0,-5.0,
2099.0,2087.0,69.0,-4.0,
2168.0,2116.0,69.0,-4.0,
2128.0,2076.0,69.0,-4.0,
2147.0,2102.0,69.0,-4.0,
2070.0,2088.0,69.0,-4.0,
2049.0,2065.0,69.0,-5.0,
2045.0,2067.0,69.0,-5.0,
2049.0,2080.0,69.0,-4.0,
2052.0,2107.0,69.0,-4.0,
2111.0,2070.0,69.0,-4.0,
2127.0,2098.0,69.0,-4.0,
2111.0,2106.0,69.0,-4.0,
2086.0,2127.0,69.0,-4.0,
2061.0,2069.0,69.0,-4.0,
2043.0,2065.0,69.0,-4.0,
2045.0,2135.0,69.0,-4.0,
2029.0,2067.0,69.0,-4.0,
2066.0,1973.0,69.0,-4.0,
2111.0,2104.0,69.0,-4.0,
2129.0,2044.0,69.0,-4.0,
2118.0,2062.0,69.0,-4.0,
2094.0,2112.0,69.0,-4.0,
2073.0,2084.0,69.0,-4.0,
2036.0,2031.0,69.0,-4.0,
2035.0,2018.0,69.0,-4.0,
2053.0,2046.0,69.0,-4.0,
2066.0,2080.0,69.0,-4.0,
2097.0,2072.0,69.0,-4.0,
2121.0,2094.0,69.0,-4.0,
2118.0,2085.0,69.0,-4.0,
2089.0,2080.0,69.0,-4.0,
2091.0,2091.0,69.0,-4.0,
2034.0,2066.0,69.0,-4.0,
2035.0,2127.0,69.0,-4.0,
2056.0,2150.0,69.0,-4.0,
2084.0,2130.0,69.0,-4.0,
2090.0,2029.0,69.0,-4.0,
2110.0,2118.0,69.0,-4.0,
2135.0,2044.0,69.0,-4.0,
2049.0,1935.0,69.0,-4.0,
2040.0,2010.0,69.0,-4.0,
2070.0,1973.0,69.0,-4.0,
2034.0,2087.0,69.0,-4.0,
2071.0,2109.0,69.0,-4.0,
2085.0,2087.0,69.0,-4.0,
2156.0,2078.0,69.0,-4.0,
2121.0,2087.0,69.0,-4.0,
2100.0,2141.0,69.0,-4.0,
2079.0,2069.0,69.0,-4.0,
2064.0,2017.0,69.0,-4.0,
2051.0,2069.0,69.0,-4.0,
2062.0,2074.0,69.0,-4.0,
2067.0,2090.0,69.0,-4.0,
2094.0,2102.0,69.0,-4.0,
2101.0,2108.0,69.0,-4.0,
2118.0,2109.0,69.0,-4.0,
2117.0,2105.0,69.0,-4.0,
2111.0,2119.0,69.0,-4.0,
2092.0,2141.0,69.0,-4.0,
2054.0,2054.0,69.0,-5.0,
2045.0,2071.0,69.0,-4.0,
2074.0,2100.0,69.0,-5.0,
2093.0,2051.0,69.0,-5.0,
2097.0,2035.0,69.0,-5.0,
2085.0,2093.0,69.0,-4.0,
2116.0,2117.0,69.0,-4.0,
2085.0,2033.0,69.0,-4.0,
2077.0,2021.0,69.0,-4.0,
2079.0,2063.0,69.0,-4.0,
2065.0,2056.0,69.0,-4.0,
2079.0,2091.0,69.0,-4.0,
2113.0,2076.0,69.0,-4.0,
2133.0,2105.0,69.0,-4.0,
2107.0,2104.0,69.0,-4.0,
2077.0,2024.0,69.0,-4.0,
2071.0,2056.0,69.0,-4.0,
2047.0,2057.0,69.0,-4.0,
2027.0,2074.0,69.0,-4.0,
2056.0,2080.0,69.0,-4.0,
2071.0,2096.0,69.0,-4.0,
2087.0,2092.0,69.0,-4.0,
2100.0,2106.0,69.0,-4.0,
2100.0,2139.0,69.0,-4.0,
2128.0,2139.0,69.0,-5.0,
2060.0,2151.0,69.0,-4.0,
2038.0,2102.0,69.0,-4.0,
2033.0,2029.0,69.0,-5.0,
2055.0,2041.0,70.0,-5.0,
2066.0,1862.0,70.0,-4.0,
2107.0,1988.0,70.0,-4.0,
2118.0,2079.0,70.0,-4.0,
2127.0,2182.0,69.0,-4.0,
2081.0,1958.0,69.0,-4.0,
2056.0,2079.0,70.0,-4.0,
2071.0,2108.0,70.0,-4.0,
2062.0,1994.0,70.0,-4.0,
2110.0,2066.0,70.0,-4.0,
2109.0,2099.0,69.0,-4.0,
2119.0,2124.0,69.0,-4.0,
2134.0,2102.0,69.0,-4.0,
2090.0,2101.0,69.0,-4.0,
2089.0,2102.0,69.0,-4.0,
2066.0,2104.0,69.0,-4.0,
2053.0,2084.0,69.0,-4.0,
2064.0,2083.0,69.0,-4.0,
2078.0,2134.0,69.0,-4.0,
2118.0,2114.0,69.0,-5.0,
2154.0,2093.0,69.0,-4.0,
2120.0,2110.0,69.0,-5.0,
2111.0,2181.0,69.0,-5.0,
2064.0,2132.0,69.0,-5.0,
2032.0,2084.0,69.0,-5.0,
1987.0,1910.0,69.0,-5.0,
2038.0,1896.0,69.0,-5.0,
2075.0,1995.0,69.0,-5.0,
2131.0,2052.0,69.0,-5.0,
2153.0,2083.0,69.0,-5.0,
2113.0,2085.0,69.0,-5.0,
2106.0,2078.0,69.0,-4.0,
2045.0,2060.0,69.0,-4.0,
2043.0,2076.0,69.0,-4.0,
2058.0,2069.0,69.0,-4.0,
2099.0,2105.0,69.0,-4.0,
2110.0,2139.0,69.0,-4.0,
2118.0,2115.0,69.0,-4.0,
2106.0,2048.0,69.0,-4.0,
2096.0,2107.0,69.0,-4.0,
2088.0,2115.0,69.0,-4.0,
2062.0,2083.0,69.0,-4.0,
2016.0,2045.0,69.0,-4.0,
2056.0,2029.0,69.0,-4.0,
2084.0,2095.0,69.0,-4.0,
2100.0,2059.0,69.0,-4.0,
2113.0,2084.0,69.0,-4.0,
2113.0,2091.0,69.0,-5.0,
2090.0,2082.0,69.0,-4.0,
2062.0,2092.0,70.0,-4.0,
2047.0,2043.0,69.0,-4.0,
2039.0,2063.0,69.0,-4.0,
2059.0,2066.0,69.0,-4.0,
2093.0,2091.0,69.0,-4.0,
2115.0,2087.0,69.0,-4.0,
2108.0,2101.0,69.0,-4.0,
2124.0,2094.0,69.0,-4.0,
2091.0,2090.0,70.0,-4.0,
2073.0,2144.0,69.0,-4.0,
2077.0,2102.0,69.0,-4.0,
2042.0,2120.0,70.0,-5.0,
2069.0,2016.0,70.0,-4.0,
2118.0,1985.0,70.0,-4.0,
2118.0,2012.0,70.0,-4.0,
2132.0,2006.0,70.0,-4.0,
2128.0,2074.0,70.0,-4.0,
2109.0,2097.0,70.0,-4.0,
2070.0,2076.0,70.0,-4.0,
2068.0,2102.0,70.0,-4.0,
2056.0,2054.0,70.0,-4.0,
2072.0,2214.0,70.0,-4.0,
2094.0,1981.0,69.0,-4.0,
2119.0,2040.0,69.0,-4.0,
2107.0,2094.0,69.0,-4.0,
2104.0,2097.0,69.0,-4.0,
2111.0,2076.0,69.0,-4.0,
2053.0,2102.0,69.0,-4.0,
2045.0,2070.0,69.0,-4.0,
2081.0,2093.0,69.0,-4.0,
2068.0,2106.0,69.0,-4.0,
2086.0,2124.0,69.0,-4.0,
2117.0,2121.0,69.0,-4.0,
2104.0,2073.0,69.0,-4.0,
2074.0,2108.0,69.0,-4.0,
2078.0,2070.0,69.0,-4.0,
2019.0,2057.0,69.0,-4.0,
2047.0,1987.0,69.0,-5.0,
2053.0,2020.0,69.0,-5.0,
2081.0,2067.0,69.0,-4.0,
2100.0,2116.0,69.0,-4.0,
2108.0,2105.0,69.0,-4.0,
2111.0,2104.0,69.0,-4.0,
2059.0,2068.0,69.0,-4.0,
2055.0,2093.0,69.0,-4.0,
2043.0,2107.0,69.0,-4.0,
2049.0,2075.0,69.0,-4.0,
2062.0,2021.0,69.0,-4.0,
2100.0,2080.0,69.0,-4.0,
2115.0,2125.0,69.0,-4.0,
2118.0,2047.0,69.0,-4.0,
2110.0,2077.0,69.0,-4.0,
2083.0,2064.0,69.0,-4.0,
2063.0,2069.0,69.0,-4.0,
2050.0,2086.0,69.0,-4.0,
2059.0,2098.0,69.0,-4.0,
2056.0,2079.0,69.0,-4.0,
2078.0,2084.0,69.0,-4.0,
2105.0,2094.0,69.0,-4.0,
2114.0,2088.0,69.0,-4.0,
2110.0,2109.0,69.0,-4.0,
2097.0,2079.0,69.0,-4.0,
2060.0,2038.0,69.0,-4.0,
2063.0,2088.0,69.0,-4.0,
2068.0,2078.0,69.0,-4.0,
2077.0,2052.0,69.0,-4.0,
2097.0,2076.0,69.0,-4.0,
2099.0,2076.0,69.0,-4.0,
2096.0,2037.0,69.0,-4.0,
2074.0,2039.0,69.0,-4.0,
2058.0,2060.0,69.0,-5.0,
2051.0,2082.0,69.0,-5.0,
2028.0,2050.0,69.0,-4.0,
2049.0,2052.0,69.0,-4.0,
2071.0,2013.0,69.0,-4.0,
2117.0,2072.0,70.0,-5.0,
2153.0,2069.0,70.0,-5.0,
2105.0,2106.0,69.0,-5.0,
2071.0,2117.0,70.0,-5.0,
2059.0,2063.0,70.0,-5.0,
2059.0,2001.0,70.0,-5.0,
2069.0,2039.0,70.0,-5.0,
2093.0,2067.0,70.0,-5.0,
2117.0,2150.0,70.0,-5.0,
2118.0,2064.0,70.0,-5.0,
2110.0,2059.0,70.0,-5.0,
2105.0,2064.0,70.0,-5.0,
2085.0,2099.0,70.0,-5.0,
2071.0,2114.0,69.0,-5.0,
2054.0,2076.0,69.0,-5.0,
2073.0,2090.0,69.0,-5.0,
2045.0,2047.0,69.0,-5.0,
2072.0,2094.0,69.0,-5.0,
2116.0,2051.0,69.0,-5.0,
2101.0,2087.0,69.0,-5.0,
2095.0,2099.0,69.0,-5.0,
2066.0,2084.0,69.0,-5.0,
2087.0,2120.0,69.0,-4.0,
2091.0,2047.0,69.0,-4.0,
2070.0,2051.0,69.0,-4.0,
2066.0,2019.0,69.0,-4.0,
2095.0,2060.0,69.0,-4.0,
2114.0,2087.0,69.0,-4.0,
2125.0,2102.0,69.0,-4.0,
2107.0,2106.0,69.0,-4.0,
2087.0,2079.0,69.0,-4.0,
2059.0,2109.0,69.0,-4.0,
2045.0,2051.0,69.0,-4.0,
2030.0,2079.0,69.0,-4.0,
2084.0,2079.0,69.0,-4.0,
2110.0,2089.0,69.0,-4.0,
2120.0,2011.0,69.0,-4.0,
2094.0,1993.0,69.0,-4.0,
2070.0,2043.0,69.0,-5.0,
2101.0,2081.0,69.0,-5.0,
2063.0,2134.0,69.0,-5.0,
2038.0,2078.0,69.0,-5.0,
2051.0,2017.0,69.0,-5.0,
2069.0,2036.0,69.0,-4.0,
2135.0,2065.0,69.0,-4.0,
2129.0,2119.0,69.0,-4.0,
2119.0,2126.0,69.0,-4.0,
2125.0,2097.0,69.0,-4.0,
2068.0,2115.0,69.0,-4.0,
2056.0,2000.0,69.0,-4.0,
2039.0,2037.0,69.0,-4.0,
2057.0,2051.0,69.0,-5.0,
2057.0,2089.0,69.0,-5.0,
2080.0,2109.0,69.0,-5.0,
2105.0,2100.0,69.0,-5.0,
2095.0,2095.0,69.0,-5.0,
2111.0,2106.0,69.0,-5.0,
2088.0,2114.0,69.0,-5.0,
2052.0,2102.0,69.0,-5.0,
2056.0,2054.0,69.0,-5.0,
2086.0,2061.0,69.0,-5.0,
2071.0,2138.0,69.0,-5.0,
2130.0,2090.0,69.0,-5.0,
2117.0,2006.0,69.0,-5.0,
2087.0,2014.0,69.0,-5.0,
2064.0,2060.0,69.0,-5.0,
2049.0,2029.0,69.0,-5.0,
2010.0,2062.0,69.0,-4.0,
2019.0,2078.0,69.0,-4.0,
2104.0,2041.0,69.0,-4.0,
2136.0,2044.0,69.0,-4.0,
2131.0,2105.0,69.0,-4.0,
2130.0,2177.0,69.0,-4.0,
2107.0,2048.0,69.0,-4.0,
2057.0,2075.0,69.0,-4.0,
2021.0,2140.0,69.0,-4.0,
2037.0,2061.0,69.0,-4.0,
2032.0,2036.0,69.0,-4.0,
2081.0,2051.0,69.0,-5.0,
2097.0,2093.0,69.0,-4.0,
2107.0,2096.0,69.0,-4.0,
2110.0,2104.0,69.0,-4.0,
2090.0,2088.0,69.0,-4.0,
2067.0,2095.0,69.0,-5.0,
2049.0,2047.0,69.0,-4.0,
2042.0,2068.0,69.0,-4.0,
2089.0,2105.0,69.0,-4.0,
2115.0,2118.0,69.0,-4.0,
2052.0,2054.0,70.0,-4.0,
2093.0,2078.0,70.0,-4.0,
2102.0,2119.0,70.0,-4.0,
2072.0,2083.0,70.0,-4.0,
2060.0,2121.0,70.0,-4.0,
2049.0,2043.0,70.0,-4.0,
2100.0,2084.0,70.0,-4.0,
2062.0,2019.0,70.0,-4.0,
2087.0,1985.0,70.0,-4.0,
2104.0,2080.0,70.0,-4.0,
2142.0,2034.0,70.0,-4.0,
2108.0,2073.0,70.0,-4.0,
2075.0,2059.0,70.0,-5.0,
2056.0,2079.0,70.0,-5.0,
2026.0,2089.0,69.0,-5.0,
2064.0,2074.0,69.0,-5.0,
2073.0,2060.0,69.0,-5.0,
2097.0,2149.0,69.0,-5.0,
2148.0,2091.0,69.0,-5.0,
2156.0,2106.0,69.0,-5.0,
2123.0,2041.0,69.0,-5.0,
2108.0,2053.0,69.0,-5.0,
2065.0,2064.0,69.0,-5.0,
2055.0,2071.0,69.0,-5.0,
2044.0,2094.0,69.0,-5.0,
2082.0,2101.0,69.0,-5.0,
2101.0,2099.0,69.0,-5.0,
2123.0,2127.0,69.0,-5.0,
2115.0,2078.0,69.0,-5.0,
2091.0,2060.0,69.0,-5.0,
2067.0,2076.0,69.0,-5.0,
2069.0,2086.0,69.0,-4.0,
2068.0,2138.0,69.0,-4.0,
2047.0,2003.0,69.0,-4.0,
2068.0,2061.0,69.0,-4.0,
2116.0,2066.0,69.0,-4.0,
2100.0,2064.0,69.0,-4.0,
2087.0,2093.0,69.0,-4.0,
2071.0,2073.0,69.0,-4.0,
2055.0,2113.0,69.0,-4.0,
2041.0,2051.0,69.0,-4.0,
2015.0,2044.0,69.0,-4.0,
2072.0,2017.0,69.0,-4.0,
2110.0,2024.0,69.0,-4.0,
2149.0,2076.0,69.0,-4.0,
2164.0,2147.0,69.0,-4.0,
2117.0,2090.0,69.0,-5.0,
2097.0,2059.0,69.0,-5.0,
2089.0,2025.0,69.0,-5.0,
2063.0,2034.0,69.0,-4.0,
2055.0,2075.0,69.0,-4.0,
2051.0,2077.0,69.0,-4.0,
2082.0,2076.0,69.0,-4.0,
2137.0,2114.0,69.0,-4.0,
2129.0,2119.0,69.0,-5.0,
2112.0,2108.0,69.0,-4.0,
2100.0,2099.0,69.0,-4.0,
2056.0,2090.0,69.0,-4.0,
2032.0,2084.0,70.0,-4.0,
2051.0,2076.0,70.0,-4.0,
2077.0,2070.0,70.0,-4.0,
2131.0,2077.0,69.0,-4.0,
2125.0,2114.0,70.0,-4.0,
2118.0,2100.0,70.0,-4.0,
2100.0,2082.0,70.0,-4.0,
2088.0,2068.0,70.0,-4.0,
2048.0,2039.0,70.0,-4.0,
2012.0,2058.0,70.0,-4.0,
2044.0,2058.0,70.0,-4.0,
2068.0,2076.0,70.0,-4.0,
2087.0,2091.0,70.0,-4.0,
2116.0,2090.0,70.0,-4.0,
2085.0,2105.0,70.0,-4.0,
2047.0,2092.0,70.0,-4.0,
2011.0,2071.0,70.0,-4.0,
2049.0,2050.0,70.0,-4.0,
2046.0,2063.0,70.0,-4.0,
2090.0,2033.0,70.0,-4.0,
2136.0,2067.0,70.0,-4.0,
2140.0,1969.0,70.0,-4.0,
2118.0,2162.0,70.0,-4.0,
2144.0,2095.0,70.0,-4.0,
2096.0,2076.0,70.0,-4.0,
2042.0,2082.0,70.0,-4.0,
2041.0,2089.0,70.0,-4.0,
2075.0,2062.0,70.0,-4.0,
2159.0,2104.0,70.0,-5.0,
2200.0,2139.0,70.0,-4.0,
2185.0,2072.0,70.0,-4.0,
2157.0,2089.0,70.0,-4.0,
2091.0,2074.0,70.0,-4.0,
2060.0,2068.0,70.0,-5.0,
2037.0,2051.0,70.0,-4.0,
1978.0,2047.0,70.0,-5.0,
1982.0,2059.0,70.0,-4.0,
2030.0,2069.0,70.0,-4.0,
2110.0,2124.0,70.0,-4.0,
2154.0,2096.0,70.0,-4.0,
2162.0,2056.0,70.0,-4.0,
2124.0,2095.0,70.0,-4.0,
2130.0,2075.0,70.0,-4.0,
2077.0,2046.0,70.0,-4.0,
2016.0,2088.0,70.0,-4.0,
2006.0,2078.0,70.0,-4.0,
2048.0,2104.0,70.0,-4.0,
2065.0,2087.0,70.0,-4.0,
1942.0,2044.0,70.0,-4.0,
1805.0,2106.0,70.0,-4.0,
1813.0,2150.0,70.0,-4.0,
1858.0,2008.0,70.0,-4.0,
1956.0,2046.0,70.0,-4.0,
2060.0,2045.0,70.0,-4.0,
2190.0,2036.0,70.0,-4.0,
2234.0,2053.0,70.0,-4.0,
2168.0,2076.0,70.0,-4.0,
2133.0,2091.0,70.0,-4.0,
2129.0,2107.0,70.0,-4.0,
2252.0,2108.0,70.0,-4.0,
2357.0,2043.0,70.0,-4.0,
2342.0,2058.0,70.0,-5.0,
2251.0,2070.0,70.0,-5.0,
2151.0,2070.0,70.0,-5.0,
2119.0,2101.0,70.0,-5.0,
2111.0,2115.0,70.0,-5.0,
2202.0,2099.0,70.0,-5.0,
2275.0,2096.0,70.0,-5.0,
2303.0,2095.0,70.0,-5.0,
2110.0,2082.0,70.0,-5.0,
2013.0,2077.0,70.0,-5.0,
1968.0,2057.0,70.0,-5.0,
1994.0,2065.0,69.0,-5.0,
2050.0,2077.0,69.0,-5.0,
2066.0,2092.0,69.0,-4.0,
2041.0,2089.0,69.0,-4.0,
1984.0,2085.0,69.0,-4.0,
1947.0,2070.0,69.0,-4.0,
2036.0,2082.0,69.0,-4.0,
2049.0,2074.0,69.0,-4.0,
2094.0,2081.0,69.0,-4.0,
2121.0,2097.0,69.0,-4.0,
2070.0,2084.0,69.0,-4.0,
1975.0,2089.0,68.0,-4.0,
1892.0,2104.0,68.0,-4.0,
1895.0,2075.0,68.0,-4.0,
1945.0,2064.0,68.0,-4.0,
1996.0,2045.0,68.0,-4.0,
1975.0,2052.0,68.0,-4.0,
2046.0,2023.0,68.0,-4.0,
2066.0,2075.0,68.0,-4.0,
2116.0,2137.0,68.0,-4.0,
2235.0,2081.0,68.0,-4.0,
2380.0,2065.0,68.0,-4.0,
2293.0,2087.0,68.0,-4.0,
2146.0,2081.0,68.0,-4.0,
2080.0,2067.0,68.0,-4.0,
2100.0,2048.0,68.0,-4.0,
2049.0,2052.0,68.0,-4.0,
2021.0,1980.0,68.0,-4.0,
2209.0,2077.0,68.0,-5.0,
2231.0,2146.0,68.0,-5.0,
2213.0,2105.0,68.0,-5.0,
2125.0,2079.0,68.0,-5.0,
2043.0,2042.0,68.0,-5.0,
2031.0,2054.0,68.0,-5.0,
1986.0,2106.0,68.0,-5.0,
1937.0,2115.0,67.0,-5.0,
1911.0,2152.0,67.0,-5.0,
2020.0,2090.0,67.0,-5.0,
2047.0,1984.0,67.0,-5.0,
2109.0,2234.0,67.0,-4.0,
2145.0,2110.0,67.0,-4.0,
2163.0,2027.0,67.0,-4.0,
2192.0,1944.0,66.0,-4.0,
2130.0,1973.0,66.0,-4.0,
2170.0,2099.0,66.0,-4.0,
2147.0,2093.0,66.0,-4.0,
2054.0,2128.0,65.0,-4.0,
2042.0,2118.0,65.0,-4.0,
1973.0,2124.0,65.0,-4.0,
1862.0,2068.0,64.0,-4.0,
1862.0,2040.0,64.0,-4.0,
1890.0,2034.0,64.0,-4.0,
2044.0,1930.0,63.0,-4.0,
2158.0,2137.0,63.0,-4.0,
2310.0,2314.0,63.0,-3.0,
2376.0,2127.0,63.0,-3.0,
2199.0,2052.0,0,
2167.0,2138.0,63.0,-3.0,
2040.0,2198.0,63.0,-3.0,
1966.0,2098.0,63.0,-3.0,
1931.0,1882.0,62.0,-3.0,
1926.0,1689.0,62.0,-3.0,
2042.0,2165.0,62.0,-3.0,
2060.0,2167.0,61.0,-3.0,
2040.0,2097.0,61.0,-3.0,
2088.0,2154.0,61.0,-3.0,
2139.0,1817.0,60.0,-3.0,
2113.0,2008.0,60.0,-3.0,
2130.0,2094.0,60.0,-3.0,
2156.0,2004.0,60.0,-3.0,
2281.0,2221.0,59.0,-4.0,
2201.0,2210.0,59.0,-4.0,
2138.0,2330.0,59.0,-4.0,
2140.0,2304.0,59.0,-4.0,
2095.0,2191.0,59.0,-4.0,
2121.0,2030.0,59.0,-4.0,
2121.0,1979.0,58.0,-4.0,
1972.0,1999.0,58.0,-4.0,
1910.0,2017.0,58.0,-4.0,
2016.0,1946.0,58.0,-4.0,
2096.0,2020.0,58.0,-3.0,
2183.0,2073.0,57.0,-3.0,
2177.0,2088.0,57.0,-3.0,
2081.0,2067.0,57.0,-3.0,
2016.0,2038.0,56.0,-3.0,
1942.0,2095.0,56.0,-3.0,
1966.0,2124.0,55.0,-3.0,
2020.0,2087.0,55.0,-3.0,
2032.0,2137.0,56.0,-3.0,
2108.0,2035.0,55.0,-3.0,
2157.0,1982.0,54.0,-3.0,
2090.0,2006.0,53.0,-2.0,
2023.0,2027.0,52.0,-2.0,
1960.0,2153.0,52.0,-2.0,
2016.0,1958.0,52.0,-2.0,
2097.0,2013.0,51.0,-2.0,
2123.0,1981.0,50.0,-2.0,
2225.0,2097.0,49.0,-2.0,
2237.0,2143.0,47.0,-1.0,
2200.0,2142.0,47.0,-1.0,
2123.0,2247.0,47.0,-1.0,
2053.0,2049.0,47.0,-1.0,
2016.0,1948.0,46.0,0.0,
1982.0,2258.0,45.0,0.0,
1959.0,2215.0,45.0,0.0,
1960.0,2126.0,44.0,0.0,
1988.0,2095.0,44.0,0.0,
2121.0,1916.0,43.0,0.0,
2171.0,1747.0,43.0,0.0,
2173.0,2397.0,42.0,0.0,
2189.0,2216.0,42.0,0.0,
2104.0,2107.0,41.0,0.0,
2068.0,2108.0,40.0,0.0,
2134.0,2034.0,40.0,0.0,
2104.0,1919.0,40.0,0.0,
2079.0,1939.0,39.0,0.0,
2098.0,1958.0,39.0,0.0,
2139.0,2252.0,39.0,0.0,
2053.0,2116.0,38.0,0.0,
1925.0,2136.0,38.0,0.0,
1921.0,2052.0,38.0,0.0,
1967.0,2053.0,38.0,0.0,
2035.0,2066.0,38.0,0.0,
2092.0,2144.0,38.0,0.0,
2171.0,1980.0,38.0,0.0,
2166.0,2287.0,37.0,0.0,
2199.0,2345.0,37.0,0.0,
2271.0,2110.0,37.0,0.0,
2280.0,1794.0,37.0,0.0,
2176.0,1979.0,37.0,0.0,
2135.0,1788.0,38.0,0.0,
2032.0,1881.0,38.0,0.0,
2061.0,2055.0,38.0,0.0,
2072.0,1928.0,38.0,0.0,
2080.0,2173.0,38.0,0.0,
2080.0,2000.0,38.0,0.0,
2087.0,2234.0,38.0,0.0,
2021.0,2084.0,38.0,0.0,
2029.0,2065.0,38.0,0.0,
2022.0,2140.0,38.0,0.0,
2094.0,2132.0,38.0,0.0,
2031.0,2045.0,37.0,-1.0,
1996.0,2071.0,37.0,-1.0,
2014.0,2090.0,37.0,-1.0,
2051.0,2194.0,37.0,-1.0,
2113.0,2149.0,37.0,-1.0,
2176.0,2158.0,37.0,-1.0,
2165.0,2159.0,37.0,-1.0,
2058.0,1985.0,37.0,-1.0,
2023.0,2044.0,36.0,-1.0,
2081.0,1996.0,36.0,-1.0,
2059.0,2094.0,36.0,-1.0,
2065.0,2032.0,36.0,-1.0,
2029.0,2259.0,36.0,-1.0,
2074.0,1997.0,36.0,-1.0,
2048.0,2084.0,36.0,-1.0,
2090.0,2051.0,36.0,-1.0,
2056.0,2151.0,36.0,-1.0,
2053.0,1882.0,36.0,-1.0,
2055.0,2128.0,36.0,-1.0,
2137.0,2143.0,36.0,-1.0,
2161.0,1824.0,36.0,0.0,
2129.0,2201.0,36.0,0.0,
2111.0,2041.0,36.0,0.0,
2101.0,2126.0,36.0,0.0,
2117.0,2145.0,35.0,0.0,
2169.0,2049.0,35.0,0.0,
2143.0,1988.0,35.0,-1.0,
2040.0,2148.0,34.0,0.0,
2134.0,2169.0,34.0,0.0,
2101.0,2130.0,33.0,1.0,
2089.0,1940.0,32.0,2.0,
2029.0,2127.0,33.0,2.0,
2004.0,2037.0,32.0,1.0,
2010.0,2033.0,32.0,0.0,
2079.0,2145.0,32.0,0.0,
2135.0,2101.0,32.0,0.0,
2224.0,2239.0,32.0,0.0,
2180.0,2230.0,31.0,0.0,
2099.0,1971.0,31.0,0.0,
2025.0,1836.0,31.0,-2.0,
1996.0,1863.0,32.0,-3.0,
1972.0,2080.0,31.0,-3.0,
2056.0,1893.0,30.0,-2.0,
2121.0,2101.0,29.0,-1.0,
2104.0,2071.0,28.0,0.0,
2096.0,2045.0,28.0,0.0,
2077.0,2360.0,28.0,0.0,
2052.0,2331.0,28.0,0.0,
2019.0,2072.0,27.0,0.0,
1992.0,2010.0,27.0,0.0,
2035.0,2045.0,26.0,0.0,
2107.0,2033.0,26.0,0.0,
2168.0,1944.0,26.0,0.0,
2134.0,1946.0,26.0,0.0,
2121.0,1908.0,25.0,0.0,
2037.0,2245.0,25.0,0.0,
2014.0,2139.0,25.0,0.0,
2082.0,2213.0,25.0,0.0,
2060.0,2236.0,25.0,0.0,
2086.0,2125.0,25.0,0.0,
2121.0,1922.0,25.0,0.0,
2165.0,2099.0,26.0,0.0,
2166.0,2088.0,26.0,0.0,
2130.0,2091.0,26.0,0.0,
2065.0,2025.0,27.0,0.0,
2046.0,2108.0,27.0,0.0,
2009.0,1744.0,27.0,0.0,
2068.0,2340.0,28.0,0.0,
2065.0,2024.0,28.0,0.0,
2057.0,2134.0,28.0,-1.0,
2108.0,2088.0,28.0,-1.0,
2107.0,2048.0,28.0,-1.0,
2094.0,2041.0,28.0,-1.0,
2054.0,2002.0,29.0,-1.0,
2072.0,2082.0,29.0,-1.0,
2067.0,1891.0,28.0,-1.0,
2038.0,2124.0,28.0,0.0,
2068.0,2002.0,27.0,1.0,
2111.0,2391.0,28.0,0.0,
2120.0,2149.0,28.0,0.0,
2154.0,2088.0,28.0,-1.0,
2088.0,2053.0,28.0,-1.0,
2033.0,1947.0,27.0,-1.0,
2037.0,2201.0,27.0,-1.0,
2067.0,2037.0,27.0,-1.0,
2053.0,2191.0,27.0,-1.0,
2124.0,2130.0,27.0,-2.0,
2148.0,2021.0,27.0,-3.0,
2132.0,2091.0,25.0,-2.0,
2166.0,2113.0,25.0,-1.0,
2132.0,2040.0,24.0,0.0,
2100.0,2047.0,23.0,0.0,
2016.0,2091.0,22.0,0.0,
2009.0,2057.0,21.0,0.0,
2070.0,1978.0,21.0,0.0,
2023.0,2103.0,20.0,0.0,
2089.0,2018.0,20.0,0.0,
2157.0,2236.0,19.0,0.0,
2105.0,2152.0,19.0,0.0,
2025.0,1932.0,19.0,0.0,
1972.0,2124.0,18.0,0.0,
2033.0,2146.0,18.0,0.0,
2094.0,2138.0,18.0,0.0,
2170.0,2057.0,18.0,0.0,
2082.0,1829.0,18.0,0.0,
2218.0,1858.0,18.0,0.0,
2145.0,2049.0,18.0,0.0,
2067.0,2277.0,19.0,0.0,
2156.0,1966.0,19.0,0.0,
2075.0,2107.0,19.0,0.0,
1904.0,2153.0,20.0,0.0,
1963.0,2104.0,20.0,0.0,
2119.0,2292.0,20.0,0.0,
2089.0,2216.0,21.0,0.0,
2169.0,2029.0,21.0,0.0,
2140.0,2138.0,21.0,0.0,
2167.0,1961.0,22.0,0.0,
2125.0,2026.0,22.0,0.0,
2081.0,2066.0,23.0,0.0,
2044.0,2060.0,23.0,0.0,
2043.0,1997.0,23.0,-1.0,
2034.0,2026.0,23.0,-1.0,
2008.0,2261.0,24.0,-1.0,
2113.0,2180.0,24.0,-1.0,
2105.0,2053.0,25.0,-1.0,
2157.0,2049.0,25.0,-1.0,
2092.0,2002.0,25.0,-1.0,
2038.0,2236.0,25.0,-1.0,
2040.0,1808.0,25.0,-1.0,
2027.0,1981.0,25.0,-1.0,
2067.0,2227.0,24.0,0.0,
2085.0,2126.0,25.0,0.0,
2156.0,2137.0,24.0,0.0,
2113.0,2128.0,24.0,-1.0,
2082.0,2182.0,24.0,-2.0,
2119.0,2098.0,24.0,-1.0,
2086.0,2040.0,23.0,-1.0,
2001.0,1982.0,23.0,-1.0,
1959.0,2008.0,22.0,-1.0,
1968.0,2059.0,21.0,-1.0,
1985.0,2353.0,22.0,-3.0,
2049.0,2168.0,20.0,-3.0,
2228.0,2050.0,20.0,-1.0,
2236.0,1883.0,19.0,0.0,
2138.0,2090.0,18.0,0.0,
2087.0,2271.0,17.0,0.0,
2090.0,2121.0,17.0,0.0,
2019.0,1898.0,17.0,0.0,
1903.0,2037.0,17.0,0.0,
2071.0,1892.0,16.0,0.0,
2236.0,2235.0,16.0,0.0,
2199.0,1449.0,16.0,0.0,
2132.0,2123.0,16.0,0.0,
2158.0,2642.0,16.0,0.0,
2081.0,2240.0,17.0,0.0,
2082.0,2081.0,17.0,0.0,
2021.0,1769.0,17.0,0.0,
2102.0,2197.0,17.0,0.0,
2099.0,2096.0,18.0,0.0,
2138.0,2052.0,18.0,0.0,
2094.0,2082.0,18.0,0.0,
2039.0,2015.0,18.0,0.0,
1809.0,2018.0,19.0,0.0,
1925.0,2007.0,19.0,0.0,
2106.0,1772.0,19.0,0.0,
2257.0,2135.0,19.0,0.0,
2165.0,2094.0,20.0,0.0,
2144.0,2277.0,20.0,0.0,
2146.0,2149.0,20.0,0.0,
2126.0,2324.0,21.0,0.0,
2089.0,2206.0,21.0,0.0,
2059.0,2153.0,21.0,-1.0,
2072.0,2159.0,22.0,-1.0,
2053.0,1997.0,22.0,-1.0,
2060.0,2022.0,22.0,-1.0,
2069.0,1877.0,22.0,-1.0,
2092.0,1971.0,22.0,-1.0,
2078.0,2249.0,22.0,-1.0,
2154.0,2244.0,22.0,-1.0,
2066.0,1971.0,22.0,-1.0,
2019.0,1950.0,21.0,-1.0,
2063.0,1970.0,21.0,-1.0,
2061.0,2071.0,20.0,-1.0,
2048.0,1921.0,20.0,-1.0,
2129.0,1960.0,19.0,-1.0,
2116.0,2129.0,19.0,0.0,
2117.0,2139.0,18.0,0.0,
2100.0,2120.0,17.0,0.0,
2103.0,2109.0,17.0,0.0,
2074.0,1872.0,16.0,0.0,
2074.0,1648.0,15.0,0.0,
1995.0,2450.0,15.0,0.0,
1976.0,2190.0,14.0,0.0,
1989.0,2198.0,13.0,0.0,
1989.0,2206.0,13.0,0.0,
2053.0,2183.0,12.0,0.0,
2119.0,2006.0,12.0,0.0,
2118.0,2056.0,11.0,0.0,
2206.0,2016.0,11.0,0.0,
2116.0,1874.0,11.0,0.0,
1995.0,1723.0,10.0,0.0,
2111.0,1962.0,10.0,0.0,
2018.0,2351.0,10.0,0.0,
2217.0,1908.0,11.0,0.0,
2240.0,2462.0,11.0,0.0,
2208.0,2185.0,11.0,0.0,
2068.0,2035.0,12.0,0.0,
1992.0,1879.0,12.0,0.0,
1940.0,2190.0,0,
1948.0,2366.0,13.0,0.0,
1940.0,2213.0,14.0,0.0,
2115.0,1943.0,14.0,0.0,
2301.0,1809.0,15.0,0.0,
2188.0,2289.0,15.0,0.0,
2250.0,1893.0,15.0,0.0,
2238.0,1880.0,16.0,0.0,
2019.0,1863.0,16.0,0.0,
1982.0,1811.0,17.0,0.0,
1914.0,2156.0,17.0,0.0,
2070.0,2349.0,17.0,0.0,
2045.0,1898.0,18.0,0.0,
2146.0,1903.0,18.0,0.0,
2123.0,2043.0,18.0,0.0,
2221.0,2737.0,18.0,0.0,
2080.0,2286.0,18.0,0.0,
2058.0,2245.0,18.0,0.0,
2066.0,1225.0,18.0,0.0,
1929.0,2746.0,18.0,0.0,
1966.0,2530.0,17.0,0.0,
2070.0,2386.0,17.0,0.0,
2029.0,2317.0,17.0,0.0,
2045.0,1925.0,16.0,0.0,
2082.0,1891.0,16.0,0.0,
2102.0,2070.0,15.0,0.0,
2121.0,1911.0,15.0,0.0,
1996.0,2008.0,14.0,0.0,
2023.0,1944.0,14.0,0.0,
1986.0,1997.0,0,
2042.0,2033.0,13.0,0.0,
2118.0,2069.0,12.0,0.0,
2226.0,2068.0,11.0,0.0,
2205.0,2079.0,11.0,0.0,
2115.0,2059.0,10.0,0.0,
2117.0,2013.0,9.0,0.0,
2052.0,2085.0,9.0,0.0,
2014.0,2101.0,8.0,0.0,
2016.0,2078.0,8.0,0.0,
2035.0,2079.0,8.0,0.0,
2041.0,2048.0,7.0,0.0,
2137.0,2127.0,7.0,0.0,
2120.0,2147.0,7.0,0.0,
2083.0,2001.0,7.0,0.0,
2046.0,1967.0,7.0,0.0,
2033.0,2041.0,7.0,0.0,
2039.0,1908.0,8.0,0.0,
2125.0,2372.0,8.0,0.0,
2116.0,2070.0,8.0,0.0,
2077.0,1834.0,8.0,0.0,
1952.0,2385.0,8.0,0.0,
2261.0,2349.0,9.0,0.0,
2319.0,2201.0,9.0,0.0,
2190.0,2396.0,10.0,0.0,
2118.0,1359.0,10.0,0.0,
2061.0,2319.0,11.0,0.0,
2079.0,1752.0,11.0,0.0,
2043.0,2213.0,12.0,0.0,
1960.0,1555.0,12.0,0.0,
1966.0,2014.0,12.0,0.0,
2174.0,2378.0,13.0,0.0,
2085.0,2138.0,13.0,0.0,
2216.0,2372.0,13.0,0.0,
2146.0,2194.0,13.0,0.0,
2041.0,1930.0,13.0,0.0,
2057.0,2053.0,13.0,0.0,
2107.0,2335.0,13.0,0.0,
2138.0,2085.0,13.0,0.0,
2189.0,2074.0,13.0,0.0,
2102.0,1975.0,12.0,0.0,
2126.0,1970.0,12.0,0.0,
2034.0,1762.0,12.0,0.0,
1948.0,2153.0,11.0,0.0,
1962.0,2129.0,11.0,0.0,
2029.0,2120.0,11.0,0.0,
2033.0,2067.0,10.0,0.0,
2071.0,2216.0,9.0,0.0,
2088.0,2104.0,9.0,0.0,
2100.0,2009.0,8.0,0.0,
2134.0,2131.0,8.0,0.0,
2117.0,1868.0,7.0,0.0,
2041.0,1999.0,6.0,0.0,
1995.0,2276.0,6.0,0.0,
2031.0,2093.0,5.0,0.0,
2000.0,2201.0,5.0,0.0,
2047.0,2138.0,4.0,0.0,
2266.0,2256.0,4.0,0.0,
2083.0,1969.0,4.0,0.0,
2066.0,1745.0,4.0,0.0,
2029.0,2158.0,3.0,0.0,
1965.0,2020.0,3.0,0.0,
2070.0,1986.0,3.0,0.0,
1998.0,1571.0,3.0,0.0,
2072.0,2614.0,3.0,0.0,
2029.0,2259.0,4.0,0.0,
2331.0,2206.0,4.0,0.0,
2213.0,1639.0,4.0,0.0,
2205.0,2235.0,4.0,0.0,
1962.0,2174.0,5.0,0.0,
2141.0,2093.0,5.0,0.0,
1909.0,1961.0,6.0,0.0,
1503.0,1972.0,6.0,0.0,
1955.0,1855.0,7.0,0.0,
2381.0,2209.0,7.0,0.0,
2245.0,2258.0,7.0,0.0,
2487.0,2331.0,7.0,0.0,
2380.0,2102.0,8.0,0.0,
2170.0,2223.0,8.0,0.0,
1939.0,2413.0,8.0,0.0,
2017.0,2281.0,8.0,0.0,
2005.0,2093.0,9.0,0.0,
1963.0,2016.0,9.0,0.0,
2010.0,2020.0,9.0,0.0,
2071.0,2045.0,9.0,0.0,
2161.0,1918.0,9.0,0.0,
2117.0,2207.0,9.0,0.0,
2157.0,1843.0,9.0,0.0,
2186.0,1959.0,9.0,0.0,
2105.0,1789.0,9.0,0.0,
2111.0,2123.0,9.0,0.0,
2075.0,2092.0,8.0,0.0,
2079.0,2182.0,8.0,0.0,
2099.0,2006.0,8.0,0.0,
2111.0,2226.0,7.0,0.0,
2067.0,2070.0,7.0,0.0,
2012.0,2352.0,6.0,0.0,
2023.0,2184.0,6.0,0.0,
1984.0,2015.0,5.0,0.0,
2011.0,1830.0,5.0,0.0,
1936.0,1997.0,4.0,0.0,
2182.0,2131.0,4.0,0.0,
2060.0,1957.0,4.0,0.0,
2034.0,2215.0,4.0,0.0,
2102.0,2156.0,3.0,0.0,
2022.0,2056.0,3.0,0.0,
2035.0,1849.0,3.0,0.0,
2064.0,2149.0,3.0,0.0,
2099.0,2106.0,3.0,0.0,
2058.0,2029.0,3.0,0.0,
2112.0,2135.0,3.0,0.0,
2237.0,2250.0,3.0,0.0,
2035.0,2071.0,3.0,0.0,
2158.0,2157.0,3.0,0.0,
2156.0,2065.0,3.0,0.0,
1995.0,2290.0,0,
1761.0,2251.0,3.0,0.0,
1793.0,1442.0,3.0,0.0,
2211.0,2659.0,3.0,0.0,
2363.0,2228.0,3.0,0.0,
2198.0,1799.0,3.0,0.0,
2240.0,2029.0,3.0,0.0,
2222.0,2169.0,4.0,0.0,
2189.0,2021.0,4.0,0.0,
2066.0,2019.0,4.0,0.0,
1901.0,2464.0,4.0,0.0,
1886.0,2194.0,4.0,0.0,
1930.0,2017.0,4.0,0.0,
2091.0,1450.0,4.0,0.0,
2400.0,2623.0,5.0,0.0,
2253.0,2341.0,5.0,0.0,
2163.0,2152.0,5.0,0.0,
2124.0,1939.0,5.0,0.0,
1998.0,1466.0,0,
2085.0,1973.0,5.0,0.0,
2079.0,2193.0,5.0,0.0,
2097.0,1172.0,5.0,0.0,
2064.0,3008.0,5.0,0.0,
2096.0,2458.0,5.0,0.0,
2077.0,2120.0,5.0,0.0,
2142.0,2087.0,4.0,0.0,
1996.0,1896.0,4.0,0.0,
2035.0,2354.0,4.0,0.0,
2120.0,2243.0,4.0,0.0,
2048.0,1898.0,4.0,0.0,
2078.0,2239.0,3.0,0.0,
2074.0,1929.0,3.0,0.0,
2002.0,2065.0,3.0,0.0,
2161.0,1956.0,3.0,0.0,
2139.0,2419.0,3.0,0.0,
2089.0,2019.0,2.0,0.0,
2042.0,2093.0,2.0,0.0,
2032.0,2007.0,2.0,0.0,
1910.0,1952.0,2.0,0.0,
1893.0,1906.0,1.0,0.0,
2019.0,2146.0,1.0,0.0,
2296.0,2030.0,1.0,0.0,
2199.0,2161.0,1.0,0.0,
2080.0,2097.0,0.0,0.0,
2178.0,2067.0,0.0,0.0,
2110.0,1690.0,0.0,0.0,
1902.0,2114.0,0.0,0.0,
1694.0,1884.0,0.0,0.0,
2223.0,2585.0,0.0,0.0,
2163.0,2188.0,0.0,0.0,
2334.0,2147.0,0.0,0.0,
2187.0,2045.0,0.0,0.0,
2042.0,2098.0,0.0,0.0,
2136.0,1945.0,0.0,0.0,
2257.0,2086.0,1.0,0.0,
2079.0,2238.0,1.0,0.0,
1912.0,1933.0,1.0,0.0,
1729.0,1640.0,1.0,0.0,
1827.0,2277.0,1.0,0.0,
2510.0,1930.0,1.0,0.0,
2287.0,2278.0,1.0,0.0,
2147.0,2107.0,1.0,0.0,
2052.0,2089.0,1.0,0.0,
2088.0,2002.0,2.0,0.0,
2129.0,1930.0,2.0,0.0,
2152.0,2374.0,2.0,0.0,
1999.0,1807.0,2.0,0.0,
2089.0,2364.0,2.0,0.0,
2240.0,1967.0,1.0,0.0,
2117.0,2030.0,1.0,0.0,
1941.0,1887.0,1.0,0.0,
2018.0,2060.0,1.0,0.0,
2317.0,1881.0,1.0,0.0,
2160.0,1930.0,1.0,0.0,
1950.0,2344.0,1.0,0.0,
1868.0,2305.0,1.0,0.0,
2038.0,2080.0,1.0,0.0,
2244.0,1999.0,1.0,0.0,
2071.0,2005.0,1.0,0.0,
2148.0,2146.0,1.0,0.0,
2131.0,2114.0,1.0,0.0,
1963.0,2197.0,0.0,0.0,
1950.0,1786.0,0.0,0.0,
2019.0,2062.0,0.0,0.0,
2087.0,2204.0,0.0,0.0,
2071.0,2094.0,0.0,0.0,
1950.0,2113.0,0.0,0.0,
2111.0,2371.0,0.0,0.0,
1989.0,2089.0,0.0,0.0,
2110.0,2191.0,0.0,0.0,
2325.0,2027.0,0.0,0.0,
1992.0,1949.0,1.0,0.0,
2019.0,2046.0,1.0,0.0,
2093.0,2026.0,1.0,0.0,
1997.0,1919.0,1.0,0.0,
2238.0,1697.0,1.0,0.0,
2245.0,2237.0,1.0,0.0,
2183.0,2280.0,0,
2037.0,2287.0,1.0,0.0,
2210.0,2198.0,1.0,0.0,
1895.0,2052.0,1.0,0.0,
2095.0,2164.0,1.0,0.0,
2058.0,2097.0,1.0,0.0,
2014.0,2040.0,1.0,0.0,
2003.0,1915.0,2.0,0.0,
2246.0,1983.0,2.0,0.0,
2290.0,2419.0,2.0,0.0,
2010.0,2215.0,2.0,0.0,
1987.0,1797.0,2.0,0.0,
2262.0,2489.0,2.0,0.0,
2104.0,1954.0,2.0,0.0,
1979.0,2065.0,2.0,0.0,
2107.0,1925.0,2.0,0.0,
2070.0,2039.0,2.0,0.0,
2040.0,1898.0,2.0,0.0,
2082.0,2156.0,2.0,0.0,
2140.0,1638.0,2.0,0.0,
1903.0,2392.0,1.0,0.0,
2107.0,2106.0,1.0,0.0,
2060.0,1869.0,1.0,0.0,
1992.0,2380.0,1.0,0.0,
2139.0,2265.0,1.0,0.0,
2021.0,2120.0,1.0,0.0,
2025.0,2276.0,1.0,0.0,
2086.0,2114.0,1.0,0.0,
2116.0,1996.0,0.0,0.0,
2148.0,1783.0,0.0,0.0,
2111.0,2235.0,0.0,0.0,
2019.0,1973.0,0.0,0.0,
1935.0,2114.0,0.0,0.0,
2064.0,1777.0,0.0,0.0,
1970.0,2191.0,0.0,0.0,
2182.0,2055.0,0.0,0.0,
2208.0,1821.0,0.0,0.0,
2349.0,2542.0,0.0,0.0,
1777.0,1821.0,0.0,0.0,
1856.0,2019.0,0.0,0.0,
2174.0,2227.0,0.0,0.0,
2221.0,2124.0,0.0,0.0,
2017.0,1921.0,0.0,0.0,
2136.0,2031.0,1.0,0.0,
2221.0,2158.0,1.0,0.0,
2121.0,1814.0,1.0,0.0,
1908.0,1339.0,1.0,0.0,
1932.0,2690.0,1.0,0.0,
2025.0,2209.0,1.0,0.0,
2043.0,1693.0,1.0,0.0,
2046.0,2015.0,1.0,0.0,
2388.0,1778.0,1.0,0.0,
2200.0,2609.0,1.0,0.0,
2220.0,2246.0,1.0,0.0,
2252.0,2410.0,1.0,0.0,
2100.0,2184.0,1.0,0.0,
2048.0,2025.0,1.0,0.0,
1828.0,2052.0,1.0,0.0,
1867.0,1833.0,1.0,0.0,
2023.0,2001.0,1.0,0.0,
2227.0,2076.0,1.0,0.0,
2177.0,2158.0,1.0,0.0,
2069.0,2063.0,1.0,0.0,
2106.0,2217.0,1.0,0.0,
2179.0,2029.0,1.0,0.0,
2095.0,2054.0,1.0,0.0,
2227.0,2127.0,0.0,0.0,
2100.0,1878.0,0.0,0.0,
1974.0,1972.0,0.0,0.0,
1999.0,2146.0,0.0,0.0,
2116.0,1626.0,0.0,0.0,
1918.0,2107.0,0.0,0.0,
1913.0,2485.0,0.0,0.0,
2128.0,1540.0,0.0,0.0,
1984.0,2763.0,0.0,0.0,
2383.0,2206.0,0.0,0.0,
2126.0,2275.0,0.0,0.0,
1808.0,2614.0,0.0,0.0,
1872.0,2177.0,0.0,0.0,
1835.0,2077.0,0.0,0.0,
1798.0,1896.0,0.0,0.0,
2104.0,2232.0,0.0,0.0,
2725.0,1803.0,0.0,0.0,
2402.0,2057.0,0.0,0.0,
2193.0,1564.0,0.0,0.0,
2150.0,2219.0,0.0,0.0,
2062.0,1956.0,0.0,0.0,
1848.0,835.0,0.0,0.0,
1957.0,2899.0,0.0,0.0,
2279.0,2327.0,1.0,0.0,
2018.0,2256.0,1.0,0.0,
2431.0,2353.0,0.0,0.0,
2216.0,1912.0,1.0,0.0,
2045.0,2262.0,1.0,0.0,
2025.0,1917.0,1.0,0.0,
1880.0,2054.0,1.0,0.0,
1918.0,1394.0,1.0,0.0,
2075.0,2258.0,1.0,0.0,
2158.0,2118.0,1.0,0.0,
2125.0,2030.0,1.0,0.0,
1965.0,2626.0,1.0,0.0,
2128.0,2013.0,1.0,0.0,
2048.0,2374.0,1.0,0.0,
1835.0,1767.0,0.0,0.0,
1881.0,1995.0,0.0,0.0,
1538.0,2043.0,0.0,0.0,
2134.0,1120.0,0.0,0.0,
2623.0,3187.0,0.0,0.0,
2499.0,2387.0,0.0,0.0,
2486.0,2243.0,0.0,0.0,
2227.0,1985.0,0.0,0.0,
2063.0,2314.0,0.0,0.0,
2088.0,2323.0,0.0,0.0,
1935.0,2157.0,0.0,0.0,
1858.0,2127.0,0.0,0.0,
1423.0,1828.0,0.0,0.0,
1478.0,530.0,0.0,0.0,
2976.0,2781.0,0.0,0.0,
2639.0,1946.0,0.0,0.0,
2247.0,2636.0,0.0,0.0,
2169.0,2206.0,0.0,0.0,
2136.0,2108.0,-1.0,0.0,
2002.0,2275.0,-1.0,0.0,
1824.0,2037.0,-1.0,0.0,
1916.0,1994.0,-1.0,0.0,
1985.0,2126.0,-1.0,0.0,
2071.0,1906.0,-1.0,0.0,
2022.0,2000.0,-1.0,0.0,
2105.0,2117.0,-1.0,0.0,
2380.0,1849.0,0.0,0.0,
2121.0,1898.0,0.0,0.0,
2120.0,2422.0,0.0,0.0,
1948.0,2120.0,0.0,0.0,
1746.0,1498.0,0.0,0.0,
2064.0,2024.0,0.0,0.0,
2394.0,2165.0,0.0,0.0,
1972.0,2716.0,0.0,0.0,
2147.0,2378.0,0.0,0.0,
2169.0,2013.0,0.0,0.0,
2100.0,1415.0,0.0,0.0,
2100.0,1310.0,-1.0,0.0,
2148.0,2462.0,-1.0,0.0,
2039.0,2340.0,-1.0,0.0,
1863.0,1999.0,-1.0,0.0,
1927.0,2572.0,-1.0,0.0,
2056.0,2302.0,-1.0,0.0,
1750.0,1814.0,-1.0,0.0,
2406.0,2088.0,-1.0,0.0,
2371.0,1636.0,-1.0,0.0,
2142.0,2284.0,-1.0,0.0,
2065.0,1581.0,-1.0,0.0,
2154.0,2017.0,-1.0,0.0,
2058.0,1901.0,-1.0,0.0,
1837.0,1847.0,-1.0,0.0,
1810.0,1592.0,-1.0,0.0,
2611.0,2341.0,-1.0,0.0,
2133.0,2098.0,-1.0,0.0,
2247.0,2773.0,-1.0,0.0,
2195.0,1870.0,-1.0,0.0,
2115.0,2233.0,-1.0,0.0,
1931.0,2112.0,-1.0,0.0,
1718.0,2003.0,-1.0,0.0,
1611.0,2015.0,-1.0,0.0,
1473.0,1757.0,-1.0,0.0,
2059.0,2122.0,-1.0,0.0,
2674.0,2743.0,-1.0,0.0,
2823.0,2219.0,-1.0,0.0,
2308.0,2044.0,-1.0,0.0,
2148.0,1999.0,-1.0,0.0,
2162.0,2152.0,-1.0,0.0,
2064.0,2193.0,-1.0,0.0,
2030.0,1155.0,-1.0,0.0,
1987.0,2871.0,-1.0,0.0,
1932.0,2290.0,-1.0,0.0,
1977.0,2148.0,-1.0,0.0,
2125.0,1962.0,0.0,0.0,
2029.0,1061.0,0.0,0.0,
2199.0,2222.0,0.0,0.0,
2189.0,2297.0,0.0,0.0,
2112.0,1574.0,0.0,0.0,
1887.0,2576.0,0.0,0.0,
1463.0,2051.0,0.0,0.0,
2377.0,1540.0,-1.0,0.0,
2295.0,2375.0,-1.0,0.0,
1997.0,2288.0,-1.0,0.0,
2089.0,1279.0,-1.0,0.0,
2244.0,2701.0,0.0,0.0,
2223.0,2244.0,0.0,0.0,
1948.0,2110.0,0.0,0.0,
2024.0,2139.0,-1.0,0.0,
2160.0,2018.0,-1.0,0.0,
1442.0,2027.0,-1.0,0.0,
2208.0,2365.0,-1.0,0.0,
2343.0,1886.0,-1.0,0.0,
2312.0,1335.0,-1.0,0.0,
2373.0,1720.0,-1.0,0.0,
2185.0,1475.0,-1.0,0.0,
1957.0,2526.0,-1.0,0.0,
1912.0,2368.0,-1.0,0.0,
1732.0,2026.0,-1.0,0.0,
1761.0,2414.0,-1.0,0.0,
1707.0,2125.0,-1.0,0.0,
2321.0,1817.0,-2.0,0.0,
2480.0,1718.0,-2.0,0.0,
2285.0,3084.0,-2.0,0.0,
2279.0,2014.0,-2.0,0.0,
2026.0,2255.0,0,
2157.0,1652.0,-2.0,0.0,
2024.0,1599.0,-1.0,0.0,
2075.0,2422.0,-1.0,0.0,
1659.0,1358.0,-1.0,0.0,
2189.0,2365.0,-1.0,0.0,
2309.0,1889.0,-1.0,0.0,
2170.0,2314.0,-1.0,0.0,
2336.0,2367.0,-1.0,0.0,
2209.0,1948.0,-1.0,0.0,
2177.0,2366.0,-2.0,0.0,
1961.0,2217.0,-2.0,0.0,
1872.0,2083.0,-2.0,0.0,
1898.0,1840.0,-2.0,0.0,
2106.0,2082.0,-2.0,0.0,
2100.0,1787.0,-2.0,0.0,
2090.0,1553.0,-2.0,0.0,
2111.0,2058.0,-2.0,0.0,
2236.0,2571.0,-2.0,0.0,
2244.0,2460.0,0,
2048.0,2258.0,-2.0,0.0,
1940.0,2207.0,-2.0,0.0,
1976.0,1934.0,-3.0,0.0,
1207.0,1957.0,-3.0,0.0,
1649.0,1973.0,-3.0,0.0,
2408.0,2133.0,-3.0,0.0,
2629.0,1953.0,-3.0,0.0,
2528.0,2060.0,-3.0,0.0,
2265.0,1692.0,-3.0,0.0,
2068.0,1472.0,-3.0,0.0,
2267.0,2244.0,-3.0,0.0,
2080.0,2417.0,-3.0,0.0,
1832.0,2171.0,-3.0,0.0,
1584.0,2055.0,-3.0,0.0,
1377.0,2087.0,-3.0,0.0,
2440.0,2310.0,-3.0,0.0,
2484.0,2123.0,-3.0,0.0,
2117.0,2277.0,-3.0,0.0,
2129.0,1699.0,-3.0,0.0,
2106.0,1017.0,-3.0,0.0,
2369.0,2586.0,-3.0,0.0,
2173.0,2982.0,-3.0,0.0,
1800.0,2471.0,-3.0,0.0,
1341.0,2002.0,-3.0,0.0,
2011.0,1940.0,-3.0,0.0,
2423.0,2586.0,-3.0,0.0,
2332.0,2245.0,-3.0,0.0,
2459.0,1558.0,-3.0,0.0,
2347.0,1704.0,-3.0,0.0,
2140.0,2892.0,-2.0,0.0,
2104.0,1962.0,-2.0,0.0,
1641.0,2064.0,-2.0,0.0,
1538.0,1810.0,-2.0,0.0,
2098.0,1852.0,-2.0,0.0,
2247.0,2223.0,-2.0,0.0,
2082.0,2265.0,-2.0,0.0,
2183.0,2497.0,-2.0,0.0,
2159.0,2477.0,-2.0,0.0,
2218.0,1551.0,-2.0,0.0,
2304.0,2290.0,-2.0,0.0,
2275.0,2213.0,-2.0,0.0,
2138.0,2132.0,-2.0,0.0,
2110.0,2068.0,-2.0,0.0,
1894.0,2084.0,-2.0,0.0,
1891.0,1977.0,-2.0,0.0,
1830.0,1456.0,-2.0,0.0,
2063.0,2035.0,-3.0,0.0,
2135.0,2237.0,-3.0,0.0,
2153.0,2079.0,-3.0,0.0,
2208.0,2080.0,-3.0,0.0,
1974.0,2159.0,-3.0,0.0,
1704.0,1533.0,-3.0,0.0,
1857.0,2007.0,-4.0,0.0,
2121.0,1717.0,-4.0,0.0,
2054.0,2107.0,-4.0,0.0,
2570.0,2344.0,-4.0,0.0,
2142.0,1957.0,-4.0,0.0,
2101.0,2272.0,-4.0,0.0,
2057.0,2180.0,-4.0,0.0,
1943.0,2064.0,-4.0,0.0,
2022.0,2325.0,-4.0,0.0,
2197.0,2319.0,-4.0,0.0,
1839.0,1382.0,-4.0,0.0,
1973.0,1677.0,-4.0,0.0,
2121.0,2673.0,-4.0,0.0,
2156.0,2259.0,-4.0,0.0,
2199.0,2027.0,-4.0,0.0,
1889.0,1785.0,-3.0,0.0,
2236.0,3024.0,-3.0,0.0,
2232.0,2313.0,-3.0,0.0,
2081.0,2260.0,-3.0,0.0,
2399.0,1998.0,0,
2179.0,2202.0,-3.0,0.0,
1928.0,1442.0,-2.0,0.0,
1965.0,2568.0,-2.0,0.0,
1797.0,1562.0,-2.0,0.0,
1948.0,2202.0,-2.0,0.0,
2376.0,1975.0,-2.0,0.0,
1764.0,1561.0,-3.0,0.0,
2428.0,2332.0,-3.0,0.0,
2459.0,2207.0,-3.0,0.0,
1915.0,1674.0,-3.0,0.0,
2053.0,2509.0,-3.0,0.0,
2199.0,1948.0,-3.0,0.0,
2069.0,1400.0,-3.0,0.0,
2022.0,2281.0,-3.0,0.0,
1682.0,2111.0,-4.0,0.0,
2214.0,2051.0,-4.0,0.0,
2217.0,2269.0,-4.0,0.0,
2346.0,2188.0,-4.0,0.0,
2155.0,1903.0,-4.0,0.0,
2113.0,2151.0,-4.0,0.0,
1998.0,2215.0,-4.0,0.0,
1831.0,2006.0,-4.0,0.0,
1669.0,1772.0,-4.0,0.0,
2189.0,1923.0,-4.0,0.0,
1968.0,2213.0,-4.0,0.0,
2182.0,2186.0,-4.0,0.0,
2350.0,2261.0,-4.0,0.0,
2105.0,2152.0,-4.0,0.0,
2175.0,2255.0,-4.0,0.0,
2275.0,1821.0,-4.0,0.0,
2034.0,2269.0,-4.0,0.0,
1656.0,2183.0,-4.0,0.0,
2099.0,2088.0,-3.0,0.0,
2445.0,2070.0,-3.0,0.0,
2025.0,2147.0,-3.0,0.0,
2347.0,1879.0,-3.0,0.0,
2153.0,2131.0,-3.0,0.0,
2096.0,2112.0,-3.0,0.0,
2028.0,2116.0,-3.0,0.0,
2116.0,2088.0,-3.0,0.0,
2081.0,2035.0,-3.0,0.0,
2277.0,1596.0,-3.0,0.0,
2133.0,2112.0,-3.0,0.0,
2034.0,2148.0,-3.0,0.0,
1955.0,2130.0,-3.0,0.0,
1976.0,2153.0,-3.0,0.0,
2203.0,2080.0,-3.0,0.0,
2092.0,2218.0,-3.0,0.0,
1951.0,2074.0,-3.0,0.0,
1819.0,2230.0,-3.0,0.0,
1858.0,1854.0,-3.0,0.0,
1921.0,2017.0,-3.0,0.0,
2098.0,2258.0,-3.0,0.0,
2231.0,2180.0,-4.0,0.0,
2217.0,1918.0,-4.0,0.0,
2097.0,1793.0,-4.0,0.0,
2104.0,1968.0,-4.0,0.0,
2164.0,2142.0,-4.0,0.0,
1996.0,1748.0,-4.0,0.0,
2072.0,2520.0,-4.0,0.0,
2185.0,2151.0,-4.0,0.0,
2064.0,2018.0,-4.0,0.0,
1953.0,2366.0,-4.0,0.0,
2109.0,2182.0,-4.0,0.0,
2097.0,1902.0,-4.0,0.0,
2072.0,2428.0,-4.0,0.0,
2114.0,2103.0,-4.0,0.0,
2062.0,2049.0,-4.0,0.0,
2081.0,2210.0,-4.0,0.0,
2092.0,2131.0,-4.0,0.0,
2094.0,2131.0,-4.0,0.0,
2159.0,1996.0,-4.0,0.0,
2154.0,2211.0,-4.0,0.0,
1983.0,1980.0,-4.0,0.0,
2123.0,1816.0,-4.0,0.0,
2116.0,1960.0,-4.0,0.0,
2125.0,2012.0,-4.0,0.0,
2070.0,2115.0,-4.0,0.0,
2132.0,2038.0,-4.0,0.0,
2196.0,2074.0,-4.0,0.0,
2110.0,2008.0,-4.0,0.0,
2014.0,1914.0,-4.0,0.0,
2045.0,2099.0,-4.0,0.0,
2050.0,2452.0,-4.0,0.0,
2141.0,2254.0,-4.0,0.0,
1992.0,2177.0,-4.0,0.0,
1986.0,1911.0,-4.0,0.0,
2027.0,2130.0,-4.0,0.0,
2110.0,1902.0,0,
2151.0,1952.0,-4.0,0.0,
2345.0,1988.0,-4.0,0.0,
1801.0,2185.0,-4.0,0.0,
2023.0,1888.0,-4.0,0.0,
2004.0,1909.0,-4.0,0.0,
2250.0,2132.0,-4.0,0.0,
2135.0,2229.0,-4.0,0.0,
2127.0,2198.0,-4.0,0.0,
2315.0,1880.0,-4.0,0.0,
2223.0,2237.0,-4.0,0.0,
2184.0,2069.0,-4.0,0.0,
2074.0,2022.0,-3.0,0.0,
2048.0,1991.0,-3.0,0.0,
2177.0,2195.0,-3.0,0.0,
2098.0,1999.0,-3.0,0.0,
2008.0,2199.0,-3.0,0.0,
1999.0,2278.0,-3.0,0.0,
2086.0,2207.0,-3.0,0.0,
2079.0,1993.0,-3.0,-1.0,
2033.0,2167.0,-4.0,-1.0,
2001.0,1902.0,-4.0,-1.0,
1951.0,1821.0,-4.0,-1.0,
1956.0,2474.0,-4.0,-1.0,
2040.0,2171.0,-4.0,-1.0,
2051.0,2142.0,-4.0,-1.0,
2018.0,1919.0,-4.0,-1.0,
1862.0,2230.0,-4.0,-1.0,
2007.0,2114.0,-4.0,-1.0,
2226.0,1916.0,-5.0,-1.0,
2102.0,1765.0,-5.0,-1.0,
2250.0,2074.0,-5.0,-1.0,
2118.0,2076.0,-5.0,-1.0,
1935.0,2209.0,-5.0,-1.0,
1932.0,2012.0,-5.0,-1.0,
2091.0,2118.0,-5.0,0.0,
2191.0,2183.0,-5.0,0.0,
2202.0,2338.0,-4.0,0.0,
2183.0,2276.0,-4.0,0.0,
2280.0,2015.0,-3.0,0.0,
2193.0,1880.0,-3.0,0.0,
2233.0,2147.0,-2.0,0.0,
2146.0,1910.0,-2.0,0.0,
2059.0,2067.0,-1.0,0.0,
2059.0,2012.0,-1.0,0.0,
2053.0,1961.0,0.0,0.0,
2045.0,2031.0,0.0,0.0,
2071.0,2152.0,0.0,0.0,
2037.0,2052.0,0.0,0.0,
2099.0,1993.0,0.0,0.0,
2062.0,1938.0,0.0,0.0,
2045.0,2062.0,0.0,0.0,
2034.0,2149.0,1.0,0.0,
2046.0,2065.0,1.0,0.0,
2012.0,2011.0,1.0,0.0,
2050.0,1920.0,1.0,0.0,
2070.0,1999.0,1.0,0.0,
2124.0,2158.0,1.0,0.0,
2095.0,2157.0,1.0,0.0,
2027.0,2092.0,0.0,0.0,
1991.0,2109.0,0.0,0.0,
2054.0,2152.0,0.0,0.0,
2156.0,2323.0,0.0,0.0,
2216.0,1990.0,0.0,0.0,
2165.0,1853.0,0.0,-1.0,
2169.0,2048.0,0.0,-1.0,
2101.0,2189.0,0.0,-1.0,
2031.0,2135.0,-1.0,-1.0,
1958.0,2097.0,-1.0,-1.0,
2051.0,2092.0,-1.0,-1.0,
2026.0,2058.0,-2.0,-1.0,
2051.0,2035.0,-2.0,-1.0,
2053.0,2122.0,-2.0,-1.0,
2205.0,2096.0,-2.0,-1.0,
2193.0,2218.0,-2.0,0.0,
2155.0,2033.0,-3.0,0.0,
1970.0,2051.0,-3.0,0.0,
1910.0,2035.0,-3.0,0.0,
2167.0,1900.0,-3.0,0.0,
2063.0,2510.0,-2.0,0.0,
2164.0,2006.0,-1.0,0.0,
2156.0,2377.0,-1.0,0.0,
2078.0,2187.0,0.0,0.0,
2034.0,2087.0,0.0,0.0,
2097.0,2041.0,0.0,0.0,
2023.0,1916.0,2.0,0.0,
2056.0,2127.0,3.0,0.0,
2096.0,2040.0,4.0,0.0,
2070.0,1970.0,5.0,0.0,
2077.0,1847.0,6.0,0.0,
2126.0,2135.0,6.0,0.0,
2187.0,2307.0,7.0,0.0,
2135.0,2063.0,7.0,0.0,
2094.0,1977.0,8.0,0.0,
2028.0,1902.0,8.0,0.0,
1847.0,1924.0,9.0,0.0,
2031.0,2080.0,9.0,0.0,
2177.0,2058.0,9.0,0.0,
2070.0,1913.0,9.0,0.0,
2084.0,1995.0,9.0,0.0,
2192.0,2185.0,9.0,0.0,
2100.0,2092.0,9.0,0.0,
2115.0,2027.0,8.0,0.0,
2044.0,1964.0,8.0,0.0,
1931.0,2120.0,8.0,0.0,
1990.0,2139.0,7.0,0.0,
2104.0,2200.0,7.0,0.0,
2118.0,2207.0,6.0,0.0,
2114.0,2052.0,6.0,0.0,
2172.0,2037.0,5.0,0.0,
2234.0,2005.0,5.0,0.0,
2208.0,1993.0,4.0,0.0,
2156.0,2069.0,4.0,0.0,
2103.0,2156.0,3.0,0.0,
2147.0,2152.0,3.0,0.0,
2094.0,2179.0,2.0,0.0,
2090.0,2114.0,2.0,0.0,
2111.0,2115.0,2.0,0.0,
2127.0,2104.0,1.0,0.0,
2117.0,2158.0,1.0,0.0,
2064.0,2148.0,1.0,0.0,
2066.0,2057.0,0.0,0.0,
2036.0,1876.0,0.0,0.0,
1977.0,2083.0,0.0,0.0,
1968.0,2131.0,0.0,0.0,
2010.0,2089.0,0.0,0.0,
2019.0,1999.0,0.0,0.0,
2066.0,2122.0,0.0,0.0,
2211.0,2044.0,0.0,0.0,
2107.0,2114.0,0.0,0.0,
2022.0,2053.0,0.0,0.0,
2058.0,2042.0,0.0,0.0,
2066.0,2092.0,0.0,0.0,
2008.0,2064.0,0.0,0.0,
2054.0,2045.0,0.0,0.0,
2053.0,2317.0,0.0,0.0,
2190.0,2160.0,1.0,0.0,
2189.0,2130.0,1.0,0.0,
2118.0,2027.0,2.0,0.0,
2004.0,2041.0,3.0,0.0,
1924.0,1883.0,4.0,0.0,
1977.0,1928.0,4.0,0.0,
1998.0,2208.0,5.0,0.0,
2026.0,1893.0,6.0,0.0,
2165.0,2040.0,7.0,0.0,
2349.0,2053.0,8.0,0.0,
2226.0,2130.0,9.0,0.0,
2173.0,2095.0,10.0,0.0,
2119.0,2084.0,11.0,0.0,
2086.0,2039.0,11.0,0.0,
2084.0,2092.0,12.0,0.0,
2058.0,2157.0,13.0,0.0,
2086.0,2105.0,13.0,0.0,
2069.0,2112.0,14.0,0.0,
2072.0,2123.0,14.0,0.0,
2113.0,2155.0,15.0,0.0,
2071.0,2107.0,15.0,0.0,
2067.0,2019.0,15.0,0.0,
2000.0,2101.0,15.0,0.0,
1959.0,2147.0,16.0,0.0,
2026.0,1908.0,16.0,0.0,
2124.0,2062.0,16.0,0.0,
2174.0,2015.0,16.0,0.0,
2158.0,2024.0,16.0,0.0,
2133.0,2089.0,15.0,0.0,
2073.0,2068.0,15.0,0.0,
2059.0,2066.0,14.0,0.0,
2072.0,2135.0,0,
2082.0,2117.0,13.0,0.0,
2013.0,2125.0,13.0,0.0,
2044.0,2081.0,12.0,0.0,
2119.0,2059.0,12.0,0.0,
2083.0,2074.0,11.0,0.0,
2086.0,2062.0,10.0,0.0,
2050.0,2043.0,10.0,0.0,
2079.0,2069.0,9.0,0.0,
1983.0,1896.0,9.0,0.0,
2048.0,2032.0,8.0,0.0,
2072.0,2064.0,8.0,0.0,
2032.0,2118.0,7.0,0.0,
2040.0,2111.0,7.0,0.0,
2158.0,2063.0,6.0,0.0,
2120.0,2112.0,6.0,0.0,
2200.0,2199.0,6.0,0.0,
2180.0,1936.0,6.0,0.0,
2154.0,2080.0,5.0,0.0,
2161.0,2093.0,5.0,0.0,
2115.0,2200.0,5.0,0.0,
2066.0,2104.0,5.0,0.0,
2069.0,2135.0,6.0,0.0,
2065.0,2076.0,6.0,0.0,
2116.0,2151.0,6.0,0.0,
2098.0,2000.0,7.0,0.0,
2095.0,2117.0,7.0,0.0,
2043.0,2051.0,8.0,0.0,
2011.0,2052.0,8.0,0.0,
1981.0,2194.0,9.0,0.0,
2028.0,2195.0,10.0,0.0,
2060.0,2023.0,11.0,0.0,
2120.0,1714.0,12.0,0.0,
2174.0,2115.0,13.0,0.0,
2150.0,2162.0,14.0,0.0,
2133.0,2098.0,15.0,0.0,
2100.0,2072.0,17.0,0.0,
2062.0,1971.0,17.0,0.0,
2061.0,2104.0,18.0,0.0,
2078.0,2101.0,19.0,0.0,
2086.0,2251.0,20.0,0.0,
2090.0,2147.0,21.0,0.0,
2128.0,2200.0,22.0,0.0,
2076.0,2029.0,22.0,-1.0,
2021.0,1880.0,23.0,-1.0,
1954.0,2002.0,23.0,-1.0,
2069.0,2125.0,23.0,-1.0,
2070.0,2132.0,24.0,-1.0,
2030.0,2061.0,24.0,-1.0,
2212.0,2122.0,24.0,-1.0,
2261.0,2099.0,24.0,-1.0,
2043.0,1835.0,24.0,-1.0,
2015.0,1952.0,24.0,-1.0,
2034.0,2049.0,24.0,-1.0,
2064.0,1970.0,24.0,-1.0,
2055.0,1923.0,24.0,-1.0,
2150.0,2177.0,23.0,-1.0,
2183.0,2173.0,23.0,-1.0,
2170.0,2197.0,22.0,-1.0,
2103.0,2024.0,22.0,-1.0,
2018.0,2067.0,21.0,-1.0,
2007.0,2144.0,21.0,-1.0,
2108.0,2168.0,20.0,-1.0,
2046.0,2006.0,19.0,-1.0,
2075.0,2031.0,18.0,-1.0,
2122.0,2154.0,18.0,-1.0,
2076.0,2094.0,17.0,-1.0,
2152.0,2121.0,16.0,-1.0,
2118.0,2180.0,16.0,-1.0,
2054.0,1987.0,15.0,-1.0,
2046.0,1997.0,15.0,0.0,
2050.0,2148.0,15.0,0.0,
2046.0,2107.0,15.0,0.0,
2016.0,2092.0,15.0,0.0,
2007.0,1991.0,15.0,0.0,
2072.0,2142.0,15.0,0.0,
2108.0,2061.0,16.0,0.0,
2086.0,2256.0,16.0,0.0,
2070.0,2109.0,17.0,0.0,
2036.0,2108.0,17.0,0.0,
2041.0,2162.0,18.0,0.0,
2021.0,2095.0,19.0,0.0,
2036.0,2091.0,19.0,0.0,
2092.0,2065.0,20.0,0.0,
2142.0,2010.0,21.0,0.0,
2220.0,2136.0,22.0,0.0,
2206.0,2112.0,23.0,0.0,
2150.0,2102.0,23.0,0.0,
2075.0,2185.0,24.0,0.0,
1986.0,1982.0,25.0,-1.0,
1967.0,2012.0,26.0,-1.0,
2106.0,2118.0,27.0,-1.0,
2095.0,2195.0,27.0,0.0,
2048.0,1922.0,28.0,-1.0,
2096.0,1992.0,28.0,-1.0,
2069.0,1890.0,29.0,-1.0,
2117.0,2101.0,29.0,-1.0,
2181.0,2114.0,30.0,-1.0,
2076.0,2033.0,30.0,-1.0,
2055.0,1874.0,30.0,-1.0,
2077.0,2116.0,30.0,-1.0,
2053.0,2282.0,30.0,-1.0,
2078.0,2333.0,30.0,-1.0,
2099.0,2335.0,31.0,-1.0,
2068.0,2216.0,31.0,-1.0,
2074.0,1802.0,31.0,-1.0,
2009.0,1746.0,31.0,-1.0,
1994.0,2028.0,31.0,-2.0,
2051.0,2197.0,31.0,-2.0,
2063.0,2092.0,31.0,-2.0,
2107.0,1993.0,31.0,-2.0,
2079.0,1999.0,31.0,-2.0,
2127.0,1930.0,31.0,-2.0,
2210.0,2044.0,31.0,-2.0,
2137.0,2172.0,31.0,-2.0,
2126.0,2091.0,31.0,-2.0,
2063.0,2071.0,30.0,-2.0,
2025.0,2125.0,30.0,-2.0,
2021.0,2122.0,30.0,-2.0,
2099.0,2172.0,30.0,-2.0,
2093.0,2051.0,30.0,-1.0,
2134.0,2082.0,30.0,-1.0,
2096.0,2028.0,30.0,-1.0,
2073.0,2052.0,30.0,-1.0,
2052.0,2088.0,30.0,-1.0,
2001.0,2085.0,30.0,-1.0,
2037.0,2203.0,30.0,-1.0,
2063.0,2112.0,30.0,-1.0,
2130.0,2063.0,30.0,-1.0,
2132.0,2117.0,30.0,-1.0,
2071.0,2145.0,31.0,-1.0,
2062.0,2144.0,31.0,-1.0,
2103.0,2084.0,31.0,-1.0,
2093.0,2021.0,32.0,-1.0,
2095.0,2072.0,32.0,-1.0,
2088.0,2114.0,33.0,-1.0,
2071.0,2107.0,33.0,-1.0,
2085.0,2214.0,34.0,-1.0,
2070.0,2154.0,35.0,-1.0,
2087.0,2085.0,35.0,-1.0,
2056.0,1971.0,35.0,-1.0,
2013.0,1974.0,36.0,-1.0,
2136.0,2093.0,36.0,-1.0,
2076.0,2159.0,37.0,-1.0,
2103.0,2113.0,37.0,-1.0,
2037.0,2042.0,38.0,-1.0,
2066.0,2098.0,38.0,-1.0,
2101.0,2203.0,38.0,-1.0,
2132.0,2081.0,39.0,-1.0,
2089.0,1723.0,39.0,-1.0,
2121.0,1893.0,39.0,-1.0,
2005.0,1969.0,40.0,-1.0,
2051.0,2082.0,40.0,-1.0,
2120.0,1952.0,40.0,-1.0,
2106.0,2321.0,40.0,-1.0,
2033.0,2233.0,40.0,-1.0,
2145.0,2083.0,40.0,-1.0,
2063.0,2117.0,39.0,-1.0,
2068.0,2079.0,39.0,-1.0,
2072.0,2030.0,39.0,-1.0,
2157.0,1826.0,39.0,-1.0,
2186.0,1965.0,39.0,-1.0,
2170.0,1997.0,39.0,0.0,
2177.0,2075.0,38.0,0.0,
2188.0,2140.0,35.0,0.0,
2158.0,2161.0,37.0,0.0,
2069.0,1981.0,38.0,0.0,
2050.0,2065.0,37.0,0.0,
1963.0,2104.0,37.0,0.0,
1970.0,2113.0,37.0,0.0,
2020.0,1997.0,37.0,0.0,
2067.0,2028.0,37.0,0.0,
2033.0,2070.0,37.0,0.0,
2053.0,2369.0,38.0,0.0,
2064.0,2155.0,41.0,0.0,
2095.0,2137.0,39.0,-1.0,
2074.0,2148.0,39.0,0.0,
2038.0,2093.0,40.0,0.0,
2050.0,2108.0,40.0,0.0,
2070.0,2108.0,41.0,0.0,
2077.0,2106.0,41.0,0.0,
2088.0,2102.0,41.0,0.0,
2098.0,2064.0,42.0,0.0,
2093.0,2029.0,43.0,-1.0,
2084.0,2188.0,43.0,-1.0,
2061.0,2150.0,44.0,-1.0,
2083.0,2151.0,44.0,-1.0,
2103.0,1932.0,45.0,-1.0,
2072.0,1944.0,45.0,-1.0,
2090.0,2145.0,45.0,-1.0,
2080.0,2125.0,46.0,-1.0,
2086.0,2041.0,46.0,-1.0,
2093.0,2094.0,46.0,-1.0,
2114.0,1995.0,46.0,-1.0,
2109.0,2108.0,46.0,-1.0,
2158.0,2058.0,46.0,-1.0,
2086.0,2010.0,47.0,-1.0,
2057.0,2185.0,47.0,-1.0,
2059.0,1852.0,47.0,-1.0,
2040.0,2042.0,47.0,-1.0,
2088.0,1920.0,46.0,-1.0,
2114.0,2002.0,46.0,-1.0,
2063.0,2096.0,46.0,0.0,
2050.0,2055.0,46.0,0.0,
2109.0,1991.0,46.0,0.0,
2092.0,1900.0,45.0,0.0,
2107.0,2129.0,45.0,0.0,
2157.0,2209.0,45.0,0.0,
2201.0,2185.0,45.0,0.0,
2181.0,2053.0,45.0,0.0,
2097.0,2008.0,45.0,0.0,
2019.0,2035.0,44.0,0.0,
2043.0,2177.0,44.0,0.0,
2021.0,2230.0,44.0,0.0,
1994.0,2101.0,44.0,0.0,
2009.0,2042.0,44.0,0.0,
2084.0,2100.0,44.0,0.0,
2121.0,2002.0,44.0,0.0,
2100.0,2088.0,44.0,0.0,
2080.0,2091.0,44.0,0.0,
2009.0,2123.0,44.0,0.0,
2066.0,2111.0,44.0,0.0,
2140.0,2094.0,45.0,0.0,
2119.0,2134.0,45.0,0.0,
2128.0,2181.0,45.0,0.0,
2131.0,2123.0,45.0,0.0,
2101.0,2150.0,46.0,0.0,
2098.0,2061.0,46.0,0.0,
2070.0,2092.0,47.0,0.0,
2025.0,2043.0,47.0,0.0,
2030.0,2108.0,47.0,0.0,
2037.0,2019.0,48.0,0.0,
2065.0,2124.0,48.0,-1.0,
2111.0,2074.0,49.0,0.0,
2113.0,2066.0,49.0,-1.0,
2128.0,2218.0,50.0,-1.0,
2032.0,2173.0,50.0,-1.0,
2070.0,1908.0,50.0,-1.0,
1990.0,2001.0,50.0,-1.0,
1993.0,1861.0,51.0,-1.0,
2019.0,2108.0,51.0,-1.0,
2069.0,1816.0,51.0,-1.0,
2127.0,2017.0,51.0,-1.0,
2188.0,2192.0,51.0,-2.0,
2108.0,2113.0,51.0,-1.0,
2013.0,2047.0,51.0,-1.0,
2040.0,2103.0,51.0,-2.0,
2079.0,2006.0,51.0,-1.0,
2124.0,2118.0,51.0,-2.0,
2205.0,2081.0,51.0,-2.0,
2208.0,2273.0,51.0,-2.0,
2084.0,2115.0,51.0,-1.0,
2061.0,2062.0,51.0,-1.0,
2061.0,2061.0,51.0,-1.0,
2025.0,2142.0,51.0,-1.0,
2005.0,1890.0,50.0,-1.0,
2155.0,2051.0,50.0,-1.0,
2130.0,1980.0,50.0,-1.0,
2102.0,1990.0,50.0,-1.0,
2146.0,2025.0,50.0,-1.0,
2155.0,2130.0,50.0,-1.0,
2122.0,2159.0,50.0,-1.0,
2066.0,2126.0,50.0,-1.0,
2120.0,2147.0,50.0,-1.0,
2098.0,2153.0,50.0,-1.0,
2110.0,2115.0,50.0,-1.0,
2046.0,2107.0,50.0,-1.0,
2071.0,2165.0,50.0,-1.0,
2091.0,2162.0,51.0,-1.0,
2085.0,2151.0,51.0,-1.0,
2065.0,2100.0,51.0,-1.0,
2065.0,2088.0,51.0,-1.0,
2035.0,2111.0,51.0,-1.0,
2037.0,2073.0,52.0,-1.0,
2017.0,2062.0,52.0,-1.0,
2025.0,2070.0,52.0,-2.0,
2073.0,2103.0,53.0,-2.0,
2128.0,2199.0,53.0,-2.0,
2120.0,2108.0,54.0,-2.0,
2105.0,2129.0,54.0,-2.0,
2045.0,1977.0,55.0,-2.0,
2005.0,1994.0,55.0,-2.0,
2000.0,2089.0,55.0,-2.0,
2100.0,2113.0,56.0,-2.0,
2110.0,1997.0,56.0,-2.0,
2097.0,1900.0,56.0,-2.0,
2129.0,2014.0,56.0,-2.0,
2129.0,2145.0,56.0,-2.0,
2096.0,2133.0,56.0,-2.0,
2080.0,2206.0,56.0,-2.0,
2095.0,1994.0,57.0,-2.0,
2007.0,2016.0,57.0,-2.0,
2015.0,2006.0,57.0,-2.0,
2135.0,2179.0,57.0,-2.0,
2070.0,1975.0,57.0,-2.0,
2129.0,2005.0,56.0,-2.0,
2104.0,2108.0,56.0,-2.0,
2032.0,1927.0,56.0,-2.0,
2131.0,1998.0,56.0,-1.0,
2061.0,2105.0,56.0,-1.0,
2040.0,1903.0,56.0,-1.0,
2055.0,2077.0,56.0,-1.0,
2174.0,2244.0,55.0,-1.0,
2132.0,2226.0,55.0,-1.0,
2107.0,2131.0,55.0,-1.0,
2083.0,2154.0,55.0,-1.0,
2116.0,2093.0,55.0,-1.0,
2147.0,2165.0,55.0,-1.0,
2158.0,2100.0,55.0,-1.0,
2071.0,2009.0,55.0,-1.0,
2078.0,2092.0,55.0,-1.0,
2075.0,2076.0,55.0,-1.0,
2101.0,2150.0,55.0,-2.0,
2114.0,2069.0,55.0,-2.0,
2110.0,2101.0,56.0,-2.0,
2107.0,2117.0,56.0,-2.0,
2083.0,2124.0,56.0,-2.0,
2070.0,2088.0,56.0,-2.0,
2043.0,2037.0,57.0,-2.0,
2042.0,2070.0,57.0,-2.0,
2068.0,2100.0,57.0,-2.0,
2077.0,2166.0,58.0,-2.0,
2072.0,2088.0,58.0,-2.0,
2074.0,2054.0,58.0,-2.0,
2045.0,2090.0,58.0,-2.0,
2060.0,2002.0,59.0,-2.0,
2041.0,2051.0,59.0,-2.0,
2032.0,1998.0,59.0,-2.0,
2102.0,2099.0,59.0,-2.0,
2131.0,2112.0,60.0,-3.0,
2146.0,2020.0,60.0,-3.0,
2107.0,2020.0,60.0,-2.0,
2069.0,2085.0,60.0,-2.0,
2047.0,2252.0,60.0,-2.0,
2067.0,2010.0,60.0,-2.0,
2061.0,1881.0,60.0,-2.0,
2056.0,1956.0,60.0,-2.0,
2089.0,2016.0,60.0,-2.0,
2130.0,2222.0,60.0,-2.0,
2127.0,2145.0,60.0,-2.0,
2063.0,2036.0,60.0,-2.0,
2079.0,1971.0,60.0,-2.0,
2076.0,2189.0,60.0,-2.0,
2080.0,2133.0,60.0,-2.0,
2018.0,1963.0,59.0,-2.0,
2071.0,1890.0,59.0,-2.0,
2095.0,2133.0,59.0,-2.0,
2129.0,2160.0,59.0,-2.0,
2154.0,1966.0,59.0,-2.0,
2060.0,2157.0,59.0,-1.0,
2075.0,2268.0,59.0,-1.0,
2094.0,2059.0,59.0,-1.0,
2084.0,2003.0,59.0,-1.0,
2090.0,1874.0,59.0,-1.0,
2072.0,2047.0,59.0,-1.0,
2109.0,2068.0,58.0,-1.0,
2158.0,2136.0,58.0,-1.0,
2117.0,2184.0,59.0,-1.0,
2086.0,2162.0,59.0,-1.0,
2047.0,2115.0,59.0,-1.0,
2012.0,2027.0,59.0,-1.0,
2006.0,2149.0,59.0,-1.0,
2045.0,2152.0,59.0,-2.0,
2130.0,2125.0,59.0,-2.0,
2157.0,2081.0,60.0,-2.0,
2129.0,2135.0,60.0,-2.0,
2100.0,2036.0,61.0,-2.0,
2061.0,1835.0,61.0,-2.0,
2046.0,2058.0,61.0,-2.0,
2045.0,2246.0,61.0,-2.0,
2057.0,2340.0,62.0,-2.0,
2054.0,2175.0,62.0,-2.0,
2088.0,2135.0,62.0,-3.0,
2123.0,2042.0,62.0,-3.0,
2102.0,1991.0,63.0,-3.0,
2082.0,1985.0,63.0,-3.0,
2074.0,2238.0,63.0,-3.0,
2071.0,2221.0,64.0,-3.0,
2015.0,1954.0,64.0,-3.0,
2078.0,1839.0,65.0,-3.0,
2092.0,1998.0,65.0,-3.0,
2108.0,2028.0,65.0,-3.0,
2112.0,2051.0,65.0,-3.0,
2133.0,2143.0,65.0,-3.0,
2138.0,2089.0,66.0,-3.0,
2050.0,2204.0,66.0,-3.0,
2003.0,2011.0,66.0,-3.0,
2018.0,1904.0,66.0,-3.0,
2102.0,2050.0,66.0,-3.0,
2124.0,2154.0,66.0,-3.0,
2115.0,2037.0,66.0,-3.0,
2110.0,2041.0,66.0,-3.0,
2130.0,2057.0,66.0,-3.0,
2153.0,1957.0,66.0,-3.0,
2045.0,2070.0,65.0,-3.0,
2051.0,2185.0,65.0,-3.0,
2048.0,1954.0,65.0,-3.0,
2077.0,1900.0,65.0,-3.0,
2201.0,2101.0,65.0,-3.0,
2066.0,2165.0,64.0,-3.0,
2083.0,2101.0,64.0,-3.0,
2093.0,2005.0,64.0,-2.0,
2055.0,2050.0,63.0,-2.0,
2067.0,2090.0,63.0,-2.0,
2032.0,2099.0,62.0,-2.0,
2058.0,2136.0,62.0,-2.0,
2080.0,2136.0,62.0,-2.0,
2138.0,2175.0,62.0,-2.0,
2148.0,2178.0,61.0,-1.0,
2111.0,2103.0,61.0,-1.0,
2078.0,2133.0,61.0,-1.0,
2062.0,2166.0,61.0,-1.0,
2042.0,2074.0,61.0,-2.0,
2036.0,2048.0,61.0,-2.0,
2058.0,2107.0,62.0,-2.0,
2087.0,2100.0,62.0,-2.0,
2105.0,2099.0,62.0,-2.0,
2110.0,2111.0,62.0,-2.0,
2089.0,2094.0,63.0,-2.0,
2106.0,2090.0,63.0,-3.0,
2070.0,2052.0,63.0,-3.0,
2032.0,2051.0,63.0,-3.0,
2047.0,2045.0,64.0,-3.0,
2080.0,2077.0,64.0,-3.0,
2092.0,2052.0,64.0,-3.0,
2111.0,1984.0,64.0,-3.0,
2106.0,2108.0,64.0,-3.0,
2085.0,2173.0,65.0,-3.0,
2072.0,2126.0,65.0,-3.0,
2052.0,2161.0,65.0,-4.0,
2041.0,2058.0,65.0,-4.0,
2023.0,2040.0,65.0,-4.0,
2091.0,2108.0,66.0,-4.0,
2089.0,1937.0,66.0,-4.0,
2104.0,2046.0,66.0,-4.0,
2126.0,2200.0,66.0,-4.0,
2075.0,2191.0,66.0,-4.0,
1987.0,1920.0,66.0,-4.0,
2083.0,2173.0,66.0,-3.0,
2062.0,2161.0,66.0,-3.0,
2049.0,1762.0,66.0,-3.0,
2075.0,2122.0,66.0,-3.0,
2144.0,2099.0,66.0,-3.0,
2164.0,1959.0,66.0,-3.0,
2026.0,1855.0,66.0,-3.0,
2081.0,2002.0,66.0,-3.0,
2025.0,2118.0,65.0,-3.0,
2067.0,2244.0,65.0,-3.0,
2086.0,2058.0,65.0,-3.0,
2127.0,2107.0,65.0,-2.0,
2175.0,2075.0,64.0,-2.0,
2150.0,2122.0,64.0,-2.0,
2098.0,2150.0,64.0,-2.0,
2115.0,2066.0,64.0,-2.0,
2119.0,2144.0,64.0,-2.0,
2102.0,2108.0,64.0,-2.0,
2068.0,2067.0,64.0,-2.0,
2048.0,2059.0,64.0,-2.0,
2067.0,2097.0,64.0,-2.0,
2132.0,2069.0,64.0,-2.0,
2119.0,2192.0,64.0,-2.0,
2098.0,2085.0,64.0,-2.0,
2013.0,1998.0,64.0,-3.0,
2023.0,2004.0,64.0,-3.0,
2059.0,2016.0,64.0,-3.0,
2059.0,2100.0,64.0,-3.0,
2068.0,2109.0,65.0,-3.0,
2095.0,2108.0,65.0,-3.0,
2114.0,2083.0,65.0,-3.0,
2092.0,2110.0,65.0,-4.0,
2102.0,2148.0,65.0,-4.0,
2054.0,2137.0,65.0,-4.0,
2041.0,2136.0,66.0,-4.0,
2021.0,1840.0,66.0,-4.0,
2061.0,1973.0,66.0,-4.0,
2074.0,2065.0,66.0,-4.0,
2067.0,2209.0,66.0,-4.0,
2137.0,2116.0,66.0,-4.0,
2118.0,2062.0,67.0,-4.0,
2118.0,2238.0,67.0,-4.0,
2072.0,2123.0,67.0,-4.0,
2037.0,1970.0,67.0,-4.0,
2012.0,1989.0,67.0,-4.0,
2056.0,2095.0,67.0,-4.0,
2045.0,2001.0,67.0,-4.0,
2088.0,2028.0,67.0,-4.0,
2165.0,2081.0,67.0,-4.0,
2127.0,2111.0,67.0,-4.0,
2095.0,2132.0,67.0,-4.0,
2087.0,2156.0,67.0,-4.0,
2013.0,1982.0,67.0,-4.0,
2031.0,2079.0,67.0,-4.0,
2116.0,2090.0,67.0,-4.0,
2100.0,1979.0,67.0,-4.0,
2058.0,2037.0,67.0,-4.0,
2088.0,2125.0,67.0,-4.0,
2121.0,2158.0,67.0,-4.0,
2113.0,1968.0,67.0,-4.0,
2081.0,2145.0,67.0,-4.0,
2030.0,2035.0,67.0,-4.0,
2027.0,1918.0,66.0,-4.0,
2029.0,2061.0,66.0,-3.0,
2066.0,2111.0,66.0,-3.0,
2159.0,2159.0,66.0,-3.0,
2181.0,2093.0,66.0,-3.0,
2085.0,2026.0,65.0,-3.0,
2068.0,2064.0,65.0,-3.0,
2055.0,2089.0,65.0,-3.0,
2063.0,2169.0,65.0,-3.0,
2072.0,2173.0,65.0,-2.0,
2090.0,2066.0,65.0,-2.0,
2129.0,2129.0,65.0,-2.0,
2134.0,2051.0,65.0,-2.0,
2130.0,2121.0,65.0,-3.0,
2086.0,2120.0,65.0,-3.0,
2042.0,2069.0,65.0,-3.0,
2034.0,2076.0,65.0,-3.0,
2044.0,2109.0,65.0,-3.0,
2072.0,2085.0,65.0,-3.0,
2072.0,2021.0,65.0,-3.0,
2108.0,2067.0,66.0,-3.0,
2110.0,2096.0,66.0,-3.0,
2101.0,2178.0,66.0,-3.0,
2103.0,2139.0,66.0,-4.0,
2076.0,2105.0,66.0,-4.0,
2037.0,2070.0,66.0,-4.0,
2045.0,2077.0,66.0,-4.0,
2086.0,2052.0,66.0,-4.0,
2105.0,2001.0,67.0,-4.0,
2107.0,2049.0,67.0,-4.0,
2100.0,2133.0,67.0,-4.0,
2092.0,2134.0,67.0,-4.0,
2083.0,2108.0,67.0,-4.0,
2075.0,1984.0,67.0,-4.0,
2065.0,2123.0,67.0,-4.0,
2082.0,1982.0,67.0,-4.0,
2068.0,1924.0,67.0,-4.0,
2094.0,2165.0,67.0,-4.0,
2114.0,2052.0,67.0,-4.0,
2125.0,2067.0,67.0,-4.0,
2087.0,2026.0,67.0,-4.0,
2085.0,2249.0,67.0,-4.0,
2025.0,2177.0,66.0,-4.0,
1990.0,2116.0,66.0,-4.0,
2047.0,1977.0,66.0,-4.0,
2084.0,2086.0,66.0,-4.0,
2100.0,1975.0,66.0,-4.0,
2147.0,2021.0,66.0,-4.0,
2112.0,1993.0,66.0,-3.0,
2098.0,2035.0,66.0,-4.0,
2057.0,2146.0,66.0,-3.0,
2048.0,2080.0,66.0,-3.0,
2064.0,2076.0,66.0,-3.0,
2047.0,2021.0,66.0,-3.0,
2161.0,2156.0,66.0,-3.0,
2155.0,2225.0,65.0,-3.0,
2068.0,2017.0,65.0,-3.0,
2069.0,2010.0,65.0,-3.0,
2103.0,2049.0,65.0,-3.0,
2081.0,2056.0,65.0,-3.0,
2106.0,2062.0,65.0,-3.0,
2078.0,2100.0,65.0,-3.0,
2082.0,2171.0,65.0,-3.0,
2104.0,2126.0,65.0,-3.0,
2071.0,2057.0,65.0,-3.0,
2104.0,2126.0,65.0,-4.0,
2125.0,2106.0,65.0,-4.0,
2054.0,2059.0,65.0,-4.0,
2032.0,2046.0,65.0,-4.0,
2040.0,2052.0,65.0,-4.0,
2068.0,2094.0,65.0,-4.0,
2114.0,2141.0,65.0,-4.0,
2104.0,2076.0,65.0,-4.0,
2112.0,2113.0,65.0,-4.0,
2093.0,2172.0,65.0,-4.0,
2070.0,2063.0,65.0,-4.0,
2054.0,2101.0,65.0,-4.0,
2043.0,2142.0,65.0,-4.0,
2055.0,2062.0,65.0,-4.0,
2056.0,2045.0,65.0,-4.0,
2096.0,1963.0,65.0,-4.0,
2136.0,1979.0,65.0,-4.0,
2157.0,2080.0,65.0,-4.0,
2072.0,2179.0,65.0,-4.0,
2087.0,2172.0,65.0,-4.0,
2052.0,2068.0,65.0,-4.0,
2052.0,1855.0,65.0,-4.0,
2041.0,2052.0,65.0,-4.0,
2055.0,1945.0,65.0,-4.0,
2081.0,2154.0,65.0,-4.0,
2111.0,2224.0,66.0,-4.0,
2058.0,2021.0,66.0,-4.0,
2145.0,2056.0,66.0,-4.0,
2068.0,2098.0,66.0,-4.0,
2053.0,2175.0,66.0,-4.0,
2038.0,1906.0,66.0,-4.0,
2073.0,2006.0,66.0,-4.0,
2134.0,2115.0,66.0,-4.0,
2182.0,2075.0,66.0,-4.0,
2112.0,2081.0,66.0,-4.0,
2158.0,2160.0,66.0,-3.0,
2075.0,2059.0,66.0,-3.0,
2045.0,2048.0,66.0,-3.0,
2080.0,2081.0,66.0,-3.0,
2043.0,2104.0,66.0,-3.0,
2081.0,2172.0,66.0,-3.0,
2090.0,2051.0,66.0,-3.0,
2112.0,2067.0,66.0,-3.0,
2122.0,2149.0,66.0,-3.0,
2127.0,2177.0,66.0,-3.0,
2076.0,2079.0,66.0,-3.0,
2045.0,2032.0,66.0,-3.0,
2022.0,2023.0,66.0,-3.0,
2041.0,2047.0,66.0,-3.0,
2053.0,2084.0,66.0,-3.0,
2082.0,2090.0,66.0,-3.0,
2120.0,2088.0,66.0,-3.0,
2136.0,2101.0,66.0,-4.0,
2112.0,2075.0,66.0,-4.0,
2069.0,2058.0,66.0,-4.0,
2060.0,2074.0,66.0,-4.0,
2032.0,2068.0,66.0,-4.0,
2071.0,2106.0,66.0,-4.0,
2088.0,2104.0,66.0,-4.0,
2107.0,2064.0,66.0,-4.0,
2103.0,2071.0,66.0,-4.0,
2095.0,2072.0,66.0,-4.0,
2069.0,2074.0,66.0,-4.0,
2072.0,2139.0,66.0,-4.0,
2097.0,2132.0,66.0,-4.0,
2023.0,1986.0,66.0,-4.0,
2042.0,2042.0,66.0,-4.0,
2099.0,2112.0,66.0,-4.0,
2096.0,2012.0,66.0,-4.0,
2100.0,2062.0,66.0,-4.0,
2100.0,2093.0,66.0,-4.0,
2080.0,1989.0,66.0,-4.0,
2044.0,2034.0,66.0,-4.0,
2024.0,2061.0,66.0,-4.0,
2032.0,1991.0,66.0,-4.0,
2124.0,2146.0,67.0,-4.0,
2102.0,2170.0,67.0,-3.0,
2119.0,2039.0,67.0,-4.0,
2125.0,2025.0,67.0,-4.0,
2050.0,1994.0,67.0,-4.0,
2078.0,2031.0,67.0,-4.0,
2066.0,1937.0,67.0,-4.0,
2087.0,2186.0,67.0,-4.0,
2062.0,2116.0,67.0,-4.0,
2135.0,2090.0,67.0,-4.0,
2088.0,2127.0,67.0,-4.0,
2129.0,2164.0,67.0,-4.0,
2154.0,2051.0,67.0,-4.0,
2080.0,2087.0,67.0,-3.0,
2062.0,2071.0,67.0,-3.0,
2046.0,2129.0,67.0,-3.0,
2053.0,2110.0,67.0,-3.0,
2034.0,2112.0,67.0,-4.0,
2113.0,2086.0,67.0,-4.0,
2107.0,2009.0,67.0,-4.0,
2111.0,1999.0,67.0,-4.0,
2067.0,2120.0,67.0,-4.0,
2055.0,2079.0,67.0,-4.0,
2040.0,2009.0,67.0,-4.0,
2040.0,2076.0,67.0,-4.0,
2037.0,2110.0,66.0,-4.0,
2063.0,2126.0,66.0,-4.0,
2093.0,2021.0,66.0,-4.0,
2092.0,1982.0,66.0,-4.0,
2107.0,2112.0,66.0,-4.0,
2119.0,2110.0,66.0,-4.0,
2083.0,2117.0,66.0,-4.0,
2049.0,2084.0,66.0,-4.0,
2056.0,2107.0,66.0,-4.0,
2077.0,2032.0,66.0,-4.0,
2114.0,2064.0,66.0,-4.0,
2110.0,2139.0,66.0,-4.0,
2104.0,2211.0,66.0,-4.0,
2095.0,2081.0,66.0,-4.0,
2068.0,1982.0,66.0,-4.0,
2071.0,2105.0,66.0,-4.0,
2047.0,2076.0,66.0,-4.0,
2055.0,2071.0,66.0,-4.0,
2100.0,2066.0,66.0,-4.0,
2113.0,2157.0,66.0,-4.0,
2082.0,1967.0,66.0,-4.0,
2140.0,2110.0,66.0,-4.0,
2139.0,2137.0,66.0,-4.0,
2057.0,2004.0,66.0,-4.0,
2043.0,2043.0,66.0,-4.0,
2059.0,2095.0,66.0,-4.0,
2083.0,2119.0,66.0,-4.0,
1998.0,1942.0,66.0,-4.0,
2081.0,2030.0,67.0,-4.0,
2129.0,2114.0,67.0,-4.0,
2170.0,2181.0,67.0,-4.0,
2077.0,2046.0,67.0,-4.0,
2067.0,2029.0,67.0,-3.0,
2021.0,2040.0,67.0,-4.0,
2059.0,2059.0,67.0,-3.0,
2053.0,2088.0,67.0,-3.0,
2123.0,2073.0,66.0,-4.0,
2103.0,2057.0,66.0,-4.0,
2147.0,1997.0,66.0,-4.0,
2100.0,2106.0,66.0,-4.0,
2092.0,2241.0,66.0,-4.0,
2081.0,2115.0,66.0,-4.0,
2031.0,2003.0,66.0,-4.0,
2052.0,2193.0,66.0,-4.0,
2063.0,2142.0,66.0,-4.0,
2060.0,2126.0,66.0,-4.0,
2095.0,2119.0,66.0,-4.0,
2102.0,2103.0,66.0,-4.0,
2093.0,2086.0,66.0,-4.0,
2082.0,2014.0,66.0,-4.0,
2093.0,2017.0,65.0,-4.0,
2028.0,2064.0,66.0,-4.0,
2040.0,2115.0,66.0,-4.0,
2100.0,2104.0,66.0,-4.0,
2126.0,2128.0,66.0,-4.0,
2159.0,2137.0,66.0,-4.0,
2127.0,1993.0,66.0,-4.0,
2103.0,1971.0,66.0,-4.0,
2063.0,2104.0,66.0,-4.0,
2058.0,2087.0,66.0,-4.0,
2044.0,1984.0,66.0,-4.0,
2003.0,1967.0,66.0,-4.0,
2085.0,2107.0,66.0,-4.0,
2114.0,2091.0,66.0,-4.0,
2086.0,1995.0,66.0,-4.0,
2114.0,2054.0,66.0,-4.0,
2106.0,1963.0,66.0,-4.0,
2098.0,2028.0,66.0,-4.0,
2049.0,2077.0,66.0,-4.0,
2077.0,2080.0,66.0,-4.0,
2045.0,2055.0,66.0,-4.0,
2061.0,2066.0,66.0,-4.0,
2099.0,2142.0,66.0,-4.0,
2138.0,2250.0,66.0,-4.0,
2142.0,2148.0,0,
2101.0,2014.0,66.0,-4.0,
2050.0,2037.0,66.0,-4.0,
2030.0,1995.0,67.0,-4.0,
2042.0,2048.0,67.0,-4.0,
2058.0,2086.0,67.0,-4.0,
2101.0,2108.0,67.0,-4.0,
2153.0,2133.0,67.0,-4.0,
2118.0,2174.0,67.0,-4.0,
2099.0,2148.0,67.0,-4.0,
2068.0,2074.0,67.0,-4.0,
2049.0,2090.0,67.0,-4.0,
2077.0,2154.0,67.0,-4.0,
2040.0,2021.0,66.0,-4.0,
2069.0,2075.0,66.0,-4.0,
2072.0,2053.0,66.0,-4.0,
2096.0,2062.0,67.0,-4.0,
2123.0,2077.0,67.0,-4.0,
2097.0,2066.0,66.0,-4.0,
2113.0,2102.0,66.0,-4.0,
1990.0,2052.0,66.0,-4.0,
2026.0,2085.0,66.0,-4.0,
2062.0,2096.0,66.0,-4.0,
2084.0,2025.0,66.0,-4.0,
2086.0,2170.0,66.0,-4.0,
2087.0,2015.0,66.0,-4.0,
2117.0,2016.0,66.0,-4.0,
2063.0,2047.0,66.0,-4.0,
2084.0,2029.0,66.0,-4.0,
2064.0,2104.0,66.0,-4.0,
2059.0,2181.0,66.0,-4.0,
2041.0,2059.0,66.0,-4.0,
2072.0,2051.0,66.0,-4.0,
2135.0,2148.0,66.0,-4.0,
2119.0,2080.0,66.0,-4.0,
2137.0,1974.0,66.0,-4.0,
2133.0,1992.0,66.0,-4.0,
2064.0,2154.0,66.0,-4.0,
2021.0,2155.0,66.0,-4.0,
2042.0,2014.0,66.0,-4.0,
2069.0,2141.0,66.0,-4.0,
2088.0,2109.0,67.0,-4.0,
2108.0,2094.0,67.0,-4.0,
2098.0,2044.0,67.0,-4.0,
2094.0,2002.0,67.0,-4.0,
2078.0,2018.0,67.0,-4.0,
2086.0,2014.0,67.0,-4.0,
2074.0,2022.0,67.0,-4.0,
2027.0,2106.0,67.0,-4.0,
2071.0,2145.0,67.0,-4.0,
2137.0,2116.0,67.0,-4.0,
2132.0,2092.0,67.0,-4.0,
2116.0,2119.0,66.0,-4.0,
2076.0,2108.0,66.0,-4.0,
2059.0,2066.0,66.0,-4.0,
2058.0,2127.0,66.0,-4.0,
2056.0,2083.0,66.0,-4.0,
2044.0,2013.0,66.0,-4.0,
2080.0,2020.0,67.0,-4.0,
2111.0,2031.0,67.0,-4.0,
2109.0,2077.0,67.0,-4.0,
2101.0,2083.0,67.0,-4.0,
2068.0,2075.0,67.0,-4.0,
2070.0,2077.0,67.0,-4.0,
2058.0,2067.0,67.0,-4.0,
2051.0,2077.0,67.0,-4.0,
2073.0,2080.0,67.0,-4.0,
2084.0,2086.0,67.0,-4.0,
2117.0,2123.0,67.0,-4.0,
2116.0,2184.0,67.0,-4.0,
2121.0,2109.0,67.0,-4.0,
2069.0,2093.0,67.0,-4.0,
2063.0,2062.0,67.0,-4.0,
2030.0,2073.0,67.0,-4.0,
2032.0,2056.0,67.0,-4.0,
2086.0,2074.0,67.0,-4.0,
2092.0,1899.0,67.0,-4.0,
2118.0,1995.0,67.0,-4.0,
2100.0,2143.0,67.0,-4.0,
2076.0,2106.0,67.0,-4.0,
2078.0,2012.0,67.0,-4.0,
2075.0,2046.0,67.0,-4.0,
2050.0,2028.0,67.0,-4.0,
2118.0,2056.0,67.0,-4.0,
2132.0,2099.0,67.0,-4.0,
2115.0,2115.0,67.0,-4.0,
2151.0,2106.0,67.0,-4.0,
2122.0,2089.0,67.0,-4.0,
2044.0,2067.0,67.0,-4.0,
2073.0,2080.0,67.0,-4.0,
2051.0,2074.0,67.0,-4.0,
2042.0,2084.0,67.0,-4.0,
2035.0,2108.0,67.0,-4.0,
2085.0,2102.0,66.0,-4.0,
2131.0,2117.0,66.0,-4.0,
2133.0,2120.0,66.0,-4.0,
2120.0,2147.0,66.0,-4.0,
2107.0,2109.0,66.0,-4.0,
2061.0,2137.0,66.0,-4.0,
2021.0,1985.0,66.0,-4.0,
2031.0,2062.0,66.0,-4.0,
2067.0,2032.0,66.0,-4.0,
2106.0,2070.0,66.0,-4.0,
2109.0,2067.0,66.0,-4.0,
2144.0,2145.0,66.0,-4.0,
2105.0,2074.0,66.0,-4.0,
2089.0,2052.0,66.0,-4.0,
2074.0,2005.0,66.0,-4.0,
2055.0,2187.0,66.0,-4.0,
2063.0,2094.0,67.0,-4.0,
2070.0,2094.0,67.0,-4.0,
2110.0,2140.0,67.0,-4.0,
2135.0,2045.0,67.0,-4.0,
2122.0,2035.0,67.0,-4.0,
2077.0,2016.0,67.0,-4.0,
2052.0,2048.0,67.0,-4.0,
2008.0,2041.0,67.0,-4.0,
2037.0,2088.0,67.0,-4.0,
2065.0,2030.0,67.0,-4.0,
2069.0,2068.0,66.0,-4.0,
2135.0,2053.0,66.0,-4.0,
2126.0,2074.0,66.0,-4.0,
2090.0,2115.0,66.0,-4.0,
2091.0,2067.0,67.0,-4.0,
2026.0,2111.0,67.0,-4.0,
2054.0,1979.0,67.0,-4.0,
2073.0,2037.0,67.0,-4.0,
2034.0,2131.0,67.0,-4.0,
2098.0,2066.0,67.0,-4.0,
2092.0,2035.0,67.0,-4.0,
2105.0,2044.0,67.0,-4.0,
2131.0,2060.0,67.0,-4.0,
2118.0,2080.0,67.0,-4.0,
2062.0,2136.0,67.0,-4.0,
2067.0,2067.0,67.0,-4.0,
2072.0,2073.0,67.0,-4.0,
2075.0,2116.0,67.0,-4.0,
2081.0,2085.0,67.0,-4.0,
2122.0,2094.0,67.0,-4.0,
2109.0,2047.0,67.0,-4.0,
2096.0,2093.0,67.0,-4.0,
2069.0,2067.0,67.0,-4.0,
2034.0,2056.0,67.0,-4.0,
2057.0,2068.0,67.0,-4.0,
2077.0,2097.0,67.0,-4.0,
2114.0,2143.0,67.0,-4.0,
2109.0,2145.0,67.0,-4.0,
2079.0,2045.0,67.0,-4.0,
2111.0,2087.0,67.0,-4.0,
2082.0,2089.0,67.0,-4.0,
2052.0,2076.0,67.0,-4.0,
2054.0,2065.0,67.0,-4.0,
2030.0,2070.0,67.0,-4.0,
2049.0,2057.0,67.0,-4.0,
2124.0,2096.0,67.0,-4.0,
2114.0,2087.0,67.0,-4.0,
2130.0,2122.0,67.0,-4.0,
2113.0,2058.0,67.0,-4.0,
2091.0,2133.0,67.0,-4.0,
2066.0,2133.0,67.0,-4.0,
2040.0,1937.0,67.0,-4.0,
2029.0,1964.0,0,
2073.0,1968.0,67.0,-4.0,
2103.0,2076.0,67.0,-4.0,
2097.0,2061.0,67.0,-4.0,
2086.0,2101.0,67.0,-4.0,
2144.0,2065.0,67.0,-4.0,
2075.0,2047.0,67.0,-4.0,
2012.0,2087.0,67.0,-4.0,
2083.0,2043.0,67.0,-4.0,
2089.0,2086.0,67.0,-4.0,
2083.0,2146.0,67.0,-4.0,
2083.0,2044.0,67.0,-4.0,
2162.0,2137.0,67.0,-4.0,
2107.0,2048.0,67.0,-4.0,
2041.0,2001.0,0,
2022.0,2063.0,67.0,-4.0,
2049.0,2167.0,67.0,-4.0,
2057.0,2089.0,67.0,-4.0,
2076.0,2054.0,67.0,-4.0,
2069.0,1991.0,67.0,-4.0,
2121.0,2074.0,67.0,-4.0,
2080.0,2160.0,67.0,-4.0,
2117.0,2098.0,67.0,-4.0,
2102.0,2075.0,67.0,-4.0,
2062.0,2087.0,67.0,-4.0,
2044.0,2041.0,67.0,-4.0,
2049.0,2095.0,67.0,-4.0,
2088.0,2159.0,67.0,-4.0,
2112.0,2033.0,67.0,-4.0,
2123.0,2098.0,67.0,-4.0,
2141.0,2100.0,67.0,-4.0,
2092.0,2077.0,67.0,-4.0,
2055.0,2066.0,67.0,-4.0,
2056.0,2025.0,67.0,-4.0,
2055.0,2043.0,67.0,-4.0,
2057.0,2071.0,67.0,-4.0,
2083.0,2115.0,67.0,-4.0,
2096.0,2079.0,67.0,-4.0,
2111.0,2086.0,67.0,-4.0,
2087.0,2073.0,67.0,-4.0,
2114.0,2068.0,67.0,-4.0,
2089.0,1996.0,67.0,-4.0,
2067.0,2062.0,67.0,-4.0,
2094.0,2126.0,67.0,-4.0,
2099.0,2081.0,67.0,-4.0,
2106.0,2091.0,67.0,-4.0,
2121.0,2127.0,67.0,-4.0,
2113.0,2130.0,67.0,-4.0,
2069.0,2074.0,67.0,-4.0,
2075.0,2033.0,67.0,-4.0,
2065.0,2016.0,67.0,-4.0,
2044.0,2070.0,67.0,-4.0,
2054.0,2088.0,67.0,-4.0,
2098.0,2119.0,67.0,-4.0,
2087.0,2003.0,67.0,-4.0,
2096.0,2133.0,67.0,-4.0,
2087.0,2085.0,68.0,-4.0,
2084.0,1968.0,67.0,-4.0,
2072.0,2057.0,68.0,-6.0,
2049.0,2102.0,67.0,-7.0,
2002.0,2046.0,68.0,-5.0,
2068.0,2140.0,68.0,-4.0,
2073.0,2168.0,68.0,-3.0,
2093.0,2011.0,68.0,-3.0,
2130.0,2008.0,68.0,-3.0,
2119.0,2079.0,68.0,-3.0,
2101.0,2089.0,68.0,-3.0,
2055.0,2101.0,69.0,-3.0,
2036.0,2112.0,68.0,-1.0,
2071.0,2077.0,69.0,-1.0,
2024.0,1981.0,68.0,-2.0,
2096.0,2063.0,68.0,-3.0,
2113.0,2067.0,68.0,-4.0,
2107.0,2098.0,68.0,-4.0,
2119.0,2149.0,68.0,-4.0,
2121.0,2133.0,68.0,-4.0,
2053.0,2048.0,68.0,-4.0,
2054.0,2073.0,68.0,-4.0,
2030.0,2084.0,68.0,-4.0,
2077.0,2092.0,68.0,-4.0,
2096.0,2110.0,68.0,-4.0,
2096.0,2036.0,68.0,-4.0,
2093.0,2071.0,68.0,-4.0,
2104.0,2100.0,68.0,-4.0,
2104.0,2093.0,68.0,-4.0,
2054.0,2050.0,68.0,-4.0,
2049.0,2061.0,68.0,-4.0,
2046.0,2079.0,68.0,-4.0,
2093.0,2085.0,68.0,-4.0,
2092.0,2085.0,68.0,-4.0,
2092.0,2074.0,68.0,-4.0,
2126.0,2103.0,68.0,-4.0,
2123.0,2097.0,68.0,-4.0,
2069.0,2073.0,68.0,-5.0,
2071.0,2059.0,68.0,-6.0,
2065.0,2068.0,68.0,-6.0,
2050.0,2111.0,68.0,-5.0,
2071.0,2064.0,68.0,-4.0,
2097.0,2058.0,68.0,-4.0,
2106.0,2073.0,68.0,-4.0,
2134.0,2102.0,68.0,-4.0,
2112.0,2088.0,68.0,-4.0,
2082.0,2068.0,68.0,-4.0,
2056.0,2049.0,68.0,-3.0,
2058.0,2076.0,68.0,-2.0,
2053.0,2058.0,68.0,-2.0,
2075.0,2033.0,68.0,-3.0,
2104.0,2091.0,68.0,-4.0,
2117.0,2091.0,68.0,-4.0,
2089.0,2143.0,68.0,-5.0,
2104.0,2092.0,68.0,-5.0,
2070.0,2021.0,68.0,-4.0,
2028.0,2075.0,68.0,-4.0,
2029.0,1972.0,68.0,-4.0,
2088.0,2029.0,68.0,-4.0,
2099.0,2110.0,68.0,-4.0,
2121.0,2144.0,68.0,-4.0,
2132.0,2030.0,68.0,-4.0,
2107.0,2118.0,68.0,-4.0,
2077.0,2067.0,68.0,-4.0,
2032.0,2100.0,68.0,-4.0,
2049.0,2125.0,68.0,-4.0,
2080.0,2039.0,68.0,-4.0,
2088.0,2054.0,68.0,-4.0,
2073.0,2040.0,68.0,-4.0,
2121.0,2083.0,68.0,-4.0,
2142.0,2117.0,68.0,-4.0,
2106.0,1994.0,68.0,-4.0,
2062.0,2106.0,68.0,-4.0,
2065.0,2051.0,68.0,-4.0,
2045.0,2112.0,68.0,-4.0,
2098.0,2107.0,68.0,-4.0,
2065.0,2104.0,68.0,-4.0,
2092.0,2087.0,68.0,-4.0,
2127.0,2104.0,68.0,-4.0,
2134.0,2123.0,68.0,-4.0,
2114.0,2136.0,68.0,-4.0,
2072.0,2059.0,68.0,-4.0,
2059.0,2077.0,68.0,-4.0,
2032.0,2052.0,68.0,-5.0,
2034.0,2078.0,68.0,-6.0,
2082.0,2088.0,67.0,-6.0,
2105.0,2087.0,68.0,-5.0,
2111.0,2085.0,68.0,-4.0,
2146.0,2098.0,68.0,-4.0,
2064.0,2074.0,68.0,-4.0,
2082.0,1951.0,68.0,-4.0,
2009.0,2113.0,68.0,-4.0,
2049.0,2092.0,68.0,-4.0,
2084.0,2083.0,68.0,-4.0,
2091.0,2090.0,68.0,-2.0,
2110.0,2101.0,68.0,-2.0,
2134.0,2126.0,68.0,-3.0,
2116.0,2120.0,68.0,-4.0,
2087.0,2047.0,68.0,-5.0,
2071.0,2060.0,68.0,-5.0,
2076.0,2058.0,68.0,-5.0,
2019.0,2024.0,68.0,-4.0,
2057.0,2051.0,68.0,-4.0,
2088.0,2037.0,68.0,-4.0,
2107.0,2039.0,68.0,-4.0,
2108.0,2074.0,68.0,-4.0,
2115.0,2123.0,68.0,-4.0,
2122.0,2153.0,68.0,-4.0,
2069.0,2016.0,68.0,-4.0,
2031.0,2023.0,68.0,-4.0,
2035.0,2187.0,68.0,-4.0,
2074.0,1990.0,68.0,-4.0,
2122.0,1963.0,68.0,-4.0,
2128.0,2106.0,68.0,-4.0,
2142.0,2038.0,68.0,-4.0,
2130.0,2053.0,68.0,-4.0,
2065.0,2093.0,68.0,-4.0,
2059.0,2043.0,68.0,-4.0,
2056.0,2069.0,68.0,-4.0,
2081.0,2201.0,68.0,-4.0,
2068.0,1924.0,68.0,-4.0,
2053.0,2023.0,68.0,-4.0,
2119.0,2083.0,68.0,-4.0,
2119.0,2155.0,68.0,-4.0,
2103.0,2109.0,68.0,-4.0,
2078.0,2095.0,68.0,-4.0,
2032.0,2075.0,68.0,-4.0,
2060.0,2125.0,68.0,-4.0,
2065.0,2080.0,68.0,-4.0,
2073.0,2059.0,68.0,-4.0,
2148.0,2093.0,68.0,-4.0,
2121.0,2135.0,68.0,-4.0,
2085.0,2088.0,68.0,-4.0,
2075.0,2027.0,68.0,-4.0,
2063.0,2071.0,68.0,-4.0,
2051.0,2106.0,68.0,-4.0,
2045.0,2071.0,68.0,-4.0,
2048.0,2091.0,67.0,-4.0,
2093.0,2098.0,68.0,-4.0,
2110.0,2100.0,67.0,-4.0,
2131.0,2103.0,67.0,-4.0,
2107.0,2102.0,67.0,-4.0,
2104.0,2099.0,67.0,-4.0,
2053.0,2063.0,67.0,-4.0,
2049.0,2068.0,67.0,-4.0,
2037.0,2074.0,67.0,-4.0,
2076.0,2079.0,67.0,-4.0,
2087.0,2078.0,67.0,-4.0,
2124.0,2100.0,67.0,-4.0,
2126.0,2097.0,68.0,-4.0,
2110.0,2084.0,68.0,-4.0,
2067.0,2075.0,68.0,-4.0,
2040.0,2058.0,68.0,-4.0,
2070.0,2081.0,68.0,-4.0,
2093.0,2088.0,68.0,-4.0,
2084.0,2042.0,68.0,-4.0,
2114.0,2090.0,68.0,-4.0,
2126.0,2155.0,68.0,-4.0,
2117.0,2068.0,68.0,-4.0,
2109.0,2066.0,68.0,-4.0,
2074.0,1988.0,68.0,-4.0,
2055.0,2032.0,68.0,-4.0,
2031.0,2120.0,68.0,-4.0,
2056.0,2022.0,68.0,-4.0,
2101.0,2053.0,68.0,-4.0,
2098.0,2110.0,68.0,-4.0,
2078.0,1995.0,68.0,-4.0,
2105.0,2010.0,68.0,-4.0,
2069.0,2087.0,68.0,-4.0,
2056.0,2130.0,68.0,-4.0,
2075.0,2066.0,68.0,-4.0,
2071.0,2098.0,68.0,-4.0,
2076.0,2095.0,68.0,-4.0,
2069.0,2107.0,68.0,-4.0,
2117.0,2041.0,68.0,-4.0,
2132.0,2076.0,68.0,-4.0,
2124.0,2078.0,68.0,-4.0,
2076.0,2128.0,68.0,-4.0,
2049.0,2085.0,68.0,-4.0,
2029.0,1998.0,68.0,-4.0,
2053.0,2052.0,68.0,-4.0,
2065.0,2077.0,68.0,-4.0,
2100.0,2067.0,68.0,-4.0,
2109.0,2032.0,68.0,-4.0,
2114.0,2099.0,68.0,-4.0,
2118.0,2133.0,68.0,-4.0,
2093.0,2083.0,68.0,-4.0,
2051.0,2040.0,68.0,-4.0,
2070.0,2080.0,68.0,-4.0,
2084.0,2078.0,68.0,-4.0,
2080.0,2119.0,68.0,-5.0,
2104.0,2115.0,68.0,-7.0,
2128.0,2095.0,67.0,-8.0,
2119.0,2115.0,67.0,-7.0,
2097.0,2122.0,68.0,-6.0,
2072.0,2041.0,68.0,-5.0,
2052.0,2058.0,68.0,-5.0,
2055.0,2061.0,68.0,-5.0,
2060.0,2060.0,67.0,-5.0,
2083.0,2069.0,67.0,-5.0,
2137.0,2097.0,68.0,-5.0,
2124.0,2110.0,68.0,-2.0,
2118.0,2076.0,68.0,-2.0,
2104.0,2122.0,68.0,-2.0,
2065.0,2061.0,68.0,-4.0,
2016.0,2053.0,68.0,-4.0,
2061.0,2022.0,68.0,-5.0,
2068.0,2026.0,68.0,-5.0,
2101.0,2097.0,68.0,-5.0,
2139.0,2132.0,68.0,-5.0,
2124.0,2080.0,68.0,-4.0,
2127.0,2114.0,68.0,-4.0,
2092.0,2143.0,68.0,-4.0,
2062.0,1934.0,68.0,-4.0,
2008.0,1928.0,68.0,-4.0,
2046.0,2016.0,68.0,-4.0,
2066.0,2070.0,68.0,-4.0,
2085.0,2119.0,68.0,-4.0,
2105.0,2149.0,68.0,-4.0,
2111.0,2029.0,68.0,-4.0,
2116.0,2072.0,68.0,-4.0,
2090.0,2120.0,68.0,-4.0,
2065.0,2113.0,68.0,-6.0,
2057.0,2027.0,68.0,-6.0,
2063.0,2073.0,68.0,-5.0,
2097.0,2162.0,68.0,-5.0,
2081.0,2079.0,68.0,-4.0,
2102.0,2005.0,68.0,-4.0,
2129.0,2088.0,68.0,-4.0,
2119.0,2111.0,68.0,-4.0,
2087.0,2055.0,68.0,-4.0,
2037.0,2072.0,68.0,-4.0,
2043.0,2110.0,68.0,-3.0,
2065.0,2161.0,68.0,-3.0,
2076.0,2010.0,68.0,-3.0,
2100.0,2112.0,68.0,-4.0,
2111.0,2104.0,68.0,-4.0,
2123.0,2033.0,68.0,-5.0,
2100.0,2064.0,68.0,-5.0,
2085.0,2074.0,68.0,-5.0,
2071.0,2097.0,68.0,-5.0,
2053.0,2104.0,68.0,-5.0,
2066.0,2069.0,68.0,-4.0,
2087.0,2082.0,68.0,-4.0,
2132.0,2093.0,68.0,-4.0,
2121.0,2106.0,68.0,-4.0,
2124.0,2106.0,68.0,-4.0,
2096.0,2087.0,68.0,-4.0,
2069.0,2075.0,68.0,-4.0,
2051.0,2071.0,68.0,-4.0,
2063.0,2085.0,68.0,-4.0,
2072.0,2131.0,68.0,-4.0,
2083.0,2098.0,68.0,-4.0,
2099.0,2064.0,68.0,-4.0,
2103.0,2059.0,68.0,-4.0,
2086.0,2067.0,68.0,-4.0,
2076.0,2049.0,68.0,-4.0,
2061.0,2052.0,68.0,-4.0,
2041.0,2060.0,68.0,-4.0,
2045.0,2066.0,68.0,-4.0,
2069.0,2098.0,68.0,-4.0,
2112.0,2133.0,68.0,-5.0,
2111.0,2083.0,68.0,-6.0,
2121.0,2074.0,68.0,-6.0,
2098.0,2117.0,68.0,-5.0,
2071.0,2061.0,68.0,-4.0,
2071.0,2049.0,68.0,-4.0,
2077.0,2144.0,68.0,-4.0,
2024.0,1984.0,68.0,-4.0,
2054.0,2130.0,68.0,-4.0,
2131.0,2065.0,68.0,-4.0,
2149.0,2032.0,69.0,-3.0,
2120.0,2054.0,68.0,-2.0,
2087.0,2058.0,69.0,-3.0,
2084.0,2066.0,69.0,-3.0,
2051.0,2088.0,69.0,-4.0,
2028.0,2021.0,69.0,-5.0,
2050.0,2069.0,69.0,-5.0,
2079.0,2090.0,69.0,-4.0,
2089.0,2107.0,69.0,-4.0,
2125.0,2145.0,69.0,-4.0,
2122.0,2185.0,69.0,-4.0,
2101.0,2096.0,69.0,-4.0,
2053.0,2061.0,69.0,-4.0,
2061.0,2063.0,69.0,-4.0,
2042.0,2092.0,69.0,-4.0,
2033.0,2007.0,69.0,-4.0,
2090.0,1994.0,68.0,-4.0,
2089.0,2037.0,68.0,-4.0,
2127.0,2100.0,68.0,-4.0,
2109.0,2107.0,68.0,-5.0,
2091.0,2106.0,68.0,-6.0,
2087.0,2152.0,68.0,-6.0,
2043.0,2061.0,68.0,-5.0,
2070.0,2141.0,68.0,-4.0,
2060.0,2155.0,68.0,-4.0,
2097.0,2008.0,68.0,-4.0,
2100.0,2010.0,68.0,-4.0,
2117.0,2056.0,68.0,-4.0,
2116.0,2078.0,68.0,-4.0,
2076.0,2079.0,68.0,-3.0,
2073.0,2073.0,68.0,-3.0,
2069.0,2077.0,68.0,-3.0,
2065.0,2099.0,68.0,-5.0,
2071.0,2075.0,68.0,-5.0,
2099.0,2107.0,68.0,-5.0,
2132.0,2121.0,68.0,-5.0,
2111.0,2068.0,68.0,-5.0,
2083.0,2063.0,68.0,-4.0,
2084.0,2070.0,68.0,-4.0,
2059.0,2072.0,68.0,-4.0,
2042.0,2080.0,68.0,-4.0,
2056.0,2096.0,68.0,-4.0,
2081.0,2082.0,68.0,-4.0,
2102.0,2086.0,68.0,-4.0,
2121.0,2099.0,68.0,-4.0,
2115.0,2111.0,68.0,-4.0,
2101.0,2137.0,68.0,-4.0,
2072.0,2077.0,68.0,-5.0,
2054.0,2039.0,68.0,-5.0,
2080.0,2091.0,68.0,-5.0,
2050.0,2100.0,68.0,-5.0,
2086.0,2081.0,68.0,-4.0,
2112.0,2127.0,68.0,-4.0,
2097.0,2051.0,69.0,-4.0,
2119.0,2052.0,69.0,-4.0,
2098.0,2075.0,69.0,-4.0,
2043.0,1993.0,69.0,-5.0,
2049.0,1993.0,69.0,-5.0,
2053.0,1935.0,69.0,-5.0,
2071.0,2041.0,69.0,-5.0,
2096.0,2061.0,69.0,-5.0,
2124.0,2106.0,69.0,-5.0,
2101.0,2108.0,69.0,-5.0,
2096.0,2116.0,69.0,-5.0,
2098.0,2128.0,69.0,-5.0,
2062.0,2081.0,69.0,-5.0,
2030.0,2120.0,69.0,-5.0,
2025.0,2052.0,68.0,-5.0,
2105.0,2039.0,68.0,-5.0,
2110.0,2106.0,68.0,-5.0,
2132.0,2175.0,68.0,-5.0,
2136.0,2092.0,69.0,-5.0,
2087.0,2032.0,68.0,-5.0,
2082.0,2139.0,68.0,-5.0,
2072.0,2044.0,68.0,-5.0,
2052.0,2015.0,69.0,-5.0,
2027.0,2040.0,69.0,-5.0,
2076.0,2078.0,69.0,-5.0,
2108.0,2101.0,68.0,-5.0,
2124.0,2118.0,68.0,-5.0,
2119.0,2090.0,68.0,-5.0,
2118.0,2126.0,68.0,-5.0,
2095.0,2120.0,68.0,-5.0,
2041.0,2001.0,68.0,-5.0,
2034.0,2056.0,68.0,-5.0,
2064.0,2054.0,68.0,-5.0,
2094.0,2090.0,68.0,-5.0,
2115.0,2081.0,68.0,-5.0,
2113.0,2065.0,68.0,-5.0,
2130.0,2108.0,68.0,-5.0,
2114.0,2130.0,68.0,-5.0,
2077.0,2123.0,69.0,-5.0,
2037.0,2028.0,68.0,-5.0,
2054.0,2050.0,68.0,-5.0,
2057.0,2040.0,69.0,-5.0,
2069.0,1998.0,69.0,-5.0,
2099.0,2063.0,69.0,-5.0,
2111.0,2091.0,69.0,-5.0,
2112.0,2062.0,69.0,-5.0,
2103.0,2104.0,69.0,-5.0,
2079.0,2062.0,69.0,-5.0,
2072.0,2099.0,69.0,-5.0,
2073.0,2105.0,69.0,-5.0,
2030.0,2020.0,69.0,-5.0,
2099.0,2078.0,69.0,-5.0,
2106.0,2107.0,69.0,-5.0,
2113.0,2114.0,69.0,-5.0,
2116.0,2192.0,69.0,-5.0,
2084.0,2045.0,69.0,-5.0,
2071.0,2029.0,69.0,-5.0,
2012.0,1999.0,69.0,-5.0,
2060.0,2069.0,69.0,-5.0,
2099.0,2108.0,69.0,-5.0,
2092.0,2079.0,69.0,-5.0,
2133.0,2092.0,69.0,-5.0,
2098.0,2009.0,69.0,-5.0,
2092.0,2069.0,69.0,-5.0,
2077.0,2097.0,69.0,-5.0,
2054.0,2051.0,69.0,-5.0,
2042.0,2030.0,69.0,-5.0,
2037.0,2077.0,69.0,-5.0,
2087.0,2098.0,69.0,-5.0,
2104.0,2096.0,69.0,-5.0,
2100.0,2047.0,69.0,-5.0,
2142.0,2093.0,69.0,-5.0,
2119.0,2109.0,69.0,-5.0,
2086.0,2098.0,69.0,-5.0,
2069.0,2100.0,69.0,-5.0,
2035.0,2025.0,69.0,-5.0,
2040.0,2062.0,69.0,-5.0,
2077.0,2088.0,69.0,-4.0,
2100.0,2109.0,69.0,-4.0,
2119.0,2134.0,69.0,-4.0,
2125.0,2086.0,69.0,-4.0,
2083.0,2084.0,69.0,-4.0,
2071.0,2142.0,69.0,-4.0,
2088.0,2242.0,69.0,-4.0,
2064.0,1946.0,69.0,-4.0,
2020.0,1976.0,69.0,-4.0,
2076.0,2052.0,69.0,-4.0,
2109.0,2039.0,69.0,-4.0,
2111.0,2080.0,69.0,-4.0,
2106.0,2103.0,69.0,-4.0,
2092.0,2098.0,69.0,-5.0,
2062.0,2073.0,69.0,-5.0,
2056.0,2093.0,69.0,-5.0,
2064.0,2099.0,69.0,-5.0,
2090.0,2044.0,69.0,-5.0,
2113.0,2064.0,69.0,-5.0,
2139.0,2134.0,69.0,-5.0,
2110.0,2020.0,69.0,-5.0,
2109.0,2071.0,69.0,-7.0,
2104.0,2066.0,68.0,-7.0,
2061.0,2054.0,68.0,-7.0,
2051.0,2058.0,69.0,-6.0,
2048.0,2072.0,69.0,-5.0,
2076.0,2117.0,69.0,-5.0,
2105.0,2073.0,69.0,-5.0,
2124.0,2076.0,69.0,-5.0,
2112.0,2082.0,69.0,-5.0,
2108.0,2121.0,69.0,-5.0,
2104.0,2087.0,69.0,-3.0,
2045.0,2120.0,69.0,-3.0,
2079.0,2086.0,69.0,-3.0,
2048.0,2052.0,69.0,-4.0,
2065.0,2085.0,69.0,-5.0,
2104.0,2031.0,69.0,-5.0,
2119.0,1978.0,69.0,-5.0,
2114.0,2049.0,69.0,-5.0,
2075.0,2068.0,69.0,-5.0,
2063.0,2114.0,69.0,-5.0,
2057.0,2071.0,69.0,-5.0,
2048.0,2040.0,69.0,-5.0,
2080.0,2091.0,69.0,-5.0,
2109.0,2118.0,69.0,-5.0,
2127.0,2101.0,69.0,-5.0,
2126.0,2126.0,69.0,-4.0,
2146.0,2173.0,69.0,-4.0,
2137.0,2173.0,68.0,-4.0,
2048.0,2072.0,68.0,-4.0,
2038.0,2035.0,68.0,-4.0,
2046.0,2052.0,68.0,-4.0,
2076.0,2018.0,68.0,-4.0,
2107.0,2093.0,68.0,-4.0,
2115.0,2118.0,68.0,-4.0,
2088.0,2071.0,68.0,-4.0,
2095.0,2069.0,68.0,-4.0,
2100.0,2109.0,68.0,-4.0,
2086.0,2146.0,68.0,-4.0,
2035.0,1990.0,69.0,-5.0,
2032.0,2036.0,69.0,-5.0,
2074.0,2094.0,69.0,-5.0,
2093.0,2073.0,69.0,-5.0,
2103.0,2085.0,68.0,-5.0,
2121.0,2085.0,68.0,-5.0,
2092.0,2078.0,68.0,-5.0,
2082.0,2085.0,68.0,-5.0,
2062.0,2095.0,69.0,-5.0,
2056.0,2105.0,69.0,-5.0,
2050.0,2032.0,69.0,-5.0,
2080.0,2073.0,69.0,-5.0,
2111.0,2078.0,69.0,-5.0,
2112.0,2089.0,69.0,-5.0,
2126.0,2115.0,69.0,-5.0,
2094.0,2110.0,69.0,-4.0,
2061.0,2055.0,69.0,-4.0,
2049.0,2067.0,69.0,-4.0,
2050.0,2030.0,69.0,-5.0,
2070.0,2094.0,69.0,-5.0,
2119.0,2165.0,69.0,-4.0,
2139.0,2027.0,69.0,-5.0,
2098.0,2095.0,69.0,-4.0,
2118.0,2013.0,69.0,-5.0,
2056.0,2044.0,69.0,-5.0,
2076.0,2084.0,69.0,-5.0,
2052.0,2139.0,69.0,-5.0,
2048.0,2051.0,69.0,-5.0,
2046.0,2022.0,69.0,-4.0,
2079.0,2041.0,69.0,-5.0,
2110.0,2111.0,69.0,-5.0,
2113.0,2170.0,69.0,-4.0,
2099.0,2081.0,69.0,-5.0,
2074.0,2041.0,69.0,-4.0,
2055.0,2036.0,69.0,-5.0,
2039.0,2033.0,69.0,-5.0,
2055.0,2091.0,69.0,-5.0,
2079.0,2073.0,69.0,-5.0,
2106.0,2071.0,0,
2147.0,2134.0,69.0,-5.0,
2112.0,2185.0,69.0,-5.0,
2113.0,2043.0,69.0,-5.0,
2078.0,2027.0,69.0,-5.0,
2071.0,2086.0,69.0,-5.0,
2033.0,1942.0,69.0,-5.0,
2048.0,2060.0,69.0,-5.0,
2060.0,2036.0,69.0,-5.0,
2092.0,2101.0,69.0,-5.0,
2109.0,2116.0,69.0,-5.0,
2119.0,2050.0,69.0,-5.0,
2116.0,2086.0,69.0,-5.0,
2071.0,2099.0,69.0,-5.0,
2036.0,2074.0,69.0,-5.0,
2047.0,2083.0,69.0,-4.0,
2064.0,2089.0,68.0,-4.0,
2067.0,2101.0,69.0,-5.0,
2099.0,2112.0,69.0,-5.0,
2127.0,2128.0,69.0,-5.0,
2115.0,2140.0,68.0,-5.0,
2126.0,2140.0,68.0,-5.0,
2074.0,2059.0,68.0,-5.0,
2058.0,2071.0,68.0,-5.0,
2054.0,2062.0,69.0,-6.0,
2075.0,2080.0,68.0,-6.0,
2081.0,2104.0,69.0,-5.0,
2113.0,2113.0,69.0,-4.0,
2124.0,2062.0,69.0,-4.0,
2117.0,2091.0,69.0,-4.0,
2092.0,2057.0,69.0,-4.0,
2064.0,2055.0,69.0,-4.0,
2039.0,2055.0,69.0,-4.0,
2065.0,2061.0,69.0,-4.0,
2077.0,2095.0,68.0,-3.0,
2092.0,2090.0,69.0,-3.0,
2088.0,2070.0,69.0,-4.0,
2140.0,2125.0,69.0,-5.0,
2097.0,2043.0,69.0,-5.0,
2088.0,2066.0,69.0,-5.0,
2066.0,2087.0,69.0,-5.0,
2066.0,2107.0,69.0,-5.0,
2079.0,2217.0,69.0,-5.0,
2104.0,2157.0,69.0,-5.0,
2109.0,1989.0,69.0,-4.0,
2070.0,1928.0,69.0,-4.0,
2098.0,1948.0,69.0,-4.0,
2089.0,2060.0,69.0,-4.0,
2086.0,2116.0,69.0,-4.0,
2031.0,2050.0,69.0,-4.0,
2046.0,2033.0,69.0,-4.0,
2050.0,2027.0,69.0,-4.0,
2080.0,2097.0,69.0,-5.0,
2098.0,2129.0,69.0,-5.0,
2126.0,2175.0,69.0,-5.0,
2106.0,2010.0,69.0,-5.0,
2082.0,2068.0,69.0,-4.0,
2076.0,2112.0,69.0,-5.0,
2071.0,2036.0,69.0,-5.0,
2057.0,2116.0,69.0,-5.0,
2048.0,2059.0,69.0,-5.0,
2062.0,2061.0,69.0,-5.0,
2122.0,2101.0,69.0,-5.0,
2126.0,2108.0,69.0,-5.0,
2116.0,2082.0,69.0,-5.0,
2108.0,2095.0,69.0,-5.0,
2083.0,2076.0,69.0,-5.0,
2057.0,2076.0,69.0,-5.0,
2058.0,2098.0,69.0,-5.0,
2072.0,2128.0,69.0,-5.0,
2091.0,2040.0,69.0,-5.0,
2101.0,2062.0,69.0,-5.0,
2133.0,2087.0,69.0,-5.0,
2107.0,2095.0,69.0,-5.0,
2086.0,2095.0,69.0,-5.0,
2084.0,2079.0,69.0,-5.0,
2058.0,2071.0,69.0,-5.0,
2059.0,2063.0,69.0,-5.0,
2072.0,2079.0,69.0,-5.0,
2098.0,2090.0,69.0,-5.0,
2120.0,2106.0,69.0,-5.0,
2136.0,2115.0,69.0,-5.0,
2116.0,2084.0,69.0,-5.0,
2086.0,2070.0,69.0,-5.0,
2058.0,2073.0,69.0,-5.0,
2063.0,2096.0,69.0,-5.0,
2059.0,2039.0,69.0,-5.0,
2081.0,2069.0,69.0,-5.0,
2118.0,2098.0,69.0,-5.0,
2126.0,2097.0,69.0,-5.0,
2124.0,2090.0,69.0,-5.0,
2124.0,2167.0,69.0,-5.0,
2072.0,2030.0,69.0,-5.0,
2036.0,2023.0,69.0,-5.0,
2068.0,2100.0,69.0,-4.0,
2058.0,2008.0,69.0,-4.0,
2066.0,2040.0,69.0,-4.0,
2100.0,2086.0,69.0,-4.0,
2108.0,2095.0,69.0,-4.0,
2114.0,2078.0,69.0,-4.0,
2098.0,2020.0,69.0,-4.0,
2058.0,2065.0,69.0,-4.0,
2049.0,2108.0,69.0,-4.0,
2039.0,1974.0,69.0,-4.0,
2056.0,2018.0,69.0,-4.0,
2076.0,2103.0,69.0,-4.0,
2127.0,2154.0,69.0,-4.0,
2102.0,2241.0,69.0,-4.0,
2122.0,2056.0,68.0,-4.0,
2040.0,2014.0,68.0,-5.0,
2049.0,2027.0,68.0,-5.0,
2044.0,2016.0,68.0,-5.0,
2029.0,2107.0,68.0,-5.0,
2075.0,2090.0,68.0,-5.0,
2096.0,2053.0,68.0,-5.0,
2114.0,2074.0,68.0,-5.0,
2131.0,2166.0,68.0,-5.0,
2079.0,2084.0,68.0,-5.0,
2065.0,2043.0,68.0,-5.0,
2074.0,2100.0,68.0,-5.0,
2059.0,2043.0,68.0,-5.0,
2069.0,2062.0,68.0,-5.0,
2063.0,2075.0,68.0,-5.0,
2098.0,2107.0,68.0,-5.0,
2109.0,2112.0,68.0,-5.0,
2116.0,2123.0,68.0,-5.0,
2109.0,2125.0,68.0,-5.0,
2078.0,2100.0,68.0,-5.0,
2065.0,2097.0,68.0,-5.0,
2047.0,2095.0,68.0,-5.0,
2055.0,2090.0,68.0,-5.0,
2078.0,2091.0,68.0,-5.0,
2103.0,2090.0,68.0,-5.0,
2115.0,2092.0,68.0,-5.0,
2119.0,2106.0,68.0,-5.0,
2098.0,2079.0,68.0,-5.0,
2063.0,2058.0,68.0,-5.0,
2038.0,2048.0,68.0,-5.0,
2051.0,2058.0,68.0,-5.0,
2055.0,2056.0,68.0,-5.0,
2075.0,2069.0,68.0,-5.0,
2124.0,2098.0,68.0,-5.0,
2115.0,2103.0,68.0,-5.0,
2104.0,2055.0,68.0,-5.0,
2096.0,2049.0,69.0,-5.0,
2080.0,2062.0,69.0,-5.0,
2050.0,2056.0,69.0,-5.0,
2055.0,2046.0,69.0,-5.0,
2066.0,2088.0,69.0,-5.0,
2101.0,2143.0,69.0,-5.0,
2125.0,2083.0,69.0,-5.0,
2102.0,2057.0,69.0,-5.0,
2099.0,2019.0,69.0,-5.0,
2100.0,2070.0,69.0,-5.0,
2069.0,2100.0,69.0,-4.0,
2040.0,2027.0,69.0,-4.0,
2034.0,2080.0,69.0,-4.0,
2060.0,2132.0,69.0,-4.0,
2097.0,2160.0,69.0,-4.0,
2127.0,2091.0,69.0,-4.0,
2099.0,1993.0,69.0,-4.0,
2107.0,2057.0,69.0,-4.0,
2092.0,2051.0,69.0,-4.0,
2060.0,2034.0,69.0,-4.0,
2078.0,2064.0,69.0,-4.0,
2032.0,2134.0,69.0,-5.0,
2065.0,2061.0,69.0,-5.0,
2095.0,2101.0,69.0,-5.0,
2119.0,2099.0,69.0,-5.0,
2132.0,2085.0,69.0,-5.0,
2104.0,2096.0,69.0,-5.0,
2098.0,2084.0,69.0,-5.0,
2060.0,2084.0,69.0,-5.0,
2052.0,2085.0,69.0,-5.0,
2065.0,2081.0,69.0,-5.0,
2091.0,2106.0,69.0,-5.0,
2125.0,2093.0,69.0,-5.0,
2113.0,2099.0,69.0,-5.0,
2123.0,2151.0,69.0,-5.0,
2104.0,2090.0,69.0,-5.0,
2059.0,2034.0,69.0,-5.0,
2043.0,2047.0,69.0,-5.0,
2026.0,2083.0,69.0,-5.0,
2060.0,2089.0,69.0,-5.0,
2084.0,2052.0,69.0,-5.0,
2124.0,2085.0,69.0,-5.0,
2120.0,2085.0,69.0,-5.0,
2104.0,2111.0,69.0,-5.0,
2105.0,2063.0,69.0,-5.0,
2084.0,2104.0,69.0,-5.0,
2045.0,2032.0,68.0,-5.0,
2039.0,2060.0,68.0,-5.0,
2052.0,2101.0,68.0,-5.0,
2094.0,2055.0,68.0,-5.0,
2097.0,2046.0,68.0,-5.0,
2081.0,2061.0,68.0,-5.0,
2093.0,2084.0,68.0,-5.0,
2086.0,2060.0,68.0,-5.0,
2081.0,2060.0,68.0,-5.0,
2046.0,2072.0,68.0,-5.0,
2043.0,2116.0,68.0,-5.0,
2069.0,2217.0,68.0,-5.0,
2104.0,2080.0,68.0,-5.0,
2100.0,2029.0,68.0,-5.0,
2120.0,2088.0,68.0,-5.0,
2096.0,2010.0,68.0,-5.0,
2076.0,2072.0,68.0,-5.0,
2063.0,2099.0,68.0,-5.0,
2047.0,2018.0,68.0,-5.0,
2033.0,2067.0,68.0,-5.0,
2075.0,2082.0,68.0,-5.0,
2120.0,2122.0,68.0,-5.0,
2112.0,2094.0,68.0,-5.0,
2100.0,2117.0,68.0,-5.0,
2109.0,2049.0,68.0,-5.0,
2065.0,2074.0,68.0,-5.0,
2054.0,2073.0,68.0,-5.0,
2080.0,2111.0,68.0,-5.0,
2046.0,2048.0,68.0,-5.0,
2081.0,2078.0,68.0,-5.0,
2114.0,2102.0,68.0,-5.0,
2107.0,2051.0,68.0,-5.0,
2116.0,2092.0,68.0,-5.0,
2103.0,2095.0,68.0,-6.0,
2088.0,2076.0,67.0,-6.0,
2052.0,2071.0,68.0,-6.0,
2062.0,2086.0,68.0,-5.0,
2076.0,2101.0,68.0,-5.0,
2101.0,2060.0,68.0,-5.0,
2116.0,2120.0,68.0,-5.0,
2137.0,2137.0,68.0,-5.0,
2125.0,2096.0,68.0,-5.0,
2085.0,2012.0,68.0,-5.0,
2066.0,2027.0,68.0,-3.0,
2042.0,2029.0,68.0,-3.0,
2059.0,2068.0,68.0,-4.0,
2078.0,2089.0,68.0,-4.0,
2081.0,2030.0,68.0,-5.0,
2094.0,2088.0,68.0,-5.0,
2094.0,2052.0,68.0,-5.0,
2117.0,2111.0,68.0,-5.0,
2091.0,2037.0,68.0,-5.0,
2092.0,2109.0,68.0,-5.0,
2071.0,2076.0,68.0,-5.0,
2006.0,2015.0,68.0,-5.0,
2072.0,2116.0,68.0,-5.0,
2107.0,2083.0,68.0,-5.0,
2095.0,2098.0,68.0,-5.0,
2109.0,2064.0,68.0,-5.0,
2112.0,2048.0,68.0,-5.0,
2104.0,2129.0,68.0,-5.0,
2067.0,2032.0,68.0,-5.0,
2058.0,2077.0,68.0,-5.0,
2064.0,2139.0,68.0,-5.0,
2073.0,2066.0,68.0,-5.0,
2101.0,2081.0,68.0,-5.0,
2138.0,2083.0,68.0,-5.0,
2118.0,2117.0,68.0,-5.0,
2096.0,2064.0,68.0,-5.0,
2059.0,2118.0,68.0,-5.0,
2081.0,2066.0,68.0,-5.0,
2035.0,2035.0,68.0,-5.0,
2078.0,2050.0,68.0,-5.0,
2082.0,2075.0,68.0,-5.0,
2118.0,2074.0,68.0,-5.0,
2138.0,2101.0,68.0,-5.0,
2133.0,2109.0,68.0,-5.0,
2104.0,2057.0,68.0,-5.0,
2071.0,2097.0,68.0,-5.0,
2065.0,2110.0,68.0,-5.0,
2046.0,2056.0,68.0,-5.0,
2071.0,2077.0,68.0,-5.0,
2110.0,2107.0,68.0,-5.0,
2100.0,2150.0,68.0,-5.0,
2109.0,2140.0,68.0,-5.0,
2103.0,2011.0,68.0,-5.0,
2102.0,2032.0,68.0,-5.0,
2074.0,2056.0,68.0,-5.0,
2053.0,2083.0,68.0,-5.0,
2064.0,2077.0,68.0,-5.0,
2059.0,2054.0,68.0,-5.0,
2088.0,2040.0,68.0,-5.0,
2113.0,2077.0,68.0,-5.0,
2112.0,2099.0,68.0,-5.0,
2103.0,2127.0,68.0,-5.0,
2056.0,2042.0,68.0,-5.0,
2051.0,2123.0,68.0,-5.0,
2066.0,2037.0,68.0,-5.0,
2020.0,2001.0,68.0,-5.0,
2079.0,2056.0,68.0,-5.0,
2094.0,2102.0,68.0,-5.0,
2135.0,2143.0,68.0,-5.0,
2127.0,2147.0,68.0,-5.0,
2100.0,2040.0,68.0,-5.0,
2045.0,2070.0,68.0,-5.0,
2070.0,2056.0,68.0,-5.0,
2065.0,2036.0,68.0,-5.0,
2063.0,2080.0,68.0,-5.0,
2059.0,2041.0,68.0,-5.0,
2102.0,2179.0,68.0,-5.0,
2136.0,2183.0,68.0,-5.0,
2122.0,2085.0,68.0,-5.0,
2095.0,2021.0,68.0,-5.0,
2083.0,1979.0,68.0,-5.0,
2072.0,2012.0,68.0,-5.0,
2028.0,1970.0,68.0,-5.0,
2053.0,2058.0,68.0,-5.0,
2064.0,2048.0,68.0,-5.0,
2101.0,2095.0,68.0,-5.0,
2117.0,2120.0,68.0,-5.0,
2130.0,2149.0,68.0,-5.0,
2089.0,2067.0,68.0,-5.0,
2060.0,2089.0,68.0,-5.0,
2047.0,2085.0,68.0,-5.0,
2040.0,2088.0,68.0,-5.0,
2071.0,2110.0,68.0,-5.0,
2091.0,2104.0,68.0,-5.0,
2127.0,2103.0,68.0,-5.0,
2133.0,2111.0,0,
2123.0,2100.0,68.0,-5.0,
2100.0,2091.0,68.0,-5.0,
2063.0,2089.0,68.0,-5.0,
2060.0,2074.0,68.0,-5.0,
2044.0,2062.0,68.0,-5.0,
2073.0,2072.0,68.0,-5.0,
2094.0,2087.0,68.0,-5.0,
2094.0,2116.0,68.0,-5.0,
2121.0,2195.0,68.0,-5.0,
2101.0,2162.0,68.0,-5.0,
2073.0,1996.0,0,
2066.0,2008.0,68.0,-5.0,
2041.0,2013.0,68.0,-5.0,
2029.0,1980.0,68.0,-5.0,
2077.0,1993.0,68.0,-5.0,
2106.0,2046.0,68.0,-5.0,
2125.0,2109.0,68.0,-5.0,
2142.0,2098.0,68.0,-5.0,
2092.0,2103.0,68.0,-5.0,
2072.0,2113.0,68.0,-5.0,
2054.0,2054.0,69.0,-5.0,
2031.0,2022.0,68.0,-5.0,
2062.0,2083.0,68.0,-5.0,
2074.0,2100.0,68.0,-5.0,
2121.0,2127.0,68.0,-5.0,
2136.0,2103.0,68.0,-5.0,
2114.0,2116.0,68.0,-5.0,
2090.0,2104.0,68.0,-5.0,
2086.0,2082.0,68.0,-5.0,
2045.0,2082.0,68.0,-5.0,
2034.0,2089.0,68.0,-5.0,
2068.0,2131.0,68.0,-5.0,
2077.0,2061.0,69.0,-5.0,
2110.0,2087.0,69.0,-5.0,
2124.0,2093.0,69.0,-5.0,
2119.0,2100.0,69.0,-4.0,
2103.0,2057.0,69.0,-4.0,
2040.0,2072.0,69.0,-4.0,
2058.0,2102.0,69.0,-5.0,
2083.0,2197.0,69.0,-5.0,
2102.0,2148.0,68.0,-5.0,
2083.0,1945.0,68.0,-5.0,
2109.0,1965.0,68.0,-5.0,
2109.0,2098.0,68.0,-5.0,
2120.0,2057.0,68.0,-5.0,
2077.0,2016.0,68.0,-5.0,
2031.0,2030.0,68.0,-5.0,
2055.0,2077.0,68.0,-5.0,
2001.0,1975.0,68.0,-5.0,
2080.0,2026.0,68.0,-5.0,
2096.0,2120.0,68.0,-5.0,
2116.0,2115.0,68.0,-5.0,
2109.0,2089.0,68.0,-5.0,
2098.0,2106.0,68.0,-5.0,
2099.0,2118.0,68.0,-5.0,
2076.0,2091.0,68.0,-5.0,
2038.0,2085.0,0,
2066.0,2119.0,68.0,-5.0,
2101.0,2104.0,68.0,-5.0,
2098.0,2126.0,68.0,-5.0,
2134.0,2107.0,68.0,-5.0,
2116.0,2038.0,68.0,-5.0,
2103.0,2082.0,68.0,-5.0,
2093.0,2060.0,68.0,-5.0,
2050.0,2065.0,68.0,-5.0,
2053.0,2070.0,68.0,-5.0,
2072.0,2110.0,68.0,-5.0,
2086.0,2112.0,68.0,-5.0,
2143.0,2107.0,68.0,-5.0,
2104.0,2093.0,68.0,-5.0,
2084.0,2107.0,68.0,-5.0,
2086.0,2032.0,68.0,-5.0,
2071.0,2091.0,68.0,-5.0,
2037.0,2013.0,68.0,-5.0,
2032.0,2084.0,68.0,-5.0,
2090.0,2082.0,68.0,-5.0,
2089.0,2038.0,68.0,-5.0,
2082.0,2039.0,68.0,-5.0,
2122.0,2068.0,68.0,-5.0,
2101.0,2088.0,68.0,-5.0,
2086.0,2046.0,68.0,-5.0,
2066.0,2061.0,68.0,-5.0,
2047.0,2090.0,68.0,-5.0,
2042.0,2097.0,68.0,-5.0,
2058.0,2116.0,68.0,-5.0,
2100.0,2173.0,68.0,-5.0,
2146.0,2128.0,68.0,-5.0,
2098.0,2017.0,68.0,-5.0,
2116.0,2092.0,68.0,-5.0,
2082.0,2057.0,0,
2056.0,2126.0,68.0,-5.0,
2047.0,2022.0,68.0,-5.0,
2062.0,2048.0,68.0,-5.0,
2071.0,2085.0,68.0,-5.0,
2098.0,2096.0,68.0,-5.0,
2141.0,2077.0,68.0,-5.0,
2117.0,2047.0,68.0,-5.0,
2095.0,2052.0,68.0,-5.0,
2070.0,2081.0,68.0,-5.0,
2053.0,2071.0,68.0,-5.0,
2039.0,2043.0,68.0,-5.0,
2066.0,2091.0,68.0,-5.0,
2101.0,2093.0,68.0,-5.0,
2133.0,2102.0,68.0,-5.0,
2133.0,2151.0,68.0,-5.0,
2126.0,2103.0,68.0,-5.0,
2076.0,2052.0,68.0,-5.0,
2064.0,2031.0,68.0,-5.0,
2056.0,2049.0,68.0,-5.0,
2043.0,2036.0,68.0,-5.0,
2078.0,2083.0,68.0,-5.0,
2086.0,2089.0,68.0,-5.0,
2123.0,2091.0,68.0,-5.0,
2096.0,2085.0,68.0,-5.0,
2098.0,2063.0,68.0,-5.0,
2086.0,2090.0,68.0,-5.0,
2070.0,2033.0,68.0,-5.0,
2058.0,2046.0,68.0,-5.0,
2054.0,2075.0,68.0,-4.0,
2072.0,2105.0,68.0,-4.0,
2088.0,2068.0,68.0,-4.0,
2124.0,2136.0,68.0,-4.0,
2123.0,2109.0,68.0,-5.0,
2107.0,2102.0,68.0,-5.0,
2081.0,2099.0,68.0,-5.0,
2061.0,2082.0,68.0,-5.0,
2043.0,2087.0,68.0,-5.0,
2062.0,2088.0,68.0,-5.0,
2071.0,2096.0,68.0,-5.0,
2099.0,2095.0,68.0,-5.0,
2113.0,2090.0,68.0,-5.0,
2125.0,2092.0,68.0,-5.0,
2102.0,2091.0,68.0,-5.0,
2069.0,2075.0,68.0,-5.0,
2058.0,2058.0,68.0,-5.0,
2041.0,2062.0,68.0,-5.0,
2054.0,2066.0,68.0,-5.0,
2068.0,2111.0,68.0,-5.0,
2083.0,2065.0,68.0,-5.0,
2125.0,2078.0,68.0,-5.0,
2104.0,2104.0,68.0,-5.0,
2098.0,2117.0,68.0,-5.0,
2086.0,1978.0,68.0,-5.0,
2028.0,2019.0,68.0,-5.0,
2033.0,2052.0,68.0,-5.0,
2051.0,2044.0,68.0,-5.0,
2093.0,2077.0,68.0,-5.0,
2116.0,2133.0,68.0,-5.0,
2111.0,2094.0,68.0,-5.0,
2124.0,2080.0,68.0,-5.0,
2094.0,2013.0,68.0,-5.0,
2069.0,2017.0,0,
2030.0,2043.0,68.0,-5.0,
2058.0,2096.0,68.0,-5.0,
2073.0,2104.0,68.0,-5.0,
2099.0,2088.0,68.0,-5.0,
2076.0,2094.0,68.0,-5.0,
2112.0,2072.0,68.0,-5.0,
2088.0,2087.0,68.0,-5.0,
2085.0,2121.0,68.0,-5.0,
2071.0,2096.0,68.0,-5.0,
2055.0,2100.0,68.0,-5.0,
2053.0,1968.0,68.0,-5.0,
2066.0,2096.0,68.0,-5.0,
2088.0,2153.0,68.0,-5.0,
2115.0,2021.0,68.0,-5.0,
2083.0,2012.0,68.0,-5.0,
2098.0,2073.0,68.0,-5.0,
2064.0,2074.0,68.0,-5.0,
2074.0,2147.0,68.0,-5.0,
2068.0,2119.0,68.0,-5.0,
2028.0,2017.0,68.0,-5.0,
2074.0,2057.0,68.0,-5.0,
2108.0,2087.0,68.0,-5.0,
2127.0,2107.0,68.0,-5.0,
2118.0,2100.0,68.0,-5.0,
2086.0,2100.0,68.0,-5.0,
2109.0,2088.0,68.0,-5.0,
2071.0,2085.0,68.0,-5.0,
2042.0,2073.0,68.0,-5.0,
2063.0,2083.0,68.0,-5.0,
2076.0,2095.0,68.0,-5.0,
2104.0,2103.0,68.0,-5.0,
2114.0,2115.0,68.0,-5.0,
2111.0,2096.0,68.0,-5.0,
2084.0,2065.0,68.0,-5.0,
2066.0,2056.0,68.0,-5.0,
2055.0,2064.0,68.0,-5.0,
2054.0,2073.0,68.0,-5.0,
2120.0,2073.0,68.0,-5.0,
2082.0,2053.0,68.0,-5.0,
2117.0,2070.0,68.0,-5.0,
2115.0,2088.0,68.0,-5.0,
2123.0,2103.0,68.0,-5.0,
2081.0,2076.0,68.0,-5.0,
2051.0,2033.0,68.0,-5.0,
2045.0,2058.0,68.0,-5.0,
2032.0,2049.0,68.0,-5.0,
2052.0,2065.0,68.0,-5.0,
2085.0,2084.0,68.0,-5.0,
2122.0,2150.0,68.0,-5.0,
2132.0,2155.0,68.0,-5.0,
2100.0,2105.0,68.0,-5.0,
2048.0,1993.0,0,
2041.0,1962.0,68.0,-5.0,
2052.0,2022.0,68.0,-5.0,
2038.0,2170.0,68.0,-5.0,
2070.0,2010.0,68.0,-5.0,
2086.0,2067.0,68.0,-5.0,
2131.0,2107.0,68.0,-5.0,
2134.0,2010.0,68.0,-5.0,
2079.0,2089.0,68.0,-5.0,
2086.0,2097.0,68.0,-5.0,
2047.0,2071.0,68.0,-5.0,
2045.0,2078.0,68.0,-5.0,
2069.0,2133.0,68.0,-5.0,
2104.0,2071.0,68.0,-5.0,
2104.0,2148.0,68.0,-5.0,
2131.0,2146.0,68.0,-5.0,
2121.0,2020.0,68.0,-5.0,
2087.0,2058.0,68.0,-5.0,
2122.0,2079.0,68.0,-5.0,
2033.0,2116.0,68.0,-5.0,
2059.0,2139.0,68.0,-5.0,
2060.0,2023.0,68.0,-5.0,
2060.0,2030.0,68.0,-5.0,
2091.0,2105.0,68.0,-5.0,
2118.0,2081.0,68.0,-5.0,
2133.0,2120.0,68.0,-5.0,
2111.0,2111.0,68.0,-5.0,
2086.0,2042.0,68.0,-5.0,
2037.0,2097.0,68.0,-5.0,
2044.0,2080.0,68.0,-5.0,
2068.0,2077.0,68.0,-5.0,
2080.0,2140.0,68.0,-5.0,
2116.0,2067.0,68.0,-5.0,
2118.0,2066.0,68.0,-5.0,
2111.0,2089.0,68.0,-5.0,
2077.0,2084.0,68.0,-5.0,
2056.0,2068.0,68.0,-5.0,
2039.0,2063.0,68.0,-5.0,
2041.0,2069.0,68.0,-5.0,
2064.0,2082.0,68.0,-5.0,
2073.0,2068.0,68.0,-5.0,
2104.0,2074.0,68.0,-5.0,
2097.0,2082.0,68.0,-5.0,
2091.0,2076.0,68.0,-5.0,
2078.0,2072.0,68.0,-5.0,
2057.0,2080.0,68.0,-5.0,
2045.0,2066.0,68.0,-5.0,
2066.0,2097.0,68.0,-5.0,
2092.0,2061.0,68.0,-5.0,
2103.0,2087.0,68.0,-5.0,
2122.0,2054.0,68.0,-5.0,
2108.0,2080.0,68.0,-5.0,
2103.0,2091.0,68.0,-5.0,
2064.0,2071.0,68.0,-5.0,
2041.0,2050.0,68.0,-5.0,
2046.0,2050.0,68.0,-5.0,
2051.0,2068.0,68.0,-5.0,
2087.0,2079.0,68.0,-5.0,
2113.0,2094.0,68.0,-5.0,
2121.0,2103.0,68.0,-5.0,
2109.0,2115.0,68.0,-5.0,
2089.0,2127.0,68.0,-5.0,
2081.0,2075.0,68.0,-5.0,
2051.0,2076.0,68.0,-5.0,
2057.0,2116.0,68.0,-5.0,
2092.0,2071.0,68.0,-5.0,
2099.0,2062.0,68.0,-5.0,
2110.0,2026.0,68.0,-5.0,
2136.0,2096.0,68.0,-5.0,
2076.0,1991.0,68.0,-5.0,
2082.0,2102.0,68.0,-5.0,
2072.0,2033.0,68.0,-5.0,
2051.0,2070.0,68.0,-5.0,
2052.0,2116.0,68.0,-5.0,
2084.0,2000.0,68.0,-5.0,
2061.0,2028.0,68.0,-5.0,
2092.0,2109.0,68.0,-5.0,
2132.0,2123.0,68.0,-5.0,
2110.0,2126.0,68.0,-5.0,
2077.0,2121.0,68.0,-5.0,
2062.0,2052.0,68.0,-5.0,
2056.0,2105.0,68.0,-5.0,
2050.0,2089.0,68.0,-5.0,
2081.0,2109.0,68.0,-5.0,
2110.0,2121.0,68.0,-5.0,
2111.0,2110.0,68.0,-5.0,
2135.0,2142.0,68.0,-5.0,
2126.0,2103.0,68.0,-5.0,
2081.0,2059.0,68.0,-5.0,
2053.0,2073.0,68.0,-5.0,
2068.0,2088.0,68.0,-5.0,
2051.0,2155.0,68.0,-5.0,
2076.0,2041.0,68.0,-5.0,
2095.0,2038.0,68.0,-5.0,
2124.0,2054.0,68.0,-5.0,
2107.0,2107.0,68.0,-5.0,
2075.0,2036.0,68.0,-5.0,
2050.0,2046.0,68.0,-5.0,
2040.0,2056.0,68.0,-5.0,
2047.0,2090.0,68.0,-5.0,
2054.0,2073.0,68.0,-5.0,
2078.0,2046.0,68.0,-5.0,
2092.0,2098.0,68.0,-5.0,
2098.0,2127.0,68.0,-5.0,
2116.0,2104.0,68.0,-5.0,
2099.0,2019.0,68.0,-5.0,
2074.0,2111.0,68.0,-5.0,
2066.0,2117.0,68.0,-5.0,
2054.0,2002.0,68.0,-5.0,
2060.0,2051.0,68.0,-5.0,
2078.0,2051.0,68.0,-5.0,
2115.0,2102.0,68.0,-5.0,
2131.0,2136.0,68.0,-5.0,
2103.0,2086.0,68.0,-5.0,
2081.0,2085.0,68.0,-5.0,
2074.0,2099.0,68.0,-5.0,
2027.0,2045.0,68.0,-5.0,
2040.0,2068.0,68.0,-5.0,
2074.0,2158.0,68.0,-5.0,
2084.0,2089.0,68.0,-5.0,
2099.0,2090.0,68.0,-5.0,
2122.0,2104.0,68.0,-5.0,
2093.0,2086.0,68.0,-5.0,
2073.0,2061.0,68.0,-5.0,
2054.0,2081.0,68.0,-5.0,
2051.0,2050.0,68.0,-5.0,
2057.0,2124.0,68.0,-5.0,
2113.0,2185.0,68.0,-5.0,
2126.0,2021.0,68.0,-5.0,
2093.0,2016.0,68.0,-5.0,
2101.0,1991.0,68.0,-5.0,
2092.0,2063.0,68.0,-5.0,
2078.0,2055.0,68.0,-5.0,
2074.0,2090.0,68.0,-5.0,
2050.0,2075.0,68.0,-5.0,
2041.0,2074.0,68.0,-5.0,
2095.0,2143.0,68.0,-5.0,
2135.0,2159.0,68.0,-5.0,
2116.0,2070.0,68.0,-5.0,
2112.0,2046.0,68.0,-5.0,
2058.0,2044.0,68.0,-5.0,
2061.0,2004.0,68.0,-5.0,
2049.0,2057.0,68.0,-5.0,
2073.0,2047.0,68.0,-5.0,
2069.0,2051.0,68.0,-5.0,
2085.0,2082.0,68.0,-5.0,
2105.0,2111.0,68.0,-5.0,
2121.0,2099.0,68.0,-5.0,
2109.0,2122.0,68.0,-5.0,
2097.0,2052.0,68.0,-5.0,
2067.0,2074.0,68.0,-5.0,
2055.0,2067.0,68.0,-5.0,
2042.0,2082.0,68.0,-5.0,
2060.0,2085.0,68.0,-5.0,
2093.0,2093.0,68.0,-5.0,
2121.0,2102.0,68.0,-5.0,
2120.0,2072.0,68.0,-5.0,
2116.0,1927.0,68.0,-5.0,
2090.0,2153.0,68.0,-5.0,
2039.0,2160.0,68.0,-5.0,
2062.0,2114.0,68.0,-5.0,
2036.0,2076.0,68.0,-5.0,
2015.0,2076.0,68.0,-5.0,
2066.0,2122.0,68.0,-5.0,
2094.0,2139.0,68.0,-5.0,
2094.0,2111.0,68.0,-5.0,
2073.0,2078.0,68.0,-5.0,
2093.0,2093.0,68.0,-5.0,
2104.0,2044.0,68.0,-5.0,
2043.0,1961.0,68.0,-5.0,
2052.0,2095.0,68.0,-5.0,
2124.0,2163.0,68.0,-5.0,
2160.0,1913.0,68.0,-5.0,
2222.0,1910.0,68.0,-5.0,
2225.0,2320.0,68.0,-5.0,
2107.0,2042.0,68.0,-5.0,
2091.0,1777.0,68.0,-5.0,
2026.0,1701.0,68.0,-5.0,
2081.0,2022.0,68.0,-5.0,
1997.0,2384.0,68.0,-5.0,
2022.0,2382.0,68.0,-5.0,
2110.0,2266.0,68.0,-5.0,
2119.0,2232.0,68.0,-5.0,
2131.0,2096.0,68.0,-5.0,
2102.0,2173.0,68.0,-5.0,
2045.0,2154.0,68.0,-5.0,
2147.0,2086.0,68.0,-5.0,
2106.0,2086.0,68.0,-5.0,
2088.0,2054.0,68.0,-5.0,
2111.0,2061.0,68.0,-5.0,
2106.0,2073.0,68.0,-5.0,
2125.0,2058.0,68.0,-5.0,
2082.0,2056.0,68.0,-5.0,
2013.0,2081.0,68.0,-5.0,
1976.0,2016.0,68.0,-5.0,
2033.0,2003.0,68.0,-5.0,
2014.0,1997.0,68.0,-5.0,
2002.0,2033.0,68.0,-5.0,
2053.0,2054.0,68.0,-5.0,
2115.0,2064.0,68.0,-5.0,
2143.0,2069.0,68.0,-5.0,
2082.0,2047.0,67.0,-5.0,
2035.0,2050.0,67.0,-5.0,
1885.0,2062.0,68.0,-5.0,
1858.0,2061.0,68.0,-5.0,
1902.0,2037.0,68.0,-5.0,
2046.0,2095.0,68.0,-5.0,
2189.0,2100.0,68.0,-5.0,
2273.0,2124.0,68.0,-5.0,
2283.0,2064.0,68.0,-5.0,
2267.0,2084.0,68.0,-5.0,
2288.0,2071.0,68.0,-5.0,
2158.0,2059.0,68.0,-5.0,
2102.0,2098.0,68.0,-5.0,
2071.0,2015.0,68.0,-5.0,
2082.0,2077.0,68.0,-5.0,
2137.0,2106.0,68.0,-5.0,
2165.0,2108.0,68.0,-5.0,
2157.0,2102.0,68.0,-5.0,
2125.0,2093.0,68.0,-5.0,
2088.0,2073.0,68.0,-5.0,
2020.0,2100.0,68.0,-5.0,
1967.0,2093.0,68.0,-5.0,
2011.0,2067.0,68.0,-5.0,
2058.0,2095.0,68.0,-5.0,
2037.0,2087.0,68.0,-5.0,
2072.0,2096.0,68.0,-5.0,
2087.0,1984.0,68.0,-5.0,
2117.0,2055.0,68.0,-5.0,
2072.0,2091.0,0,
2037.0,2072.0,68.0,-4.0,
2080.0,1995.0,68.0,-4.0,
2044.0,2110.0,68.0,-4.0,
2043.0,2125.0,68.0,-4.0,
2072.0,2045.0,68.0,-4.0,
2134.0,2153.0,68.0,-4.0,
2167.0,2088.0,68.0,-4.0,
2076.0,1929.0,68.0,-4.0,
2023.0,1899.0,68.0,-4.0,
1970.0,2354.0,68.0,-4.0,
1899.0,2221.0,68.0,-4.0,
1942.0,2039.0,68.0,-4.0,
2053.0,2216.0,68.0,-4.0,
2190.0,2135.0,68.0,-4.0,
2159.0,1893.0,67.0,-4.0,
2110.0,2137.0,67.0,-4.0,
2087.0,2121.0,67.0,-4.0,
2135.0,1965.0,67.0,-4.0,
2141.0,2120.0,67.0,-4.0,
2096.0,2059.0,67.0,-4.0,
2034.0,2000.0,67.0,-4.0,
2000.0,2036.0,67.0,-4.0,
2019.0,2193.0,67.0,-4.0,
2089.0,2104.0,67.0,-5.0,
2061.0,2008.0,67.0,-5.0,
2097.0,2142.0,67.0,-5.0,
2187.0,2087.0,67.0,-5.0,
2236.0,2064.0,67.0,-5.0,
2248.0,2042.0,67.0,-5.0,
2269.0,2078.0,67.0,-5.0,
2198.0,2130.0,67.0,-5.0,
2160.0,1952.0,67.0,-5.0,
2047.0,2236.0,67.0,-5.0,
1981.0,2112.0,67.0,-5.0,
1929.0,1959.0,67.0,-5.0,
1839.0,2010.0,67.0,-5.0,
1903.0,2185.0,67.0,-5.0,
2096.0,2001.0,67.0,-5.0,
2277.0,2026.0,67.0,-5.0,
2318.0,2057.0,67.0,-5.0,
2143.0,2105.0,67.0,-5.0,
1933.0,2027.0,67.0,-5.0,
1913.0,2036.0,67.0,-5.0,
2029.0,2017.0,67.0,-5.0,
2120.0,2013.0,67.0,-5.0,
2184.0,2024.0,66.0,-5.0,
2167.0,1845.0,66.0,-5.0,
2058.0,2281.0,66.0,-5.0,
2050.0,2207.0,66.0,-4.0,
2042.0,2213.0,65.0,-4.0,
2130.0,2203.0,65.0,-4.0,
2172.0,2165.0,65.0,-4.0,
2134.0,2128.0,65.0,-4.0,
2050.0,2046.0,64.0,-4.0,
1963.0,2133.0,64.0,-4.0,
1977.0,2058.0,64.0,-4.0,
2054.0,2158.0,64.0,-4.0,
2052.0,2044.0,64.0,-4.0,
2109.0,2018.0,63.0,-3.0,
2064.0,1945.0,63.0,-4.0,
1983.0,1973.0,63.0,-4.0,
2032.0,1967.0,63.0,-4.0,
2062.0,2228.0,63.0,-4.0,
2083.0,2085.0,63.0,-4.0,
2077.0,2204.0,63.0,-4.0,
2109.0,2134.0,64.0,-4.0,
2179.0,2085.0,64.0,-4.0,
2075.0,2007.0,64.0,-4.0,
2061.0,1798.0,64.0,-4.0,
2062.0,1611.0,64.0,-4.0,
1989.0,2351.0,64.0,-3.0,
1942.0,2059.0,64.0,-2.0,
2088.0,2085.0,64.0,-3.0,
2267.0,2120.0,65.0,-3.0,
2335.0,2200.0,65.0,-4.0,
2421.0,1903.0,65.0,-4.0,
2285.0,2214.0,65.0,-4.0,
2068.0,2129.0,65.0,-4.0,
1996.0,1707.0,65.0,-4.0,
1962.0,2186.0,65.0,-4.0,
2002.0,2326.0,65.0,-5.0,
1987.0,2174.0,65.0,-6.0,
2071.0,2080.0,65.0,-6.0,
2086.0,1934.0,65.0,-5.0,
2116.0,2109.0,65.0,-5.0,
2107.0,2139.0,65.0,-5.0,
1995.0,2184.0,65.0,-5.0,
1968.0,2171.0,65.0,-5.0,
2018.0,1862.0,65.0,-5.0,
1946.0,2349.0,65.0,-5.0,
2071.0,2001.0,65.0,-5.0,
2096.0,2041.0,64.0,-4.0,
2217.0,1935.0,64.0,-4.0,
2097.0,2093.0,64.0,-4.0,
2131.0,2040.0,64.0,-4.0,
2076.0,2075.0,64.0,-4.0,
2033.0,2030.0,63.0,-4.0,
1992.0,1969.0,63.0,-4.0,
2040.0,2080.0,63.0,-4.0,
2032.0,1959.0,62.0,-4.0,
2061.0,2019.0,62.0,-4.0,
2059.0,2089.0,62.0,-4.0,
2096.0,2194.0,62.0,-4.0,
2133.0,2008.0,61.0,-4.0,
2146.0,2196.0,61.0,-4.0,
2156.0,2117.0,61.0,-3.0,
2100.0,2095.0,61.0,-3.0,
2121.0,2108.0,60.0,-3.0,
2100.0,1966.0,60.0,-3.0,
2130.0,2122.0,60.0,-3.0,
2122.0,2098.0,59.0,-3.0,
2049.0,2134.0,59.0,-3.0,
1994.0,2080.0,58.0,-2.0,
1963.0,2114.0,58.0,-2.0,
1936.0,2012.0,58.0,-2.0,
1919.0,2250.0,57.0,-2.0,
1946.0,2067.0,57.0,-2.0,
2052.0,2059.0,56.0,-2.0,
2199.0,2054.0,56.0,-1.0,
2392.0,1943.0,56.0,-1.0,
2320.0,2097.0,55.0,-1.0,
2220.0,1661.0,55.0,1.0,
2110.0,2315.0,55.0,1.0,
1939.0,1969.0,55.0,1.0,
1977.0,2197.0,54.0,0.0,
2039.0,2167.0,54.0,-1.0,
2163.0,2145.0,53.0,-1.0,
2131.0,2034.0,53.0,-1.0,
2089.0,1552.0,53.0,-1.0,
2032.0,2205.0,53.0,-1.0,
2177.0,2405.0,53.0,-1.0,
2194.0,2497.0,53.0,-4.0,
2191.0,1948.0,52.0,-4.0,
2159.0,2496.0,52.0,-4.0,
2103.0,2019.0,52.0,-3.0,
2020.0,2064.0,54.0,-2.0,
2053.0,1969.0,53.0,-2.0,
2009.0,1939.0,53.0,-2.0,
2044.0,2070.0,53.0,-2.0,
1994.0,2078.0,52.0,-2.0,
2012.0,1820.0,52.0,-2.0,
2024.0,2226.0,53.0,-2.0,
2065.0,2219.0,53.0,-2.0,
2101.0,2113.0,53.0,-2.0,
2107.0,1992.0,52.0,-2.0,
2075.0,2015.0,51.0,-2.0,
2032.0,2086.0,51.0,-1.0,
2029.0,2141.0,52.0,-1.0,
2013.0,2068.0,52.0,-1.0,
2066.0,2022.0,52.0,-2.0,
2082.0,2061.0,51.0,-2.0,
2102.0,2026.0,51.0,-2.0,
2151.0,2110.0,50.0,-2.0,
2149.0,2081.0,50.0,-2.0,
2101.0,2062.0,51.0,-2.0,
2080.0,2073.0,51.0,-2.0,
1997.0,2009.0,50.0,-2.0,
1913.0,2044.0,50.0,-2.0,
1974.0,1930.0,50.0,-2.0,
2070.0,2050.0,50.0,-2.0,
2098.0,1846.0,49.0,-2.0,
2197.0,1664.0,49.0,-1.0,
2250.0,2652.0,49.0,-1.0,
2220.0,1956.0,49.0,-1.0,
2171.0,2292.0,48.0,-1.0,
2086.0,2052.0,48.0,-1.0,
1984.0,2123.0,48.0,-1.0,
1946.0,2256.0,47.0,-1.0,
2049.0,2255.0,47.0,-1.0,
2208.0,2081.0,46.0,-1.0,
2271.0,2017.0,46.0,-1.0,
2282.0,2148.0,46.0,-1.0,
2243.0,2153.0,45.0,0.0,
2172.0,1979.0,45.0,0.0,
2017.0,2075.0,45.0,0.0,
2021.0,1963.0,45.0,0.0,
2048.0,1861.0,45.0,0.0,
2004.0,2191.0,45.0,0.0,
2057.0,2148.0,44.0,0.0,
2054.0,2158.0,44.0,0.0,
2093.0,2127.0,44.0,0.0,
2001.0,2140.0,44.0,0.0,
2026.0,2198.0,43.0,0.0,
2001.0,1796.0,43.0,0.0,
2018.0,2095.0,43.0,0.0,
2052.0,2007.0,43.0,0.0,
2113.0,1893.0,42.0,0.0,
2092.0,1994.0,41.0,2.0,
2122.0,2015.0,42.0,2.0,
2088.0,2139.0,42.0,1.0,
2066.0,2419.0,42.0,0.0,
2049.0,2123.0,41.0,-1.0,
1983.0,1938.0,41.0,-1.0,
2036.0,1600.0,41.0,0.0,
2047.0,2276.0,41.0,0.0,
2125.0,2364.0,40.0,0.0,
2059.0,2020.0,40.0,-1.0,
2012.0,2152.0,40.0,-3.0,
1968.0,2125.0,40.0,-3.0,
1990.0,2334.0,40.0,-2.0,
2075.0,2040.0,39.0,0.0,
2148.0,2047.0,39.0,0.0,
2293.0,1723.0,39.0,0.0,
2225.0,2221.0,39.0,0.0,
2137.0,2326.0,39.0,0.0,
2081.0,2277.0,39.0,0.0,
2128.0,2273.0,39.0,0.0,
2186.0,2009.0,39.0,0.0,
2071.0,1811.0,39.0,0.0,
2029.0,1973.0,39.0,0.0,
2068.0,2098.0,39.0,0.0,
2051.0,1970.0,39.0,0.0,
2069.0,1949.0,39.0,-1.0,
2073.0,2193.0,39.0,-1.0,
2088.0,1972.0,39.0,-1.0,
2041.0,1734.0,39.0,-1.0,
2020.0,2196.0,39.0,-1.0,
2025.0,2139.0,39.0,-1.0,
2053.0,2093.0,40.0,-1.0,
2087.0,2150.0,40.0,-1.0,
2099.0,2097.0,40.0,-1.0,
2172.0,2145.0,39.0,-1.0,
2186.0,2018.0,39.0,-1.0,
2162.0,2132.0,39.0,-1.0,
2109.0,2112.0,39.0,-1.0,
2040.0,2062.0,39.0,-1.0,
2017.0,1958.0,39.0,-1.0,
1949.0,2217.0,39.0,-1.0,
2000.0,2149.0,38.0,-1.0,
2046.0,2210.0,37.0,-1.0,
2129.0,2134.0,37.0,0.0,
2194.0,2099.0,36.0,0.0,
2221.0,2049.0,36.0,0.0,
2145.0,2243.0,36.0,0.0,
2068.0,1713.0,35.0,0.0,
1954.0,2154.0,34.0,0.0,
2021.0,2110.0,33.0,0.0,
1982.0,1814.0,33.0,0.0,
2058.0,2033.0,32.0,0.0,
2094.0,2383.0,32.0,0.0,
2148.0,2082.0,32.0,0.0,
2062.0,2101.0,32.0,0.0,
2089.0,1832.0,31.0,0.0,
2042.0,2529.0,31.0,0.0,
2033.0,2331.0,30.0,0.0,
2034.0,2126.0,30.0,0.0,
2100.0,2093.0,30.0,0.0,
2071.0,1960.0,29.0,0.0,
2110.0,1900.0,29.0,0.0,
2116.0,2152.0,29.0,0.0,
2041.0,2040.0,29.0,0.0,
1989.0,1719.0,28.0,0.0,
2100.0,2167.0,28.0,0.0,
1972.0,2094.0,28.0,0.0,
2031.0,2101.0,28.0,0.0,
2158.0,2226.0,28.0,0.0,
2181.0,2242.0,28.0,0.0,
2272.0,2300.0,28.0,0.0,
2241.0,2156.0,28.0,0.0,
2072.0,2021.0,29.0,0.0,
2026.0,1955.0,29.0,0.0,
2009.0,1878.0,29.0,0.0,
2015.0,1924.0,30.0,0.0,
2137.0,2078.0,30.0,-1.0,
2153.0,1973.0,30.0,-1.0,
2099.0,1825.0,31.0,-1.0,
2076.0,2268.0,31.0,-1.0,
2097.0,2078.0,32.0,-1.0,
2036.0,2385.0,32.0,-1.0,
2067.0,2029.0,0,
2156.0,1445.0,32.0,-1.0,
2131.0,2247.0,32.0,-1.0,
2070.0,1893.0,32.0,-1.0,
2124.0,2489.0,32.0,-1.0,
2093.0,2324.0,32.0,-1.0,
2078.0,2146.0,31.0,0.0,
2073.0,2150.0,31.0,0.0,
2034.0,2124.0,30.0,0.0,
2011.0,1964.0,30.0,-1.0,
1984.0,2021.0,29.0,-2.0,
2011.0,2125.0,29.0,-2.0,
2050.0,1997.0,28.0,-2.0,
2109.0,1968.0,28.0,-2.0,
2141.0,2088.0,27.0,-2.0,
2147.0,1889.0,26.0,-2.0,
2089.0,2287.0,26.0,-4.0,
2023.0,2124.0,25.0,-4.0,
2030.0,2099.0,25.0,-3.0,
2023.0,2153.0,24.0,-1.0,
2116.0,2159.0,23.0,0.0,
2117.0,1971.0,23.0,0.0,
2103.0,2029.0,22.0,0.0,
2045.0,2080.0,21.0,0.0,
2096.0,1906.0,21.0,0.0,
2128.0,1275.0,20.0,0.0,
2112.0,2827.0,20.0,0.0,
2025.0,2284.0,20.0,0.0,
2061.0,2225.0,19.0,0.0,
1993.0,2154.0,19.0,0.0,
2010.0,2127.0,19.0,0.0,
2071.0,2189.0,19.0,0.0,
2135.0,1954.0,19.0,0.0,
2214.0,1928.0,20.0,0.0,
2170.0,1996.0,20.0,0.0,
2182.0,1751.0,20.0,0.0,
2084.0,2150.0,20.0,0.0,
2026.0,1471.0,20.0,0.0,
1888.0,2721.0,21.0,0.0,
1957.0,2292.0,21.0,0.0,
2056.0,2152.0,21.0,0.0,
2147.0,2073.0,22.0,-1.0,
2130.0,2119.0,22.0,-1.0,
2193.0,2077.0,22.0,-1.0,
2261.0,1898.0,23.0,-1.0,
2118.0,1706.0,23.0,-1.0,
2100.0,2506.0,24.0,-1.0,
2173.0,2321.0,24.0,-1.0,
2152.0,2070.0,24.0,-1.0,
2095.0,2041.0,25.0,-1.0,
2089.0,2111.0,25.0,-1.0,
2035.0,2126.0,25.0,-2.0,
2054.0,2182.0,25.0,-2.0,
2069.0,2083.0,26.0,-2.0,
2065.0,2019.0,25.0,-2.0,
2076.0,1959.0,25.0,-2.0,
2072.0,2082.0,25.0,-2.0,
2072.0,1899.0,25.0,-2.0,
2044.0,2097.0,25.0,-2.0,
2119.0,2410.0,24.0,-2.0,
2089.0,1970.0,24.0,-2.0,
2078.0,1919.0,23.0,-2.0,
2032.0,1940.0,22.0,-2.0,
2020.0,2255.0,22.0,-2.0,
1989.0,2009.0,22.0,-2.0,
2038.0,2144.0,21.0,-2.0,
2080.0,2098.0,20.0,-1.0,
2118.0,2085.0,19.0,-1.0,
2115.0,2052.0,19.0,-1.0,
2016.0,1784.0,18.0,-1.0,
2021.0,2433.0,17.0,-1.0,
2021.0,1912.0,17.0,-1.0,
2144.0,2261.0,16.0,-1.0,
2081.0,1963.0,16.0,-1.0,
2041.0,1971.0,15.0,0.0,
2170.0,2337.0,14.0,0.0,
2163.0,2036.0,14.0,0.0,
2195.0,2090.0,14.0,0.0,
2059.0,2371.0,14.0,0.0,
1993.0,2160.0,14.0,0.0,
1896.0,2111.0,14.0,0.0,
1849.0,2004.0,15.0,0.0,
2151.0,2354.0,15.0,0.0,
2254.0,2267.0,15.0,0.0,
2167.0,1905.0,15.0,0.0,
2231.0,2047.0,16.0,0.0,
2140.0,1982.0,16.0,0.0,
2049.0,1852.0,17.0,0.0,
1952.0,1847.0,17.0,0.0,
2043.0,2198.0,17.0,0.0,
2139.0,2041.0,18.0,0.0,
1911.0,2308.0,18.0,0.0,
2294.0,2172.0,19.0,-1.0,
2362.0,2001.0,19.0,-1.0,
2238.0,1879.0,19.0,-1.0,
2205.0,1685.0,20.0,-1.0,
2055.0,1827.0,20.0,-1.0,
2029.0,2283.0,20.0,-1.0,
2142.0,1895.0,20.0,-1.0,
2085.0,2674.0,20.0,-1.0,
2023.0,2072.0,20.0,-1.0,
2036.0,2035.0,20.0,-1.0,
2032.0,2177.0,20.0,-1.0,
2080.0,2262.0,20.0,-1.0,
2086.0,2228.0,20.0,-1.0,
2064.0,2126.0,19.0,-1.0,
2041.0,2045.0,19.0,-1.0,
