2080.0,2090.0,23.0,-6.0,
2095.0,2102.0,23.0,-6.0,
2084.0,2097.0,23.0,-6.0,
2075.0,2086.0,23.0,-6.0,
2080.0,2093.0,23.0,-6.0,
2074.0,2091.0,23.0,-6.0,
2074.0,2096.0,23.0,-6.0,
2072.0,2090.0,23.0,-6.0,
2079.0,2091.0,23.0,-6.0,
2072.0,2090.0,23.0,-6.0,
2064.0,2085.0,23.0,-6.0,
2059.0,2078.0,23.0,-6.0,
2063.0,2073.0,23.0,-6.0,
2067.0,2080.0,23.0,-6.0,
2064.0,2078.0,23.0,-6.0,
2069.0,2089.0,23.0,-6.0,
2069.0,2096.0,23.0,-6.0,
2067.0,2092.0,23.0,-6.0,
2071.0,2080.0,23.0,-6.0,
2075.0,2079.0,23.0,-6.0,
2076.0,2066.0,23.0,-6.0,
2071.0,2073.0,23.0,-6.0,
2061.0,2072.0,23.0,-6.0,
2060.0,2082.0,23.0,-6.0,
2062.0,2081.0,23.0,-6.0,
2066.0,2093.0,0,
2066.0,2103.0,23.0,-6.0,
2072.0,2097.0,23.0,-6.0,
2079.0,2062.0,23.0,-6.0,
2064.0,2062.0,23.0,-6.0,
2059.0,2069.0,23.0,-6.0,
2065.0,2071.0,23.0,-6.0,
2061.0,2074.0,23.0,-6.0,
2057.0,2080.0,23.0,-6.0,
2082.0,2099.0,23.0,-6.0,
2071.0,2103.0,23.0,-6.0,
2070.0,2086.0,23.0,-6.0,
2074.0,2088.0,23.0,-6.0,
2078.0,2079.0,23.0,-6.0,
2064.0,2080.0,23.0,-6.0,
2073.0,2084.0,23.0,-6.0,
2072.0,2095.0,23.0,-6.0,
2069.0,2091.0,23.0,-6.0,
2077.0,2085.0,23.0,-6.0,
2075.0,2092.0,23.0,-6.0,
2075.0,2086.0,23.0,-6.0,
2090.0,2084.0,23.0,-6.0,
2081.0,2077.0,23.0,-6.0,
2063.0,2071.0,23.0,-6.0,
2069.0,2076.0,23.0,-6.0,
2065.0,2080.0,23.0,-6.0,
2077.0,2085.0,23.0,-6.0,
2079.0,2087.0,23.0,-6.0,
2081.0,2090.0,23.0,-6.0,
2080.0,2088.0,23.0,-6.0,
2080.0,2084.0,23.0,-6.0,
2072.0,2075.0,23.0,-6.0,
2069.0,2077.0,23.0,-6.0,
2069.0,2084.0,23.0,-6.0,
2078.0,2084.0,23.0,-6.0,
2072.0,2085.0,23.0,-6.0,
2071.0,2086.0,23.0,-6.0,
2067.0,2087.0,23.0,-6.0,
2073.0,2082.0,23.0,-6.0,
2077.0,2086.0,23.0,-6.0,
2070.0,2083.0,23.0,-6.0,
2063.0,2081.0,23.0,-6.0,
2070.0,2089.0,23.0,-6.0,
2064.0,2080.0,23.0,-6.0,
2080.0,2087.0,23.0,-6.0,
2075.0,2088.0,23.0,-6.0,
2069.0,2089.0,23.0,-6.0,
2073.0,2072.0,23.0,-6.0,
2071.0,2087.0,23.0,-6.0,
2075.0,2084.0,23.0,-6.0,
2062.0,2077.0,23.0,-6.0,
2058.0,2077.0,23.0,-6.0,
2066.0,2091.0,23.0,-6.0,
2085.0,2093.0,23.0,-6.0,
2077.0,2076.0,23.0,-6.0,
2081.0,2089.0,23.0,-6.0,
2078.0,2081.0,23.0,-6.0,
2088.0,2078.0,23.0,-6.0,
2084.0,2079.0,23.0,-6.0,
2074.0,2071.0,23.0,-6.0,
2072.0,2077.0,23.0,-6.0,
2071.0,2086.0,23.0,-6.0,
2078.0,2092.0,23.0,-6.0,
2069.0,2090.0,23.0,-6.0,
2072.0,2090.0,23.0,-6.0,
2075.0,2084.0,23.0,-6.0,
2074.0,2088.0,23.0,-6.0,
2073.0,2095.0,23.0,-6.0,
2078.0,2097.0,23.0,-6.0,
2067.0,2080.0,23.0,-6.0,
2072.0,2043.0,23.0,-6.0,
2071.0,2078.0,23.0,-6.0,
2067.0,2082.0,23.0,-6.0,
2068.0,2084.0,23.0,-6.0,
2074.0,2092.0,23.0,-6.0,
2070.0,2086.0,23.0,-6.0,
2062.0,2075.0,23.0,-6.0,
2061.0,2074.0,23.0,-6.0,
2054.0,2074.0,23.0,-6.0,
2065.0,2073.0,23.0,-6.0,
2070.0,2091.0,23.0,-6.0,
2082.0,2102.0,23.0,-6.0,
2069.0,2086.0,23.0,-6.0,
2066.0,2086.0,23.0,-6.0,
2067.0,2085.0,23.0,-6.0,
2073.0,2077.0,23.0,-6.0,
2062.0,2079.0,23.0,-6.0,
2071.0,2075.0,23.0,-6.0,
2091.0,2088.0,23.0,-6.0,
2078.0,2097.0,23.0,-6.0,
2084.0,2091.0,23.0,-5.0,
2087.0,2095.0,23.0,-5.0,
2083.0,2084.0,23.0,-6.0,
2079.0,2085.0,23.0,-5.0,
2080.0,2077.0,23.0,-5.0,
2065.0,2079.0,23.0,-6.0,
2072.0,2077.0,23.0,-6.0,
2070.0,2084.0,23.0,-6.0,
2071.0,2088.0,23.0,-6.0,
2072.0,2089.0,23.0,-6.0,
2075.0,2086.0,23.0,-6.0,
2081.0,2086.0,23.0,-6.0,
2090.0,2080.0,23.0,-6.0,
2068.0,2075.0,23.0,-6.0,
2064.0,2069.0,23.0,-6.0,
2071.0,2080.0,23.0,-6.0,
2073.0,2080.0,23.0,-6.0,
2080.0,2083.0,23.0,-6.0,
2072.0,2082.0,23.0,-6.0,
2083.0,2091.0,23.0,-6.0,
2076.0,2086.0,23.0,-6.0,
2075.0,2084.0,23.0,-6.0,
2073.0,2087.0,23.0,-6.0,
2069.0,2077.0,23.0,-6.0,
2078.0,2085.0,23.0,-6.0,
2068.0,2072.0,23.0,-6.0,
2069.0,2087.0,23.0,-6.0,
2069.0,2090.0,23.0,-6.0,
2074.0,2087.0,23.0,-6.0,
2083.0,2089.0,23.0,-6.0,
2072.0,2081.0,23.0,-6.0,
2072.0,2081.0,23.0,-6.0,
2068.0,2076.0,23.0,-6.0,
2074.0,2077.0,23.0,-6.0,
2064.0,2079.0,23.0,-6.0,
2074.0,2088.0,23.0,-6.0,
2082.0,2092.0,23.0,-5.0,
2080.0,2088.0,23.0,-6.0,
2077.0,2083.0,23.0,-5.0,
2070.0,2081.0,23.0,-5.0,
2074.0,2078.0,23.0,-5.0,
2069.0,2079.0,23.0,-5.0,
2072.0,2072.0,23.0,-5.0,
2061.0,2083.0,23.0,-5.0,
2075.0,2082.0,23.0,-5.0,
2071.0,2083.0,23.0,-5.0,
2071.0,2084.0,23.0,-6.0,
2076.0,2085.0,23.0,-6.0,
2063.0,2094.0,23.0,-6.0,
2063.0,2090.0,23.0,-6.0,
2071.0,2089.0,23.0,-6.0,
2074.0,2065.0,23.0,-6.0,
2055.0,2055.0,23.0,-6.0,
2061.0,2076.0,23.0,-6.0,
2067.0,2085.0,23.0,-6.0,
2061.0,2081.0,23.0,-6.0,
2074.0,2081.0,23.0,-6.0,
2068.0,2077.0,23.0,-6.0,
2067.0,2073.0,23.0,-6.0,
2072.0,2085.0,23.0,-6.0,
2061.0,2103.0,23.0,-6.0,
2069.0,2099.0,23.0,-6.0,
2075.0,2094.0,23.0,-6.0,
2080.0,2096.0,23.0,-6.0,
2088.0,2094.0,23.0,-6.0,
2076.0,2077.0,23.0,-6.0,
2032.0,2080.0,23.0,-6.0,
2067.0,2074.0,23.0,-5.0,
2075.0,2073.0,23.0,-5.0,
2076.0,2074.0,23.0,-5.0,
2075.0,2083.0,23.0,-5.0,
2077.0,2092.0,23.0,-5.0,
2072.0,2083.0,23.0,-5.0,
2079.0,2086.0,23.0,-5.0,
2074.0,2088.0,23.0,-5.0,
2088.0,2082.0,23.0,-5.0,
2083.0,2081.0,23.0,-5.0,
2075.0,2078.0,23.0,-5.0,
2065.0,2074.0,23.0,-5.0,
2067.0,2078.0,23.0,-5.0,
2073.0,2088.0,23.0,-5.0,
2071.0,2086.0,23.0,-5.0,
2080.0,2087.0,23.0,-5.0,
2074.0,2101.0,23.0,-6.0,
2071.0,2093.0,23.0,-6.0,
2067.0,2075.0,23.0,-6.0,
2061.0,2082.0,23.0,-6.0,
2056.0,2086.0,23.0,-6.0,
2059.0,2081.0,23.0,-6.0,
2061.0,2085.0,23.0,-6.0,
2073.0,2092.0,23.0,-6.0,
2079.0,2095.0,23.0,-5.0,
2069.0,2083.0,23.0,-5.0,
2057.0,2082.0,23.0,-5.0,
2071.0,2077.0,23.0,-5.0,
2078.0,2071.0,23.0,-5.0,
2074.0,2086.0,23.0,-5.0,
2076.0,2082.0,23.0,-5.0,
2080.0,2092.0,23.0,-5.0,
2073.0,2094.0,23.0,-5.0,
2079.0,2091.0,23.0,-5.0,
2067.0,2084.0,23.0,-5.0,
2075.0,2082.0,23.0,-5.0,
2073.0,2080.0,23.0,-6.0,
2076.0,2079.0,23.0,-6.0,
2069.0,2080.0,23.0,-6.0,
2066.0,2082.0,23.0,-6.0,
2070.0,2089.0,23.0,-6.0,
2060.0,2100.0,23.0,-6.0,
2069.0,2103.0,23.0,-6.0,
2077.0,2093.0,23.0,-6.0,
2069.0,2040.0,23.0,-6.0,
2066.0,2056.0,23.0,-6.0,
2058.0,2068.0,23.0,-6.0,
2066.0,2071.0,23.0,-6.0,
2067.0,2106.0,23.0,-6.0,
2074.0,2094.0,23.0,-6.0,
2070.0,2082.0,23.0,-6.0,
2071.0,2086.0,23.0,-6.0,
2075.0,2084.0,23.0,-6.0,
2064.0,2076.0,23.0,-6.0,
2080.0,2080.0,23.0,-6.0,
2076.0,2074.0,23.0,-6.0,
2074.0,2086.0,23.0,-6.0,
2072.0,2090.0,23.0,-6.0,
2072.0,2085.0,23.0,-6.0,
2071.0,2091.0,23.0,-5.0,
2084.0,2088.0,23.0,-5.0,
2087.0,2086.0,23.0,-5.0,
2072.0,2088.0,23.0,-5.0,
2081.0,2081.0,23.0,-5.0,
2071.0,2078.0,23.0,-5.0,
2061.0,2077.0,23.0,-5.0,
2069.0,2085.0,23.0,-5.0,
2069.0,2086.0,23.0,-5.0,
2070.0,2089.0,23.0,-5.0,
2083.0,2085.0,23.0,-5.0,
2090.0,2093.0,23.0,-5.0,
2071.0,2081.0,23.0,-5.0,
2072.0,2080.0,23.0,-5.0,
2059.0,2078.0,23.0,-5.0,
2064.0,2083.0,23.0,-5.0,
2060.0,2088.0,23.0,-5.0,
2063.0,2092.0,23.0,-5.0,
2059.0,2092.0,23.0,-5.0,
2063.0,2095.0,23.0,-5.0,
2067.0,2086.0,23.0,-5.0,
2065.0,2081.0,23.0,-5.0,
2066.0,2080.0,23.0,-5.0,
2067.0,2077.0,23.0,-5.0,
2074.0,2078.0,23.0,-5.0,
2073.0,2078.0,23.0,-6.0,
2059.0,2080.0,23.0,-6.0,
2070.0,2085.0,23.0,-6.0,
2076.0,2085.0,23.0,-5.0,
2073.0,2091.0,23.0,-6.0,
2077.0,2084.0,23.0,-6.0,
2073.0,2087.0,23.0,-6.0,
2064.0,2076.0,23.0,-6.0,
2067.0,2079.0,23.0,-6.0,
2063.0,2080.0,23.0,-6.0,
2072.0,2084.0,23.0,-6.0,
2076.0,2095.0,23.0,-6.0,
2070.0,2097.0,23.0,-6.0,
2069.0,2092.0,23.0,-6.0,
2074.0,2083.0,23.0,-6.0,
2072.0,2078.0,23.0,-6.0,
2068.0,2082.0,23.0,-6.0,
2069.0,2077.0,23.0,-5.0,
2067.0,2091.0,23.0,-5.0,
2081.0,2086.0,23.0,-5.0,
2078.0,2089.0,23.0,-5.0,
2071.0,2079.0,23.0,-5.0,
2076.0,2086.0,23.0,-5.0,
2087.0,2075.0,0,
2074.0,2077.0,23.0,-5.0,
2076.0,2077.0,23.0,-5.0,
2078.0,2080.0,23.0,-5.0,
2068.0,2087.0,23.0,-5.0,
2070.0,2076.0,23.0,-5.0,
2067.0,2098.0,23.0,-5.0,
2073.0,2092.0,23.0,-5.0,
2071.0,2089.0,23.0,-5.0,
2071.0,2082.0,23.0,-5.0,
2072.0,2084.0,23.0,-5.0,
2068.0,2079.0,23.0,-5.0,
2071.0,2076.0,23.0,-5.0,
2067.0,2085.0,23.0,-6.0,
2068.0,2089.0,23.0,-6.0,
2075.0,2097.0,23.0,-6.0,
2068.0,2099.0,23.0,-6.0,
2070.0,2067.0,23.0,-6.0,
2076.0,2078.0,23.0,-6.0,
2074.0,2083.0,23.0,-6.0,
2069.0,2078.0,23.0,-6.0,
2072.0,2075.0,23.0,-6.0,
2071.0,2080.0,23.0,-6.0,
2072.0,2091.0,23.0,-6.0,
2072.0,2087.0,23.0,-6.0,
2071.0,2082.0,23.0,-6.0,
2066.0,2074.0,23.0,-6.0,
2074.0,2082.0,23.0,-6.0,
2073.0,2084.0,23.0,-6.0,
2069.0,2090.0,23.0,-6.0,
2073.0,2090.0,23.0,-6.0,
2080.0,2087.0,23.0,-6.0,
2067.0,2090.0,23.0,-6.0,
2064.0,2081.0,23.0,-6.0,
2064.0,2084.0,23.0,-6.0,
2076.0,2084.0,23.0,-6.0,
2067.0,2081.0,23.0,-6.0,
2068.0,2079.0,23.0,-6.0,
2070.0,2075.0,23.0,-6.0,
2072.0,2075.0,23.0,-6.0,
2064.0,2078.0,23.0,-6.0,
2071.0,2085.0,23.0,-6.0,
2100.0,2085.0,23.0,-6.0,
2076.0,2089.0,23.0,-6.0,
2080.0,2089.0,23.0,-6.0,
2075.0,2078.0,23.0,-6.0,
2076.0,2074.0,23.0,-6.0,
2069.0,2070.0,23.0,-6.0,
2069.0,2057.0,23.0,-6.0,
2071.0,2097.0,23.0,-6.0,
2067.0,2099.0,23.0,-6.0,
2066.0,2099.0,23.0,-6.0,
2071.0,2092.0,23.0,-6.0,
2072.0,2090.0,23.0,-6.0,
2068.0,2084.0,23.0,-6.0,
2073.0,2087.0,23.0,-6.0,
2071.0,2087.0,23.0,-6.0,
2069.0,2076.0,23.0,-6.0,
2060.0,2082.0,23.0,-6.0,
2064.0,2087.0,23.0,-6.0,
2072.0,2088.0,23.0,-6.0,
2077.0,2089.0,23.0,-6.0,
2081.0,2087.0,23.0,-6.0,
2073.0,2095.0,23.0,-6.0,
2062.0,2096.0,23.0,-6.0,
2067.0,2096.0,23.0,-6.0,
2072.0,2084.0,23.0,-6.0,
2070.0,2047.0,23.0,-6.0,
2069.0,2073.0,23.0,-6.0,
2074.0,2082.0,23.0,-6.0,
2072.0,2097.0,23.0,-6.0,
2070.0,2092.0,23.0,-5.0,
2072.0,2086.0,23.0,-5.0,
2069.0,2080.0,23.0,-5.0,
2063.0,2082.0,23.0,-5.0,
2062.0,2079.0,23.0,-5.0,
2065.0,2089.0,23.0,-5.0,
2064.0,2091.0,23.0,-5.0,
2068.0,2098.0,23.0,-5.0,
2068.0,2099.0,23.0,-5.0,
2074.0,2090.0,23.0,-5.0,
2077.0,2087.0,23.0,-5.0,
2088.0,2089.0,23.0,-5.0,
2083.0,2088.0,23.0,-5.0,
2075.0,2080.0,23.0,-5.0,
2065.0,2083.0,23.0,-5.0,
2066.0,2085.0,23.0,-5.0,
2073.0,2094.0,23.0,-5.0,
2074.0,2104.0,23.0,-6.0,
2076.0,2091.0,23.0,-6.0,
2079.0,2080.0,23.0,-6.0,
2072.0,2077.0,23.0,-6.0,
2079.0,2074.0,23.0,-6.0,
2065.0,2078.0,23.0,-5.0,
2066.0,2082.0,23.0,-6.0,
2069.0,2083.0,23.0,-6.0,
2078.0,2094.0,23.0,-6.0,
2073.0,2088.0,23.0,-6.0,
2074.0,2092.0,23.0,-6.0,
2068.0,2088.0,23.0,-6.0,
2074.0,2084.0,23.0,-6.0,
2066.0,2080.0,23.0,-5.0,
2053.0,2083.0,23.0,-5.0,
2057.0,2086.0,23.0,-6.0,
2064.0,2080.0,23.0,-6.0,
2062.0,2089.0,23.0,-5.0,
2063.0,2090.0,23.0,-5.0,
2071.0,2090.0,23.0,-5.0,
2073.0,2079.0,23.0,-5.0,
2069.0,2085.0,23.0,-5.0,
2062.0,2078.0,23.0,-5.0,
2062.0,2079.0,23.0,-5.0,
2066.0,2087.0,23.0,-5.0,
2071.0,2083.0,23.0,-5.0,
2071.0,2088.0,23.0,-5.0,
2073.0,2090.0,23.0,-5.0,
2081.0,2091.0,23.0,-5.0,
2075.0,2086.0,23.0,-5.0,
2072.0,2083.0,23.0,-5.0,
2067.0,2080.0,23.0,-6.0,
2067.0,2078.0,23.0,-6.0,
2069.0,2068.0,23.0,-5.0,
2078.0,2089.0,23.0,-5.0,
2073.0,2091.0,23.0,-5.0,
2064.0,2083.0,23.0,-5.0,
2069.0,2081.0,23.0,-5.0,
2066.0,2080.0,23.0,-5.0,
2067.0,2079.0,23.0,-5.0,
2094.0,2092.0,23.0,-6.0,
2072.0,2086.0,23.0,-6.0,
2068.0,2070.0,23.0,-6.0,
2063.0,2080.0,23.0,-6.0,
2071.0,2092.0,23.0,-6.0,
2068.0,2094.0,23.0,-6.0,
2079.0,2089.0,23.0,-6.0,
2083.0,2087.0,23.0,-6.0,
2068.0,2091.0,23.0,-6.0,
2080.0,2083.0,23.0,-6.0,
2074.0,2050.0,23.0,-5.0,
2072.0,2063.0,23.0,-5.0,
2072.0,2080.0,23.0,-5.0,
2072.0,2087.0,23.0,-5.0,
2077.0,2088.0,23.0,-5.0,
2074.0,2085.0,23.0,-5.0,
2064.0,2091.0,23.0,-5.0,
2072.0,2088.0,23.0,-5.0,
2063.0,2081.0,23.0,-5.0,
2070.0,2080.0,23.0,-5.0,
2065.0,2082.0,23.0,-5.0,
2070.0,2087.0,23.0,-6.0,
2066.0,2081.0,23.0,-6.0,
2069.0,2088.0,23.0,-6.0,
2061.0,2094.0,23.0,-6.0,
2070.0,2076.0,23.0,-6.0,
2060.0,2079.0,23.0,-6.0,
2067.0,2081.0,23.0,-6.0,
2064.0,2084.0,23.0,-6.0,
2066.0,2078.0,23.0,-6.0,
2069.0,2078.0,23.0,-6.0,
2067.0,2081.0,23.0,-6.0,
2073.0,2101.0,23.0,-6.0,
2077.0,2103.0,23.0,-6.0,
2084.0,2094.0,23.0,-6.0,
2072.0,2069.0,23.0,-6.0,
2076.0,2064.0,23.0,-6.0,
2072.0,2072.0,23.0,-6.0,
2064.0,2087.0,23.0,-6.0,
2068.0,2090.0,23.0,-6.0,
2071.0,2090.0,23.0,-6.0,
2063.0,2101.0,23.0,-6.0,
2076.0,2085.0,23.0,-6.0,
2072.0,2086.0,23.0,-6.0,
2075.0,2088.0,23.0,-6.0,
2077.0,2083.0,23.0,-6.0,
2074.0,2076.0,23.0,-6.0,
2070.0,2085.0,23.0,-6.0,
2067.0,2089.0,23.0,-6.0,
2070.0,2091.0,23.0,-6.0,
2075.0,2090.0,23.0,-6.0,
2080.0,2071.0,23.0,-6.0,
2075.0,2084.0,23.0,-5.0,
2066.0,2083.0,23.0,-5.0,
2068.0,2078.0,23.0,-5.0,
2057.0,2075.0,23.0,-6.0,
2060.0,2081.0,23.0,-6.0,
2073.0,2085.0,23.0,-6.0,
2069.0,2087.0,23.0,-6.0,
2068.0,2089.0,23.0,-6.0,
2072.0,2093.0,23.0,-6.0,
2080.0,2088.0,23.0,-6.0,
2065.0,2084.0,23.0,-6.0,
2067.0,2086.0,23.0,-6.0,
2066.0,2091.0,23.0,-6.0,
2060.0,2095.0,23.0,-6.0,
2063.0,2065.0,23.0,-6.0,
2071.0,2065.0,23.0,-6.0,
2055.0,2084.0,23.0,-6.0,
2074.0,2079.0,23.0,-6.0,
2068.0,2083.0,23.0,-6.0,
2062.0,2081.0,23.0,-6.0,
2066.0,2084.0,23.0,-6.0,
2061.0,2091.0,23.0,-6.0,
2064.0,2085.0,23.0,-6.0,
2068.0,2084.0,23.0,-6.0,
2072.0,2088.0,23.0,-6.0,
2074.0,2087.0,23.0,-6.0,
2066.0,2087.0,23.0,-6.0,
2074.0,2087.0,23.0,-6.0,
2070.0,2094.0,23.0,-6.0,
2065.0,2106.0,23.0,-6.0,
2059.0,2097.0,23.0,-6.0,
2067.0,2095.0,23.0,-6.0,
2068.0,2055.0,23.0,-6.0,
2064.0,2060.0,23.0,-5.0,
2069.0,2082.0,23.0,-5.0,
2075.0,2086.0,23.0,-5.0,
2073.0,2075.0,23.0,-5.0,
2073.0,2077.0,23.0,-5.0,
2068.0,2080.0,23.0,-5.0,
2065.0,2081.0,23.0,-5.0,
2070.0,2075.0,23.0,-5.0,
2069.0,2090.0,23.0,-5.0,
2068.0,2094.0,23.0,-5.0,
2074.0,2086.0,23.0,-5.0,
2070.0,2088.0,23.0,-5.0,
2110.0,2084.0,23.0,-5.0,
2069.0,2084.0,23.0,-5.0,
2075.0,2080.0,23.0,-5.0,
2072.0,2078.0,23.0,-5.0,
2078.0,2091.0,23.0,-5.0,
2076.0,2097.0,23.0,-5.0,
2077.0,2109.0,23.0,-5.0,
2073.0,2104.0,23.0,-5.0,
2075.0,2070.0,23.0,-5.0,
2091.0,2067.0,23.0,-5.0,
2083.0,2081.0,23.0,-5.0,
2078.0,2080.0,23.0,-5.0,
2086.0,2084.0,23.0,-5.0,
2070.0,2086.0,23.0,-5.0,
2068.0,2081.0,23.0,-5.0,
2069.0,2086.0,23.0,-5.0,
2078.0,2088.0,23.0,-6.0,
2073.0,2095.0,23.0,-6.0,
2079.0,2086.0,23.0,-6.0,
2077.0,2069.0,23.0,-6.0,
2072.0,2079.0,23.0,-6.0,
2065.0,2080.0,23.0,-6.0,
2069.0,2076.0,23.0,-6.0,
2067.0,2089.0,23.0,-6.0,
2063.0,2090.0,23.0,-6.0,
2076.0,2087.0,23.0,-6.0,
2072.0,2083.0,23.0,-6.0,
2078.0,2083.0,23.0,-6.0,
2082.0,2076.0,23.0,-6.0,
2082.0,2077.0,23.0,-6.0,
2084.0,2101.0,23.0,-6.0,
2077.0,2089.0,23.0,-6.0,
2066.0,2087.0,23.0,-6.0,
2078.0,2089.0,23.0,-6.0,
2082.0,2086.0,23.0,-6.0,
2074.0,2086.0,23.0,-6.0,
2069.0,2078.0,23.0,-6.0,
2070.0,2086.0,23.0,-6.0,
2078.0,2082.0,23.0,-6.0,
2062.0,2084.0,23.0,-6.0,
2064.0,2079.0,23.0,-6.0,
2071.0,2081.0,23.0,-6.0,
2081.0,2091.0,23.0,-6.0,
2080.0,2121.0,23.0,-6.0,
2076.0,2121.0,23.0,-6.0,
2075.0,2106.0,23.0,-6.0,
2079.0,2067.0,23.0,-6.0,
2072.0,2032.0,23.0,-6.0,
2069.0,2042.0,23.0,-6.0,
2071.0,2063.0,23.0,-6.0,
2060.0,2067.0,23.0,-5.0,
2070.0,2090.0,23.0,-5.0,
2066.0,2089.0,23.0,-5.0,
2074.0,2092.0,23.0,-5.0,
2072.0,2089.0,23.0,-5.0,
2074.0,2084.0,23.0,-5.0,
2076.0,2108.0,23.0,-5.0,
2069.0,2109.0,23.0,-5.0,
2067.0,2107.0,23.0,-6.0,
2074.0,2083.0,23.0,-6.0,
2069.0,2061.0,23.0,-6.0,
2072.0,2061.0,23.0,-6.0,
2079.0,2038.0,23.0,-6.0,
2073.0,2068.0,23.0,-6.0,
2067.0,2099.0,23.0,-6.0,
2073.0,2144.0,23.0,-6.0,
2069.0,2068.0,23.0,-6.0,
2063.0,2041.0,23.0,-6.0,
2075.0,2080.0,23.0,-6.0,
2075.0,2088.0,23.0,-6.0,
2069.0,2085.0,23.0,-6.0,
2071.0,2092.0,23.0,-6.0,
2074.0,2094.0,23.0,-6.0,
2065.0,2118.0,23.0,-6.0,
2068.0,2098.0,23.0,-5.0,
2068.0,2094.0,23.0,-5.0,
2058.0,2062.0,23.0,-5.0,
2052.0,2028.0,23.0,-5.0,
2058.0,2077.0,23.0,-5.0,
2074.0,2084.0,23.0,-5.0,
2053.0,2084.0,23.0,-5.0,
2070.0,2087.0,23.0,-5.0,
2071.0,2076.0,23.0,-5.0,
2073.0,2094.0,23.0,-5.0,
2068.0,2099.0,23.0,-5.0,
2067.0,2104.0,23.0,-5.0,
2064.0,2078.0,23.0,-5.0,
2072.0,2081.0,23.0,-5.0,
2072.0,2067.0,23.0,-5.0,
2067.0,2063.0,23.0,-5.0,
2069.0,2075.0,23.0,-5.0,
2079.0,2075.0,23.0,-5.0,
2070.0,2076.0,23.0,-6.0,
2077.0,2080.0,23.0,-6.0,
2075.0,2091.0,23.0,-6.0,
2082.0,2079.0,23.0,-6.0,
2075.0,2092.0,23.0,-6.0,
2071.0,2107.0,23.0,-6.0,
2079.0,2106.0,23.0,-6.0,
2080.0,2086.0,23.0,-6.0,
2071.0,2029.0,23.0,-6.0,
2064.0,2064.0,23.0,-6.0,
2071.0,2057.0,23.0,-6.0,
2077.0,2036.0,23.0,-6.0,
2063.0,1983.0,23.0,-6.0,
2071.0,2139.0,23.0,-6.0,
2078.0,2236.0,23.0,-6.0,
2058.0,2172.0,23.0,-6.0,
2076.0,2156.0,23.0,-5.0,
2080.0,2147.0,23.0,-6.0,
2089.0,2066.0,23.0,-6.0,
2059.0,2011.0,23.0,-5.0,
2060.0,1985.0,23.0,-5.0,
2063.0,1967.0,23.0,-5.0,
2076.0,1972.0,23.0,-5.0,
2090.0,2041.0,23.0,-5.0,
2079.0,2280.0,23.0,-5.0,
2078.0,2163.0,23.0,-5.0,
2068.0,2094.0,23.0,-5.0,
2083.0,2030.0,23.0,-5.0,
2077.0,2048.0,23.0,-5.0,
2080.0,2210.0,23.0,-5.0,
2078.0,2139.0,23.0,-6.0,
2077.0,2074.0,23.0,-6.0,
2058.0,2031.0,23.0,-6.0,
2051.0,2049.0,23.0,-6.0,
2084.0,2061.0,23.0,-6.0,
2104.0,2039.0,23.0,-6.0,
2094.0,2038.0,23.0,-5.0,
2088.0,2057.0,23.0,-6.0,
2077.0,2093.0,23.0,-6.0,
2039.0,2120.0,23.0,-6.0,
1997.0,2099.0,23.0,-6.0,
2018.0,2093.0,23.0,-6.0,
2046.0,2090.0,23.0,-6.0,
2072.0,2087.0,23.0,-6.0,
2071.0,2080.0,23.0,-6.0,
2063.0,2078.0,23.0,-6.0,
2059.0,2070.0,23.0,-6.0,
2059.0,2065.0,24.0,-6.0,
2084.0,2035.0,24.0,-6.0,
2089.0,2058.0,24.0,-6.0,
2105.0,2117.0,24.0,-6.0,
2070.0,2219.0,24.0,-6.0,
2082.0,2120.0,24.0,-6.0,
2094.0,2098.0,24.0,-6.0,
2065.0,2051.0,24.0,-6.0,
2047.0,2088.0,24.0,-6.0,
2069.0,2065.0,24.0,-6.0,
2076.0,2055.0,24.0,-6.0,
2122.0,2105.0,23.0,-6.0,
2146.0,2071.0,23.0,-6.0,
2115.0,2028.0,23.0,-6.0,
2030.0,2013.0,23.0,-6.0,
2029.0,2055.0,0,
1963.0,2097.0,23.0,-6.0,
1998.0,2069.0,23.0,-6.0,
2030.0,2085.0,23.0,-6.0,
2050.0,2101.0,23.0,-6.0,
2069.0,2115.0,23.0,-6.0,
2113.0,2050.0,23.0,-6.0,
2115.0,2018.0,23.0,-6.0,
2090.0,2027.0,23.0,-7.0,
2054.0,2122.0,23.0,-7.0,
2070.0,2030.0,23.0,-7.0,
2042.0,2258.0,23.0,-7.0,
2041.0,2222.0,23.0,-7.0,
2056.0,2191.0,23.0,-7.0,
2073.0,2120.0,23.0,-6.0,
2070.0,2020.0,0,
2089.0,2021.0,23.0,-6.0,
2091.0,1991.0,23.0,-6.0,
2098.0,2000.0,23.0,-6.0,
2094.0,2065.0,23.0,-6.0,
2076.0,2107.0,23.0,-6.0,
2070.0,2117.0,23.0,-6.0,
2065.0,2098.0,24.0,-7.0,
2069.0,2102.0,24.0,-6.0,
2086.0,2047.0,24.0,-6.0,
2076.0,2084.0,24.0,-6.0,
2097.0,2020.0,24.0,-6.0,
2081.0,2048.0,24.0,-6.0,
2056.0,2072.0,24.0,-5.0,
2037.0,2219.0,24.0,-5.0,
2055.0,2095.0,24.0,-5.0,
2076.0,2085.0,24.0,-4.0,
2099.0,2088.0,24.0,-4.0,
2072.0,2066.0,24.0,-4.0,
2073.0,2074.0,24.0,-3.0,
2062.0,2112.0,24.0,-3.0,
2083.0,2046.0,23.0,-3.0,
2052.0,2082.0,23.0,-3.0,
2058.0,2031.0,23.0,-3.0,
2084.0,2007.0,23.0,-2.0,
2084.0,2040.0,23.0,-2.0,
2109.0,2182.0,22.0,-2.0,
2113.0,2134.0,22.0,-2.0,
2090.0,2082.0,22.0,-2.0,
2095.0,2084.0,22.0,-2.0,
2107.0,2097.0,22.0,-2.0,
2083.0,2045.0,21.0,-2.0,
2063.0,2005.0,21.0,-2.0,
2080.0,2038.0,21.0,-2.0,
2150.0,2120.0,21.0,-2.0,
2087.0,2350.0,21.0,-2.0,
2050.0,2037.0,21.0,-2.0,
2000.0,2083.0,21.0,-2.0,
2034.0,2050.0,20.0,-2.0,
2016.0,2064.0,21.0,-2.0,
2088.0,2103.0,21.0,-2.0,
1949.0,2080.0,21.0,-2.0,
2029.0,2068.0,21.0,-2.0,
2143.0,2075.0,21.0,-3.0,
2161.0,2110.0,21.0,-3.0,
2162.0,2087.0,21.0,-3.0,
2167.0,1981.0,21.0,-2.0,
2068.0,1966.0,22.0,-2.0,
1976.0,2221.0,22.0,-3.0,
1941.0,2077.0,22.0,-3.0,
1904.0,2001.0,22.0,-2.0,
1925.0,2030.0,21.0,-2.0,
1953.0,2119.0,21.0,-2.0,
1995.0,2110.0,21.0,-2.0,
2087.0,2025.0,21.0,-2.0,
2088.0,2138.0,21.0,-2.0,
2054.0,2077.0,21.0,-2.0,
2106.0,2264.0,21.0,-2.0,
2073.0,2144.0,21.0,-2.0,
2072.0,2081.0,21.0,-2.0,
2113.0,2067.0,21.0,-1.0,
2120.0,2037.0,21.0,-1.0,
2124.0,2073.0,20.0,-1.0,
2113.0,2011.0,20.0,-1.0,
2112.0,1977.0,20.0,-1.0,
2099.0,2008.0,20.0,0.0,
2083.0,1950.0,19.0,0.0,
2111.0,2284.0,19.0,0.0,
2078.0,2188.0,19.0,0.0,
2095.0,2142.0,19.0,0.0,
2133.0,2121.0,19.0,0.0,
2154.0,2092.0,18.0,1.0,
2133.0,2130.0,18.0,2.0,
2145.0,2091.0,18.0,3.0,
2100.0,2031.0,18.0,3.0,
2082.0,2015.0,18.0,3.0,
2106.0,2020.0,18.0,3.0,
2103.0,2065.0,18.0,4.0,
2035.0,2088.0,18.0,3.0,
1984.0,2173.0,18.0,4.0,
1960.0,2096.0,19.0,3.0,
1972.0,1978.0,19.0,2.0,
2040.0,1989.0,19.0,3.0,
2052.0,2215.0,19.0,4.0,
2094.0,2165.0,19.0,4.0,
2041.0,2000.0,0,
2062.0,1987.0,20.0,5.0,
2116.0,2197.0,20.0,4.0,
2066.0,2100.0,20.0,4.0,
2066.0,2095.0,20.0,4.0,
2130.0,2083.0,20.0,4.0,
2112.0,2039.0,20.0,4.0,
2117.0,2107.0,20.0,4.0,
2071.0,2134.0,20.0,4.0,
1983.0,2074.0,19.0,4.0,
1980.0,2004.0,19.0,3.0,
2074.0,1949.0,19.0,3.0,
2084.0,2172.0,19.0,4.0,
2088.0,2029.0,18.0,4.0,
2037.0,2105.0,18.0,4.0,
2039.0,2083.0,18.0,5.0,
1984.0,2115.0,18.0,4.0,
2078.0,2141.0,18.0,4.0,
2138.0,2225.0,18.0,4.0,
2101.0,2145.0,17.0,5.0,
2034.0,2106.0,17.0,5.0,
2046.0,2006.0,17.0,5.0,
2019.0,2062.0,17.0,4.0,
2047.0,2015.0,17.0,4.0,
2131.0,1962.0,17.0,4.0,
2149.0,2062.0,17.0,4.0,
2118.0,2196.0,17.0,5.0,
2030.0,2232.0,17.0,5.0,
2077.0,2052.0,17.0,5.0,
1972.0,1933.0,17.0,5.0,
2041.0,1983.0,17.0,5.0,
2099.0,2099.0,17.0,5.0,
2129.0,2091.0,17.0,6.0,
2113.0,2177.0,17.0,6.0,
2067.0,2162.0,17.0,6.0,
2063.0,2110.0,17.0,6.0,
2128.0,1998.0,17.0,6.0,
2133.0,1974.0,17.0,6.0,
2031.0,2057.0,17.0,7.0,
2056.0,2010.0,17.0,7.0,
2086.0,2041.0,17.0,7.0,
2115.0,2206.0,17.0,6.0,
2141.0,2069.0,17.0,6.0,
2154.0,2016.0,16.0,7.0,
2187.0,2032.0,16.0,8.0,
2088.0,2235.0,16.0,8.0,
2054.0,2196.0,17.0,8.0,
1897.0,2115.0,17.0,8.0,
1927.0,2211.0,17.0,8.0,
2040.0,2094.0,17.0,8.0,
2016.0,2031.0,17.0,8.0,
2046.0,2053.0,17.0,8.0,
2050.0,2036.0,17.0,9.0,
2176.0,2026.0,17.0,9.0,
2151.0,2052.0,17.0,9.0,
2230.0,2172.0,17.0,8.0,
2066.0,2254.0,17.0,9.0,
1943.0,2028.0,17.0,9.0,
1947.0,1958.0,17.0,9.0,
1957.0,2031.0,17.0,9.0,
2030.0,2049.0,17.0,9.0,
2077.0,2063.0,17.0,9.0,
2135.0,2055.0,16.0,9.0,
2132.0,2066.0,16.0,9.0,
2082.0,2081.0,16.0,10.0,
1978.0,2114.0,16.0,10.0,
2053.0,2168.0,16.0,10.0,
2115.0,2079.0,16.0,10.0,
2126.0,2097.0,15.0,10.0,
2085.0,1911.0,15.0,10.0,
2222.0,1995.0,15.0,10.0,
2049.0,2129.0,15.0,11.0,
2104.0,2088.0,15.0,11.0,
2097.0,2045.0,15.0,10.0,
2195.0,2043.0,15.0,10.0,
2071.0,2136.0,15.0,10.0,
2055.0,2077.0,15.0,10.0,
1895.0,1961.0,15.0,11.0,
1864.0,2123.0,15.0,11.0,
1982.0,2186.0,15.0,11.0,
2156.0,2188.0,16.0,11.0,
2139.0,2196.0,15.0,11.0,
2129.0,1963.0,15.0,10.0,
2133.0,2101.0,15.0,11.0,
2142.0,2175.0,14.0,11.0,
2188.0,2185.0,14.0,11.0,
2228.0,2045.0,14.0,12.0,
2062.0,2035.0,14.0,12.0,
1909.0,2170.0,0,
1708.0,2107.0,13.0,11.0,
1961.0,1990.0,12.0,11.0,
2056.0,2110.0,12.0,12.0,
2065.0,2067.0,12.0,12.0,
2000.0,2110.0,12.0,13.0,
2089.0,2153.0,12.0,13.0,
2067.0,2057.0,12.0,13.0,
2084.0,2004.0,12.0,12.0,
2110.0,1937.0,11.0,12.0,
2076.0,1933.0,11.0,12.0,
2116.0,2026.0,11.0,13.0,
2129.0,2071.0,12.0,13.0,
2199.0,2133.0,12.0,13.0,
2110.0,2168.0,11.0,13.0,
2110.0,2406.0,11.0,14.0,
2008.0,2128.0,11.0,13.0,
2070.0,1931.0,11.0,14.0,
2064.0,1966.0,11.0,14.0,
2148.0,2261.0,11.0,14.0,
2116.0,2020.0,11.0,14.0,
2108.0,2010.0,11.0,15.0,
2153.0,1986.0,11.0,15.0,
2063.0,2027.0,11.0,16.0,
2216.0,2169.0,11.0,16.0,
2089.0,2105.0,12.0,16.0,
2069.0,2101.0,12.0,16.0,
1844.0,2031.0,12.0,16.0,
2053.0,2071.0,12.0,16.0,
2164.0,2064.0,12.0,16.0,
2044.0,2061.0,12.0,16.0,
1943.0,2086.0,12.0,16.0,
1908.0,2103.0,12.0,16.0,
2049.0,2066.0,12.0,16.0,
2053.0,2095.0,12.0,16.0,
1992.0,2077.0,12.0,16.0,
2044.0,2038.0,12.0,16.0,
2038.0,2090.0,12.0,16.0,
2046.0,2221.0,12.0,16.0,
2127.0,2221.0,13.0,16.0,
2069.0,2094.0,12.0,17.0,
2031.0,2139.0,12.0,17.0,
2098.0,2125.0,12.0,17.0,
2481.0,2000.0,0,
2363.0,1972.0,12.0,16.0,
2179.0,2199.0,12.0,17.0,
1885.0,2230.0,12.0,17.0,
1740.0,2088.0,12.0,17.0,
2070.0,2055.0,12.0,18.0,
2029.0,1939.0,11.0,18.0,
2080.0,1987.0,11.0,18.0,
2011.0,2131.0,11.0,18.0,
2023.0,2213.0,11.0,18.0,
2049.0,2032.0,11.0,18.0,
2198.0,2091.0,12.0,18.0,
2377.0,2117.0,12.0,18.0,
2135.0,2094.0,11.0,18.0,
1888.0,1879.0,11.0,17.0,
1768.0,1994.0,11.0,17.0,
1900.0,2096.0,10.0,17.0,
2019.0,2159.0,10.0,17.0,
2040.0,2225.0,10.0,17.0,
2120.0,2160.0,10.0,18.0,
2062.0,2065.0,9.0,19.0,
2109.0,1963.0,9.0,19.0,
2170.0,2064.0,9.0,19.0,
2146.0,1931.0,9.0,19.0,
2084.0,1969.0,9.0,19.0,
2125.0,2188.0,9.0,19.0,
2166.0,2093.0,9.0,19.0,
2099.0,2073.0,9.0,20.0,
2112.0,2099.0,10.0,20.0,
2111.0,2042.0,10.0,19.0,
2056.0,2412.0,10.0,19.0,
1972.0,2155.0,10.0,20.0,
1989.0,2186.0,10.0,21.0,
2078.0,2049.0,10.0,21.0,
2060.0,2006.0,11.0,21.0,
2193.0,1985.0,11.0,21.0,
2142.0,2029.0,11.0,21.0,
2105.0,2238.0,11.0,20.0,
2158.0,2085.0,11.0,20.0,
2187.0,2107.0,11.0,21.0,
2246.0,1955.0,0,
2257.0,1920.0,12.0,21.0,
2045.0,2221.0,11.0,21.0,
1968.0,2172.0,11.0,21.0,
1732.0,2044.0,11.0,21.0,
1932.0,1963.0,11.0,21.0,
1996.0,2014.0,11.0,21.0,
2040.0,2169.0,11.0,21.0,
1860.0,2171.0,11.0,21.0,
1983.0,2137.0,10.0,20.0,
2013.0,2123.0,10.0,20.0,
2075.0,2024.0,10.0,20.0,
2097.0,1851.0,10.0,20.0,
2144.0,2129.0,10.0,21.0,
2085.0,2256.0,9.0,21.0,
2168.0,2198.0,9.0,21.0,
2199.0,2082.0,9.0,22.0,
2246.0,1988.0,9.0,22.0,
1933.0,2033.0,9.0,22.0,
2041.0,1889.0,9.0,22.0,
1993.0,1949.0,9.0,24.0,
2134.0,2125.0,9.0,23.0,
1945.0,2020.0,8.0,22.0,
2024.0,2232.0,8.0,23.0,
2104.0,2042.0,8.0,23.0,
2155.0,1935.0,8.0,23.0,
2181.0,2280.0,8.0,23.0,
2143.0,2237.0,8.0,23.0,
1972.0,2016.0,8.0,23.0,
2035.0,2064.0,8.0,23.0,
2218.0,2242.0,8.0,22.0,
2101.0,2239.0,8.0,23.0,
1894.0,2098.0,8.0,24.0,
1923.0,2109.0,8.0,24.0,
2147.0,2041.0,9.0,24.0,
2123.0,2048.0,8.0,24.0,
2064.0,2285.0,9.0,24.0,
2191.0,1992.0,9.0,24.0,
2068.0,1986.0,9.0,25.0,
2171.0,2079.0,9.0,25.0,
2254.0,2105.0,9.0,25.0,
2248.0,2003.0,10.0,25.0,
2073.0,2127.0,10.0,25.0,
1794.0,2111.0,10.0,25.0,
1931.0,1961.0,10.0,25.0,
2300.0,1969.0,10.0,25.0,
1898.0,2072.0,10.0,26.0,
1877.0,2074.0,10.0,26.0,
1986.0,1944.0,10.0,26.0,
1986.0,2004.0,11.0,26.0,
1941.0,2384.0,11.0,26.0,
2097.0,2111.0,11.0,26.0,
2076.0,1960.0,11.0,26.0,
2041.0,1968.0,11.0,26.0,
2106.0,2110.0,11.0,26.0,
2148.0,1937.0,11.0,26.0,
2301.0,1953.0,10.0,26.0,
2191.0,2056.0,10.0,26.0,
2007.0,1998.0,9.0,26.0,
1892.0,2076.0,9.0,26.0,
2142.0,2533.0,9.0,26.0,
2142.0,2352.0,8.0,26.0,
2239.0,2227.0,8.0,26.0,
2216.0,2228.0,8.0,26.0,
2052.0,2059.0,7.0,26.0,
2049.0,2091.0,7.0,26.0,
1990.0,2099.0,7.0,26.0,
2052.0,2038.0,7.0,26.0,
1989.0,1999.0,7.0,26.0,
2013.0,1934.0,7.0,26.0,
2051.0,2071.0,7.0,26.0,
2102.0,2117.0,8.0,26.0,
2006.0,2139.0,8.0,26.0,
2013.0,2015.0,8.0,26.0,
2130.0,1996.0,8.0,26.0,
2084.0,2048.0,8.0,26.0,
2148.0,1981.0,8.0,26.0,
2053.0,2087.0,8.0,26.0,
2042.0,2227.0,8.0,26.0,
1960.0,1998.0,9.0,26.0,
2082.0,1867.0,9.0,26.0,
2073.0,1861.0,9.0,27.0,
2098.0,2195.0,8.0,27.0,
2079.0,2260.0,8.0,27.0,
2087.0,2034.0,8.0,27.0,
2159.0,1781.0,8.0,27.0,
2119.0,1792.0,0,
2122.0,2238.0,7.0,28.0,
2038.0,1943.0,7.0,28.0,
1951.0,2275.0,7.0,28.0,
2008.0,2628.0,7.0,28.0,
2064.0,2480.0,7.0,28.0,
2146.0,2244.0,7.0,28.0,
2144.0,2207.0,8.0,28.0,
2175.0,2036.0,8.0,28.0,
1988.0,2030.0,8.0,28.0,
2081.0,2097.0,8.0,29.0,
2406.0,2044.0,9.0,28.0,
2369.0,1912.0,9.0,29.0,
1851.0,1954.0,9.0,29.0,
1539.0,2312.0,9.0,29.0,
1856.0,2217.0,9.0,29.0,
2222.0,2192.0,9.0,29.0,
2095.0,1908.0,8.0,29.0,
1929.0,1774.0,8.0,29.0,
2045.0,1632.0,8.0,29.0,
2109.0,1699.0,8.0,29.0,
2167.0,2271.0,7.0,29.0,
1972.0,2170.0,7.0,29.0,
2247.0,2413.0,7.0,29.0,
2197.0,2326.0,7.0,29.0,
2283.0,2068.0,7.0,29.0,
2128.0,1809.0,7.0,29.0,
2065.0,1941.0,7.0,29.0,
1907.0,2117.0,6.0,29.0,
2088.0,2170.0,6.0,30.0,
1977.0,2029.0,6.0,30.0,
1921.0,2162.0,6.0,30.0,
1992.0,2095.0,6.0,30.0,
2024.0,2114.0,6.0,30.0,
2199.0,2141.0,6.0,30.0,
2308.0,2098.0,6.0,30.0,
2091.0,1977.0,6.0,30.0,
2038.0,1861.0,6.0,30.0,
1925.0,2026.0,6.0,30.0,
1996.0,2167.0,6.0,30.0,
2251.0,2088.0,5.0,31.0,
2267.0,2022.0,5.0,31.0,
1903.0,2033.0,5.0,31.0,
1929.0,2469.0,5.0,31.0,
1976.0,2249.0,5.0,31.0,
1969.0,2090.0,4.0,31.0,
2343.0,1830.0,4.0,31.0,
1881.0,1824.0,4.0,32.0,
2138.0,1893.0,4.0,32.0,
2210.0,2169.0,4.0,32.0,
2042.0,2506.0,4.0,32.0,
2228.0,2068.0,4.0,32.0,
1998.0,2358.0,4.0,32.0,
2135.0,1988.0,4.0,32.0,
1890.0,2006.0,4.0,32.0,
2230.0,2164.0,5.0,33.0,
2302.0,2185.0,5.0,33.0,
2388.0,2106.0,5.0,33.0,
1774.0,1887.0,5.0,33.0,
1644.0,1867.0,5.0,33.0,
2033.0,2251.0,5.0,33.0,
2187.0,2321.0,6.0,33.0,
2008.0,2047.0,0,
1808.0,2114.0,6.0,33.0,
2231.0,2054.0,6.0,34.0,
2198.0,1984.0,6.0,34.0,
2040.0,2030.0,6.0,34.0,
1893.0,1985.0,7.0,34.0,
2219.0,2108.0,7.0,34.0,
2060.0,1953.0,7.0,34.0,
1747.0,1960.0,7.0,34.0,
2041.0,2136.0,7.0,34.0,
1996.0,2120.0,7.0,34.0,
2095.0,2106.0,7.0,34.0,
2143.0,1842.0,7.0,34.0,
2331.0,1864.0,7.0,34.0,
2218.0,2245.0,7.0,34.0,
2121.0,2272.0,7.0,34.0,
1952.0,2266.0,7.0,34.0,
2037.0,2135.0,7.0,34.0,
2079.0,2033.0,7.0,34.0,
2076.0,2130.0,7.0,34.0,
2069.0,2295.0,7.0,34.0,
2180.0,2046.0,7.0,34.0,
2156.0,2002.0,7.0,34.0,
2157.0,1974.0,7.0,34.0,
2010.0,2102.0,7.0,34.0,
2286.0,2306.0,7.0,34.0,
2295.0,2135.0,7.0,34.0,
2155.0,1981.0,7.0,34.0,
1964.0,1738.0,7.0,34.0,
1916.0,1755.0,7.0,34.0,
2017.0,2094.0,7.0,34.0,
2133.0,2259.0,7.0,34.0,
1734.0,2318.0,7.0,34.0,
1651.0,2245.0,7.0,34.0,
2117.0,2080.0,7.0,34.0,
2189.0,2035.0,7.0,34.0,
2086.0,2071.0,7.0,34.0,
1916.0,1955.0,6.0,34.0,
2039.0,1876.0,6.0,34.0,
1920.0,2331.0,6.0,34.0,
2202.0,2004.0,6.0,34.0,
2323.0,2128.0,5.0,34.0,
2335.0,2295.0,5.0,34.0,
2342.0,2199.0,5.0,34.0,
1749.0,1984.0,5.0,34.0,
1814.0,1922.0,4.0,34.0,
2290.0,1969.0,4.0,34.0,
2225.0,2000.0,4.0,34.0,
1924.0,2092.0,4.0,34.0,
2012.0,2008.0,4.0,35.0,
1849.0,2066.0,4.0,35.0,
1820.0,2477.0,4.0,35.0,
2058.0,2120.0,4.0,35.0,
2138.0,2261.0,4.0,35.0,
2099.0,1909.0,4.0,35.0,
2017.0,1882.0,4.0,35.0,
2229.0,1985.0,4.0,35.0,
2298.0,2073.0,4.0,35.0,
2013.0,2349.0,4.0,35.0,
1880.0,2120.0,4.0,35.0,
2097.0,2057.0,4.0,35.0,
2127.0,2064.0,3.0,35.0,
2086.0,2009.0,3.0,35.0,
2199.0,1928.0,3.0,35.0,
2110.0,1933.0,3.0,35.0,
2033.0,1919.0,3.0,35.0,
2065.0,2211.0,3.0,35.0,
1993.0,2070.0,3.0,35.0,
2200.0,2242.0,4.0,35.0,
2255.0,2216.0,4.0,35.0,
2122.0,2150.0,4.0,35.0,
2263.0,2202.0,4.0,35.0,
2252.0,2097.0,4.0,35.0,
2134.0,2016.0,4.0,35.0,
1862.0,1948.0,4.0,35.0,
2036.0,2105.0,4.0,35.0,
2111.0,1996.0,4.0,35.0,
1766.0,2121.0,4.0,35.0,
1787.0,2137.0,4.0,35.0,
1948.0,1974.0,4.0,35.0,
1828.0,2082.0,4.0,36.0,
2132.0,2178.0,4.0,35.0,
2177.0,2209.0,4.0,36.0,
1896.0,2217.0,4.0,36.0,
2097.0,2079.0,4.0,36.0,
2151.0,2042.0,4.0,36.0,
2266.0,2082.0,4.0,36.0,
2089.0,2028.0,4.0,36.0,
2044.0,1939.0,4.0,36.0,
1977.0,1782.0,4.0,36.0,
2241.0,1951.0,4.0,36.0,
2234.0,2096.0,4.0,36.0,
1949.0,2133.0,4.0,36.0,
1848.0,2076.0,4.0,36.0,
2109.0,2131.0,4.0,36.0,
2130.0,1958.0,4.0,36.0,
2201.0,2201.0,4.0,36.0,
2094.0,2112.0,4.0,36.0,
2000.0,2104.0,4.0,36.0,
2003.0,2145.0,4.0,37.0,
2074.0,2222.0,3.0,36.0,
2269.0,2090.0,3.0,36.0,
2030.0,2258.0,3.0,37.0,
2087.0,2227.0,3.0,37.0,
1999.0,1961.0,3.0,37.0,
2057.0,1908.0,3.0,37.0,
2237.0,1904.0,3.0,37.0,
2304.0,2259.0,3.0,37.0,
2140.0,2235.0,3.0,37.0,
1785.0,2082.0,4.0,37.0,
1991.0,2230.0,4.0,37.0,
2019.0,2269.0,4.0,37.0,
2250.0,1955.0,4.0,37.0,
2194.0,1971.0,4.0,37.0,
1914.0,2023.0,4.0,37.0,
2023.0,2006.0,4.0,37.0,
1929.0,1756.0,4.0,37.0,
2294.0,2061.0,4.0,37.0,
2091.0,2298.0,4.0,37.0,
1862.0,2285.0,4.0,37.0,
2060.0,2143.0,4.0,37.0,
2166.0,2031.0,4.0,37.0,
1950.0,2018.0,4.0,37.0,
2056.0,2041.0,4.0,37.0,
1850.0,2025.0,4.0,37.0,
2035.0,2083.0,4.0,37.0,
2511.0,2115.0,4.0,37.0,
2418.0,2001.0,4.0,37.0,
2229.0,2054.0,4.0,37.0,
2177.0,2009.0,4.0,37.0,
1823.0,2066.0,4.0,37.0,
1605.0,2036.0,4.0,37.0,
1762.0,1968.0,4.0,37.0,
2134.0,2212.0,4.0,37.0,
1893.0,2153.0,4.0,37.0,
1909.0,1948.0,4.0,38.0,
2415.0,2382.0,5.0,37.0,
2253.0,2371.0,5.0,38.0,
1864.0,2252.0,5.0,38.0,
1974.0,2171.0,5.0,38.0,
2147.0,1793.0,5.0,38.0,
2336.0,2123.0,0,
2078.0,1853.0,5.0,38.0,
2248.0,1925.0,5.0,38.0,
2181.0,2066.0,4.0,38.0,
2063.0,2129.0,4.0,38.0,
1940.0,2282.0,4.0,38.0,
2010.0,2139.0,4.0,38.0,
2678.0,2131.0,4.0,38.0,
1934.0,1951.0,4.0,38.0,
1983.0,1842.0,4.0,38.0,
2132.0,2081.0,4.0,38.0,
2060.0,2063.0,4.0,38.0,
1831.0,2144.0,4.0,38.0,
1887.0,2002.0,4.0,38.0,
1979.0,2088.0,4.0,38.0,
2213.0,2085.0,4.0,38.0,
2080.0,2064.0,4.0,38.0,
2323.0,1927.0,4.0,38.0,
1964.0,2039.0,3.0,38.0,
1490.0,2027.0,3.0,38.0,
1943.0,2062.0,3.0,38.0,
2044.0,2261.0,3.0,38.0,
2118.0,2023.0,3.0,39.0,
2067.0,2411.0,3.0,38.0,
2119.0,2361.0,3.0,39.0,
2139.0,2098.0,3.0,39.0,
2351.0,1830.0,3.0,39.0,
2151.0,1938.0,3.0,39.0,
2230.0,2078.0,3.0,39.0,
2215.0,2215.0,3.0,39.0,
2332.0,2288.0,3.0,39.0,
2218.0,2148.0,3.0,39.0,
1701.0,1933.0,3.0,39.0,
1716.0,2024.0,3.0,39.0,
1911.0,1970.0,3.0,39.0,
2193.0,2032.0,3.0,39.0,
2257.0,2157.0,4.0,39.0,
2029.0,2005.0,4.0,39.0,
1940.0,1902.0,4.0,39.0,
2217.0,1966.0,4.0,38.0,
1934.0,2020.0,4.0,38.0,
2091.0,2152.0,4.0,38.0,
2146.0,2080.0,4.0,38.0,
2117.0,2085.0,4.0,39.0,
1773.0,2023.0,5.0,38.0,
1979.0,2258.0,5.0,38.0,
2092.0,2050.0,4.0,38.0,
2014.0,2088.0,4.0,38.0,
2132.0,2125.0,4.0,38.0,
2284.0,2072.0,4.0,38.0,
2156.0,2039.0,0,
2356.0,2303.0,4.0,38.0,
1936.0,2130.0,4.0,38.0,
2177.0,2031.0,4.0,38.0,
1999.0,2260.0,3.0,38.0,
1925.0,1910.0,3.0,38.0,
1950.0,1890.0,3.0,38.0,
2150.0,2148.0,3.0,38.0,
2415.0,2136.0,3.0,38.0,
2220.0,2018.0,3.0,38.0,
1774.0,2125.0,3.0,38.0,
2102.0,1989.0,3.0,38.0,
2095.0,2128.0,3.0,38.0,
2010.0,2251.0,3.0,38.0,
2234.0,2359.0,3.0,38.0,
2139.0,2180.0,3.0,38.0,
2008.0,1899.0,3.0,38.0,
1939.0,2011.0,3.0,38.0,
2137.0,1948.0,3.0,38.0,
2004.0,2042.0,3.0,38.0,
2016.0,2010.0,3.0,38.0,
1941.0,2011.0,3.0,38.0,
2088.0,2007.0,3.0,38.0,
2094.0,2005.0,3.0,38.0,
2079.0,2190.0,3.0,38.0,
2098.0,2159.0,3.0,38.0,
2088.0,2156.0,3.0,38.0,
1940.0,1980.0,3.0,38.0,
2071.0,2154.0,3.0,38.0,
2385.0,2135.0,3.0,38.0,
2651.0,2012.0,3.0,38.0,
2205.0,2021.0,3.0,38.0,
2052.0,2052.0,3.0,38.0,
1904.0,2141.0,4.0,38.0,
1760.0,2035.0,4.0,38.0,
1687.0,2232.0,4.0,38.0,
2017.0,2217.0,4.0,39.0,
2081.0,2058.0,4.0,39.0,
2232.0,2049.0,4.0,39.0,
1492.0,1847.0,4.0,39.0,
2027.0,1972.0,6.0,42.0,
2212.0,2173.0,6.0,40.0,
2077.0,2174.0,5.0,40.0,
2038.0,2031.0,5.0,40.0,
2124.0,1933.0,5.0,40.0,
2275.0,2132.0,5.0,40.0,
2082.0,2094.0,5.0,40.0,
2139.0,2136.0,5.0,40.0,
2029.0,2066.0,4.0,40.0,
1933.0,1931.0,4.0,40.0,
2268.0,1970.0,2.0,37.0,
2348.0,2071.0,2.0,39.0,
2198.0,2293.0,3.0,39.0,
2025.0,2292.0,3.0,39.0,
2056.0,2162.0,3.0,39.0,
2061.0,2009.0,3.0,39.0,
1864.0,1915.0,3.0,39.0,
2049.0,2063.0,2.0,39.0,
2067.0,2130.0,2.0,39.0,
2117.0,2211.0,2.0,39.0,
2142.0,2200.0,2.0,39.0,
2101.0,2122.0,2.0,39.0,
1988.0,2034.0,2.0,39.0,
1984.0,1986.0,2.0,39.0,
2257.0,2239.0,2.0,39.0,
2299.0,2189.0,2.0,38.0,
1937.0,2047.0,2.0,38.0,
2000.0,1974.0,2.0,38.0,
2251.0,2036.0,2.0,38.0,
2130.0,1924.0,2.0,38.0,
1837.0,2044.0,2.0,38.0,
1929.0,2102.0,2.0,38.0,
1912.0,1926.0,2.0,38.0,
2206.0,2133.0,2.0,38.0,
1873.0,2122.0,3.0,40.0,
2163.0,2152.0,3.0,38.0,
2273.0,2227.0,2.0,38.0,
2140.0,2056.0,2.0,38.0,
2167.0,2048.0,2.0,38.0,
1883.0,2139.0,2.0,38.0,
2142.0,2081.0,2.0,38.0,
1998.0,2154.0,2.0,38.0,
1920.0,2060.0,2.0,38.0,
2026.0,2051.0,3.0,38.0,
1982.0,1988.0,2.0,37.0,
1977.0,1901.0,2.0,39.0,
2105.0,2183.0,3.0,39.0,
2102.0,2098.0,3.0,39.0,
2111.0,1966.0,3.0,39.0,
2187.0,2042.0,3.0,39.0,
2130.0,1972.0,3.0,39.0,
2174.0,2196.0,3.0,39.0,
2103.0,2197.0,3.0,39.0,
1949.0,2213.0,3.0,39.0,
2066.0,2135.0,3.0,39.0,
2061.0,2110.0,3.0,39.0,
2113.0,2183.0,4.0,39.0,
2152.0,2115.0,4.0,38.0,
2163.0,2034.0,4.0,38.0,
2126.0,1932.0,4.0,38.0,
2064.0,1987.0,4.0,38.0,
2006.0,2014.0,5.0,38.0,
2034.0,2142.0,5.0,38.0,
2293.0,2247.0,5.0,38.0,
2125.0,2175.0,5.0,39.0,
2214.0,2192.0,5.0,38.0,
2354.0,2181.0,4.0,37.0,
1970.0,2051.0,4.0,36.0,
1758.0,1970.0,4.0,36.0,
1760.0,1996.0,5.0,36.0,
1803.0,1988.0,5.0,36.0,
2014.0,1912.0,5.0,36.0,
2059.0,2019.0,5.0,37.0,
2093.0,1938.0,5.0,36.0,
2185.0,2115.0,5.0,35.0,
1873.0,2150.0,4.0,35.0,
2050.0,2291.0,5.0,36.0,
2125.0,2174.0,5.0,36.0,
2181.0,2056.0,5.0,37.0,
2045.0,1973.0,5.0,37.0,
2102.0,2166.0,4.0,36.0,
2238.0,2261.0,3.0,36.0,
2170.0,2187.0,2.0,36.0,
1886.0,2015.0,2.0,37.0,
2148.0,2140.0,3.0,37.0,
2113.0,2112.0,2.0,37.0,
1884.0,2014.0,2.0,37.0,
2092.0,2070.0,2.0,37.0,
2104.0,1957.0,1.0,36.0,
2073.0,2055.0,1.0,37.0,
2152.0,2144.0,1.0,38.0,
2154.0,2160.0,2.0,38.0,
2028.0,2166.0,2.0,38.0,
2178.0,2009.0,2.0,37.0,
2262.0,1987.0,2.0,37.0,
2071.0,2024.0,2.0,37.0,
2077.0,2056.0,3.0,38.0,
2281.0,2041.0,3.0,38.0,
2179.0,2220.0,3.0,38.0,
1696.0,2191.0,3.0,37.0,
1783.0,2127.0,3.0,37.0,
2018.0,1903.0,4.0,37.0,
1888.0,1770.0,4.0,37.0,
2050.0,1868.0,5.0,37.0,
2171.0,2282.0,5.0,36.0,
2005.0,2293.0,5.0,36.0,
2127.0,2081.0,6.0,36.0,
2077.0,2014.0,6.0,35.0,
2065.0,2018.0,7.0,35.0,
2047.0,2098.0,7.0,35.0,
2022.0,2174.0,7.0,35.0,
2117.0,2162.0,7.0,34.0,
2241.0,1929.0,7.0,34.0,
2257.0,2148.0,6.0,34.0,
2281.0,2484.0,6.0,34.0,
2181.0,2244.0,6.0,34.0,
1848.0,2242.0,6.0,34.0,
1961.0,2060.0,6.0,35.0,
1887.0,2052.0,6.0,35.0,
2071.0,1957.0,6.0,35.0,
2103.0,1943.0,6.0,36.0,
1945.0,2028.0,5.0,35.0,
2005.0,1990.0,5.0,35.0,
2236.0,2052.0,5.0,36.0,
2426.0,1990.0,5.0,36.0,
1932.0,2213.0,5.0,36.0,
2170.0,2202.0,5.0,36.0,
2217.0,2044.0,5.0,36.0,
2010.0,2004.0,5.0,36.0,
1897.0,2017.0,5.0,36.0,
1676.0,2073.0,5.0,35.0,
1998.0,1993.0,5.0,36.0,
1989.0,1817.0,5.0,36.0,
2061.0,1945.0,5.0,36.0,
2118.0,2373.0,5.0,36.0,
2145.0,2071.0,5.0,36.0,
2164.0,2093.0,5.0,36.0,
2126.0,2012.0,5.0,36.0,
2150.0,2123.0,5.0,36.0,
2084.0,2250.0,5.0,36.0,
2023.0,2109.0,4.0,36.0,
2094.0,2213.0,4.0,36.0,
2138.0,2169.0,4.0,36.0,
2135.0,2068.0,4.0,36.0,
2189.0,2017.0,4.0,36.0,
2077.0,2101.0,4.0,36.0,
2109.0,2124.0,4.0,36.0,
1852.0,1969.0,4.0,36.0,
1998.0,2097.0,4.0,36.0,
2014.0,2225.0,4.0,36.0,
1950.0,2034.0,4.0,36.0,
2078.0,2035.0,4.0,36.0,
2113.0,1962.0,4.0,36.0,
2134.0,1987.0,5.0,36.0,
2114.0,2077.0,5.0,36.0,
2165.0,2130.0,5.0,35.0,
2138.0,2178.0,5.0,35.0,
2109.0,2007.0,6.0,35.0,
2296.0,2112.0,6.0,35.0,
2130.0,2212.0,6.0,35.0,
1625.0,2064.0,6.0,35.0,
2048.0,2050.0,7.0,34.0,
2170.0,2061.0,7.0,34.0,
1965.0,2055.0,7.0,34.0,
2010.0,1903.0,7.0,34.0,
2028.0,2077.0,7.0,34.0,
2044.0,2126.0,7.0,34.0,
2081.0,2118.0,7.0,33.0,
2132.0,2014.0,7.0,33.0,
2210.0,1970.0,7.0,33.0,
2352.0,2212.0,7.0,33.0,
2209.0,2151.0,7.0,33.0,
1962.0,2114.0,7.0,33.0,
1914.0,2086.0,7.0,33.0,
1864.0,2130.0,7.0,33.0,
1898.0,2194.0,7.0,33.0,
2002.0,2033.0,7.0,33.0,
2114.0,2193.0,7.0,33.0,
2037.0,2235.0,7.0,33.0,
1993.0,1995.0,6.0,33.0,
2073.0,2020.0,6.0,33.0,
2036.0,2084.0,6.0,33.0,
2161.0,1862.0,6.0,33.0,
2096.0,2006.0,6.0,34.0,
2142.0,2095.0,6.0,34.0,
2231.0,2162.0,6.0,33.0,
2331.0,2228.0,6.0,33.0,
2367.0,2083.0,6.0,33.0,
1838.0,1944.0,5.0,33.0,
1834.0,2165.0,5.0,33.0,
2036.0,2047.0,5.0,34.0,
1979.0,1962.0,5.0,34.0,
1982.0,2087.0,5.0,34.0,
2091.0,2000.0,4.0,34.0,
2057.0,2065.0,4.0,34.0,
2097.0,1975.0,4.0,34.0,
2077.0,2046.0,4.0,34.0,
2077.0,2311.0,4.0,34.0,
1990.0,2233.0,4.0,34.0,
2027.0,2151.0,4.0,34.0,
2097.0,2186.0,4.0,34.0,
2123.0,2167.0,4.0,34.0,
2177.0,1972.0,4.0,34.0,
2093.0,1951.0,4.0,34.0,
2030.0,2057.0,4.0,34.0,
1995.0,1915.0,4.0,34.0,
2055.0,2050.0,4.0,34.0,
2119.0,2179.0,4.0,34.0,
2100.0,2230.0,4.0,34.0,
2063.0,2114.0,4.0,34.0,
2151.0,2076.0,4.0,34.0,
2064.0,2151.0,4.0,34.0,
1996.0,2131.0,4.0,34.0,
1995.0,2200.0,5.0,34.0,
1986.0,2121.0,5.0,33.0,
2087.0,1988.0,6.0,33.0,
2148.0,1830.0,6.0,33.0,
2281.0,2076.0,6.0,32.0,
2045.0,2181.0,6.0,32.0,
2089.0,2105.0,6.0,32.0,
2007.0,2077.0,6.0,31.0,
1907.0,2010.0,7.0,31.0,
2027.0,2000.0,7.0,31.0,
2094.0,2073.0,7.0,30.0,
2161.0,2018.0,7.0,30.0,
2062.0,1931.0,7.0,30.0,
2071.0,2028.0,7.0,30.0,
2016.0,2358.0,7.0,30.0,
2135.0,2265.0,7.0,30.0,
2243.0,2144.0,7.0,30.0,
2241.0,1982.0,7.0,30.0,
1791.0,1950.0,7.0,30.0,
2011.0,2205.0,7.0,30.0,
2149.0,2101.0,7.0,30.0,
1876.0,2027.0,7.0,30.0,
2029.0,2026.0,7.0,30.0,
2034.0,2007.0,7.0,30.0,
2047.0,2031.0,6.0,30.0,
2066.0,2159.0,6.0,31.0,
2063.0,2163.0,6.0,31.0,
2093.0,2169.0,6.0,31.0,
2158.0,2050.0,5.0,31.0,
2118.0,1942.0,5.0,31.0,
2061.0,1885.0,5.0,31.0,
2095.0,2135.0,4.0,31.0,
2150.0,2164.0,4.0,31.0,
2040.0,2171.0,4.0,31.0,
2095.0,2114.0,4.0,31.0,
2082.0,2057.0,4.0,31.0,
2056.0,1952.0,4.0,31.0,
2046.0,2222.0,4.0,31.0,
2081.0,2213.0,4.0,31.0,
2087.0,2138.0,4.0,31.0,
2100.0,2030.0,4.0,31.0,
2072.0,2071.0,4.0,31.0,
2098.0,2137.0,4.0,31.0,
2086.0,2185.0,4.0,31.0,
2090.0,1982.0,4.0,31.0,
2095.0,2016.0,4.0,31.0,
1997.0,2056.0,5.0,31.0,
2107.0,2077.0,5.0,31.0,
2069.0,2123.0,5.0,31.0,
2097.0,2158.0,6.0,31.0,
1919.0,2068.0,6.0,31.0,
2063.0,2048.0,6.0,30.0,
2186.0,2043.0,6.0,30.0,
2080.0,2037.0,0,
2259.0,2068.0,7.0,30.0,
2289.0,2069.0,7.0,29.0,
2122.0,2097.0,7.0,29.0,
1811.0,2058.0,7.0,29.0,
1867.0,2071.0,7.0,29.0,
1716.0,2022.0,8.0,29.0,
2226.0,2070.0,9.0,28.0,
2064.0,2129.0,9.0,28.0,
2061.0,2016.0,9.0,28.0,
2067.0,2061.0,10.0,27.0,
2369.0,2066.0,10.0,27.0,
1935.0,2166.0,11.0,27.0,
2103.0,2130.0,11.0,27.0,
1862.0,2140.0,11.0,27.0,
2069.0,2114.0,11.0,27.0,
1856.0,2063.0,11.0,27.0,
2123.0,1973.0,11.0,27.0,
2209.0,2098.0,11.0,27.0,
1866.0,1997.0,10.0,27.0,
2006.0,2275.0,10.0,27.0,
2171.0,2143.0,10.0,27.0,
2094.0,2128.0,10.0,27.0,
2075.0,2025.0,10.0,27.0,
2139.0,2107.0,10.0,27.0,
2165.0,1968.0,10.0,27.0,
1904.0,2136.0,10.0,27.0,
2066.0,1948.0,10.0,27.0,
2145.0,2183.0,10.0,26.0,
2146.0,2203.0,9.0,26.0,
2095.0,2123.0,9.0,26.0,
2086.0,2191.0,9.0,26.0,
2111.0,2013.0,9.0,26.0,
2083.0,2031.0,8.0,26.0,
2094.0,2007.0,8.0,27.0,
2068.0,2038.0,7.0,27.0,
2082.0,2027.0,7.0,27.0,
2087.0,2050.0,6.0,27.0,
2093.0,2053.0,6.0,27.0,
2107.0,2158.0,6.0,28.0,
2112.0,1940.0,5.0,28.0,
2100.0,2073.0,5.0,28.0,
2085.0,2106.0,5.0,28.0,
2042.0,2090.0,5.0,28.0,
2058.0,2128.0,5.0,28.0,
2064.0,2252.0,5.0,28.0,
2070.0,2122.0,6.0,28.0,
2067.0,2118.0,6.0,28.0,
2074.0,2044.0,6.0,28.0,
2062.0,2045.0,6.0,27.0,
2059.0,2057.0,6.0,27.0,
2061.0,2103.0,7.0,27.0,
2051.0,2140.0,7.0,27.0,
2053.0,2035.0,7.0,27.0,
2046.0,2024.0,7.0,26.0,
2076.0,2047.0,7.0,26.0,
2096.0,2201.0,7.0,26.0,
2089.0,2142.0,7.0,26.0,
2073.0,2016.0,7.0,25.0,
2168.0,2063.0,7.0,25.0,
2196.0,2007.0,6.0,24.0,
2115.0,2058.0,6.0,24.0,
2018.0,2112.0,6.0,24.0,
2036.0,2111.0,6.0,23.0,
1977.0,2065.0,6.0,23.0,
1919.0,2051.0,6.0,23.0,
2080.0,2061.0,6.0,23.0,
2225.0,2112.0,6.0,23.0,
2143.0,2151.0,6.0,23.0,
1937.0,2048.0,7.0,23.0,
2192.0,2090.0,8.0,23.0,
2355.0,2054.0,8.0,23.0,
2009.0,2146.0,9.0,23.0,
1680.0,2042.0,9.0,23.0,
1852.0,2054.0,10.0,23.0,
1920.0,2066.0,11.0,23.0,
2026.0,2111.0,11.0,23.0,
2042.0,2212.0,12.0,22.0,
2065.0,2112.0,12.0,22.0,
2086.0,2117.0,12.0,22.0,
2152.0,2113.0,12.0,22.0,
2158.0,2097.0,12.0,22.0,
2030.0,1914.0,12.0,21.0,
2031.0,1930.0,12.0,21.0,
2150.0,2057.0,12.0,21.0,
2142.0,2354.0,11.0,20.0,
2103.0,2140.0,11.0,20.0,
2106.0,2199.0,10.0,20.0,
2101.0,2141.0,10.0,20.0,
2119.0,2121.0,9.0,20.0,
2090.0,2074.0,8.0,18.0,
2085.0,1905.0,8.0,16.0,
2097.0,1891.0,8.0,17.0,
2114.0,2024.0,7.0,18.0,
2075.0,2177.0,7.0,18.0,
2016.0,2118.0,6.0,18.0,
2059.0,2057.0,6.0,18.0,
2110.0,1992.0,6.0,19.0,
2058.0,2022.0,5.0,19.0,
2057.0,2135.0,5.0,19.0,
2066.0,2146.0,5.0,20.0,
2059.0,2127.0,5.0,22.0,
2070.0,2098.0,4.0,22.0,
2043.0,2135.0,4.0,21.0,
2057.0,2097.0,4.0,21.0,
2081.0,2121.0,4.0,22.0,
2090.0,2168.0,4.0,22.0,
2115.0,2153.0,4.0,22.0,
1984.0,2077.0,4.0,22.0,
2148.0,1996.0,4.0,22.0,
2195.0,1998.0,5.0,22.0,
2020.0,2077.0,5.0,22.0,
1950.0,2047.0,5.0,22.0,
1951.0,1967.0,6.0,22.0,
2008.0,2019.0,6.0,22.0,
2001.0,2165.0,7.0,22.0,
2063.0,2289.0,7.0,22.0,
2073.0,2170.0,8.0,22.0,
2060.0,2089.0,8.0,22.0,
2107.0,2049.0,9.0,21.0,
2106.0,2050.0,9.0,21.0,
2103.0,2185.0,9.0,21.0,
2496.0,1993.0,9.0,20.0,
2470.0,2006.0,10.0,20.0,
2116.0,2195.0,10.0,19.0,
1316.0,2093.0,10.0,19.0,
1834.0,2074.0,10.0,19.0,
1985.0,2083.0,10.0,19.0,
2000.0,2069.0,10.0,18.0,
2033.0,2013.0,10.0,18.0,
2077.0,2021.0,10.0,18.0,
2066.0,2014.0,11.0,17.0,
2113.0,2188.0,10.0,16.0,
2138.0,2153.0,10.0,16.0,
2148.0,2097.0,10.0,17.0,
2086.0,2082.0,10.0,16.0,
2140.0,2081.0,10.0,16.0,
2145.0,2089.0,10.0,16.0,
2114.0,2012.0,10.0,15.0,
2006.0,2078.0,10.0,15.0,
2048.0,2127.0,9.0,14.0,
2090.0,2103.0,9.0,16.0,
2084.0,1920.0,9.0,16.0,
2088.0,1976.0,9.0,15.0,
2082.0,2022.0,8.0,14.0,
2098.0,2280.0,8.0,14.0,
2082.0,2183.0,8.0,14.0,
2072.0,2046.0,8.0,14.0,
2079.0,2028.0,7.0,14.0,
2063.0,2062.0,7.0,14.0,
2083.0,2141.0,7.0,14.0,
2076.0,2209.0,7.0,14.0,
2061.0,2193.0,6.0,15.0,
2080.0,2116.0,7.0,15.0,
2103.0,2050.0,6.0,15.0,
2033.0,1927.0,6.0,15.0,
2059.0,2047.0,5.0,15.0,
2070.0,1947.0,5.0,15.0,
2084.0,2150.0,5.0,16.0,
2077.0,2225.0,5.0,16.0,
2059.0,2146.0,5.0,16.0,
2036.0,2028.0,5.0,16.0,
2081.0,2093.0,5.0,16.0,
2042.0,2054.0,5.0,16.0,
2040.0,2095.0,6.0,16.0,
2054.0,2030.0,6.0,16.0,
2065.0,2079.0,6.0,16.0,
2092.0,2076.0,6.0,17.0,
2081.0,2053.0,7.0,17.0,
2066.0,2107.0,7.0,17.0,
2055.0,2100.0,7.0,17.0,
2058.0,2122.0,8.0,17.0,
2039.0,2097.0,8.0,17.0,
2087.0,2102.0,8.0,17.0,
2108.0,2053.0,8.0,17.0,
2108.0,2064.0,9.0,17.0,
2045.0,2046.0,9.0,17.0,
1994.0,2171.0,9.0,17.0,
2025.0,2086.0,10.0,17.0,
2035.0,2092.0,10.0,16.0,
2134.0,2108.0,11.0,16.0,
2130.0,2106.0,11.0,16.0,
2097.0,2106.0,12.0,16.0,
2055.0,2100.0,12.0,16.0,
1915.0,2054.0,12.0,15.0,
1996.0,2072.0,13.0,15.0,
2084.0,2076.0,13.0,14.0,
2136.0,2091.0,13.0,13.0,
2109.0,2073.0,14.0,12.0,
2023.0,2055.0,13.0,12.0,
2065.0,2073.0,13.0,11.0,
2051.0,2081.0,13.0,10.0,
2072.0,2084.0,13.0,10.0,
2076.0,2064.0,12.0,9.0,
2096.0,2058.0,12.0,9.0,
2096.0,2091.0,11.0,8.0,
2093.0,2080.0,11.0,8.0,
2093.0,2073.0,10.0,9.0,
2082.0,2041.0,10.0,10.0,
2065.0,2040.0,10.0,9.0,
2090.0,2078.0,9.0,8.0,
2079.0,2176.0,9.0,9.0,
2080.0,2126.0,9.0,9.0,
2083.0,2164.0,8.0,9.0,
2073.0,2187.0,8.0,9.0,
2077.0,2095.0,8.0,9.0,
2072.0,2042.0,8.0,9.0,
2085.0,2075.0,8.0,10.0,
2070.0,2090.0,8.0,10.0,
2073.0,2129.0,7.0,10.0,
2060.0,1992.0,7.0,10.0,
2090.0,2114.0,7.0,10.0,
2063.0,2001.0,7.0,10.0,
2071.0,2056.0,7.0,10.0,
2086.0,2085.0,7.0,10.0,
2055.0,2080.0,7.0,11.0,
2083.0,2064.0,7.0,11.0,
2062.0,2071.0,7.0,11.0,
2053.0,2094.0,7.0,11.0,
2060.0,2159.0,7.0,11.0,
2062.0,2092.0,7.0,11.0,
2054.0,2073.0,7.0,11.0,
2085.0,2061.0,7.0,11.0,
2080.0,2075.0,7.0,11.0,
2080.0,2107.0,7.0,11.0,
2086.0,2131.0,7.0,11.0,
2070.0,2098.0,7.0,11.0,
2032.0,2051.0,7.0,11.0,
2060.0,1995.0,7.0,11.0,
2058.0,2043.0,8.0,11.0,
2074.0,2127.0,8.0,11.0,
2067.0,2172.0,8.0,11.0,
2084.0,2150.0,9.0,12.0,
2061.0,2178.0,9.0,11.0,
2048.0,2044.0,10.0,12.0,
2078.0,2022.0,10.0,11.0,
2089.0,2035.0,10.0,11.0,
2086.0,2062.0,11.0,11.0,
2071.0,2165.0,11.0,11.0,
2065.0,2089.0,11.0,11.0,
2066.0,2105.0,11.0,11.0,
2045.0,2049.0,11.0,11.0,
2050.0,2078.0,11.0,11.0,
2069.0,2084.0,11.0,11.0,
2095.0,2102.0,11.0,11.0,
2077.0,2063.0,12.0,10.0,
2069.0,2124.0,12.0,10.0,
2079.0,2098.0,12.0,10.0,
2082.0,2040.0,12.0,10.0,
2076.0,1996.0,12.0,9.0,
2075.0,1940.0,13.0,9.0,
2086.0,2197.0,13.0,9.0,
2082.0,2139.0,13.0,8.0,
2073.0,2080.0,13.0,8.0,
2081.0,2108.0,13.0,6.0,
2069.0,2054.0,13.0,5.0,
2071.0,2046.0,13.0,5.0,
2075.0,2092.0,12.0,6.0,
2074.0,2129.0,12.0,6.0,
2076.0,2188.0,12.0,5.0,
2077.0,2004.0,12.0,5.0,
2062.0,1942.0,11.0,5.0,
2060.0,2064.0,11.0,5.0,
2074.0,2082.0,11.0,5.0,
2060.0,2249.0,10.0,6.0,
2059.0,2245.0,10.0,6.0,
2075.0,2068.0,10.0,5.0,
2052.0,2002.0,9.0,5.0,
2073.0,2042.0,9.0,4.0,
2068.0,2209.0,9.0,4.0,
2054.0,2145.0,9.0,4.0,
2074.0,2083.0,9.0,4.0,
2084.0,1959.0,8.0,4.0,
2074.0,2114.0,8.0,4.0,
2077.0,2180.0,8.0,4.0,
2066.0,2105.0,8.0,4.0,
2009.0,2011.0,8.0,4.0,
2085.0,2019.0,8.0,4.0,
2083.0,1952.0,7.0,4.0,
2084.0,1969.0,7.0,3.0,
2094.0,2070.0,8.0,3.0,
2113.0,2047.0,8.0,3.0,
2081.0,1948.0,7.0,3.0,
2051.0,2169.0,8.0,3.0,
2054.0,2130.0,8.0,3.0,
2064.0,2131.0,8.0,3.0,
2059.0,2239.0,8.0,3.0,
2025.0,2110.0,8.0,3.0,
2051.0,2051.0,8.0,3.0,
2057.0,2229.0,8.0,3.0,
2071.0,2229.0,9.0,3.0,
2076.0,2182.0,9.0,3.0,
2078.0,2116.0,9.0,2.0,
2087.0,2007.0,9.0,1.0,
2082.0,1993.0,10.0,1.0,
2059.0,1984.0,10.0,2.0,
2060.0,2050.0,10.0,2.0,
2065.0,2040.0,10.0,2.0,
2068.0,2036.0,10.0,2.0,
2070.0,2079.0,10.0,2.0,
2092.0,2027.0,10.0,2.0,
2080.0,2058.0,10.0,2.0,
2082.0,2084.0,10.0,3.0,
2084.0,2106.0,10.0,4.0,
2078.0,2128.0,10.0,3.0,
2044.0,2145.0,10.0,2.0,
2055.0,2138.0,11.0,0.0,
2056.0,2143.0,10.0,0.0,
2054.0,2131.0,10.0,0.0,
2083.0,1958.0,10.0,1.0,
2103.0,1866.0,10.0,1.0,
2086.0,2004.0,10.0,1.0,
2065.0,2054.0,10.0,1.0,
2088.0,2099.0,10.0,1.0,
2064.0,2180.0,10.0,1.0,
2078.0,2236.0,10.0,2.0,
2082.0,2207.0,9.0,2.0,
2088.0,2089.0,9.0,2.0,
2054.0,1855.0,9.0,1.0,
2044.0,1890.0,9.0,1.0,
2040.0,2084.0,9.0,1.0,
2066.0,2435.0,9.0,1.0,
2051.0,2275.0,9.0,1.0,
2065.0,2153.0,9.0,1.0,
2084.0,2057.0,9.0,1.0,
2076.0,1993.0,9.0,1.0,
2071.0,1983.0,9.0,1.0,
2088.0,2083.0,9.0,2.0,
2070.0,2001.0,9.0,2.0,
2088.0,2141.0,9.0,1.0,
2082.0,2150.0,9.0,0.0,
2077.0,2103.0,9.0,0.0,
2074.0,2054.0,9.0,0.0,
2058.0,1951.0,10.0,0.0,
2066.0,1987.0,10.0,0.0,
2076.0,2070.0,10.0,-1.0,
2067.0,2209.0,10.0,-1.0,
2061.0,2132.0,10.0,-2.0,
2062.0,2069.0,10.0,-1.0,
2062.0,2062.0,10.0,0.0,
2083.0,2058.0,11.0,0.0,
2077.0,2104.0,11.0,0.0,
2074.0,2091.0,11.0,0.0,
2076.0,2099.0,11.0,0.0,
2077.0,2101.0,11.0,0.0,
2054.0,2100.0,11.0,0.0,
2043.0,2100.0,11.0,0.0,
2074.0,2039.0,11.0,0.0,
2079.0,1973.0,11.0,0.0,
2068.0,2055.0,11.0,0.0,
2086.0,2175.0,11.0,0.0,
2080.0,2139.0,11.0,0.0,
2078.0,2031.0,11.0,0.0,
2115.0,1976.0,11.0,0.0,
2102.0,2088.0,11.0,0.0,
2042.0,2107.0,11.0,0.0,
2065.0,2073.0,11.0,0.0,
2029.0,2029.0,11.0,0.0,
2022.0,2423.0,11.0,0.0,
2053.0,2145.0,11.0,0.0,
2047.0,2103.0,11.0,0.0,
2072.0,2102.0,11.0,0.0,
2058.0,2097.0,11.0,0.0,
2091.0,1992.0,11.0,0.0,
2078.0,2035.0,10.0,-1.0,
2071.0,2097.0,10.0,-1.0,
2084.0,2012.0,10.0,-1.0,
2084.0,1953.0,10.0,-1.0,
2081.0,1984.0,9.0,0.0,
2076.0,2067.0,9.0,0.0,
2085.0,2141.0,9.0,0.0,
2086.0,2096.0,9.0,0.0,
2076.0,2133.0,8.0,0.0,
2083.0,2079.0,8.0,0.0,
2058.0,2053.0,8.0,0.0,
2057.0,2061.0,7.0,0.0,
2087.0,2053.0,8.0,0.0,
2042.0,2141.0,8.0,0.0,
2067.0,2081.0,8.0,0.0,
2069.0,2109.0,8.0,-1.0,
2077.0,2066.0,8.0,-1.0,
2066.0,2064.0,8.0,-1.0,
2062.0,2194.0,8.0,-2.0,
2083.0,2093.0,9.0,-3.0,
2080.0,2074.0,9.0,-3.0,
2081.0,2081.0,9.0,-3.0,
2101.0,2077.0,10.0,-3.0,
2062.0,2086.0,0,
2038.0,2075.0,10.0,-2.0,
2059.0,2018.0,10.0,-2.0,
2033.0,2028.0,11.0,-2.0,
2071.0,2151.0,11.0,-2.0,
2074.0,2167.0,11.0,-2.0,
2079.0,2208.0,11.0,-2.0,
2082.0,2202.0,12.0,-1.0,
2100.0,1956.0,12.0,-1.0,
2060.0,1809.0,12.0,-1.0,
2020.0,2218.0,12.0,-1.0,
2064.0,2206.0,12.0,-2.0,
2055.0,2146.0,12.0,-2.0,
2059.0,2027.0,12.0,-2.0,
2063.0,1961.0,12.0,-2.0,
2079.0,2075.0,12.0,-2.0,
2074.0,2032.0,12.0,-2.0,
2067.0,2151.0,12.0,-2.0,
2082.0,2097.0,12.0,-2.0,
2075.0,2037.0,12.0,-2.0,
2085.0,2103.0,12.0,-2.0,
2075.0,2092.0,12.0,-2.0,
2068.0,2083.0,12.0,-2.0,
2082.0,2153.0,12.0,-2.0,
2084.0,1906.0,12.0,-2.0,
2083.0,1924.0,12.0,-2.0,
2071.0,2147.0,12.0,-2.0,
2049.0,2131.0,11.0,-2.0,
2075.0,2326.0,11.0,-2.0,
2045.0,2130.0,11.0,-2.0,
2054.0,2072.0,11.0,-2.0,
2058.0,2095.0,11.0,-2.0,
2060.0,2024.0,11.0,-2.0,
2067.0,2056.0,10.0,-2.0,
2077.0,2073.0,10.0,-2.0,
2070.0,2018.0,10.0,-2.0,
2076.0,2057.0,10.0,-2.0,
2085.0,2070.0,10.0,-2.0,
2081.0,1937.0,9.0,-2.0,
2074.0,1945.0,9.0,-2.0,
2101.0,2259.0,9.0,-2.0,
2077.0,2316.0,9.0,-2.0,
2074.0,2005.0,8.0,-2.0,
2073.0,2074.0,8.0,-2.0,
2086.0,2077.0,8.0,-3.0,
2081.0,2234.0,8.0,-3.0,
2031.0,2144.0,8.0,-3.0,
2065.0,2062.0,8.0,-5.0,
2027.0,1964.0,8.0,-7.0,
2063.0,2113.0,7.0,-6.0,
2076.0,2037.0,8.0,-5.0,
2065.0,2096.0,8.0,-5.0,
2097.0,2063.0,8.0,-5.0,
2062.0,2130.0,9.0,-5.0,
2075.0,2132.0,9.0,-5.0,
2041.0,2088.0,9.0,-5.0,
2016.0,2045.0,10.0,-5.0,
2042.0,2066.0,10.0,-3.0,
2069.0,2071.0,10.0,-2.0,
2055.0,2005.0,11.0,-2.0,
2077.0,1973.0,11.0,-3.0,
2082.0,2014.0,12.0,-4.0,
2094.0,2011.0,12.0,-4.0,
2093.0,2168.0,12.0,-4.0,
2074.0,2137.0,12.0,-4.0,
2070.0,2125.0,13.0,-4.0,
2079.0,2214.0,13.0,-4.0,
2080.0,2116.0,13.0,-4.0,
2075.0,2065.0,13.0,-4.0,
2079.0,2161.0,13.0,-4.0,
2086.0,2161.0,13.0,-4.0,
2090.0,2095.0,13.0,-4.0,
2067.0,2056.0,13.0,-4.0,
2051.0,1993.0,13.0,-5.0,
2060.0,2032.0,13.0,-5.0,
2060.0,2109.0,12.0,-5.0,
2077.0,2027.0,12.0,-5.0,
2082.0,2004.0,12.0,-5.0,
2090.0,1968.0,12.0,-5.0,
2069.0,1937.0,12.0,-5.0,
2087.0,2068.0,12.0,-5.0,
2070.0,2308.0,12.0,-5.0,
2061.0,2229.0,12.0,-5.0,
2048.0,2087.0,12.0,-5.0,
2034.0,2055.0,11.0,-5.0,
2080.0,2148.0,11.0,-4.0,
2069.0,2016.0,11.0,-4.0,
2048.0,2168.0,11.0,-4.0,
2064.0,2166.0,11.0,-4.0,
2050.0,2120.0,11.0,-4.0,
2051.0,2065.0,10.0,-4.0,
2052.0,2061.0,10.0,-4.0,
2070.0,2266.0,10.0,-4.0,
2075.0,2086.0,10.0,-4.0,
2079.0,2051.0,9.0,-4.0,
2084.0,2071.0,9.0,-4.0,
2085.0,2074.0,8.0,-4.0,
2055.0,2035.0,8.0,-4.0,
2053.0,2017.0,7.0,-6.0,
2101.0,1944.0,7.0,-6.0,
2084.0,2060.0,6.0,-5.0,
2064.0,2072.0,6.0,-5.0,
2065.0,2061.0,6.0,-4.0,
2079.0,2033.0,5.0,-4.0,
2083.0,2052.0,5.0,-5.0,
2084.0,2089.0,5.0,-5.0,
2087.0,2129.0,5.0,-5.0,
2025.0,2125.0,5.0,-5.0,
2045.0,2127.0,6.0,-4.0,
2063.0,2102.0,6.0,-4.0,
2054.0,2050.0,7.0,-5.0,
2056.0,2080.0,8.0,-6.0,
2074.0,2102.0,8.0,-7.0,
2065.0,2126.0,9.0,-7.0,
2061.0,2105.0,10.0,-7.0,
2073.0,2095.0,11.0,-7.0,
2082.0,2101.0,11.0,-7.0,
2076.0,2094.0,12.0,-7.0,
2072.0,2083.0,13.0,-7.0,
2075.0,2073.0,13.0,-7.0,
2075.0,2074.0,14.0,-7.0,
2053.0,2072.0,14.0,-7.0,
2050.0,2079.0,15.0,-7.0,
2066.0,2122.0,15.0,-7.0,
2067.0,2094.0,16.0,-7.0,
2080.0,2092.0,16.0,-7.0,
2085.0,2079.0,16.0,-7.0,
2086.0,2067.0,16.0,-7.0,
2081.0,2093.0,16.0,-7.0,
2065.0,2087.0,16.0,-7.0,
2057.0,2084.0,17.0,-8.0,
2055.0,2084.0,17.0,-7.0,
2074.0,2072.0,17.0,-7.0,
2066.0,2011.0,17.0,-8.0,
2076.0,2065.0,17.0,-8.0,
2086.0,2098.0,17.0,-9.0,
2088.0,2152.0,17.0,-8.0,
2070.0,2125.0,17.0,-8.0,
2070.0,2138.0,17.0,-7.0,
2068.0,2087.0,17.0,-7.0,
2072.0,2012.0,17.0,-7.0,
2072.0,2048.0,17.0,-7.0,
2081.0,2025.0,16.0,-7.0,
2067.0,2066.0,16.0,-7.0,
2058.0,2077.0,16.0,-6.0,
2061.0,2038.0,16.0,-6.0,
2058.0,2041.0,16.0,-6.0,
2079.0,2038.0,16.0,-6.0,
2059.0,2107.0,16.0,-7.0,
2060.0,2127.0,15.0,-7.0,
2061.0,2096.0,15.0,-7.0,
2061.0,2109.0,15.0,-7.0,
2067.0,2097.0,15.0,-7.0,
2076.0,2093.0,15.0,-7.0,
2075.0,2106.0,15.0,-7.0,
2076.0,2090.0,15.0,-7.0,
2075.0,2086.0,16.0,-7.0,
2065.0,2099.0,16.0,-8.0,
2070.0,2107.0,16.0,-8.0,
2075.0,2092.0,16.0,-8.0,
2074.0,2092.0,16.0,-7.0,
2072.0,2102.0,16.0,-7.0,
2087.0,2077.0,17.0,-7.0,
2083.0,2083.0,17.0,-8.0,
2075.0,2078.0,0,
2069.0,2062.0,17.0,-8.0,
2070.0,2076.0,17.0,-8.0,
2070.0,2076.0,17.0,-8.0,
2079.0,2081.0,17.0,-7.0,
2068.0,2084.0,17.0,-7.0,
2063.0,2082.0,17.0,-7.0,
2073.0,2093.0,17.0,-8.0,
2073.0,2075.0,17.0,-8.0,
2084.0,2083.0,16.0,-8.0,
2069.0,2079.0,16.0,-8.0,
2073.0,2058.0,16.0,-8.0,
2067.0,2081.0,16.0,-8.0,
2073.0,2084.0,16.0,-8.0,
2063.0,2086.0,15.0,-8.0,
2068.0,2098.0,15.0,-8.0,
2069.0,2096.0,15.0,-8.0,
2078.0,2092.0,14.0,-8.0,
2065.0,2077.0,14.0,-8.0,
2064.0,2083.0,14.0,-8.0,
2059.0,2085.0,14.0,-8.0,
2067.0,2078.0,14.0,-7.0,
2061.0,2083.0,13.0,-7.0,
2070.0,2087.0,13.0,-8.0,
2080.0,2091.0,13.0,-8.0,
2063.0,2092.0,13.0,-9.0,
2072.0,2069.0,13.0,-10.0,
2076.0,2068.0,13.0,-9.0,
2057.0,2067.0,13.0,-8.0,
2058.0,2074.0,13.0,-8.0,
2062.0,2115.0,13.0,-8.0,
2070.0,2064.0,14.0,-8.0,
2070.0,2093.0,14.0,-8.0,
2064.0,2094.0,14.0,-8.0,
2066.0,2083.0,14.0,-8.0,
2089.0,2093.0,14.0,-7.0,
2083.0,2097.0,15.0,-7.0,
2057.0,2063.0,15.0,-8.0,
2061.0,2073.0,15.0,-8.0,
2062.0,2086.0,16.0,-8.0,
2052.0,2101.0,16.0,-8.0,
2058.0,2098.0,16.0,-8.0,
2063.0,2084.0,17.0,-7.0,
2065.0,2052.0,17.0,-7.0,
2058.0,2047.0,18.0,-7.0,
2067.0,2075.0,18.0,-7.0,
2069.0,2071.0,19.0,-7.0,
2059.0,2078.0,19.0,-7.0,
2081.0,2083.0,19.0,-6.0,
2080.0,2088.0,20.0,-6.0,
2049.0,2078.0,21.0,-6.0,
2057.0,2088.0,21.0,-6.0,
2065.0,2104.0,22.0,-6.0,
2062.0,2102.0,22.0,-6.0,
2044.0,2104.0,22.0,-5.0,
2068.0,2093.0,22.0,-5.0,
2061.0,2100.0,0,
2077.0,2060.0,23.0,-6.0,
2072.0,2086.0,23.0,-7.0,
2078.0,2097.0,23.0,-7.0,
2073.0,2071.0,23.0,-7.0,
2075.0,2098.0,23.0,-6.0,
2081.0,2114.0,23.0,-6.0,
2073.0,2091.0,23.0,-6.0,
2078.0,2041.0,23.0,-6.0,
2093.0,2005.0,22.0,-6.0,
2062.0,2110.0,22.0,-5.0,
2062.0,2085.0,22.0,-5.0,
2069.0,2073.0,22.0,-6.0,
2072.0,2076.0,22.0,-6.0,
2075.0,2090.0,21.0,-6.0,
2083.0,2088.0,21.0,-6.0,
2071.0,2075.0,21.0,-6.0,
2062.0,2082.0,21.0,-6.0,
2057.0,2098.0,20.0,-6.0,
2052.0,2065.0,20.0,-6.0,
2057.0,2045.0,20.0,-6.0,
2067.0,2045.0,20.0,-6.0,
2064.0,2040.0,19.0,-5.0,
2066.0,2296.0,19.0,-5.0,
2070.0,2150.0,19.0,-5.0,
2076.0,2104.0,19.0,-6.0,
2068.0,2102.0,19.0,-7.0,
2072.0,2100.0,18.0,-8.0,
2132.0,2052.0,18.0,-10.0,
2065.0,2072.0,18.0,-10.0,
2087.0,2069.0,18.0,-10.0,
2079.0,2072.0,18.0,-8.0,
2074.0,2077.0,18.0,-8.0,
2074.0,2069.0,18.0,-8.0,
2075.0,2072.0,18.0,-8.0,
2078.0,2082.0,18.0,-7.0,
2062.0,2075.0,18.0,-7.0,
2063.0,2079.0,18.0,-7.0,
2070.0,2081.0,18.0,-5.0,
2067.0,2085.0,18.0,-4.0,
2056.0,2095.0,18.0,-5.0,
2063.0,2093.0,18.0,-6.0,
2072.0,2043.0,18.0,-7.0,
2066.0,2063.0,18.0,-8.0,
2068.0,2077.0,18.0,-9.0,
2056.0,2074.0,18.0,-9.0,
2063.0,2095.0,18.0,-8.0,
2063.0,2112.0,18.0,-8.0,
2064.0,2126.0,18.0,-7.0,
2069.0,2060.0,18.0,-7.0,
2069.0,2062.0,18.0,-7.0,
2065.0,2075.0,18.0,-7.0,
2066.0,2076.0,18.0,-7.0,
2064.0,2075.0,18.0,-6.0,
2069.0,2101.0,18.0,-5.0,
2065.0,2108.0,18.0,-5.0,
2064.0,2109.0,18.0,-6.0,
2069.0,2095.0,18.0,-7.0,
2072.0,2045.0,18.0,-7.0,
2073.0,2080.0,18.0,-7.0,
2074.0,2089.0,18.0,-7.0,
2061.0,2099.0,18.0,-7.0,
2064.0,2082.0,18.0,-7.0,
2057.0,2169.0,18.0,-7.0,
2072.0,2082.0,18.0,-7.0,
2073.0,2047.0,18.0,-8.0,
2079.0,2006.0,18.0,-9.0,
2070.0,2031.0,18.0,-10.0,
2061.0,2134.0,17.0,-9.0,
2045.0,2123.0,18.0,-8.0,
2052.0,2104.0,18.0,-7.0,
2058.0,2138.0,18.0,-7.0,
2064.0,2144.0,18.0,-7.0,
2057.0,2135.0,18.0,-7.0,
2070.0,2016.0,18.0,-7.0,
2062.0,1995.0,18.0,-6.0,
2070.0,2034.0,18.0,-4.0,
2078.0,2027.0,18.0,-4.0,
2076.0,2094.0,19.0,-4.0,
2073.0,2119.0,19.0,-6.0,
2075.0,2080.0,19.0,-6.0,
2083.0,2081.0,18.0,-6.0,
2065.0,2081.0,19.0,-6.0,
2083.0,2082.0,19.0,-6.0,
2072.0,2090.0,19.0,-6.0,
2064.0,2094.0,19.0,-6.0,
2072.0,2100.0,19.0,-6.0,
2083.0,2093.0,19.0,-6.0,
2081.0,2102.0,19.0,-6.0,
2078.0,2065.0,19.0,-6.0,
2077.0,2079.0,19.0,-6.0,
2060.0,2080.0,20.0,-6.0,
2066.0,2086.0,19.0,-6.0,
2060.0,2092.0,19.0,-7.0,
2068.0,2092.0,20.0,-9.0,
2077.0,2091.0,19.0,-8.0,
2070.0,2085.0,19.0,-7.0,
2065.0,2093.0,19.0,-6.0,
2067.0,2082.0,20.0,-5.0,
2064.0,2082.0,20.0,-5.0,
2074.0,2080.0,20.0,-5.0,
2068.0,2080.0,20.0,-5.0,
2061.0,2091.0,20.0,-5.0,
2067.0,2092.0,19.0,-4.0,
2075.0,2094.0,19.0,-2.0,
2077.0,2079.0,19.0,-3.0,
2076.0,2057.0,20.0,-4.0,
2073.0,2072.0,20.0,-5.0,
2064.0,2059.0,19.0,-6.0,
2066.0,2074.0,19.0,-6.0,
2060.0,2104.0,19.0,-6.0,
2062.0,2106.0,19.0,-6.0,
2070.0,2102.0,19.0,-6.0,
2077.0,2055.0,19.0,-6.0,
2070.0,2056.0,19.0,-6.0,
2073.0,2072.0,19.0,-6.0,
2063.0,2086.0,19.0,-6.0,
2061.0,2094.0,19.0,-6.0,
2074.0,2095.0,19.0,-6.0,
2074.0,2098.0,19.0,-6.0,
2067.0,2071.0,19.0,-6.0,
2062.0,2075.0,19.0,-6.0,
2072.0,2058.0,19.0,-6.0,
2072.0,2068.0,19.0,-6.0,
2055.0,2099.0,19.0,-6.0,
2060.0,2161.0,19.0,-6.0,
2081.0,2074.0,20.0,-6.0,
2059.0,2054.0,20.0,-6.0,
2063.0,2067.0,20.0,-6.0,
2060.0,2082.0,20.0,-7.0,
2077.0,2110.0,20.0,-8.0,
2079.0,2064.0,20.0,-7.0,
2074.0,2081.0,20.0,-6.0,
2080.0,2156.0,20.0,-6.0,
2054.0,2117.0,20.0,-5.0,
2068.0,2062.0,20.0,-5.0,
2062.0,2034.0,20.0,-5.0,
2063.0,2069.0,20.0,-5.0,
2076.0,2077.0,20.0,-5.0,
2074.0,2046.0,20.0,-4.0,
2072.0,2069.0,20.0,-3.0,
2075.0,2081.0,20.0,-4.0,
2060.0,2079.0,21.0,-5.0,
2068.0,2078.0,20.0,-5.0,
2062.0,2085.0,20.0,-5.0,
2064.0,2079.0,20.0,-6.0,
2065.0,2101.0,20.0,-6.0,
2059.0,2097.0,21.0,-6.0,
2074.0,2084.0,21.0,-6.0,
2073.0,2108.0,21.0,-5.0,
2074.0,2078.0,21.0,-5.0,
2075.0,2061.0,21.0,-5.0,
2068.0,2104.0,21.0,-5.0,
2081.0,2152.0,21.0,-5.0,
2057.0,2133.0,21.0,-5.0,
2063.0,2026.0,21.0,-5.0,
2066.0,2054.0,21.0,-5.0,
2069.0,2064.0,21.0,-5.0,
2068.0,2075.0,21.0,-5.0,
2077.0,2079.0,21.0,-5.0,
2075.0,2074.0,21.0,-5.0,
2073.0,2075.0,22.0,-5.0,
2082.0,2082.0,22.0,-5.0,
2074.0,2075.0,22.0,-5.0,
2057.0,2090.0,22.0,-5.0,
2079.0,2088.0,22.0,-5.0,
2073.0,2097.0,22.0,-5.0,
2078.0,2091.0,21.0,-5.0,
2073.0,2091.0,21.0,-5.0,
2070.0,2106.0,21.0,-5.0,
2078.0,2102.0,21.0,-5.0,
2072.0,2084.0,21.0,-5.0,
2063.0,2045.0,21.0,-5.0,
2069.0,2083.0,21.0,-5.0,
2069.0,2079.0,21.0,-5.0,
2074.0,2083.0,21.0,-6.0,
2077.0,2091.0,21.0,-6.0,
2076.0,2090.0,21.0,-6.0,
2080.0,2088.0,21.0,-6.0,
2084.0,2085.0,20.0,-6.0,
2068.0,2077.0,20.0,-6.0,
2064.0,2080.0,20.0,-6.0,
2071.0,2087.0,20.0,-6.0,
2077.0,2088.0,20.0,-6.0,
2074.0,2088.0,20.0,-6.0,
2067.0,2090.0,20.0,-6.0,
2071.0,2088.0,20.0,-6.0,
2070.0,2081.0,20.0,-6.0,
2065.0,2082.0,20.0,-6.0,
2065.0,2084.0,20.0,-7.0,
2085.0,2077.0,20.0,-8.0,
2068.0,2082.0,20.0,-8.0,
2078.0,2089.0,20.0,-7.0,
2071.0,2093.0,20.0,-6.0,
2070.0,2089.0,20.0,-6.0,
2068.0,2092.0,20.0,-5.0,
2078.0,2079.0,20.0,-5.0,
2067.0,2087.0,20.0,-5.0,
2063.0,2091.0,20.0,-5.0,
2076.0,2086.0,20.0,-4.0,
2062.0,2073.0,20.0,-3.0,
2058.0,2072.0,20.0,-3.0,
2066.0,2076.0,20.0,-4.0,
2071.0,2095.0,20.0,-5.0,
2074.0,2097.0,20.0,-5.0,
2081.0,2114.0,20.0,-5.0,
2065.0,2094.0,20.0,-6.0,
2072.0,2091.0,20.0,-6.0,
2064.0,2053.0,20.0,-6.0,
2069.0,2063.0,20.0,-6.0,
2071.0,2080.0,20.0,-5.0,
2070.0,2084.0,20.0,-5.0,
2077.0,2116.0,20.0,-5.0,
2070.0,2104.0,20.0,-6.0,
2063.0,2102.0,20.0,-6.0,
2074.0,2102.0,20.0,-6.0,
2075.0,2071.0,20.0,-6.0,
2058.0,2043.0,20.0,-5.0,
2058.0,2082.0,21.0,-5.0,
2064.0,2112.0,21.0,-5.0,
2067.0,2072.0,21.0,-5.0,
2068.0,2024.0,21.0,-5.0,
2029.0,2047.0,21.0,-5.0,
2069.0,2065.0,21.0,-5.0,
2068.0,2083.0,21.0,-5.0,
2078.0,2092.0,21.0,-5.0,
2068.0,2086.0,21.0,-5.0,
2067.0,2081.0,21.0,-5.0,
2072.0,2091.0,21.0,-5.0,
2070.0,2096.0,21.0,-5.0,
2072.0,2106.0,21.0,-5.0,
2068.0,2104.0,21.0,-5.0,
2062.0,2092.0,21.0,-5.0,
2066.0,2087.0,21.0,-5.0,
2065.0,2085.0,21.0,-5.0,
2063.0,2087.0,21.0,-5.0,
2067.0,2087.0,21.0,-5.0,
2069.0,2091.0,21.0,-5.0,
2076.0,2095.0,21.0,-5.0,
2071.0,2088.0,21.0,-5.0,
2063.0,2092.0,21.0,-5.0,
2071.0,2075.0,21.0,-5.0,
2076.0,2075.0,21.0,-5.0,
2064.0,2070.0,21.0,-5.0,
2063.0,2085.0,21.0,-5.0,
2062.0,2107.0,21.0,-5.0,
2072.0,2101.0,21.0,-5.0,
2070.0,2101.0,21.0,-5.0,
2075.0,2060.0,21.0,-5.0,
2070.0,2062.0,21.0,-5.0,
2070.0,2075.0,21.0,-5.0,
2073.0,2078.0,21.0,-5.0,
2064.0,2077.0,21.0,-5.0,
2055.0,2079.0,21.0,-5.0,
2064.0,2076.0,21.0,-5.0,
2078.0,2083.0,21.0,-5.0,
2064.0,2087.0,20.0,-5.0,
2071.0,2085.0,20.0,-5.0,
2075.0,2098.0,20.0,-6.0,
2069.0,2085.0,20.0,-5.0,
2068.0,2092.0,21.0,-5.0,
2072.0,2084.0,21.0,-5.0,
2068.0,2080.0,21.0,-5.0,
2066.0,2075.0,21.0,-5.0,
2070.0,2086.0,21.0,-5.0,
2066.0,2093.0,21.0,-5.0,
2068.0,2108.0,21.0,-5.0,
2073.0,2104.0,21.0,-5.0,
2057.0,2084.0,21.0,-5.0,
2080.0,2071.0,21.0,-5.0,
2065.0,2057.0,21.0,-5.0,
2076.0,2068.0,21.0,-5.0,
2058.0,2075.0,21.0,-5.0,
2068.0,2085.0,21.0,-5.0,
2065.0,2085.0,21.0,-5.0,
2063.0,2087.0,21.0,-5.0,
2068.0,2082.0,21.0,-5.0,
2079.0,2086.0,21.0,-5.0,
2071.0,2079.0,21.0,-5.0,
2065.0,2077.0,21.0,-5.0,
2073.0,2080.0,21.0,-5.0,
2030.0,2072.0,21.0,-5.0,
2064.0,2083.0,21.0,-5.0,
2072.0,2085.0,21.0,-5.0,
2068.0,2098.0,21.0,-5.0,
2069.0,2089.0,21.0,-5.0,
2078.0,2107.0,21.0,-5.0,
2073.0,2076.0,21.0,-5.0,
2072.0,2071.0,21.0,-5.0,
2072.0,2035.0,21.0,-5.0,
2068.0,2054.0,21.0,-5.0,
2069.0,2098.0,21.0,-5.0,
2079.0,2090.0,21.0,-5.0,
2064.0,2090.0,21.0,-5.0,
2074.0,2091.0,21.0,-5.0,
2077.0,2089.0,21.0,-5.0,
2071.0,2082.0,21.0,-5.0,
2088.0,2091.0,20.0,-6.0,
2066.0,2083.0,21.0,-7.0,
2059.0,2077.0,21.0,-7.0,
2069.0,2088.0,20.0,-7.0,
2078.0,2106.0,20.0,-6.0,
2076.0,2128.0,20.0,-5.0,
2073.0,2123.0,20.0,-5.0,
2077.0,2099.0,21.0,-5.0,
2069.0,2049.0,21.0,-5.0,
2069.0,2022.0,21.0,-5.0,
2070.0,2063.0,21.0,-5.0,
2060.0,2070.0,21.0,-3.0,
2067.0,2081.0,21.0,-3.0,
2080.0,2085.0,21.0,-4.0,
2073.0,2118.0,21.0,-4.0,
2079.0,2137.0,21.0,-5.0,
2071.0,2166.0,21.0,-5.0,
2075.0,2061.0,21.0,-5.0,
2071.0,2002.0,21.0,-5.0,
2079.0,2036.0,21.0,-5.0,
2075.0,2056.0,21.0,-5.0,
2063.0,2077.0,21.0,-5.0,
2078.0,2084.0,21.0,-5.0,
2068.0,2095.0,0,
2075.0,2094.0,21.0,-5.0,
2072.0,2094.0,21.0,-5.0,
2071.0,2091.0,21.0,-5.0,
2066.0,2077.0,21.0,-5.0,
2060.0,2084.0,21.0,-5.0,
2065.0,2093.0,21.0,-5.0,
2056.0,2095.0,21.0,-5.0,
2060.0,2091.0,21.0,-5.0,
2069.0,2100.0,21.0,-5.0,
2073.0,2115.0,21.0,-5.0,
2069.0,2096.0,21.0,-5.0,
2076.0,2088.0,21.0,-5.0,
2054.0,2084.0,21.0,-5.0,
2069.0,2096.0,21.0,-5.0,
2075.0,2085.0,21.0,-5.0,
2075.0,2093.0,21.0,-5.0,
2071.0,2054.0,21.0,-5.0,
2066.0,2068.0,21.0,-5.0,
2068.0,2082.0,21.0,-5.0,
2067.0,2086.0,21.0,-5.0,
2066.0,2068.0,21.0,-5.0,
2066.0,2069.0,21.0,-5.0,
2058.0,2075.0,21.0,-5.0,
2061.0,2080.0,21.0,-5.0,
2073.0,2080.0,21.0,-5.0,
2059.0,2096.0,21.0,-5.0,
2060.0,2085.0,21.0,-5.0,
2068.0,2087.0,21.0,-5.0,
2075.0,2087.0,21.0,-5.0,
2079.0,2088.0,21.0,-5.0,
2059.0,2084.0,21.0,-5.0,
2068.0,2080.0,21.0,-5.0,
2062.0,2084.0,21.0,-5.0,
2065.0,2094.0,21.0,-5.0,
2070.0,2088.0,21.0,-5.0,
2069.0,2084.0,21.0,-5.0,
2078.0,2094.0,21.0,-5.0,
2075.0,2080.0,21.0,-5.0,
2071.0,2086.0,0,
2074.0,2074.0,21.0,-5.0,
2064.0,2077.0,21.0,-5.0,
2077.0,2082.0,21.0,-5.0,
2083.0,2090.0,21.0,-5.0,
2080.0,2084.0,21.0,-5.0,
2068.0,2087.0,21.0,-5.0,
2079.0,2089.0,21.0,-5.0,
2075.0,2084.0,21.0,-5.0,
2076.0,2082.0,21.0,-5.0,
2071.0,2062.0,21.0,-5.0,
2070.0,2086.0,21.0,-5.0,
2068.0,2077.0,21.0,-5.0,
2064.0,2089.0,21.0,-5.0,
2068.0,2088.0,21.0,-5.0,
2072.0,2097.0,21.0,-5.0,
2078.0,2113.0,21.0,-5.0,
2080.0,2100.0,21.0,-5.0,
2067.0,2088.0,21.0,-5.0,
2066.0,2078.0,21.0,-5.0,
2070.0,2032.0,21.0,-5.0,
2060.0,2042.0,21.0,-5.0,
2070.0,2076.0,21.0,-5.0,
2067.0,2089.0,21.0,-5.0,
2071.0,2093.0,21.0,-5.0,
2078.0,2086.0,21.0,-5.0,
2071.0,2088.0,21.0,-5.0,
2067.0,2096.0,21.0,-5.0,
2072.0,2099.0,21.0,-5.0,
2067.0,2105.0,21.0,-5.0,
2078.0,2080.0,21.0,-5.0,
2065.0,2065.0,21.0,-5.0,
2070.0,2057.0,21.0,-5.0,
2067.0,2027.0,21.0,-5.0,
2056.0,2043.0,21.0,-5.0,
2064.0,2197.0,21.0,-5.0,
2066.0,2122.0,21.0,-5.0,
2067.0,2095.0,21.0,-5.0,
2065.0,2054.0,21.0,-5.0,
2063.0,2084.0,21.0,-5.0,
2067.0,2077.0,21.0,-5.0,
2078.0,2086.0,21.0,-5.0,
2077.0,2088.0,21.0,-5.0,
2080.0,2090.0,21.0,-5.0,
2080.0,2087.0,21.0,-5.0,
2066.0,2085.0,21.0,-5.0,
2075.0,2083.0,21.0,-5.0,
2066.0,2080.0,21.0,-5.0,
2067.0,2087.0,21.0,-5.0,
2066.0,2092.0,21.0,-5.0,
2074.0,2099.0,21.0,-5.0,
2074.0,2093.0,21.0,-5.0,
2074.0,2093.0,21.0,-5.0,
2079.0,2086.0,21.0,-5.0,
2068.0,2083.0,21.0,-5.0,
2067.0,2073.0,21.0,-5.0,
2070.0,2071.0,21.0,-5.0,
2071.0,2090.0,21.0,-5.0,
2074.0,2097.0,21.0,-5.0,
2068.0,2086.0,21.0,-5.0,
2062.0,2085.0,21.0,-5.0,
2075.0,2091.0,21.0,-5.0,
2077.0,2081.0,21.0,-5.0,
2076.0,2085.0,21.0,-5.0,
2067.0,2072.0,21.0,-5.0,
2069.0,2090.0,21.0,-5.0,
2069.0,2079.0,21.0,-5.0,
2075.0,2052.0,21.0,-5.0,
2068.0,2074.0,21.0,-5.0,
2073.0,2084.0,21.0,-5.0,
2073.0,2094.0,21.0,-5.0,
2072.0,2083.0,21.0,-5.0,
2069.0,2085.0,21.0,-5.0,
2065.0,2087.0,21.0,-5.0,
2084.0,2078.0,21.0,-5.0,
2074.0,2084.0,21.0,-5.0,
2070.0,2090.0,21.0,-5.0,
2067.0,2093.0,21.0,-5.0,
2076.0,2090.0,21.0,-5.0,
2076.0,2094.0,21.0,-5.0,
2074.0,2089.0,21.0,-5.0,
2067.0,2080.0,21.0,-5.0,
2078.0,2085.0,21.0,-5.0,
2069.0,2117.0,21.0,-5.0,
2058.0,2144.0,21.0,-5.0,
2065.0,2141.0,21.0,-5.0,
2076.0,2086.0,21.0,-5.0,
2070.0,1997.0,21.0,-5.0,
2080.0,2000.0,21.0,-5.0,
2076.0,2060.0,21.0,-5.0,
2077.0,2075.0,21.0,-5.0,
2072.0,2093.0,21.0,-5.0,
2068.0,2100.0,21.0,-5.0,
2063.0,2098.0,21.0,-5.0,
2068.0,2059.0,21.0,-5.0,
2078.0,2065.0,21.0,-5.0,
2085.0,2087.0,21.0,-5.0,
2070.0,2094.0,21.0,-5.0,
2078.0,2097.0,21.0,-5.0,
2080.0,2085.0,21.0,-5.0,
2082.0,2084.0,21.0,-5.0,
2071.0,2086.0,21.0,-5.0,
2067.0,2089.0,21.0,-5.0,
2071.0,2100.0,21.0,-5.0,
2068.0,2080.0,21.0,-5.0,
2075.0,2094.0,21.0,-5.0,
2069.0,2093.0,21.0,-5.0,
2075.0,2103.0,21.0,-5.0,
2075.0,2087.0,21.0,-5.0,
2076.0,2088.0,21.0,-5.0,
2074.0,2078.0,21.0,-5.0,
2071.0,2070.0,21.0,-5.0,
2070.0,2078.0,21.0,-5.0,
2069.0,2083.0,21.0,-5.0,
2067.0,2118.0,21.0,-5.0,
2076.0,2099.0,21.0,-5.0,
2073.0,2100.0,21.0,-5.0,
2072.0,2080.0,21.0,-5.0,
2077.0,2076.0,21.0,-5.0,
2067.0,2076.0,21.0,-5.0,
2066.0,2078.0,21.0,-5.0,
2064.0,2096.0,21.0,-5.0,
2068.0,2092.0,21.0,-5.0,
2068.0,2092.0,21.0,-5.0,
2073.0,2090.0,21.0,-5.0,
2074.0,2078.0,21.0,-5.0,
2081.0,2080.0,21.0,-5.0,
2072.0,2077.0,21.0,-5.0,
2070.0,2070.0,21.0,-5.0,
2079.0,2078.0,21.0,-5.0,
2078.0,2076.0,21.0,-5.0,
2072.0,2086.0,21.0,-5.0,
2074.0,2091.0,21.0,-5.0,
2075.0,2088.0,21.0,-5.0,
2079.0,2087.0,21.0,-5.0,
2079.0,2087.0,21.0,-5.0,
2070.0,2077.0,21.0,-5.0,
2073.0,2069.0,21.0,-5.0,
2072.0,2077.0,21.0,-5.0,
2065.0,2082.0,21.0,-5.0,
2069.0,2085.0,21.0,-5.0,
2076.0,2094.0,21.0,-5.0,
2085.0,2098.0,21.0,-5.0,
2076.0,2091.0,21.0,-5.0,
2066.0,2092.0,21.0,-5.0,
2075.0,2098.0,21.0,-5.0,
2075.0,2074.0,21.0,-5.0,
2065.0,2053.0,21.0,-5.0,
2073.0,2069.0,21.0,-5.0,
2061.0,2098.0,21.0,-5.0,
2070.0,2089.0,21.0,-5.0,
2068.0,2082.0,21.0,-5.0,
2071.0,2047.0,21.0,-5.0,
2068.0,2114.0,21.0,-5.0,
2072.0,2105.0,21.0,-5.0,
2061.0,2130.0,21.0,-5.0,
2076.0,2090.0,21.0,-5.0,
2063.0,2052.0,21.0,-5.0,
2088.0,2055.0,21.0,-5.0,
2063.0,2046.0,21.0,-5.0,
2075.0,2073.0,21.0,-5.0,
2082.0,2081.0,21.0,-5.0,
2074.0,2084.0,21.0,-5.0,
2068.0,2082.0,21.0,-5.0,
2074.0,2082.0,21.0,-5.0,
2063.0,2086.0,21.0,-5.0,
2065.0,2088.0,21.0,-5.0,
2064.0,2096.0,21.0,-5.0,
2081.0,2111.0,21.0,-5.0,
2069.0,2107.0,21.0,-5.0,
2067.0,2087.0,21.0,-5.0,
2073.0,2092.0,21.0,-5.0,
2067.0,2088.0,21.0,-5.0,
2062.0,2082.0,21.0,-5.0,
2065.0,2084.0,21.0,-5.0,
2067.0,2092.0,21.0,-5.0,
2061.0,2091.0,21.0,-5.0,
2058.0,2092.0,21.0,-5.0,
2069.0,2091.0,21.0,-5.0,
2076.0,2086.0,21.0,-5.0,
2067.0,2086.0,21.0,-5.0,
2079.0,2078.0,21.0,-5.0,
2068.0,2077.0,21.0,-5.0,
2067.0,2076.0,21.0,-5.0,
2052.0,2084.0,21.0,-5.0,
2071.0,2094.0,21.0,-5.0,
2068.0,2091.0,21.0,-5.0,
2083.0,2086.0,21.0,-5.0,
2080.0,2070.0,21.0,-5.0,
2068.0,2078.0,21.0,-5.0,
2072.0,2078.0,21.0,-5.0,
2071.0,2075.0,21.0,-5.0,
2076.0,2075.0,21.0,-5.0,
2070.0,2077.0,21.0,-5.0,
2070.0,2086.0,21.0,-5.0,
2068.0,2095.0,21.0,-5.0,
2075.0,2088.0,21.0,-5.0,
2070.0,2084.0,21.0,-5.0,
2083.0,2088.0,21.0,-5.0,
2074.0,2082.0,21.0,-5.0,
2073.0,2081.0,21.0,-5.0,
2071.0,2080.0,21.0,-5.0,
2072.0,2082.0,21.0,-5.0,
2072.0,2088.0,21.0,-5.0,
2067.0,2088.0,21.0,-5.0,
2078.0,2087.0,21.0,-5.0,
2070.0,2089.0,21.0,-5.0,
2077.0,2077.0,21.0,-5.0,
2081.0,2079.0,21.0,-5.0,
2071.0,2067.0,21.0,-5.0,
2075.0,2071.0,21.0,-5.0,
2069.0,2119.0,21.0,-5.0,
2060.0,2135.0,21.0,-5.0,
2068.0,2133.0,21.0,-5.0,
2080.0,2055.0,21.0,-5.0,
2080.0,2019.0,21.0,-5.0,
2078.0,2020.0,21.0,-5.0,
2072.0,2090.0,21.0,-5.0,
2066.0,2122.0,21.0,-5.0,
2066.0,2098.0,21.0,-5.0,
2066.0,2111.0,21.0,-5.0,
2081.0,2111.0,21.0,-5.0,
2066.0,2091.0,21.0,-5.0,
2060.0,2041.0,21.0,-5.0,
2068.0,2085.0,21.0,-5.0,
2077.0,2074.0,21.0,-5.0,
2073.0,2085.0,21.0,-5.0,
2075.0,2073.0,21.0,-5.0,
2067.0,2076.0,21.0,-5.0,
2059.0,2090.0,21.0,-5.0,
2073.0,2118.0,21.0,-5.0,
2074.0,2100.0,21.0,-5.0,
2067.0,2052.0,21.0,-5.0,
2079.0,1969.0,21.0,-5.0,
2078.0,2092.0,21.0,-5.0,
2066.0,2158.0,21.0,-5.0,
2064.0,2096.0,21.0,-5.0,
2057.0,2087.0,21.0,-5.0,
2066.0,2087.0,21.0,-5.0,
2066.0,2090.0,21.0,-5.0,
2067.0,2094.0,21.0,-5.0,
2063.0,2087.0,21.0,-5.0,
2067.0,2087.0,21.0,-5.0,
2072.0,2084.0,21.0,-5.0,
2070.0,2085.0,21.0,-5.0,
2066.0,2068.0,21.0,-5.0,
2067.0,2079.0,21.0,-5.0,
2078.0,2084.0,21.0,-5.0,
2059.0,2091.0,21.0,-5.0,
2078.0,2096.0,21.0,-5.0,
2088.0,2090.0,21.0,-5.0,
2083.0,2087.0,21.0,-5.0,
2086.0,2082.0,21.0,-5.0,
2083.0,2077.0,21.0,-5.0,
2073.0,2079.0,21.0,-5.0,
2074.0,2078.0,21.0,-5.0,
2059.0,2082.0,21.0,-5.0,
2062.0,2084.0,21.0,-5.0,
2071.0,2083.0,21.0,-5.0,
2075.0,2087.0,21.0,-5.0,
2075.0,2089.0,21.0,-5.0,
2060.0,2080.0,21.0,-5.0,
2070.0,2081.0,21.0,-5.0,
2068.0,2079.0,21.0,-5.0,
2061.0,2072.0,21.0,-5.0,
2063.0,2074.0,21.0,-5.0,
2063.0,2088.0,21.0,-5.0,
2066.0,2097.0,21.0,-5.0,
2067.0,2104.0,21.0,-5.0,
2070.0,2097.0,21.0,-5.0,
2062.0,2088.0,21.0,-5.0,
2071.0,2085.0,21.0,-5.0,
2068.0,2076.0,21.0,-5.0,
2068.0,2074.0,21.0,-5.0,
2068.0,2079.0,21.0,-5.0,
2067.0,2085.0,21.0,-5.0,
2068.0,2090.0,21.0,-5.0,
2078.0,2083.0,21.0,-5.0,
2073.0,2088.0,21.0,-5.0,
2081.0,2087.0,21.0,-5.0,
2070.0,2104.0,21.0,-5.0,
2062.0,2086.0,21.0,-5.0,
2067.0,2049.0,21.0,-5.0,
2072.0,2058.0,21.0,-5.0,
2072.0,2082.0,21.0,-5.0,
2070.0,2088.0,21.0,-5.0,
2080.0,2085.0,21.0,-5.0,
2073.0,2088.0,21.0,-5.0,
2064.0,2084.0,21.0,-5.0,
2072.0,2076.0,21.0,-5.0,
2063.0,2078.0,21.0,-5.0,
2064.0,2078.0,21.0,-5.0,
2066.0,2082.0,21.0,-5.0,
2075.0,2089.0,21.0,-5.0,
2061.0,2088.0,21.0,-5.0,
2069.0,2095.0,21.0,-5.0,
2069.0,2085.0,21.0,-5.0,
2082.0,2086.0,21.0,-5.0,
2077.0,2084.0,21.0,-5.0,
2078.0,2083.0,21.0,-5.0,
2072.0,2092.0,21.0,-5.0,
2070.0,2085.0,21.0,-5.0,
2066.0,2085.0,21.0,-5.0,
2064.0,2093.0,21.0,-5.0,
2061.0,2082.0,21.0,-5.0,
2072.0,2091.0,21.0,-5.0,
2072.0,2109.0,21.0,-5.0,
2069.0,2090.0,21.0,-5.0,
2061.0,2077.0,21.0,-5.0,
2062.0,2091.0,21.0,-5.0,
2069.0,2075.0,21.0,-5.0,
2070.0,2111.0,21.0,-5.0,
2066.0,2104.0,21.0,-5.0,
2055.0,2080.0,21.0,-5.0,
2078.0,2026.0,21.0,-5.0,
2081.0,2064.0,21.0,-5.0,
2071.0,2069.0,21.0,-5.0,
2067.0,2074.0,21.0,-5.0,
2067.0,2080.0,21.0,-5.0,
2071.0,2081.0,21.0,-5.0,
2065.0,2082.0,21.0,-5.0,
2071.0,2089.0,21.0,-5.0,
2067.0,2088.0,21.0,-5.0,
2077.0,2092.0,21.0,-5.0,
2083.0,2084.0,21.0,-5.0,
2077.0,2078.0,21.0,-5.0,
2079.0,2128.0,21.0,-5.0,
2073.0,2137.0,21.0,-5.0,
2080.0,2121.0,21.0,-5.0,
2070.0,2088.0,21.0,-5.0,
2084.0,1963.0,21.0,-5.0,
2076.0,1991.0,21.0,-5.0,
2084.0,2002.0,21.0,-5.0,
2086.0,2002.0,21.0,-5.0,
2088.0,2291.0,21.0,-5.0,
2066.0,2134.0,21.0,-5.0,
2063.0,2103.0,21.0,-5.0,
2071.0,2094.0,21.0,-5.0,
2072.0,2115.0,21.0,-5.0,
2071.0,2110.0,21.0,-5.0,
2076.0,2114.0,21.0,-5.0,
2068.0,2094.0,21.0,-5.0,
2069.0,2056.0,21.0,-5.0,
2076.0,2061.0,21.0,-5.0,
2069.0,2032.0,21.0,-5.0,
2068.0,2076.0,21.0,-5.0,
2073.0,2100.0,21.0,-5.0,
2067.0,2069.0,21.0,-5.0,
2073.0,2050.0,21.0,-5.0,
2051.0,2046.0,21.0,-5.0,
2077.0,2078.0,21.0,-5.0,
2077.0,2081.0,21.0,-5.0,
2069.0,2075.0,21.0,-5.0,
2069.0,2073.0,21.0,-5.0,
2054.0,2082.0,21.0,-5.0,
2057.0,2086.0,21.0,-5.0,
2056.0,2092.0,21.0,-5.0,
2066.0,2094.0,21.0,-5.0,
2067.0,2098.0,21.0,-5.0,
2082.0,2108.0,21.0,-5.0,
2073.0,2091.0,21.0,-5.0,
2088.0,2088.0,21.0,-5.0,
2073.0,2089.0,21.0,-5.0,
2074.0,2083.0,21.0,-5.0,
2073.0,2092.0,21.0,-5.0,
2076.0,2091.0,21.0,-5.0,
2071.0,2088.0,21.0,-5.0,
2068.0,2094.0,21.0,-5.0,
2073.0,2088.0,21.0,-5.0,
2075.0,2085.0,21.0,-5.0,
2072.0,2082.0,21.0,-5.0,
2073.0,2093.0,21.0,-5.0,
2069.0,2110.0,21.0,-5.0,
2051.0,2100.0,21.0,-5.0,
2056.0,2063.0,21.0,-5.0,
2073.0,2056.0,21.0,-5.0,
2071.0,2076.0,21.0,-5.0,
2072.0,2086.0,21.0,-5.0,
2078.0,2087.0,21.0,-5.0,
2063.0,2078.0,21.0,-5.0,
2072.0,2077.0,21.0,-5.0,
2076.0,2083.0,21.0,-5.0,
2061.0,2080.0,21.0,-5.0,
2072.0,2084.0,21.0,-5.0,
2081.0,2097.0,21.0,-5.0,
2074.0,2103.0,21.0,-5.0,
2083.0,2088.0,21.0,-5.0,
2082.0,2085.0,21.0,-5.0,
2079.0,2082.0,21.0,-5.0,
2069.0,2076.0,21.0,-5.0,
2062.0,2086.0,21.0,-5.0,
2069.0,2089.0,21.0,-5.0,
2060.0,2083.0,21.0,-5.0,
2073.0,2083.0,21.0,-5.0,
2064.0,2094.0,21.0,-5.0,
2079.0,2103.0,21.0,-5.0,
2076.0,2102.0,21.0,-5.0,
2077.0,2118.0,21.0,-5.0,
2074.0,2071.0,21.0,-5.0,
2064.0,2070.0,21.0,-5.0,
2067.0,2049.0,21.0,-5.0,
2075.0,2078.0,21.0,-5.0,
2070.0,2148.0,21.0,-5.0,
2063.0,2063.0,21.0,-5.0,
2082.0,2084.0,21.0,-5.0,
2075.0,2059.0,21.0,-5.0,
2065.0,2084.0,21.0,-5.0,
2072.0,2093.0,21.0,-5.0,
2073.0,2049.0,21.0,-5.0,
2072.0,2046.0,21.0,-5.0,
2075.0,2060.0,21.0,-5.0,
2076.0,2092.0,21.0,-5.0,
2071.0,2102.0,21.0,-5.0,
2073.0,2112.0,21.0,-5.0,
2075.0,2049.0,21.0,-5.0,
2085.0,2072.0,21.0,-5.0,
2081.0,2088.0,21.0,-5.0,
2069.0,2088.0,21.0,-5.0,
2071.0,2103.0,21.0,-5.0,
2069.0,2101.0,21.0,-5.0,
2078.0,2101.0,21.0,-5.0,
2067.0,2101.0,21.0,-5.0,
2081.0,2097.0,21.0,-5.0,
2079.0,2096.0,21.0,-5.0,
2080.0,2097.0,21.0,-5.0,
2067.0,2083.0,21.0,-5.0,
2067.0,2079.0,21.0,-5.0,
2066.0,2081.0,21.0,-5.0,
2063.0,2089.0,21.0,-5.0,
2072.0,2090.0,21.0,-5.0,
2073.0,2104.0,21.0,-5.0,
2078.0,2097.0,21.0,-5.0,
2085.0,2088.0,21.0,-5.0,
2085.0,2083.0,21.0,-5.0,
2079.0,2085.0,21.0,-5.0,
2075.0,2076.0,21.0,-5.0,
2073.0,2071.0,21.0,-5.0,
2074.0,2074.0,21.0,-5.0,
2066.0,2094.0,21.0,-5.0,
2070.0,2115.0,21.0,-5.0,
2072.0,2104.0,21.0,-5.0,
2068.0,2091.0,21.0,-5.0,
2073.0,2057.0,21.0,-5.0,
2066.0,2026.0,21.0,-5.0,
2067.0,2035.0,21.0,-5.0,
2064.0,2249.0,21.0,-5.0,
2063.0,2228.0,21.0,-5.0,
2078.0,2152.0,21.0,-5.0,
2086.0,2050.0,21.0,-5.0,
2068.0,1973.0,21.0,-5.0,
2067.0,2036.0,21.0,-5.0,
2069.0,2063.0,21.0,-5.0,
2064.0,2064.0,21.0,-5.0,
2052.0,2062.0,21.0,-5.0,
2063.0,1993.0,21.0,-5.0,
2066.0,2000.0,21.0,-5.0,
2071.0,2055.0,21.0,-5.0,
2083.0,2176.0,21.0,-5.0,
2076.0,2117.0,21.0,-5.0,
2085.0,2098.0,21.0,-5.0,
2069.0,2088.0,21.0,-5.0,
2075.0,2083.0,21.0,-5.0,
2065.0,2086.0,21.0,-5.0,
2066.0,2087.0,21.0,-5.0,
2072.0,2098.0,21.0,-5.0,
2072.0,2092.0,21.0,-5.0,
2070.0,2090.0,21.0,-5.0,
2064.0,2093.0,21.0,-5.0,
2077.0,2103.0,21.0,-5.0,
2070.0,2104.0,21.0,-5.0,
2070.0,2095.0,21.0,-5.0,
2073.0,2066.0,21.0,-5.0,
2064.0,2027.0,21.0,-5.0,
2061.0,2065.0,21.0,-5.0,
2066.0,2079.0,21.0,-5.0,
2069.0,2096.0,21.0,-5.0,
2072.0,2078.0,21.0,-5.0,
2069.0,2099.0,21.0,-5.0,
2067.0,2087.0,21.0,-5.0,
2062.0,2084.0,21.0,-5.0,
2067.0,2105.0,21.0,-5.0,
2074.0,2106.0,21.0,-5.0,
2070.0,2091.0,21.0,-5.0,
2066.0,2045.0,21.0,-5.0,
2076.0,2028.0,21.0,-5.0,
2075.0,2050.0,21.0,-5.0,
2072.0,2070.0,21.0,-5.0,
2076.0,2251.0,21.0,-5.0,
2072.0,2065.0,21.0,-5.0,
2068.0,2103.0,21.0,-5.0,
2072.0,2113.0,21.0,-5.0,
2079.0,2127.0,21.0,-5.0,
2083.0,2062.0,21.0,-5.0,
2071.0,1981.0,21.0,-5.0,
2067.0,1950.0,21.0,-5.0,
2080.0,2073.0,21.0,-5.0,
2079.0,2103.0,21.0,-5.0,
2072.0,2076.0,21.0,-5.0,
2074.0,2046.0,21.0,-5.0,
2076.0,2136.0,21.0,-5.0,
2065.0,2105.0,21.0,-5.0,
2071.0,2100.0,21.0,-5.0,
2075.0,2105.0,21.0,-5.0,
2079.0,2099.0,21.0,-5.0,
2072.0,2088.0,21.0,-5.0,
2078.0,2088.0,21.0,-5.0,
2073.0,2079.0,21.0,-5.0,
2071.0,2074.0,21.0,-5.0,
2070.0,2086.0,21.0,-5.0,
2072.0,2088.0,21.0,-5.0,
2078.0,2093.0,21.0,-5.0,
2067.0,2082.0,21.0,-5.0,
2069.0,2092.0,21.0,-5.0,
2069.0,2082.0,21.0,-5.0,
2076.0,2085.0,21.0,-5.0,
2078.0,2068.0,21.0,-5.0,
2071.0,2075.0,21.0,-5.0,
2063.0,2100.0,21.0,-5.0,
2062.0,2093.0,21.0,-5.0,
2062.0,2106.0,21.0,-5.0,
2067.0,2127.0,21.0,-5.0,
2071.0,2124.0,21.0,-5.0,
2086.0,2071.0,21.0,-5.0,
2086.0,2019.0,21.0,-5.0,
2070.0,2060.0,21.0,-5.0,
2065.0,2071.0,21.0,-5.0,
2067.0,2097.0,21.0,-5.0,
2066.0,2099.0,21.0,-5.0,
2077.0,2092.0,21.0,-5.0,
2070.0,2038.0,21.0,-5.0,
2078.0,2066.0,21.0,-5.0,
2068.0,2079.0,21.0,-5.0,
2074.0,2073.0,21.0,-5.0,
2065.0,2082.0,21.0,-5.0,
2073.0,2083.0,21.0,-5.0,
2068.0,2088.0,21.0,-5.0,
2075.0,2092.0,21.0,-5.0,
2074.0,2097.0,21.0,-5.0,
2062.0,2095.0,21.0,-5.0,
2066.0,2101.0,21.0,-5.0,
2068.0,2070.0,21.0,-5.0,
2071.0,2061.0,21.0,-5.0,
2081.0,2032.0,21.0,-5.0,
2065.0,2159.0,21.0,-5.0,
2074.0,2130.0,21.0,-5.0,
2069.0,2067.0,21.0,-5.0,
2071.0,2039.0,21.0,-5.0,
2076.0,2205.0,21.0,-5.0,
2068.0,2161.0,21.0,-5.0,
2077.0,2120.0,21.0,-5.0,
2064.0,2094.0,21.0,-5.0,
2075.0,2033.0,21.0,-5.0,
2073.0,2072.0,21.0,-5.0,
2076.0,2022.0,21.0,-5.0,
2059.0,2042.0,21.0,-5.0,
2076.0,2061.0,21.0,-5.0,
2064.0,2081.0,21.0,-5.0,
2069.0,2077.0,21.0,-5.0,
2070.0,2083.0,21.0,-5.0,
2067.0,2079.0,21.0,-5.0,
2075.0,2080.0,21.0,-5.0,
2071.0,2082.0,21.0,-5.0,
2074.0,2084.0,21.0,-5.0,
2065.0,2085.0,21.0,-5.0,
2079.0,2075.0,21.0,-5.0,
2071.0,2090.0,21.0,-5.0,
2081.0,2087.0,21.0,-5.0,
2075.0,2093.0,21.0,-5.0,
2086.0,2097.0,21.0,-5.0,
2086.0,2094.0,21.0,-5.0,
2072.0,2077.0,21.0,-5.0,
2068.0,2057.0,21.0,-5.0,
2062.0,2087.0,21.0,-5.0,
2068.0,2098.0,21.0,-5.0,
2068.0,2113.0,21.0,-5.0,
2082.0,2116.0,21.0,-5.0,
2073.0,2080.0,21.0,-5.0,
2070.0,2047.0,0,
2067.0,2005.0,21.0,-5.0,
2072.0,2168.0,21.0,-5.0,
2064.0,2093.0,21.0,-5.0,
2066.0,2089.0,21.0,-5.0,
2078.0,2095.0,21.0,-5.0,
2073.0,2091.0,21.0,-5.0,
2080.0,2086.0,21.0,-5.0,
2069.0,2091.0,21.0,-5.0,
2076.0,2085.0,21.0,-5.0,
2075.0,2082.0,21.0,-5.0,
2070.0,2079.0,21.0,-5.0,
2071.0,2070.0,21.0,-5.0,
2063.0,2072.0,21.0,-5.0,
2068.0,2086.0,21.0,-5.0,
2068.0,2094.0,21.0,-5.0,
2076.0,2104.0,21.0,-5.0,
2077.0,2105.0,21.0,-5.0,
2085.0,2095.0,21.0,-5.0,
2074.0,2059.0,21.0,-5.0,
2069.0,2042.0,21.0,-5.0,
2067.0,2068.0,21.0,-5.0,
2076.0,2076.0,21.0,-5.0,
2067.0,2078.0,21.0,-5.0,
2077.0,2092.0,21.0,-5.0,
2075.0,2088.0,21.0,-5.0,
2080.0,2087.0,21.0,-5.0,
2078.0,2097.0,21.0,-5.0,
2076.0,2102.0,21.0,-5.0,
2072.0,2101.0,21.0,-5.0,
2067.0,2091.0,21.0,-5.0,
2080.0,2044.0,21.0,-5.0,
2071.0,2075.0,21.0,-5.0,
2076.0,2085.0,21.0,-5.0,
2070.0,2094.0,21.0,-5.0,
2074.0,2086.0,21.0,-5.0,
2076.0,2087.0,21.0,-5.0,
2072.0,2085.0,21.0,-5.0,
2067.0,2094.0,21.0,-5.0,
2073.0,2082.0,21.0,-5.0,
2069.0,2085.0,21.0,-5.0,
2069.0,2089.0,21.0,-5.0,
2078.0,2091.0,21.0,-5.0,
2068.0,2094.0,21.0,-5.0,
2076.0,2088.0,21.0,-5.0,
2070.0,2083.0,21.0,-5.0,
2069.0,2083.0,21.0,-5.0,
2067.0,2082.0,21.0,-5.0,
2066.0,2085.0,21.0,-5.0,
2066.0,2086.0,21.0,-5.0,
2065.0,2091.0,21.0,-5.0,
2077.0,2094.0,21.0,-5.0,
2080.0,2088.0,21.0,-5.0,
2076.0,2087.0,21.0,-5.0,
2078.0,2082.0,21.0,-5.0,
2066.0,2078.0,21.0,-5.0,
2076.0,2084.0,21.0,-5.0,
2075.0,2074.0,21.0,-5.0,
2061.0,2075.0,21.0,-5.0,
2068.0,2084.0,21.0,-5.0,
2065.0,2088.0,21.0,-5.0,
2072.0,2087.0,21.0,-5.0,
2078.0,2087.0,21.0,-5.0,
2076.0,2084.0,21.0,-5.0,
2085.0,2083.0,21.0,-5.0,
2075.0,2067.0,21.0,-5.0,
2067.0,2078.0,21.0,-5.0,
2069.0,2090.0,0,
2076.0,2092.0,21.0,-5.0,
2074.0,2097.0,21.0,-5.0,
2073.0,2098.0,21.0,-5.0,
2079.0,2110.0,21.0,-5.0,
2074.0,2117.0,21.0,-5.0,
2088.0,2096.0,21.0,-5.0,
2085.0,2057.0,21.0,-5.0,
2073.0,2020.0,21.0,-5.0,
2067.0,2061.0,21.0,-5.0,
2080.0,2070.0,21.0,-5.0,
2066.0,2078.0,21.0,-5.0,
2070.0,2084.0,21.0,-5.0,
2076.0,2091.0,21.0,-5.0,
2073.0,2087.0,21.0,-5.0,
2067.0,2076.0,21.0,-5.0,
2072.0,2079.0,21.0,-5.0,
2066.0,2075.0,21.0,-5.0,
2060.0,2083.0,21.0,-5.0,
2069.0,2085.0,21.0,-5.0,
2057.0,2090.0,21.0,-5.0,
2071.0,2088.0,21.0,-5.0,
2074.0,2094.0,21.0,-5.0,
2080.0,2096.0,21.0,-5.0,
2069.0,2095.0,21.0,-5.0,
2065.0,2101.0,21.0,-5.0,
2061.0,2119.0,21.0,-5.0,
2059.0,2094.0,21.0,-5.0,
2069.0,2062.0,21.0,-5.0,
2072.0,2021.0,21.0,-5.0,
2077.0,1985.0,21.0,-5.0,
2072.0,2002.0,21.0,-5.0,
2075.0,2246.0,21.0,-5.0,
2079.0,2132.0,21.0,-5.0,
2076.0,2079.0,21.0,-5.0,
2078.0,2078.0,21.0,-5.0,
2078.0,2080.0,21.0,-5.0,
2067.0,2089.0,21.0,-5.0,
2074.0,2092.0,21.0,-5.0,
2078.0,2091.0,21.0,-5.0,
2082.0,2099.0,21.0,-5.0,
2074.0,2091.0,21.0,-5.0,
2067.0,2083.0,21.0,-5.0,
2094.0,2085.0,21.0,-5.0,
2066.0,2069.0,21.0,-5.0,
2063.0,2092.0,21.0,-5.0,
2063.0,2097.0,21.0,-5.0,
2064.0,2090.0,21.0,-5.0,
2076.0,2052.0,21.0,-5.0,
2080.0,2029.0,21.0,-5.0,
2072.0,2038.0,21.0,-5.0,
2072.0,2050.0,21.0,-5.0,
2074.0,2182.0,21.0,-5.0,
2065.0,2117.0,21.0,-5.0,
2063.0,2115.0,21.0,-5.0,
2068.0,2124.0,21.0,-5.0,
2068.0,2127.0,21.0,-5.0,
2077.0,2147.0,21.0,-5.0,
2074.0,2065.0,21.0,-5.0,
2075.0,2004.0,21.0,-5.0,
2079.0,2000.0,21.0,-5.0,
2080.0,2023.0,21.0,-5.0,
2068.0,2035.0,21.0,-5.0,
2066.0,2037.0,21.0,-5.0,
2071.0,2118.0,21.0,-5.0,
2075.0,2146.0,21.0,-5.0,
2072.0,2110.0,21.0,-5.0,
2076.0,2091.0,21.0,-5.0,
2081.0,2079.0,21.0,-5.0,
2081.0,2186.0,21.0,-5.0,
2066.0,2050.0,21.0,-5.0,
2071.0,2003.0,21.0,-5.0,
2061.0,2047.0,21.0,-5.0,
2073.0,2117.0,21.0,-5.0,
2069.0,2083.0,21.0,-5.0,
2086.0,2115.0,21.0,-5.0,
2075.0,2095.0,21.0,-5.0,
2067.0,2056.0,21.0,-5.0,
2063.0,2161.0,21.0,-5.0,
2066.0,2059.0,21.0,-5.0,
2061.0,2123.0,21.0,-5.0,
2054.0,2143.0,21.0,-5.0,
2056.0,2126.0,21.0,-5.0,
2069.0,2034.0,21.0,-5.0,
2069.0,2069.0,21.0,-5.0,
2073.0,2045.0,21.0,-5.0,
2076.0,2068.0,21.0,-5.0,
2069.0,2081.0,21.0,-5.0,
2087.0,2088.0,21.0,-5.0,
2067.0,2066.0,21.0,-5.0,
2069.0,2048.0,21.0,-5.0,
2067.0,2048.0,21.0,-5.0,
2062.0,2087.0,21.0,-5.0,
2082.0,2066.0,21.0,-5.0,
2086.0,2049.0,21.0,-5.0,
2067.0,2099.0,21.0,-5.0,
2073.0,2139.0,21.0,-5.0,
2093.0,2147.0,21.0,-5.0,
2076.0,2035.0,21.0,-5.0,
2086.0,2071.0,21.0,-5.0,
2068.0,2055.0,21.0,-5.0,
2062.0,2058.0,21.0,-5.0,
2073.0,1943.0,21.0,-5.0,
2070.0,2157.0,22.0,-4.0,
2076.0,2108.0,22.0,-4.0,
2061.0,2081.0,22.0,-4.0,
2083.0,2115.0,22.0,-5.0,
2084.0,2105.0,22.0,-5.0,
2071.0,2185.0,22.0,-5.0,
2051.0,2113.0,22.0,-5.0,
2073.0,2036.0,22.0,-5.0,
2074.0,2060.0,22.0,-5.0,
2078.0,2073.0,22.0,-5.0,
2077.0,2201.0,22.0,-5.0,
2075.0,2114.0,23.0,-5.0,
2074.0,2075.0,23.0,-5.0,
2064.0,2070.0,23.0,-5.0,
2058.0,2086.0,23.0,-5.0,
2074.0,2083.0,23.0,-5.0,
2086.0,2110.0,23.0,-5.0,
2087.0,2090.0,23.0,-5.0,
2089.0,2078.0,23.0,-5.0,
2067.0,2070.0,23.0,-6.0,
2031.0,2078.0,23.0,-6.0,
2074.0,2033.0,23.0,-6.0,
2082.0,1998.0,23.0,-6.0,
2105.0,1964.0,23.0,-6.0,
2121.0,2225.0,24.0,-6.0,
2086.0,2177.0,24.0,-6.0,
2052.0,2082.0,24.0,-6.0,
2058.0,2077.0,24.0,-6.0,
2033.0,2078.0,24.0,-6.0,
2041.0,2085.0,23.0,-6.0,
2048.0,2056.0,23.0,-6.0,
2043.0,2003.0,23.0,-6.0,
2048.0,2146.0,23.0,-6.0,
2025.0,2075.0,23.0,-6.0,
2047.0,2082.0,23.0,-6.0,
2063.0,2108.0,22.0,-6.0,
2107.0,2107.0,22.0,-6.0,
2094.0,2070.0,22.0,-6.0,
2055.0,2000.0,22.0,-5.0,
2048.0,1963.0,22.0,-5.0,
2047.0,2059.0,22.0,-5.0,
2050.0,2316.0,21.0,-4.0,
2051.0,2199.0,21.0,-4.0,
2080.0,2090.0,21.0,-4.0,
2100.0,2134.0,21.0,-4.0,
2086.0,2080.0,21.0,-3.0,
2086.0,2004.0,21.0,-3.0,
2082.0,2022.0,21.0,-3.0,
2068.0,2052.0,21.0,-3.0,
2066.0,2200.0,20.0,-2.0,
2092.0,2118.0,20.0,-2.0,
2087.0,2090.0,20.0,-2.0,
2068.0,2054.0,20.0,-1.0,
2068.0,2042.0,20.0,-1.0,
2100.0,2102.0,20.0,-1.0,
2097.0,2082.0,20.0,-1.0,
2105.0,2054.0,20.0,-1.0,
2116.0,2020.0,20.0,0.0,
2075.0,2036.0,19.0,0.0,
2036.0,2057.0,19.0,0.0,
2029.0,2162.0,19.0,0.0,
2081.0,2151.0,19.0,0.0,
2067.0,2035.0,19.0,0.0,
2076.0,2047.0,19.0,0.0,
2081.0,2016.0,19.0,0.0,
2051.0,2072.0,19.0,0.0,
2038.0,2162.0,19.0,0.0,
2054.0,2055.0,18.0,0.0,
2067.0,2034.0,19.0,0.0,
2093.0,2045.0,18.0,0.0,
2134.0,2163.0,18.0,0.0,
2155.0,2119.0,18.0,0.0,
2154.0,2125.0,19.0,0.0,
2062.0,2098.0,19.0,0.0,
1980.0,2131.0,19.0,0.0,
2024.0,2119.0,19.0,0.0,
2063.0,2034.0,19.0,0.0,
2082.0,2028.0,19.0,0.0,
2139.0,2197.0,18.0,0.0,
2208.0,2130.0,18.0,0.0,
2212.0,2052.0,18.0,0.0,
2186.0,2072.0,18.0,-1.0,
2042.0,2062.0,18.0,-1.0,
1987.0,2055.0,18.0,-1.0,
1884.0,2072.0,18.0,-1.0,
1747.0,2119.0,18.0,-1.0,
1873.0,2116.0,18.0,-1.0,
2017.0,2060.0,18.0,-1.0,
2067.0,2030.0,18.0,-1.0,
2098.0,2080.0,18.0,-1.0,
2133.0,2085.0,18.0,-2.0,
2022.0,1873.0,17.0,-2.0,
1991.0,1804.0,17.0,-2.0,
2027.0,2024.0,17.0,-2.0,
2060.0,2275.0,17.0,0.0,
2112.0,2110.0,17.0,0.0,
2141.0,2131.0,17.0,0.0,
2132.0,2278.0,16.0,0.0,
2089.0,2150.0,0,
2066.0,2083.0,16.0,0.0,
2107.0,2027.0,16.0,0.0,
2106.0,2149.0,16.0,0.0,
2085.0,2273.0,16.0,1.0,
2057.0,2265.0,16.0,1.0,
2046.0,2076.0,15.0,1.0,
2129.0,1964.0,15.0,0.0,
2158.0,1966.0,15.0,0.0,
2157.0,2088.0,15.0,1.0,
2156.0,1973.0,15.0,2.0,
2121.0,1996.0,15.0,4.0,
2090.0,1987.0,15.0,5.0,
2048.0,2093.0,15.0,5.0,
2081.0,2063.0,14.0,5.0,
2073.0,2144.0,14.0,4.0,
2111.0,2138.0,13.0,5.0,
2105.0,2133.0,13.0,6.0,
2121.0,1987.0,13.0,7.0,
2088.0,2010.0,13.0,7.0,
2040.0,2057.0,13.0,7.0,
2082.0,2096.0,13.0,6.0,
2065.0,2129.0,13.0,5.0,
2013.0,2104.0,12.0,5.0,
2069.0,2019.0,12.0,5.0,
2062.0,2052.0,12.0,5.0,
2053.0,1960.0,13.0,6.0,
2082.0,2145.0,13.0,6.0,
1964.0,2251.0,13.0,5.0,
2026.0,2166.0,14.0,5.0,
2044.0,1993.0,14.0,5.0,
2023.0,2134.0,14.0,5.0,
2078.0,2149.0,14.0,5.0,
2070.0,2095.0,15.0,5.0,
2119.0,2003.0,15.0,5.0,
2139.0,2166.0,15.0,5.0,
2139.0,2156.0,15.0,5.0,
2118.0,2147.0,16.0,5.0,
1966.0,2105.0,16.0,5.0,
1991.0,2060.0,16.0,5.0,
2024.0,2065.0,16.0,5.0,
2053.0,2068.0,16.0,5.0,
2007.0,2038.0,16.0,5.0,
2024.0,1989.0,16.0,5.0,
2061.0,2136.0,16.0,5.0,
2118.0,2065.0,15.0,4.0,
2171.0,2136.0,15.0,4.0,
2164.0,2073.0,15.0,4.0,
2106.0,2038.0,14.0,4.0,
2076.0,2060.0,14.0,4.0,
2060.0,2061.0,14.0,4.0,
2061.0,2141.0,13.0,4.0,
2081.0,2007.0,12.0,4.0,
1987.0,1910.0,12.0,4.0,
1994.0,1951.0,12.0,5.0,
2064.0,2216.0,11.0,5.0,
1980.0,2021.0,11.0,6.0,
2030.0,2000.0,11.0,5.0,
2094.0,2143.0,11.0,5.0,
2083.0,2276.0,11.0,5.0,
2131.0,2208.0,11.0,5.0,
2067.0,2233.0,11.0,6.0,
2129.0,2215.0,11.0,6.0,
2165.0,2064.0,11.0,7.0,
2182.0,1886.0,11.0,7.0,
2064.0,2047.0,11.0,7.0,
1998.0,2109.0,12.0,7.0,
2047.0,2083.0,12.0,8.0,
2055.0,2099.0,12.0,8.0,
2042.0,2013.0,12.0,9.0,
2018.0,2018.0,12.0,9.0,
2166.0,2043.0,13.0,9.0,
2174.0,2042.0,13.0,10.0,
2154.0,2144.0,14.0,10.0,
2056.0,2101.0,14.0,10.0,
2066.0,2101.0,14.0,10.0,
2211.0,2044.0,14.0,10.0,
2103.0,2202.0,14.0,10.0,
1923.0,2059.0,14.0,11.0,
1866.0,2037.0,15.0,11.0,
2023.0,2069.0,15.0,11.0,
2078.0,2100.0,15.0,11.0,
2073.0,2116.0,15.0,11.0,
2046.0,2115.0,14.0,10.0,
2172.0,2144.0,14.0,11.0,
1981.0,2088.0,14.0,11.0,
2119.0,2047.0,14.0,12.0,
2191.0,2009.0,14.0,12.0,
2260.0,2116.0,14.0,12.0,
2065.0,2061.0,14.0,12.0,
2171.0,1974.0,14.0,12.0,
2176.0,1900.0,14.0,12.0,
2059.0,2134.0,13.0,12.0,
1939.0,2060.0,13.0,12.0,
1800.0,2197.0,13.0,12.0,
2232.0,2174.0,13.0,12.0,
2201.0,2109.0,13.0,12.0,
2001.0,2091.0,13.0,12.0,
1833.0,2149.0,12.0,11.0,
1758.0,2117.0,12.0,11.0,
1912.0,2125.0,12.0,11.0,
2103.0,2062.0,12.0,11.0,
2058.0,2035.0,12.0,11.0,
2103.0,2000.0,12.0,11.0,
2132.0,2066.0,11.0,11.0,
2097.0,2011.0,11.0,12.0,
1977.0,2077.0,10.0,12.0,
2101.0,2064.0,10.0,12.0,
2063.0,2218.0,10.0,12.0,
2030.0,1997.0,10.0,12.0,
2067.0,2072.0,9.0,12.0,
2084.0,2165.0,9.0,12.0,
2082.0,2099.0,9.0,12.0,
2087.0,2093.0,9.0,12.0,
2102.0,2112.0,9.0,13.0,
2157.0,2095.0,9.0,13.0,
2150.0,1950.0,9.0,13.0,
2105.0,2011.0,9.0,13.0,
2070.0,1989.0,9.0,14.0,
2081.0,2231.0,9.0,14.0,
2129.0,2218.0,9.0,14.0,
2100.0,2120.0,10.0,15.0,
2148.0,2109.0,10.0,15.0,
2182.0,1941.0,10.0,15.0,
2093.0,1941.0,10.0,15.0,
2115.0,2187.0,10.0,15.0,
2009.0,2238.0,10.0,16.0,
2074.0,2204.0,10.0,16.0,
2074.0,2150.0,10.0,16.0,
2195.0,2065.0,10.0,16.0,
2122.0,1988.0,10.0,17.0,
2184.0,2107.0,10.0,17.0,
2002.0,2111.0,10.0,17.0,
2215.0,1988.0,10.0,17.0,
1961.0,1903.0,10.0,17.0,
1897.0,1919.0,10.0,17.0,
1837.0,1998.0,10.0,17.0,
2081.0,2121.0,10.0,17.0,
2134.0,2246.0,10.0,17.0,
2159.0,2190.0,10.0,17.0,
2043.0,2110.0,10.0,17.0,
2070.0,2007.0,10.0,17.0,
1978.0,1940.0,10.0,17.0,
1927.0,2097.0,9.0,16.0,
1977.0,2112.0,9.0,16.0,
2059.0,2307.0,9.0,16.0,
2053.0,2142.0,9.0,16.0,
2010.0,2055.0,9.0,17.0,
2038.0,2064.0,9.0,17.0,
2207.0,2001.0,8.0,16.0,
2122.0,2122.0,8.0,16.0,
1986.0,2036.0,8.0,16.0,
1915.0,1976.0,8.0,16.0,
2113.0,2166.0,7.0,16.0,
2092.0,2173.0,7.0,16.0,
2138.0,2102.0,7.0,16.0,
2151.0,2065.0,7.0,16.0,
2136.0,2035.0,7.0,16.0,
1969.0,2145.0,6.0,17.0,
2009.0,2099.0,6.0,17.0,
2194.0,2026.0,6.0,17.0,
2126.0,2057.0,0,
2041.0,2161.0,6.0,17.0,
2094.0,2149.0,6.0,17.0,
2066.0,2068.0,6.0,18.0,
2113.0,1971.0,6.0,18.0,
2108.0,1953.0,6.0,19.0,
2124.0,2097.0,6.0,19.0,
2084.0,2032.0,6.0,19.0,
2177.0,2096.0,6.0,19.0,
2108.0,2069.0,6.0,19.0,
2203.0,2155.0,6.0,19.0,
2128.0,2217.0,6.0,19.0,
2074.0,2148.0,7.0,19.0,
1858.0,2081.0,7.0,19.0,
1998.0,2028.0,7.0,19.0,
2147.0,1967.0,7.0,20.0,
2045.0,1889.0,7.0,20.0,
2013.0,1844.0,7.0,20.0,
2070.0,2202.0,7.0,20.0,
2240.0,2250.0,8.0,20.0,
2086.0,2323.0,8.0,20.0,
1991.0,2147.0,7.0,20.0,
1833.0,2016.0,7.0,20.0,
1995.0,2217.0,7.0,20.0,
2084.0,1996.0,7.0,20.0,
2082.0,2055.0,7.0,20.0,
2099.0,2057.0,7.0,20.0,
2054.0,2064.0,7.0,20.0,
2129.0,2116.0,7.0,20.0,
2041.0,2044.0,7.0,20.0,
2001.0,1896.0,7.0,20.0,
1935.0,2052.0,7.0,21.0,
2101.0,2216.0,7.0,21.0,
2182.0,2138.0,8.0,22.0,
2377.0,2106.0,8.0,22.0,
1904.0,2084.0,8.0,22.0,
2151.0,2134.0,8.0,21.0,
2228.0,2109.0,7.0,21.0,
2001.0,2097.0,7.0,21.0,
1783.0,2164.0,7.0,21.0,
1842.0,2051.0,7.0,21.0,
2023.0,2016.0,7.0,21.0,
2195.0,2148.0,7.0,21.0,
2258.0,2210.0,7.0,20.0,
2090.0,2057.0,7.0,20.0,
1960.0,1786.0,6.0,21.0,
1886.0,1937.0,6.0,21.0,
2084.0,2026.0,6.0,21.0,
2142.0,2070.0,6.0,21.0,
2166.0,2117.0,6.0,21.0,
2019.0,2082.0,5.0,22.0,
2081.0,2080.0,5.0,22.0,
2103.0,2152.0,5.0,23.0,
2202.0,1995.0,5.0,23.0,
2202.0,2204.0,5.0,22.0,
2090.0,2330.0,5.0,22.0,
2032.0,2165.0,4.0,22.0,
2086.0,2055.0,4.0,22.0,
1992.0,1935.0,4.0,22.0,
2143.0,2029.0,4.0,22.0,
2025.0,2109.0,5.0,22.0,
1918.0,2082.0,5.0,22.0,
2005.0,1951.0,5.0,21.0,
2023.0,2001.0,4.0,22.0,
2037.0,2167.0,5.0,23.0,
2065.0,2152.0,5.0,23.0,
2193.0,2094.0,5.0,24.0,
2275.0,2070.0,5.0,24.0,
2202.0,2163.0,6.0,24.0,
1976.0,2046.0,6.0,24.0,
2045.0,2103.0,6.0,24.0,
2253.0,2158.0,6.0,24.0,
2136.0,2218.0,6.0,25.0,
2002.0,2092.0,6.0,25.0,
1959.0,2066.0,6.0,25.0,
1886.0,1977.0,6.0,25.0,
1953.0,1879.0,6.0,25.0,
2053.0,1946.0,6.0,25.0,
2132.0,1919.0,6.0,25.0,
2056.0,2133.0,6.0,25.0,
2098.0,2454.0,6.0,25.0,
1982.0,2113.0,6.0,25.0,
2150.0,2029.0,6.0,25.0,
2246.0,2053.0,6.0,25.0,
2234.0,2082.0,6.0,25.0,
2086.0,2267.0,6.0,25.0,
2053.0,2115.0,6.0,26.0,
2085.0,1953.0,6.0,26.0,
1946.0,2167.0,6.0,26.0,
1952.0,2107.0,6.0,26.0,
1977.0,2051.0,6.0,26.0,
2059.0,2119.0,5.0,26.0,
2086.0,2200.0,5.0,26.0,
2116.0,2082.0,5.0,26.0,
2035.0,2093.0,5.0,27.0,
2048.0,2014.0,6.0,28.0,
2108.0,1942.0,5.0,27.0,
2198.0,2179.0,6.0,26.0,
2195.0,2144.0,6.0,27.0,
1999.0,1945.0,5.0,26.0,
2023.0,2029.0,5.0,27.0,
2031.0,2154.0,0,
1901.0,1996.0,5.0,27.0,
2106.0,2097.0,5.0,27.0,
2283.0,1942.0,5.0,27.0,
2184.0,2063.0,5.0,26.0,
1912.0,2330.0,5.0,26.0,
2048.0,2212.0,4.0,27.0,
2075.0,2115.0,4.0,27.0,
2110.0,2115.0,4.0,27.0,
1895.0,1948.0,5.0,28.0,
1996.0,1898.0,5.0,28.0,
2120.0,1938.0,5.0,28.0,
2065.0,2092.0,5.0,28.0,
2143.0,2345.0,5.0,28.0,
2206.0,2159.0,5.0,28.0,
1933.0,2022.0,5.0,28.0,
2106.0,2039.0,4.0,28.0,
2344.0,2013.0,4.0,29.0,
2225.0,1994.0,4.0,29.0,
1841.0,2046.0,4.0,29.0,
1971.0,2153.0,3.0,29.0,
1920.0,2193.0,3.0,29.0,
1959.0,2069.0,3.0,29.0,
2061.0,2042.0,3.0,29.0,
2202.0,2155.0,3.0,29.0,
2178.0,2052.0,3.0,29.0,
2084.0,2076.0,3.0,29.0,
2160.0,1988.0,3.0,29.0,
2225.0,2114.0,4.0,29.0,
1974.0,2254.0,4.0,29.0,
1819.0,2200.0,4.0,30.0,
2011.0,1895.0,4.0,30.0,
2056.0,1901.0,4.0,30.0,
2148.0,2049.0,4.0,30.0,
2172.0,2038.0,4.0,30.0,
2071.0,2005.0,4.0,30.0,
2232.0,2160.0,4.0,30.0,
2325.0,2264.0,4.0,30.0,
2442.0,2160.0,4.0,31.0,
2196.0,2222.0,4.0,30.0,
1775.0,2089.0,4.0,30.0,
1486.0,1946.0,4.0,30.0,
1860.0,2111.0,5.0,31.0,
1984.0,1993.0,5.0,31.0,
1985.0,1942.0,5.0,31.0,
2061.0,2022.0,5.0,31.0,
2186.0,2462.0,5.0,31.0,
2116.0,2270.0,5.0,31.0,
2059.0,2111.0,5.0,31.0,
1942.0,2008.0,5.0,31.0,
2051.0,1987.0,5.0,31.0,
2157.0,2019.0,4.0,31.0,
2328.0,2007.0,4.0,31.0,
2300.0,2082.0,4.0,31.0,
2197.0,2079.0,3.0,31.0,
1893.0,2043.0,3.0,32.0,
1952.0,2301.0,3.0,32.0,
1951.0,2119.0,3.0,32.0,
2037.0,2025.0,3.0,32.0,
2111.0,1979.0,3.0,32.0,
2090.0,1915.0,3.0,32.0,
2118.0,2219.0,3.0,32.0,
2268.0,2014.0,3.0,32.0,
2171.0,2248.0,3.0,32.0,
2062.0,2037.0,3.0,32.0,
1943.0,2032.0,3.0,32.0,
2116.0,2066.0,3.0,32.0,
2215.0,2107.0,2.0,32.0,
2329.0,2201.0,2.0,32.0,
1912.0,2058.0,2.0,32.0,
1841.0,1987.0,2.0,32.0,
2148.0,2079.0,2.0,32.0,
2081.0,2246.0,2.0,32.0,
1750.0,2163.0,2.0,32.0,
1974.0,1991.0,2.0,32.0,
2145.0,2035.0,2.0,32.0,
2013.0,1953.0,2.0,32.0,
2061.0,1942.0,2.0,32.0,
2136.0,2043.0,2.0,32.0,
2265.0,2206.0,2.0,32.0,
2152.0,2171.0,2.0,32.0,
2011.0,2352.0,2.0,32.0,
2009.0,2086.0,2.0,32.0,
2215.0,2000.0,2.0,33.0,
1963.0,1951.0,2.0,33.0,
1868.0,1897.0,2.0,33.0,
2200.0,1868.0,2.0,33.0,
2264.0,2253.0,2.0,33.0,
2066.0,2340.0,2.0,33.0,
1873.0,2145.0,1.0,33.0,
2186.0,2105.0,1.0,33.0,
2044.0,1940.0,1.0,33.0,
1912.0,1826.0,1.0,33.0,
2022.0,1887.0,1.0,33.0,
2237.0,1906.0,0.0,33.0,
2057.0,2157.0,0.0,33.0,
2072.0,2247.0,0.0,33.0,
2178.0,2315.0,0.0,33.0,
2161.0,2402.0,0.0,33.0,
1957.0,2223.0,0.0,33.0,
2009.0,2093.0,0.0,33.0,
2188.0,2161.0,0.0,33.0,
1911.0,2258.0,0.0,33.0,
2193.0,2215.0,0.0,33.0,
1979.0,1981.0,0.0,33.0,
2275.0,1822.0,0.0,33.0,
2283.0,2023.0,0.0,33.0,
1987.0,2080.0,0.0,34.0,
1971.0,1944.0,0.0,34.0,
2114.0,1857.0,0.0,34.0,
2178.0,2105.0,0.0,34.0,
2179.0,2047.0,0.0,34.0,
1897.0,2096.0,0.0,34.0,
2204.0,2174.0,0.0,34.0,
2162.0,2313.0,1.0,34.0,
1837.0,2167.0,1.0,34.0,
1875.0,2080.0,1.0,34.0,
1879.0,2066.0,1.0,34.0,
2039.0,1996.0,1.0,34.0,
2144.0,1924.0,1.0,34.0,
2179.0,1924.0,1.0,34.0,
2039.0,2137.0,1.0,34.0,
1950.0,2154.0,1.0,34.0,
2148.0,2276.0,1.0,34.0,
2075.0,2157.0,1.0,34.0,
2181.0,1934.0,1.0,34.0,
2204.0,1922.0,1.0,34.0,
2004.0,2119.0,1.0,34.0,
1903.0,2124.0,1.0,34.0,
2106.0,2221.0,1.0,34.0,
1973.0,2136.0,1.0,34.0,
2050.0,2110.0,1.0,35.0,
2031.0,2014.0,1.0,35.0,
2101.0,1926.0,1.0,35.0,
1960.0,1937.0,1.0,35.0,
2144.0,2228.0,1.0,35.0,
2118.0,2076.0,1.0,35.0,
2169.0,1971.0,0.0,35.0,
2316.0,1978.0,0.0,35.0,
2013.0,2175.0,0.0,35.0,
1840.0,2357.0,0.0,35.0,
2356.0,2097.0,0.0,36.0,
2077.0,2092.0,0.0,36.0,
2195.0,2237.0,0.0,36.0,
2130.0,2210.0,0.0,36.0,
2095.0,2036.0,0.0,36.0,
1728.0,1925.0,0.0,36.0,
1962.0,2019.0,0.0,36.0,
2192.0,1982.0,0.0,36.0,
1950.0,1976.0,0.0,36.0,
2018.0,2000.0,1.0,37.0,
2102.0,2250.0,1.0,37.0,
1941.0,1952.0,1.0,37.0,
2044.0,2118.0,0.0,37.0,
2184.0,2127.0,0.0,37.0,
2311.0,2135.0,0.0,37.0,
2190.0,1952.0,0.0,37.0,
2210.0,2233.0,0.0,37.0,
2023.0,2223.0,0.0,37.0,
2030.0,2314.0,0.0,37.0,
1875.0,2134.0,0.0,37.0,
2030.0,2005.0,0.0,37.0,
2239.0,2075.0,0.0,37.0,
2019.0,2101.0,0.0,37.0,
1834.0,2069.0,0.0,37.0,
2041.0,2193.0,1.0,37.0,
2104.0,2146.0,1.0,37.0,
1845.0,2112.0,1.0,37.0,
2066.0,1829.0,1.0,37.0,
2125.0,1854.0,1.0,37.0,
2237.0,2062.0,1.0,37.0,
2273.0,2237.0,1.0,37.0,
2251.0,2093.0,1.0,37.0,
1805.0,2134.0,1.0,37.0,
2144.0,2014.0,1.0,37.0,
2179.0,1959.0,1.0,37.0,
2082.0,1928.0,1.0,37.0,
1921.0,2004.0,1.0,37.0,
2341.0,1904.0,1.0,37.0,
1986.0,1918.0,1.0,37.0,
2128.0,2331.0,1.0,37.0,
1819.0,2266.0,1.0,38.0,
1842.0,2071.0,1.0,38.0,
2080.0,2208.0,1.0,38.0,
2148.0,2303.0,1.0,38.0,
2008.0,2148.0,1.0,38.0,
2015.0,1989.0,1.0,38.0,
2205.0,2098.0,1.0,38.0,
2124.0,2195.0,0.0,38.0,
2246.0,1946.0,0.0,38.0,
2061.0,2045.0,0.0,38.0,
1909.0,2167.0,0.0,38.0,
1974.0,2148.0,1.0,38.0,
1944.0,1961.0,0.0,38.0,
2078.0,1998.0,1.0,38.0,
1960.0,1946.0,0.0,38.0,
2094.0,2007.0,0.0,38.0,
2353.0,2121.0,0.0,39.0,
1934.0,2120.0,0.0,39.0,
2123.0,1899.0,0.0,39.0,
2269.0,2032.0,0.0,39.0,
2407.0,2199.0,0.0,39.0,
2025.0,2143.0,0.0,39.0,
1937.0,2082.0,0.0,38.0,
1908.0,2189.0,0.0,39.0,
1963.0,2091.0,0.0,39.0,
2260.0,2098.0,0.0,39.0,
2378.0,2191.0,0.0,39.0,
2097.0,2064.0,0.0,39.0,
1736.0,1861.0,0.0,39.0,
1894.0,1878.0,0.0,39.0,
2011.0,1988.0,0.0,39.0,
2167.0,2389.0,0.0,39.0,
2158.0,1982.0,0.0,39.0,
2252.0,2039.0,0.0,39.0,
2206.0,2091.0,0.0,39.0,
1963.0,2316.0,0.0,39.0,
1961.0,2244.0,0.0,39.0,
1759.0,2090.0,0.0,39.0,
1955.0,2099.0,0.0,39.0,
2069.0,2117.0,0.0,39.0,
2057.0,2072.0,0.0,39.0,
2225.0,1934.0,0.0,39.0,
2400.0,1866.0,0.0,39.0,
2283.0,2083.0,0.0,39.0,
1894.0,2121.0,0.0,39.0,
1802.0,1998.0,0.0,39.0,
1961.0,2171.0,0.0,39.0,
2123.0,1977.0,0.0,40.0,
2222.0,1830.0,0.0,40.0,
2710.0,2015.0,1.0,40.0,
2220.0,2215.0,1.0,40.0,
1564.0,2452.0,0.0,40.0,
1685.0,2293.0,0.0,40.0,
1866.0,2040.0,1.0,40.0,
2505.0,1976.0,1.0,40.0,
2104.0,2112.0,1.0,40.0,
2002.0,1789.0,1.0,40.0,
1984.0,1875.0,1.0,40.0,
2081.0,1996.0,0.0,40.0,
1771.0,2164.0,0.0,40.0,
1740.0,2130.0,0.0,40.0,
1993.0,2429.0,0.0,40.0,
2246.0,2164.0,0.0,40.0,
2314.0,2052.0,0.0,40.0,
1995.0,2064.0,0.0,40.0,
2071.0,2221.0,0.0,40.0,
2094.0,2082.0,0.0,40.0,
2031.0,1952.0,0.0,40.0,
2120.0,1920.0,0.0,40.0,
2093.0,1760.0,0.0,40.0,
2155.0,2326.0,0.0,40.0,
1954.0,2044.0,0.0,41.0,
2062.0,2018.0,0,
2117.0,2005.0,-1.0,41.0,
2164.0,2163.0,-1.0,40.0,
2086.0,2124.0,-1.0,41.0,
1933.0,2364.0,-1.0,41.0,
2079.0,2154.0,-1.0,41.0,
2181.0,2034.0,-2.0,41.0,
2259.0,1974.0,-2.0,41.0,
2128.0,1990.0,-2.0,41.0,
1884.0,2061.0,-2.0,41.0,
2072.0,2186.0,-2.0,41.0,
2037.0,2075.0,-1.0,41.0,
2071.0,2009.0,-1.0,41.0,
2128.0,2022.0,-1.0,41.0,
2287.0,1975.0,-1.0,41.0,
2375.0,2049.0,-1.0,40.0,
1939.0,2183.0,0.0,40.0,
1855.0,2386.0,0.0,40.0,
2309.0,2037.0,0.0,40.0,
2183.0,2061.0,0.0,40.0,
2102.0,2078.0,0.0,40.0,
2013.0,2043.0,0.0,41.0,
1730.0,2013.0,0.0,40.0,
1944.0,1997.0,0.0,40.0,
1979.0,2119.0,0.0,40.0,
1961.0,2101.0,0.0,40.0,
1958.0,1913.0,0.0,40.0,
1971.0,1844.0,0.0,40.0,
2223.0,2326.0,0.0,41.0,
2144.0,2257.0,0.0,40.0,
2149.0,2218.0,0.0,40.0,
2066.0,2217.0,0.0,40.0,
1915.0,1907.0,0.0,40.0,
1858.0,2146.0,0.0,40.0,
2135.0,2072.0,0.0,40.0,
2369.0,2098.0,-1.0,40.0,
2119.0,1835.0,0,
1977.0,1992.0,-1.0,40.0,
1781.0,2038.0,-1.0,41.0,
2063.0,2159.0,-1.0,41.0,
2222.0,2093.0,-1.0,41.0,
2051.0,1942.0,-2.0,41.0,
2402.0,2074.0,-2.0,41.0,
2068.0,2273.0,-1.0,41.0,
2071.0,2297.0,-1.0,42.0,
2301.0,2124.0,-1.0,42.0,
2094.0,2112.0,-1.0,42.0,
1833.0,2108.0,-1.0,42.0,
2051.0,2072.0,0.0,42.0,
2039.0,1949.0,0.0,42.0,
2078.0,1794.0,0.0,42.0,
2042.0,1938.0,0.0,41.0,
1964.0,2251.0,0.0,41.0,
2127.0,2116.0,-1.0,41.0,
1944.0,1888.0,-1.0,41.0,
2223.0,2257.0,-1.0,41.0,
2072.0,2074.0,-1.0,41.0,
2205.0,2178.0,-1.0,41.0,
2247.0,2167.0,-2.0,41.0,
1994.0,2101.0,-2.0,41.0,
1874.0,2130.0,-2.0,41.0,
2177.0,2267.0,-2.0,41.0,
2215.0,2307.0,-1.0,41.0,
1966.0,1992.0,-1.0,42.0,
2038.0,1958.0,-1.0,42.0,
2115.0,2017.0,-1.0,42.0,
1668.0,2048.0,-1.0,42.0,
2034.0,1948.0,-1.0,42.0,
2163.0,2079.0,-1.0,42.0,
2253.0,2174.0,-1.0,42.0,
2002.0,2039.0,0.0,42.0,
2240.0,2028.0,0.0,41.0,
2039.0,1970.0,0.0,41.0,
2610.0,2043.0,0.0,41.0,
1991.0,1998.0,0.0,41.0,
1883.0,2162.0,0.0,41.0,
1887.0,2247.0,-1.0,41.0,
1742.0,2001.0,0,
1997.0,1864.0,-1.0,41.0,
2041.0,2066.0,-1.0,41.0,
1847.0,1895.0,-1.0,42.0,
2162.0,1974.0,-1.0,42.0,
2224.0,2190.0,-1.0,42.0,
2037.0,2370.0,0.0,42.0,
1917.0,2112.0,0.0,42.0,
2132.0,2192.0,0.0,42.0,
2127.0,2386.0,0.0,43.0,
2035.0,2247.0,0.0,43.0,
2206.0,2208.0,0.0,43.0,
2134.0,1947.0,0.0,43.0,
2115.0,1996.0,0.0,43.0,
2087.0,1998.0,-1.0,43.0,
2260.0,2104.0,-1.0,43.0,
1914.0,2057.0,-1.0,43.0,
2034.0,2101.0,-2.0,43.0,
2226.0,2019.0,-2.0,43.0,
2224.0,2118.0,-2.0,43.0,
2071.0,2002.0,-2.0,43.0,
2251.0,1852.0,-2.0,43.0,
1858.0,2085.0,-2.0,43.0,
2088.0,1961.0,-1.0,43.0,
2221.0,2013.0,-1.0,43.0,
2280.0,2169.0,-1.0,43.0,
2009.0,2177.0,-1.0,43.0,
2072.0,2311.0,0.0,43.0,
2036.0,2068.0,0.0,43.0,
2156.0,2228.0,0.0,43.0,
1507.0,2117.0,0.0,43.0,
1887.0,2237.0,0.0,43.0,
2148.0,2187.0,0.0,43.0,
2055.0,2057.0,0.0,42.0,
2229.0,1904.0,0.0,42.0,
1870.0,2038.0,0.0,42.0,
2085.0,1714.0,0.0,42.0,
2006.0,1872.0,0.0,42.0,
1957.0,2029.0,0.0,42.0,
2130.0,2408.0,0.0,42.0,
2137.0,2194.0,-1.0,42.0,
2003.0,2152.0,-1.0,42.0,
2164.0,2178.0,-1.0,42.0,
2641.0,1962.0,-1.0,42.0,
2611.0,2085.0,-1.0,42.0,
1772.0,2133.0,-1.0,42.0,
1330.0,2215.0,-1.0,42.0,
2022.0,1795.0,-1.0,42.0,
2140.0,2045.0,-1.0,42.0,
1910.0,1866.0,-1.0,43.0,
1801.0,2189.0,-1.0,43.0,
1954.0,2402.0,-1.0,43.0,
2028.0,2132.0,-1.0,43.0,
2173.0,2071.0,-1.0,43.0,
2161.0,1993.0,-2.0,43.0,
1995.0,2040.0,-2.0,43.0,
2174.0,1992.0,-2.0,43.0,
2046.0,1993.0,-3.0,43.0,
2159.0,2329.0,-2.0,43.0,
2190.0,2397.0,-3.0,43.0,
2083.0,2119.0,-3.0,43.0,
2046.0,1847.0,-3.0,43.0,
2145.0,1965.0,-3.0,44.0,
2085.0,1951.0,-3.0,44.0,
2248.0,2072.0,-3.0,44.0,
2172.0,1898.0,-3.0,44.0,
1965.0,2120.0,-3.0,44.0,
2343.0,1845.0,-3.0,44.0,
2038.0,2230.0,-3.0,44.0,
1886.0,2504.0,-3.0,44.0,
1937.0,2083.0,-3.0,44.0,
2171.0,1990.0,-3.0,44.0,
2301.0,2115.0,-3.0,44.0,
2185.0,1953.0,-3.0,44.0,
2256.0,2086.0,-2.0,43.0,
1825.0,2224.0,-2.0,43.0,
1891.0,2166.0,-2.0,43.0,
2005.0,2108.0,-2.0,43.0,
2156.0,2041.0,-2.0,43.0,
2081.0,2198.0,-2.0,44.0,
1998.0,2118.0,-2.0,43.0,
2188.0,1878.0,-1.0,43.0,
1920.0,1904.0,-1.0,43.0,
2055.0,2304.0,-1.0,43.0,
1709.0,2184.0,0.0,43.0,
1713.0,1945.0,0.0,44.0,
2017.0,1712.0,0.0,44.0,
1932.0,1832.0,0.0,44.0,
2387.0,2187.0,0.0,44.0,
2179.0,2277.0,0.0,43.0,
2332.0,2281.0,0.0,43.0,
2302.0,2271.0,0.0,44.0,
1757.0,1915.0,0.0,44.0,
1883.0,1953.0,0.0,44.0,
1973.0,1895.0,-1.0,44.0,
2424.0,2023.0,-1.0,43.0,
2032.0,2110.0,-2.0,44.0,
2216.0,2314.0,-2.0,44.0,
2285.0,2289.0,-2.0,44.0,
1738.0,2085.0,-2.0,44.0,
1826.0,2050.0,-2.0,44.0,
2024.0,2041.0,-2.0,44.0,
2160.0,2235.0,-3.0,44.0,
1983.0,2185.0,-2.0,44.0,
2283.0,1896.0,-2.0,45.0,
1851.0,1971.0,-2.0,45.0,
2097.0,2206.0,-1.0,45.0,
1992.0,1964.0,-1.0,44.0,
2095.0,2045.0,-1.0,44.0,
2127.0,2184.0,-1.0,44.0,
1980.0,2068.0,-2.0,44.0,
2262.0,2029.0,-2.0,44.0,
2566.0,1997.0,-2.0,44.0,
1796.0,1982.0,-2.0,44.0,
1917.0,2198.0,-2.0,44.0,
2119.0,2208.0,-2.0,44.0,
1938.0,1885.0,-2.0,44.0,
1988.0,1875.0,-2.0,44.0,
2034.0,2104.0,-2.0,44.0,
2110.0,2233.0,-2.0,44.0,
2090.0,2141.0,-2.0,44.0,
2079.0,2191.0,-2.0,44.0,
2130.0,2273.0,-2.0,44.0,
2300.0,2061.0,-2.0,44.0,
1930.0,2103.0,-2.0,44.0,
2049.0,2222.0,-2.0,44.0,
2209.0,2083.0,-2.0,44.0,
2452.0,2084.0,-2.0,44.0,
2218.0,1988.0,-2.0,44.0,
1978.0,1906.0,-2.0,44.0,
1776.0,2031.0,-2.0,44.0,
2112.0,2292.0,-2.0,44.0,
2091.0,2217.0,-2.0,43.0,
2268.0,2019.0,-2.0,43.0,
2035.0,1762.0,-2.0,43.0,
1682.0,1893.0,-2.0,43.0,
1983.0,2072.0,-2.0,43.0,
1796.0,2284.0,-2.0,43.0,
2213.0,2004.0,-2.0,43.0,
2149.0,1926.0,-2.0,44.0,
1753.0,2199.0,-2.0,44.0,
2287.0,2309.0,-2.0,44.0,
1989.0,2112.0,-2.0,44.0,
2716.0,2199.0,-1.0,44.0,
1986.0,2323.0,-1.0,44.0,
1766.0,2116.0,-1.0,44.0,
2065.0,1731.0,-1.0,44.0,
1968.0,1858.0,0.0,44.0,
2172.0,2240.0,-1.0,44.0,
2075.0,2099.0,-1.0,44.0,
2212.0,1838.0,-1.0,44.0,
2055.0,2038.0,-2.0,44.0,
2214.0,2131.0,-2.0,44.0,
2359.0,2434.0,-3.0,44.0,
2440.0,2084.0,-3.0,44.0,
1789.0,2125.0,-3.0,44.0,
1339.0,1992.0,-3.0,44.0,
1756.0,2044.0,-3.0,44.0,
1952.0,1844.0,-3.0,45.0,
1934.0,2158.0,-3.0,44.0,
2179.0,2154.0,-3.0,45.0,
2154.0,2033.0,-3.0,45.0,
2050.0,1981.0,-3.0,45.0,
2097.0,1853.0,-3.0,45.0,
2088.0,2192.0,-3.0,45.0,
2193.0,2352.0,-3.0,45.0,
2193.0,2188.0,-3.0,45.0,
2306.0,2226.0,-3.0,45.0,
2245.0,2025.0,-2.0,45.0,
1973.0,2070.0,-2.0,45.0,
2198.0,2099.0,-2.0,45.0,
2048.0,2072.0,-2.0,45.0,
2006.0,2109.0,-2.0,44.0,
2087.0,2105.0,-2.0,44.0,
2179.0,2047.0,-2.0,44.0,
2137.0,1953.0,-2.0,45.0,
2209.0,2349.0,-2.0,44.0,
1989.0,2053.0,-2.0,44.0,
2277.0,2044.0,-3.0,44.0,
2108.0,1830.0,-3.0,44.0,
2189.0,1791.0,-3.0,44.0,
1608.0,2032.0,-3.0,45.0,
2167.0,2323.0,-2.0,44.0,
2042.0,1977.0,-2.0,44.0,
2284.0,1987.0,-2.0,44.0,
1984.0,2060.0,-2.0,44.0,
1653.0,2097.0,-2.0,44.0,
2047.0,2190.0,-2.0,44.0,
1963.0,2137.0,-2.0,44.0,
2203.0,2182.0,-2.0,45.0,
2372.0,1988.0,-2.0,45.0,
1873.0,1996.0,-2.0,45.0,
1833.0,2054.0,-2.0,45.0,
2282.0,2165.0,-3.0,45.0,
2068.0,2149.0,-2.0,45.0,
2074.0,2087.0,-2.0,45.0,
1905.0,2060.0,-2.0,45.0,
2352.0,2206.0,-2.0,45.0,
2286.0,2251.0,-2.0,45.0,
1785.0,2267.0,-2.0,45.0,
2059.0,2128.0,-2.0,45.0,
1741.0,1984.0,-2.0,45.0,
2241.0,2079.0,-2.0,45.0,
2536.0,2130.0,-2.0,45.0,
2187.0,1883.0,-3.0,45.0,
1420.0,1878.0,-3.0,45.0,
1950.0,2113.0,-3.0,45.0,
2504.0,2005.0,-3.0,45.0,
1816.0,1806.0,-3.0,46.0,
1987.0,2131.0,-4.0,46.0,
2138.0,2207.0,-3.0,46.0,
1857.0,1952.0,0,
2202.0,2059.0,-3.0,46.0,
2439.0,2353.0,-3.0,45.0,
2192.0,2106.0,-3.0,46.0,
2063.0,2098.0,-3.0,45.0,
1960.0,2121.0,-3.0,46.0,
2246.0,2105.0,-3.0,46.0,
1964.0,2178.0,-3.0,45.0,
1916.0,2064.0,-3.0,45.0,
2103.0,2084.0,-3.0,45.0,
1912.0,2136.0,-3.0,46.0,
2150.0,1999.0,-3.0,46.0,
1963.0,1884.0,-4.0,46.0,
1987.0,1982.0,-4.0,46.0,
2138.0,2285.0,-3.0,46.0,
2089.0,2318.0,-3.0,46.0,
2384.0,1977.0,-3.0,46.0,
2166.0,2007.0,-3.0,46.0,
2360.0,1996.0,-3.0,46.0,
2174.0,2074.0,-2.0,46.0,
1902.0,2162.0,-3.0,46.0,
2234.0,2010.0,-2.0,46.0,
2417.0,2177.0,-2.0,45.0,
1805.0,2136.0,-2.0,45.0,
1543.0,2068.0,-2.0,45.0,
2011.0,2052.0,-2.0,45.0,
2319.0,2058.0,-3.0,45.0,
1560.0,2031.0,-3.0,45.0,
1721.0,1598.0,-3.0,45.0,
2233.0,1822.0,-2.0,45.0,
2034.0,2411.0,0,
2470.0,2191.0,-3.0,46.0,
2243.0,2242.0,-3.0,46.0,
2205.0,2337.0,-3.0,46.0,
2122.0,2013.0,-3.0,46.0,
1961.0,2058.0,-3.0,46.0,
1477.0,1961.0,-3.0,46.0,
1627.0,2195.0,-3.0,46.0,
2124.0,2120.0,-3.0,46.0,
2002.0,1873.0,-3.0,46.0,
2397.0,2056.0,-4.0,46.0,
2557.0,1893.0,-3.0,46.0,
2278.0,1976.0,-4.0,46.0,
1488.0,2408.0,-4.0,46.0,
1862.0,2323.0,-4.0,46.0,
2191.0,1921.0,-4.0,46.0,
2130.0,2351.0,-4.0,46.0,
1989.0,2406.0,-3.0,46.0,
1915.0,1897.0,-4.0,46.0,
2169.0,2181.0,-3.0,46.0,
2044.0,1931.0,-3.0,46.0,
2225.0,1856.0,-4.0,46.0,
2054.0,1986.0,-4.0,46.0,
2075.0,2206.0,-4.0,47.0,
2120.0,1815.0,-4.0,47.0,
2058.0,1918.0,-4.0,47.0,
2207.0,1940.0,-4.0,47.0,
2284.0,2299.0,-4.0,47.0,
2229.0,2282.0,-4.0,47.0,
2091.0,2008.0,-3.0,47.0,
2160.0,1961.0,-3.0,47.0,
2392.0,2192.0,-2.0,47.0,
2153.0,2263.0,-2.0,47.0,
1670.0,2131.0,-3.0,46.0,
2029.0,2070.0,-3.0,47.0,
2127.0,2116.0,-3.0,47.0,
2069.0,2257.0,-3.0,46.0,
1927.0,1892.0,-3.0,46.0,
2052.0,1941.0,-3.0,46.0,
2066.0,2148.0,-3.0,46.0,
2136.0,2094.0,-3.0,46.0,
2343.0,1985.0,-3.0,46.0,
2074.0,2252.0,-2.0,46.0,
1403.0,1853.0,-2.0,46.0,
1919.0,1903.0,-2.0,46.0,
2114.0,2091.0,-2.0,46.0,
1824.0,1727.0,-3.0,46.0,
2040.0,2358.0,-3.0,46.0,
2282.0,2649.0,-3.0,46.0,
2746.0,2331.0,-3.0,46.0,
2090.0,1996.0,-4.0,46.0,
1516.0,2072.0,-4.0,46.0,
1873.0,2211.0,-4.0,46.0,
2282.0,2100.0,-4.0,46.0,
1936.0,2007.0,-4.0,46.0,
2356.0,1930.0,-4.0,46.0,
2335.0,2029.0,-4.0,46.0,
2143.0,1972.0,-4.0,46.0,
2141.0,2007.0,-4.0,46.0,
1818.0,2230.0,-4.0,46.0,
1873.0,2093.0,-4.0,46.0,
1910.0,2035.0,-5.0,46.0,
2112.0,2029.0,-6.0,46.0,
1846.0,2047.0,-6.0,47.0,
2084.0,1990.0,-5.0,47.0,
2036.0,2064.0,-5.0,47.0,
2075.0,2029.0,-5.0,47.0,
2071.0,2240.0,-5.0,47.0,
2226.0,2153.0,-5.0,47.0,
2315.0,2073.0,0,
1928.0,1901.0,-5.0,47.0,
2018.0,2063.0,-5.0,47.0,
2064.0,2218.0,-4.0,47.0,
2434.0,2064.0,-5.0,47.0,
2336.0,2370.0,-5.0,47.0,
1773.0,1997.0,-5.0,47.0,
2121.0,1944.0,-5.0,47.0,
1969.0,1989.0,-5.0,47.0,
2157.0,2124.0,-5.0,47.0,
2064.0,2036.0,-5.0,47.0,
2584.0,2077.0,-5.0,47.0,
2247.0,2202.0,-4.0,47.0,
1926.0,2464.0,-3.0,46.0,
1920.0,1995.0,-4.0,47.0,
1891.0,2038.0,-4.0,46.0,
1939.0,2114.0,-4.0,46.0,
1972.0,2298.0,-4.0,46.0,
1760.0,2041.0,-4.0,46.0,
1890.0,2054.0,-4.0,46.0,
2379.0,2075.0,-4.0,46.0,
2048.0,2002.0,-4.0,46.0,
2116.0,1910.0,-5.0,46.0,
2151.0,2019.0,-5.0,46.0,
2255.0,2195.0,-5.0,46.0,
2631.0,1973.0,0,
2026.0,2057.0,-5.0,46.0,
1639.0,2146.0,-5.0,46.0,
2338.0,2037.0,-4.0,46.0,
1456.0,2154.0,-4.0,46.0,
1773.0,2179.0,-4.0,46.0,
2624.0,1781.0,-5.0,46.0,
1992.0,1861.0,-5.0,46.0,
2126.0,2409.0,-5.0,47.0,
1810.0,2126.0,-5.0,47.0,
1645.0,1969.0,-6.0,47.0,
2670.0,2026.0,-6.0,47.0,
1742.0,2058.0,-6.0,47.0,
1604.0,2476.0,-6.0,47.0,
2036.0,2567.0,-6.0,47.0,
2236.0,2095.0,-7.0,47.0,
2124.0,1805.0,-7.0,47.0,
2080.0,1925.0,0,
2195.0,2165.0,-7.0,48.0,
2317.0,1857.0,-7.0,48.0,
2026.0,1999.0,-7.0,48.0,
2073.0,2172.0,-7.0,48.0,
1975.0,2253.0,-7.0,48.0,
2116.0,2110.0,-7.0,48.0,
2139.0,2068.0,-7.0,48.0,
2009.0,1922.0,-6.0,48.0,
2141.0,2040.0,-6.0,48.0,
2085.0,2080.0,-6.0,48.0,
2056.0,2126.0,-6.0,48.0,
1885.0,2061.0,-6.0,48.0,
2339.0,2058.0,-6.0,48.0,
2613.0,2326.0,-6.0,48.0,
2330.0,2098.0,0,
1747.0,1938.0,-6.0,48.0,
1828.0,2108.0,-6.0,48.0,
1852.0,2233.0,-6.0,47.0,
1739.0,1924.0,-6.0,47.0,
2031.0,2152.0,-6.0,47.0,
2112.0,2304.0,-5.0,47.0,
2359.0,2130.0,-5.0,47.0,
2200.0,1864.0,-5.0,47.0,
2380.0,1952.0,-5.0,47.0,
1578.0,1970.0,-4.0,47.0,
2140.0,2130.0,-5.0,47.0,
2399.0,2202.0,-5.0,47.0,
1864.0,1961.0,-5.0,47.0,
1724.0,1989.0,-5.0,47.0,
2325.0,2434.0,-5.0,47.0,
2794.0,2005.0,-5.0,47.0,
1683.0,2196.0,-5.0,47.0,
1525.0,2135.0,-5.0,47.0,
2121.0,2215.0,-5.0,47.0,
1980.0,1983.0,-5.0,47.0,
1767.0,1828.0,-5.0,48.0,
2066.0,1926.0,-5.0,48.0,
2251.0,2102.0,-5.0,48.0,
2031.0,2210.0,-5.0,48.0,
2218.0,2124.0,-5.0,48.0,
2023.0,1896.0,-5.0,48.0,
2095.0,2193.0,-6.0,48.0,
1838.0,2372.0,-6.0,48.0,
2322.0,2238.0,-6.0,48.0,
2031.0,1994.0,-6.0,48.0,
2279.0,2151.0,-6.0,48.0,
1894.0,2048.0,-6.0,48.0,
2066.0,2092.0,-6.0,48.0,
2024.0,2074.0,-6.0,48.0,
2142.0,1774.0,-6.0,48.0,
2041.0,1787.0,-6.0,48.0,
2429.0,2033.0,-6.0,48.0,
2611.0,2180.0,-6.0,48.0,
1496.0,2085.0,-6.0,48.0,
1757.0,2170.0,-6.0,48.0,
2035.0,2021.0,-7.0,48.0,
2313.0,2398.0,-7.0,48.0,
2278.0,2105.0,-7.0,48.0,
2042.0,1946.0,-6.0,48.0,
2168.0,2026.0,-6.0,48.0,
1916.0,2000.0,-6.0,48.0,
1910.0,2089.0,-6.0,48.0,
2125.0,2160.0,-6.0,48.0,
2424.0,2158.0,-6.0,48.0,
1837.0,1950.0,0,
2170.0,1954.0,-6.0,48.0,
1819.0,2092.0,-6.0,48.0,
2204.0,2006.0,-5.0,48.0,
2402.0,2247.0,-6.0,48.0,
2370.0,2331.0,-6.0,48.0,
1642.0,2120.0,-5.0,48.0,
1674.0,2005.0,-5.0,48.0,
1480.0,1927.0,-5.0,48.0,
2542.0,2056.0,-5.0,48.0,
2377.0,2190.0,-5.0,48.0,
1728.0,2044.0,-5.0,48.0,
1936.0,2007.0,-5.0,48.0,
1966.0,2267.0,-5.0,48.0,
1986.0,2000.0,-5.0,48.0,
2088.0,1941.0,-5.0,48.0,
2321.0,1880.0,-5.0,48.0,
1917.0,2091.0,-5.0,48.0,
2247.0,2351.0,-5.0,48.0,
2166.0,2179.0,-6.0,48.0,
2045.0,2185.0,-7.0,48.0,
2180.0,2137.0,-7.0,48.0,
2014.0,2163.0,-7.0,48.0,
2174.0,2270.0,-7.0,48.0,
2558.0,2210.0,-7.0,48.0,
2625.0,1846.0,-7.0,48.0,
2141.0,1784.0,-8.0,49.0,
1486.0,2053.0,-8.0,49.0,
1618.0,2185.0,-8.0,49.0,
1992.0,2410.0,-7.0,48.0,
1926.0,2186.0,-7.0,48.0,
1894.0,1660.0,-7.0,48.0,
2245.0,2105.0,-7.0,48.0,
2617.0,2109.0,-7.0,48.0,
2085.0,1879.0,-7.0,48.0,
1540.0,1855.0,-7.0,48.0,
1675.0,1748.0,-7.0,48.0,
2032.0,2302.0,-7.0,48.0,
2771.0,2281.0,-7.0,48.0,
2385.0,2434.0,-7.0,48.0,
1889.0,2195.0,-7.0,49.0,
1386.0,2027.0,-7.0,49.0,
1835.0,2086.0,-7.0,49.0,
2019.0,2135.0,-7.0,49.0,
2173.0,1895.0,-7.0,49.0,
2177.0,2004.0,-7.0,49.0,
2189.0,2324.0,-6.0,49.0,
1805.0,2202.0,-6.0,49.0,
2191.0,1962.0,-6.0,49.0,
2221.0,2067.0,-6.0,49.0,
2147.0,2035.0,-6.0,49.0,
2192.0,2124.0,-6.0,49.0,
2440.0,2085.0,-6.0,49.0,
2182.0,2036.0,-6.0,49.0,
2234.0,2050.0,-5.0,49.0,
1516.0,2247.0,-5.0,49.0,
2092.0,2082.0,-6.0,49.0,
2517.0,2108.0,-6.0,49.0,
1985.0,1917.0,-6.0,49.0,
1537.0,1984.0,-6.0,49.0,
1938.0,2257.0,-6.0,49.0,
1983.0,2222.0,-6.0,49.0,
2013.0,2086.0,-6.0,49.0,
2046.0,1815.0,-7.0,49.0,
2861.0,1856.0,-7.0,49.0,
2076.0,2227.0,-7.0,49.0,
1508.0,2552.0,-8.0,49.0,
1955.0,2152.0,-7.0,49.0,
2431.0,1950.0,-7.0,49.0,
2452.0,2158.0,-7.0,49.0,
1971.0,2142.0,-5.0,50.0,
2184.0,2004.0,0,
2083.0,1876.0,-8.0,49.0,
1964.0,1924.0,-8.0,49.0,
1833.0,1987.0,-8.0,49.0,
2250.0,2067.0,-7.0,49.0,
1944.0,2147.0,-8.0,49.0,
1689.0,2005.0,-7.0,49.0,
2212.0,2320.0,-7.0,49.0,
2185.0,2138.0,-7.0,49.0,
2282.0,1896.0,-8.0,49.0,
2168.0,1988.0,-10.0,48.0,
1766.0,2014.0,-7.0,48.0,
1766.0,2035.0,-7.0,49.0,
2162.0,2307.0,-7.0,49.0,
2020.0,2363.0,-7.0,49.0,
2114.0,1974.0,-6.0,49.0,
2363.0,2081.0,-6.0,49.0,
1753.0,2048.0,-6.0,49.0,
2178.0,2173.0,-6.0,49.0,
2155.0,2115.0,-6.0,49.0,
1906.0,2143.0,-6.0,49.0,
2205.0,1913.0,-6.0,49.0,
2275.0,1769.0,-6.0,49.0,
2340.0,2419.0,-6.0,49.0,
2460.0,2246.0,-6.0,49.0,
2047.0,2042.0,-6.0,49.0,
2385.0,2257.0,-7.0,49.0,
2567.0,2170.0,-7.0,49.0,
1292.0,1944.0,-7.0,49.0,
1934.0,1816.0,-7.0,49.0,
1884.0,1990.0,-7.0,49.0,
2031.0,1996.0,-7.0,49.0,
2353.0,2232.0,-7.0,49.0,
1873.0,2145.0,-7.0,49.0,
1559.0,2062.0,-7.0,49.0,
1668.0,2154.0,-7.0,49.0,
2085.0,1999.0,-7.0,48.0,
2223.0,1985.0,-7.0,48.0,
1926.0,2149.0,-7.0,48.0,
2003.0,2039.0,-7.0,49.0,
2080.0,1910.0,-7.0,49.0,
2138.0,2126.0,-7.0,49.0,
1979.0,2179.0,-7.0,49.0,
2504.0,2167.0,-7.0,49.0,
2383.0,2092.0,-7.0,49.0,
2191.0,2000.0,-7.0,49.0,
2172.0,2121.0,-7.0,49.0,
2409.0,2027.0,-7.0,49.0,
2220.0,2310.0,-7.0,49.0,
1901.0,2129.0,-7.0,49.0,
1638.0,1884.0,-7.0,49.0,
1872.0,1875.0,-6.0,50.0,
1958.0,2040.0,-6.0,50.0,
2109.0,2221.0,-6.0,50.0,
2026.0,2233.0,-6.0,50.0,
2157.0,2318.0,-6.0,50.0,
2164.0,2223.0,-6.0,50.0,
1840.0,2044.0,-6.0,50.0,
2143.0,1966.0,-6.0,50.0,
1914.0,1898.0,-5.0,50.0,
2452.0,2007.0,-5.0,50.0,
2403.0,2279.0,-5.0,50.0,
1672.0,2048.0,-5.0,50.0,
1898.0,1893.0,-5.0,49.0,
1830.0,1895.0,-5.0,49.0,
2335.0,2068.0,-5.0,49.0,
1828.0,2188.0,-4.0,49.0,
1783.0,1975.0,-4.0,49.0,
2193.0,2083.0,-5.0,49.0,
2289.0,2124.0,-5.0,49.0,
2001.0,2221.0,-6.0,49.0,
2256.0,2180.0,-6.0,50.0,
2124.0,2125.0,-6.0,49.0,
2110.0,2188.0,-6.0,49.0,
2432.0,2274.0,-7.0,49.0,
2145.0,2014.0,-7.0,49.0,
1807.0,1871.0,-9.0,49.0,
1698.0,1962.0,-9.0,49.0,
2052.0,1993.0,-8.0,49.0,
2213.0,2101.0,-8.0,49.0,
2159.0,2106.0,-9.0,49.0,
2053.0,1989.0,-9.0,49.0,
2418.0,2188.0,-9.0,49.0,
1839.0,2055.0,-9.0,49.0,
2016.0,1971.0,-9.0,49.0,
2049.0,1909.0,-9.0,49.0,
2002.0,2027.0,-9.0,49.0,
2313.0,2509.0,-9.0,48.0,
2195.0,2098.0,-8.0,48.0,
1800.0,2143.0,-8.0,48.0,
2366.0,2187.0,-7.0,48.0,
2543.0,2074.0,-7.0,48.0,
1664.0,2089.0,-7.0,48.0,
1480.0,1965.0,-7.0,48.0,
1836.0,2027.0,-6.0,48.0,
1865.0,2031.0,-6.0,48.0,
2028.0,2085.0,-6.0,48.0,
2130.0,1955.0,-6.0,48.0,
2342.0,2005.0,-6.0,48.0,
2276.0,2319.0,-6.0,48.0,
2066.0,2192.0,-5.0,48.0,
2099.0,2117.0,-5.0,47.0,
2226.0,2210.0,-5.0,47.0,
2095.0,1906.0,-5.0,48.0,
2370.0,1922.0,-5.0,48.0,
1925.0,1993.0,-5.0,48.0,
1562.0,2194.0,-5.0,48.0,
1957.0,2254.0,-5.0,48.0,
2460.0,2200.0,-5.0,48.0,
2144.0,2041.0,-5.0,47.0,
2301.0,2019.0,-6.0,47.0,
1943.0,2068.0,-5.0,48.0,
1797.0,1865.0,-5.0,48.0,
1927.0,1995.0,-4.0,48.0,
2039.0,2011.0,-5.0,48.0,
2168.0,2059.0,-4.0,48.0,
2161.0,2027.0,-5.0,48.0,
2211.0,1952.0,-5.0,47.0,
2057.0,2288.0,-5.0,48.0,
2112.0,2293.0,-5.0,48.0,
2093.0,2001.0,-5.0,48.0,
2235.0,2150.0,-6.0,48.0,
2586.0,1935.0,-6.0,49.0,
2094.0,1896.0,-7.0,49.0,
1775.0,2472.0,-6.0,48.0,
1920.0,2138.0,-6.0,49.0,
2090.0,2144.0,-6.0,49.0,
1800.0,2100.0,-5.0,49.0,
1844.0,2025.0,-4.0,49.0,
2100.0,2093.0,-4.0,49.0,
2139.0,1942.0,-5.0,49.0,
2097.0,2088.0,-4.0,49.0,
2025.0,2091.0,-4.0,49.0,
2099.0,2051.0,-5.0,49.0,
2187.0,2197.0,-5.0,50.0,
2204.0,2220.0,-5.0,50.0,
2384.0,2082.0,-5.0,49.0,
2285.0,2093.0,-5.0,49.0,
1656.0,1953.0,-5.0,49.0,
1927.0,1922.0,-4.0,49.0,
2280.0,2082.0,-3.0,49.0,
2041.0,2176.0,-3.0,49.0,
1502.0,2045.0,-2.0,49.0,
1910.0,1919.0,-2.0,48.0,
2056.0,2407.0,-2.0,48.0,
1983.0,2157.0,-2.0,48.0,
2223.0,2081.0,-2.0,47.0,
2140.0,1976.0,-1.0,47.0,
1927.0,1972.0,-1.0,47.0,
2147.0,2027.0,-1.0,47.0,
2230.0,2043.0,-1.0,47.0,
2307.0,2292.0,-1.0,47.0,
2237.0,2175.0,-2.0,46.0,
2065.0,2008.0,-2.0,47.0,
2053.0,2063.0,-1.0,46.0,
1828.0,2272.0,-1.0,46.0,
1960.0,2110.0,-1.0,46.0,
2161.0,2033.0,0,
2150.0,2041.0,-2.0,47.0,
2014.0,2039.0,-2.0,47.0,
1862.0,2107.0,-3.0,47.0,
1996.0,2220.0,-3.0,47.0,
2195.0,2023.0,-3.0,47.0,
2002.0,2011.0,-3.0,47.0,
2017.0,1898.0,-3.0,47.0,
2151.0,2033.0,-3.0,47.0,
2181.0,2213.0,-3.0,47.0,
2231.0,2205.0,-4.0,48.0,
2202.0,2154.0,-4.0,48.0,
2032.0,2148.0,-4.0,48.0,
2224.0,2108.0,-3.0,48.0,
2140.0,2159.0,-3.0,48.0,
1707.0,1994.0,-3.0,48.0,
2021.0,1834.0,-3.0,48.0,
1938.0,1910.0,-4.0,48.0,
2054.0,2073.0,-4.0,48.0,
2154.0,2131.0,-4.0,48.0,
2080.0,2144.0,-4.0,47.0,
2095.0,2111.0,-4.0,47.0,
1954.0,2183.0,-4.0,47.0,
2088.0,2101.0,-4.0,47.0,
2073.0,1930.0,-4.0,47.0,
2136.0,2109.0,-3.0,47.0,
2178.0,2136.0,-3.0,47.0,
2125.0,2028.0,-3.0,47.0,
2068.0,2090.0,-3.0,46.0,
2165.0,2131.0,-3.0,46.0,
2027.0,2142.0,-2.0,46.0,
2008.0,2113.0,-2.0,46.0,
2163.0,2151.0,-2.0,46.0,
2123.0,2095.0,-1.0,46.0,
1927.0,2051.0,-2.0,46.0,
2005.0,2075.0,-1.0,46.0,
2081.0,2115.0,-1.0,46.0,
2033.0,2080.0,-1.0,45.0,
2120.0,2102.0,-1.0,45.0,
2167.0,2146.0,-1.0,45.0,
2071.0,2088.0,-1.0,46.0,
2097.0,1810.0,-1.0,45.0,
2001.0,1916.0,-1.0,45.0,
2053.0,2024.0,-2.0,45.0,
2042.0,2117.0,-2.0,45.0,
2232.0,2380.0,-2.0,45.0,
2152.0,2280.0,-2.0,45.0,
2179.0,2063.0,-2.0,45.0,
2328.0,2083.0,-2.0,45.0,
1748.0,2098.0,-1.0,44.0,
1808.0,1989.0,-2.0,44.0,
1885.0,2064.0,-2.0,44.0,
1944.0,2066.0,-2.0,44.0,
2174.0,2100.0,-1.0,44.0,
2320.0,2139.0,-1.0,44.0,
1901.0,2128.0,-1.0,44.0,
1968.0,2141.0,-1.0,44.0,
2215.0,1968.0,-1.0,44.0,
2161.0,1973.0,-1.0,44.0,
1961.0,1986.0,-1.0,44.0,
1926.0,1874.0,-1.0,44.0,
2054.0,1958.0,-1.0,44.0,
2118.0,2144.0,-2.0,44.0,
2187.0,2184.0,-2.0,44.0,
2121.0,2192.0,-2.0,44.0,
2125.0,2098.0,-2.0,44.0,
2131.0,2015.0,-2.0,44.0,
2114.0,2034.0,-2.0,44.0,
1975.0,2380.0,-2.0,44.0,
1973.0,2206.0,-2.0,45.0,
2035.0,2191.0,-2.0,44.0,
2110.0,2007.0,-3.0,44.0,
2148.0,2022.0,-3.0,45.0,
2080.0,2120.0,-2.0,45.0,
2107.0,2094.0,-3.0,45.0,
2119.0,2037.0,-2.0,45.0,
2022.0,2034.0,-2.0,46.0,
2010.0,2075.0,-2.0,45.0,
2029.0,2218.0,-3.0,45.0,
2105.0,2023.0,-2.0,45.0,
2083.0,2078.0,-2.0,45.0,
2023.0,2081.0,-2.0,45.0,
2101.0,1996.0,-1.0,45.0,
2060.0,1926.0,-1.0,44.0,
2067.0,2097.0,-1.0,44.0,
2076.0,2139.0,0.0,44.0,
2182.0,2147.0,0.0,44.0,
2045.0,2163.0,0.0,44.0,
2061.0,2199.0,0.0,43.0,
2133.0,2186.0,0.0,43.0,
2072.0,2104.0,0.0,42.0,
2000.0,2227.0,0.0,42.0,
2036.0,2094.0,0.0,42.0,
2184.0,1909.0,0.0,42.0,
2082.0,1837.0,0.0,42.0,
1978.0,1998.0,0.0,41.0,
1911.0,2010.0,0.0,41.0,
1877.0,2010.0,0.0,40.0,
2059.0,1940.0,0.0,41.0,
2096.0,2079.0,0.0,41.0,
2140.0,2196.0,0.0,42.0,
2064.0,2096.0,0.0,42.0,
2077.0,2026.0,0.0,42.0,
2209.0,2021.0,0.0,42.0,
2002.0,2104.0,0.0,42.0,
2096.0,1909.0,0.0,42.0,
2221.0,2230.0,0.0,42.0,
2056.0,2626.0,0.0,43.0,
2048.0,2256.0,0,
2044.0,2045.0,0.0,43.0,
2101.0,2021.0,0.0,43.0,
2083.0,2081.0,0.0,43.0,
2112.0,2028.0,0.0,43.0,
2061.0,2042.0,0.0,43.0,
2054.0,2204.0,0.0,43.0,
2069.0,2209.0,0.0,43.0,
2071.0,1942.0,0.0,43.0,
2054.0,1915.0,0.0,43.0,
2123.0,1966.0,0.0,43.0,
2109.0,2179.0,0.0,43.0,
2003.0,2158.0,0.0,42.0,
2025.0,2082.0,0.0,42.0,
2067.0,2094.0,0.0,42.0,
2042.0,2066.0,0.0,42.0,
2061.0,2037.0,0.0,42.0,
2040.0,2003.0,0.0,42.0,
2118.0,2086.0,1.0,42.0,
2039.0,2203.0,1.0,41.0,
2071.0,2108.0,1.0,41.0,
2038.0,2067.0,1.0,41.0,
2077.0,2091.0,1.0,41.0,
2111.0,2055.0,1.0,41.0,
2078.0,2115.0,1.0,40.0,
2092.0,2080.0,1.0,40.0,
2083.0,2029.0,1.0,40.0,
2051.0,2070.0,0.0,40.0,
2021.0,2092.0,0.0,40.0,
2113.0,2143.0,0.0,40.0,
2058.0,2030.0,0.0,39.0,
2086.0,1979.0,0.0,39.0,
2255.0,2076.0,1.0,38.0,
2038.0,2127.0,1.0,39.0,
1951.0,2087.0,3.0,39.0,
2095.0,2023.0,3.0,38.0,
2080.0,2155.0,4.0,38.0,
2033.0,2094.0,4.0,37.0,
1990.0,2089.0,5.0,37.0,
2069.0,2068.0,5.0,37.0,
2035.0,2053.0,5.0,37.0,
2232.0,2094.0,5.0,38.0,
2100.0,2209.0,5.0,37.0,
1971.0,2027.0,4.0,37.0,
1977.0,1998.0,2.0,37.0,
1974.0,2192.0,2.0,37.0,
2066.0,2125.0,2.0,38.0,
2042.0,2093.0,1.0,38.0,
2048.0,2101.0,1.0,37.0,
2076.0,2145.0,0,
2095.0,1976.0,0.0,37.0,
2102.0,2053.0,1.0,37.0,
2098.0,2236.0,1.0,37.0,
2066.0,2139.0,1.0,37.0,
2059.0,2038.0,2.0,37.0,
2117.0,1961.0,2.0,37.0,
2077.0,2035.0,1.0,37.0,
2091.0,1972.0,1.0,37.0,
2110.0,2006.0,1.0,37.0,
2083.0,2227.0,2.0,37.0,
2054.0,2297.0,2.0,37.0,
2134.0,2153.0,2.0,37.0,
2079.0,2125.0,2.0,37.0,
2082.0,1934.0,2.0,37.0,
2079.0,2039.0,2.0,37.0,
1998.0,1970.0,1.0,38.0,
1993.0,2004.0,2.0,37.0,
2043.0,2112.0,1.0,37.0,
2027.0,2138.0,1.0,38.0,
2064.0,2094.0,1.0,38.0,
2056.0,2095.0,1.0,38.0,
2061.0,2087.0,1.0,37.0,
2074.0,2066.0,1.0,38.0,
2062.0,2196.0,1.0,37.0,
2067.0,2093.0,1.0,37.0,
2089.0,2045.0,1.0,37.0,
2092.0,2115.0,2.0,37.0,
2061.0,2126.0,2.0,37.0,
2118.0,2090.0,2.0,36.0,
2157.0,2081.0,2.0,36.0,
2087.0,2029.0,2.0,36.0,
2121.0,2073.0,2.0,36.0,
2212.0,2087.0,2.0,35.0,
2088.0,2061.0,2.0,35.0,
2164.0,2060.0,2.0,34.0,
2115.0,2082.0,3.0,34.0,
1959.0,2111.0,3.0,34.0,
2042.0,2050.0,3.0,33.0,
1871.0,1986.0,3.0,33.0,
2232.0,1966.0,3.0,33.0,
2257.0,2223.0,3.0,33.0,
2157.0,2130.0,4.0,32.0,
1904.0,2043.0,4.0,32.0,
1869.0,2101.0,4.0,32.0,
2033.0,2194.0,4.0,33.0,
1977.0,2149.0,5.0,32.0,
1994.0,2016.0,6.0,32.0,
2011.0,2148.0,6.0,32.0,
2167.0,2100.0,7.0,32.0,
2048.0,2162.0,8.0,32.0,
2098.0,1905.0,8.0,32.0,
2199.0,2043.0,8.0,33.0,
2054.0,2136.0,8.0,33.0,
1888.0,2042.0,8.0,33.0,
2001.0,1949.0,8.0,33.0,
2108.0,1981.0,8.0,33.0,
2080.0,2173.0,0,
2041.0,2335.0,8.0,32.0,
2128.0,2151.0,8.0,32.0,
2080.0,1896.0,8.0,32.0,
2113.0,1893.0,8.0,31.0,
2102.0,2070.0,8.0,31.0,
2085.0,2236.0,8.0,31.0,
2092.0,2031.0,8.0,30.0,
2129.0,1928.0,7.0,30.0,
2144.0,2220.0,6.0,30.0,
2155.0,2327.0,5.0,30.0,
2076.0,2132.0,4.0,30.0,
2115.0,2115.0,4.0,30.0,
2030.0,2081.0,0,
2042.0,2223.0,3.0,31.0,
2013.0,2080.0,3.0,31.0,
2058.0,2140.0,3.0,31.0,
2109.0,1982.0,3.0,31.0,
2127.0,2029.0,3.0,31.0,
2123.0,2073.0,3.0,31.0,
2112.0,2049.0,3.0,32.0,
2107.0,1977.0,3.0,32.0,
1973.0,2024.0,3.0,32.0,
2011.0,2073.0,3.0,32.0,
2112.0,2091.0,3.0,32.0,
2067.0,2090.0,3.0,32.0,
2049.0,2084.0,3.0,32.0,
2052.0,2055.0,3.0,32.0,
2055.0,2037.0,3.0,32.0,
2084.0,2046.0,4.0,32.0,
2078.0,2087.0,4.0,31.0,
2127.0,2133.0,4.0,31.0,
2057.0,2115.0,4.0,31.0,
2040.0,2132.0,4.0,31.0,
1974.0,2072.0,5.0,31.0,
2092.0,2080.0,5.0,30.0,
2095.0,2058.0,5.0,30.0,
2084.0,2082.0,5.0,30.0,
