2064.0,2089.0,22.0,-6.0,
2088.0,2095.0,22.0,-6.0,
2082.0,2102.0,22.0,-6.0,
2084.0,2103.0,22.0,-6.0,
2091.0,2095.0,22.0,-6.0,
2087.0,2089.0,22.0,-6.0,
2080.0,2088.0,22.0,-6.0,
2073.0,2065.0,22.0,-6.0,
2061.0,2074.0,22.0,-6.0,
2061.0,2084.0,22.0,-6.0,
2065.0,2088.0,22.0,-6.0,
2067.0,2085.0,22.0,-6.0,
2065.0,2087.0,22.0,-6.0,
2074.0,2086.0,22.0,-6.0,
2069.0,2077.0,22.0,-6.0,
2060.0,2075.0,22.0,-6.0,
2060.0,2068.0,22.0,-6.0,
2061.0,2072.0,22.0,-6.0,
2055.0,2077.0,22.0,-6.0,
2065.0,2083.0,22.0,-6.0,
2072.0,2087.0,22.0,-6.0,
2070.0,2084.0,22.0,-6.0,
2071.0,2082.0,22.0,-6.0,
2076.0,2072.0,22.0,-6.0,
2072.0,2087.0,22.0,-6.0,
2067.0,2087.0,22.0,-6.0,
2066.0,2085.0,22.0,-6.0,
2067.0,2082.0,22.0,-6.0,
2066.0,2089.0,22.0,-6.0,
2069.0,2083.0,22.0,-6.0,
2076.0,2086.0,22.0,-6.0,
2072.0,2088.0,22.0,-6.0,
2078.0,2084.0,22.0,-6.0,
2072.0,2083.0,22.0,-6.0,
2064.0,2077.0,22.0,-6.0,
2062.0,2077.0,22.0,-6.0,
2071.0,2079.0,22.0,-6.0,
2072.0,2084.0,22.0,-6.0,
2073.0,2085.0,22.0,-6.0,
2066.0,2087.0,22.0,-6.0,
2072.0,2097.0,22.0,-6.0,
2068.0,2075.0,22.0,-6.0,
2069.0,2081.0,22.0,-6.0,
2071.0,2079.0,22.0,-6.0,
2054.0,2083.0,22.0,-6.0,
2058.0,2094.0,22.0,-6.0,
2067.0,2096.0,22.0,-6.0,
2068.0,2057.0,22.0,-6.0,
2063.0,2073.0,22.0,-6.0,
2060.0,2077.0,22.0,-6.0,
2063.0,2073.0,22.0,-6.0,
2079.0,2099.0,22.0,-6.0,
2067.0,2080.0,22.0,-6.0,
2078.0,2090.0,22.0,-6.0,
2069.0,2091.0,22.0,-6.0,
2075.0,2097.0,22.0,-6.0,
2070.0,2091.0,22.0,-6.0,
2080.0,2093.0,22.0,-6.0,
2076.0,2091.0,22.0,-6.0,
2070.0,2095.0,22.0,-6.0,
2067.0,2090.0,22.0,-6.0,
2067.0,2078.0,22.0,-6.0,
2064.0,2084.0,22.0,-6.0,
2069.0,2082.0,22.0,-6.0,
2068.0,2097.0,22.0,-6.0,
2070.0,2092.0,22.0,-6.0,
2074.0,2092.0,22.0,-6.0,
2070.0,2082.0,22.0,-6.0,
2068.0,2083.0,22.0,-6.0,
2072.0,2082.0,22.0,-6.0,
2069.0,2076.0,22.0,-6.0,
2067.0,2075.0,22.0,-6.0,
2068.0,2088.0,22.0,-6.0,
2079.0,2091.0,22.0,-6.0,
2064.0,2096.0,22.0,-6.0,
2071.0,2088.0,22.0,-6.0,
2073.0,2085.0,22.0,-6.0,
2072.0,2083.0,22.0,-6.0,
2086.0,2079.0,22.0,-6.0,
2068.0,2076.0,22.0,-6.0,
2062.0,2090.0,22.0,-6.0,
2051.0,2082.0,22.0,-6.0,
2066.0,2091.0,22.0,-6.0,
2075.0,2090.0,22.0,-6.0,
2070.0,2091.0,22.0,-6.0,
2067.0,2093.0,22.0,-6.0,
2063.0,2079.0,22.0,-6.0,
2058.0,2083.0,22.0,-6.0,
2056.0,2081.0,22.0,-6.0,
2046.0,2080.0,22.0,-6.0,
2053.0,2082.0,22.0,-6.0,
2056.0,2088.0,22.0,-6.0,
2059.0,2094.0,22.0,-6.0,
2076.0,2098.0,22.0,-6.0,
2067.0,2086.0,22.0,-6.0,
2069.0,2079.0,22.0,-6.0,
2069.0,2080.0,22.0,-6.0,
2066.0,2079.0,22.0,-7.0,
2063.0,2084.0,22.0,-8.0,
2069.0,2084.0,22.0,-10.0,
2068.0,2094.0,22.0,-8.0,
2062.0,2102.0,22.0,-6.0,
2068.0,2088.0,22.0,-5.0,
2073.0,2081.0,22.0,-5.0,
2066.0,2076.0,22.0,-4.0,
2071.0,2070.0,22.0,-4.0,
2069.0,2084.0,22.0,-4.0,
2057.0,2076.0,22.0,-4.0,
2064.0,2076.0,22.0,-3.0,
2072.0,2087.0,22.0,-1.0,
2086.0,2089.0,22.0,-2.0,
2075.0,2091.0,22.0,-4.0,
2082.0,2093.0,22.0,-5.0,
2089.0,2090.0,22.0,-6.0,
2072.0,2084.0,22.0,-6.0,
2071.0,2072.0,22.0,-6.0,
2072.0,2076.0,0,
2068.0,2083.0,22.0,-6.0,
2079.0,2087.0,22.0,-6.0,
2079.0,2091.0,22.0,-6.0,
2073.0,2087.0,22.0,-6.0,
2077.0,2083.0,22.0,-6.0,
2072.0,2084.0,22.0,-6.0,
2067.0,2078.0,22.0,-6.0,
2070.0,2078.0,22.0,-6.0,
2059.0,2079.0,22.0,-6.0,
2069.0,2086.0,22.0,-6.0,
2071.0,2088.0,22.0,-6.0,
2068.0,2088.0,22.0,-6.0,
2070.0,2087.0,22.0,-6.0,
2072.0,2085.0,22.0,-6.0,
2077.0,2085.0,22.0,-6.0,
2075.0,2085.0,22.0,-6.0,
2066.0,2089.0,22.0,-6.0,
2063.0,2078.0,22.0,-6.0,
2064.0,2085.0,22.0,-6.0,
2066.0,2092.0,22.0,-6.0,
2072.0,2090.0,22.0,-6.0,
2063.0,2087.0,22.0,-6.0,
2073.0,2093.0,22.0,-6.0,
2030.0,2079.0,22.0,-6.0,
2064.0,2083.0,22.0,-6.0,
2068.0,2080.0,22.0,-6.0,
2066.0,2078.0,22.0,-6.0,
2072.0,2087.0,22.0,-6.0,
2070.0,2092.0,22.0,-6.0,
2073.0,2093.0,22.0,-6.0,
2068.0,2088.0,22.0,-6.0,
2072.0,2088.0,22.0,-6.0,
2072.0,2085.0,22.0,-6.0,
2077.0,2079.0,22.0,-6.0,
2073.0,2082.0,22.0,-6.0,
2065.0,2072.0,22.0,-6.0,
2061.0,2075.0,22.0,-6.0,
2066.0,2086.0,22.0,-6.0,
2058.0,2083.0,23.0,-6.0,
2069.0,2087.0,23.0,-6.0,
2071.0,2085.0,23.0,-6.0,
2069.0,2080.0,23.0,-6.0,
2077.0,2082.0,23.0,-6.0,
2066.0,2077.0,23.0,-6.0,
2063.0,2080.0,22.0,-6.0,
2071.0,2083.0,22.0,-6.0,
2077.0,2091.0,22.0,-6.0,
2081.0,2089.0,22.0,-6.0,
2086.0,2094.0,22.0,-6.0,
2077.0,2086.0,22.0,-6.0,
2075.0,2080.0,22.0,-6.0,
2079.0,2082.0,22.0,-6.0,
2071.0,2083.0,22.0,-6.0,
2069.0,2083.0,22.0,-6.0,
2069.0,2086.0,22.0,-6.0,
2071.0,2091.0,22.0,-6.0,
2067.0,2088.0,22.0,-6.0,
2063.0,2083.0,22.0,-6.0,
2069.0,2093.0,22.0,-6.0,
2064.0,2085.0,22.0,-6.0,
2071.0,2082.0,22.0,-6.0,
2063.0,2082.0,22.0,-6.0,
2069.0,2082.0,22.0,-6.0,
2068.0,2077.0,0,
2070.0,2074.0,22.0,-6.0,
2063.0,2092.0,22.0,-6.0,
2070.0,2089.0,22.0,-6.0,
2066.0,2089.0,22.0,-6.0,
2079.0,2085.0,22.0,-6.0,
2071.0,2073.0,22.0,-6.0,
2061.0,2074.0,22.0,-6.0,
2059.0,2075.0,22.0,-6.0,
2067.0,2080.0,22.0,-6.0,
2065.0,2089.0,22.0,-6.0,
2070.0,2092.0,22.0,-6.0,
2077.0,2095.0,22.0,-6.0,
2075.0,2088.0,22.0,-6.0,
2071.0,2086.0,22.0,-6.0,
2074.0,2077.0,22.0,-6.0,
2078.0,2083.0,22.0,-6.0,
2066.0,2077.0,22.0,-6.0,
2058.0,2088.0,22.0,-6.0,
2066.0,2097.0,22.0,-6.0,
2067.0,2089.0,22.0,-6.0,
2079.0,2089.0,22.0,-6.0,
2075.0,2088.0,22.0,-6.0,
2078.0,2085.0,22.0,-6.0,
2081.0,2087.0,22.0,-6.0,
2079.0,2072.0,22.0,-6.0,
2075.0,2076.0,22.0,-6.0,
2070.0,2079.0,22.0,-6.0,
2076.0,2089.0,22.0,-6.0,
2065.0,2091.0,22.0,-6.0,
2071.0,2095.0,22.0,-6.0,
2075.0,2089.0,22.0,-6.0,
2088.0,2090.0,22.0,-6.0,
2065.0,2080.0,22.0,-6.0,
2074.0,2077.0,22.0,-6.0,
2063.0,2077.0,22.0,-6.0,
2065.0,2084.0,22.0,-6.0,
2061.0,2098.0,22.0,-6.0,
2078.0,2085.0,22.0,-6.0,
2074.0,2098.0,22.0,-6.0,
2069.0,2089.0,22.0,-6.0,
2072.0,2084.0,22.0,-6.0,
2070.0,2079.0,22.0,-6.0,
2068.0,2077.0,22.0,-6.0,
2059.0,2081.0,22.0,-6.0,
2063.0,2088.0,22.0,-6.0,
2059.0,2088.0,22.0,-6.0,
2064.0,2089.0,22.0,-6.0,
2061.0,2088.0,22.0,-6.0,
2066.0,2087.0,22.0,-6.0,
2073.0,2083.0,22.0,-6.0,
2069.0,2081.0,22.0,-6.0,
2071.0,2086.0,22.0,-6.0,
2055.0,2076.0,22.0,-6.0,
2068.0,2078.0,22.0,-6.0,
2059.0,2085.0,22.0,-6.0,
2067.0,2088.0,22.0,-6.0,
2071.0,2096.0,22.0,-6.0,
2073.0,2088.0,22.0,-6.0,
2062.0,2086.0,22.0,-6.0,
2064.0,2078.0,22.0,-6.0,
2072.0,2075.0,22.0,-6.0,
2068.0,2085.0,22.0,-6.0,
2065.0,2083.0,22.0,-6.0,
2077.0,2090.0,22.0,-6.0,
2082.0,2099.0,22.0,-6.0,
2074.0,2087.0,22.0,-6.0,
2071.0,2082.0,22.0,-6.0,
2078.0,2084.0,22.0,-6.0,
2082.0,2085.0,22.0,-6.0,
2070.0,2080.0,22.0,-6.0,
2072.0,2075.0,22.0,-6.0,
2064.0,2088.0,22.0,-6.0,
2075.0,2091.0,22.0,-6.0,
2068.0,2094.0,22.0,-6.0,
2073.0,2091.0,22.0,-6.0,
2068.0,2091.0,22.0,-6.0,
2068.0,2086.0,22.0,-6.0,
2075.0,2095.0,22.0,-6.0,
2069.0,2074.0,22.0,-6.0,
2055.0,2082.0,22.0,-6.0,
2054.0,2081.0,22.0,-6.0,
2065.0,2087.0,22.0,-6.0,
2065.0,2089.0,22.0,-6.0,
2074.0,2089.0,22.0,-6.0,
2067.0,2092.0,22.0,-6.0,
2070.0,2077.0,22.0,-6.0,
2067.0,2080.0,22.0,-6.0,
2066.0,2077.0,22.0,-6.0,
2067.0,2076.0,22.0,-6.0,
2058.0,2079.0,22.0,-6.0,
2067.0,2084.0,22.0,-6.0,
2088.0,2085.0,22.0,-6.0,
2065.0,2084.0,22.0,-6.0,
2075.0,2083.0,22.0,-6.0,
2069.0,2081.0,22.0,-6.0,
2071.0,2076.0,22.0,-6.0,
2066.0,2076.0,22.0,-6.0,
2066.0,2081.0,22.0,-6.0,
2057.0,2079.0,22.0,-6.0,
2064.0,2085.0,22.0,-6.0,
2067.0,2087.0,22.0,-6.0,
2073.0,2116.0,22.0,-6.0,
2067.0,2090.0,22.0,-6.0,
2074.0,2082.0,22.0,-6.0,
2073.0,2090.0,22.0,-6.0,
2061.0,2080.0,22.0,-6.0,
2061.0,2078.0,22.0,-6.0,
2065.0,2082.0,22.0,-6.0,
2065.0,2088.0,22.0,-6.0,
2074.0,2089.0,22.0,-6.0,
2083.0,2085.0,22.0,-6.0,
2072.0,2084.0,22.0,-6.0,
2073.0,2080.0,22.0,-6.0,
2067.0,2080.0,22.0,-6.0,
2060.0,2072.0,22.0,-6.0,
2062.0,2072.0,22.0,-6.0,
2061.0,2080.0,22.0,-6.0,
2048.0,2085.0,22.0,-6.0,
2072.0,2087.0,22.0,-6.0,
2069.0,2088.0,22.0,-6.0,
2065.0,2086.0,22.0,-6.0,
2075.0,2088.0,22.0,-6.0,
2069.0,2074.0,22.0,-6.0,
2074.0,2087.0,22.0,-6.0,
2066.0,2081.0,22.0,-6.0,
2073.0,2082.0,22.0,-6.0,
2078.0,2086.0,22.0,-6.0,
2072.0,2091.0,22.0,-6.0,
2071.0,2090.0,22.0,-6.0,
2068.0,2088.0,22.0,-6.0,
2078.0,2087.0,22.0,-6.0,
2069.0,2084.0,22.0,-6.0,
2064.0,2080.0,22.0,-6.0,
2059.0,2083.0,22.0,-6.0,
2060.0,2086.0,22.0,-6.0,
2060.0,2090.0,22.0,-6.0,
2074.0,2094.0,22.0,-6.0,
2068.0,2098.0,22.0,-6.0,
2070.0,2083.0,22.0,-6.0,
2080.0,2081.0,22.0,-6.0,
2064.0,2077.0,22.0,-6.0,
2068.0,2079.0,22.0,-6.0,
2070.0,2076.0,22.0,-6.0,
2060.0,2086.0,22.0,-6.0,
2065.0,2090.0,22.0,-6.0,
2059.0,2087.0,22.0,-6.0,
2064.0,2093.0,22.0,-6.0,
2071.0,2085.0,22.0,-6.0,
2068.0,2083.0,22.0,-6.0,
2058.0,2078.0,22.0,-6.0,
2069.0,2083.0,22.0,-6.0,
2058.0,2082.0,22.0,-6.0,
2051.0,2088.0,22.0,-6.0,
2068.0,2089.0,22.0,-6.0,
2075.0,2092.0,22.0,-6.0,
2077.0,2088.0,22.0,-6.0,
2073.0,2092.0,22.0,-6.0,
2071.0,2094.0,22.0,-6.0,
2075.0,2080.0,22.0,-6.0,
2070.0,2081.0,22.0,-6.0,
2068.0,2076.0,22.0,-6.0,
2077.0,2082.0,22.0,-6.0,
2076.0,2087.0,22.0,-6.0,
2073.0,2093.0,22.0,-6.0,
2065.0,2079.0,22.0,-6.0,
2070.0,2084.0,22.0,-6.0,
2077.0,2084.0,22.0,-6.0,
2067.0,2082.0,22.0,-6.0,
2066.0,2074.0,22.0,-6.0,
2062.0,2078.0,22.0,-6.0,
2073.0,2085.0,22.0,-6.0,
2068.0,2091.0,22.0,-6.0,
2070.0,2091.0,22.0,-6.0,
2070.0,2090.0,22.0,-6.0,
2070.0,2086.0,22.0,-6.0,
2076.0,2087.0,22.0,-6.0,
2068.0,2086.0,22.0,-6.0,
2077.0,2086.0,22.0,-6.0,
2066.0,2083.0,22.0,-6.0,
2071.0,2087.0,22.0,-6.0,
2070.0,2091.0,22.0,-6.0,
2063.0,2093.0,22.0,-6.0,
2071.0,2094.0,22.0,-6.0,
2083.0,2090.0,22.0,-6.0,
2073.0,2088.0,22.0,-6.0,
2080.0,2085.0,22.0,-6.0,
2069.0,2084.0,22.0,-6.0,
2070.0,2081.0,22.0,-6.0,
2074.0,2082.0,22.0,-6.0,
2071.0,2091.0,22.0,-6.0,
2081.0,2092.0,22.0,-6.0,
2071.0,2104.0,22.0,-6.0,
2076.0,2087.0,22.0,-6.0,
2079.0,2083.0,22.0,-6.0,
2074.0,2084.0,22.0,-6.0,
2075.0,2081.0,22.0,-6.0,
2069.0,2078.0,22.0,-6.0,
2069.0,2091.0,22.0,-6.0,
2070.0,2090.0,22.0,-6.0,
2067.0,2091.0,22.0,-6.0,
2065.0,2092.0,22.0,-6.0,
2076.0,2090.0,22.0,-6.0,
2076.0,2101.0,22.0,-6.0,
2069.0,2085.0,22.0,-6.0,
2064.0,2077.0,22.0,-6.0,
2064.0,2079.0,22.0,-6.0,
2057.0,2082.0,22.0,-6.0,
2069.0,2090.0,22.0,-6.0,
2065.0,2091.0,22.0,-6.0,
2068.0,2091.0,22.0,-6.0,
2066.0,2098.0,22.0,-6.0,
2061.0,2086.0,22.0,-6.0,
2067.0,2085.0,22.0,-6.0,
2064.0,2077.0,22.0,-6.0,
2062.0,2083.0,22.0,-6.0,
2054.0,2079.0,22.0,-6.0,
2069.0,2089.0,22.0,-6.0,
2057.0,2091.0,22.0,-6.0,
2077.0,2085.0,22.0,-6.0,
2068.0,2089.0,22.0,-6.0,
2074.0,2084.0,22.0,-6.0,
2067.0,2087.0,22.0,-6.0,
2061.0,2086.0,22.0,-6.0,
2068.0,2086.0,22.0,-6.0,
2063.0,2084.0,22.0,-6.0,
2061.0,2089.0,22.0,-6.0,
2073.0,2091.0,22.0,-6.0,
2072.0,2093.0,22.0,-6.0,
2072.0,2094.0,22.0,-6.0,
2063.0,2089.0,22.0,-6.0,
2076.0,2081.0,22.0,-6.0,
2072.0,2079.0,22.0,-6.0,
2075.0,2077.0,22.0,-6.0,
2071.0,2086.0,22.0,-6.0,
2069.0,2089.0,22.0,-6.0,
2076.0,2086.0,22.0,-6.0,
2077.0,2092.0,22.0,-6.0,
2079.0,2086.0,22.0,-6.0,
2074.0,2083.0,22.0,-6.0,
2070.0,2076.0,22.0,-6.0,
2068.0,2079.0,22.0,-6.0,
2073.0,2083.0,22.0,-6.0,
2067.0,2089.0,22.0,-6.0,
2081.0,2101.0,22.0,-6.0,
2064.0,2083.0,22.0,-6.0,
2062.0,2091.0,22.0,-6.0,
2071.0,2089.0,22.0,-6.0,
2066.0,2085.0,22.0,-6.0,
2064.0,2080.0,22.0,-6.0,
2062.0,2082.0,22.0,-6.0,
2060.0,2081.0,22.0,-6.0,
2060.0,2082.0,22.0,-6.0,
2063.0,2086.0,22.0,-6.0,
2069.0,2074.0,22.0,-6.0,
2068.0,2088.0,22.0,-6.0,
2073.0,2086.0,22.0,-6.0,
2075.0,2088.0,22.0,-6.0,
2074.0,2084.0,22.0,-6.0,
2064.0,2077.0,22.0,-6.0,
2074.0,2078.0,22.0,-6.0,
2070.0,2076.0,22.0,-6.0,
2069.0,2086.0,22.0,-6.0,
2075.0,2091.0,22.0,-6.0,
2075.0,2097.0,22.0,-6.0,
2075.0,2087.0,22.0,-6.0,
2072.0,2084.0,22.0,-6.0,
2069.0,2079.0,22.0,-6.0,
2073.0,2081.0,22.0,-6.0,
2067.0,2085.0,22.0,-6.0,
2076.0,2088.0,22.0,-6.0,
2064.0,2087.0,22.0,-6.0,
2067.0,2091.0,22.0,-6.0,
2069.0,2073.0,22.0,-6.0,
2070.0,2084.0,22.0,-6.0,
2076.0,2081.0,22.0,-6.0,
2071.0,2076.0,22.0,-6.0,
2064.0,2077.0,22.0,-6.0,
2063.0,2073.0,22.0,-6.0,
2065.0,2093.0,22.0,-6.0,
2065.0,2088.0,22.0,-6.0,
2078.0,2092.0,22.0,-6.0,
2080.0,2091.0,22.0,-6.0,
2075.0,2092.0,22.0,-6.0,
2066.0,2087.0,22.0,-6.0,
2069.0,2086.0,22.0,-6.0,
2061.0,2079.0,22.0,-6.0,
2070.0,2077.0,22.0,-6.0,
2065.0,2085.0,22.0,-6.0,
2061.0,2089.0,22.0,-6.0,
2070.0,2095.0,22.0,-6.0,
2064.0,2087.0,22.0,-6.0,
2068.0,2088.0,22.0,-6.0,
2052.0,2082.0,22.0,-6.0,
2068.0,2082.0,22.0,-6.0,
2062.0,2080.0,22.0,-6.0,
2070.0,2082.0,22.0,-6.0,
2057.0,2085.0,22.0,-6.0,
2070.0,2085.0,22.0,-6.0,
2069.0,2083.0,22.0,-6.0,
2069.0,2083.0,22.0,-6.0,
2061.0,2084.0,22.0,-6.0,
2068.0,2085.0,22.0,-6.0,
2074.0,2095.0,22.0,-6.0,
2065.0,2075.0,22.0,-6.0,
2054.0,2076.0,22.0,-6.0,
2059.0,2078.0,22.0,-6.0,
2060.0,2089.0,22.0,-6.0,
2063.0,2090.0,22.0,-6.0,
2069.0,2094.0,22.0,-6.0,
2058.0,2089.0,22.0,-6.0,
2064.0,2089.0,22.0,-6.0,
2063.0,2076.0,22.0,-6.0,
2059.0,2079.0,22.0,-6.0,
2068.0,2082.0,22.0,-6.0,
2066.0,2092.0,22.0,-6.0,
2062.0,2098.0,22.0,-6.0,
2068.0,2092.0,22.0,-6.0,
2069.0,2088.0,22.0,-6.0,
2075.0,2088.0,22.0,-6.0,
2064.0,2084.0,22.0,-6.0,
2066.0,2083.0,22.0,-6.0,
2072.0,2080.0,22.0,-6.0,
2069.0,2079.0,22.0,-6.0,
2068.0,2078.0,22.0,-6.0,
2073.0,2080.0,22.0,-6.0,
2072.0,2092.0,22.0,-6.0,
2071.0,2098.0,22.0,-6.0,
2075.0,2093.0,22.0,-6.0,
2083.0,2088.0,22.0,-6.0,
2064.0,2074.0,22.0,-6.0,
2066.0,2070.0,22.0,-6.0,
2063.0,2081.0,22.0,-6.0,
2064.0,2074.0,22.0,-6.0,
2070.0,2094.0,22.0,-6.0,
2075.0,2088.0,22.0,-6.0,
2080.0,2087.0,22.0,-6.0,
2066.0,2087.0,22.0,-6.0,
2072.0,2090.0,22.0,-6.0,
2069.0,2081.0,22.0,-6.0,
2070.0,2077.0,22.0,-6.0,
2066.0,2080.0,22.0,-6.0,
2066.0,2087.0,22.0,-6.0,
2070.0,2092.0,22.0,-6.0,
2060.0,2090.0,22.0,-6.0,
2063.0,2090.0,22.0,-6.0,
2069.0,2084.0,22.0,-6.0,
2070.0,2080.0,22.0,-6.0,
2075.0,2084.0,22.0,-6.0,
2075.0,2086.0,22.0,-6.0,
2069.0,2084.0,22.0,-6.0,
2063.0,2085.0,22.0,-6.0,
2070.0,2087.0,22.0,-6.0,
2074.0,2088.0,22.0,-6.0,
2060.0,2089.0,22.0,-6.0,
2077.0,2085.0,22.0,-6.0,
2069.0,2080.0,22.0,-6.0,
2074.0,2076.0,22.0,-6.0,
2067.0,2078.0,22.0,-6.0,
2058.0,2086.0,22.0,-6.0,
2060.0,2078.0,22.0,-6.0,
2056.0,2097.0,22.0,-6.0,
2077.0,2100.0,22.0,-6.0,
2066.0,2094.0,22.0,-6.0,
2064.0,2082.0,22.0,-6.0,
2066.0,2076.0,22.0,-6.0,
2062.0,2080.0,22.0,-6.0,
2061.0,2083.0,22.0,-6.0,
2058.0,2081.0,22.0,-6.0,
2056.0,2094.0,22.0,-6.0,
2059.0,2085.0,22.0,-6.0,
2070.0,2072.0,22.0,-6.0,
2065.0,2083.0,22.0,-6.0,
2057.0,2080.0,22.0,-6.0,
2074.0,2094.0,22.0,-6.0,
2074.0,2095.0,22.0,-6.0,
2071.0,2083.0,0,
2069.0,2082.0,22.0,-6.0,
2072.0,2087.0,22.0,-6.0,
2067.0,2107.0,22.0,-6.0,
2075.0,2097.0,22.0,-6.0,
2067.0,2086.0,22.0,-6.0,
2082.0,2111.0,22.0,-6.0,
2069.0,2121.0,22.0,-6.0,
2058.0,2126.0,22.0,-6.0,
2064.0,2110.0,22.0,-6.0,
2065.0,2027.0,22.0,-6.0,
2054.0,2046.0,22.0,-6.0,
2075.0,2065.0,22.0,-6.0,
2076.0,2060.0,22.0,-6.0,
2070.0,2055.0,22.0,-6.0,
2077.0,2079.0,22.0,-6.0,
2084.0,2071.0,22.0,-6.0,
2073.0,2078.0,22.0,-6.0,
2076.0,2086.0,22.0,-6.0,
2077.0,2091.0,22.0,-6.0,
2083.0,2103.0,22.0,-6.0,
2060.0,2099.0,22.0,-6.0,
2067.0,2125.0,22.0,-6.0,
2055.0,2078.0,22.0,-6.0,
2061.0,2053.0,22.0,-6.0,
2071.0,2098.0,22.0,-6.0,
2067.0,2117.0,22.0,-6.0,
2062.0,2059.0,22.0,-6.0,
2064.0,2054.0,22.0,-6.0,
2060.0,2067.0,22.0,-6.0,
2057.0,2111.0,22.0,-6.0,
2069.0,2091.0,22.0,-6.0,
2082.0,2087.0,22.0,-6.0,
2076.0,2082.0,22.0,-6.0,
2097.0,2111.0,22.0,-6.0,
2082.0,2130.0,22.0,-6.0,
2045.0,2080.0,22.0,-6.0,
2069.0,2078.0,22.0,-6.0,
2080.0,2107.0,22.0,-6.0,
2072.0,2064.0,22.0,-6.0,
2084.0,2110.0,22.0,-6.0,
1964.0,2105.0,22.0,-6.0,
2006.0,2115.0,22.0,-6.0,
2057.0,1991.0,22.0,-6.0,
2069.0,1881.0,22.0,-6.0,
2073.0,2024.0,22.0,-6.0,
2071.0,2220.0,22.0,-5.0,
2095.0,2151.0,22.0,-5.0,
2100.0,2167.0,22.0,-5.0,
2105.0,2081.0,0,
2037.0,2006.0,23.0,-5.0,
2040.0,2036.0,23.0,-5.0,
2055.0,2192.0,23.0,-5.0,
2059.0,2107.0,23.0,-5.0,
2064.0,2124.0,23.0,-5.0,
2068.0,2104.0,22.0,-5.0,
2065.0,2094.0,22.0,-5.0,
2079.0,2055.0,22.0,-5.0,
2084.0,2087.0,22.0,-5.0,
2058.0,2091.0,22.0,-5.0,
2075.0,2091.0,22.0,-5.0,
2075.0,2051.0,22.0,-5.0,
2072.0,1985.0,22.0,-5.0,
2073.0,2167.0,21.0,-5.0,
2071.0,2120.0,21.0,-5.0,
2077.0,2098.0,21.0,-6.0,
2063.0,2115.0,21.0,-6.0,
2060.0,2091.0,22.0,-6.0,
2069.0,2055.0,22.0,-6.0,
2082.0,2047.0,22.0,-6.0,
2078.0,2069.0,22.0,-6.0,
2087.0,2101.0,22.0,-6.0,
2087.0,2055.0,22.0,-6.0,
2075.0,2058.0,22.0,-6.0,
2070.0,2079.0,22.0,-6.0,
2072.0,2102.0,22.0,-6.0,
2073.0,2051.0,22.0,-6.0,
2097.0,2034.0,22.0,-6.0,
2109.0,2096.0,23.0,-6.0,
2065.0,2095.0,23.0,-6.0,
2056.0,2098.0,23.0,-6.0,
2042.0,2084.0,23.0,-6.0,
2079.0,2125.0,23.0,-6.0,
2100.0,2208.0,23.0,-5.0,
2093.0,2126.0,23.0,-5.0,
2073.0,2089.0,23.0,-5.0,
2015.0,1986.0,23.0,-5.0,
2039.0,1966.0,23.0,-5.0,
2096.0,1876.0,23.0,-5.0,
2086.0,1974.0,23.0,-5.0,
2066.0,2207.0,23.0,-5.0,
1997.0,2239.0,23.0,-4.0,
2003.0,2193.0,23.0,-4.0,
2051.0,2142.0,22.0,-4.0,
2071.0,1965.0,22.0,-4.0,
2092.0,2054.0,23.0,-4.0,
1981.0,2036.0,23.0,-4.0,
2023.0,2093.0,23.0,-5.0,
2042.0,2244.0,23.0,-5.0,
2034.0,2234.0,23.0,-5.0,
2050.0,2247.0,23.0,-5.0,
2093.0,2041.0,23.0,-4.0,
2102.0,2174.0,23.0,-4.0,
2081.0,2149.0,23.0,-4.0,
2089.0,2018.0,23.0,-4.0,
2094.0,1946.0,23.0,-4.0,
2120.0,1940.0,23.0,-4.0,
2081.0,1992.0,23.0,-4.0,
2086.0,2044.0,23.0,-4.0,
2085.0,2080.0,23.0,-5.0,
2080.0,2068.0,23.0,-5.0,
2078.0,2074.0,23.0,-5.0,
2079.0,2079.0,24.0,-5.0,
2078.0,2081.0,24.0,-5.0,
2075.0,2120.0,24.0,-5.0,
2079.0,2093.0,24.0,-5.0,
2084.0,2081.0,24.0,-5.0,
2083.0,2080.0,23.0,-6.0,
2091.0,2124.0,23.0,-6.0,
2065.0,2120.0,23.0,-6.0,
2073.0,2122.0,23.0,-6.0,
2075.0,2094.0,23.0,-6.0,
2040.0,2044.0,23.0,-7.0,
2073.0,2044.0,23.0,-7.0,
2088.0,2034.0,22.0,-7.0,
2066.0,2045.0,22.0,-7.0,
2080.0,2098.0,22.0,-7.0,
2083.0,2147.0,22.0,-7.0,
2072.0,2121.0,22.0,-8.0,
2076.0,2112.0,22.0,-8.0,
2088.0,2133.0,22.0,-8.0,
2123.0,2109.0,22.0,-8.0,
2087.0,2037.0,22.0,-8.0,
2070.0,2025.0,22.0,-8.0,
2020.0,1987.0,22.0,-8.0,
2007.0,2075.0,22.0,-8.0,
2072.0,2001.0,22.0,-8.0,
2040.0,1971.0,22.0,-8.0,
2063.0,2070.0,22.0,-8.0,
2037.0,2179.0,22.0,-7.0,
2017.0,2437.0,22.0,-7.0,
2094.0,2324.0,22.0,-7.0,
2088.0,2222.0,22.0,-7.0,
2079.0,2020.0,22.0,-7.0,
2070.0,2000.0,22.0,-6.0,
2068.0,2016.0,22.0,-6.0,
2078.0,1963.0,22.0,-6.0,
2078.0,1960.0,22.0,-6.0,
2032.0,2008.0,22.0,-6.0,
2031.0,1980.0,22.0,-6.0,
2046.0,2040.0,22.0,-7.0,
2055.0,2190.0,22.0,-7.0,
2078.0,2106.0,22.0,-7.0,
2061.0,2074.0,22.0,-7.0,
2089.0,2053.0,22.0,-7.0,
2084.0,2178.0,22.0,-7.0,
2083.0,2162.0,22.0,-7.0,
2088.0,2214.0,22.0,-7.0,
2088.0,2110.0,22.0,-6.0,
2063.0,2106.0,22.0,-6.0,
2045.0,2038.0,22.0,-6.0,
2044.0,2017.0,22.0,-7.0,
2071.0,2061.0,21.0,-8.0,
2075.0,2089.0,21.0,-8.0,
2080.0,2058.0,21.0,-8.0,
2062.0,2025.0,21.0,-8.0,
2041.0,2039.0,21.0,-9.0,
2066.0,2029.0,21.0,-9.0,
2076.0,2078.0,21.0,-10.0,
2091.0,2097.0,21.0,-11.0,
2079.0,2094.0,21.0,-11.0,
2086.0,2121.0,21.0,-11.0,
2105.0,2086.0,21.0,-11.0,
2081.0,2095.0,21.0,-11.0,
2063.0,2073.0,21.0,-11.0,
2090.0,2107.0,22.0,-12.0,
2098.0,2104.0,22.0,-12.0,
2086.0,2076.0,22.0,-12.0,
2076.0,2023.0,22.0,-13.0,
2056.0,1963.0,22.0,-13.0,
2075.0,2169.0,22.0,-13.0,
2035.0,2216.0,22.0,-13.0,
2048.0,2106.0,22.0,-12.0,
2074.0,2236.0,22.0,-13.0,
2064.0,2217.0,22.0,-13.0,
2083.0,2089.0,23.0,-14.0,
2125.0,2073.0,23.0,-14.0,
2082.0,1955.0,23.0,-14.0,
2097.0,2059.0,23.0,-14.0,
1997.0,2136.0,23.0,-14.0,
2028.0,2054.0,23.0,-15.0,
2072.0,1916.0,24.0,-15.0,
2055.0,1860.0,24.0,-15.0,
2080.0,2124.0,24.0,-15.0,
2125.0,2095.0,24.0,-15.0,
2106.0,2094.0,24.0,-14.0,
2112.0,2107.0,25.0,-14.0,
2019.0,2180.0,25.0,-14.0,
2000.0,2119.0,25.0,-14.0,
2001.0,2125.0,25.0,-13.0,
2049.0,2168.0,25.0,-13.0,
2081.0,2148.0,25.0,-13.0,
2094.0,2153.0,25.0,-12.0,
2101.0,2015.0,25.0,-12.0,
2065.0,2025.0,25.0,-11.0,
2084.0,2121.0,25.0,-11.0,
2102.0,2127.0,25.0,-11.0,
2059.0,2044.0,25.0,-12.0,
2009.0,1949.0,25.0,-12.0,
2053.0,2005.0,25.0,-12.0,
2047.0,2094.0,26.0,-12.0,
2076.0,2062.0,26.0,-13.0,
2068.0,1947.0,26.0,-13.0,
2056.0,2170.0,26.0,-13.0,
2071.0,2301.0,26.0,-15.0,
2064.0,2184.0,26.0,-15.0,
2085.0,2019.0,26.0,-15.0,
2106.0,2000.0,26.0,-15.0,
2100.0,2027.0,26.0,-15.0,
2080.0,2193.0,26.0,-15.0,
2033.0,2120.0,26.0,-15.0,
2086.0,2101.0,26.0,-16.0,
2111.0,2059.0,0,
2060.0,2093.0,26.0,-16.0,
2035.0,2105.0,25.0,-16.0,
2055.0,2082.0,25.0,-16.0,
2056.0,2054.0,25.0,-16.0,
2062.0,2067.0,25.0,-17.0,
2079.0,2103.0,25.0,-17.0,
2090.0,2053.0,25.0,-17.0,
2100.0,2052.0,25.0,-17.0,
2069.0,2083.0,25.0,-17.0,
2048.0,2114.0,25.0,-18.0,
2083.0,2043.0,25.0,-18.0,
2067.0,2030.0,25.0,-18.0,
2078.0,2086.0,25.0,-18.0,
2067.0,2185.0,25.0,-18.0,
2050.0,2147.0,25.0,-19.0,
2076.0,2014.0,25.0,-19.0,
2107.0,1979.0,25.0,-19.0,
2108.0,2160.0,0,
2094.0,2116.0,25.0,-19.0,
2065.0,2154.0,25.0,-19.0,
2041.0,2101.0,25.0,-19.0,
2004.0,2037.0,25.0,-19.0,
2041.0,1995.0,25.0,-19.0,
2058.0,2110.0,26.0,-19.0,
2123.0,2144.0,26.0,-19.0,
2115.0,2152.0,26.0,-19.0,
2076.0,2045.0,26.0,-19.0,
2057.0,2060.0,26.0,-19.0,
2082.0,1997.0,26.0,-19.0,
2106.0,2130.0,26.0,-19.0,
2006.0,2148.0,27.0,-19.0,
2000.0,2055.0,27.0,-19.0,
2024.0,2051.0,27.0,-19.0,
2091.0,2177.0,27.0,-19.0,
2055.0,2139.0,27.0,-19.0,
2035.0,2050.0,27.0,-19.0,
2023.0,2085.0,27.0,-19.0,
2042.0,2039.0,27.0,-19.0,
2060.0,2085.0,27.0,-19.0,
2099.0,2117.0,27.0,-19.0,
2116.0,1992.0,27.0,-19.0,
2102.0,2026.0,27.0,-19.0,
2092.0,2079.0,27.0,-19.0,
2046.0,2090.0,27.0,-19.0,
2059.0,2043.0,27.0,-19.0,
2044.0,2060.0,28.0,-19.0,
2060.0,2089.0,28.0,-19.0,
2072.0,2090.0,28.0,-19.0,
2087.0,2047.0,28.0,-19.0,
2113.0,2059.0,27.0,-19.0,
2117.0,1992.0,27.0,-17.0,
2070.0,2070.0,27.0,-18.0,
2049.0,2210.0,27.0,-19.0,
2026.0,2310.0,27.0,-20.0,
2048.0,2113.0,27.0,-21.0,
2066.0,2071.0,27.0,-21.0,
2095.0,2078.0,27.0,-21.0,
2068.0,2000.0,27.0,-21.0,
2002.0,1911.0,27.0,-22.0,
2052.0,2007.0,27.0,-22.0,
2121.0,2239.0,27.0,-24.0,
2073.0,2112.0,27.0,-24.0,
2085.0,2012.0,26.0,-23.0,
2066.0,1963.0,26.0,-22.0,
2104.0,2259.0,26.0,-22.0,
2020.0,2121.0,26.0,-22.0,
2067.0,2092.0,26.0,-22.0,
2077.0,2052.0,25.0,-22.0,
2103.0,2051.0,25.0,-22.0,
2099.0,2047.0,25.0,-22.0,
2077.0,2331.0,25.0,-22.0,
2088.0,2185.0,25.0,-22.0,
2077.0,2108.0,25.0,-22.0,
2104.0,2023.0,25.0,-22.0,
2072.0,1980.0,25.0,-22.0,
2054.0,2129.0,25.0,-22.0,
2109.0,2062.0,25.0,-23.0,
2132.0,1990.0,25.0,-23.0,
2148.0,2070.0,25.0,-23.0,
1996.0,2170.0,25.0,-23.0,
1886.0,2037.0,25.0,-23.0,
1992.0,2233.0,25.0,-23.0,
2039.0,2167.0,25.0,-23.0,
2024.0,2042.0,25.0,-23.0,
2081.0,2071.0,25.0,-23.0,
2094.0,2063.0,25.0,-23.0,
2122.0,2041.0,25.0,-23.0,
2126.0,2069.0,25.0,-23.0,
2109.0,2048.0,25.0,-23.0,
2056.0,1970.0,25.0,-24.0,
2087.0,2048.0,25.0,-24.0,
2059.0,2165.0,26.0,-24.0,
2022.0,2043.0,26.0,-24.0,
2078.0,2098.0,26.0,-25.0,
2060.0,2123.0,26.0,-25.0,
2077.0,2130.0,26.0,-26.0,
2095.0,2038.0,26.0,-26.0,
2132.0,2018.0,26.0,-26.0,
2157.0,2117.0,26.0,-27.0,
2063.0,2122.0,27.0,-27.0,
1995.0,2029.0,26.0,-27.0,
2041.0,1825.0,26.0,-27.0,
2114.0,2168.0,27.0,-28.0,
2122.0,2168.0,26.0,-28.0,
2031.0,2263.0,27.0,-28.0,
2061.0,1993.0,27.0,-28.0,
2106.0,2067.0,27.0,-28.0,
2077.0,2252.0,27.0,-29.0,
2062.0,2247.0,27.0,-29.0,
2106.0,2165.0,27.0,-29.0,
2088.0,2130.0,26.0,-29.0,
2105.0,2182.0,26.0,-29.0,
2012.0,1911.0,26.0,-29.0,
2071.0,1934.0,26.0,-28.0,
1962.0,1943.0,26.0,-28.0,
1989.0,1940.0,26.0,-28.0,
2047.0,1970.0,26.0,-28.0,
2040.0,2160.0,26.0,-28.0,
2075.0,2297.0,26.0,-28.0,
2087.0,2158.0,26.0,-28.0,
2067.0,2116.0,26.0,-28.0,
2106.0,2060.0,26.0,-28.0,
2179.0,2034.0,26.0,-29.0,
2129.0,2133.0,26.0,-29.0,
2056.0,2027.0,26.0,-29.0,
1950.0,2019.0,26.0,-30.0,
2048.0,2105.0,26.0,-30.0,
2072.0,2057.0,26.0,-31.0,
2043.0,1953.0,26.0,-31.0,
2081.0,2031.0,26.0,-31.0,
2028.0,1981.0,26.0,-32.0,
2071.0,1888.0,27.0,-32.0,
2127.0,2207.0,27.0,-32.0,
2117.0,2422.0,26.0,-33.0,
2085.0,2157.0,26.0,-33.0,
2083.0,2106.0,26.0,-33.0,
2138.0,2146.0,26.0,-34.0,
2098.0,2093.0,26.0,-34.0,
2046.0,1964.0,26.0,-34.0,
1994.0,2024.0,26.0,-34.0,
2069.0,2040.0,26.0,-35.0,
2054.0,2059.0,26.0,-35.0,
2032.0,2112.0,26.0,-35.0,
2080.0,2149.0,26.0,-35.0,
2111.0,2138.0,26.0,-35.0,
2061.0,2042.0,26.0,-35.0,
2055.0,2079.0,26.0,-35.0,
2038.0,2080.0,26.0,-35.0,
2025.0,2110.0,26.0,-35.0,
2132.0,2072.0,26.0,-35.0,
2151.0,2037.0,26.0,-35.0,
2122.0,2085.0,25.0,-36.0,
2011.0,2088.0,25.0,-36.0,
2047.0,2164.0,25.0,-36.0,
2084.0,2061.0,25.0,-36.0,
2062.0,1926.0,25.0,-36.0,
2068.0,1962.0,25.0,-37.0,
1993.0,2319.0,25.0,-37.0,
2056.0,2131.0,25.0,-37.0,
2079.0,1991.0,25.0,-38.0,
2067.0,1939.0,25.0,-38.0,
2025.0,2117.0,25.0,-38.0,
2051.0,2117.0,25.0,-38.0,
2093.0,2001.0,25.0,-38.0,
2152.0,1938.0,25.0,-39.0,
2123.0,2064.0,25.0,-39.0,
2084.0,2266.0,25.0,-39.0,
2035.0,2049.0,25.0,-39.0,
2099.0,2293.0,25.0,-39.0,
2113.0,2203.0,25.0,-39.0,
2022.0,2084.0,25.0,-39.0,
1961.0,1898.0,25.0,-39.0,
2045.0,2104.0,25.0,-39.0,
2045.0,2143.0,25.0,-38.0,
2036.0,2110.0,25.0,-38.0,
2059.0,2160.0,25.0,-38.0,
2059.0,2062.0,25.0,-38.0,
2094.0,2140.0,25.0,-38.0,
2094.0,2050.0,25.0,-38.0,
2091.0,2171.0,25.0,-38.0,
2039.0,2168.0,25.0,-38.0,
2111.0,2058.0,24.0,-38.0,
2099.0,1936.0,24.0,-39.0,
2040.0,1877.0,24.0,-39.0,
2054.0,1925.0,24.0,-40.0,
2069.0,2147.0,24.0,-40.0,
2081.0,2093.0,24.0,-40.0,
2113.0,2206.0,24.0,-41.0,
2001.0,2154.0,24.0,-41.0,
2062.0,2110.0,24.0,-41.0,
2040.0,2019.0,24.0,-42.0,
2110.0,1958.0,24.0,-42.0,
2108.0,2055.0,24.0,-42.0,
2103.0,2136.0,24.0,-42.0,
2032.0,1977.0,24.0,-42.0,
2074.0,1999.0,24.0,-42.0,
2051.0,2047.0,24.0,-42.0,
2050.0,2236.0,24.0,-42.0,
2030.0,2112.0,24.0,-42.0,
2076.0,2042.0,24.0,-42.0,
2064.0,2222.0,24.0,-42.0,
2103.0,2248.0,23.0,-42.0,
2132.0,2246.0,23.0,-42.0,
1956.0,2121.0,23.0,-42.0,
2116.0,2124.0,23.0,-43.0,
2151.0,2173.0,23.0,-43.0,
1965.0,2070.0,23.0,-43.0,
2029.0,2137.0,23.0,-43.0,
2056.0,1966.0,23.0,-43.0,
2057.0,1996.0,23.0,-44.0,
2092.0,1986.0,23.0,-44.0,
2101.0,2239.0,23.0,-44.0,
2054.0,2147.0,23.0,-44.0,
2105.0,2103.0,24.0,-44.0,
2049.0,1821.0,24.0,-44.0,
2089.0,1884.0,24.0,-45.0,
2081.0,2044.0,24.0,-45.0,
2080.0,1904.0,24.0,-45.0,
2068.0,2103.0,24.0,-45.0,
2123.0,1992.0,24.0,-45.0,
2078.0,2152.0,24.0,-45.0,
2057.0,2150.0,23.0,-45.0,
2102.0,2168.0,23.0,-45.0,
2076.0,2117.0,24.0,-45.0,
1954.0,1977.0,23.0,-45.0,
2088.0,2122.0,23.0,-45.0,
2110.0,1989.0,23.0,-45.0,
2052.0,2065.0,23.0,-45.0,
2075.0,2138.0,0,
1989.0,2097.0,23.0,-45.0,
2028.0,2266.0,23.0,-45.0,
2142.0,2223.0,24.0,-46.0,
2192.0,2123.0,24.0,-46.0,
2083.0,2139.0,24.0,-46.0,
1990.0,2146.0,24.0,-46.0,
1990.0,1957.0,24.0,-46.0,
2071.0,1993.0,24.0,-47.0,
2094.0,1860.0,24.0,-47.0,
2107.0,2116.0,24.0,-47.0,
2081.0,2151.0,24.0,-47.0,
2043.0,2133.0,24.0,-47.0,
2083.0,1994.0,0,
2097.0,2045.0,24.0,-47.0,
2166.0,2133.0,24.0,-47.0,
2012.0,2047.0,24.0,-47.0,
1874.0,2119.0,24.0,-47.0,
2010.0,2107.0,24.0,-47.0,
2084.0,1944.0,24.0,-47.0,
2108.0,1981.0,24.0,-47.0,
2108.0,2024.0,24.0,-47.0,
2056.0,2256.0,23.0,-47.0,
2030.0,2078.0,23.0,-47.0,
2091.0,2207.0,23.0,-48.0,
2085.0,2097.0,23.0,-48.0,
2143.0,2061.0,24.0,-48.0,
2189.0,2067.0,24.0,-48.0,
2072.0,1906.0,23.0,-48.0,
1992.0,2141.0,23.0,-48.0,
2132.0,2228.0,23.0,-48.0,
2009.0,2190.0,23.0,-48.0,
1992.0,2163.0,23.0,-48.0,
1975.0,1903.0,23.0,-49.0,
2074.0,2016.0,23.0,-49.0,
2082.0,2109.0,23.0,-49.0,
2122.0,2192.0,23.0,-49.0,
2036.0,2261.0,23.0,-49.0,
2010.0,2240.0,23.0,-49.0,
2116.0,2059.0,23.0,-49.0,
2158.0,1766.0,23.0,-49.0,
2116.0,1863.0,23.0,-49.0,
2025.0,2135.0,23.0,-49.0,
2029.0,2116.0,23.0,-49.0,
2105.0,2004.0,23.0,-49.0,
2014.0,2091.0,23.0,-49.0,
1948.0,2075.0,23.0,-49.0,
2079.0,2264.0,24.0,-49.0,
2089.0,1896.0,24.0,-49.0,
2026.0,2099.0,24.0,-49.0,
2073.0,2119.0,24.0,-49.0,
2091.0,2094.0,24.0,-49.0,
2112.0,1910.0,24.0,-49.0,
2162.0,2071.0,24.0,-49.0,
2116.0,2313.0,24.0,-49.0,
2149.0,2206.0,24.0,-50.0,
2091.0,2151.0,24.0,-50.0,
2033.0,2094.0,24.0,-50.0,
2016.0,2100.0,24.0,-51.0,
2056.0,2086.0,24.0,-51.0,
2041.0,2044.0,24.0,-52.0,
2125.0,1988.0,24.0,-52.0,
2091.0,1984.0,24.0,-52.0,
2132.0,2087.0,24.0,-53.0,
2009.0,1960.0,24.0,-53.0,
2037.0,2051.0,24.0,-53.0,
2098.0,2491.0,24.0,-53.0,
1952.0,2103.0,24.0,-53.0,
2094.0,1869.0,24.0,-53.0,
2134.0,2032.0,23.0,-53.0,
2035.0,2098.0,23.0,-53.0,
2060.0,2171.0,23.0,-53.0,
1998.0,1826.0,23.0,-53.0,
2083.0,2096.0,23.0,-53.0,
2070.0,1920.0,23.0,-53.0,
2111.0,2216.0,23.0,-53.0,
2055.0,2057.0,23.0,-53.0,
2193.0,2191.0,23.0,-53.0,
1945.0,2039.0,23.0,-52.0,
1990.0,2109.0,23.0,-52.0,
2025.0,1952.0,24.0,-52.0,
2096.0,2247.0,23.0,-52.0,
2027.0,2352.0,24.0,-52.0,
2105.0,2099.0,24.0,-52.0,
2149.0,2272.0,23.0,-52.0,
1936.0,1895.0,24.0,-52.0,
2080.0,2191.0,24.0,-53.0,
2055.0,2166.0,24.0,-53.0,
2084.0,1904.0,24.0,-53.0,
2079.0,2160.0,24.0,-53.0,
2099.0,2049.0,24.0,-53.0,
2084.0,1999.0,24.0,-53.0,
2076.0,2104.0,24.0,-53.0,
2078.0,2086.0,24.0,-53.0,
2087.0,2189.0,24.0,-53.0,
2060.0,2074.0,24.0,-53.0,
2053.0,2027.0,24.0,-53.0,
2103.0,2024.0,24.0,-53.0,
2090.0,2090.0,24.0,-53.0,
2068.0,2114.0,24.0,-53.0,
2053.0,2147.0,24.0,-53.0,
2072.0,2087.0,24.0,-54.0,
2044.0,1842.0,24.0,-54.0,
2076.0,1933.0,24.0,-54.0,
2057.0,2255.0,24.0,-55.0,
2074.0,2141.0,24.0,-55.0,
2080.0,1979.0,24.0,-55.0,
2040.0,1917.0,23.0,-56.0,
2081.0,2224.0,23.0,-56.0,
2098.0,2184.0,23.0,-56.0,
2062.0,2189.0,23.0,-56.0,
2080.0,2032.0,23.0,-57.0,
2078.0,1962.0,23.0,-57.0,
2059.0,2123.0,23.0,-57.0,
2104.0,2236.0,23.0,-57.0,
2109.0,2144.0,23.0,-57.0,
2124.0,1972.0,23.0,-57.0,
1974.0,1978.0,23.0,-57.0,
2050.0,2214.0,23.0,-57.0,
2046.0,2195.0,24.0,-57.0,
2077.0,1943.0,24.0,-57.0,
2096.0,1855.0,24.0,-57.0,
1995.0,2102.0,24.0,-57.0,
2035.0,2390.0,24.0,-57.0,
2098.0,2190.0,24.0,-57.0,
2096.0,2028.0,23.0,-57.0,
2142.0,2108.0,23.0,-57.0,
2119.0,2135.0,23.0,-57.0,
2045.0,2100.0,23.0,-57.0,
2007.0,1951.0,23.0,-56.0,
2010.0,1972.0,23.0,-56.0,
1980.0,1903.0,23.0,-56.0,
2026.0,2035.0,23.0,-55.0,
2083.0,2383.0,23.0,-55.0,
2092.0,2038.0,23.0,-55.0,
2106.0,2081.0,23.0,-54.0,
2102.0,2093.0,23.0,-54.0,
2084.0,2037.0,23.0,-53.0,
2080.0,2119.0,23.0,-53.0,
2044.0,2176.0,22.0,-52.0,
2057.0,2117.0,22.0,-52.0,
2076.0,1913.0,23.0,-51.0,
2089.0,2007.0,23.0,-51.0,
2060.0,2086.0,23.0,-51.0,
2091.0,2043.0,23.0,-51.0,
2045.0,2171.0,24.0,-50.0,
2057.0,2029.0,24.0,-50.0,
2051.0,2026.0,24.0,-50.0,
2071.0,1988.0,24.0,-50.0,
2083.0,2060.0,24.0,-50.0,
2074.0,2175.0,25.0,-50.0,
2072.0,2129.0,25.0,-50.0,
2052.0,2069.0,25.0,-50.0,
2081.0,2108.0,25.0,-50.0,
2077.0,2097.0,25.0,-51.0,
2111.0,2062.0,24.0,-51.0,
2054.0,2012.0,24.0,-51.0,
2067.0,2065.0,24.0,-51.0,
2099.0,1801.0,24.0,-51.0,
2091.0,2186.0,24.0,-51.0,
2101.0,2194.0,23.0,-51.0,
2021.0,2268.0,23.0,-51.0,
1980.0,2388.0,23.0,-51.0,
2049.0,2218.0,23.0,-51.0,
2066.0,2035.0,22.0,-51.0,
2069.0,2030.0,22.0,-51.0,
2060.0,2038.0,22.0,-51.0,
2082.0,2051.0,22.0,-51.0,
2085.0,2004.0,21.0,-51.0,
2123.0,2109.0,21.0,-51.0,
2073.0,1947.0,21.0,-50.0,
2122.0,2033.0,21.0,-50.0,
2109.0,2185.0,21.0,-50.0,
1986.0,2031.0,21.0,-50.0,
2049.0,2132.0,20.0,-50.0,
2064.0,2120.0,20.0,-49.0,
2058.0,1970.0,20.0,-49.0,
2081.0,2080.0,21.0,-49.0,
2032.0,2104.0,21.0,-49.0,
2076.0,2029.0,21.0,-49.0,
2094.0,1861.0,21.0,-49.0,
2100.0,1904.0,21.0,-48.0,
2103.0,2190.0,21.0,-48.0,
2106.0,2191.0,21.0,-48.0,
2063.0,2165.0,21.0,-47.0,
2074.0,2231.0,21.0,-47.0,
2059.0,2148.0,22.0,-47.0,
2055.0,2060.0,22.0,-47.0,
2082.0,2001.0,22.0,-46.0,
2062.0,2043.0,22.0,-46.0,
2086.0,2140.0,22.0,-46.0,
2084.0,2126.0,22.0,-46.0,
2029.0,2082.0,22.0,-46.0,
2025.0,2039.0,22.0,-46.0,
2062.0,2106.0,22.0,-46.0,
2057.0,2002.0,22.0,-46.0,
2065.0,1931.0,22.0,-46.0,
2081.0,2156.0,22.0,-46.0,
2075.0,2140.0,22.0,-46.0,
2093.0,2044.0,22.0,-46.0,
2070.0,2197.0,22.0,-47.0,
2054.0,2122.0,22.0,-47.0,
2093.0,2117.0,22.0,-47.0,
2087.0,1988.0,22.0,-47.0,
2097.0,2049.0,22.0,-47.0,
2055.0,2006.0,22.0,-48.0,
2082.0,2285.0,22.0,-48.0,
2085.0,2155.0,22.0,-48.0,
2096.0,2074.0,22.0,-48.0,
2066.0,2116.0,22.0,-49.0,
2020.0,2179.0,22.0,-49.0,
2053.0,2059.0,22.0,-49.0,
2078.0,2114.0,22.0,-49.0,
2088.0,2070.0,22.0,-49.0,
2068.0,1914.0,22.0,-50.0,
2065.0,1926.0,22.0,-50.0,
2083.0,2096.0,22.0,-50.0,
2081.0,2177.0,21.0,-50.0,
2067.0,1934.0,21.0,-50.0,
2061.0,2083.0,21.0,-50.0,
2117.0,2311.0,21.0,-50.0,
2109.0,2148.0,21.0,-51.0,
2033.0,1928.0,21.0,-51.0,
2042.0,2069.0,21.0,-51.0,
2051.0,2107.0,21.0,-51.0,
2086.0,2172.0,21.0,-51.0,
1990.0,2091.0,21.0,-51.0,
2102.0,2083.0,21.0,-50.0,
2036.0,2118.0,21.0,-50.0,
2071.0,2077.0,20.0,-50.0,
2054.0,2013.0,20.0,-49.0,
2086.0,1908.0,20.0,-48.0,
2075.0,2088.0,20.0,-48.0,
2044.0,2131.0,20.0,-47.0,
2018.0,2098.0,20.0,-46.0,
2060.0,2079.0,20.0,-45.0,
2085.0,1897.0,19.0,-44.0,
2070.0,1997.0,19.0,-43.0,
2082.0,2139.0,20.0,-42.0,
2096.0,2413.0,20.0,-41.0,
2086.0,2218.0,20.0,-40.0,
2070.0,2146.0,21.0,-39.0,
2082.0,2018.0,21.0,-39.0,
2089.0,2083.0,22.0,-38.0,
2097.0,2168.0,22.0,-38.0,
2090.0,2099.0,22.0,-38.0,
2069.0,2035.0,23.0,-38.0,
2087.0,1988.0,23.0,-38.0,
2085.0,1966.0,23.0,-38.0,
2063.0,2159.0,24.0,-38.0,
2058.0,2097.0,24.0,-38.0,
2056.0,1952.0,24.0,-39.0,
2067.0,2129.0,24.0,-39.0,
2067.0,2108.0,24.0,-40.0,
2059.0,2123.0,24.0,-40.0,
2065.0,2114.0,24.0,-41.0,
2064.0,2064.0,24.0,-41.0,
2070.0,2021.0,24.0,-42.0,
2057.0,2036.0,23.0,-42.0,
2069.0,2010.0,23.0,-42.0,
2061.0,2070.0,23.0,-43.0,
2080.0,2121.0,22.0,-43.0,
2087.0,2154.0,22.0,-43.0,
2076.0,2165.0,22.0,-44.0,
2065.0,2095.0,21.0,-44.0,
2063.0,2025.0,21.0,-43.0,
2073.0,2041.0,20.0,-44.0,
2090.0,2030.0,20.0,-45.0,
2057.0,2023.0,20.0,-46.0,
2062.0,1917.0,20.0,-46.0,
2051.0,2021.0,20.0,-46.0,
2116.0,2369.0,20.0,-47.0,
2113.0,2111.0,20.0,-47.0,
2081.0,2201.0,20.0,-47.0,
2074.0,2174.0,20.0,-48.0,
2092.0,2066.0,20.0,-49.0,
2103.0,2113.0,20.0,-49.0,
2013.0,2043.0,20.0,-48.0,
2002.0,2030.0,20.0,-47.0,
2089.0,2042.0,20.0,-47.0,
2044.0,2011.0,20.0,-46.0,
2057.0,1989.0,20.0,-45.0,
2075.0,2143.0,19.0,-44.0,
2114.0,2228.0,19.0,-43.0,
2100.0,2015.0,19.0,-41.0,
2045.0,2100.0,19.0,-40.0,
2041.0,2199.0,19.0,-39.0,
2026.0,2026.0,19.0,-37.0,
2082.0,2017.0,19.0,-36.0,
2064.0,2020.0,19.0,-35.0,
2065.0,2141.0,20.0,-34.0,
2082.0,2136.0,20.0,-33.0,
2071.0,2074.0,20.0,-32.0,
2060.0,2086.0,21.0,-32.0,
2082.0,2128.0,21.0,-31.0,
2082.0,2106.0,22.0,-30.0,
2086.0,2193.0,23.0,-30.0,
2086.0,2067.0,23.0,-29.0,
2059.0,2049.0,23.0,-28.0,
2096.0,2096.0,24.0,-28.0,
2098.0,2056.0,24.0,-29.0,
2080.0,2049.0,24.0,-30.0,
2072.0,2054.0,24.0,-31.0,
2064.0,2064.0,24.0,-31.0,
2071.0,2071.0,24.0,-31.0,
2040.0,2072.0,24.0,-32.0,
2066.0,2078.0,24.0,-33.0,
2067.0,2092.0,24.0,-34.0,
2047.0,2085.0,24.0,-35.0,
2059.0,2104.0,24.0,-35.0,
2064.0,2104.0,23.0,-35.0,
2056.0,2073.0,23.0,-34.0,
2057.0,2057.0,23.0,-34.0,
2082.0,2062.0,22.0,-35.0,
2088.0,2079.0,22.0,-36.0,
2071.0,2067.0,22.0,-36.0,
2090.0,2066.0,21.0,-37.0,
2087.0,2080.0,21.0,-37.0,
2097.0,2129.0,21.0,-37.0,
2074.0,2101.0,20.0,-38.0,
2073.0,2105.0,20.0,-38.0,
2065.0,2055.0,20.0,-39.0,
2087.0,2094.0,20.0,-39.0,
2076.0,2098.0,20.0,-39.0,
2094.0,2083.0,19.0,-39.0,
2082.0,2065.0,19.0,-39.0,
2070.0,2089.0,19.0,-40.0,
2082.0,2063.0,19.0,-40.0,
2084.0,1961.0,19.0,-40.0,
2063.0,2124.0,19.0,-41.0,
2066.0,2103.0,20.0,-41.0,
2098.0,2142.0,20.0,-41.0,
2088.0,2085.0,20.0,-42.0,
2081.0,2163.0,20.0,-42.0,
2068.0,2194.0,20.0,-42.0,
2069.0,2095.0,21.0,-42.0,
2038.0,2236.0,21.0,-42.0,
2064.0,1994.0,21.0,-42.0,
2069.0,2076.0,21.0,-41.0,
2059.0,2186.0,22.0,-41.0,
2063.0,2161.0,22.0,-40.0,
2066.0,1978.0,22.0,-39.0,
2057.0,1944.0,22.0,-38.0,
2079.0,1955.0,22.0,-37.0,
2068.0,2062.0,22.0,-36.0,
2062.0,2088.0,22.0,-34.0,
2054.0,2022.0,22.0,-33.0,
2075.0,1960.0,22.0,-32.0,
2062.0,1971.0,22.0,-31.0,
2102.0,2113.0,22.0,-30.0,
2128.0,2204.0,22.0,-29.0,
2059.0,2013.0,22.0,-29.0,
2045.0,2230.0,23.0,-28.0,
2038.0,2209.0,23.0,-28.0,
2075.0,2138.0,23.0,-27.0,
2051.0,2222.0,23.0,-27.0,
2033.0,2100.0,24.0,-27.0,
2048.0,2077.0,24.0,-27.0,
2069.0,2029.0,24.0,-27.0,
2088.0,2045.0,24.0,-26.0,
2061.0,1998.0,24.0,-26.0,
2086.0,2023.0,24.0,-26.0,
2074.0,2028.0,24.0,-26.0,
2039.0,1998.0,24.0,-26.0,
2047.0,2052.0,24.0,-26.0,
2074.0,2035.0,23.0,-26.0,
2080.0,2017.0,23.0,-26.0,
2079.0,2120.0,23.0,-27.0,
2065.0,2126.0,23.0,-27.0,
2061.0,2164.0,22.0,-27.0,
2078.0,2066.0,22.0,-27.0,
2071.0,2015.0,21.0,-27.0,
2060.0,2158.0,21.0,-28.0,
2064.0,2089.0,21.0,-28.0,
2084.0,2210.0,20.0,-28.0,
2076.0,2092.0,20.0,-28.0,
2082.0,2098.0,20.0,-29.0,
2077.0,2074.0,19.0,-29.0,
2071.0,2057.0,19.0,-29.0,
2084.0,2085.0,19.0,-29.0,
2066.0,2105.0,19.0,-29.0,
2071.0,2131.0,19.0,-29.0,
2066.0,2070.0,18.0,-29.0,
2076.0,2065.0,18.0,-30.0,
2070.0,2076.0,18.0,-30.0,
2077.0,2138.0,18.0,-30.0,
2090.0,2080.0,18.0,-30.0,
2097.0,2035.0,17.0,-30.0,
2073.0,2023.0,17.0,-31.0,
2065.0,2006.0,17.0,-31.0,
2056.0,2023.0,17.0,-31.0,
2044.0,2044.0,17.0,-31.0,
2073.0,2048.0,17.0,-32.0,
2076.0,2068.0,17.0,-32.0,
2075.0,1984.0,17.0,-32.0,
2088.0,2105.0,17.0,-32.0,
2086.0,2265.0,17.0,-33.0,
2099.0,2391.0,17.0,-33.0,
2103.0,1995.0,17.0,-33.0,
2050.0,2074.0,17.0,-33.0,
2064.0,2112.0,17.0,-33.0,
2063.0,2150.0,17.0,-32.0,
2009.0,1995.0,18.0,-32.0,
2046.0,2106.0,18.0,-31.0,
2052.0,2059.0,18.0,-31.0,
2080.0,1982.0,18.0,-30.0,
2060.0,2128.0,18.0,-29.0,
2054.0,2356.0,19.0,-27.0,
2054.0,2091.0,19.0,-26.0,
2013.0,2030.0,19.0,-25.0,
2049.0,1922.0,19.0,-23.0,
2063.0,2018.0,19.0,-22.0,
2076.0,2150.0,19.0,-22.0,
2068.0,2105.0,20.0,-21.0,
2093.0,2114.0,20.0,-20.0,
2054.0,2036.0,20.0,-19.0,
2060.0,2043.0,20.0,-19.0,
2064.0,2109.0,21.0,-19.0,
2068.0,2091.0,21.0,-19.0,
2085.0,2113.0,21.0,-18.0,
2094.0,2074.0,21.0,-19.0,
2093.0,1952.0,22.0,-19.0,
2093.0,1956.0,22.0,-19.0,
2065.0,1981.0,22.0,-19.0,
2080.0,2074.0,22.0,-19.0,
2081.0,2225.0,22.0,-20.0,
2091.0,2211.0,22.0,-20.0,
2091.0,2187.0,22.0,-20.0,
2102.0,2082.0,22.0,-20.0,
2091.0,1947.0,21.0,-21.0,
2080.0,2055.0,21.0,-21.0,
2078.0,2064.0,21.0,-21.0,
2043.0,2058.0,21.0,-21.0,
1998.0,2066.0,20.0,-22.0,
2028.0,2075.0,20.0,-22.0,
2050.0,2110.0,19.0,-22.0,
2063.0,2108.0,19.0,-22.0,
2072.0,2105.0,19.0,-22.0,
2084.0,2104.0,18.0,-22.0,
2085.0,2109.0,18.0,-22.0,
2085.0,2114.0,17.0,-23.0,
2070.0,2063.0,17.0,-23.0,
2063.0,2048.0,17.0,-23.0,
2062.0,2083.0,16.0,-23.0,
2076.0,2153.0,16.0,-23.0,
2082.0,2082.0,16.0,-23.0,
2066.0,2063.0,16.0,-23.0,
2069.0,2020.0,15.0,-24.0,
2067.0,2080.0,15.0,-24.0,
2067.0,2118.0,15.0,-24.0,
2073.0,2077.0,15.0,-24.0,
2059.0,1933.0,15.0,-24.0,
2073.0,2016.0,15.0,-23.0,
2078.0,2108.0,15.0,-23.0,
2085.0,2086.0,15.0,-23.0,
2104.0,2270.0,15.0,-23.0,
2085.0,2262.0,15.0,-23.0,
2076.0,2279.0,15.0,-23.0,
2084.0,2311.0,15.0,-22.0,
2055.0,1953.0,16.0,-22.0,
2045.0,1981.0,16.0,-21.0,
2046.0,1945.0,16.0,-21.0,
2056.0,2067.0,16.0,-20.0,
2069.0,2042.0,16.0,-19.0,
2084.0,1974.0,17.0,-18.0,
2071.0,1871.0,17.0,-18.0,
2068.0,1947.0,17.0,-17.0,
2099.0,1951.0,17.0,-16.0,
2105.0,2083.0,17.0,-15.0,
2056.0,2124.0,17.0,-15.0,
2038.0,2222.0,18.0,-14.0,
2036.0,2035.0,18.0,-14.0,
2036.0,2089.0,18.0,-14.0,
2071.0,2225.0,18.0,-14.0,
2066.0,2142.0,18.0,-14.0,
2078.0,2181.0,18.0,-13.0,
2074.0,2149.0,18.0,-13.0,
2069.0,2107.0,18.0,-13.0,
2070.0,2025.0,19.0,-13.0,
2060.0,2044.0,19.0,-13.0,
2079.0,2030.0,19.0,-14.0,
2073.0,1994.0,18.0,-13.0,
2086.0,2121.0,18.0,-13.0,
2087.0,2152.0,18.0,-14.0,
2079.0,2077.0,18.0,-14.0,
2053.0,2039.0,18.0,-14.0,
2033.0,2007.0,18.0,-14.0,
2035.0,2021.0,18.0,-14.0,
2059.0,2136.0,18.0,-14.0,
2075.0,2144.0,18.0,-14.0,
2075.0,2132.0,17.0,-14.0,
2074.0,2123.0,17.0,-14.0,
2079.0,2037.0,17.0,-14.0,
2074.0,2066.0,17.0,-14.0,
2074.0,2058.0,16.0,-14.0,
2079.0,2061.0,16.0,-14.0,
2077.0,2079.0,15.0,-10.0,
2066.0,2101.0,16.0,-13.0,
2068.0,2059.0,15.0,-15.0,
2073.0,1998.0,15.0,-15.0,
2081.0,2025.0,14.0,-15.0,
2087.0,2185.0,14.0,-14.0,
2078.0,2168.0,14.0,-14.0,
2069.0,2118.0,14.0,-14.0,
2081.0,2064.0,14.0,-14.0,
2075.0,2011.0,14.0,-14.0,
2075.0,1993.0,14.0,-16.0,
2089.0,2174.0,14.0,-13.0,
2070.0,2069.0,14.0,-11.0,
2064.0,1822.0,14.0,-11.0,
2076.0,1912.0,15.0,-11.0,
2082.0,2536.0,15.0,-12.0,
2089.0,2321.0,15.0,-12.0,
2081.0,2239.0,15.0,-11.0,
2059.0,2133.0,15.0,-11.0,
2036.0,2060.0,16.0,-10.0,
2054.0,1988.0,16.0,-11.0,
2059.0,1980.0,16.0,-11.0,
2075.0,2138.0,17.0,-10.0,
2055.0,2026.0,17.0,-9.0,
2061.0,2027.0,17.0,-9.0,
2076.0,1976.0,17.0,-9.0,
2086.0,2014.0,0,
2083.0,2182.0,17.0,-9.0,
2080.0,2104.0,17.0,-9.0,
2094.0,2109.0,17.0,-9.0,
2108.0,2090.0,17.0,-9.0,
2069.0,2046.0,17.0,-9.0,
2046.0,2025.0,17.0,-9.0,
2068.0,2133.0,17.0,-9.0,
2018.0,2103.0,17.0,-9.0,
2010.0,2082.0,17.0,-9.0,
2020.0,2055.0,16.0,-10.0,
2050.0,2028.0,16.0,-10.0,
2062.0,2062.0,16.0,-10.0,
2081.0,2067.0,16.0,-10.0,
2090.0,2073.0,16.0,-10.0,
2072.0,2072.0,0,
2062.0,2063.0,16.0,-10.0,
2085.0,2070.0,16.0,-10.0,
2076.0,2056.0,16.0,-10.0,
2071.0,2171.0,16.0,-10.0,
2083.0,2129.0,15.0,-9.0,
2082.0,2160.0,15.0,-9.0,
2076.0,2136.0,15.0,-9.0,
2073.0,2060.0,15.0,-8.0,
2099.0,2066.0,15.0,-8.0,
2081.0,2026.0,14.0,-8.0,
2079.0,2063.0,15.0,-8.0,
2085.0,2048.0,15.0,-8.0,
2079.0,2074.0,15.0,-7.0,
2084.0,2108.0,15.0,-7.0,
2080.0,2182.0,16.0,-7.0,
2078.0,2142.0,16.0,-8.0,
2065.0,2094.0,17.0,-8.0,
2089.0,2072.0,18.0,-8.0,
2067.0,2033.0,18.0,-8.0,
2078.0,2089.0,19.0,-8.0,
2069.0,2061.0,19.0,-8.0,
2065.0,2075.0,19.0,-8.0,
2064.0,2105.0,19.0,-9.0,
2088.0,2120.0,19.0,-9.0,
2058.0,2082.0,19.0,-9.0,
2074.0,2054.0,19.0,-9.0,
2083.0,1989.0,19.0,-10.0,
2066.0,1959.0,19.0,-10.0,
2070.0,1920.0,18.0,-10.0,
2080.0,2109.0,18.0,-10.0,
2075.0,2192.0,18.0,-10.0,
2082.0,2229.0,18.0,-10.0,
2057.0,2071.0,17.0,-11.0,
2060.0,2221.0,17.0,-11.0,
2073.0,2157.0,16.0,-11.0,
2069.0,2191.0,16.0,-11.0,
2055.0,2027.0,16.0,-11.0,
2077.0,1995.0,16.0,-11.0,
2068.0,1987.0,16.0,-11.0,
2072.0,2184.0,16.0,-11.0,
2069.0,2091.0,16.0,-11.0,
2068.0,2071.0,15.0,-11.0,
2057.0,2010.0,15.0,-11.0,
2066.0,2053.0,15.0,-10.0,
2070.0,2098.0,15.0,-10.0,
2071.0,2085.0,16.0,-10.0,
2071.0,2116.0,15.0,-11.0,
2066.0,2081.0,15.0,-11.0,
2062.0,2070.0,15.0,-10.0,
2079.0,2062.0,15.0,-10.0,
2084.0,2076.0,15.0,-10.0,
2063.0,2074.0,15.0,-9.0,
2073.0,2072.0,15.0,-9.0,
2061.0,2075.0,15.0,-9.0,
2071.0,2094.0,15.0,-9.0,
2082.0,2097.0,15.0,-9.0,
2078.0,2101.0,15.0,-8.0,
2068.0,2030.0,15.0,-8.0,
2044.0,2062.0,15.0,-8.0,
2060.0,2054.0,15.0,-7.0,
2055.0,2050.0,15.0,-7.0,
2071.0,2079.0,15.0,-6.0,
2074.0,2092.0,16.0,-6.0,
2051.0,2094.0,16.0,-5.0,
2068.0,2099.0,16.0,-5.0,
2072.0,2099.0,16.0,-5.0,
2065.0,2092.0,17.0,-4.0,
2065.0,2094.0,17.0,-5.0,
2076.0,2109.0,18.0,-5.0,
2095.0,2092.0,19.0,-5.0,
2074.0,2077.0,19.0,-5.0,
2076.0,2100.0,19.0,-6.0,
2079.0,2100.0,20.0,-6.0,
2074.0,2084.0,20.0,-7.0,
2072.0,2081.0,20.0,-7.0,
2072.0,2092.0,21.0,-7.0,
2051.0,2089.0,21.0,-7.0,
2063.0,2081.0,21.0,-7.0,
2068.0,2064.0,21.0,-7.0,
2073.0,2088.0,21.0,-7.0,
2075.0,2082.0,20.0,-7.0,
2088.0,2081.0,20.0,-7.0,
2075.0,2082.0,20.0,-7.0,
2063.0,2107.0,20.0,-7.0,
2047.0,2120.0,19.0,-7.0,
2069.0,2117.0,19.0,-7.0,
2058.0,1968.0,19.0,-7.0,
2071.0,2014.0,19.0,-7.0,
2082.0,2122.0,18.0,-7.0,
2066.0,2073.0,18.0,-7.0,
2063.0,1993.0,18.0,-7.0,
2071.0,2150.0,18.0,-7.0,
2083.0,2011.0,18.0,-7.0,
2073.0,2191.0,18.0,-7.0,
2069.0,2277.0,18.0,-7.0,
2069.0,2168.0,18.0,-7.0,
2081.0,2058.0,17.0,-7.0,
2077.0,2003.0,17.0,-7.0,
2070.0,2035.0,17.0,-7.0,
2076.0,2071.0,17.0,-8.0,
2067.0,2103.0,17.0,-8.0,
2079.0,2085.0,17.0,-8.0,
2066.0,2054.0,17.0,-8.0,
2066.0,2061.0,17.0,-8.0,
2070.0,2083.0,17.0,-8.0,
2075.0,2098.0,17.0,-8.0,
2072.0,2048.0,17.0,-8.0,
2076.0,1997.0,17.0,-8.0,
2075.0,2085.0,17.0,-8.0,
2069.0,2151.0,17.0,-8.0,
2052.0,2098.0,17.0,-8.0,
2073.0,2084.0,17.0,-8.0,
2065.0,2083.0,17.0,-8.0,
2076.0,2082.0,17.0,-8.0,
2074.0,2099.0,17.0,-8.0,
2062.0,2085.0,17.0,-8.0,
2073.0,2099.0,17.0,-8.0,
2073.0,2083.0,17.0,-7.0,
2080.0,2081.0,17.0,-7.0,
2067.0,2074.0,17.0,-7.0,
2070.0,2084.0,17.0,-7.0,
2073.0,2086.0,17.0,-7.0,
2066.0,2091.0,17.0,-7.0,
2067.0,2091.0,18.0,-7.0,
2077.0,2087.0,18.0,-7.0,
2078.0,2078.0,18.0,-7.0,
2083.0,2083.0,18.0,-7.0,
2074.0,2076.0,18.0,-7.0,
2078.0,2070.0,18.0,-7.0,
2069.0,2081.0,18.0,-7.0,
2072.0,2083.0,18.0,-7.0,
2070.0,2087.0,18.0,-7.0,
2079.0,2088.0,18.0,-7.0,
2078.0,2099.0,18.0,-7.0,
2084.0,2086.0,18.0,-7.0,
2080.0,2083.0,18.0,-7.0,
2076.0,2084.0,18.0,-7.0,
2074.0,2081.0,18.0,-7.0,
2074.0,2066.0,18.0,-7.0,
2076.0,2076.0,18.0,-7.0,
2070.0,2086.0,18.0,-7.0,
2063.0,2088.0,18.0,-7.0,
2074.0,2088.0,18.0,-7.0,
2064.0,2082.0,17.0,-7.0,
2077.0,2071.0,17.0,-7.0,
2081.0,2081.0,17.0,-7.0,
2066.0,2080.0,17.0,-7.0,
2068.0,2084.0,17.0,-7.0,
2065.0,2073.0,17.0,-7.0,
2071.0,2077.0,17.0,-7.0,
2062.0,2107.0,17.0,-7.0,
2079.0,2105.0,17.0,-7.0,
2090.0,2081.0,17.0,-7.0,
2077.0,2073.0,17.0,-7.0,
2080.0,2096.0,17.0,-7.0,
2071.0,2123.0,17.0,-7.0,
2062.0,2132.0,17.0,-7.0,
2074.0,2059.0,17.0,-7.0,
2060.0,1989.0,17.0,-7.0,
2070.0,2061.0,17.0,-7.0,
2070.0,2088.0,17.0,-7.0,
2070.0,2088.0,17.0,-7.0,
2069.0,2074.0,17.0,-7.0,
2065.0,2101.0,17.0,-7.0,
2077.0,2108.0,17.0,-7.0,
2065.0,2107.0,17.0,-7.0,
2057.0,2019.0,17.0,-7.0,
2058.0,2028.0,17.0,-7.0,
2065.0,2093.0,17.0,-7.0,
2074.0,2163.0,17.0,-7.0,
2080.0,2071.0,17.0,-7.0,
2074.0,2001.0,17.0,-7.0,
2076.0,2054.0,17.0,-7.0,
2077.0,2173.0,17.0,-7.0,
2061.0,2080.0,17.0,-8.0,
2066.0,2066.0,18.0,-9.0,
2078.0,2081.0,17.0,-9.0,
2066.0,2085.0,17.0,-8.0,
2072.0,2098.0,17.0,-7.0,
2075.0,2098.0,17.0,-7.0,
2078.0,2087.0,17.0,-7.0,
2079.0,2084.0,17.0,-7.0,
2070.0,2081.0,17.0,-7.0,
2068.0,2077.0,17.0,-7.0,
2072.0,2086.0,17.0,-6.0,
2059.0,2082.0,17.0,-5.0,
2073.0,2088.0,17.0,-5.0,
2071.0,2083.0,17.0,-6.0,
2074.0,2087.0,17.0,-7.0,
2069.0,2090.0,17.0,-7.0,
2071.0,2087.0,17.0,-7.0,
2069.0,2085.0,17.0,-7.0,
2068.0,2076.0,17.0,-7.0,
2069.0,2075.0,17.0,-7.0,
2067.0,2077.0,17.0,-7.0,
2072.0,2097.0,17.0,-7.0,
2073.0,2081.0,17.0,-7.0,
2075.0,2083.0,17.0,-7.0,
2078.0,2117.0,17.0,-7.0,
2084.0,2083.0,17.0,-7.0,
2061.0,2078.0,17.0,-7.0,
2075.0,2080.0,17.0,-7.0,
2075.0,2081.0,17.0,-8.0,
2070.0,2087.0,18.0,-9.0,
2072.0,2086.0,17.0,-8.0,
2066.0,2080.0,17.0,-7.0,
2080.0,2075.0,17.0,-7.0,
2079.0,2090.0,18.0,-7.0,
2082.0,2084.0,18.0,-7.0,
2076.0,2085.0,18.0,-6.0,
2082.0,2083.0,18.0,-6.0,
2068.0,2080.0,18.0,-6.0,
2072.0,2080.0,18.0,-5.0,
2076.0,2091.0,18.0,-5.0,
2088.0,2091.0,18.0,-5.0,
2073.0,2092.0,18.0,-6.0,
2088.0,2090.0,18.0,-7.0,
2068.0,2087.0,18.0,-7.0,
2068.0,2084.0,18.0,-7.0,
2055.0,2080.0,18.0,-7.0,
2060.0,2080.0,18.0,-7.0,
2063.0,2086.0,18.0,-7.0,
2072.0,2089.0,18.0,-7.0,
2069.0,2093.0,18.0,-7.0,
2076.0,2088.0,18.0,-7.0,
2074.0,2084.0,18.0,-7.0,
2072.0,2083.0,18.0,-7.0,
2072.0,2081.0,18.0,-7.0,
2068.0,2077.0,19.0,-9.0,
2074.0,2078.0,19.0,-10.0,
2066.0,2080.0,19.0,-9.0,
2064.0,2083.0,19.0,-8.0,
2072.0,2087.0,19.0,-7.0,
2072.0,2084.0,19.0,-7.0,
2069.0,2085.0,19.0,-7.0,
2090.0,2070.0,19.0,-7.0,
2073.0,2077.0,19.0,-7.0,
2072.0,2076.0,19.0,-6.0,
2072.0,2077.0,19.0,-5.0,
2067.0,2078.0,19.0,-4.0,
2073.0,2086.0,20.0,-4.0,
2073.0,2089.0,20.0,-6.0,
2080.0,2104.0,20.0,-6.0,
2082.0,2109.0,20.0,-6.0,
2069.0,2106.0,20.0,-6.0,
2071.0,2078.0,20.0,-6.0,
2077.0,2057.0,20.0,-7.0,
2055.0,2075.0,20.0,-7.0,
2073.0,2078.0,20.0,-7.0,
2064.0,2110.0,20.0,-7.0,
2064.0,2054.0,20.0,-8.0,
2060.0,2078.0,20.0,-8.0,
2070.0,2101.0,21.0,-7.0,
2074.0,2058.0,21.0,-7.0,
2069.0,2069.0,21.0,-6.0,
2073.0,2072.0,21.0,-6.0,
2055.0,2072.0,21.0,-6.0,
2055.0,2106.0,21.0,-6.0,
2078.0,2096.0,21.0,-5.0,
2062.0,2102.0,21.0,-5.0,
2065.0,2104.0,21.0,-5.0,
2073.0,2132.0,21.0,-5.0,
2064.0,2123.0,21.0,-5.0,
2071.0,2127.0,21.0,-5.0,
2065.0,2077.0,22.0,-6.0,
2065.0,2077.0,22.0,-6.0,
2070.0,2099.0,22.0,-6.0,
2069.0,1979.0,22.0,-6.0,
2077.0,1981.0,22.0,-6.0,
2066.0,2002.0,22.0,-6.0,
2081.0,2244.0,22.0,-6.0,
2069.0,2185.0,22.0,-6.0,
2074.0,2101.0,22.0,-6.0,
2079.0,2075.0,22.0,-6.0,
2076.0,2085.0,22.0,-6.0,
2077.0,2097.0,22.0,-6.0,
2065.0,2086.0,22.0,-6.0,
2077.0,2088.0,22.0,-6.0,
2077.0,2089.0,22.0,-6.0,
2068.0,2086.0,22.0,-6.0,
2068.0,2084.0,22.0,-6.0,
2075.0,2075.0,22.0,-6.0,
2062.0,2071.0,22.0,-6.0,
2065.0,2072.0,22.0,-6.0,
2061.0,2078.0,22.0,-6.0,
2032.0,2078.0,23.0,-6.0,
2070.0,2081.0,23.0,-6.0,
2085.0,2081.0,23.0,-6.0,
2079.0,2086.0,23.0,-6.0,
2064.0,2068.0,23.0,-6.0,
2060.0,2078.0,23.0,-6.0,
2057.0,2071.0,23.0,-6.0,
2064.0,2076.0,22.0,-6.0,
2069.0,2084.0,23.0,-6.0,
2069.0,2086.0,23.0,-6.0,
2056.0,2085.0,23.0,-6.0,
2068.0,2086.0,23.0,-6.0,
2076.0,2091.0,23.0,-6.0,
2073.0,2086.0,23.0,-6.0,
2080.0,2084.0,23.0,-6.0,
2069.0,2076.0,22.0,-6.0,
2069.0,2092.0,22.0,-6.0,
2065.0,2085.0,22.0,-6.0,
2070.0,2085.0,22.0,-6.0,
2078.0,2084.0,22.0,-6.0,
2083.0,2088.0,22.0,-6.0,
2073.0,2099.0,22.0,-6.0,
2080.0,2093.0,22.0,-6.0,
2079.0,2082.0,22.0,-6.0,
2076.0,2081.0,22.0,-6.0,
2072.0,2082.0,22.0,-6.0,
2043.0,2084.0,22.0,-6.0,
2072.0,2090.0,21.0,-6.0,
2072.0,2084.0,21.0,-6.0,
2073.0,2091.0,21.0,-6.0,
2076.0,2087.0,21.0,-6.0,
2077.0,2085.0,21.0,-6.0,
2074.0,2072.0,21.0,-6.0,
2078.0,2071.0,21.0,-6.0,
2065.0,2078.0,21.0,-6.0,
2070.0,2076.0,21.0,-6.0,
2073.0,2092.0,21.0,-6.0,
2064.0,2088.0,21.0,-6.0,
2071.0,2090.0,21.0,-6.0,
2075.0,2092.0,21.0,-6.0,
2069.0,2083.0,21.0,-6.0,
2072.0,2076.0,21.0,-6.0,
2079.0,2080.0,21.0,-6.0,
2068.0,2077.0,21.0,-6.0,
2067.0,2081.0,21.0,-6.0,
2068.0,2087.0,21.0,-6.0,
2075.0,2089.0,21.0,-6.0,
2070.0,2089.0,21.0,-6.0,
2081.0,2089.0,21.0,-6.0,
2079.0,2091.0,21.0,-6.0,
2074.0,2079.0,21.0,-6.0,
2070.0,2078.0,21.0,-6.0,
2062.0,2077.0,21.0,-6.0,
2058.0,2089.0,21.0,-6.0,
2063.0,2090.0,21.0,-6.0,
2067.0,2091.0,21.0,-6.0,
2065.0,2090.0,21.0,-6.0,
2059.0,2085.0,21.0,-6.0,
2071.0,2081.0,21.0,-6.0,
2073.0,2078.0,20.0,-6.0,
2065.0,2074.0,20.0,-6.0,
2066.0,2079.0,20.0,-6.0,
2070.0,2089.0,20.0,-6.0,
2061.0,2085.0,20.0,-6.0,
2068.0,2087.0,20.0,-6.0,
2072.0,2086.0,20.0,-6.0,
2071.0,2093.0,20.0,-6.0,
2074.0,2084.0,20.0,-6.0,
2081.0,2088.0,20.0,-6.0,
2071.0,2076.0,20.0,-6.0,
2063.0,2079.0,20.0,-6.0,
2067.0,2083.0,20.0,-6.0,
2075.0,2090.0,21.0,-6.0,
2064.0,2086.0,21.0,-6.0,
2077.0,2095.0,21.0,-6.0,
2076.0,2093.0,21.0,-6.0,
2074.0,2084.0,21.0,-6.0,
2063.0,2080.0,21.0,-6.0,
2064.0,2074.0,21.0,-6.0,
2068.0,2070.0,21.0,-6.0,
2059.0,2077.0,21.0,-6.0,
2072.0,2085.0,21.0,-6.0,
2069.0,2085.0,21.0,-6.0,
2074.0,2091.0,21.0,-7.0,
2070.0,2085.0,21.0,-9.0,
2071.0,2085.0,21.0,-9.0,
2064.0,2079.0,21.0,-7.0,
2071.0,2076.0,21.0,-6.0,
2084.0,2070.0,21.0,-6.0,
2059.0,2072.0,21.0,-5.0,
2071.0,2083.0,21.0,-5.0,
2076.0,2085.0,21.0,-5.0,
2070.0,2089.0,21.0,-5.0,
2127.0,2088.0,21.0,-5.0,
2078.0,2086.0,21.0,-3.0,
2069.0,2085.0,21.0,-2.0,
2071.0,2067.0,22.0,-4.0,
2069.0,2075.0,22.0,-5.0,
2074.0,2078.0,21.0,-6.0,
2076.0,2087.0,21.0,-6.0,
2073.0,2150.0,21.0,-6.0,
2084.0,2090.0,21.0,-6.0,
2071.0,2088.0,21.0,-6.0,
2080.0,2091.0,21.0,-6.0,
2077.0,2074.0,21.0,-6.0,
2068.0,2084.0,21.0,-6.0,
2076.0,2086.0,21.0,-6.0,
2067.0,2090.0,21.0,-6.0,
2075.0,2094.0,21.0,-6.0,
2070.0,2095.0,21.0,-6.0,
2065.0,2088.0,21.0,-6.0,
2067.0,2088.0,21.0,-6.0,
2072.0,2083.0,22.0,-6.0,
2066.0,2084.0,22.0,-6.0,
2081.0,2075.0,22.0,-6.0,
2063.0,2086.0,22.0,-6.0,
2069.0,2083.0,22.0,-6.0,
2058.0,2087.0,22.0,-6.0,
2068.0,2086.0,22.0,-6.0,
2073.0,2093.0,22.0,-6.0,
2075.0,2084.0,22.0,-6.0,
2087.0,2082.0,21.0,-6.0,
2077.0,2077.0,21.0,-6.0,
2067.0,2084.0,21.0,-6.0,
2074.0,2056.0,21.0,-6.0,
2072.0,2080.0,21.0,-6.0,
2072.0,2096.0,21.0,-6.0,
2067.0,2091.0,21.0,-6.0,
2086.0,2082.0,21.0,-6.0,
2074.0,2080.0,21.0,-6.0,
2084.0,2077.0,21.0,-6.0,
2062.0,2079.0,21.0,-6.0,
2066.0,2076.0,21.0,-6.0,
2058.0,2078.0,21.0,-6.0,
2063.0,2085.0,21.0,-6.0,
2067.0,2089.0,21.0,-6.0,
2075.0,2090.0,21.0,-6.0,
2070.0,2087.0,21.0,-6.0,
2070.0,2085.0,21.0,-6.0,
2068.0,2087.0,21.0,-6.0,
2069.0,2089.0,21.0,-6.0,
2070.0,2085.0,21.0,-6.0,
2060.0,2082.0,21.0,-6.0,
2065.0,2083.0,21.0,-6.0,
2065.0,2093.0,21.0,-6.0,
2065.0,2089.0,21.0,-6.0,
2076.0,2089.0,21.0,-6.0,
2066.0,2087.0,21.0,-6.0,
2066.0,2089.0,21.0,-6.0,
2059.0,2080.0,21.0,-6.0,
2069.0,2082.0,21.0,-6.0,
2071.0,2080.0,21.0,-6.0,
2052.0,2084.0,21.0,-6.0,
2064.0,2081.0,21.0,-6.0,
2070.0,2093.0,22.0,-6.0,
2070.0,2090.0,22.0,-6.0,
2069.0,2089.0,22.0,-6.0,
2069.0,2080.0,22.0,-6.0,
2076.0,2079.0,22.0,-6.0,
2067.0,2075.0,22.0,-6.0,
2064.0,2079.0,22.0,-6.0,
2064.0,2084.0,22.0,-6.0,
2069.0,2084.0,22.0,-6.0,
2069.0,2085.0,22.0,-6.0,
2074.0,2083.0,22.0,-6.0,
2072.0,2090.0,22.0,-6.0,
2073.0,2087.0,22.0,-6.0,
2078.0,2078.0,22.0,-6.0,
2076.0,2084.0,22.0,-6.0,
2057.0,2069.0,22.0,-6.0,
2069.0,2076.0,22.0,-6.0,
2070.0,2083.0,22.0,-6.0,
2076.0,2090.0,22.0,-6.0,
2074.0,2085.0,22.0,-6.0,
2076.0,2090.0,22.0,-6.0,
2076.0,2093.0,22.0,-6.0,
2078.0,2081.0,22.0,-6.0,
2065.0,2080.0,22.0,-6.0,
2066.0,2075.0,22.0,-6.0,
2067.0,2083.0,22.0,-6.0,
2068.0,2099.0,21.0,-6.0,
2069.0,2094.0,21.0,-6.0,
2064.0,2091.0,21.0,-6.0,
2072.0,2089.0,21.0,-6.0,
2071.0,2079.0,21.0,-6.0,
2072.0,2075.0,21.0,-6.0,
2071.0,2080.0,21.0,-6.0,
2076.0,2079.0,21.0,-6.0,
2068.0,2092.0,21.0,-6.0,
2066.0,2083.0,21.0,-6.0,
2062.0,2089.0,21.0,-6.0,
2075.0,2086.0,21.0,-6.0,
2071.0,2089.0,21.0,-6.0,
2072.0,2085.0,21.0,-6.0,
2078.0,2079.0,21.0,-6.0,
2067.0,2076.0,22.0,-6.0,
2067.0,2076.0,22.0,-6.0,
2069.0,2081.0,22.0,-6.0,
2073.0,2087.0,22.0,-6.0,
2072.0,2090.0,22.0,-6.0,
2071.0,2093.0,22.0,-6.0,
2081.0,2092.0,22.0,-6.0,
2079.0,2086.0,22.0,-6.0,
2065.0,2077.0,22.0,-6.0,
2076.0,2076.0,22.0,-6.0,
2043.0,2077.0,22.0,-6.0,
2075.0,2079.0,22.0,-6.0,
2072.0,2083.0,22.0,-6.0,
2068.0,2104.0,22.0,-6.0,
2075.0,2089.0,22.0,-6.0,
2080.0,2087.0,22.0,-6.0,
2074.0,2088.0,22.0,-6.0,
2076.0,2079.0,22.0,-6.0,
2073.0,2085.0,22.0,-6.0,
2077.0,2076.0,22.0,-6.0,
2068.0,2075.0,22.0,-6.0,
2077.0,2084.0,22.0,-6.0,
2080.0,2092.0,22.0,-6.0,
2076.0,2091.0,22.0,-6.0,
2083.0,2091.0,22.0,-6.0,
2082.0,2087.0,22.0,-6.0,
2078.0,2082.0,22.0,-6.0,
2061.0,2080.0,22.0,-6.0,
2060.0,2083.0,22.0,-6.0,
2062.0,2077.0,22.0,-6.0,
2073.0,2086.0,22.0,-6.0,
2073.0,2085.0,22.0,-6.0,
2069.0,2093.0,22.0,-6.0,
2077.0,2085.0,22.0,-6.0,
2076.0,2062.0,22.0,-6.0,
2069.0,2077.0,22.0,-6.0,
2063.0,2086.0,22.0,-6.0,
2059.0,2077.0,22.0,-6.0,
2062.0,2092.0,22.0,-6.0,
2075.0,2087.0,22.0,-6.0,
2069.0,2083.0,22.0,-6.0,
2084.0,2089.0,22.0,-6.0,
2075.0,2090.0,22.0,-6.0,
2091.0,2080.0,22.0,-6.0,
2081.0,2084.0,22.0,-6.0,
2069.0,2085.0,22.0,-6.0,
2078.0,2082.0,22.0,-6.0,
2055.0,2080.0,22.0,-6.0,
2069.0,2085.0,22.0,-6.0,
2063.0,2088.0,22.0,-6.0,
2080.0,2085.0,22.0,-6.0,
2082.0,2086.0,22.0,-6.0,
2077.0,2080.0,22.0,-6.0,
2070.0,2082.0,22.0,-6.0,
2072.0,2072.0,22.0,-6.0,
2065.0,2076.0,22.0,-6.0,
2076.0,2096.0,22.0,-6.0,
2074.0,2089.0,22.0,-6.0,
2068.0,2090.0,22.0,-6.0,
2082.0,2097.0,22.0,-6.0,
2070.0,2092.0,22.0,-6.0,
2071.0,2087.0,22.0,-6.0,
2071.0,2076.0,22.0,-6.0,
2062.0,2076.0,22.0,-6.0,
2063.0,2076.0,22.0,-6.0,
2062.0,2078.0,22.0,-6.0,
2073.0,2094.0,22.0,-6.0,
2070.0,2082.0,22.0,-6.0,
2073.0,2086.0,22.0,-6.0,
2080.0,2086.0,22.0,-6.0,
2077.0,2079.0,0,
2069.0,2081.0,22.0,-6.0,
2077.0,2080.0,22.0,-6.0,
2070.0,2077.0,22.0,-6.0,
2071.0,2079.0,22.0,-6.0,
2069.0,2087.0,22.0,-6.0,
2079.0,2090.0,22.0,-6.0,
2076.0,2090.0,22.0,-6.0,
2071.0,2085.0,22.0,-6.0,
2064.0,2083.0,22.0,-6.0,
2070.0,2080.0,22.0,-6.0,
2069.0,2076.0,22.0,-6.0,
2066.0,2071.0,22.0,-6.0,
2067.0,2073.0,22.0,-6.0,
2068.0,2083.0,22.0,-6.0,
2065.0,2091.0,22.0,-6.0,
2068.0,2100.0,22.0,-6.0,
2076.0,2088.0,22.0,-6.0,
2072.0,2082.0,22.0,-6.0,
2088.0,2079.0,22.0,-6.0,
2071.0,2087.0,22.0,-6.0,
2070.0,2095.0,22.0,-6.0,
2073.0,2084.0,22.0,-6.0,
2069.0,2074.0,22.0,-6.0,
2074.0,2082.0,22.0,-6.0,
2080.0,2080.0,22.0,-6.0,
2084.0,2095.0,22.0,-6.0,
2077.0,2094.0,21.0,-6.0,
2067.0,2085.0,21.0,-6.0,
2086.0,2086.0,21.0,-6.0,
2081.0,2081.0,21.0,-6.0,
2070.0,2081.0,21.0,-6.0,
2076.0,2087.0,21.0,-6.0,
2070.0,2089.0,21.0,-6.0,
2084.0,2086.0,21.0,-6.0,
2067.0,2082.0,22.0,-6.0,
2073.0,2083.0,22.0,-6.0,
2066.0,2071.0,22.0,-6.0,
2073.0,2072.0,22.0,-6.0,
2062.0,2077.0,22.0,-6.0,
2073.0,2080.0,22.0,-6.0,
2067.0,2081.0,22.0,-6.0,
2073.0,2097.0,22.0,-6.0,
2065.0,2085.0,22.0,-6.0,
2076.0,2085.0,22.0,-6.0,
2077.0,2081.0,22.0,-6.0,
2082.0,2098.0,22.0,-6.0,
2074.0,2081.0,22.0,-6.0,
2071.0,2075.0,22.0,-6.0,
2080.0,2092.0,22.0,-6.0,
2068.0,2087.0,22.0,-6.0,
2075.0,2084.0,22.0,-6.0,
2078.0,2088.0,22.0,-6.0,
2066.0,2085.0,22.0,-6.0,
2072.0,2101.0,22.0,-6.0,
2074.0,2081.0,22.0,-6.0,
2066.0,2077.0,22.0,-6.0,
2069.0,2080.0,22.0,-6.0,
2057.0,2081.0,22.0,-6.0,
2064.0,2087.0,22.0,-6.0,
2072.0,2088.0,22.0,-6.0,
2072.0,2095.0,22.0,-6.0,
2069.0,2093.0,22.0,-6.0,
2071.0,2081.0,22.0,-6.0,
2057.0,2079.0,22.0,-6.0,
2063.0,2079.0,22.0,-6.0,
2061.0,2085.0,22.0,-6.0,
2059.0,2080.0,22.0,-6.0,
2068.0,2085.0,22.0,-6.0,
2076.0,2094.0,22.0,-6.0,
2067.0,2084.0,22.0,-6.0,
2069.0,2085.0,22.0,-6.0,
2078.0,2081.0,22.0,-6.0,
2068.0,2081.0,22.0,-6.0,
2071.0,2076.0,22.0,-6.0,
2068.0,2075.0,22.0,-6.0,
2062.0,2072.0,22.0,-6.0,
2066.0,2100.0,22.0,-6.0,
2075.0,2109.0,22.0,-6.0,
2066.0,2091.0,22.0,-6.0,
2073.0,2088.0,22.0,-6.0,
2081.0,2049.0,22.0,-6.0,
2075.0,2065.0,22.0,-6.0,
2074.0,2070.0,22.0,-6.0,
2064.0,2073.0,22.0,-6.0,
2066.0,2072.0,22.0,-6.0,
2067.0,2080.0,22.0,-6.0,
2071.0,2089.0,22.0,-6.0,
2068.0,2094.0,22.0,-6.0,
2069.0,2096.0,22.0,-6.0,
2065.0,2087.0,22.0,-6.0,
2071.0,2083.0,22.0,-6.0,
2074.0,2080.0,22.0,-6.0,
2072.0,2083.0,22.0,-6.0,
2068.0,2087.0,22.0,-6.0,
2067.0,2091.0,22.0,-6.0,
2063.0,2087.0,22.0,-6.0,
2064.0,2087.0,22.0,-6.0,
2067.0,2093.0,22.0,-6.0,
2065.0,2087.0,22.0,-6.0,
2063.0,2077.0,22.0,-6.0,
2068.0,2078.0,22.0,-6.0,
2072.0,2086.0,22.0,-6.0,
2066.0,2091.0,22.0,-6.0,
2071.0,2094.0,22.0,-6.0,
2074.0,2089.0,22.0,-6.0,
2068.0,2092.0,22.0,-6.0,
2067.0,2086.0,22.0,-6.0,
2085.0,2084.0,22.0,-6.0,
2074.0,2088.0,22.0,-6.0,
2070.0,2072.0,22.0,-6.0,
2060.0,2077.0,22.0,-6.0,
2066.0,2076.0,22.0,-6.0,
2068.0,2084.0,22.0,-6.0,
2070.0,2090.0,22.0,-6.0,
2073.0,2087.0,22.0,-6.0,
2074.0,2086.0,22.0,-6.0,
2069.0,2082.0,22.0,-6.0,
2073.0,2080.0,22.0,-6.0,
2072.0,2080.0,22.0,-6.0,
2063.0,2077.0,22.0,-6.0,
2062.0,2080.0,22.0,-6.0,
2081.0,2091.0,22.0,-6.0,
2069.0,2084.0,22.0,-6.0,
2063.0,2093.0,22.0,-6.0,
2074.0,2092.0,22.0,-6.0,
2073.0,2087.0,22.0,-6.0,
2070.0,2083.0,22.0,-6.0,
2067.0,2083.0,22.0,-6.0,
2057.0,2074.0,22.0,-6.0,
2050.0,2072.0,22.0,-6.0,
2062.0,2078.0,22.0,-6.0,
2062.0,2100.0,22.0,-6.0,
2057.0,2110.0,22.0,-6.0,
2070.0,2093.0,22.0,-6.0,
2076.0,2081.0,22.0,-6.0,
2065.0,2100.0,22.0,-6.0,
2067.0,2101.0,22.0,-6.0,
2064.0,2094.0,22.0,-6.0,
2069.0,2062.0,0,
2065.0,2039.0,22.0,-6.0,
2081.0,2072.0,22.0,-6.0,
2081.0,2088.0,22.0,-6.0,
2069.0,2082.0,22.0,-6.0,
2067.0,2079.0,22.0,-6.0,
2075.0,2080.0,22.0,-6.0,
2063.0,2079.0,22.0,-6.0,
2065.0,2080.0,22.0,-6.0,
2065.0,2097.0,22.0,-6.0,
2072.0,2103.0,22.0,-6.0,
2061.0,2109.0,22.0,-6.0,
2066.0,2096.0,22.0,-6.0,
2078.0,2048.0,22.0,-6.0,
2068.0,2071.0,22.0,-6.0,
2073.0,2074.0,22.0,-6.0,
2076.0,2083.0,22.0,-6.0,
2067.0,2080.0,22.0,-6.0,
2064.0,2080.0,22.0,-6.0,
2072.0,2088.0,22.0,-6.0,
2072.0,2094.0,22.0,-6.0,
2073.0,2094.0,22.0,-6.0,
2081.0,2089.0,22.0,-6.0,
2083.0,2096.0,22.0,-6.0,
2068.0,2082.0,22.0,-6.0,
2067.0,2072.0,22.0,-6.0,
2056.0,2078.0,22.0,-6.0,
2068.0,2083.0,22.0,-6.0,
2068.0,2087.0,22.0,-6.0,
2069.0,2089.0,22.0,-6.0,
2072.0,2089.0,22.0,-6.0,
2065.0,2081.0,22.0,-6.0,
2062.0,2088.0,22.0,-6.0,
2072.0,2075.0,22.0,-6.0,
2074.0,2078.0,22.0,-6.0,
2067.0,2075.0,22.0,-6.0,
2081.0,2080.0,22.0,-6.0,
2069.0,2081.0,22.0,-6.0,
2070.0,2080.0,22.0,-6.0,
2038.0,2082.0,22.0,-6.0,
2075.0,2090.0,22.0,-6.0,
2071.0,2082.0,22.0,-6.0,
2072.0,2079.0,22.0,-6.0,
2076.0,2086.0,22.0,-6.0,
2062.0,2073.0,22.0,-6.0,
2063.0,2074.0,22.0,-6.0,
2071.0,2079.0,22.0,-6.0,
2068.0,2081.0,22.0,-6.0,
2074.0,2096.0,22.0,-6.0,
2067.0,2123.0,22.0,-6.0,
2075.0,2139.0,22.0,-6.0,
2078.0,2129.0,22.0,-6.0,
2081.0,2047.0,22.0,-6.0,
2070.0,2030.0,22.0,-6.0,
2065.0,2019.0,22.0,-6.0,
2074.0,2073.0,22.0,-6.0,
2074.0,2083.0,22.0,-6.0,
2060.0,2073.0,22.0,-6.0,
2076.0,2083.0,22.0,-6.0,
2068.0,2065.0,22.0,-6.0,
2070.0,2046.0,22.0,-6.0,
2063.0,2069.0,22.0,-6.0,
2061.0,2101.0,22.0,-6.0,
2066.0,2157.0,22.0,-6.0,
2065.0,2101.0,22.0,-6.0,
2076.0,2100.0,22.0,-6.0,
2076.0,2118.0,22.0,-6.0,
2073.0,2112.0,22.0,-6.0,
2076.0,2109.0,22.0,-6.0,
2084.0,2092.0,22.0,-6.0,
2070.0,2042.0,22.0,-6.0,
2069.0,2027.0,22.0,-6.0,
2055.0,2061.0,22.0,-6.0,
2065.0,2072.0,22.0,-6.0,
2064.0,2097.0,22.0,-6.0,
2080.0,2096.0,22.0,-6.0,
2082.0,2101.0,22.0,-6.0,
2069.0,2081.0,22.0,-6.0,
2072.0,2107.0,22.0,-6.0,
2065.0,2106.0,22.0,-6.0,
2070.0,2095.0,22.0,-6.0,
2063.0,2053.0,22.0,-6.0,
2068.0,2054.0,22.0,-6.0,
2065.0,2081.0,22.0,-6.0,
2071.0,2084.0,22.0,-6.0,
2077.0,2067.0,22.0,-6.0,
2075.0,2082.0,22.0,-6.0,
2071.0,2087.0,22.0,-6.0,
2075.0,2079.0,22.0,-6.0,
2077.0,2084.0,22.0,-6.0,
2072.0,2090.0,22.0,-6.0,
2067.0,2122.0,22.0,-6.0,
2076.0,2115.0,22.0,-6.0,
2084.0,2114.0,22.0,-6.0,
2082.0,2080.0,22.0,-6.0,
2094.0,2040.0,22.0,-6.0,
2065.0,2064.0,22.0,-6.0,
2063.0,2077.0,22.0,-6.0,
2072.0,2084.0,22.0,-6.0,
2074.0,2076.0,22.0,-6.0,
2061.0,2103.0,22.0,-6.0,
2073.0,2105.0,22.0,-6.0,
2086.0,2107.0,22.0,-6.0,
2048.0,2048.0,22.0,-6.0,
2012.0,2036.0,22.0,-6.0,
2048.0,2067.0,22.0,-6.0,
2041.0,2073.0,22.0,-6.0,
2064.0,2058.0,22.0,-6.0,
2090.0,2094.0,22.0,-6.0,
2118.0,2109.0,22.0,-6.0,
2120.0,2051.0,22.0,-6.0,
2111.0,2087.0,22.0,-6.0,
2115.0,2133.0,22.0,-6.0,
2083.0,2096.0,22.0,-6.0,
2041.0,2127.0,22.0,-6.0,
1973.0,2029.0,22.0,-6.0,
2023.0,2070.0,22.0,-6.0,
2016.0,2053.0,22.0,-5.0,
2034.0,2106.0,22.0,-5.0,
2077.0,2066.0,22.0,-5.0,
2059.0,1948.0,22.0,-5.0,
2061.0,2152.0,22.0,-5.0,
2085.0,2152.0,0,
2078.0,2172.0,22.0,-4.0,
2061.0,1994.0,22.0,-4.0,
2074.0,1978.0,22.0,-4.0,
2068.0,2040.0,22.0,-4.0,
2100.0,2212.0,22.0,-4.0,
2107.0,2349.0,22.0,-5.0,
2076.0,2018.0,22.0,-5.0,
2094.0,2032.0,22.0,-5.0,
2087.0,2128.0,22.0,-5.0,
2069.0,2117.0,22.0,-5.0,
2075.0,2137.0,22.0,-6.0,
2082.0,2111.0,22.0,-6.0,
2077.0,1990.0,22.0,-6.0,
2070.0,1859.0,21.0,-6.0,
2065.0,1903.0,21.0,-6.0,
2069.0,2103.0,21.0,-6.0,
2072.0,2246.0,22.0,-6.0,
2085.0,2222.0,22.0,-7.0,
2065.0,2125.0,22.0,-7.0,
2078.0,2080.0,22.0,-7.0,
2065.0,2095.0,22.0,-7.0,
2074.0,2130.0,22.0,-7.0,
2091.0,2250.0,22.0,-7.0,
2078.0,2138.0,23.0,-7.0,
2079.0,2058.0,23.0,-7.0,
2073.0,2040.0,23.0,-7.0,
2095.0,2009.0,23.0,-7.0,
2090.0,1985.0,23.0,-7.0,
2091.0,2030.0,23.0,-6.0,
2084.0,2055.0,23.0,-6.0,
2057.0,2124.0,23.0,-6.0,
2009.0,2082.0,23.0,-6.0,
2050.0,2023.0,23.0,-6.0,
2078.0,2109.0,23.0,-6.0,
2059.0,2159.0,23.0,-6.0,
2091.0,2181.0,23.0,-6.0,
2044.0,2036.0,23.0,-5.0,
2068.0,2011.0,23.0,-5.0,
2080.0,2019.0,23.0,-5.0,
2062.0,2075.0,22.0,-5.0,
2016.0,2097.0,22.0,-5.0,
2023.0,2052.0,22.0,-5.0,
2055.0,1962.0,22.0,-5.0,
2068.0,1982.0,22.0,-5.0,
2053.0,2094.0,22.0,-5.0,
2070.0,2221.0,22.0,-5.0,
2070.0,2206.0,22.0,-5.0,
2067.0,2141.0,22.0,-5.0,
2060.0,2040.0,22.0,-5.0,
2080.0,2072.0,22.0,-5.0,
2092.0,2101.0,22.0,-5.0,
2085.0,2075.0,22.0,-5.0,
2075.0,2034.0,22.0,-6.0,
2058.0,2134.0,22.0,-6.0,
2089.0,2122.0,22.0,-6.0,
2103.0,2005.0,22.0,-6.0,
2101.0,2048.0,22.0,-6.0,
2094.0,2007.0,22.0,-6.0,
2086.0,2028.0,22.0,-6.0,
2027.0,2082.0,22.0,-7.0,
2052.0,2244.0,22.0,-7.0,
2074.0,2189.0,22.0,-7.0,
2057.0,2004.0,22.0,-7.0,
2071.0,2012.0,22.0,-7.0,
2073.0,2173.0,22.0,-7.0,
2086.0,2117.0,22.0,-7.0,
2071.0,2104.0,22.0,-7.0,
2091.0,2104.0,22.0,-7.0,
2085.0,2064.0,22.0,-7.0,
2097.0,2084.0,22.0,-7.0,
2075.0,2008.0,22.0,-7.0,
2068.0,2083.0,22.0,-7.0,
2021.0,2069.0,22.0,-7.0,
2028.0,1998.0,22.0,-7.0,
2061.0,1993.0,22.0,-7.0,
2059.0,2145.0,22.0,-7.0,
2086.0,2201.0,22.0,-7.0,
2098.0,2068.0,22.0,-7.0,
2119.0,2196.0,22.0,-7.0,
2114.0,2225.0,22.0,-7.0,
2133.0,2083.0,22.0,-7.0,
2054.0,2016.0,22.0,-7.0,
1995.0,2115.0,22.0,-7.0,
1965.0,2030.0,22.0,-7.0,
2013.0,2104.0,22.0,-7.0,
2055.0,2081.0,22.0,-6.0,
2068.0,2181.0,22.0,-5.0,
2084.0,2130.0,22.0,-6.0,
2104.0,1983.0,22.0,-6.0,
2070.0,1920.0,22.0,-6.0,
2101.0,1855.0,22.0,-6.0,
2059.0,1947.0,22.0,-6.0,
2076.0,2030.0,22.0,-6.0,
2089.0,2202.0,22.0,-5.0,
2004.0,2252.0,22.0,-5.0,
2043.0,2155.0,21.0,-6.0,
2075.0,2078.0,21.0,-6.0,
2080.0,2087.0,21.0,-5.0,
2076.0,2053.0,22.0,-4.0,
2090.0,2058.0,22.0,-4.0,
2070.0,2044.0,22.0,-5.0,
2058.0,2089.0,21.0,-6.0,
2072.0,2102.0,21.0,-6.0,
2073.0,2204.0,21.0,-6.0,
2092.0,2141.0,21.0,-6.0,
2070.0,2033.0,21.0,-6.0,
2058.0,2069.0,21.0,-6.0,
2069.0,2129.0,21.0,-7.0,
2088.0,2112.0,20.0,-8.0,
2089.0,2090.0,20.0,-7.0,
2062.0,2095.0,20.0,-7.0,
2055.0,2051.0,21.0,-6.0,
2085.0,2004.0,21.0,-6.0,
2075.0,2002.0,21.0,-6.0,
2079.0,2064.0,20.0,-6.0,
2077.0,2094.0,20.0,-6.0,
2076.0,2085.0,20.0,-7.0,
2060.0,2066.0,20.0,-7.0,
2081.0,2091.0,20.0,-8.0,
2070.0,2155.0,20.0,-8.0,
2069.0,2133.0,20.0,-9.0,
2075.0,2128.0,20.0,-9.0,
2071.0,2101.0,19.0,-10.0,
2083.0,2099.0,19.0,-11.0,
2080.0,2112.0,20.0,-11.0,
2086.0,2060.0,19.0,-11.0,
2088.0,2056.0,19.0,-12.0,
2093.0,2064.0,19.0,-12.0,
2109.0,2025.0,19.0,-12.0,
2076.0,2052.0,19.0,-12.0,
2082.0,2045.0,19.0,-12.0,
2057.0,2049.0,0,
2045.0,1992.0,19.0,-13.0,
2050.0,2009.0,19.0,-13.0,
2014.0,2083.0,19.0,-13.0,
2040.0,2324.0,19.0,-13.0,
2076.0,2178.0,20.0,-13.0,
2080.0,2134.0,20.0,-13.0,
2097.0,2058.0,20.0,-13.0,
2067.0,2116.0,20.0,-13.0,
2003.0,2006.0,20.0,-13.0,
2033.0,2073.0,20.0,-13.0,
2082.0,2066.0,21.0,-12.0,
2080.0,2148.0,21.0,-12.0,
2064.0,2046.0,21.0,-12.0,
2091.0,2221.0,21.0,-12.0,
2107.0,2203.0,21.0,-12.0,
2090.0,2091.0,22.0,-12.0,
2053.0,1903.0,22.0,-12.0,
2060.0,1920.0,22.0,-12.0,
2063.0,2169.0,22.0,-12.0,
2063.0,2210.0,22.0,-12.0,
2065.0,2077.0,23.0,-12.0,
2056.0,2058.0,23.0,-11.0,
2075.0,2056.0,23.0,-11.0,
2090.0,2073.0,23.0,-11.0,
2094.0,2134.0,23.0,-11.0,
2051.0,2041.0,23.0,-12.0,
2062.0,2023.0,23.0,-12.0,
2074.0,1963.0,23.0,-12.0,
2075.0,1958.0,23.0,-12.0,
2075.0,2202.0,24.0,-13.0,
2054.0,2098.0,24.0,-13.0,
2070.0,2159.0,24.0,-13.0,
2044.0,2144.0,24.0,-14.0,
2067.0,2065.0,24.0,-15.0,
2102.0,2050.0,24.0,-14.0,
2099.0,2092.0,24.0,-14.0,
2072.0,2068.0,24.0,-14.0,
2071.0,2026.0,24.0,-14.0,
2084.0,2051.0,24.0,-14.0,
2113.0,2178.0,24.0,-14.0,
2072.0,2148.0,23.0,-15.0,
2046.0,2082.0,23.0,-15.0,
2056.0,2056.0,23.0,-15.0,
2064.0,2070.0,23.0,-15.0,
2080.0,2162.0,23.0,-15.0,
2093.0,2075.0,23.0,-16.0,
2066.0,2105.0,23.0,-16.0,
2073.0,2152.0,23.0,-16.0,
2061.0,2100.0,23.0,-16.0,
2077.0,1986.0,23.0,-16.0,
2090.0,2018.0,23.0,-16.0,
2078.0,1994.0,23.0,-16.0,
2047.0,2046.0,23.0,-16.0,
2059.0,2105.0,23.0,-16.0,
2072.0,2156.0,23.0,-16.0,
2084.0,2194.0,23.0,-16.0,
2056.0,2073.0,23.0,-16.0,
2087.0,2255.0,23.0,-17.0,
2089.0,1999.0,23.0,-17.0,
2081.0,1924.0,23.0,-17.0,
2091.0,2035.0,23.0,-17.0,
2048.0,2104.0,23.0,-17.0,
2098.0,2068.0,23.0,-17.0,
2063.0,2010.0,23.0,-17.0,
2042.0,2179.0,23.0,-17.0,
2061.0,2076.0,23.0,-17.0,
2070.0,2021.0,23.0,-17.0,
2072.0,2069.0,23.0,-17.0,
2064.0,2087.0,23.0,-17.0,
2043.0,2015.0,23.0,-17.0,
2083.0,2087.0,24.0,-17.0,
2069.0,2036.0,24.0,-17.0,
2058.0,2090.0,24.0,-18.0,
2060.0,2139.0,24.0,-18.0,
2090.0,2126.0,24.0,-18.0,
2101.0,2222.0,24.0,-18.0,
2110.0,2041.0,24.0,-18.0,
2089.0,2140.0,24.0,-18.0,
2069.0,2146.0,24.0,-18.0,
2019.0,2130.0,25.0,-18.0,
2044.0,2074.0,25.0,-18.0,
2030.0,2057.0,0,
2030.0,2108.0,25.0,-18.0,
2056.0,2066.0,25.0,-18.0,
2097.0,2044.0,25.0,-18.0,
2102.0,2014.0,24.0,-19.0,
2089.0,2165.0,24.0,-19.0,
2029.0,2117.0,24.0,-19.0,
2061.0,2077.0,24.0,-19.0,
2084.0,2043.0,24.0,-19.0,
2101.0,2174.0,24.0,-19.0,
2081.0,1979.0,24.0,-20.0,
2094.0,2046.0,24.0,-20.0,
2096.0,2067.0,24.0,-20.0,
2077.0,2077.0,23.0,-18.0,
2085.0,2023.0,0,
2058.0,1964.0,23.0,-18.0,
2059.0,2089.0,23.0,-19.0,
2056.0,2082.0,23.0,-19.0,
2060.0,2069.0,23.0,-20.0,
2041.0,2123.0,23.0,-20.0,
2048.0,2167.0,23.0,-21.0,
2046.0,1997.0,23.0,-21.0,
2085.0,2047.0,23.0,-21.0,
2081.0,2158.0,23.0,-21.0,
2068.0,2283.0,23.0,-23.0,
2059.0,2122.0,23.0,-24.0,
2087.0,2147.0,23.0,-23.0,
2108.0,2167.0,23.0,-23.0,
2111.0,2066.0,23.0,-23.0,
2130.0,2082.0,23.0,-23.0,
2071.0,1969.0,23.0,-23.0,
2062.0,2008.0,23.0,-23.0,
2000.0,1987.0,23.0,-23.0,
2034.0,1936.0,23.0,-23.0,
2030.0,1927.0,23.0,-23.0,
2068.0,2285.0,23.0,-23.0,
2088.0,2482.0,23.0,-23.0,
2120.0,2088.0,22.0,-23.0,
2089.0,1883.0,23.0,-23.0,
2097.0,1982.0,23.0,-23.0,
2014.0,2034.0,23.0,-23.0,
2055.0,2056.0,23.0,-23.0,
2038.0,2182.0,23.0,-23.0,
2075.0,2189.0,23.0,-23.0,
2072.0,2294.0,23.0,-23.0,
2107.0,2225.0,23.0,-23.0,
2085.0,2053.0,23.0,-23.0,
2084.0,1942.0,23.0,-23.0,
2110.0,2053.0,23.0,-23.0,
2105.0,2138.0,23.0,-23.0,
2082.0,2170.0,23.0,-23.0,
2094.0,1971.0,23.0,-23.0,
1970.0,2003.0,23.0,-23.0,
2021.0,2058.0,23.0,-23.0,
2047.0,2040.0,23.0,-23.0,
2039.0,2053.0,23.0,-23.0,
2056.0,2063.0,24.0,-23.0,
2076.0,1984.0,24.0,-23.0,
2065.0,2084.0,24.0,-23.0,
2080.0,2097.0,24.0,-23.0,
2109.0,2151.0,24.0,-23.0,
2089.0,2045.0,24.0,-23.0,
2102.0,2027.0,24.0,-23.0,
2082.0,2102.0,24.0,-24.0,
2091.0,2143.0,24.0,-24.0,
2067.0,2057.0,24.0,-24.0,
2101.0,2104.0,24.0,-24.0,
2098.0,2226.0,24.0,-25.0,
2063.0,2090.0,24.0,-25.0,
2077.0,2188.0,24.0,-25.0,
2053.0,2082.0,24.0,-26.0,
2052.0,2126.0,24.0,-26.0,
2062.0,2092.0,24.0,-26.0,
2043.0,2117.0,24.0,-26.0,
2098.0,2072.0,23.0,-27.0,
2082.0,1929.0,23.0,-27.0,
2075.0,2011.0,23.0,-27.0,
2069.0,2056.0,23.0,-27.0,
2093.0,1973.0,23.0,-28.0,
2080.0,1976.0,23.0,-28.0,
2087.0,2289.0,23.0,-28.0,
2063.0,2141.0,23.0,-28.0,
2107.0,2094.0,22.0,-28.0,
2142.0,1911.0,22.0,-28.0,
2103.0,2050.0,22.0,-28.0,
2025.0,2123.0,22.0,-28.0,
2037.0,2148.0,22.0,-28.0,
2050.0,2224.0,22.0,-28.0,
2056.0,2229.0,22.0,-28.0,
2037.0,2072.0,22.0,-28.0,
2056.0,2083.0,22.0,-28.0,
2020.0,1842.0,22.0,-28.0,
1988.0,1987.0,22.0,-28.0,
2067.0,2320.0,22.0,-28.0,
2078.0,2117.0,22.0,-28.0,
2079.0,2094.0,22.0,-28.0,
2066.0,2056.0,22.0,-28.0,
2060.0,2049.0,22.0,-28.0,
2069.0,2040.0,22.0,-28.0,
2107.0,2081.0,23.0,-28.0,
2111.0,2275.0,23.0,-28.0,
2084.0,2177.0,23.0,-28.0,
2087.0,2008.0,23.0,-28.0,
2130.0,2010.0,23.0,-28.0,
2075.0,2092.0,23.0,-28.0,
2000.0,2063.0,23.0,-28.0,
2052.0,2032.0,24.0,-28.0,
2062.0,2243.0,24.0,-29.0,
2070.0,2036.0,24.0,-29.0,
2059.0,1988.0,24.0,-29.0,
2061.0,2030.0,24.0,-29.0,
2040.0,2030.0,24.0,-29.0,
2073.0,2072.0,24.0,-29.0,
2063.0,2063.0,24.0,-29.0,
2088.0,2104.0,23.0,-29.0,
2072.0,2086.0,23.0,-30.0,
2076.0,2051.0,23.0,-30.0,
2092.0,2086.0,23.0,-30.0,
2053.0,2113.0,23.0,-31.0,
2088.0,2058.0,23.0,-31.0,
2088.0,2049.0,23.0,-32.0,
2123.0,2037.0,23.0,-32.0,
2125.0,2130.0,23.0,-33.0,
2086.0,2077.0,23.0,-33.0,
2042.0,2092.0,23.0,-34.0,
2041.0,2105.0,23.0,-34.0,
2039.0,2078.0,23.0,-35.0,
2071.0,2093.0,23.0,-35.0,
2095.0,2046.0,23.0,-36.0,
2066.0,2276.0,22.0,-36.0,
2068.0,2134.0,22.0,-36.0,
2103.0,1948.0,22.0,-36.0,
2115.0,2066.0,22.0,-36.0,
2017.0,1963.0,22.0,-36.0,
2051.0,2035.0,22.0,-36.0,
2114.0,2111.0,22.0,-36.0,
2068.0,2114.0,22.0,-36.0,
2061.0,2269.0,22.0,-36.0,
2087.0,2093.0,22.0,-35.0,
2098.0,2040.0,22.0,-35.0,
2053.0,1947.0,22.0,-35.0,
1985.0,2102.0,22.0,-35.0,
2040.0,2122.0,22.0,-34.0,
2091.0,2199.0,22.0,-34.0,
2087.0,2095.0,22.0,-34.0,
2088.0,2061.0,22.0,-34.0,
2075.0,2011.0,22.0,-34.0,
2061.0,2262.0,22.0,-34.0,
1957.0,2064.0,22.0,-34.0,
2046.0,2004.0,22.0,-34.0,
2067.0,1956.0,22.0,-34.0,
2084.0,2035.0,22.0,-34.0,
2071.0,2053.0,22.0,-34.0,
2092.0,2211.0,22.0,-34.0,
2106.0,2117.0,23.0,-35.0,
2079.0,1996.0,23.0,-35.0,
2062.0,2016.0,23.0,-35.0,
2112.0,1975.0,23.0,-35.0,
2087.0,1986.0,23.0,-35.0,
2111.0,2144.0,23.0,-36.0,
2111.0,2131.0,23.0,-36.0,
2093.0,2012.0,23.0,-36.0,
2063.0,2286.0,23.0,-37.0,
2034.0,2115.0,23.0,-37.0,
2049.0,2163.0,23.0,-37.0,
2051.0,2031.0,23.0,-37.0,
2050.0,1954.0,23.0,-37.0,
2047.0,1938.0,23.0,-37.0,
2070.0,2138.0,23.0,-37.0,
2049.0,2280.0,23.0,-38.0,
2095.0,2231.0,23.0,-38.0,
2096.0,2094.0,23.0,-38.0,
2122.0,1913.0,23.0,-38.0,
2151.0,2001.0,23.0,-38.0,
2068.0,2182.0,23.0,-38.0,
1979.0,2183.0,23.0,-38.0,
1988.0,2047.0,23.0,-38.0,
2073.0,2182.0,23.0,-38.0,
2063.0,2130.0,23.0,-38.0,
2033.0,1897.0,23.0,-38.0,
2099.0,1868.0,23.0,-38.0,
2100.0,2122.0,23.0,-38.0,
2116.0,2174.0,22.0,-38.0,
2053.0,2368.0,22.0,-38.0,
2075.0,2110.0,22.0,-38.0,
2087.0,1953.0,22.0,-38.0,
2055.0,2007.0,22.0,-38.0,
2073.0,2110.0,22.0,-38.0,
2005.0,2057.0,22.0,-38.0,
2062.0,1998.0,22.0,-38.0,
2118.0,2063.0,22.0,-38.0,
2156.0,2062.0,22.0,-38.0,
2127.0,2109.0,22.0,-38.0,
2071.0,1981.0,22.0,-38.0,
1997.0,2003.0,22.0,-38.0,
2017.0,2196.0,22.0,-38.0,
2044.0,2336.0,22.0,-38.0,
2069.0,2261.0,22.0,-38.0,
2037.0,1993.0,22.0,-39.0,
2042.0,1849.0,22.0,-39.0,
2096.0,1967.0,22.0,-39.0,
2022.0,2236.0,22.0,-39.0,
2111.0,2255.0,22.0,-39.0,
2058.0,2140.0,22.0,-39.0,
2012.0,2099.0,22.0,-39.0,
2062.0,2062.0,22.0,-39.0,
2100.0,2109.0,22.0,-39.0,
2115.0,2066.0,22.0,-39.0,
2066.0,1980.0,22.0,-39.0,
2094.0,2008.0,22.0,-40.0,
2099.0,1921.0,23.0,-40.0,
2040.0,1806.0,23.0,-40.0,
2085.0,2070.0,23.0,-40.0,
2096.0,2029.0,23.0,-41.0,
2144.0,2135.0,23.0,-41.0,
2060.0,2284.0,23.0,-41.0,
2037.0,2205.0,23.0,-41.0,
2062.0,2333.0,23.0,-41.0,
2073.0,2105.0,23.0,-41.0,
2089.0,2065.0,23.0,-41.0,
2049.0,2131.0,23.0,-41.0,
2033.0,2026.0,23.0,-41.0,
2019.0,2040.0,23.0,-41.0,
2073.0,1969.0,23.0,-41.0,
2122.0,1989.0,23.0,-41.0,
2129.0,2069.0,23.0,-41.0,
2068.0,2139.0,23.0,-41.0,
1973.0,2181.0,23.0,-41.0,
2031.0,2096.0,23.0,-41.0,
2033.0,2032.0,23.0,-41.0,
2056.0,1999.0,23.0,-41.0,
2074.0,2035.0,23.0,-41.0,
2074.0,2052.0,23.0,-41.0,
2117.0,2077.0,23.0,-41.0,
2089.0,2022.0,23.0,-41.0,
2193.0,2019.0,23.0,-41.0,
2209.0,2166.0,23.0,-41.0,
2093.0,2206.0,23.0,-41.0,
1988.0,2121.0,23.0,-41.0,
2020.0,2068.0,23.0,-41.0,
2015.0,2090.0,23.0,-42.0,
1957.0,2083.0,23.0,-42.0,
2045.0,2044.0,23.0,-42.0,
2076.0,2030.0,23.0,-42.0,
2041.0,2037.0,23.0,-42.0,
2057.0,2126.0,23.0,-42.0,
2048.0,2086.0,23.0,-42.0,
2039.0,2061.0,23.0,-42.0,
2066.0,2165.0,23.0,-42.0,
2086.0,2213.0,23.0,-42.0,
2085.0,2104.0,23.0,-42.0,
2116.0,2105.0,23.0,-42.0,
2122.0,2031.0,23.0,-42.0,
2077.0,2076.0,23.0,-42.0,
2082.0,1996.0,23.0,-42.0,
2122.0,2098.0,23.0,-42.0,
2057.0,1937.0,23.0,-43.0,
2057.0,2246.0,24.0,-43.0,
2055.0,2104.0,24.0,-43.0,
2085.0,1937.0,24.0,-43.0,
2098.0,2080.0,24.0,-43.0,
2142.0,2242.0,24.0,-43.0,
2090.0,2096.0,24.0,-44.0,
2047.0,2128.0,25.0,-44.0,
2094.0,2171.0,25.0,-44.0,
2110.0,2281.0,25.0,-44.0,
2029.0,1944.0,25.0,-44.0,
2120.0,1993.0,25.0,-44.0,
2033.0,2122.0,25.0,-44.0,
1943.0,2367.0,25.0,-43.0,
1946.0,2131.0,25.0,-43.0,
2054.0,2137.0,25.0,-43.0,
2103.0,1992.0,25.0,-43.0,
2072.0,1896.0,24.0,-43.0,
2111.0,1848.0,24.0,-43.0,
2103.0,1910.0,24.0,-43.0,
2085.0,2158.0,24.0,-43.0,
2061.0,2147.0,24.0,-43.0,
2076.0,2065.0,23.0,-43.0,
2115.0,2132.0,23.0,-43.0,
2098.0,2050.0,23.0,-43.0,
2067.0,2192.0,23.0,-44.0,
2023.0,2133.0,23.0,-44.0,
2077.0,1980.0,23.0,-44.0,
2057.0,1931.0,23.0,-44.0,
2083.0,2088.0,23.0,-45.0,
2119.0,2109.0,23.0,-45.0,
2110.0,1969.0,23.0,-46.0,
2063.0,2055.0,23.0,-46.0,
2028.0,1997.0,23.0,-46.0,
2165.0,2158.0,23.0,-47.0,
2218.0,2155.0,23.0,-47.0,
2008.0,2186.0,23.0,-47.0,
1935.0,2198.0,23.0,-47.0,
1938.0,1976.0,23.0,-48.0,
2027.0,2097.0,23.0,-48.0,
2060.0,2128.0,23.0,-48.0,
2058.0,2051.0,22.0,-48.0,
2116.0,2131.0,22.0,-48.0,
2124.0,2070.0,22.0,-48.0,
1986.0,2054.0,22.0,-48.0,
2044.0,2026.0,22.0,-48.0,
2055.0,1971.0,21.0,-48.0,
2130.0,2074.0,21.0,-48.0,
2060.0,2114.0,21.0,-48.0,
2094.0,2041.0,22.0,-48.0,
2098.0,2146.0,22.0,-48.0,
2072.0,2266.0,22.0,-48.0,
2078.0,2091.0,22.0,-48.0,
2048.0,2082.0,22.0,-48.0,
2073.0,2055.0,23.0,-48.0,
2047.0,1920.0,23.0,-48.0,
2045.0,1951.0,23.0,-47.0,
2092.0,2163.0,23.0,-47.0,
2089.0,2200.0,23.0,-47.0,
2122.0,2220.0,23.0,-47.0,
2054.0,2058.0,23.0,-48.0,
2053.0,1914.0,23.0,-48.0,
2017.0,1957.0,23.0,-48.0,
2063.0,2083.0,23.0,-48.0,
2069.0,2273.0,23.0,-48.0,
2145.0,2090.0,23.0,-48.0,
2141.0,2029.0,23.0,-48.0,
2036.0,2021.0,23.0,-48.0,
2060.0,2152.0,23.0,-49.0,
2055.0,2073.0,23.0,-49.0,
2061.0,2111.0,22.0,-49.0,
2082.0,1927.0,22.0,-49.0,
2150.0,2074.0,22.0,-49.0,
2141.0,2201.0,22.0,-49.0,
2001.0,1960.0,22.0,-49.0,
2087.0,2040.0,22.0,-49.0,
2072.0,2235.0,22.0,-49.0,
1962.0,2003.0,22.0,-49.0,
2022.0,1941.0,22.0,-49.0,
2071.0,2162.0,22.0,-49.0,
2152.0,2067.0,22.0,-49.0,
2045.0,2387.0,22.0,-49.0,
1968.0,2171.0,22.0,-49.0,
2046.0,2037.0,22.0,-49.0,
2121.0,1994.0,21.0,-49.0,
2040.0,2085.0,21.0,-49.0,
2079.0,2084.0,21.0,-49.0,
2084.0,2140.0,21.0,-49.0,
2105.0,1992.0,21.0,-49.0,
1992.0,1942.0,21.0,-49.0,
2095.0,2216.0,21.0,-49.0,
2103.0,2006.0,21.0,-49.0,
2084.0,2099.0,21.0,-49.0,
2053.0,2073.0,21.0,-49.0,
2103.0,2072.0,21.0,-49.0,
1998.0,2069.0,21.0,-49.0,
2083.0,2119.0,21.0,-49.0,
2066.0,2085.0,21.0,-50.0,
1985.0,2091.0,21.0,-50.0,
2061.0,2148.0,21.0,-50.0,
2105.0,2064.0,21.0,-50.0,
2107.0,1988.0,21.0,-50.0,
2092.0,2048.0,21.0,-50.0,
2069.0,2003.0,21.0,-50.0,
2123.0,2030.0,21.0,-50.0,
2069.0,2055.0,21.0,-50.0,
2030.0,2047.0,21.0,-51.0,
2108.0,2094.0,21.0,-51.0,
2138.0,2233.0,21.0,-51.0,
2069.0,2425.0,21.0,-51.0,
1990.0,2160.0,21.0,-51.0,
2022.0,1889.0,21.0,-51.0,
2098.0,1929.0,21.0,-51.0,
2126.0,1879.0,21.0,-51.0,
2092.0,2039.0,21.0,-51.0,
2032.0,2321.0,21.0,-51.0,
1931.0,2195.0,22.0,-51.0,
2076.0,2081.0,22.0,-51.0,
2096.0,1937.0,22.0,-51.0,
2047.0,1910.0,22.0,-51.0,
2072.0,2183.0,22.0,-51.0,
2081.0,2335.0,22.0,-51.0,
2121.0,2234.0,22.0,-51.0,
2111.0,1983.0,22.0,-51.0,
2113.0,2077.0,22.0,-50.0,
2106.0,1997.0,22.0,-50.0,
2078.0,2072.0,22.0,-50.0,
2049.0,2092.0,22.0,-50.0,
1993.0,1886.0,22.0,-50.0,
2246.0,2125.0,22.0,-50.0,
2116.0,2163.0,22.0,-51.0,
1863.0,2020.0,22.0,-51.0,
1911.0,2215.0,22.0,-51.0,
2003.0,2152.0,22.0,-51.0,
2133.0,2071.0,22.0,-51.0,
2088.0,1970.0,21.0,-51.0,
2020.0,1996.0,21.0,-51.0,
2136.0,2006.0,21.0,-51.0,
2073.0,1984.0,21.0,-51.0,
2094.0,2116.0,21.0,-51.0,
2097.0,2046.0,21.0,-51.0,
2105.0,2044.0,21.0,-51.0,
2064.0,2150.0,21.0,-51.0,
1958.0,2085.0,21.0,-51.0,
2069.0,2130.0,21.0,-51.0,
2098.0,2310.0,21.0,-51.0,
2097.0,2109.0,21.0,-51.0,
2107.0,2065.0,21.0,-52.0,
1969.0,1805.0,22.0,-52.0,
2072.0,2069.0,22.0,-52.0,
2113.0,2127.0,22.0,-52.0,
2118.0,1979.0,22.0,-52.0,
2156.0,2300.0,22.0,-52.0,
2093.0,2221.0,22.0,-52.0,
1957.0,1945.0,23.0,-52.0,
2099.0,2216.0,23.0,-52.0,
2132.0,2148.0,23.0,-52.0,
2074.0,1896.0,23.0,-52.0,
2025.0,2234.0,23.0,-52.0,
2068.0,2081.0,23.0,-52.0,
2142.0,1977.0,23.0,-53.0,
2082.0,2010.0,23.0,-53.0,
2027.0,2014.0,23.0,-53.0,
2020.0,1746.0,23.0,-53.0,
2166.0,1958.0,0,
2159.0,2343.0,23.0,-53.0,
2094.0,2156.0,23.0,-53.0,
2050.0,2221.0,22.0,-53.0,
2079.0,2214.0,22.0,-53.0,
1939.0,2159.0,22.0,-53.0,
1862.0,2112.0,22.0,-53.0,
2087.0,1960.0,22.0,-53.0,
2073.0,1888.0,22.0,-53.0,
2051.0,1984.0,22.0,-52.0,
2126.0,2121.0,22.0,-52.0,
2092.0,2206.0,22.0,-52.0,
2019.0,2108.0,21.0,-52.0,
2007.0,2004.0,21.0,-52.0,
2096.0,1797.0,0,
2148.0,1910.0,21.0,-52.0,
2023.0,2444.0,21.0,-52.0,
1993.0,2290.0,21.0,-52.0,
2024.0,2264.0,21.0,-52.0,
2060.0,2212.0,22.0,-52.0,
2102.0,2139.0,22.0,-52.0,
2073.0,2000.0,22.0,-52.0,
2094.0,1964.0,22.0,-52.0,
2166.0,2043.0,22.0,-52.0,
2160.0,1999.0,22.0,-52.0,
2073.0,2074.0,22.0,-52.0,
1981.0,2034.0,22.0,-52.0,
2050.0,2013.0,22.0,-53.0,
2093.0,2213.0,22.0,-53.0,
2086.0,2101.0,22.0,-53.0,
2097.0,2120.0,22.0,-53.0,
2085.0,2155.0,22.0,-53.0,
1970.0,2055.0,22.0,-53.0,
2056.0,2032.0,21.0,-54.0,
2055.0,2075.0,21.0,-54.0,
2074.0,2139.0,21.0,-54.0,
2094.0,2044.0,21.0,-54.0,
2141.0,2046.0,21.0,-54.0,
2150.0,2068.0,21.0,-55.0,
2088.0,1969.0,21.0,-55.0,
2061.0,2127.0,21.0,-55.0,
2037.0,2114.0,21.0,-55.0,
2047.0,2023.0,21.0,-55.0,
2078.0,2149.0,21.0,-55.0,
1964.0,2093.0,21.0,-55.0,
2064.0,1970.0,21.0,-56.0,
2169.0,1938.0,0,
2165.0,2027.0,21.0,-56.0,
2001.0,2025.0,21.0,-56.0,
1899.0,2274.0,21.0,-56.0,
2015.0,2209.0,21.0,-56.0,
2038.0,2066.0,21.0,-56.0,
2100.0,1778.0,21.0,-56.0,
2127.0,1896.0,21.0,-56.0,
2155.0,2332.0,21.0,-56.0,
2081.0,2307.0,22.0,-56.0,
1994.0,2094.0,22.0,-56.0,
2048.0,2243.0,22.0,-56.0,
2053.0,2054.0,22.0,-56.0,
2092.0,2014.0,22.0,-55.0,
2115.0,2148.0,22.0,-55.0,
2051.0,2161.0,22.0,-55.0,
2067.0,2122.0,23.0,-55.0,
2006.0,2024.0,23.0,-55.0,
2087.0,1902.0,23.0,-55.0,
2077.0,2017.0,23.0,-55.0,
2063.0,2243.0,23.0,-54.0,
2096.0,1971.0,22.0,-54.0,
2073.0,1995.0,22.0,-54.0,
2095.0,2290.0,22.0,-54.0,
2069.0,2074.0,22.0,-54.0,
2077.0,2032.0,22.0,-54.0,
2044.0,2121.0,22.0,-54.0,
2079.0,2108.0,22.0,-54.0,
2107.0,1910.0,22.0,-54.0,
2118.0,1954.0,22.0,-55.0,
2173.0,2170.0,22.0,-55.0,
2035.0,2208.0,21.0,-55.0,
1947.0,2028.0,21.0,-55.0,
2058.0,2019.0,21.0,-55.0,
2055.0,2034.0,22.0,-55.0,
2058.0,2121.0,21.0,-55.0,
1990.0,2193.0,21.0,-55.0,
2080.0,2128.0,21.0,-55.0,
2092.0,2045.0,21.0,-55.0,
2056.0,2080.0,21.0,-55.0,
2069.0,2020.0,21.0,-55.0,
2095.0,2022.0,21.0,-55.0,
2043.0,2075.0,21.0,-55.0,
2097.0,1978.0,21.0,-55.0,
2072.0,2155.0,20.0,-55.0,
2048.0,2243.0,20.0,-55.0,
2050.0,2012.0,21.0,-55.0,
2084.0,1982.0,21.0,-55.0,
2091.0,2157.0,21.0,-55.0,
2101.0,2250.0,21.0,-55.0,
2066.0,2122.0,21.0,-55.0,
2059.0,2119.0,21.0,-55.0,
2106.0,2093.0,21.0,-55.0,
2091.0,2068.0,22.0,-55.0,
2077.0,2116.0,22.0,-55.0,
2028.0,1963.0,22.0,-55.0,
2070.0,1910.0,22.0,-55.0,
2079.0,2190.0,22.0,-55.0,
2080.0,2153.0,22.0,-55.0,
2023.0,2047.0,22.0,-55.0,
2056.0,2014.0,22.0,-55.0,
2076.0,2075.0,22.0,-54.0,
2110.0,2284.0,22.0,-54.0,
2109.0,2091.0,22.0,-54.0,
2119.0,1976.0,22.0,-54.0,
2002.0,2016.0,22.0,-54.0,
2031.0,2095.0,0,
2046.0,2190.0,22.0,-54.0,
2085.0,1949.0,22.0,-54.0,
2040.0,1922.0,22.0,-54.0,
2074.0,2021.0,22.0,-54.0,
2106.0,2180.0,22.0,-54.0,
2046.0,2119.0,22.0,-54.0,
2075.0,2083.0,21.0,-54.0,
2043.0,2031.0,21.0,-54.0,
2024.0,2082.0,21.0,-54.0,
2070.0,2078.0,21.0,-53.0,
2075.0,2006.0,21.0,-53.0,
2115.0,2191.0,21.0,-53.0,
2099.0,2082.0,21.0,-53.0,
2061.0,2080.0,21.0,-53.0,
2029.0,2011.0,21.0,-53.0,
2069.0,2149.0,21.0,-52.0,
2032.0,1994.0,21.0,-52.0,
2044.0,2116.0,21.0,-52.0,
2078.0,2199.0,21.0,-52.0,
2069.0,2135.0,21.0,-52.0,
2107.0,2173.0,21.0,-52.0,
2060.0,2132.0,21.0,-52.0,
2073.0,2187.0,21.0,-52.0,
2071.0,2111.0,21.0,-52.0,
2102.0,2060.0,21.0,-52.0,
2094.0,2021.0,21.0,-52.0,
2067.0,2030.0,22.0,-52.0,
2102.0,2051.0,22.0,-52.0,
2018.0,2023.0,22.0,-52.0,
2060.0,2127.0,22.0,-52.0,
2073.0,2020.0,22.0,-52.0,
2028.0,2064.0,22.0,-52.0,
2046.0,2114.0,22.0,-52.0,
2036.0,2148.0,22.0,-52.0,
2046.0,2022.0,22.0,-52.0,
2059.0,2107.0,22.0,-52.0,
2083.0,1927.0,22.0,-52.0,
2082.0,2040.0,22.0,-52.0,
2058.0,2233.0,22.0,-52.0,
2102.0,2222.0,21.0,-52.0,
2098.0,2090.0,21.0,-52.0,
2076.0,1966.0,21.0,-52.0,
2056.0,1949.0,21.0,-53.0,
2051.0,2173.0,21.0,-53.0,
2069.0,2217.0,21.0,-53.0,
2092.0,2118.0,21.0,-53.0,
2060.0,2030.0,21.0,-53.0,
2106.0,2026.0,21.0,-53.0,
2103.0,2070.0,21.0,-53.0,
2110.0,2145.0,21.0,-53.0,
2060.0,1963.0,21.0,-53.0,
2017.0,2039.0,21.0,-53.0,
2074.0,2151.0,21.0,-53.0,
2102.0,2126.0,21.0,-53.0,
2044.0,2142.0,21.0,-53.0,
2065.0,2104.0,21.0,-53.0,
2049.0,1988.0,21.0,-52.0,
2100.0,1986.0,21.0,-52.0,
2148.0,1975.0,21.0,-52.0,
2060.0,2204.0,21.0,-52.0,
2005.0,2196.0,20.0,-52.0,
2038.0,2114.0,20.0,-51.0,
2024.0,2091.0,20.0,-51.0,
2051.0,2096.0,20.0,-51.0,
2076.0,2148.0,20.0,-50.0,
2071.0,2036.0,20.0,-50.0,
2064.0,2054.0,19.0,-49.0,
2093.0,2100.0,19.0,-49.0,
2067.0,2093.0,19.0,-48.0,
2055.0,2058.0,19.0,-48.0,
2102.0,1921.0,19.0,-47.0,
2062.0,2186.0,19.0,-47.0,
2063.0,2183.0,20.0,-46.0,
2086.0,2062.0,20.0,-46.0,
2086.0,1975.0,20.0,-46.0,
2113.0,2065.0,20.0,-45.0,
2059.0,2014.0,21.0,-45.0,
2068.0,2002.0,21.0,-45.0,
2039.0,2017.0,21.0,-45.0,
2070.0,2224.0,21.0,-45.0,
2070.0,2126.0,21.0,-45.0,
2076.0,2097.0,21.0,-45.0,
2103.0,2232.0,21.0,-46.0,
2094.0,2021.0,21.0,-46.0,
2028.0,1954.0,21.0,-46.0,
2051.0,2151.0,22.0,-46.0,
2074.0,2284.0,22.0,-46.0,
2058.0,2086.0,21.0,-47.0,
2058.0,2043.0,21.0,-47.0,
2075.0,2057.0,21.0,-47.0,
2068.0,2103.0,21.0,-48.0,
2047.0,2045.0,21.0,-48.0,
2071.0,2078.0,21.0,-48.0,
2066.0,2121.0,21.0,-48.0,
2072.0,2041.0,21.0,-48.0,
2071.0,2059.0,20.0,-49.0,
2066.0,2084.0,20.0,-49.0,
2084.0,2055.0,20.0,-49.0,
2075.0,1900.0,20.0,-50.0,
2076.0,2031.0,19.0,-50.0,
2070.0,2102.0,19.0,-50.0,
2069.0,2160.0,19.0,-50.0,
2060.0,2094.0,19.0,-51.0,
2041.0,2201.0,19.0,-51.0,
2034.0,2072.0,19.0,-51.0,
2054.0,2085.0,19.0,-52.0,
2065.0,2092.0,19.0,-52.0,
2081.0,2079.0,18.0,-52.0,
2093.0,2200.0,18.0,-53.0,
2088.0,2042.0,18.0,-53.0,
2051.0,1960.0,18.0,-53.0,
2083.0,1867.0,18.0,-53.0,
2106.0,1932.0,19.0,-53.0,
2089.0,2204.0,19.0,-53.0,
2132.0,2277.0,19.0,-53.0,
2048.0,2288.0,19.0,-52.0,
2090.0,2154.0,19.0,-52.0,
2029.0,1962.0,19.0,-51.0,
2034.0,1877.0,19.0,-50.0,
2087.0,2198.0,19.0,-49.0,
2052.0,2040.0,19.0,-47.0,
2041.0,1981.0,19.0,-46.0,
2072.0,2014.0,18.0,-44.0,
2044.0,2240.0,18.0,-42.0,
2035.0,2276.0,18.0,-40.0,
2078.0,2148.0,18.0,-38.0,
2085.0,2072.0,18.0,-37.0,
2079.0,2023.0,18.0,-35.0,
2041.0,2121.0,18.0,-34.0,
2038.0,2201.0,18.0,-33.0,
2088.0,2055.0,18.0,-32.0,
2114.0,1984.0,18.0,-31.0,
2075.0,2037.0,19.0,-31.0,
2041.0,2017.0,19.0,-31.0,
2072.0,2032.0,20.0,-31.0,
2057.0,2042.0,20.0,-31.0,
2080.0,1994.0,21.0,-31.0,
2069.0,2043.0,21.0,-32.0,
2046.0,2090.0,21.0,-32.0,
2081.0,2143.0,21.0,-33.0,
2085.0,2108.0,21.0,-34.0,
2077.0,2095.0,22.0,-34.0,
2059.0,2088.0,22.0,-35.0,
2046.0,2098.0,22.0,-36.0,
2052.0,2087.0,22.0,-36.0,
2055.0,2047.0,22.0,-37.0,
2070.0,2046.0,22.0,-37.0,
2063.0,2146.0,21.0,-37.0,
2063.0,2154.0,21.0,-38.0,
2043.0,2097.0,21.0,-38.0,
2051.0,2036.0,21.0,-38.0,
2064.0,2061.0,20.0,-39.0,
2069.0,2030.0,20.0,-39.0,
2067.0,2127.0,19.0,-39.0,
2080.0,2204.0,19.0,-39.0,
2066.0,2128.0,18.0,-40.0,
2086.0,2000.0,18.0,-40.0,
2073.0,1990.0,17.0,-40.0,
2066.0,2057.0,17.0,-40.0,
2067.0,2004.0,17.0,-40.0,
2073.0,2067.0,16.0,-41.0,
2090.0,2068.0,16.0,-41.0,
2121.0,2142.0,16.0,-41.0,
2073.0,2019.0,16.0,-41.0,
2080.0,2132.0,16.0,-42.0,
2035.0,2181.0,16.0,-42.0,
2065.0,2068.0,16.0,-42.0,
2071.0,2025.0,16.0,-42.0,
2099.0,2250.0,17.0,-42.0,
2091.0,2077.0,17.0,-41.0,
2091.0,2031.0,17.0,-41.0,
2075.0,1987.0,18.0,-41.0,
2072.0,2161.0,18.0,-40.0,
2079.0,2254.0,18.0,-40.0,
2071.0,2130.0,19.0,-39.0,
2066.0,2020.0,19.0,-38.0,
2012.0,2040.0,19.0,-37.0,
2041.0,2042.0,19.0,-36.0,
2057.0,2003.0,20.0,-35.0,
2035.0,2016.0,20.0,-34.0,
2059.0,2234.0,19.0,-33.0,
2084.0,2106.0,19.0,-32.0,
2043.0,2045.0,19.0,-30.0,
2056.0,2028.0,19.0,-29.0,
2101.0,2122.0,19.0,-29.0,
2063.0,2058.0,19.0,-28.0,
2071.0,2077.0,19.0,-27.0,
2057.0,2089.0,19.0,-27.0,
2078.0,2030.0,19.0,-27.0,
2077.0,2021.0,19.0,-26.0,
2064.0,2099.0,20.0,-26.0,
2051.0,2111.0,20.0,-26.0,
2075.0,2044.0,20.0,-27.0,
2070.0,2101.0,20.0,-27.0,
2098.0,2138.0,20.0,-27.0,
2113.0,2173.0,21.0,-28.0,
2069.0,2118.0,21.0,-28.0,
2057.0,2108.0,21.0,-29.0,
2045.0,2155.0,21.0,-29.0,
2059.0,2081.0,21.0,-30.0,
2043.0,1988.0,21.0,-30.0,
2056.0,1916.0,21.0,-31.0,
2075.0,2026.0,20.0,-31.0,
2085.0,2011.0,20.0,-31.0,
2080.0,2165.0,20.0,-32.0,
2088.0,2160.0,20.0,-32.0,
2091.0,2180.0,20.0,-32.0,
2080.0,2107.0,20.0,-32.0,
2070.0,2058.0,20.0,-32.0,
2071.0,1926.0,20.0,-32.0,
2070.0,2094.0,19.0,-32.0,
2073.0,2144.0,19.0,-32.0,
2068.0,2267.0,19.0,-32.0,
2082.0,2134.0,20.0,-31.0,
2076.0,2049.0,19.0,-30.0,
2078.0,1986.0,19.0,-30.0,
2068.0,2065.0,19.0,-31.0,
2067.0,2081.0,19.0,-31.0,
2074.0,2121.0,19.0,-31.0,
2062.0,2008.0,19.0,-32.0,
2056.0,1927.0,19.0,-31.0,
2067.0,1963.0,19.0,-31.0,
2069.0,2206.0,19.0,-32.0,
2070.0,2214.0,19.0,-33.0,
2072.0,2166.0,19.0,-33.0,
2077.0,2003.0,19.0,-33.0,
2070.0,2054.0,19.0,-33.0,
2060.0,2121.0,19.0,-32.0,
2070.0,2039.0,19.0,-31.0,
2086.0,2024.0,20.0,-31.0,
2080.0,2138.0,20.0,-31.0,
2061.0,2207.0,20.0,-30.0,
2067.0,2112.0,20.0,-30.0,
2089.0,2043.0,20.0,-30.0,
2082.0,2060.0,20.0,-29.0,
2099.0,2102.0,20.0,-29.0,
2101.0,2012.0,20.0,-28.0,
2074.0,1968.0,20.0,-28.0,
2115.0,2179.0,20.0,-27.0,
2009.0,2221.0,20.0,-27.0,
1939.0,2067.0,20.0,-26.0,
2017.0,2102.0,19.0,-26.0,
2005.0,2113.0,19.0,-25.0,
2044.0,2020.0,19.0,-24.0,
2043.0,2004.0,18.0,-23.0,
2054.0,1985.0,18.0,-23.0,
2082.0,2212.0,18.0,-22.0,
2078.0,2050.0,18.0,-22.0,
2096.0,2096.0,18.0,-21.0,
2084.0,2213.0,18.0,-21.0,
2076.0,2115.0,18.0,-20.0,
2072.0,2079.0,18.0,-20.0,
2062.0,2067.0,18.0,-20.0,
2060.0,2075.0,19.0,-20.0,
2092.0,2073.0,19.0,-20.0,
2090.0,2093.0,20.0,-21.0,
2059.0,2027.0,20.0,-21.0,
2065.0,2049.0,20.0,-21.0,
2066.0,2050.0,20.0,-21.0,
2083.0,2154.0,21.0,-22.0,
2080.0,2149.0,21.0,-22.0,
2078.0,2034.0,20.0,-22.0,
2069.0,2010.0,20.0,-23.0,
2073.0,1978.0,20.0,-23.0,
2064.0,2079.0,20.0,-23.0,
2061.0,2155.0,20.0,-23.0,
2060.0,2109.0,20.0,-24.0,
2068.0,2090.0,19.0,-24.0,
2067.0,1931.0,19.0,-24.0,
2050.0,2159.0,19.0,-24.0,
2067.0,2090.0,19.0,-24.0,
2062.0,2076.0,19.0,-24.0,
2070.0,2119.0,18.0,-24.0,
2034.0,2065.0,18.0,-24.0,
2059.0,2180.0,18.0,-24.0,
2062.0,2059.0,18.0,-24.0,
2072.0,2035.0,18.0,-24.0,
2060.0,2000.0,17.0,-24.0,
2068.0,2068.0,17.0,-24.0,
2079.0,2131.0,17.0,-24.0,
2057.0,2028.0,17.0,-24.0,
2063.0,1911.0,17.0,-24.0,
2059.0,2088.0,17.0,-24.0,
2072.0,2232.0,17.0,-24.0,
2075.0,2217.0,17.0,-24.0,
2081.0,2274.0,17.0,-24.0,
2078.0,2214.0,17.0,-24.0,
2066.0,2148.0,17.0,-24.0,
2073.0,2094.0,17.0,-24.0,
2077.0,2084.0,18.0,-23.0,
2087.0,2077.0,18.0,-23.0,
2098.0,2024.0,18.0,-23.0,
2087.0,2009.0,18.0,-22.0,
2083.0,2000.0,19.0,-22.0,
2051.0,2100.0,19.0,-22.0,
2088.0,2143.0,19.0,-21.0,
2050.0,2067.0,19.0,-21.0,
2037.0,2060.0,19.0,-21.0,
2033.0,2034.0,19.0,-21.0,
2061.0,2133.0,19.0,-20.0,
2062.0,2020.0,19.0,-20.0,
2076.0,2008.0,19.0,-20.0,
2034.0,2115.0,19.0,-19.0,
2040.0,2085.0,19.0,-19.0,
2043.0,1999.0,19.0,-19.0,
2056.0,1995.0,19.0,-18.0,
2050.0,2224.0,19.0,-18.0,
2060.0,2161.0,19.0,-18.0,
2092.0,2112.0,19.0,-17.0,
2094.0,2089.0,19.0,-17.0,
2087.0,2129.0,19.0,-17.0,
2048.0,2017.0,20.0,-17.0,
2067.0,2080.0,20.0,-17.0,
2060.0,2177.0,20.0,-17.0,
2085.0,2080.0,20.0,-17.0,
2097.0,2307.0,20.0,-17.0,
2082.0,2019.0,20.0,-17.0,
2095.0,1979.0,20.0,-17.0,
2084.0,1947.0,20.0,-18.0,
2068.0,2082.0,20.0,-18.0,
2078.0,2034.0,20.0,-18.0,
2082.0,2043.0,20.0,-18.0,
2069.0,2058.0,19.0,-18.0,
2068.0,2152.0,19.0,-18.0,
2064.0,2120.0,19.0,-18.0,
2070.0,2068.0,19.0,-18.0,
2080.0,2039.0,19.0,-18.0,
2074.0,1997.0,19.0,-17.0,
2067.0,2026.0,18.0,-17.0,
2070.0,2202.0,18.0,-17.0,
2067.0,2137.0,18.0,-17.0,
2067.0,2121.0,18.0,-17.0,
2068.0,2113.0,18.0,-17.0,
2071.0,2099.0,17.0,-17.0,
2084.0,2068.0,17.0,-17.0,
2073.0,2274.0,17.0,-17.0,
2063.0,2102.0,17.0,-17.0,
2062.0,2042.0,17.0,-17.0,
2069.0,2052.0,17.0,-17.0,
2062.0,2023.0,17.0,-17.0,
2088.0,2043.0,17.0,-17.0,
2074.0,2058.0,16.0,-17.0,
2089.0,2022.0,16.0,-17.0,
2084.0,2038.0,16.0,-17.0,
2066.0,2075.0,17.0,-17.0,
2099.0,2231.0,17.0,-17.0,
2088.0,2203.0,17.0,-17.0,
2047.0,2087.0,17.0,-17.0,
2051.0,2046.0,17.0,-17.0,
2067.0,2136.0,17.0,-17.0,
2059.0,1934.0,17.0,-17.0,
2075.0,2148.0,17.0,-16.0,
2056.0,2125.0,17.0,-16.0,
2093.0,2052.0,17.0,-16.0,
2109.0,2021.0,17.0,-16.0,
2105.0,2068.0,18.0,-15.0,
2061.0,2106.0,18.0,-15.0,
2000.0,2056.0,18.0,-15.0,
2058.0,2036.0,18.0,-15.0,
2018.0,2007.0,18.0,-14.0,
2006.0,2182.0,18.0,-14.0,
2020.0,2162.0,18.0,-14.0,
2026.0,2144.0,18.0,-14.0,
2059.0,2117.0,18.0,-13.0,
2067.0,2132.0,18.0,-13.0,
2077.0,1972.0,18.0,-13.0,
2081.0,1995.0,18.0,-13.0,
2084.0,1972.0,18.0,-13.0,
2086.0,2142.0,18.0,-13.0,
2081.0,2167.0,18.0,-12.0,
2079.0,2157.0,18.0,-12.0,
2085.0,2086.0,18.0,-12.0,
2075.0,2034.0,18.0,-12.0,
2072.0,2011.0,18.0,-13.0,
2094.0,2222.0,18.0,-12.0,
2085.0,2122.0,18.0,-11.0,
2085.0,2047.0,18.0,-13.0,
2087.0,2037.0,18.0,-13.0,
2086.0,2096.0,18.0,-13.0,
2073.0,2136.0,18.0,-13.0,
2078.0,2131.0,0,
2080.0,1983.0,18.0,-13.0,
2075.0,2042.0,18.0,-13.0,
2078.0,2127.0,18.0,-13.0,
2074.0,2197.0,18.0,-13.0,
2069.0,2089.0,18.0,-15.0,
2070.0,2076.0,18.0,-14.0,
2059.0,2071.0,17.0,-13.0,
2066.0,2080.0,18.0,-13.0,
2078.0,2064.0,18.0,-13.0,
2063.0,2057.0,18.0,-13.0,
2065.0,2094.0,17.0,-13.0,
2068.0,2073.0,17.0,-13.0,
2068.0,2070.0,17.0,-13.0,
2069.0,2051.0,17.0,-13.0,
2061.0,2048.0,17.0,-13.0,
2066.0,2050.0,17.0,-13.0,
2068.0,2053.0,17.0,-13.0,
2061.0,2103.0,17.0,-13.0,
2073.0,2126.0,17.0,-14.0,
2050.0,2176.0,17.0,-14.0,
2077.0,2102.0,17.0,-14.0,
2076.0,1984.0,17.0,-14.0,
2065.0,1966.0,17.0,-14.0,
2074.0,2017.0,17.0,-14.0,
2084.0,2254.0,17.0,-15.0,
2064.0,2051.0,17.0,-15.0,
2047.0,2091.0,17.0,-15.0,
2065.0,2066.0,17.0,-15.0,
2045.0,2155.0,17.0,-15.0,
2101.0,2058.0,17.0,-15.0,
2090.0,2095.0,17.0,-15.0,
2082.0,2083.0,17.0,-15.0,
2078.0,2210.0,17.0,-15.0,
2027.0,2125.0,17.0,-15.0,
2034.0,2055.0,17.0,-15.0,
2065.0,2196.0,18.0,-15.0,
2078.0,2122.0,18.0,-15.0,
2069.0,2065.0,18.0,-15.0,
2072.0,2059.0,18.0,-15.0,
2071.0,2018.0,18.0,-14.0,
2089.0,1863.0,19.0,-14.0,
2073.0,2166.0,19.0,-14.0,
2056.0,2149.0,19.0,-14.0,
2062.0,2147.0,19.0,-14.0,
2064.0,2153.0,20.0,-14.0,
2044.0,2030.0,20.0,-14.0,
2060.0,1919.0,20.0,-14.0,
2081.0,1981.0,20.0,-14.0,
2089.0,1990.0,20.0,-14.0,
2068.0,2041.0,21.0,-14.0,
2047.0,2140.0,21.0,-14.0,
2059.0,2183.0,21.0,-14.0,
2083.0,2245.0,21.0,-14.0,
2053.0,2107.0,21.0,-13.0,
2051.0,2120.0,21.0,-13.0,
2058.0,2066.0,21.0,-13.0,
2065.0,2036.0,21.0,-13.0,
2064.0,2029.0,20.0,-13.0,
2067.0,2023.0,20.0,-13.0,
2074.0,2095.0,20.0,-13.0,
2123.0,2171.0,20.0,-13.0,
2080.0,2138.0,19.0,-13.0,
2109.0,2098.0,19.0,-13.0,
2084.0,2080.0,19.0,-13.0,
2076.0,2075.0,18.0,-13.0,
2095.0,2061.0,18.0,-13.0,
2085.0,2042.0,17.0,-13.0,
2090.0,2049.0,17.0,-13.0,
2073.0,2167.0,17.0,-13.0,
2066.0,2087.0,16.0,-13.0,
2081.0,2064.0,16.0,-13.0,
2082.0,2076.0,16.0,-13.0,
2078.0,2092.0,16.0,-13.0,
2087.0,2098.0,16.0,-13.0,
2073.0,2066.0,15.0,-13.0,
2063.0,2059.0,15.0,-12.0,
2075.0,2026.0,15.0,-12.0,
2073.0,2036.0,15.0,-12.0,
2064.0,2025.0,15.0,-12.0,
2080.0,2157.0,15.0,-12.0,
2058.0,2041.0,16.0,-12.0,
2063.0,2139.0,16.0,-12.0,
2075.0,2098.0,16.0,-12.0,
2073.0,2088.0,16.0,-12.0,
2070.0,2139.0,16.0,-12.0,
2076.0,2198.0,16.0,-12.0,
2079.0,2120.0,16.0,-12.0,
2060.0,2110.0,16.0,-12.0,
2068.0,2070.0,16.0,-12.0,
2059.0,1887.0,16.0,-12.0,
2065.0,1953.0,16.0,-12.0,
2062.0,2170.0,16.0,-12.0,
2058.0,2226.0,16.0,-11.0,
2052.0,2122.0,16.0,-11.0,
2076.0,2125.0,16.0,-11.0,
2066.0,2068.0,16.0,-11.0,
2060.0,2154.0,16.0,-11.0,
2083.0,2056.0,16.0,-11.0,
2084.0,2012.0,16.0,-10.0,
2068.0,2026.0,16.0,-10.0,
2080.0,2048.0,16.0,-10.0,
2090.0,2070.0,16.0,-10.0,
2085.0,2066.0,16.0,-10.0,
2063.0,2055.0,16.0,-10.0,
2050.0,2086.0,16.0,-10.0,
2051.0,2085.0,15.0,-10.0,
2083.0,2113.0,15.0,-10.0,
2068.0,2056.0,15.0,-10.0,
2072.0,2068.0,15.0,-10.0,
2066.0,2067.0,14.0,-10.0,
2069.0,2088.0,14.0,-9.0,
2075.0,2109.0,14.0,-9.0,
2072.0,2095.0,14.0,-9.0,
2057.0,2081.0,14.0,-10.0,
2065.0,2077.0,14.0,-9.0,
2071.0,2056.0,15.0,-9.0,
2068.0,2032.0,15.0,-9.0,
2071.0,2084.0,16.0,-9.0,
2081.0,2177.0,16.0,-9.0,
2087.0,2173.0,16.0,-9.0,
2085.0,2129.0,17.0,-9.0,
2078.0,2079.0,17.0,-9.0,
2072.0,2083.0,17.0,-9.0,
2057.0,2088.0,17.0,-9.0,
2070.0,2084.0,18.0,-9.0,
2073.0,2100.0,18.0,-9.0,
2074.0,2107.0,18.0,-9.0,
2082.0,2096.0,18.0,-9.0,
2070.0,2081.0,18.0,-10.0,
2077.0,2037.0,18.0,-9.0,
2078.0,2018.0,18.0,-9.0,
2072.0,2059.0,18.0,-9.0,
2065.0,2170.0,18.0,-9.0,
2062.0,2090.0,18.0,-9.0,
2048.0,2080.0,18.0,-9.0,
2067.0,2098.0,18.0,-9.0,
2085.0,2156.0,18.0,-9.0,
2065.0,2006.0,18.0,-9.0,
2064.0,1920.0,17.0,-8.0,
2062.0,2034.0,18.0,-9.0,
2067.0,2048.0,18.0,-9.0,
2066.0,2266.0,18.0,-9.0,
2057.0,2148.0,18.0,-9.0,
2081.0,2118.0,18.0,-9.0,
2070.0,2062.0,18.0,-9.0,
2066.0,2067.0,18.0,-9.0,
2073.0,2048.0,18.0,-8.0,
2074.0,2039.0,18.0,-8.0,
2086.0,2060.0,18.0,-8.0,
2056.0,2065.0,18.0,-8.0,
2053.0,2051.0,18.0,-8.0,
2069.0,2077.0,18.0,-9.0,
2053.0,2084.0,18.0,-9.0,
2073.0,2133.0,18.0,-9.0,
2077.0,2098.0,18.0,-8.0,
2060.0,2109.0,18.0,-8.0,
2070.0,2115.0,18.0,-8.0,
2066.0,2101.0,18.0,-8.0,
2064.0,2045.0,18.0,-8.0,
2072.0,2048.0,18.0,-8.0,
2061.0,2084.0,18.0,-8.0,
2072.0,2075.0,18.0,-8.0,
2062.0,2086.0,18.0,-7.0,
2073.0,2096.0,18.0,-7.0,
2089.0,2106.0,18.0,-8.0,
2078.0,2076.0,18.0,-8.0,
2071.0,2084.0,18.0,-8.0,
2078.0,2084.0,18.0,-8.0,
2065.0,2079.0,18.0,-8.0,
2069.0,2091.0,19.0,-8.0,
2081.0,2093.0,19.0,-8.0,
2070.0,2103.0,19.0,-8.0,
2074.0,2098.0,19.0,-8.0,
2073.0,2096.0,19.0,-8.0,
2067.0,2086.0,19.0,-8.0,
2074.0,2088.0,19.0,-8.0,
2071.0,2076.0,19.0,-8.0,
2071.0,2063.0,18.0,-9.0,
2075.0,2070.0,19.0,-9.0,
2050.0,2070.0,19.0,-9.0,
2064.0,2116.0,19.0,-8.0,
2072.0,2096.0,19.0,-8.0,
2072.0,2089.0,18.0,-8.0,
2071.0,2087.0,18.0,-8.0,
2085.0,2085.0,18.0,-8.0,
2075.0,2079.0,18.0,-8.0,
2066.0,2085.0,18.0,-7.0,
2064.0,2079.0,18.0,-7.0,
2077.0,2089.0,18.0,-6.0,
2076.0,2086.0,18.0,-7.0,
2072.0,2089.0,18.0,-7.0,
2072.0,2081.0,18.0,-7.0,
2074.0,2077.0,18.0,-7.0,
2065.0,2077.0,18.0,-7.0,
2065.0,2081.0,18.0,-7.0,
2066.0,2087.0,18.0,-7.0,
2071.0,2086.0,18.0,-7.0,
2076.0,2097.0,18.0,-7.0,
2072.0,2089.0,18.0,-7.0,
2076.0,2089.0,18.0,-8.0,
2080.0,2070.0,18.0,-8.0,
2078.0,2078.0,18.0,-7.0,
2070.0,2079.0,17.0,-8.0,
2063.0,2091.0,17.0,-8.0,
2068.0,2082.0,17.0,-8.0,
2050.0,2081.0,17.0,-8.0,
2073.0,2092.0,17.0,-8.0,
2072.0,2093.0,17.0,-8.0,
2069.0,2090.0,17.0,-8.0,
2075.0,2084.0,17.0,-10.0,
2063.0,2076.0,17.0,-10.0,
2068.0,2082.0,17.0,-8.0,
2053.0,2104.0,17.0,-8.0,
2066.0,2113.0,17.0,-7.0,
2071.0,2109.0,17.0,-7.0,
2069.0,2041.0,17.0,-7.0,
2082.0,2060.0,17.0,-7.0,
2069.0,2070.0,17.0,-7.0,
2067.0,2078.0,17.0,-7.0,
2057.0,2076.0,17.0,-5.0,
2064.0,2084.0,16.0,-5.0,
2051.0,2080.0,17.0,-6.0,
2065.0,2067.0,17.0,-7.0,
2065.0,2087.0,16.0,-7.0,
2081.0,2096.0,16.0,-7.0,
2077.0,2098.0,16.0,-7.0,
2087.0,2095.0,17.0,-7.0,
2075.0,2079.0,17.0,-7.0,
2082.0,2082.0,17.0,-7.0,
2088.0,2082.0,17.0,-7.0,
2067.0,2072.0,17.0,-7.0,
2065.0,2078.0,17.0,-7.0,
2070.0,2081.0,17.0,-7.0,
2067.0,2089.0,18.0,-7.0,
2076.0,2095.0,18.0,-7.0,
2081.0,2091.0,18.0,-7.0,
2072.0,2085.0,18.0,-7.0,
2071.0,2083.0,18.0,-8.0,
2074.0,2081.0,18.0,-9.0,
2063.0,2078.0,18.0,-8.0,
2061.0,2084.0,18.0,-7.0,
2065.0,2090.0,18.0,-7.0,
2064.0,2097.0,19.0,-7.0,
2056.0,2089.0,19.0,-7.0,
2073.0,2090.0,19.0,-7.0,
2071.0,2086.0,19.0,-6.0,
2075.0,2090.0,19.0,-6.0,
2068.0,2077.0,19.0,-5.0,
2075.0,2077.0,19.0,-4.0,
2070.0,2082.0,19.0,-5.0,
2064.0,2078.0,19.0,-6.0,
2064.0,2083.0,19.0,-6.0,
2071.0,2084.0,19.0,-6.0,
2075.0,2084.0,19.0,-6.0,
2076.0,2081.0,19.0,-6.0,
2081.0,2082.0,19.0,-6.0,
2068.0,2092.0,19.0,-6.0,
2070.0,2090.0,19.0,-6.0,
2067.0,2084.0,19.0,-6.0,
2066.0,2088.0,19.0,-6.0,
2060.0,2093.0,19.0,-6.0,
2065.0,2091.0,19.0,-6.0,
2063.0,2090.0,19.0,-6.0,
2059.0,2089.0,19.0,-6.0,
2064.0,2087.0,19.0,-6.0,
2071.0,2082.0,19.0,-6.0,
2066.0,2078.0,19.0,-7.0,
2069.0,2082.0,19.0,-7.0,
2063.0,2093.0,19.0,-7.0,
2072.0,2090.0,19.0,-7.0,
2066.0,2104.0,19.0,-8.0,
2076.0,2090.0,20.0,-9.0,
2070.0,2087.0,19.0,-9.0,
2069.0,2079.0,19.0,-7.0,
2068.0,2081.0,19.0,-6.0,
2084.0,2074.0,19.0,-6.0,
2071.0,2085.0,20.0,-6.0,
2064.0,2077.0,20.0,-6.0,
2073.0,2089.0,19.0,-6.0,
2076.0,2087.0,19.0,-5.0,
2072.0,2088.0,20.0,-4.0,
2073.0,2095.0,20.0,-3.0,
2064.0,2088.0,20.0,-4.0,
2064.0,2085.0,20.0,-5.0,
2061.0,2080.0,20.0,-6.0,
2062.0,2082.0,20.0,-6.0,
2070.0,2085.0,20.0,-7.0,
2070.0,2090.0,20.0,-7.0,
2067.0,2090.0,20.0,-7.0,
2074.0,2088.0,21.0,-7.0,
2078.0,2088.0,21.0,-7.0,
2074.0,2083.0,21.0,-7.0,
2075.0,2085.0,20.0,-7.0,
2067.0,2079.0,20.0,-7.0,
2078.0,2084.0,20.0,-6.0,
2073.0,2082.0,20.0,-7.0,
2067.0,2092.0,21.0,-7.0,
2067.0,2089.0,21.0,-7.0,
2068.0,2071.0,21.0,-7.0,
2077.0,2077.0,21.0,-7.0,
2078.0,2079.0,21.0,-7.0,
2070.0,2072.0,21.0,-7.0,
2073.0,2090.0,21.0,-7.0,
2071.0,2079.0,21.0,-7.0,
2060.0,2084.0,21.0,-8.0,
2063.0,2090.0,21.0,-8.0,
2068.0,2098.0,21.0,-8.0,
2068.0,2095.0,21.0,-7.0,
2060.0,2088.0,21.0,-7.0,
2065.0,2091.0,21.0,-7.0,
2064.0,2081.0,21.0,-6.0,
2062.0,2078.0,21.0,-6.0,
2067.0,2083.0,21.0,-6.0,
2063.0,2087.0,21.0,-6.0,
2066.0,2098.0,21.0,-5.0,
2076.0,2085.0,21.0,-5.0,
2074.0,2089.0,21.0,-5.0,
2073.0,2104.0,21.0,-6.0,
2075.0,2086.0,21.0,-6.0,
2069.0,2091.0,21.0,-6.0,
2072.0,2081.0,21.0,-6.0,
2063.0,2079.0,22.0,-6.0,
2061.0,2086.0,22.0,-6.0,
2065.0,2084.0,22.0,-6.0,
2067.0,2090.0,22.0,-6.0,
2070.0,2093.0,22.0,-6.0,
2078.0,2087.0,22.0,-6.0,
2082.0,2090.0,22.0,-6.0,
2070.0,2077.0,22.0,-6.0,
2067.0,2081.0,22.0,-6.0,
2075.0,2082.0,22.0,-6.0,
2068.0,2085.0,22.0,-6.0,
2072.0,2091.0,22.0,-6.0,
2075.0,2088.0,22.0,-6.0,
2078.0,2087.0,22.0,-6.0,
2076.0,2079.0,22.0,-6.0,
2077.0,2076.0,22.0,-6.0,
2071.0,2072.0,22.0,-6.0,
2076.0,2078.0,22.0,-6.0,
2075.0,2079.0,22.0,-6.0,
2069.0,2094.0,22.0,-6.0,
2072.0,2092.0,22.0,-6.0,
2072.0,2087.0,22.0,-6.0,
2072.0,2090.0,22.0,-6.0,
2072.0,2081.0,22.0,-6.0,
2064.0,2079.0,22.0,-6.0,
2073.0,2080.0,22.0,-6.0,
2080.0,2088.0,22.0,-6.0,
2061.0,2079.0,22.0,-6.0,
2056.0,2080.0,22.0,-6.0,
2065.0,2086.0,22.0,-6.0,
2063.0,2086.0,22.0,-6.0,
2068.0,2085.0,22.0,-6.0,
2068.0,2090.0,22.0,-6.0,
2074.0,2084.0,22.0,-6.0,
2069.0,2076.0,22.0,-6.0,
2071.0,2080.0,22.0,-6.0,
2061.0,2079.0,22.0,-6.0,
2055.0,2081.0,22.0,-6.0,
2056.0,2090.0,22.0,-6.0,
2070.0,2096.0,22.0,-6.0,
2073.0,2091.0,22.0,-6.0,
2076.0,2091.0,22.0,-6.0,
2071.0,2087.0,22.0,-7.0,
2076.0,2083.0,22.0,-7.0,
2071.0,2083.0,22.0,-7.0,
2071.0,2079.0,22.0,-6.0,
2073.0,2097.0,22.0,-6.0,
2073.0,2085.0,22.0,-6.0,
2077.0,2082.0,22.0,-6.0,
2074.0,2091.0,22.0,-6.0,
2077.0,2087.0,22.0,-6.0,
2067.0,2082.0,22.0,-6.0,
2077.0,2078.0,22.0,-6.0,
2075.0,2067.0,22.0,-5.0,
2073.0,2074.0,22.0,-6.0,
2066.0,2081.0,22.0,-6.0,
2067.0,2085.0,22.0,-6.0,
2067.0,2082.0,22.0,-6.0,
2073.0,2091.0,22.0,-6.0,
2081.0,2086.0,21.0,-6.0,
2070.0,2075.0,21.0,-6.0,
2076.0,2077.0,21.0,-6.0,
2071.0,2073.0,21.0,-6.0,
2064.0,2080.0,21.0,-6.0,
2070.0,2085.0,21.0,-6.0,
2074.0,2092.0,21.0,-6.0,
2068.0,2089.0,21.0,-6.0,
2076.0,2089.0,21.0,-6.0,
2068.0,2086.0,21.0,-6.0,
2071.0,2079.0,21.0,-6.0,
2071.0,2077.0,21.0,-6.0,
2068.0,2075.0,21.0,-6.0,
2063.0,2082.0,21.0,-6.0,
2069.0,2077.0,21.0,-6.0,
2064.0,2085.0,21.0,-6.0,
2072.0,2091.0,21.0,-6.0,
2082.0,2089.0,21.0,-6.0,
2076.0,2080.0,21.0,-6.0,
2073.0,2083.0,21.0,-6.0,
2068.0,2084.0,21.0,-6.0,
2067.0,2073.0,21.0,-6.0,
2070.0,2084.0,21.0,-6.0,
2062.0,2073.0,21.0,-6.0,
2076.0,2087.0,21.0,-6.0,
2071.0,2084.0,21.0,-6.0,
2080.0,2092.0,21.0,-6.0,
2070.0,2083.0,21.0,-6.0,
2077.0,2085.0,21.0,-6.0,
2068.0,2080.0,21.0,-6.0,
2066.0,2074.0,21.0,-6.0,
2066.0,2073.0,21.0,-6.0,
2064.0,2086.0,0,
2070.0,2099.0,21.0,-6.0,
2065.0,2093.0,21.0,-6.0,
2072.0,2088.0,21.0,-6.0,
2073.0,2091.0,21.0,-6.0,
2074.0,2081.0,21.0,-6.0,
2067.0,2080.0,21.0,-6.0,
2072.0,2080.0,21.0,-6.0,
2067.0,2082.0,21.0,-6.0,
2075.0,2088.0,21.0,-6.0,
2069.0,2084.0,21.0,-6.0,
2076.0,2092.0,21.0,-6.0,
2078.0,2090.0,21.0,-6.0,
2080.0,2087.0,21.0,-6.0,
2090.0,2083.0,21.0,-6.0,
2065.0,2092.0,21.0,-6.0,
2062.0,2083.0,21.0,-6.0,
2058.0,2077.0,21.0,-6.0,
2056.0,2082.0,21.0,-6.0,
2061.0,2086.0,21.0,-6.0,
2070.0,2086.0,21.0,-6.0,
2067.0,2093.0,21.0,-6.0,
2073.0,2083.0,21.0,-6.0,
2072.0,2079.0,21.0,-6.0,
2066.0,2076.0,21.0,-6.0,
2097.0,2068.0,21.0,-6.0,
2072.0,2078.0,21.0,-6.0,
2077.0,2082.0,21.0,-6.0,
2067.0,2084.0,21.0,-6.0,
2073.0,2089.0,21.0,-6.0,
2065.0,2083.0,21.0,-6.0,
2078.0,2088.0,21.0,-6.0,
2069.0,2086.0,21.0,-6.0,
2079.0,2079.0,21.0,-6.0,
2072.0,2084.0,21.0,-6.0,
2061.0,2076.0,21.0,-6.0,
2054.0,2078.0,21.0,-6.0,
2066.0,2091.0,21.0,-6.0,
2066.0,2089.0,21.0,-6.0,
2073.0,2086.0,21.0,-6.0,
2069.0,2083.0,21.0,-6.0,
2061.0,2091.0,21.0,-6.0,
2068.0,2084.0,21.0,-6.0,
2070.0,2077.0,21.0,-6.0,
2071.0,2081.0,21.0,-6.0,
2066.0,2082.0,21.0,-6.0,
2071.0,2085.0,21.0,-6.0,
2088.0,2089.0,21.0,-6.0,
2080.0,2083.0,21.0,-6.0,
2068.0,2085.0,21.0,-6.0,
2068.0,2082.0,21.0,-6.0,
2077.0,2075.0,21.0,-6.0,
2072.0,2071.0,21.0,-6.0,
2070.0,2083.0,22.0,-6.0,
2060.0,2083.0,22.0,-6.0,
2069.0,2085.0,22.0,-6.0,
2064.0,2085.0,22.0,-6.0,
2073.0,2093.0,22.0,-6.0,
2067.0,2088.0,22.0,-6.0,
2065.0,2085.0,22.0,-6.0,
2068.0,2083.0,21.0,-6.0,
2063.0,2077.0,21.0,-6.0,
2060.0,2075.0,21.0,-6.0,
2059.0,2081.0,21.0,-6.0,
2065.0,2082.0,21.0,-6.0,
2058.0,2086.0,21.0,-6.0,
2075.0,2083.0,21.0,-6.0,
2076.0,2081.0,21.0,-6.0,
2070.0,2078.0,21.0,-6.0,
2064.0,2078.0,21.0,-6.0,
2072.0,2078.0,21.0,-6.0,
2062.0,2076.0,22.0,-6.0,
2072.0,2083.0,22.0,-6.0,
2068.0,2087.0,22.0,-6.0,
2070.0,2094.0,22.0,-6.0,
2069.0,2090.0,22.0,-6.0,
2075.0,2085.0,22.0,-6.0,
2065.0,2085.0,22.0,-6.0,
2076.0,2084.0,22.0,-6.0,
2074.0,2076.0,22.0,-6.0,
2068.0,2074.0,0,
2076.0,2087.0,22.0,-6.0,
2075.0,2086.0,22.0,-6.0,
2073.0,2086.0,22.0,-6.0,
2070.0,2086.0,22.0,-6.0,
2079.0,2086.0,22.0,-6.0,
2076.0,2080.0,22.0,-6.0,
2072.0,2086.0,22.0,-6.0,
2065.0,2074.0,21.0,-6.0,
2063.0,2078.0,22.0,-6.0,
2067.0,2081.0,21.0,-6.0,
2066.0,2096.0,21.0,-6.0,
2065.0,2093.0,21.0,-6.0,
2067.0,2093.0,21.0,-6.0,
2075.0,2088.0,21.0,-6.0,
2036.0,2087.0,21.0,-6.0,
2068.0,2083.0,21.0,-6.0,
2021.0,2079.0,22.0,-6.0,
2056.0,2080.0,22.0,-6.0,
2060.0,2085.0,22.0,-6.0,
2079.0,2076.0,22.0,-6.0,
2072.0,2090.0,22.0,-6.0,
2068.0,2087.0,22.0,-6.0,
2068.0,2083.0,22.0,-6.0,
2072.0,2073.0,22.0,-6.0,
2071.0,2074.0,22.0,-6.0,
2073.0,2078.0,22.0,-6.0,
2068.0,2081.0,22.0,-6.0,
2068.0,2080.0,22.0,-6.0,
2067.0,2081.0,22.0,-6.0,
2066.0,2091.0,21.0,-6.0,
2072.0,2083.0,21.0,-6.0,
2077.0,2086.0,21.0,-6.0,
2075.0,2090.0,21.0,-6.0,
2070.0,2096.0,21.0,-6.0,
2065.0,2079.0,21.0,-6.0,
2061.0,2078.0,21.0,-6.0,
2070.0,2089.0,21.0,-6.0,
2071.0,2098.0,21.0,-6.0,
2073.0,2089.0,21.0,-6.0,
2070.0,2093.0,21.0,-6.0,
2068.0,2085.0,21.0,-6.0,
2073.0,2078.0,21.0,-6.0,
2070.0,2075.0,21.0,-6.0,
2065.0,2072.0,21.0,-6.0,
2067.0,2074.0,21.0,-6.0,
2073.0,2085.0,21.0,-6.0,
2077.0,2092.0,22.0,-6.0,
2075.0,2086.0,22.0,-6.0,
2074.0,2086.0,22.0,-6.0,
2075.0,2085.0,22.0,-6.0,
2075.0,2083.0,22.0,-6.0,
2063.0,2081.0,22.0,-6.0,
2072.0,2078.0,22.0,-6.0,
2056.0,2074.0,22.0,-6.0,
2065.0,2076.0,22.0,-6.0,
2066.0,2088.0,22.0,-6.0,
2072.0,2093.0,22.0,-6.0,
2066.0,2083.0,22.0,-6.0,
2075.0,2084.0,22.0,-6.0,
2078.0,2076.0,22.0,-6.0,
2070.0,2077.0,22.0,-6.0,
2071.0,2073.0,22.0,-6.0,
2071.0,2075.0,22.0,-6.0,
2067.0,2070.0,22.0,-6.0,
2068.0,2082.0,22.0,-6.0,
2072.0,2093.0,22.0,-6.0,
2071.0,2096.0,22.0,-6.0,
2073.0,2090.0,22.0,-6.0,
2066.0,2087.0,22.0,-6.0,
2072.0,2083.0,22.0,-6.0,
2075.0,2077.0,22.0,-6.0,
2066.0,2066.0,22.0,-6.0,
2069.0,2087.0,22.0,-6.0,
2067.0,2078.0,22.0,-6.0,
2064.0,2081.0,22.0,-6.0,
2062.0,2088.0,22.0,-6.0,
2076.0,2097.0,22.0,-6.0,
2070.0,2087.0,22.0,-6.0,
2077.0,2080.0,22.0,-6.0,
2073.0,2082.0,22.0,-6.0,
2065.0,2067.0,22.0,-6.0,
2061.0,2074.0,21.0,-6.0,
2059.0,2080.0,21.0,-6.0,
2061.0,2086.0,21.0,-6.0,
2064.0,2088.0,21.0,-6.0,
2061.0,2084.0,21.0,-6.0,
2064.0,2080.0,21.0,-6.0,
2064.0,2078.0,21.0,-6.0,
2062.0,2071.0,21.0,-6.0,
2071.0,2078.0,21.0,-6.0,
2074.0,2083.0,21.0,-6.0,
2072.0,2088.0,21.0,-6.0,
2076.0,2093.0,21.0,-6.0,
2074.0,2088.0,21.0,-6.0,
2070.0,2085.0,21.0,-6.0,
2080.0,2081.0,21.0,-6.0,
2067.0,2064.0,22.0,-6.0,
2076.0,2075.0,22.0,-6.0,
2070.0,2071.0,22.0,-6.0,
2071.0,2085.0,22.0,-6.0,
2063.0,2086.0,22.0,-6.0,
2075.0,2089.0,22.0,-6.0,
2082.0,2090.0,22.0,-6.0,
2075.0,2088.0,22.0,-6.0,
2075.0,2077.0,22.0,-6.0,
2069.0,2081.0,22.0,-6.0,
2062.0,2075.0,22.0,-6.0,
2063.0,2076.0,22.0,-6.0,
2063.0,2079.0,22.0,-6.0,
2063.0,2080.0,22.0,-6.0,
2075.0,2089.0,22.0,-6.0,
2075.0,2091.0,22.0,-6.0,
2085.0,2087.0,22.0,-6.0,
2080.0,2073.0,22.0,-6.0,
2076.0,2072.0,22.0,-6.0,
2075.0,2073.0,22.0,-6.0,
2066.0,2073.0,22.0,-6.0,
2069.0,2080.0,22.0,-6.0,
2064.0,2090.0,22.0,-6.0,
2069.0,2091.0,22.0,-6.0,
2071.0,2082.0,22.0,-6.0,
2086.0,2086.0,22.0,-6.0,
2079.0,2089.0,22.0,-6.0,
2075.0,2070.0,22.0,-6.0,
2071.0,2074.0,22.0,-6.0,
2069.0,2075.0,22.0,-6.0,
2066.0,2077.0,22.0,-6.0,
2071.0,2087.0,22.0,-6.0,
2069.0,2081.0,22.0,-6.0,
2071.0,2080.0,22.0,-6.0,
2078.0,2092.0,22.0,-6.0,
2081.0,2087.0,22.0,-6.0,
2074.0,2089.0,22.0,-6.0,
2072.0,2073.0,22.0,-6.0,
2065.0,2073.0,22.0,-6.0,
2066.0,2077.0,22.0,-6.0,
2064.0,2101.0,22.0,-6.0,
2059.0,2107.0,22.0,-6.0,
2072.0,2095.0,22.0,-6.0,
2067.0,2092.0,22.0,-6.0,
2071.0,2083.0,22.0,-6.0,
2075.0,2084.0,22.0,-6.0,
2068.0,2084.0,22.0,-6.0,
2067.0,2077.0,22.0,-6.0,
2065.0,2080.0,22.0,-6.0,
2079.0,2089.0,21.0,-6.0,
2065.0,2081.0,21.0,-6.0,
2074.0,2081.0,21.0,-6.0,
2077.0,2083.0,21.0,-6.0,
2078.0,2139.0,21.0,-6.0,
2080.0,2183.0,21.0,-6.0,
2073.0,2149.0,21.0,-6.0,
2065.0,2026.0,22.0,-6.0,
2107.0,2004.0,22.0,-6.0,
2062.0,1982.0,21.0,-6.0,
2061.0,2046.0,22.0,-6.0,
2069.0,2079.0,22.0,-6.0,
2076.0,2096.0,22.0,-6.0,
2077.0,2070.0,22.0,-6.0,
2073.0,2023.0,22.0,-6.0,
2067.0,2088.0,22.0,-6.0,
2058.0,2151.0,22.0,-6.0,
2067.0,2108.0,22.0,-6.0,
2078.0,2063.0,22.0,-6.0,
2088.0,2074.0,22.0,-6.0,
2093.0,2106.0,22.0,-6.0,
2102.0,2132.0,22.0,-6.0,
2075.0,2103.0,22.0,-6.0,
2048.0,2047.0,22.0,-6.0,
2070.0,2035.0,22.0,-6.0,
2051.0,2097.0,22.0,-6.0,
2069.0,2106.0,22.0,-6.0,
2044.0,2130.0,22.0,-6.0,
2036.0,2101.0,22.0,-6.0,
2036.0,2118.0,22.0,-6.0,
2064.0,2118.0,22.0,-6.0,
2086.0,2087.0,22.0,-6.0,
2078.0,2031.0,22.0,-6.0,
2062.0,1979.0,22.0,-6.0,
2049.0,2012.0,22.0,-6.0,
2034.0,2046.0,22.0,-6.0,
2071.0,2176.0,22.0,-6.0,
2095.0,2284.0,22.0,-6.0,
2073.0,2076.0,22.0,-6.0,
2080.0,2059.0,22.0,-6.0,
2083.0,2078.0,22.0,-6.0,
2105.0,2077.0,22.0,-6.0,
2078.0,1999.0,22.0,-6.0,
2073.0,2088.0,22.0,-6.0,
2051.0,1959.0,22.0,-6.0,
2067.0,2092.0,22.0,-6.0,
2091.0,2101.0,22.0,-6.0,
2093.0,2189.0,22.0,-6.0,
2088.0,2085.0,22.0,-6.0,
2088.0,2224.0,22.0,-6.0,
2062.0,2146.0,22.0,-6.0,
2049.0,2075.0,22.0,-6.0,
2056.0,2105.0,22.0,-6.0,
2064.0,2105.0,22.0,-6.0,
2068.0,2050.0,22.0,-6.0,
2087.0,2026.0,22.0,-6.0,
2088.0,2019.0,22.0,-6.0,
2069.0,2002.0,22.0,-6.0,
2088.0,2013.0,22.0,-6.0,
2085.0,2051.0,22.0,-6.0,
2073.0,2087.0,22.0,-6.0,
2048.0,2127.0,22.0,-6.0,
2058.0,2105.0,22.0,-6.0,
2089.0,2131.0,22.0,-6.0,
2079.0,2085.0,22.0,-6.0,
2083.0,2096.0,22.0,-6.0,
2080.0,2136.0,22.0,-6.0,
2077.0,2069.0,22.0,-6.0,
2041.0,2081.0,22.0,-6.0,
2031.0,2001.0,22.0,-6.0,
2064.0,2036.0,22.0,-6.0,
2068.0,2052.0,22.0,-6.0,
2095.0,2158.0,22.0,-6.0,
2072.0,2050.0,22.0,-6.0,
2091.0,2160.0,22.0,-6.0,
2123.0,2174.0,22.0,-6.0,
2083.0,2078.0,22.0,-6.0,
2089.0,1997.0,22.0,-6.0,
2094.0,2064.0,22.0,-6.0,
2013.0,2036.0,22.0,-6.0,
2028.0,2073.0,22.0,-6.0,
2074.0,2170.0,22.0,-5.0,
2082.0,2188.0,22.0,-5.0,
2077.0,2109.0,22.0,-5.0,
2062.0,2083.0,22.0,-5.0,
2041.0,2125.0,22.0,-5.0,
2060.0,2014.0,21.0,-5.0,
2043.0,2051.0,21.0,-5.0,
2057.0,2112.0,21.0,-5.0,
2103.0,2128.0,21.0,-5.0,
2082.0,1972.0,21.0,-5.0,
2082.0,1873.0,21.0,-5.0,
2074.0,2006.0,21.0,-5.0,
2057.0,2224.0,21.0,-5.0,
1966.0,2103.0,21.0,-5.0,
2022.0,2135.0,21.0,-5.0,
2070.0,2166.0,21.0,-5.0,
2060.0,2086.0,21.0,-5.0,
2086.0,2140.0,21.0,-5.0,
2092.0,2229.0,21.0,-5.0,
2078.0,2072.0,21.0,-5.0,
2061.0,2069.0,21.0,-5.0,
2079.0,2118.0,21.0,-6.0,
2084.0,2086.0,21.0,-6.0,
2080.0,1996.0,0,
2098.0,1986.0,21.0,-6.0,
2076.0,2161.0,21.0,-6.0,
2081.0,2130.0,22.0,-6.0,
2082.0,2092.0,22.0,-6.0,
2078.0,2030.0,22.0,-6.0,
2065.0,2023.0,22.0,-6.0,
2075.0,2066.0,22.0,-7.0,
2071.0,2184.0,22.0,-7.0,
2078.0,2150.0,22.0,-7.0,
2062.0,2058.0,23.0,-7.0,
2077.0,2079.0,23.0,-7.0,
2087.0,2060.0,23.0,-7.0,
2076.0,2025.0,23.0,-7.0,
2081.0,1999.0,23.0,-8.0,
2080.0,2128.0,22.0,-8.0,
2069.0,2126.0,22.0,-7.0,
2080.0,2058.0,22.0,-8.0,
2068.0,2059.0,22.0,-8.0,
2060.0,2137.0,22.0,-7.0,
2064.0,1971.0,22.0,-7.0,
2070.0,2055.0,22.0,-7.0,
2080.0,2030.0,22.0,-8.0,
2074.0,2108.0,22.0,-7.0,
2071.0,2149.0,22.0,-7.0,
2040.0,2135.0,22.0,-7.0,
2074.0,2036.0,22.0,-7.0,
2038.0,2089.0,22.0,-7.0,
2042.0,2173.0,22.0,-7.0,
2049.0,2111.0,22.0,-7.0,
2089.0,2076.0,22.0,-6.0,
2114.0,2092.0,22.0,-6.0,
2076.0,2038.0,22.0,-7.0,
2112.0,2044.0,22.0,-7.0,
2022.0,1966.0,22.0,-7.0,
2019.0,2096.0,22.0,-7.0,
2033.0,2089.0,22.0,-7.0,
2031.0,2082.0,22.0,-7.0,
2053.0,2078.0,22.0,-7.0,
2105.0,2225.0,22.0,-7.0,
2137.0,2018.0,22.0,-8.0,
2108.0,2065.0,21.0,-7.0,
2020.0,2171.0,21.0,-7.0,
2019.0,2080.0,22.0,-7.0,
2069.0,2113.0,22.0,-6.0,
2053.0,2033.0,22.0,-6.0,
2050.0,1953.0,22.0,-6.0,
2061.0,1926.0,22.0,-6.0,
2044.0,2102.0,21.0,-6.0,
2062.0,2154.0,21.0,-7.0,
2085.0,2229.0,21.0,-7.0,
2089.0,2213.0,21.0,-7.0,
2086.0,2140.0,21.0,-7.0,
2091.0,2147.0,21.0,-7.0,
2064.0,2101.0,21.0,-7.0,
2071.0,2107.0,21.0,-8.0,
2072.0,1996.0,21.0,-8.0,
2082.0,1965.0,21.0,-8.0,
2077.0,1973.0,21.0,-7.0,
2071.0,2000.0,21.0,-7.0,
2091.0,2165.0,21.0,-6.0,
2069.0,2098.0,20.0,-6.0,
2100.0,2186.0,20.0,-7.0,
2115.0,2067.0,20.0,-8.0,
2106.0,2068.0,20.0,-8.0,
2073.0,2052.0,19.0,-9.0,
2040.0,2049.0,19.0,-9.0,
2054.0,2078.0,19.0,-9.0,
2076.0,2145.0,0,
2080.0,2109.0,19.0,-10.0,
2062.0,2013.0,19.0,-11.0,
2086.0,2034.0,19.0,-11.0,
2075.0,2054.0,19.0,-11.0,
2073.0,2081.0,19.0,-11.0,
2075.0,2156.0,19.0,-11.0,
2073.0,2087.0,19.0,-11.0,
2045.0,2097.0,19.0,-11.0,
2062.0,2166.0,19.0,-11.0,
2060.0,2139.0,19.0,-11.0,
2054.0,2060.0,19.0,-11.0,
2083.0,2094.0,19.0,-11.0,
2075.0,2012.0,19.0,-11.0,
2083.0,1966.0,19.0,-12.0,
2061.0,2029.0,19.0,-12.0,
2061.0,2169.0,20.0,-13.0,
2030.0,2089.0,20.0,-13.0,
2053.0,2130.0,20.0,-13.0,
2081.0,2129.0,20.0,-13.0,
2057.0,2040.0,20.0,-14.0,
2081.0,2045.0,21.0,-14.0,
2105.0,2219.0,21.0,-14.0,
2117.0,2178.0,21.0,-14.0,
2088.0,2062.0,21.0,-13.0,
2078.0,1951.0,0,
2036.0,2010.0,21.0,-13.0,
2039.0,2140.0,21.0,-13.0,
2050.0,2108.0,21.0,-13.0,
2051.0,2072.0,22.0,-13.0,
2063.0,2098.0,22.0,-13.0,
2061.0,2087.0,22.0,-13.0,
2076.0,2120.0,22.0,-13.0,
2058.0,2081.0,22.0,-13.0,
2043.0,2104.0,22.0,-13.0,
2061.0,2006.0,23.0,-13.0,
2035.0,1980.0,23.0,-13.0,
2087.0,2079.0,23.0,-13.0,
2106.0,2224.0,23.0,-13.0,
2035.0,2116.0,23.0,-13.0,
2056.0,2118.0,23.0,-12.0,
2079.0,2068.0,23.0,-11.0,
2066.0,1991.0,23.0,-11.0,
2073.0,2109.0,23.0,-12.0,
2052.0,2098.0,23.0,-13.0,
2076.0,2137.0,23.0,-13.0,
2086.0,2117.0,23.0,-13.0,
2104.0,2091.0,23.0,-13.0,
2099.0,1980.0,23.0,-14.0,
2083.0,2051.0,23.0,-14.0,
2076.0,2099.0,23.0,-14.0,
2028.0,2153.0,23.0,-16.0,
2058.0,2126.0,23.0,-16.0,
2085.0,2057.0,23.0,-15.0,
2089.0,2028.0,23.0,-15.0,
2069.0,1924.0,23.0,-15.0,
2069.0,2023.0,23.0,-15.0,
2051.0,2030.0,23.0,-15.0,
2068.0,2250.0,23.0,-15.0,
2068.0,2120.0,23.0,-15.0,
2077.0,2059.0,23.0,-15.0,
2039.0,2017.0,23.0,-15.0,
2068.0,2042.0,23.0,-15.0,
2085.0,2205.0,23.0,-15.0,
2062.0,2024.0,23.0,-15.0,
2070.0,1999.0,23.0,-15.0,
2082.0,2111.0,23.0,-15.0,
2099.0,2150.0,23.0,-15.0,
2063.0,2081.0,23.0,-15.0,
2077.0,2242.0,22.0,-15.0,
2072.0,2136.0,22.0,-15.0,
2068.0,2153.0,22.0,-15.0,
2061.0,2084.0,22.0,-15.0,
2082.0,2057.0,22.0,-15.0,
2071.0,2014.0,22.0,-15.0,
2098.0,2054.0,22.0,-15.0,
2088.0,2139.0,22.0,-16.0,
2089.0,2066.0,22.0,-16.0,
2064.0,2064.0,22.0,-16.0,
2033.0,2007.0,22.0,-16.0,
2059.0,2002.0,22.0,-16.0,
2057.0,2006.0,22.0,-16.0,
2062.0,2122.0,22.0,-16.0,
2071.0,2121.0,22.0,-16.0,
2084.0,2141.0,22.0,-16.0,
2089.0,2165.0,22.0,-16.0,
2040.0,2124.0,22.0,-16.0,
2059.0,2110.0,22.0,-16.0,
2068.0,1955.0,22.0,-16.0,
2058.0,2100.0,22.0,-16.0,
2088.0,2226.0,22.0,-17.0,
2072.0,2051.0,22.0,-17.0,
2078.0,1996.0,22.0,-17.0,
2088.0,2103.0,22.0,-17.0,
2065.0,2098.0,23.0,-17.0,
2092.0,2149.0,23.0,-17.0,
2083.0,2104.0,23.0,-17.0,
2105.0,2059.0,22.0,-17.0,
2035.0,1980.0,22.0,-17.0,
2057.0,2008.0,22.0,-17.0,
2048.0,2077.0,22.0,-17.0,
2057.0,2234.0,22.0,-17.0,
2073.0,2090.0,22.0,-17.0,
2051.0,2095.0,22.0,-17.0,
2079.0,2034.0,22.0,-17.0,
2073.0,2040.0,22.0,-17.0,
2079.0,2106.0,23.0,-17.0,
2068.0,2109.0,0,
2051.0,2041.0,23.0,-17.0,
2072.0,2076.0,23.0,-18.0,
2095.0,2104.0,23.0,-18.0,
2121.0,2011.0,23.0,-18.0,
2048.0,2036.0,23.0,-18.0,
2071.0,2268.0,23.0,-18.0,
2057.0,2065.0,23.0,-19.0,
2060.0,2041.0,23.0,-19.0,
2063.0,2147.0,23.0,-19.0,
2054.0,2166.0,23.0,-19.0,
2065.0,2183.0,23.0,-19.0,
2095.0,2055.0,22.0,-20.0,
2081.0,2079.0,22.0,-20.0,
2068.0,2002.0,22.0,-20.0,
2065.0,2062.0,22.0,-20.0,
2074.0,2160.0,22.0,-20.0,
2114.0,2026.0,22.0,-20.0,
2122.0,1979.0,22.0,-20.0,
2092.0,2059.0,22.0,-21.0,
2058.0,2092.0,22.0,-21.0,
2046.0,2079.0,22.0,-21.0,
2047.0,2291.0,22.0,-21.0,
2099.0,2025.0,22.0,-21.0,
2085.0,2099.0,22.0,-21.0,
2084.0,2032.0,22.0,-21.0,
2025.0,1984.0,22.0,-21.0,
2054.0,2058.0,22.0,-21.0,
2054.0,2127.0,22.0,-21.0,
2044.0,1992.0,22.0,-21.0,
2059.0,2069.0,22.0,-21.0,
2083.0,2094.0,22.0,-21.0,
2104.0,1987.0,22.0,-21.0,
2105.0,2137.0,22.0,-21.0,
2098.0,2065.0,22.0,-20.0,
2071.0,2051.0,22.0,-20.0,
2034.0,2104.0,22.0,-20.0,
2026.0,2109.0,22.0,-20.0,
2058.0,2116.0,22.0,-21.0,
2068.0,2153.0,23.0,-21.0,
2074.0,2150.0,23.0,-21.0,
2062.0,2136.0,23.0,-21.0,
2100.0,2059.0,23.0,-21.0,
2083.0,1970.0,23.0,-21.0,
2055.0,2047.0,23.0,-22.0,
2065.0,2216.0,23.0,-22.0,
2062.0,2116.0,23.0,-22.0,
2087.0,2071.0,23.0,-22.0,
2060.0,2084.0,23.0,-23.0,
2060.0,2061.0,23.0,-23.0,
2068.0,1983.0,23.0,-23.0,
2077.0,1984.0,23.0,-23.0,
2076.0,2122.0,23.0,-23.0,
2056.0,2187.0,23.0,-24.0,
2078.0,2094.0,23.0,-24.0,
2066.0,2008.0,23.0,-24.0,
2071.0,2081.0,23.0,-24.0,
2104.0,2149.0,23.0,-24.0,
2111.0,2154.0,23.0,-24.0,
2090.0,2133.0,23.0,-24.0,
2035.0,2106.0,23.0,-24.0,
2032.0,2082.0,23.0,-24.0,
2046.0,2130.0,23.0,-24.0,
2034.0,2062.0,23.0,-25.0,
2044.0,2022.0,22.0,-25.0,
2088.0,2037.0,22.0,-25.0,
2075.0,2015.0,22.0,-25.0,
2075.0,2105.0,22.0,-25.0,
2084.0,2084.0,22.0,-25.0,
2064.0,2140.0,22.0,-25.0,
2062.0,2138.0,22.0,-26.0,
2051.0,2091.0,22.0,-26.0,
2077.0,2014.0,22.0,-26.0,
2072.0,1996.0,22.0,-26.0,
2031.0,2056.0,22.0,-26.0,
2074.0,2206.0,22.0,-26.0,
2089.0,2030.0,22.0,-26.0,
2078.0,1972.0,22.0,-26.0,
2066.0,1940.0,22.0,-26.0,
2035.0,2069.0,22.0,-26.0,
2048.0,2107.0,22.0,-26.0,
2078.0,2264.0,22.0,-26.0,
2078.0,1998.0,22.0,-26.0,
2067.0,1972.0,23.0,-26.0,
2107.0,2030.0,23.0,-26.0,
2111.0,2149.0,23.0,-26.0,
2083.0,2120.0,23.0,-26.0,
2057.0,2190.0,23.0,-26.0,
2038.0,2250.0,23.0,-25.0,
2057.0,2013.0,23.0,-25.0,
2031.0,1958.0,23.0,-25.0,
2058.0,2046.0,23.0,-25.0,
2102.0,2316.0,23.0,-25.0,
2082.0,2215.0,23.0,-25.0,
2079.0,2073.0,23.0,-25.0,
2065.0,2095.0,23.0,-25.0,
2061.0,2087.0,23.0,-25.0,
2065.0,1981.0,23.0,-25.0,
2088.0,1976.0,23.0,-25.0,
2088.0,2097.0,23.0,-25.0,
2044.0,2125.0,23.0,-25.0,
2087.0,2091.0,23.0,-25.0,
2084.0,2057.0,23.0,-25.0,
2073.0,2042.0,23.0,-25.0,
2049.0,2062.0,23.0,-25.0,
2069.0,2129.0,23.0,-25.0,
2079.0,1981.0,23.0,-25.0,
2095.0,2012.0,23.0,-26.0,
2069.0,2105.0,0,
2087.0,2203.0,23.0,-26.0,
2077.0,2148.0,23.0,-26.0,
2043.0,2052.0,23.0,-26.0,
2076.0,2030.0,23.0,-26.0,
2072.0,2034.0,22.0,-26.0,
2070.0,2093.0,22.0,-26.0,
2062.0,2061.0,22.0,-26.0,
2083.0,2130.0,22.0,-26.0,
2103.0,2143.0,22.0,-27.0,
2090.0,1999.0,22.0,-27.0,
2043.0,2025.0,22.0,-26.0,
2058.0,2165.0,22.0,-26.0,
2064.0,2058.0,22.0,-26.0,
2075.0,1986.0,22.0,-26.0,
2130.0,2103.0,22.0,-26.0,
2106.0,2224.0,22.0,-26.0,
2063.0,2186.0,22.0,-26.0,
2001.0,2051.0,22.0,-26.0,
2020.0,2010.0,22.0,-25.0,
2058.0,1971.0,22.0,-25.0,
2047.0,2121.0,22.0,-25.0,
2042.0,2069.0,22.0,-24.0,
2096.0,2094.0,22.0,-24.0,
2089.0,2100.0,22.0,-24.0,
2068.0,2098.0,22.0,-24.0,
2053.0,2017.0,22.0,-24.0,
2044.0,2048.0,23.0,-24.0,
2085.0,2106.0,23.0,-23.0,
2088.0,2079.0,23.0,-23.0,
2104.0,2137.0,23.0,-24.0,
2084.0,2060.0,23.0,-24.0,
2066.0,2021.0,23.0,-24.0,
2045.0,2084.0,23.0,-24.0,
2059.0,2065.0,23.0,-24.0,
2075.0,2115.0,23.0,-24.0,
2080.0,2078.0,24.0,-24.0,
2066.0,1987.0,24.0,-24.0,
2086.0,2053.0,24.0,-24.0,
2082.0,2123.0,24.0,-25.0,
2072.0,2121.0,24.0,-25.0,
2081.0,2195.0,24.0,-25.0,
2084.0,2161.0,24.0,-25.0,
2070.0,2022.0,24.0,-25.0,
2084.0,2018.0,24.0,-25.0,
2081.0,2083.0,24.0,-25.0,
2065.0,2039.0,24.0,-25.0,
2069.0,2011.0,24.0,-25.0,
2082.0,2068.0,23.0,-24.0,
2091.0,2168.0,23.0,-24.0,
2098.0,2170.0,24.0,-25.0,
2089.0,2120.0,24.0,-26.0,
2093.0,2049.0,23.0,-26.0,
2066.0,2122.0,23.0,-26.0,
2045.0,2054.0,23.0,-27.0,
2063.0,2084.0,23.0,-27.0,
2100.0,1959.0,23.0,-27.0,
2092.0,2072.0,24.0,-27.0,
2120.0,2175.0,24.0,-29.0,
2049.0,2181.0,24.0,-28.0,
1999.0,2011.0,24.0,-28.0,
2050.0,2031.0,23.0,-27.0,
2078.0,2026.0,24.0,-27.0,
2083.0,1962.0,24.0,-27.0,
2104.0,2041.0,24.0,-27.0,
1983.0,2129.0,24.0,-26.0,
1994.0,2351.0,24.0,-26.0,
2061.0,2194.0,24.0,-26.0,
2062.0,2115.0,24.0,-26.0,
2080.0,2032.0,24.0,-26.0,
2078.0,1997.0,24.0,-26.0,
2075.0,2018.0,24.0,-26.0,
2097.0,2008.0,24.0,-26.0,
2036.0,2000.0,24.0,-26.0,
2047.0,2119.0,24.0,-26.0,
2074.0,2061.0,24.0,-26.0,
2072.0,2066.0,24.0,-26.0,
2093.0,2205.0,24.0,-26.0,
2093.0,2074.0,24.0,-26.0,
2048.0,2054.0,24.0,-27.0,
2058.0,2007.0,24.0,-27.0,
2070.0,2057.0,24.0,-27.0,
2088.0,2065.0,24.0,-27.0,
2069.0,2114.0,24.0,-27.0,
2051.0,2130.0,24.0,-28.0,
2062.0,2133.0,23.0,-28.0,
2068.0,2047.0,23.0,-28.0,
2087.0,2038.0,23.0,-28.0,
2080.0,2179.0,0,
2093.0,2089.0,23.0,-28.0,
2044.0,2019.0,23.0,-28.0,
2062.0,2045.0,23.0,-29.0,
2059.0,2117.0,23.0,-29.0,
2075.0,2074.0,23.0,-29.0,
2100.0,2073.0,23.0,-29.0,
2086.0,2141.0,23.0,-29.0,
2094.0,2087.0,23.0,-29.0,
2069.0,2056.0,23.0,-29.0,
2054.0,2087.0,23.0,-29.0,
2037.0,2070.0,23.0,-29.0,
2049.0,2021.0,23.0,-29.0,
2077.0,2046.0,23.0,-29.0,
2083.0,2105.0,23.0,-29.0,
2107.0,2194.0,23.0,-29.0,
2032.0,2181.0,23.0,-29.0,
2028.0,2060.0,23.0,-29.0,
2051.0,2033.0,23.0,-29.0,
2054.0,2133.0,23.0,-29.0,
2077.0,2093.0,23.0,-29.0,
2024.0,2079.0,23.0,-29.0,
2064.0,2154.0,24.0,-29.0,
2100.0,2176.0,24.0,-29.0,
2092.0,2062.0,24.0,-29.0,
2107.0,1997.0,24.0,-29.0,
2066.0,1936.0,24.0,-29.0,
2084.0,2117.0,24.0,-29.0,
2063.0,2025.0,24.0,-29.0,
2081.0,2041.0,24.0,-29.0,
2083.0,2090.0,24.0,-29.0,
2078.0,2118.0,24.0,-29.0,
2077.0,2051.0,24.0,-29.0,
2068.0,2023.0,24.0,-29.0,
2073.0,2142.0,24.0,-29.0,
2054.0,2099.0,24.0,-29.0,
2047.0,2077.0,24.0,-29.0,
2073.0,2074.0,24.0,-29.0,
2085.0,2076.0,24.0,-29.0,
2126.0,2114.0,24.0,-29.0,
2110.0,2073.0,24.0,-29.0,
2079.0,2046.0,24.0,-29.0,
2037.0,2078.0,24.0,-29.0,
2050.0,2066.0,23.0,-29.0,
2035.0,2067.0,23.0,-30.0,
2050.0,2171.0,23.0,-30.0,
2070.0,2072.0,23.0,-30.0,
2058.0,2078.0,23.0,-30.0,
2092.0,2178.0,23.0,-30.0,
2076.0,2131.0,23.0,-30.0,
2058.0,2086.0,23.0,-30.0,
2067.0,2095.0,23.0,-29.0,
2068.0,1942.0,23.0,-29.0,
2059.0,2045.0,23.0,-29.0,
2059.0,2059.0,23.0,-29.0,
2051.0,2044.0,23.0,-29.0,
2070.0,2138.0,23.0,-29.0,
2071.0,2085.0,23.0,-29.0,
2086.0,2081.0,23.0,-29.0,
2074.0,2179.0,23.0,-29.0,
2061.0,2129.0,23.0,-28.0,
2059.0,2097.0,24.0,-28.0,
2072.0,2029.0,24.0,-28.0,
2071.0,2063.0,24.0,-28.0,
2098.0,2028.0,24.0,-28.0,
2078.0,1961.0,24.0,-28.0,
2075.0,2015.0,24.0,-28.0,
2072.0,2130.0,24.0,-28.0,
2094.0,2096.0,24.0,-28.0,
2073.0,2021.0,24.0,-28.0,
2049.0,1952.0,24.0,-29.0,
2065.0,2172.0,24.0,-29.0,
2060.0,2126.0,24.0,-29.0,
2073.0,2322.0,24.0,-29.0,
2084.0,2151.0,24.0,-29.0,
2075.0,2124.0,24.0,-29.0,
2091.0,2027.0,24.0,-29.0,
2091.0,2033.0,24.0,-29.0,
2070.0,2060.0,24.0,-29.0,
2074.0,2095.0,24.0,-29.0,
2091.0,2089.0,24.0,-29.0,
2071.0,2054.0,24.0,-29.0,
2042.0,2020.0,24.0,-29.0,
2044.0,2079.0,24.0,-28.0,
2054.0,2017.0,24.0,-28.0,
2064.0,1931.0,24.0,-28.0,
2082.0,2186.0,23.0,-29.0,
2106.0,2163.0,23.0,-29.0,
2055.0,2028.0,23.0,-29.0,
2057.0,2082.0,23.0,-29.0,
2067.0,2157.0,23.0,-29.0,
2067.0,2135.0,23.0,-29.0,
2071.0,2111.0,23.0,-28.0,
2044.0,2100.0,23.0,-28.0,
2064.0,2085.0,23.0,-28.0,
2064.0,2105.0,23.0,-28.0,
2064.0,2042.0,24.0,-28.0,
2059.0,2036.0,24.0,-28.0,
2074.0,2086.0,24.0,-28.0,
2064.0,2164.0,24.0,-28.0,
2078.0,2106.0,24.0,-28.0,
2093.0,1910.0,24.0,-28.0,
2095.0,1964.0,24.0,-28.0,
2083.0,2160.0,24.0,-28.0,
2063.0,2018.0,24.0,-28.0,
2076.0,2091.0,24.0,-28.0,
2073.0,2106.0,24.0,-28.0,
2098.0,2202.0,24.0,-28.0,
2100.0,2157.0,24.0,-28.0,
2062.0,2040.0,24.0,-28.0,
2055.0,2133.0,24.0,-28.0,
2049.0,2067.0,24.0,-28.0,
2059.0,1949.0,24.0,-28.0,
2071.0,2007.0,24.0,-28.0,
2078.0,2090.0,24.0,-28.0,
2077.0,2177.0,24.0,-28.0,
2085.0,2123.0,24.0,-28.0,
