2121.0,2089.0,20.0,-3.0,
2131.0,2074.0,20.0,-3.0,
2091.0,2078.0,20.0,-3.0,
2087.0,2134.0,20.0,-3.0,
2099.0,2147.0,20.0,-3.0,
2088.0,2122.0,20.0,-3.0,
2058.0,2060.0,20.0,-3.0,
2075.0,2087.0,20.0,-3.0,
2061.0,2095.0,20.0,-3.0,
2074.0,2087.0,20.0,-3.0,
2078.0,2082.0,20.0,-3.0,
2071.0,2097.0,20.0,-3.0,
2094.0,2107.0,20.0,-3.0,
2078.0,2078.0,20.0,-3.0,
2081.0,2062.0,20.0,-3.0,
2112.0,2068.0,20.0,-3.0,
2084.0,2047.0,20.0,-3.0,
2051.0,2114.0,20.0,-3.0,
2057.0,2170.0,20.0,-3.0,
2065.0,2140.0,20.0,-3.0,
2061.0,2000.0,20.0,-3.0,
2072.0,2077.0,20.0,-3.0,
2068.0,2083.0,20.0,-3.0,
2066.0,2083.0,20.0,-3.0,
2056.0,2118.0,20.0,-3.0,
2047.0,2120.0,20.0,-3.0,
2046.0,2094.0,20.0,-3.0,
2059.0,2093.0,20.0,-3.0,
2041.0,2073.0,20.0,-3.0,
2063.0,2069.0,20.0,-3.0,
2080.0,2085.0,20.0,-3.0,
2087.0,2127.0,21.0,-3.0,
2101.0,2100.0,21.0,-3.0,
2077.0,2100.0,21.0,-3.0,
2055.0,2064.0,21.0,-3.0,
2051.0,2118.0,21.0,-3.0,
2076.0,2114.0,21.0,-3.0,
2100.0,2098.0,21.0,-3.0,
2088.0,2102.0,21.0,-3.0,
2076.0,2126.0,21.0,-3.0,
2082.0,2137.0,21.0,-3.0,
2045.0,2097.0,21.0,-3.0,
2066.0,2065.0,21.0,-3.0,
2073.0,2078.0,21.0,-3.0,
2096.0,2077.0,21.0,-3.0,
2072.0,2069.0,21.0,-3.0,
2112.0,2074.0,21.0,-3.0,
2094.0,2075.0,21.0,-3.0,
2094.0,2103.0,21.0,-3.0,
2094.0,2113.0,21.0,-3.0,
2083.0,2110.0,21.0,-3.0,
2095.0,2109.0,21.0,-3.0,
2072.0,2071.0,21.0,-3.0,
2026.0,2065.0,21.0,-3.0,
2037.0,2080.0,21.0,-3.0,
2038.0,2084.0,20.0,-3.0,
2063.0,2104.0,20.0,-3.0,
2129.0,2096.0,20.0,-3.0,
2090.0,2096.0,20.0,-3.0,
2080.0,2119.0,20.0,-3.0,
2042.0,2112.0,20.0,-3.0,
2042.0,2134.0,20.0,-3.0,
2060.0,2107.0,20.0,-3.0,
2062.0,2123.0,20.0,-3.0,
2095.0,2116.0,20.0,-3.0,
2112.0,2119.0,20.0,-3.0,
2121.0,2055.0,20.0,-3.0,
2094.0,2070.0,20.0,-3.0,
2097.0,2086.0,20.0,-3.0,
2056.0,2058.0,20.0,-3.0,
2048.0,2070.0,20.0,-3.0,
2041.0,2099.0,20.0,-3.0,
2040.0,2093.0,20.0,-3.0,
2070.0,2136.0,20.0,-3.0,
2106.0,2056.0,20.0,-3.0,
2115.0,2104.0,20.0,-3.0,
2093.0,2106.0,21.0,-3.0,
2066.0,2134.0,21.0,-3.0,
2094.0,2105.0,21.0,-3.0,
2037.0,2110.0,21.0,-3.0,
2050.0,2130.0,21.0,-3.0,
2065.0,2076.0,21.0,-3.0,
2078.0,2044.0,21.0,-3.0,
2076.0,2081.0,21.0,-3.0,
2071.0,2120.0,21.0,-3.0,
2085.0,2158.0,21.0,-3.0,
2122.0,2129.0,20.0,-3.0,
2080.0,2102.0,20.0,-3.0,
2057.0,2097.0,20.0,-3.0,
2080.0,2095.0,20.0,-3.0,
2059.0,2091.0,20.0,-3.0,
2061.0,2102.0,20.0,-3.0,
2059.0,2082.0,20.0,-3.0,
2083.0,2075.0,20.0,-3.0,
2089.0,2091.0,20.0,-3.0,
2091.0,2093.0,20.0,-3.0,
2066.0,2095.0,20.0,-3.0,
2064.0,2086.0,20.0,-3.0,
2054.0,2086.0,20.0,-3.0,
2034.0,2068.0,20.0,-3.0,
2064.0,2078.0,20.0,-3.0,
2082.0,2099.0,20.0,-3.0,
2111.0,2103.0,20.0,-3.0,
2078.0,2105.0,20.0,-3.0,
2062.0,2095.0,20.0,-3.0,
2086.0,2100.0,20.0,-3.0,
2073.0,2097.0,20.0,-3.0,
2064.0,2142.0,20.0,-3.0,
2055.0,2108.0,20.0,-3.0,
2069.0,2144.0,20.0,-3.0,
2105.0,2017.0,20.0,-3.0,
2109.0,2059.0,21.0,-3.0,
2089.0,2092.0,21.0,-3.0,
2124.0,2090.0,21.0,-3.0,
2073.0,2074.0,21.0,-3.0,
2041.0,2113.0,21.0,-3.0,
2047.0,2108.0,21.0,-3.0,
2094.0,2102.0,21.0,-3.0,
2079.0,2075.0,21.0,-3.0,
2078.0,2080.0,21.0,-3.0,
2112.0,2099.0,21.0,-3.0,
2102.0,2100.0,21.0,-3.0,
2084.0,2071.0,21.0,-3.0,
2056.0,2103.0,21.0,-3.0,
2034.0,2085.0,21.0,-3.0,
2027.0,2111.0,21.0,-3.0,
2047.0,2116.0,20.0,-3.0,
2111.0,2104.0,20.0,-3.0,
2070.0,2116.0,20.0,-3.0,
2080.0,2116.0,20.0,-3.0,
2064.0,2101.0,20.0,-3.0,
2050.0,2085.0,20.0,-3.0,
2105.0,2090.0,20.0,-3.0,
2095.0,2091.0,20.0,-3.0,
2083.0,2101.0,20.0,-3.0,
2047.0,2091.0,20.0,-3.0,
2037.0,2081.0,20.0,-3.0,
2040.0,2094.0,20.0,-3.0,
2095.0,2084.0,20.0,-3.0,
2147.0,2072.0,20.0,-3.0,
2117.0,2101.0,20.0,-3.0,
2084.0,2094.0,20.0,-3.0,
2051.0,2092.0,20.0,-3.0,
2022.0,2088.0,20.0,-3.0,
2029.0,2074.0,20.0,-3.0,
2051.0,2075.0,20.0,-3.0,
2051.0,2101.0,20.0,-3.0,
2115.0,2109.0,20.0,-3.0,
2099.0,2098.0,20.0,-3.0,
2093.0,2116.0,20.0,-3.0,
2093.0,2104.0,21.0,-3.0,
2065.0,2106.0,21.0,-3.0,
2064.0,2111.0,21.0,-3.0,
2036.0,2114.0,21.0,-3.0,
2072.0,2125.0,21.0,-3.0,
2057.0,2034.0,21.0,-3.0,
2023.0,2060.0,21.0,-3.0,
2053.0,2094.0,21.0,-3.0,
2090.0,2119.0,21.0,-3.0,
2122.0,2121.0,21.0,-3.0,
2081.0,2108.0,21.0,-3.0,
2051.0,2125.0,21.0,-3.0,
2056.0,2122.0,21.0,-3.0,
2063.0,2060.0,21.0,-3.0,
2088.0,2083.0,21.0,-3.0,
2133.0,2071.0,21.0,-3.0,
2082.0,2082.0,21.0,-3.0,
2100.0,2082.0,21.0,-3.0,
2134.0,2080.0,21.0,-3.0,
2057.0,2045.0,21.0,-3.0,
2059.0,2120.0,21.0,-3.0,
2076.0,2121.0,21.0,-3.0,
2065.0,2124.0,21.0,-3.0,
2057.0,2078.0,21.0,-3.0,
2079.0,2073.0,21.0,-3.0,
2071.0,2096.0,21.0,-3.0,
2082.0,2141.0,21.0,-3.0,
2105.0,2135.0,21.0,-3.0,
2082.0,2126.0,21.0,-3.0,
2072.0,2079.0,21.0,-3.0,
2097.0,2083.0,21.0,-3.0,
2072.0,2083.0,21.0,-3.0,
2073.0,2086.0,21.0,-3.0,
2070.0,2094.0,21.0,-3.0,
2093.0,2097.0,21.0,-3.0,
2089.0,2084.0,21.0,-3.0,
2078.0,2090.0,21.0,-3.0,
2068.0,2107.0,21.0,-3.0,
2049.0,2105.0,21.0,-3.0,
2052.0,2130.0,20.0,-3.0,
2052.0,2039.0,20.0,-3.0,
2069.0,2061.0,20.0,-3.0,
2062.0,2084.0,20.0,-3.0,
2080.0,2092.0,20.0,-3.0,
2079.0,2106.0,20.0,-3.0,
2064.0,2113.0,20.0,-3.0,
2034.0,2102.0,20.0,-3.0,
2047.0,2088.0,20.0,-3.0,
2100.0,2065.0,20.0,-3.0,
2157.0,2084.0,20.0,-3.0,
2136.0,2103.0,20.0,-3.0,
2105.0,2102.0,20.0,-3.0,
2096.0,2102.0,20.0,-3.0,
2076.0,2109.0,20.0,-3.0,
2066.0,2098.0,20.0,-3.0,
2084.0,2087.0,20.0,-3.0,
2049.0,2073.0,20.0,-3.0,
2065.0,2051.0,20.0,-3.0,
2102.0,2102.0,20.0,-3.0,
2080.0,2080.0,20.0,-3.0,
2063.0,2108.0,20.0,-3.0,
2099.0,2131.0,20.0,-3.0,
2080.0,2153.0,20.0,-3.0,
2043.0,2104.0,20.0,-3.0,
2050.0,2097.0,20.0,-3.0,
2038.0,2117.0,20.0,-3.0,
2048.0,2089.0,20.0,-3.0,
2077.0,2089.0,20.0,-3.0,
2109.0,2074.0,20.0,-3.0,
2094.0,2098.0,20.0,-3.0,
2106.0,2107.0,20.0,-3.0,
2099.0,2084.0,21.0,-3.0,
2078.0,2087.0,21.0,-3.0,
2068.0,2096.0,21.0,-3.0,
2047.0,2103.0,21.0,-3.0,
2065.0,2081.0,21.0,-3.0,
2056.0,2121.0,21.0,-3.0,
2054.0,2095.0,21.0,-3.0,
2076.0,2105.0,21.0,-3.0,
2084.0,2086.0,21.0,-3.0,
2085.0,2109.0,21.0,-3.0,
2051.0,2066.0,21.0,-3.0,
2073.0,2114.0,21.0,-3.0,
2067.0,2081.0,21.0,-3.0,
2061.0,2082.0,21.0,-3.0,
2037.0,2115.0,21.0,-3.0,
2053.0,2114.0,21.0,-3.0,
2071.0,2102.0,21.0,-3.0,
2109.0,2094.0,21.0,-3.0,
2138.0,2107.0,21.0,-3.0,
2117.0,2105.0,21.0,-3.0,
2077.0,2078.0,20.0,-3.0,
2098.0,2087.0,20.0,-3.0,
2067.0,2095.0,20.0,-3.0,
2055.0,2140.0,20.0,-3.0,
2083.0,2129.0,20.0,-3.0,
2075.0,2110.0,20.0,-3.0,
2077.0,2089.0,20.0,-3.0,
2087.0,2078.0,20.0,-3.0,
2125.0,2095.0,20.0,-3.0,
2063.0,2102.0,20.0,-3.0,
2034.0,2077.0,20.0,-3.0,
2057.0,2092.0,20.0,-3.0,
2053.0,2088.0,20.0,-3.0,
2149.0,2101.0,20.0,-3.0,
2130.0,2060.0,20.0,-3.0,
2110.0,2066.0,20.0,-3.0,
2113.0,2095.0,20.0,-3.0,
2093.0,2088.0,20.0,-3.0,
2091.0,2078.0,0,
2066.0,2067.0,20.0,-3.0,
2050.0,2093.0,20.0,-3.0,
2046.0,2102.0,20.0,-3.0,
2069.0,2110.0,20.0,-3.0,
2075.0,2113.0,20.0,-3.0,
2081.0,2120.0,20.0,-3.0,
2086.0,2144.0,20.0,-3.0,
2067.0,2093.0,20.0,-3.0,
2044.0,2054.0,20.0,-3.0,
2004.0,2118.0,20.0,-3.0,
2003.0,2108.0,20.0,-3.0,
2022.0,2052.0,20.0,-3.0,
2107.0,2057.0,20.0,-3.0,
2093.0,2067.0,20.0,-3.0,
2094.0,2100.0,20.0,-3.0,
2168.0,2144.0,20.0,-3.0,
2111.0,2143.0,20.0,-3.0,
2091.0,2122.0,20.0,-3.0,
2081.0,2108.0,20.0,-3.0,
2054.0,2096.0,21.0,-3.0,
2054.0,2077.0,21.0,-3.0,
2062.0,2089.0,21.0,-3.0,
2074.0,2092.0,21.0,-3.0,
2072.0,2062.0,21.0,-3.0,
2068.0,2104.0,21.0,-3.0,
2132.0,2109.0,21.0,-3.0,
2067.0,2102.0,21.0,-3.0,
2081.0,2094.0,21.0,-3.0,
2057.0,2082.0,21.0,-3.0,
2030.0,2069.0,21.0,-3.0,
2044.0,2061.0,21.0,-3.0,
2088.0,2070.0,20.0,-3.0,
2073.0,2111.0,20.0,-3.0,
2077.0,2121.0,20.0,-3.0,
2110.0,2115.0,20.0,-3.0,
2088.0,2106.0,20.0,-3.0,
2076.0,2080.0,20.0,-3.0,
2056.0,2072.0,20.0,-3.0,
2039.0,2071.0,20.0,-3.0,
2051.0,2092.0,20.0,-3.0,
2066.0,2122.0,20.0,-4.0,
2075.0,2132.0,20.0,-4.0,
2116.0,2049.0,20.0,-4.0,
2107.0,2070.0,20.0,-4.0,
2072.0,2085.0,20.0,-4.0,
2074.0,2081.0,20.0,-4.0,
2098.0,2104.0,20.0,-4.0,
2078.0,2116.0,20.0,-4.0,
2058.0,2092.0,20.0,-4.0,
2074.0,2127.0,20.0,-4.0,
2085.0,2087.0,20.0,-4.0,
2104.0,2113.0,20.0,-4.0,
2115.0,2018.0,20.0,-4.0,
2095.0,2044.0,20.0,-4.0,
2033.0,2066.0,20.0,-4.0,
2009.0,2141.0,20.0,-3.0,
2065.0,2139.0,20.0,-3.0,
2073.0,2112.0,20.0,-3.0,
2078.0,2118.0,20.0,-3.0,
2106.0,2072.0,20.0,-3.0,
2094.0,2112.0,20.0,-3.0,
2091.0,2154.0,20.0,-3.0,
2068.0,2104.0,20.0,-3.0,
2056.0,2122.0,20.0,-3.0,
2061.0,2058.0,20.0,-3.0,
2034.0,2077.0,20.0,-3.0,
2027.0,2136.0,20.0,-3.0,
2087.0,2117.0,20.0,-3.0,
2110.0,2091.0,21.0,-3.0,
2071.0,2091.0,21.0,-3.0,
2075.0,2110.0,21.0,-3.0,
2080.0,2114.0,21.0,-2.0,
2077.0,2043.0,21.0,-2.0,
2059.0,2066.0,21.0,-2.0,
2049.0,2070.0,21.0,-3.0,
2067.0,2086.0,21.0,-2.0,
2062.0,2099.0,21.0,-2.0,
2056.0,2107.0,21.0,-2.0,
2082.0,2057.0,21.0,-2.0,
2102.0,2076.0,21.0,-2.0,
2081.0,2090.0,21.0,-2.0,
2081.0,2104.0,21.0,-2.0,
2094.0,2085.0,21.0,-2.0,
2080.0,2116.0,21.0,-2.0,
2011.0,2084.0,21.0,-2.0,
2071.0,2105.0,20.0,-2.0,
2075.0,2074.0,20.0,-3.0,
2090.0,2110.0,20.0,-3.0,
2067.0,2086.0,20.0,-3.0,
2102.0,2074.0,20.0,-3.0,
2082.0,2059.0,20.0,-3.0,
2040.0,2098.0,20.0,-3.0,
2009.0,2173.0,20.0,-3.0,
2029.0,2127.0,20.0,-3.0,
2032.0,2097.0,20.0,-3.0,
2067.0,2073.0,20.0,-3.0,
2131.0,2076.0,20.0,-3.0,
2117.0,2157.0,20.0,-3.0,
2095.0,2171.0,20.0,-3.0,
2063.0,2058.0,20.0,-3.0,
2030.0,2068.0,20.0,-3.0,
2070.0,2128.0,0,
2065.0,2081.0,20.0,-3.0,
2073.0,2114.0,20.0,-3.0,
2089.0,2068.0,20.0,-3.0,
2116.0,2053.0,20.0,-3.0,
2034.0,2054.0,20.0,-3.0,
2038.0,2148.0,20.0,-3.0,
2088.0,2156.0,20.0,-3.0,
2088.0,2106.0,20.0,-3.0,
2040.0,2016.0,20.0,-3.0,
2090.0,2071.0,20.0,-3.0,
2108.0,2074.0,20.0,-3.0,
2083.0,2075.0,20.0,-3.0,
2051.0,2111.0,20.0,-3.0,
2055.0,2091.0,20.0,-3.0,
2062.0,2090.0,20.0,-3.0,
2048.0,2094.0,20.0,-3.0,
2047.0,2155.0,20.0,-3.0,
2067.0,2100.0,20.0,-3.0,
2073.0,2107.0,20.0,-3.0,
2105.0,2062.0,20.0,-3.0,
2102.0,2050.0,20.0,-3.0,
2087.0,2100.0,20.0,-3.0,
2078.0,2130.0,21.0,-3.0,
2047.0,2094.0,21.0,-3.0,
2045.0,2102.0,21.0,-3.0,
2043.0,2094.0,21.0,-3.0,
2058.0,2050.0,21.0,-3.0,
2061.0,2045.0,21.0,-3.0,
2085.0,2064.0,21.0,-3.0,
2095.0,2159.0,21.0,-3.0,
2071.0,2158.0,21.0,-3.0,
2103.0,2132.0,21.0,-3.0,
2100.0,2109.0,21.0,-3.0,
2058.0,2085.0,21.0,-3.0,
2040.0,2092.0,21.0,-3.0,
2044.0,2085.0,21.0,-3.0,
2053.0,2057.0,21.0,-3.0,
2137.0,2086.0,21.0,-3.0,
2109.0,2105.0,21.0,-3.0,
2100.0,2156.0,21.0,-3.0,
2080.0,2130.0,21.0,-3.0,
2055.0,2052.0,21.0,-3.0,
2068.0,2078.0,21.0,-3.0,
2057.0,2037.0,21.0,-3.0,
2127.0,2027.0,21.0,-3.0,
2140.0,2089.0,21.0,-3.0,
2105.0,2097.0,21.0,-3.0,
2102.0,2102.0,21.0,-3.0,
2093.0,2107.0,21.0,-3.0,
2066.0,2111.0,21.0,-3.0,
2081.0,2102.0,21.0,-3.0,
2043.0,2059.0,21.0,-3.0,
2051.0,2087.0,21.0,-3.0,
2050.0,2097.0,21.0,-3.0,
2072.0,2065.0,21.0,-3.0,
2084.0,2078.0,21.0,-3.0,
2063.0,2154.0,21.0,-3.0,
2063.0,2139.0,21.0,-3.0,
2059.0,2112.0,21.0,-3.0,
2053.0,2096.0,21.0,-3.0,
2043.0,2146.0,21.0,-3.0,
2049.0,2119.0,21.0,-3.0,
2048.0,2095.0,21.0,-3.0,
2076.0,2096.0,21.0,-3.0,
2072.0,2099.0,21.0,-3.0,
2073.0,2088.0,21.0,-3.0,
2082.0,2109.0,21.0,-3.0,
2065.0,2078.0,21.0,-3.0,
2048.0,2080.0,21.0,-3.0,
2077.0,2101.0,21.0,-3.0,
2040.0,2075.0,21.0,-3.0,
2039.0,2056.0,21.0,-3.0,
2071.0,2086.0,21.0,-3.0,
2078.0,2082.0,21.0,-3.0,
2084.0,2110.0,21.0,-3.0,
2078.0,2115.0,21.0,-3.0,
2065.0,2070.0,21.0,-3.0,
2068.0,2037.0,21.0,-3.0,
2073.0,2062.0,21.0,-3.0,
2045.0,2148.0,21.0,-3.0,
2053.0,2108.0,21.0,-3.0,
2122.0,2198.0,21.0,-3.0,
2124.0,2124.0,21.0,-3.0,
2091.0,2077.0,21.0,-3.0,
2069.0,2098.0,21.0,-3.0,
2070.0,2115.0,20.0,-3.0,
2038.0,2081.0,20.0,-3.0,
2060.0,2048.0,21.0,-3.0,
2079.0,2079.0,21.0,-3.0,
2096.0,2068.0,21.0,-3.0,
2108.0,2068.0,21.0,-3.0,
2114.0,2090.0,21.0,-3.0,
2116.0,2093.0,21.0,-3.0,
2125.0,2080.0,21.0,-3.0,
2122.0,2087.0,21.0,-3.0,
2064.0,2131.0,21.0,-3.0,
2049.0,2119.0,21.0,-3.0,
2053.0,2104.0,21.0,-4.0,
2050.0,2089.0,21.0,-4.0,
2058.0,2085.0,21.0,-4.0,
2063.0,2095.0,21.0,-3.0,
2070.0,2116.0,21.0,-3.0,
2080.0,2119.0,21.0,-3.0,
2068.0,2103.0,21.0,-3.0,
2064.0,2065.0,21.0,-3.0,
2066.0,2079.0,21.0,-3.0,
2045.0,2092.0,21.0,-3.0,
2032.0,2031.0,21.0,-3.0,
2073.0,2077.0,21.0,-3.0,
2083.0,2092.0,21.0,-3.0,
2071.0,2100.0,21.0,-3.0,
2064.0,2095.0,21.0,-3.0,
2074.0,2107.0,21.0,-3.0,
2057.0,2082.0,21.0,-3.0,
2083.0,2078.0,21.0,-3.0,
2066.0,2097.0,21.0,-3.0,
2054.0,2077.0,21.0,-3.0,
2062.0,2099.0,21.0,-3.0,
2111.0,2121.0,21.0,-3.0,
2102.0,2068.0,21.0,-3.0,
2089.0,2074.0,21.0,-3.0,
2093.0,2102.0,21.0,-3.0,
2099.0,2087.0,21.0,-3.0,
2082.0,2125.0,21.0,-3.0,
2071.0,2189.0,21.0,-3.0,
2044.0,2164.0,21.0,-3.0,
2066.0,2043.0,21.0,-3.0,
2098.0,2038.0,21.0,-3.0,
2084.0,2109.0,21.0,-3.0,
2085.0,2082.0,21.0,-3.0,
2086.0,2101.0,21.0,-3.0,
2063.0,2110.0,21.0,-3.0,
2049.0,2115.0,21.0,-3.0,
2025.0,2117.0,21.0,-3.0,
2025.0,2107.0,21.0,-3.0,
2077.0,2102.0,21.0,-3.0,
2094.0,2097.0,21.0,-3.0,
2090.0,2099.0,21.0,-3.0,
2112.0,2085.0,21.0,-3.0,
2126.0,2082.0,21.0,-3.0,
2087.0,2083.0,21.0,-3.0,
2050.0,2103.0,21.0,-3.0,
2071.0,2083.0,21.0,-3.0,
2075.0,2080.0,21.0,-3.0,
2060.0,2088.0,21.0,-3.0,
2084.0,2100.0,21.0,-3.0,
2125.0,2077.0,20.0,-3.0,
2111.0,2060.0,20.0,-3.0,
2090.0,2062.0,20.0,-3.0,
2094.0,2091.0,20.0,-3.0,
2043.0,2102.0,20.0,-3.0,
2049.0,2082.0,20.0,-3.0,
2041.0,2086.0,20.0,-3.0,
2060.0,2082.0,20.0,-3.0,
2089.0,2102.0,20.0,-3.0,
2053.0,2106.0,21.0,-3.0,
2090.0,2102.0,21.0,-3.0,
2083.0,2102.0,21.0,-3.0,
2086.0,2110.0,21.0,-3.0,
2056.0,2106.0,21.0,-3.0,
2046.0,2103.0,22.0,-3.0,
2053.0,2094.0,22.0,-3.0,
2078.0,2104.0,22.0,-3.0,
2092.0,2080.0,22.0,-3.0,
2081.0,2092.0,22.0,-3.0,
2080.0,2123.0,22.0,-3.0,
2062.0,2105.0,22.0,-3.0,
2046.0,2109.0,22.0,-3.0,
2027.0,2104.0,22.0,-3.0,
2059.0,2116.0,22.0,-3.0,
2068.0,2085.0,22.0,-3.0,
2033.0,1990.0,22.0,-3.0,
2094.0,2085.0,23.0,-3.0,
2092.0,2114.0,23.0,-3.0,
2069.0,2119.0,23.0,-3.0,
2106.0,2060.0,23.0,-2.0,
2105.0,2095.0,23.0,-2.0,
2108.0,2080.0,23.0,-2.0,
2066.0,2113.0,0,
2071.0,2098.0,23.0,-2.0,
2065.0,2076.0,23.0,-2.0,
2065.0,2101.0,23.0,-2.0,
2097.0,2097.0,23.0,-2.0,
2092.0,2158.0,23.0,-2.0,
2089.0,2147.0,23.0,-2.0,
2072.0,2129.0,23.0,-3.0,
2054.0,2064.0,23.0,-3.0,
2034.0,2078.0,23.0,-3.0,
2045.0,2080.0,22.0,-3.0,
2063.0,2079.0,22.0,-3.0,
2049.0,2093.0,22.0,-3.0,
2052.0,2097.0,22.0,-3.0,
2071.0,2103.0,22.0,-3.0,
2054.0,2137.0,22.0,-3.0,
2092.0,2132.0,22.0,-3.0,
2061.0,2102.0,22.0,-3.0,
2051.0,2061.0,21.0,-3.0,
2061.0,2073.0,21.0,-3.0,
2096.0,2066.0,21.0,-3.0,
2067.0,2098.0,21.0,-3.0,
2065.0,2048.0,21.0,-3.0,
2032.0,2054.0,21.0,-3.0,
2037.0,2147.0,21.0,-3.0,
2051.0,2162.0,21.0,-3.0,
2088.0,2124.0,21.0,-3.0,
2107.0,2108.0,20.0,-3.0,
2134.0,2095.0,20.0,-3.0,
2106.0,2110.0,20.0,-3.0,
2117.0,2101.0,20.0,-3.0,
2125.0,2114.0,20.0,-3.0,
2112.0,2119.0,20.0,-3.0,
2095.0,2147.0,20.0,-3.0,
2048.0,2131.0,20.0,-3.0,
2047.0,2053.0,20.0,-3.0,
2058.0,2115.0,20.0,-3.0,
2077.0,2033.0,20.0,-3.0,
2088.0,2063.0,19.0,-3.0,
2089.0,2067.0,19.0,-4.0,
2093.0,2047.0,19.0,-4.0,
2087.0,2095.0,19.0,-4.0,
2057.0,2149.0,19.0,-4.0,
2080.0,2130.0,19.0,-4.0,
2084.0,2071.0,19.0,-4.0,
2042.0,2008.0,19.0,-4.0,
2061.0,2124.0,19.0,-4.0,
2097.0,2089.0,19.0,-4.0,
2070.0,2101.0,19.0,-4.0,
2099.0,2119.0,19.0,-4.0,
2085.0,2053.0,20.0,-4.0,
2065.0,2043.0,20.0,-4.0,
2068.0,2090.0,20.0,-4.0,
2038.0,2106.0,21.0,-4.0,
2066.0,2109.0,21.0,-4.0,
2063.0,2119.0,21.0,-4.0,
2088.0,2104.0,22.0,-4.0,
2080.0,2111.0,22.0,-4.0,
2082.0,2055.0,22.0,-4.0,
2106.0,2089.0,23.0,-4.0,
2093.0,2087.0,23.0,-4.0,
2080.0,2128.0,23.0,-4.0,
2052.0,2113.0,23.0,-4.0,
2075.0,2099.0,23.0,-4.0,
2070.0,2092.0,23.0,-4.0,
2070.0,2093.0,23.0,-3.0,
2079.0,2097.0,22.0,-3.0,
2050.0,2097.0,22.0,-3.0,
2061.0,2115.0,22.0,-3.0,
2067.0,2107.0,22.0,-3.0,
2078.0,2095.0,21.0,-3.0,
2074.0,2090.0,21.0,-3.0,
2096.0,2082.0,21.0,-3.0,
2069.0,2108.0,21.0,-3.0,
2074.0,2102.0,21.0,-2.0,
2072.0,2082.0,21.0,-2.0,
2100.0,2072.0,21.0,-2.0,
2130.0,2105.0,21.0,-2.0,
2090.0,2079.0,21.0,-2.0,
2085.0,2083.0,21.0,-2.0,
2053.0,2097.0,21.0,-3.0,
2055.0,2053.0,21.0,-3.0,
2083.0,2077.0,21.0,-3.0,
2065.0,2083.0,21.0,-3.0,
2083.0,2105.0,21.0,-3.0,
2054.0,2120.0,21.0,-3.0,
2088.0,2114.0,21.0,-3.0,
2070.0,2046.0,21.0,-3.0,
2098.0,2093.0,21.0,-3.0,
2071.0,2106.0,21.0,-3.0,
2074.0,2105.0,21.0,-3.0,
2090.0,2064.0,20.0,-3.0,
2060.0,2036.0,20.0,-3.0,
2048.0,2095.0,20.0,-3.0,
2093.0,2161.0,20.0,-3.0,
2087.0,2140.0,20.0,-3.0,
2065.0,2117.0,20.0,-3.0,
2051.0,2125.0,20.0,-3.0,
2079.0,2114.0,20.0,-3.0,
2049.0,2113.0,20.0,-3.0,
2049.0,2074.0,20.0,-3.0,
2044.0,2043.0,20.0,-3.0,
2068.0,2019.0,20.0,-3.0,
2065.0,2095.0,20.0,-3.0,
2098.0,2218.0,20.0,-3.0,
2121.0,2148.0,20.0,-3.0,
2081.0,2117.0,20.0,-3.0,
2039.0,2049.0,20.0,-3.0,
2087.0,2083.0,0,
2086.0,2088.0,20.0,-3.0,
2074.0,2094.0,20.0,-3.0,
2074.0,2102.0,20.0,-3.0,
2078.0,2074.0,20.0,-3.0,
2102.0,2079.0,20.0,-3.0,
2140.0,2108.0,19.0,-3.0,
2101.0,2077.0,19.0,-3.0,
2071.0,1983.0,19.0,-3.0,
2031.0,2048.0,19.0,-3.0,
2020.0,2115.0,20.0,-3.0,
2037.0,2170.0,20.0,-3.0,
2052.0,2132.0,20.0,-3.0,
2053.0,2095.0,20.0,-3.0,
2092.0,2100.0,20.0,-3.0,
2108.0,2051.0,20.0,-3.0,
2075.0,2101.0,21.0,-3.0,
2050.0,2101.0,21.0,-3.0,
2042.0,2095.0,21.0,-3.0,
2023.0,2091.0,21.0,-3.0,
2018.0,2117.0,21.0,-3.0,
2067.0,2115.0,21.0,-3.0,
2079.0,2115.0,21.0,-3.0,
2148.0,2122.0,21.0,-3.0,
2169.0,2107.0,21.0,-3.0,
2096.0,2083.0,22.0,-3.0,
2108.0,2134.0,22.0,-3.0,
2083.0,2148.0,22.0,-3.0,
2037.0,2099.0,22.0,-3.0,
2031.0,2109.0,22.0,-3.0,
2091.0,2085.0,22.0,-3.0,
2060.0,2097.0,22.0,-2.0,
2138.0,2103.0,23.0,-2.0,
2081.0,2105.0,23.0,-2.0,
2075.0,2105.0,23.0,-3.0,
2071.0,2099.0,23.0,-2.0,
2060.0,2090.0,23.0,-2.0,
2042.0,2083.0,23.0,-2.0,
2080.0,2109.0,23.0,-2.0,
2074.0,2117.0,23.0,-2.0,
2078.0,2074.0,23.0,-2.0,
2092.0,2018.0,23.0,-2.0,
2084.0,2095.0,23.0,-2.0,
2070.0,2113.0,23.0,-2.0,
2069.0,2111.0,22.0,-2.0,
2076.0,2096.0,22.0,-2.0,
2059.0,2044.0,22.0,-2.0,
2053.0,2070.0,22.0,-2.0,
2068.0,2037.0,22.0,-2.0,
2079.0,2030.0,22.0,-2.0,
2101.0,2055.0,22.0,-2.0,
2068.0,2156.0,21.0,-2.0,
2087.0,2102.0,21.0,-2.0,
2068.0,2111.0,21.0,-2.0,
2036.0,2080.0,21.0,-2.0,
2063.0,2085.0,21.0,-2.0,
2072.0,2090.0,21.0,-3.0,
2107.0,2080.0,21.0,-3.0,
2099.0,2066.0,21.0,-3.0,
2106.0,2088.0,20.0,-3.0,
2099.0,2098.0,20.0,-3.0,
2090.0,2062.0,20.0,-3.0,
2080.0,2035.0,20.0,-3.0,
2068.0,2137.0,20.0,-3.0,
2045.0,2107.0,20.0,-3.0,
2040.0,2111.0,20.0,-3.0,
2057.0,2091.0,20.0,-3.0,
2063.0,2080.0,19.0,-3.0,
2062.0,2103.0,19.0,-3.0,
2169.0,2133.0,19.0,-3.0,
2130.0,2108.0,19.0,-3.0,
2069.0,2078.0,19.0,-3.0,
2078.0,2093.0,19.0,-3.0,
2060.0,2127.0,19.0,-3.0,
2056.0,2095.0,19.0,-3.0,
2075.0,2124.0,19.0,-3.0,
2086.0,2108.0,19.0,-3.0,
2092.0,2084.0,19.0,-3.0,
2088.0,2054.0,19.0,-3.0,
2084.0,2101.0,19.0,-3.0,
2107.0,2088.0,19.0,-3.0,
2081.0,2115.0,19.0,-3.0,
2076.0,2046.0,19.0,-3.0,
2059.0,2136.0,20.0,-3.0,
2069.0,2102.0,20.0,-3.0,
2095.0,2081.0,20.0,-3.0,
2112.0,2094.0,20.0,-3.0,
2100.0,2131.0,20.0,-3.0,
2074.0,2138.0,20.0,-3.0,
2063.0,2070.0,20.0,-3.0,
2054.0,2079.0,20.0,-3.0,
2045.0,2090.0,20.0,-3.0,
2041.0,2076.0,20.0,-3.0,
2046.0,2080.0,20.0,-3.0,
2045.0,2077.0,21.0,-3.0,
2102.0,2139.0,21.0,-3.0,
2119.0,2118.0,21.0,-3.0,
2087.0,2090.0,21.0,-3.0,
2092.0,2088.0,21.0,-3.0,
2076.0,2097.0,21.0,-3.0,
2055.0,2094.0,21.0,-3.0,
2039.0,2082.0,21.0,-3.0,
2056.0,2030.0,21.0,-3.0,
2072.0,2069.0,21.0,-3.0,
2095.0,2081.0,21.0,-3.0,
2118.0,2095.0,21.0,-3.0,
2160.0,2063.0,21.0,-3.0,
2061.0,2030.0,22.0,-3.0,
2033.0,2041.0,22.0,-3.0,
2032.0,2061.0,22.0,-3.0,
2019.0,2056.0,22.0,-3.0,
2103.0,2076.0,22.0,-3.0,
2127.0,2091.0,22.0,-3.0,
2097.0,2125.0,22.0,-3.0,
2107.0,2096.0,22.0,-3.0,
2083.0,2088.0,22.0,-3.0,
2069.0,2067.0,22.0,-3.0,
2062.0,2060.0,22.0,-2.0,
2070.0,2046.0,22.0,-2.0,
2061.0,2030.0,22.0,-2.0,
2061.0,2158.0,22.0,-3.0,
2096.0,2160.0,22.0,-3.0,
2075.0,2085.0,22.0,-3.0,
2070.0,2101.0,21.0,-3.0,
2088.0,2106.0,21.0,-2.0,
2074.0,2092.0,21.0,-2.0,
2042.0,2095.0,22.0,-2.0,
2087.0,2054.0,22.0,-2.0,
2065.0,2033.0,22.0,-2.0,
2087.0,2020.0,22.0,-2.0,
2092.0,2129.0,21.0,-2.0,
2082.0,2130.0,21.0,-2.0,
2081.0,2109.0,22.0,-2.0,
2103.0,2107.0,22.0,-3.0,
2068.0,2083.0,22.0,-3.0,
2097.0,2113.0,22.0,-3.0,
2095.0,2138.0,22.0,-3.0,
2083.0,2109.0,22.0,-3.0,
2088.0,2138.0,22.0,-3.0,
2082.0,2089.0,22.0,-3.0,
2079.0,2112.0,22.0,-3.0,
2063.0,2107.0,22.0,-3.0,
2082.0,2109.0,22.0,-3.0,
2086.0,2086.0,22.0,-3.0,
2071.0,2075.0,22.0,-3.0,
2073.0,2099.0,22.0,-3.0,
2063.0,2092.0,22.0,-3.0,
2061.0,2099.0,22.0,-3.0,
2070.0,2106.0,22.0,-3.0,
2065.0,2135.0,22.0,-3.0,
2066.0,2159.0,22.0,-3.0,
2057.0,2113.0,22.0,-3.0,
2058.0,2152.0,22.0,-3.0,
2057.0,2152.0,22.0,-3.0,
2059.0,2083.0,21.0,-3.0,
2113.0,2090.0,21.0,-3.0,
2090.0,2161.0,21.0,-3.0,
2080.0,2199.0,21.0,-3.0,
2072.0,2190.0,21.0,-3.0,
2063.0,2138.0,21.0,-3.0,
2061.0,2046.0,21.0,-3.0,
2045.0,2092.0,21.0,-3.0,
2086.0,2068.0,21.0,-3.0,
2064.0,2050.0,21.0,-3.0,
2081.0,2075.0,21.0,-3.0,
2113.0,2072.0,21.0,-3.0,
2102.0,2043.0,21.0,-3.0,
2127.0,2029.0,21.0,-3.0,
2107.0,2041.0,21.0,-3.0,
2086.0,2064.0,21.0,-3.0,
2044.0,2082.0,21.0,-3.0,
2075.0,2131.0,21.0,-3.0,
2087.0,2135.0,21.0,-3.0,
2106.0,2068.0,21.0,-3.0,
2077.0,2037.0,21.0,-3.0,
2070.0,2041.0,21.0,-3.0,
2097.0,2065.0,21.0,-3.0,
2080.0,2090.0,21.0,-3.0,
2062.0,2021.0,21.0,-3.0,
2071.0,2058.0,21.0,-3.0,
2062.0,2068.0,21.0,-3.0,
2040.0,2075.0,21.0,-3.0,
2033.0,2032.0,21.0,-3.0,
2084.0,2075.0,21.0,-3.0,
2067.0,2083.0,21.0,-3.0,
2124.0,2069.0,21.0,-3.0,
2109.0,2150.0,21.0,-3.0,
2068.0,2137.0,21.0,-3.0,
2044.0,2140.0,21.0,-3.0,
2066.0,2130.0,21.0,-3.0,
2069.0,2121.0,21.0,-3.0,
2041.0,2065.0,21.0,-3.0,
2052.0,2150.0,21.0,-3.0,
2079.0,2136.0,21.0,-3.0,
2109.0,2128.0,21.0,-3.0,
2100.0,2129.0,21.0,-3.0,
2071.0,2161.0,21.0,-3.0,
2057.0,2159.0,21.0,-3.0,
2071.0,2073.0,21.0,-3.0,
2044.0,2075.0,21.0,-2.0,
2042.0,2071.0,21.0,-2.0,
2051.0,2088.0,21.0,-2.0,
2050.0,2059.0,21.0,-2.0,
2071.0,2072.0,21.0,-2.0,
2165.0,2083.0,21.0,-2.0,
2132.0,2114.0,21.0,-2.0,
2041.0,2088.0,21.0,-2.0,
2078.0,2092.0,21.0,-2.0,
2054.0,2085.0,21.0,-2.0,
2050.0,2095.0,21.0,-2.0,
2036.0,2082.0,21.0,-2.0,
2043.0,2151.0,21.0,-2.0,
2103.0,2135.0,21.0,-2.0,
2090.0,2089.0,21.0,-2.0,
2126.0,2074.0,21.0,-2.0,
2111.0,2111.0,21.0,-2.0,
2067.0,2145.0,21.0,-2.0,
2051.0,2129.0,21.0,-2.0,
2041.0,2111.0,21.0,-2.0,
2090.0,2088.0,21.0,-2.0,
2055.0,2073.0,21.0,-3.0,
2042.0,2088.0,21.0,-3.0,
2069.0,2130.0,21.0,-3.0,
2074.0,2093.0,21.0,-3.0,
2107.0,2076.0,21.0,-3.0,
2071.0,2081.0,21.0,-3.0,
2067.0,2042.0,21.0,-3.0,
2032.0,2055.0,21.0,-3.0,
2067.0,2069.0,21.0,-3.0,
2033.0,2043.0,21.0,-3.0,
2054.0,2029.0,21.0,-3.0,
2093.0,2000.0,21.0,-3.0,
2086.0,2019.0,21.0,-3.0,
2100.0,2067.0,21.0,-3.0,
2069.0,2067.0,21.0,-3.0,
2064.0,2088.0,21.0,-3.0,
2050.0,2056.0,21.0,-3.0,
2063.0,2046.0,21.0,-3.0,
2069.0,2077.0,21.0,-3.0,
2095.0,2093.0,21.0,-3.0,
2085.0,2033.0,21.0,-3.0,
2060.0,2052.0,21.0,-3.0,
2059.0,2066.0,21.0,-3.0,
2060.0,2058.0,21.0,-3.0,
2046.0,2069.0,21.0,-3.0,
2084.0,2075.0,21.0,-3.0,
2093.0,2088.0,21.0,-3.0,
2089.0,2093.0,21.0,-3.0,
2065.0,2094.0,21.0,-3.0,
2094.0,2073.0,21.0,-3.0,
2073.0,2070.0,21.0,-3.0,
2048.0,2061.0,21.0,-3.0,
2082.0,2084.0,21.0,-3.0,
2097.0,2098.0,21.0,-3.0,
2044.0,2082.0,21.0,-3.0,
2081.0,2140.0,21.0,-3.0,
2115.0,2144.0,21.0,-3.0,
2127.0,2174.0,21.0,-3.0,
2112.0,2134.0,21.0,-3.0,
2085.0,2105.0,21.0,-3.0,
2081.0,2102.0,21.0,-3.0,
2041.0,2090.0,21.0,-3.0,
2012.0,2123.0,21.0,-3.0,
2026.0,2128.0,21.0,-3.0,
2050.0,2098.0,21.0,-3.0,
2062.0,2077.0,21.0,-3.0,
2095.0,2200.0,21.0,-3.0,
2092.0,2133.0,21.0,-3.0,
2099.0,2133.0,21.0,-3.0,
2084.0,2160.0,21.0,-3.0,
2063.0,2116.0,21.0,-3.0,
2080.0,2140.0,21.0,-3.0,
2072.0,2119.0,21.0,-3.0,
2066.0,2120.0,21.0,-3.0,
2086.0,2129.0,21.0,-3.0,
2080.0,2151.0,21.0,-3.0,
2070.0,2150.0,20.0,-3.0,
2089.0,2142.0,20.0,-3.0,
2068.0,2071.0,20.0,-3.0,
2042.0,2092.0,20.0,-3.0,
2060.0,2111.0,20.0,-3.0,
2045.0,2175.0,20.0,-3.0,
2047.0,2157.0,20.0,-3.0,
2060.0,2138.0,20.0,-3.0,
2083.0,2107.0,20.0,-3.0,
2071.0,2119.0,20.0,-3.0,
2137.0,2144.0,19.0,-3.0,
2096.0,2102.0,19.0,-3.0,
2074.0,2045.0,19.0,-3.0,
2076.0,2074.0,19.0,-3.0,
2059.0,2113.0,19.0,-3.0,
2091.0,2093.0,19.0,-3.0,
2116.0,2081.0,19.0,-3.0,
2118.0,2115.0,19.0,-3.0,
2082.0,2152.0,18.0,-3.0,
2060.0,2154.0,18.0,-3.0,
2073.0,2127.0,19.0,-3.0,
2034.0,2120.0,19.0,-3.0,
2069.0,2120.0,19.0,-3.0,
2098.0,2105.0,19.0,-3.0,
2075.0,2106.0,19.0,-3.0,
2078.0,2083.0,19.0,-3.0,
2076.0,2066.0,19.0,-3.0,
2062.0,2088.0,19.0,-3.0,
2050.0,2082.0,19.0,-3.0,
2078.0,2093.0,19.0,-3.0,
2093.0,2100.0,19.0,-3.0,
2052.0,2097.0,20.0,-3.0,
2034.0,2107.0,20.0,-3.0,
2040.0,2108.0,20.0,-3.0,
2085.0,2050.0,20.0,-3.0,
2095.0,2085.0,20.0,-3.0,
2100.0,2093.0,20.0,-3.0,
2072.0,2124.0,20.0,-3.0,
2069.0,2145.0,21.0,-3.0,
2088.0,2122.0,21.0,-3.0,
2055.0,2072.0,21.0,-3.0,
2058.0,2123.0,21.0,-3.0,
2049.0,2111.0,21.0,-3.0,
2094.0,2103.0,21.0,-3.0,
2094.0,2108.0,21.0,-3.0,
2098.0,2039.0,21.0,-3.0,
2087.0,2073.0,21.0,-3.0,
2079.0,2125.0,21.0,-3.0,
2060.0,2146.0,21.0,-3.0,
2116.0,2109.0,21.0,-3.0,
2108.0,2089.0,21.0,-3.0,
2045.0,2092.0,22.0,-3.0,
2080.0,2097.0,22.0,-3.0,
2084.0,2102.0,22.0,-3.0,
2071.0,2089.0,22.0,-3.0,
2068.0,2122.0,22.0,-3.0,
2084.0,2117.0,22.0,-3.0,
2045.0,2112.0,22.0,-3.0,
2054.0,2032.0,22.0,-3.0,
2063.0,2057.0,22.0,-3.0,
2058.0,2100.0,21.0,-3.0,
2087.0,2061.0,21.0,-3.0,
2112.0,2145.0,21.0,-3.0,
2135.0,2119.0,21.0,-3.0,
2099.0,2093.0,21.0,-3.0,
2064.0,2090.0,21.0,-3.0,
2038.0,2071.0,21.0,-3.0,
2042.0,2094.0,21.0,-3.0,
2042.0,2090.0,21.0,-3.0,
2079.0,2094.0,21.0,-3.0,
2077.0,2099.0,21.0,-3.0,
2071.0,2103.0,21.0,-3.0,
2079.0,2096.0,21.0,-3.0,
2135.0,2084.0,21.0,-3.0,
2105.0,2090.0,21.0,-3.0,
2070.0,2090.0,21.0,-3.0,
2059.0,2101.0,21.0,-3.0,
2077.0,2119.0,21.0,-3.0,
2075.0,2086.0,20.0,-3.0,
2074.0,2095.0,20.0,-2.0,
2058.0,2111.0,20.0,-3.0,
2060.0,2103.0,20.0,-3.0,
2057.0,2104.0,20.0,-3.0,
2049.0,2102.0,20.0,-3.0,
2054.0,2090.0,20.0,-3.0,
2053.0,2071.0,20.0,-3.0,
2068.0,2125.0,20.0,-3.0,
2071.0,2125.0,20.0,-3.0,
2079.0,2099.0,20.0,-3.0,
2089.0,2093.0,20.0,-3.0,
2106.0,2140.0,20.0,-3.0,
2096.0,2099.0,20.0,-3.0,
2050.0,2051.0,20.0,-3.0,
2056.0,2070.0,20.0,-3.0,
2058.0,2125.0,20.0,-3.0,
2055.0,2091.0,20.0,-3.0,
2069.0,2093.0,20.0,-3.0,
2098.0,2080.0,20.0,-3.0,
2115.0,2074.0,20.0,-3.0,
2102.0,2091.0,20.0,-3.0,
2119.0,2114.0,20.0,-3.0,
2097.0,2051.0,19.0,-3.0,
2108.0,2087.0,20.0,-3.0,
2090.0,2103.0,20.0,-3.0,
2083.0,2100.0,20.0,-3.0,
2039.0,2122.0,20.0,-3.0,
2073.0,2122.0,20.0,-3.0,
2091.0,2111.0,20.0,-3.0,
2084.0,2087.0,20.0,-3.0,
2093.0,2101.0,20.0,-3.0,
2086.0,2118.0,20.0,-3.0,
2055.0,2107.0,20.0,-3.0,
2013.0,2095.0,20.0,-3.0,
2054.0,2097.0,20.0,-3.0,
2086.0,2101.0,21.0,-3.0,
2148.0,2094.0,21.0,-3.0,
2138.0,2130.0,21.0,-3.0,
2103.0,2095.0,21.0,-3.0,
2066.0,2105.0,21.0,-3.0,
2073.0,2114.0,21.0,-3.0,
2072.0,2136.0,21.0,-3.0,
2037.0,2131.0,21.0,-3.0,
2083.0,2128.0,21.0,-3.0,
2095.0,2057.0,21.0,-3.0,
2106.0,2078.0,21.0,-3.0,
2110.0,2100.0,21.0,-3.0,
2072.0,2096.0,21.0,-3.0,
2100.0,2103.0,0,
2102.0,2110.0,21.0,-3.0,
2062.0,2100.0,21.0,-3.0,
2089.0,2115.0,21.0,-3.0,
2097.0,2106.0,21.0,-3.0,
2065.0,2102.0,21.0,-3.0,
2065.0,2089.0,21.0,-3.0,
2073.0,2084.0,21.0,-3.0,
2064.0,2105.0,21.0,-3.0,
2091.0,2063.0,21.0,-3.0,
2089.0,2086.0,21.0,-3.0,
2096.0,2076.0,21.0,-3.0,
2058.0,2143.0,21.0,-3.0,
2048.0,2107.0,21.0,-3.0,
2055.0,2134.0,21.0,-3.0,
2052.0,2084.0,21.0,-3.0,
2063.0,2087.0,21.0,-3.0,
2063.0,2150.0,21.0,-3.0,
2083.0,2209.0,21.0,-3.0,
2084.0,2169.0,21.0,-3.0,
2082.0,2039.0,21.0,-3.0,
2066.0,2072.0,21.0,-3.0,
2042.0,2065.0,21.0,-3.0,
2070.0,2068.0,21.0,-3.0,
2056.0,2070.0,22.0,-3.0,
2059.0,2062.0,22.0,-3.0,
2067.0,2052.0,22.0,-3.0,
2076.0,2063.0,22.0,-3.0,
2073.0,2080.0,22.0,-3.0,
2104.0,2084.0,0,
2154.0,2111.0,22.0,-3.0,
2065.0,2099.0,22.0,-3.0,
2049.0,2102.0,23.0,-3.0,
2112.0,2088.0,23.0,-3.0,
2096.0,2094.0,23.0,-3.0,
2099.0,2089.0,23.0,-3.0,
2066.0,2101.0,23.0,-3.0,
2046.0,2095.0,23.0,-3.0,
2051.0,2072.0,23.0,-3.0,
2060.0,2063.0,23.0,-3.0,
2092.0,2021.0,24.0,-3.0,
2056.0,2034.0,24.0,-3.0,
2068.0,2091.0,24.0,-3.0,
2161.0,2087.0,24.0,-3.0,
2128.0,2098.0,24.0,-3.0,
2091.0,2108.0,24.0,-2.0,
2081.0,2100.0,24.0,-2.0,
2063.0,2012.0,24.0,-2.0,
2031.0,2070.0,24.0,-2.0,
2029.0,2092.0,24.0,-2.0,
2032.0,2082.0,24.0,-2.0,
2035.0,2090.0,24.0,-2.0,
2041.0,2086.0,24.0,-2.0,
2066.0,2104.0,24.0,-2.0,
2083.0,2106.0,24.0,-2.0,
2108.0,2097.0,24.0,-2.0,
2052.0,2082.0,24.0,-3.0,
2070.0,2091.0,24.0,-3.0,
2047.0,2084.0,23.0,-3.0,
2047.0,2061.0,23.0,-3.0,
2055.0,2066.0,23.0,-3.0,
2082.0,2084.0,23.0,-3.0,
2093.0,2096.0,23.0,-3.0,
2091.0,2072.0,22.0,-3.0,
2055.0,2062.0,22.0,-3.0,
2015.0,2053.0,22.0,-3.0,
2025.0,2075.0,22.0,-3.0,
2067.0,2082.0,22.0,-3.0,
2106.0,2077.0,21.0,-3.0,
2117.0,2115.0,21.0,-3.0,
2102.0,2090.0,21.0,-3.0,
2103.0,2083.0,21.0,-3.0,
2036.0,2109.0,21.0,-3.0,
2070.0,2114.0,20.0,-3.0,
2089.0,2089.0,20.0,-3.0,
2042.0,2079.0,20.0,-3.0,
2035.0,2078.0,20.0,-3.0,
2076.0,2084.0,20.0,-3.0,
2067.0,2103.0,20.0,-3.0,
2100.0,2105.0,20.0,-3.0,
2151.0,2093.0,20.0,-3.0,
2115.0,2050.0,20.0,-3.0,
2079.0,2069.0,19.0,-3.0,
2033.0,2075.0,19.0,-3.0,
2054.0,2040.0,19.0,-3.0,
2054.0,2084.0,19.0,-3.0,
2054.0,2117.0,0,
2062.0,2105.0,19.0,-3.0,
2085.0,2111.0,19.0,-3.0,
2055.0,2094.0,19.0,-3.0,
2035.0,2093.0,19.0,-3.0,
2070.0,2096.0,19.0,-3.0,
2079.0,2097.0,19.0,-3.0,
2061.0,2095.0,19.0,-3.0,
2048.0,2098.0,20.0,-3.0,
2075.0,2111.0,20.0,-3.0,
2084.0,2106.0,20.0,-3.0,
2075.0,2098.0,20.0,-3.0,
2097.0,2094.0,20.0,-3.0,
2078.0,2081.0,20.0,-3.0,
2044.0,2086.0,20.0,-3.0,
2032.0,2082.0,20.0,-3.0,
2060.0,2073.0,21.0,-3.0,
2033.0,2084.0,21.0,-3.0,
2112.0,2095.0,21.0,-3.0,
2101.0,2104.0,21.0,-3.0,
2072.0,2096.0,21.0,-3.0,
2081.0,2086.0,21.0,-3.0,
2069.0,2072.0,21.0,-3.0,
2014.0,2064.0,21.0,-3.0,
2043.0,2085.0,21.0,-3.0,
2051.0,2081.0,21.0,-3.0,
2103.0,2097.0,21.0,-2.0,
2074.0,2071.0,21.0,-2.0,
2118.0,2053.0,21.0,-2.0,
2106.0,2061.0,21.0,-2.0,
2085.0,2097.0,22.0,-2.0,
2106.0,2115.0,22.0,-2.0,
2088.0,2098.0,22.0,-2.0,
2050.0,2075.0,22.0,-2.0,
2060.0,2072.0,22.0,-2.0,
2035.0,2056.0,22.0,-2.0,
2017.0,2090.0,22.0,-2.0,
2024.0,2091.0,22.0,-2.0,
2040.0,2085.0,22.0,-2.0,
2134.0,2092.0,22.0,-2.0,
2091.0,2067.0,22.0,-2.0,
2071.0,2053.0,22.0,-2.0,
2070.0,2095.0,23.0,-2.0,
2116.0,2084.0,23.0,-3.0,
2094.0,2096.0,23.0,-3.0,
2095.0,2099.0,23.0,-3.0,
2084.0,2105.0,23.0,-3.0,
2099.0,2113.0,23.0,-3.0,
2074.0,2107.0,23.0,-3.0,
2059.0,2115.0,23.0,-3.0,
2063.0,2108.0,23.0,-3.0,
2079.0,2098.0,22.0,-3.0,
2047.0,2118.0,22.0,-3.0,
2053.0,2100.0,22.0,-3.0,
2053.0,2090.0,22.0,-3.0,
2053.0,2093.0,22.0,-3.0,
2110.0,2094.0,22.0,-2.0,
2118.0,2106.0,22.0,-2.0,
2084.0,2102.0,22.0,-2.0,
2061.0,2097.0,22.0,-2.0,
2018.0,2087.0,22.0,-2.0,
2049.0,2109.0,22.0,-2.0,
2073.0,2121.0,22.0,-2.0,
2098.0,2112.0,22.0,-2.0,
2087.0,2099.0,22.0,-2.0,
2072.0,2095.0,22.0,-2.0,
2095.0,2093.0,22.0,-2.0,
2114.0,2091.0,22.0,-2.0,
2088.0,2076.0,21.0,-2.0,
2097.0,2077.0,21.0,-2.0,
2062.0,2097.0,21.0,-2.0,
2035.0,2082.0,21.0,-2.0,
2081.0,2090.0,21.0,-2.0,
2073.0,2117.0,21.0,-2.0,
2093.0,2118.0,21.0,-2.0,
2072.0,2136.0,21.0,-2.0,
2124.0,2110.0,20.0,-2.0,
2072.0,2096.0,20.0,-2.0,
2053.0,2087.0,20.0,-2.0,
2032.0,2051.0,20.0,-2.0,
2009.0,2066.0,20.0,-2.0,
2033.0,2123.0,21.0,-2.0,
2043.0,2064.0,21.0,-2.0,
2097.0,2088.0,21.0,-2.0,
2172.0,2129.0,21.0,-2.0,
2161.0,2065.0,21.0,-3.0,
2087.0,2063.0,21.0,-3.0,
2077.0,2078.0,21.0,-3.0,
2047.0,2080.0,21.0,-3.0,
2010.0,2067.0,21.0,-3.0,
1995.0,2109.0,21.0,-3.0,
2043.0,2057.0,21.0,-3.0,
2093.0,2083.0,21.0,-3.0,
2106.0,2124.0,21.0,-3.0,
2141.0,2125.0,22.0,-3.0,
2090.0,2084.0,22.0,-3.0,
2068.0,2076.0,22.0,-3.0,
2084.0,2012.0,23.0,-3.0,
2060.0,2124.0,23.0,-3.0,
2093.0,2145.0,23.0,-3.0,
2072.0,2103.0,23.0,-3.0,
2083.0,2163.0,23.0,-3.0,
2122.0,2114.0,24.0,-3.0,
2086.0,2036.0,24.0,-2.0,
2047.0,2067.0,24.0,-2.0,
2007.0,2050.0,24.0,-2.0,
2063.0,2058.0,24.0,-2.0,
2036.0,2060.0,24.0,-2.0,
2051.0,2145.0,24.0,-2.0,
2131.0,2158.0,24.0,-2.0,
2090.0,2066.0,24.0,-2.0,
2065.0,2030.0,24.0,-2.0,
2049.0,2059.0,0,
2032.0,2086.0,24.0,-2.0,
2068.0,2103.0,24.0,-2.0,
2071.0,2110.0,24.0,-2.0,
2018.0,2118.0,24.0,-2.0,
2045.0,2110.0,24.0,-2.0,
2043.0,2114.0,24.0,-1.0,
2060.0,2084.0,24.0,-1.0,
2073.0,2140.0,24.0,-1.0,
2116.0,2147.0,24.0,-1.0,
2147.0,2100.0,24.0,-1.0,
2153.0,2094.0,24.0,-1.0,
2105.0,2036.0,24.0,-1.0,
2069.0,2056.0,23.0,-1.0,
2063.0,2085.0,23.0,-1.0,
2032.0,2080.0,23.0,-1.0,
2054.0,2095.0,23.0,-1.0,
2111.0,2093.0,22.0,-1.0,
2121.0,2094.0,22.0,-1.0,
2098.0,2139.0,22.0,-1.0,
2129.0,2226.0,22.0,-1.0,
2104.0,2152.0,22.0,-1.0,
2063.0,1967.0,21.0,-2.0,
2036.0,2028.0,21.0,-2.0,
2042.0,2034.0,21.0,-1.0,
2099.0,2107.0,21.0,-1.0,
2048.0,2110.0,21.0,-1.0,
2085.0,2089.0,22.0,0.0,
2074.0,2112.0,22.0,0.0,
2056.0,2129.0,21.0,0.0,
2079.0,2075.0,21.0,0.0,
2087.0,2097.0,21.0,-1.0,
2094.0,2121.0,21.0,-1.0,
2075.0,2085.0,21.0,-1.0,
2025.0,2101.0,21.0,-1.0,
2036.0,2103.0,21.0,-1.0,
2130.0,2130.0,21.0,-1.0,
2096.0,2133.0,21.0,-3.0,
2095.0,2132.0,21.0,-4.0,
2073.0,2085.0,21.0,-3.0,
2059.0,2078.0,21.0,-2.0,
2030.0,2040.0,21.0,-1.0,
2104.0,2086.0,21.0,-1.0,
2137.0,2096.0,21.0,-1.0,
2098.0,2083.0,22.0,-1.0,
2085.0,2063.0,22.0,0.0,
2112.0,2107.0,22.0,0.0,
2028.0,2096.0,22.0,0.0,
2003.0,2086.0,22.0,-1.0,
2027.0,2103.0,22.0,-1.0,
2088.0,2063.0,22.0,-2.0,
2225.0,2088.0,23.0,-2.0,
2212.0,2129.0,23.0,-2.0,
2122.0,2207.0,23.0,-2.0,
2065.0,2119.0,23.0,-2.0,
2061.0,2146.0,23.0,-3.0,
2068.0,2147.0,23.0,-4.0,
2121.0,2008.0,23.0,-3.0,
2071.0,1979.0,23.0,-3.0,
2028.0,1991.0,23.0,-2.0,
2042.0,2024.0,23.0,-2.0,
2039.0,2052.0,23.0,-2.0,
1996.0,2070.0,23.0,-2.0,
2061.0,2103.0,23.0,-2.0,
2096.0,2087.0,23.0,-2.0,
2119.0,2076.0,23.0,-2.0,
2070.0,2103.0,22.0,-2.0,
2046.0,2126.0,22.0,-2.0,
2011.0,2152.0,22.0,-1.0,
2050.0,2112.0,22.0,0.0,
2067.0,2103.0,21.0,0.0,
2144.0,2170.0,21.0,0.0,
2088.0,2086.0,20.0,-1.0,
2026.0,2015.0,20.0,-2.0,
2011.0,2087.0,19.0,-2.0,
2092.0,2083.0,19.0,-2.0,
2119.0,2064.0,19.0,-2.0,
2125.0,2099.0,18.0,-2.0,
2129.0,2127.0,18.0,-3.0,
2033.0,2045.0,17.0,-5.0,
2034.0,2083.0,17.0,-5.0,
2035.0,2073.0,17.0,-4.0,
2014.0,2089.0,16.0,-3.0,
1983.0,2095.0,16.0,-2.0,
2000.0,2104.0,16.0,-2.0,
2039.0,2120.0,16.0,-2.0,
2134.0,2133.0,15.0,-2.0,
2127.0,2124.0,15.0,-2.0,
2109.0,2114.0,15.0,-2.0,
2087.0,2106.0,15.0,-2.0,
2031.0,2087.0,15.0,-2.0,
1965.0,2086.0,15.0,-3.0,
2024.0,2090.0,15.0,-3.0,
2184.0,2096.0,15.0,-3.0,
2197.0,2098.0,15.0,-3.0,
2210.0,2115.0,16.0,-3.0,
2142.0,2101.0,16.0,-3.0,
2101.0,2095.0,16.0,-3.0,
2103.0,2093.0,16.0,-3.0,
2087.0,2128.0,17.0,-3.0,
2095.0,2164.0,17.0,-3.0,
2080.0,2097.0,17.0,-3.0,
2028.0,2123.0,18.0,-3.0,
2044.0,2058.0,18.0,-3.0,
2031.0,2015.0,19.0,-3.0,
2063.0,2079.0,19.0,-3.0,
2110.0,2139.0,19.0,-3.0,
2057.0,2056.0,20.0,-3.0,
2046.0,2038.0,20.0,-2.0,
2038.0,2047.0,20.0,-2.0,
2009.0,2043.0,20.0,-2.0,
2094.0,2113.0,20.0,-2.0,
2037.0,2133.0,20.0,-2.0,
2012.0,2024.0,20.0,-2.0,
2056.0,2098.0,20.0,-2.0,
2058.0,2132.0,20.0,-2.0,
2080.0,2081.0,20.0,-2.0,
2091.0,2107.0,20.0,-2.0,
2102.0,2138.0,19.0,-2.0,
2091.0,2065.0,19.0,-2.0,
2045.0,2085.0,19.0,-2.0,
2057.0,2102.0,18.0,-2.0,
2114.0,2130.0,18.0,-2.0,
2082.0,2136.0,18.0,-2.0,
2089.0,2098.0,17.0,-2.0,
2032.0,2121.0,17.0,-2.0,
2057.0,2119.0,17.0,-2.0,
2060.0,2119.0,16.0,-2.0,
2181.0,2101.0,16.0,-2.0,
2101.0,2101.0,16.0,-2.0,
2062.0,2083.0,15.0,-3.0,
2074.0,2090.0,15.0,-3.0,
2108.0,2081.0,14.0,-3.0,
2135.0,2096.0,14.0,-3.0,
2134.0,2127.0,14.0,-3.0,
2094.0,2131.0,14.0,-3.0,
2058.0,2085.0,13.0,-3.0,
2020.0,2073.0,13.0,-3.0,
1971.0,2089.0,13.0,-3.0,
2052.0,2098.0,13.0,-3.0,
2020.0,2078.0,13.0,-3.0,
2107.0,2082.0,13.0,-3.0,
2095.0,2089.0,13.0,-3.0,
2134.0,2104.0,13.0,-2.0,
2205.0,2069.0,13.0,0.0,
2128.0,2029.0,13.0,-1.0,
2088.0,2073.0,13.0,-3.0,
2077.0,2107.0,13.0,-3.0,
2053.0,2107.0,13.0,-3.0,
2055.0,2105.0,13.0,-4.0,
2091.0,2112.0,13.0,-4.0,
2093.0,2123.0,13.0,-4.0,
2088.0,2097.0,13.0,-4.0,
2070.0,2110.0,13.0,-5.0,
2024.0,2027.0,13.0,-6.0,
1989.0,2026.0,14.0,-5.0,
2031.0,2059.0,14.0,-4.0,
2080.0,2079.0,14.0,-3.0,
2080.0,2078.0,15.0,-3.0,
2079.0,2098.0,15.0,-3.0,
2163.0,2126.0,15.0,-3.0,
2129.0,2127.0,16.0,-3.0,
2088.0,2103.0,16.0,-3.0,
2043.0,2087.0,16.0,-3.0,
2020.0,2053.0,16.0,-3.0,
2020.0,2090.0,17.0,-3.0,
2019.0,2074.0,17.0,-3.0,
2065.0,2105.0,17.0,-3.0,
2111.0,2140.0,17.0,-3.0,
2074.0,2134.0,17.0,-3.0,
2091.0,2094.0,17.0,-3.0,
2074.0,2094.0,17.0,-2.0,
2097.0,2095.0,17.0,-2.0,
2087.0,2117.0,17.0,-2.0,
2094.0,2109.0,17.0,-2.0,
2049.0,2115.0,17.0,-2.0,
2037.0,2106.0,17.0,-2.0,
2008.0,2119.0,17.0,-2.0,
2036.0,2095.0,17.0,-2.0,
2069.0,2123.0,17.0,-2.0,
2147.0,2101.0,17.0,-2.0,
2126.0,2072.0,17.0,-2.0,
2084.0,2083.0,17.0,-2.0,
2077.0,2121.0,17.0,-2.0,
2069.0,2110.0,17.0,-2.0,
2046.0,2074.0,17.0,-2.0,
2050.0,2157.0,17.0,-2.0,
2013.0,2032.0,17.0,-2.0,
2081.0,2038.0,17.0,-2.0,
2079.0,2087.0,16.0,-2.0,
2092.0,2083.0,16.0,-3.0,
2053.0,2070.0,16.0,-3.0,
2098.0,2121.0,16.0,-3.0,
2032.0,2078.0,16.0,-2.0,
2025.0,2083.0,15.0,-3.0,
2033.0,2106.0,15.0,-3.0,
2034.0,2111.0,15.0,-3.0,
2183.0,2159.0,15.0,-3.0,
2099.0,2131.0,15.0,-3.0,
2088.0,2143.0,14.0,-3.0,
2086.0,2104.0,14.0,-3.0,
2045.0,2097.0,14.0,-3.0,
2000.0,2039.0,14.0,-3.0,
2082.0,2045.0,14.0,-3.0,
2123.0,2053.0,14.0,-3.0,
2156.0,2084.0,14.0,-3.0,
2120.0,2100.0,15.0,-3.0,
2107.0,2120.0,15.0,-3.0,
2104.0,2125.0,15.0,-3.0,
2063.0,2092.0,15.0,-3.0,
2062.0,2083.0,15.0,-3.0,
2034.0,2094.0,15.0,-3.0,
2034.0,2065.0,15.0,-2.0,
2047.0,2086.0,16.0,-2.0,
2064.0,2128.0,16.0,-2.0,
2074.0,2140.0,16.0,-2.0,
2074.0,2096.0,16.0,-2.0,
2076.0,2086.0,16.0,-2.0,
2034.0,2037.0,16.0,-2.0,
2058.0,2072.0,16.0,-2.0,
2030.0,2082.0,16.0,-2.0,
2064.0,2089.0,16.0,-2.0,
2074.0,2104.0,16.0,-2.0,
2118.0,2137.0,16.0,-2.0,
2095.0,2083.0,16.0,-2.0,
2034.0,2075.0,16.0,-2.0,
2064.0,2088.0,16.0,-2.0,
2084.0,2104.0,16.0,-2.0,
2066.0,2099.0,16.0,-2.0,
2044.0,2075.0,16.0,-2.0,
2101.0,2100.0,16.0,-2.0,
2117.0,2124.0,16.0,-2.0,
2131.0,2108.0,16.0,-2.0,
2070.0,2068.0,16.0,-2.0,
2046.0,2097.0,16.0,-2.0,
2048.0,2073.0,16.0,-2.0,
1994.0,2070.0,16.0,-2.0,
2070.0,2077.0,16.0,-2.0,
2092.0,2092.0,16.0,-2.0,
2096.0,2101.0,16.0,-2.0,
2121.0,2143.0,16.0,-2.0,
2092.0,2159.0,16.0,-2.0,
2089.0,2036.0,16.0,-2.0,
2112.0,2055.0,16.0,-2.0,
2068.0,2110.0,16.0,-2.0,
1985.0,2127.0,16.0,-3.0,
1961.0,2082.0,16.0,-3.0,
2027.0,2062.0,15.0,-3.0,
2080.0,2059.0,15.0,-3.0,
2238.0,2066.0,15.0,-3.0,
2122.0,2052.0,15.0,-3.0,
2162.0,2082.0,15.0,-3.0,
2087.0,2142.0,15.0,-3.0,
2050.0,2133.0,15.0,-3.0,
2101.0,2107.0,15.0,-3.0,
2074.0,2080.0,15.0,-3.0,
2107.0,2059.0,15.0,-3.0,
2061.0,2106.0,15.0,-3.0,
2103.0,2103.0,15.0,-3.0,
2121.0,2088.0,15.0,-3.0,
2075.0,2094.0,15.0,-3.0,
2073.0,2098.0,15.0,-3.0,
2057.0,2109.0,15.0,-3.0,
2047.0,2110.0,15.0,-3.0,
2061.0,2108.0,14.0,-3.0,
2027.0,2099.0,14.0,-3.0,
2051.0,2128.0,14.0,-3.0,
2069.0,2130.0,15.0,-3.0,
2064.0,2063.0,15.0,-3.0,
2087.0,2090.0,15.0,-3.0,
2053.0,2096.0,15.0,-3.0,
2051.0,2088.0,15.0,-3.0,
2066.0,2104.0,15.0,-3.0,
2019.0,2065.0,15.0,-3.0,
2034.0,2111.0,15.0,-3.0,
2054.0,2130.0,15.0,-3.0,
2084.0,2083.0,15.0,-3.0,
2053.0,2019.0,15.0,-3.0,
2087.0,2077.0,14.0,-3.0,
2115.0,2108.0,14.0,-3.0,
2119.0,2111.0,14.0,-3.0,
2082.0,2098.0,14.0,-3.0,
2068.0,2096.0,14.0,-3.0,
2059.0,2069.0,14.0,-3.0,
2076.0,2073.0,14.0,-3.0,
2094.0,2093.0,14.0,-3.0,
2142.0,2105.0,14.0,-3.0,
2093.0,2106.0,14.0,-3.0,
2109.0,2097.0,14.0,-3.0,
2086.0,2108.0,15.0,-3.0,
2064.0,2114.0,15.0,-3.0,
2057.0,2118.0,15.0,-3.0,
2068.0,2119.0,15.0,-3.0,
2087.0,2107.0,15.0,-3.0,
2092.0,2096.0,15.0,-3.0,
2078.0,2073.0,15.0,-3.0,
2081.0,2052.0,15.0,-3.0,
2065.0,2086.0,15.0,-3.0,
2060.0,2165.0,15.0,-3.0,
2070.0,2115.0,15.0,-3.0,
2017.0,2073.0,15.0,-3.0,
1997.0,2071.0,15.0,-3.0,
2039.0,2090.0,15.0,-3.0,
2056.0,2100.0,15.0,-3.0,
2181.0,2101.0,15.0,-3.0,
2127.0,2108.0,15.0,-3.0,
2074.0,2085.0,15.0,-3.0,
2083.0,2059.0,16.0,-3.0,
2063.0,2080.0,16.0,-3.0,
2080.0,2096.0,16.0,-3.0,
2040.0,2070.0,16.0,-3.0,
2099.0,2082.0,16.0,-3.0,
2137.0,2111.0,16.0,-3.0,
2118.0,2087.0,16.0,-3.0,
2097.0,2092.0,16.0,-3.0,
2083.0,2096.0,16.0,-3.0,
2100.0,2107.0,16.0,-3.0,
2091.0,2097.0,15.0,-3.0,
2074.0,2092.0,15.0,-3.0,
2084.0,2099.0,15.0,-3.0,
2019.0,2094.0,15.0,-3.0,
2047.0,2113.0,15.0,-2.0,
2059.0,2113.0,15.0,-2.0,
2075.0,2135.0,15.0,-2.0,
2077.0,2130.0,15.0,-2.0,
2080.0,2087.0,15.0,-2.0,
2086.0,2069.0,15.0,-2.0,
2042.0,2063.0,15.0,-2.0,
2052.0,2061.0,16.0,-2.0,
2024.0,2092.0,16.0,-2.0,
2041.0,2072.0,16.0,-2.0,
2084.0,2105.0,16.0,-2.0,
2073.0,2104.0,15.0,-2.0,
2060.0,2122.0,15.0,-2.0,
2060.0,2108.0,15.0,-2.0,
2085.0,2073.0,15.0,-2.0,
2082.0,2099.0,15.0,-2.0,
2068.0,2103.0,15.0,-2.0,
2082.0,2119.0,15.0,-2.0,
2086.0,2084.0,15.0,-2.0,
2081.0,2082.0,16.0,-2.0,
2091.0,2075.0,16.0,-2.0,
2068.0,2071.0,16.0,-2.0,
2117.0,2088.0,16.0,-2.0,
2079.0,2086.0,16.0,-2.0,
2076.0,2104.0,16.0,-2.0,
2085.0,2106.0,16.0,-2.0,
2067.0,2098.0,16.0,-2.0,
2069.0,2089.0,16.0,-2.0,
2057.0,2089.0,17.0,-2.0,
2071.0,2087.0,17.0,-2.0,
2086.0,2101.0,17.0,-2.0,
2061.0,2101.0,17.0,-2.0,
2056.0,2091.0,17.0,-2.0,
2058.0,2093.0,17.0,-2.0,
2083.0,2090.0,0,
2075.0,2085.0,17.0,-2.0,
2083.0,2105.0,17.0,-2.0,
2103.0,2106.0,17.0,-2.0,
2092.0,2110.0,17.0,-2.0,
2082.0,2104.0,17.0,-2.0,
2080.0,2085.0,17.0,-2.0,
2055.0,2086.0,17.0,-2.0,
2073.0,2076.0,17.0,-2.0,
2055.0,2081.0,17.0,-2.0,
2064.0,2104.0,17.0,-2.0,
2043.0,2114.0,17.0,-2.0,
2047.0,2092.0,17.0,-2.0,
2055.0,2121.0,16.0,-2.0,
2063.0,2092.0,16.0,-2.0,
2055.0,2092.0,16.0,-2.0,
2100.0,2085.0,16.0,-2.0,
2067.0,2083.0,16.0,-2.0,
2099.0,2073.0,16.0,-2.0,
2079.0,2065.0,15.0,-2.0,
2100.0,2086.0,15.0,-2.0,
2061.0,2133.0,15.0,-2.0,
2092.0,2128.0,15.0,-3.0,
2100.0,2062.0,14.0,-3.0,
2087.0,2070.0,14.0,-3.0,
2040.0,2085.0,14.0,-3.0,
2051.0,2088.0,13.0,-3.0,
2055.0,2081.0,13.0,-3.0,
2070.0,2107.0,13.0,-3.0,
2209.0,2112.0,13.0,-3.0,
2131.0,2113.0,13.0,-3.0,
2098.0,2109.0,13.0,-3.0,
2085.0,2099.0,13.0,-3.0,
2029.0,2082.0,13.0,-3.0,
2061.0,2088.0,13.0,-3.0,
2057.0,2101.0,13.0,-3.0,
2040.0,2102.0,13.0,-3.0,
2097.0,2122.0,13.0,-3.0,
2082.0,2116.0,13.0,-3.0,
2101.0,2104.0,13.0,-3.0,
2029.0,2071.0,13.0,-3.0,
2092.0,2099.0,14.0,-3.0,
2077.0,2102.0,14.0,-3.0,
2068.0,2091.0,14.0,-3.0,
2038.0,2095.0,14.0,-3.0,
2056.0,2092.0,14.0,-3.0,
2055.0,2091.0,15.0,-3.0,
2056.0,2043.0,15.0,-3.0,
2079.0,2101.0,15.0,-3.0,
2088.0,2099.0,15.0,-3.0,
2091.0,2101.0,15.0,-3.0,
2069.0,2090.0,16.0,-2.0,
2043.0,2099.0,16.0,-2.0,
2087.0,2092.0,16.0,-2.0,
2076.0,2088.0,16.0,-2.0,
2075.0,2072.0,16.0,-2.0,
2060.0,2092.0,16.0,-2.0,
2066.0,2094.0,16.0,-2.0,
2097.0,2106.0,17.0,-2.0,
2077.0,2108.0,17.0,-2.0,
2088.0,2098.0,17.0,-2.0,
2082.0,2094.0,17.0,-2.0,
2059.0,2092.0,17.0,-2.0,
2088.0,2105.0,17.0,-2.0,
2063.0,2090.0,18.0,-2.0,
2090.0,2092.0,18.0,-1.0,
2095.0,2104.0,18.0,-1.0,
2093.0,2100.0,18.0,-1.0,
2077.0,2100.0,19.0,-1.0,
2085.0,2099.0,19.0,-1.0,
2069.0,2091.0,19.0,-1.0,
2057.0,2070.0,19.0,-1.0,
2047.0,2092.0,19.0,-1.0,
2050.0,2088.0,19.0,-1.0,
2059.0,2092.0,19.0,-1.0,
2044.0,2085.0,19.0,-1.0,
2100.0,2085.0,19.0,-1.0,
2120.0,2098.0,19.0,-1.0,
2066.0,2092.0,19.0,-1.0,
2075.0,2111.0,20.0,-1.0,
2079.0,2109.0,20.0,-1.0,
2046.0,2108.0,20.0,-1.0,
2061.0,2125.0,20.0,-1.0,
2080.0,2102.0,20.0,-1.0,
2068.0,2057.0,20.0,-1.0,
2095.0,2060.0,20.0,-1.0,
2076.0,2064.0,20.0,-1.0,
2064.0,2072.0,20.0,-1.0,
2052.0,2072.0,20.0,-1.0,
2079.0,2069.0,20.0,-1.0,
2070.0,2034.0,20.0,-1.0,
2057.0,2114.0,19.0,-1.0,
2091.0,2115.0,19.0,-1.0,
2103.0,2194.0,19.0,-1.0,
2097.0,2154.0,19.0,-1.0,
2093.0,2117.0,19.0,-1.0,
2052.0,2042.0,19.0,-1.0,
2058.0,2074.0,19.0,-1.0,
2040.0,2119.0,19.0,-1.0,
2106.0,2111.0,18.0,-1.0,
2057.0,2084.0,18.0,-1.0,
2073.0,2060.0,18.0,-2.0,
2113.0,2100.0,17.0,-2.0,
2059.0,2089.0,17.0,-2.0,
2033.0,2080.0,17.0,-2.0,
2049.0,2083.0,16.0,-2.0,
2107.0,2083.0,16.0,-2.0,
2154.0,2083.0,16.0,-2.0,
2177.0,2054.0,16.0,-2.0,
2111.0,2007.0,15.0,-2.0,
2102.0,2119.0,15.0,-2.0,
2085.0,2169.0,15.0,-2.0,
2086.0,2113.0,14.0,-2.0,
2105.0,2125.0,14.0,-2.0,
2085.0,2134.0,13.0,-2.0,
2068.0,2083.0,12.0,-3.0,
2033.0,2074.0,12.0,-3.0,
2026.0,2061.0,11.0,-3.0,
2053.0,2087.0,11.0,-3.0,
2072.0,2151.0,11.0,-3.0,
2072.0,2095.0,11.0,-3.0,
2104.0,2109.0,11.0,-3.0,
2120.0,2067.0,11.0,-3.0,
2087.0,2105.0,11.0,-3.0,
2073.0,2039.0,11.0,-3.0,
2056.0,2062.0,12.0,-2.0,
2032.0,2043.0,12.0,-2.0,
2025.0,2073.0,12.0,-2.0,
2065.0,2090.0,12.0,-2.0,
2095.0,2093.0,13.0,-2.0,
2080.0,2085.0,0,
2065.0,2083.0,13.0,-2.0,
2046.0,2110.0,14.0,-2.0,
2071.0,2131.0,14.0,-2.0,
2076.0,2130.0,14.0,-2.0,
2096.0,2073.0,15.0,-2.0,
2089.0,2041.0,15.0,-2.0,
2091.0,2073.0,16.0,-2.0,
2051.0,2075.0,17.0,-1.0,
2054.0,2094.0,17.0,-1.0,
2113.0,2121.0,18.0,-1.0,
2109.0,2197.0,18.0,-1.0,
2090.0,2151.0,19.0,-1.0,
2051.0,2104.0,20.0,-1.0,
2040.0,2115.0,20.0,-1.0,
2051.0,2091.0,21.0,-1.0,
2058.0,2095.0,22.0,0.0,
2072.0,2112.0,22.0,-1.0,
2091.0,2144.0,23.0,0.0,
2089.0,2131.0,23.0,0.0,
2074.0,2081.0,24.0,0.0,
2053.0,2108.0,24.0,0.0,
2050.0,2088.0,24.0,0.0,
2067.0,2064.0,25.0,0.0,
2082.0,2068.0,25.0,0.0,
2083.0,2121.0,25.0,0.0,
2089.0,2107.0,25.0,0.0,
2102.0,2137.0,25.0,0.0,
2092.0,2151.0,26.0,0.0,
2074.0,2134.0,26.0,0.0,
2050.0,2077.0,25.0,0.0,
2031.0,2098.0,25.0,0.0,
2042.0,2121.0,25.0,0.0,
2055.0,2094.0,25.0,0.0,
2050.0,2180.0,25.0,0.0,
2120.0,2156.0,25.0,0.0,
2082.0,2122.0,24.0,0.0,
2112.0,2053.0,24.0,0.0,
2072.0,2038.0,24.0,0.0,
2060.0,2072.0,23.0,0.0,
2054.0,2049.0,23.0,0.0,
2043.0,2078.0,23.0,0.0,
2078.0,2100.0,22.0,-1.0,
2072.0,2116.0,21.0,-1.0,
2098.0,2060.0,21.0,-1.0,
2070.0,2107.0,20.0,-1.0,
2080.0,2106.0,20.0,-1.0,
2064.0,2095.0,19.0,-1.0,
2039.0,2085.0,19.0,-1.0,
2031.0,2074.0,18.0,-2.0,
2024.0,2075.0,18.0,-2.0,
2108.0,2091.0,17.0,-2.0,
2116.0,2106.0,17.0,-2.0,
2062.0,2107.0,17.0,-1.0,
2141.0,2148.0,17.0,-1.0,
2106.0,2074.0,18.0,-1.0,
2089.0,2107.0,18.0,-1.0,
2121.0,2056.0,18.0,-1.0,
2075.0,2042.0,19.0,-1.0,
2022.0,2056.0,19.0,-1.0,
2055.0,2071.0,19.0,-1.0,
2076.0,2058.0,20.0,-1.0,
2093.0,2034.0,20.0,-1.0,
2145.0,2039.0,20.0,-1.0,
2102.0,2151.0,21.0,-1.0,
2083.0,2173.0,21.0,-1.0,
2078.0,2153.0,21.0,-1.0,
2058.0,2104.0,21.0,-1.0,
2058.0,2092.0,22.0,-1.0,
2084.0,2095.0,22.0,-1.0,
2090.0,2105.0,22.0,-1.0,
2086.0,2159.0,23.0,-1.0,
2083.0,2091.0,23.0,-1.0,
2073.0,2079.0,23.0,-1.0,
2029.0,2081.0,24.0,-1.0,
2028.0,2058.0,24.0,-1.0,
2046.0,2047.0,24.0,-1.0,
2045.0,2074.0,25.0,-1.0,
2043.0,2083.0,25.0,-1.0,
2076.0,2092.0,25.0,0.0,
2070.0,2104.0,25.0,0.0,
2066.0,2089.0,25.0,0.0,
2160.0,2110.0,25.0,0.0,
2026.0,2058.0,26.0,0.0,
2169.0,2088.0,25.0,0.0,
2130.0,2108.0,25.0,0.0,
2078.0,2097.0,25.0,0.0,
2038.0,2103.0,25.0,0.0,
2122.0,2115.0,25.0,0.0,
2120.0,2017.0,25.0,0.0,
2060.0,2052.0,25.0,-1.0,
2086.0,2132.0,24.0,-1.0,
2067.0,2136.0,24.0,-1.0,
2057.0,2073.0,24.0,-1.0,
2061.0,2088.0,23.0,-1.0,
2043.0,2078.0,23.0,-1.0,
2056.0,2086.0,23.0,-1.0,
2066.0,2075.0,22.0,-1.0,
2071.0,2087.0,22.0,-1.0,
2105.0,2082.0,21.0,-1.0,
2088.0,2054.0,21.0,-2.0,
2095.0,2068.0,21.0,-2.0,
2069.0,2126.0,20.0,-2.0,
2067.0,2142.0,20.0,-2.0,
2066.0,2109.0,20.0,-2.0,
2079.0,2150.0,19.0,-2.0,
2074.0,2150.0,19.0,-2.0,
2073.0,2120.0,19.0,-2.0,
2087.0,2114.0,18.0,-2.0,
2096.0,2098.0,18.0,-2.0,
2031.0,2070.0,18.0,-2.0,
2042.0,2079.0,18.0,-2.0,
2073.0,2074.0,18.0,-2.0,
2075.0,2073.0,18.0,-2.0,
2071.0,2088.0,18.0,-2.0,
2087.0,2097.0,18.0,-2.0,
2060.0,2104.0,17.0,-2.0,
2091.0,2119.0,17.0,-2.0,
2092.0,2094.0,0,
2071.0,2060.0,17.0,-2.0,
2037.0,2063.0,17.0,-2.0,
2071.0,2041.0,17.0,-2.0,
2093.0,2111.0,17.0,-2.0,
2074.0,2080.0,18.0,-2.0,
2116.0,2092.0,18.0,-2.0,
2156.0,2105.0,18.0,-2.0,
2115.0,2107.0,18.0,-2.0,
2096.0,2107.0,18.0,-1.0,
2044.0,2091.0,18.0,-1.0,
2046.0,2025.0,18.0,-1.0,
2033.0,2095.0,18.0,-1.0,
2016.0,2159.0,19.0,-1.0,
2043.0,2128.0,19.0,-1.0,
2063.0,2093.0,19.0,-1.0,
2113.0,2093.0,19.0,-1.0,
2140.0,2092.0,19.0,-1.0,
2076.0,2080.0,20.0,-1.0,
2076.0,2095.0,20.0,-1.0,
2053.0,2089.0,20.0,-1.0,
2045.0,2135.0,20.0,-1.0,
2035.0,2115.0,20.0,-1.0,
2056.0,2052.0,20.0,-1.0,
2045.0,2002.0,21.0,-1.0,
2086.0,2070.0,21.0,-1.0,
2102.0,2121.0,21.0,-1.0,
2140.0,2097.0,21.0,-1.0,
2068.0,2062.0,21.0,-1.0,
2098.0,2096.0,21.0,-1.0,
2082.0,2088.0,21.0,-2.0,
2098.0,2109.0,21.0,-2.0,
2072.0,2153.0,21.0,-2.0,
2068.0,2123.0,21.0,-2.0,
2070.0,2100.0,21.0,-2.0,
2071.0,2114.0,21.0,-2.0,
2112.0,2115.0,21.0,-2.0,
2134.0,2115.0,22.0,-2.0,
2123.0,2005.0,22.0,-2.0,
2093.0,2074.0,22.0,-2.0,
2085.0,2126.0,22.0,-2.0,
2071.0,2139.0,22.0,-2.0,
2044.0,2068.0,22.0,-2.0,
2063.0,2085.0,22.0,-2.0,
2033.0,2103.0,22.0,-2.0,
2052.0,2109.0,22.0,-2.0,
2070.0,2112.0,22.0,-2.0,
2074.0,2066.0,22.0,-2.0,
2094.0,2052.0,22.0,-2.0,
2092.0,2106.0,22.0,-2.0,
2063.0,2080.0,0,
2085.0,2080.0,22.0,-2.0,
2125.0,2086.0,22.0,-1.0,
2096.0,2088.0,22.0,-1.0,
2084.0,2104.0,22.0,-1.0,
2056.0,2107.0,22.0,-1.0,
2075.0,2079.0,22.0,-1.0,
2050.0,2083.0,22.0,-1.0,
2065.0,2089.0,22.0,-1.0,
2058.0,2121.0,22.0,-1.0,
2067.0,2089.0,22.0,-1.0,
2064.0,2152.0,22.0,-1.0,
2068.0,2117.0,22.0,-1.0,
2068.0,2094.0,22.0,-1.0,
2057.0,2094.0,22.0,-1.0,
2031.0,2032.0,22.0,-1.0,
2073.0,2075.0,22.0,-1.0,
2054.0,2081.0,22.0,-1.0,
2072.0,2126.0,22.0,-1.0,
2133.0,2089.0,22.0,-1.0,
2131.0,2074.0,22.0,-1.0,
2107.0,2080.0,22.0,-1.0,
2064.0,2107.0,22.0,-1.0,
2059.0,2113.0,22.0,-1.0,
2077.0,2149.0,22.0,-1.0,
2092.0,2096.0,22.0,-1.0,
2048.0,2007.0,22.0,-1.0,
2065.0,2044.0,22.0,-1.0,
2072.0,2123.0,22.0,-1.0,
2090.0,2157.0,22.0,-1.0,
2110.0,2145.0,22.0,-1.0,
2079.0,2050.0,22.0,-1.0,
2075.0,2065.0,22.0,-1.0,
2063.0,2063.0,22.0,-1.0,
2055.0,2067.0,22.0,-1.0,
2026.0,2087.0,22.0,-1.0,
2043.0,2116.0,22.0,-1.0,
2076.0,2093.0,22.0,-1.0,
2113.0,2093.0,22.0,-1.0,
2111.0,2105.0,22.0,-1.0,
2091.0,2107.0,22.0,-1.0,
2044.0,2116.0,22.0,-1.0,
2053.0,2107.0,22.0,-1.0,
2046.0,2086.0,22.0,-1.0,
2075.0,2080.0,22.0,-1.0,
2087.0,2078.0,21.0,-1.0,
2132.0,2076.0,21.0,-1.0,
2139.0,2095.0,21.0,-1.0,
2076.0,2032.0,21.0,-1.0,
2060.0,2120.0,21.0,-1.0,
2051.0,2126.0,21.0,-1.0,
2049.0,2125.0,21.0,-1.0,
2055.0,2136.0,21.0,-1.0,
2049.0,2117.0,21.0,-1.0,
2053.0,2087.0,21.0,-1.0,
2064.0,2048.0,21.0,-1.0,
2087.0,2053.0,21.0,-1.0,
2146.0,2074.0,21.0,-1.0,
2100.0,2111.0,21.0,-1.0,
2099.0,2100.0,21.0,-1.0,
2042.0,2129.0,21.0,-1.0,
2040.0,2125.0,21.0,-2.0,
2035.0,2065.0,21.0,-2.0,
2073.0,2039.0,21.0,-2.0,
2083.0,2095.0,21.0,-2.0,
2087.0,2095.0,21.0,-2.0,
2099.0,2122.0,21.0,-2.0,
2084.0,2109.0,21.0,-2.0,
2065.0,2061.0,21.0,-2.0,
2039.0,2021.0,21.0,-2.0,
2055.0,2039.0,21.0,-2.0,
2060.0,2070.0,21.0,-2.0,
2055.0,2168.0,21.0,-2.0,
2109.0,2183.0,21.0,-2.0,
2106.0,2137.0,21.0,-2.0,
2090.0,2095.0,21.0,-2.0,
2096.0,2101.0,21.0,-2.0,
2086.0,2100.0,21.0,-2.0,
2057.0,2096.0,21.0,-2.0,
2051.0,2104.0,21.0,-2.0,
2038.0,2090.0,21.0,-2.0,
2042.0,2084.0,22.0,-2.0,
2062.0,2087.0,22.0,-2.0,
2075.0,2097.0,22.0,-2.0,
2082.0,2082.0,22.0,-2.0,
2080.0,2079.0,22.0,-2.0,
2107.0,2085.0,22.0,-2.0,
2121.0,2099.0,22.0,-2.0,
2075.0,2087.0,22.0,-2.0,
2064.0,2109.0,22.0,-2.0,
2056.0,2104.0,22.0,-2.0,
2096.0,2092.0,22.0,-2.0,
2085.0,2078.0,22.0,-1.0,
2104.0,2096.0,22.0,-1.0,
2078.0,2109.0,22.0,-1.0,
2058.0,2060.0,22.0,-1.0,
2062.0,2075.0,22.0,-1.0,
2061.0,2083.0,22.0,-1.0,
2052.0,2093.0,22.0,-1.0,
2053.0,2084.0,22.0,-1.0,
2084.0,2068.0,22.0,-1.0,
2092.0,2054.0,21.0,-1.0,
2085.0,2104.0,21.0,-1.0,
2069.0,2145.0,21.0,-1.0,
2074.0,2141.0,21.0,-1.0,
2044.0,2105.0,21.0,-1.0,
2074.0,2090.0,21.0,-1.0,
2060.0,2090.0,21.0,-1.0,
2035.0,2090.0,21.0,-1.0,
2070.0,2089.0,21.0,-1.0,
2080.0,2078.0,21.0,-1.0,
2093.0,2099.0,21.0,-1.0,
2093.0,2115.0,21.0,-2.0,
2082.0,2091.0,21.0,-2.0,
2082.0,2052.0,21.0,-2.0,
2088.0,2073.0,21.0,-2.0,
2057.0,2108.0,21.0,-2.0,
2063.0,2062.0,21.0,-2.0,
2092.0,2101.0,21.0,-2.0,
2114.0,2070.0,21.0,-2.0,
2105.0,2084.0,21.0,-2.0,
2101.0,2094.0,21.0,-2.0,
2073.0,2104.0,21.0,-2.0,
2047.0,2084.0,21.0,-2.0,
2040.0,2106.0,21.0,-2.0,
2033.0,2116.0,21.0,-2.0,
2081.0,2138.0,21.0,-2.0,
2074.0,2079.0,21.0,-2.0,
2068.0,2096.0,21.0,-2.0,
2085.0,2121.0,21.0,-2.0,
2093.0,2100.0,21.0,-2.0,
2074.0,2100.0,21.0,-2.0,
2054.0,2085.0,21.0,-2.0,
2055.0,2099.0,21.0,-2.0,
2067.0,2096.0,21.0,-2.0,
2059.0,2107.0,21.0,-2.0,
2065.0,2108.0,21.0,-2.0,
2085.0,2057.0,21.0,-2.0,
2080.0,2068.0,21.0,-2.0,
2076.0,2059.0,21.0,-2.0,
2073.0,2087.0,21.0,-2.0,
2058.0,2086.0,21.0,-1.0,
2033.0,2135.0,21.0,-1.0,
2062.0,2125.0,21.0,-1.0,
2061.0,2101.0,21.0,-1.0,
2063.0,2102.0,21.0,-1.0,
2093.0,2094.0,21.0,-1.0,
2080.0,2097.0,21.0,-1.0,
2078.0,2085.0,21.0,-1.0,
2060.0,2099.0,21.0,-1.0,
2061.0,2097.0,21.0,-1.0,
2082.0,2085.0,21.0,-1.0,
2055.0,2086.0,21.0,-1.0,
2071.0,2096.0,21.0,-1.0,
2066.0,2094.0,21.0,-1.0,
2070.0,2093.0,21.0,-1.0,
2093.0,2081.0,21.0,-2.0,
2087.0,2080.0,21.0,-2.0,
2095.0,2101.0,21.0,-2.0,
2069.0,2095.0,21.0,-2.0,
2049.0,2110.0,21.0,-2.0,
2057.0,2098.0,21.0,-2.0,
2064.0,2094.0,21.0,-2.0,
2067.0,2079.0,21.0,-2.0,
2082.0,2082.0,21.0,-2.0,
2083.0,2063.0,21.0,-2.0,
2089.0,2156.0,21.0,-2.0,
2086.0,2117.0,21.0,-2.0,
2061.0,2097.0,21.0,-2.0,
2058.0,2092.0,21.0,-2.0,
2052.0,2101.0,21.0,-2.0,
2075.0,2122.0,21.0,-2.0,
2053.0,2121.0,21.0,-2.0,
2095.0,2038.0,21.0,-2.0,
2108.0,2057.0,21.0,-2.0,
2063.0,2018.0,20.0,-2.0,
2067.0,2152.0,20.0,-2.0,
2058.0,2092.0,20.0,-2.0,
2056.0,2096.0,20.0,-2.0,
2067.0,2089.0,20.0,-2.0,
2045.0,2133.0,20.0,-2.0,
2067.0,2119.0,20.0,-2.0,
2078.0,2079.0,20.0,-2.0,
2065.0,2081.0,20.0,-2.0,
2065.0,2078.0,20.0,-2.0,
2077.0,2127.0,20.0,-2.0,
2096.0,2110.0,20.0,-2.0,
2080.0,2084.0,20.0,-2.0,
2077.0,2059.0,20.0,-2.0,
2091.0,2110.0,20.0,-1.0,
2072.0,2074.0,20.0,-2.0,
2069.0,2082.0,20.0,-2.0,
2100.0,2098.0,20.0,-2.0,
2090.0,2109.0,20.0,-2.0,
2058.0,2125.0,20.0,-2.0,
2080.0,2101.0,20.0,-2.0,
2058.0,2092.0,21.0,-2.0,
2059.0,2089.0,21.0,-2.0,
2066.0,2091.0,21.0,-2.0,
2069.0,2093.0,21.0,-2.0,
2068.0,2092.0,21.0,-2.0,
2074.0,2090.0,21.0,-2.0,
2080.0,2087.0,21.0,-2.0,
2076.0,2075.0,21.0,-2.0,
2051.0,2075.0,21.0,-2.0,
2050.0,2087.0,21.0,-2.0,
2042.0,2098.0,21.0,-2.0,
2056.0,2103.0,21.0,-2.0,
2064.0,2123.0,21.0,-2.0,
2078.0,2108.0,21.0,-2.0,
2092.0,2063.0,21.0,-2.0,
2120.0,2090.0,21.0,-2.0,
2083.0,2079.0,21.0,-2.0,
2073.0,2101.0,21.0,-2.0,
2016.0,2083.0,21.0,-2.0,
2009.0,2073.0,21.0,-3.0,
2079.0,2075.0,21.0,-3.0,
2076.0,2103.0,21.0,-3.0,
2090.0,2100.0,21.0,-3.0,
2035.0,2129.0,21.0,-3.0,
2056.0,2104.0,21.0,-3.0,
2073.0,2095.0,21.0,-3.0,
2088.0,2095.0,21.0,-3.0,
2069.0,2161.0,21.0,-3.0,
2107.0,2038.0,21.0,-3.0,
2080.0,2075.0,21.0,-3.0,
2099.0,2102.0,21.0,-3.0,
2101.0,2103.0,21.0,-3.0,
2092.0,2093.0,21.0,-3.0,
2113.0,2077.0,21.0,-3.0,
2081.0,2075.0,21.0,-2.0,
2075.0,2076.0,21.0,-2.0,
2061.0,2094.0,21.0,-2.0,
2078.0,2097.0,21.0,-2.0,
2101.0,2101.0,21.0,-2.0,
2079.0,2101.0,21.0,-2.0,
2077.0,2087.0,21.0,-2.0,
2079.0,2073.0,21.0,-2.0,
2063.0,2079.0,21.0,-2.0,
2064.0,2108.0,21.0,-2.0,
2049.0,2124.0,21.0,-3.0,
2077.0,2106.0,21.0,-3.0,
2060.0,2061.0,21.0,-2.0,
2056.0,2084.0,20.0,-2.0,
2063.0,2128.0,20.0,-3.0,
2053.0,2171.0,20.0,-3.0,
2085.0,2125.0,20.0,-3.0,
2097.0,2105.0,20.0,-3.0,
2084.0,2095.0,20.0,-3.0,
2057.0,2097.0,20.0,-3.0,
2051.0,2056.0,20.0,-3.0,
2055.0,2061.0,20.0,-3.0,
2052.0,2065.0,20.0,-3.0,
2038.0,2121.0,20.0,-3.0,
2088.0,2105.0,20.0,-3.0,
2071.0,2075.0,19.0,-3.0,
2080.0,2082.0,19.0,-3.0,
2078.0,2083.0,19.0,-3.0,
2053.0,2117.0,19.0,-3.0,
2075.0,2127.0,20.0,-3.0,
2061.0,2093.0,19.0,-3.0,
2062.0,2118.0,19.0,-3.0,
2070.0,2044.0,19.0,-3.0,
2085.0,2049.0,19.0,-3.0,
2079.0,2078.0,19.0,-3.0,
2092.0,2104.0,19.0,-3.0,
2041.0,2086.0,19.0,-3.0,
2063.0,2085.0,19.0,-3.0,
2055.0,2146.0,19.0,-3.0,
2030.0,2102.0,18.0,-3.0,
2090.0,2081.0,18.0,-2.0,
2113.0,2064.0,19.0,-2.0,
2145.0,2099.0,19.0,-2.0,
2110.0,2105.0,19.0,-3.0,
2091.0,2078.0,19.0,-3.0,
2110.0,2098.0,19.0,-3.0,
2072.0,2099.0,19.0,-3.0,
2039.0,2097.0,19.0,-3.0,
2067.0,2087.0,20.0,-3.0,
2063.0,2085.0,20.0,-3.0,
2084.0,2090.0,20.0,-3.0,
2117.0,2099.0,20.0,-3.0,
2099.0,2098.0,20.0,-3.0,
2096.0,2097.0,20.0,-3.0,
2084.0,2107.0,20.0,-3.0,
2086.0,2101.0,20.0,-3.0,
2045.0,2092.0,20.0,-3.0,
2016.0,2087.0,21.0,-3.0,
2048.0,2102.0,21.0,-3.0,
2072.0,2109.0,21.0,-3.0,
2090.0,2087.0,21.0,-3.0,
2102.0,2108.0,21.0,-3.0,
2130.0,2099.0,21.0,-3.0,
2093.0,2109.0,21.0,-3.0,
2085.0,2103.0,21.0,-2.0,
2066.0,2100.0,21.0,-2.0,
2058.0,2107.0,21.0,-2.0,
2043.0,2098.0,21.0,-2.0,
2068.0,2044.0,21.0,-2.0,
2039.0,2089.0,21.0,-2.0,
2045.0,2125.0,21.0,-2.0,
2050.0,2083.0,21.0,-2.0,
2075.0,2080.0,21.0,-2.0,
2077.0,2091.0,21.0,-2.0,
2120.0,2103.0,21.0,-2.0,
2109.0,2102.0,21.0,-2.0,
2063.0,2114.0,21.0,-2.0,
2069.0,2107.0,21.0,-2.0,
2079.0,2084.0,21.0,-2.0,
2123.0,2100.0,21.0,-3.0,
2084.0,2092.0,21.0,-3.0,
2061.0,2065.0,21.0,-3.0,
2074.0,2061.0,20.0,-3.0,
2047.0,2106.0,20.0,-3.0,
2057.0,2129.0,20.0,-3.0,
2097.0,2113.0,20.0,-3.0,
2078.0,2108.0,19.0,-3.0,
2080.0,2130.0,19.0,-3.0,
2062.0,2075.0,19.0,-3.0,
2085.0,2101.0,19.0,-3.0,
2070.0,2065.0,19.0,-2.0,
2057.0,2109.0,18.0,-2.0,
2024.0,2029.0,18.0,-2.0,
2071.0,2043.0,18.0,-2.0,
2078.0,2114.0,18.0,-2.0,
2081.0,2088.0,18.0,-2.0,
2094.0,2099.0,18.0,-2.0,
2103.0,2106.0,18.0,-2.0,
2091.0,2115.0,18.0,-2.0,
2071.0,2115.0,18.0,-2.0,
2063.0,2101.0,18.0,-2.0,
2043.0,2088.0,19.0,-2.0,
2046.0,2089.0,19.0,-3.0,
2059.0,2093.0,19.0,-3.0,
2056.0,2099.0,19.0,-3.0,
2091.0,2107.0,19.0,-3.0,
2101.0,2102.0,19.0,-3.0,
2097.0,2108.0,19.0,-3.0,
2065.0,2080.0,19.0,-2.0,
2047.0,2063.0,19.0,-2.0,
2057.0,2087.0,19.0,-2.0,
2030.0,2121.0,19.0,-2.0,
2033.0,2054.0,19.0,-2.0,
2043.0,2105.0,20.0,-2.0,
2055.0,2097.0,20.0,-2.0,
2059.0,2100.0,20.0,-2.0,
2076.0,2110.0,20.0,-2.0,
2092.0,2102.0,20.0,-2.0,
2095.0,2091.0,21.0,-3.0,
2172.0,2069.0,21.0,-3.0,
2106.0,2055.0,21.0,-3.0,
2073.0,2064.0,21.0,-3.0,
2085.0,2077.0,21.0,-3.0,
2104.0,2047.0,21.0,-3.0,
2137.0,2066.0,21.0,-3.0,
2100.0,2120.0,21.0,-3.0,
2085.0,2169.0,21.0,-3.0,
2076.0,2123.0,21.0,-3.0,
2067.0,2112.0,21.0,-3.0,
2036.0,2098.0,21.0,-3.0,
2036.0,2102.0,21.0,-3.0,
2057.0,2100.0,21.0,-3.0,
2080.0,2104.0,21.0,-3.0,
2082.0,2102.0,21.0,-3.0,
2073.0,2114.0,21.0,-3.0,
2053.0,2110.0,21.0,-3.0,
2048.0,2103.0,21.0,-3.0,
2048.0,2090.0,21.0,-3.0,
2029.0,2061.0,21.0,-3.0,
2078.0,2071.0,21.0,-3.0,
2080.0,2094.0,21.0,-3.0,
2070.0,2106.0,21.0,-3.0,
2063.0,2118.0,20.0,-3.0,
2092.0,2058.0,20.0,-3.0,
2121.0,2062.0,20.0,-3.0,
2066.0,2063.0,20.0,-3.0,
2115.0,2070.0,20.0,-3.0,
2092.0,2111.0,20.0,-3.0,
2070.0,2130.0,20.0,-3.0,
2105.0,2113.0,19.0,-3.0,
2121.0,2081.0,19.0,-3.0,
2103.0,2090.0,19.0,-2.0,
2071.0,2147.0,19.0,-2.0,
2046.0,2122.0,19.0,-2.0,
2036.0,2117.0,19.0,-2.0,
2078.0,2082.0,19.0,-2.0,
2115.0,2094.0,19.0,-2.0,
2069.0,2086.0,20.0,-2.0,
2058.0,2096.0,20.0,-2.0,
2057.0,2090.0,20.0,-2.0,
2099.0,2089.0,20.0,-3.0,
2104.0,2081.0,20.0,-3.0,
2105.0,2092.0,20.0,-3.0,
2066.0,2135.0,20.0,-3.0,
2052.0,2137.0,20.0,-3.0,
2049.0,2060.0,20.0,-3.0,
2041.0,2062.0,20.0,-3.0,
2069.0,2102.0,20.0,-3.0,
2053.0,2089.0,21.0,-3.0,
2070.0,2087.0,21.0,-3.0,
2081.0,2111.0,21.0,-3.0,
2082.0,2118.0,21.0,-3.0,
2094.0,2108.0,21.0,-3.0,
2070.0,2103.0,21.0,-3.0,
2037.0,2087.0,21.0,-3.0,
2080.0,2062.0,21.0,-3.0,
2099.0,2049.0,21.0,-3.0,
2104.0,2066.0,21.0,-3.0,
2146.0,2138.0,21.0,-3.0,
2101.0,2133.0,21.0,-3.0,
2112.0,2118.0,21.0,-3.0,
2078.0,2099.0,21.0,-3.0,
2069.0,2069.0,21.0,-3.0,
2083.0,2042.0,21.0,-3.0,
2064.0,2082.0,20.0,-3.0,
2070.0,2090.0,20.0,-3.0,
2051.0,2113.0,20.0,-3.0,
2048.0,2125.0,20.0,-3.0,
2100.0,2102.0,19.0,-3.0,
2104.0,2092.0,19.0,-3.0,
2059.0,2092.0,19.0,-3.0,
2032.0,2083.0,19.0,-3.0,
2107.0,2063.0,18.0,-2.0,
2068.0,2089.0,18.0,-2.0,
2056.0,2085.0,18.0,-2.0,
2102.0,2087.0,18.0,-2.0,
2142.0,2094.0,18.0,-2.0,
2076.0,2095.0,18.0,-2.0,
2108.0,2100.0,17.0,-2.0,
2059.0,2099.0,17.0,-2.0,
2050.0,2110.0,17.0,-2.0,
2033.0,2094.0,17.0,-2.0,
2038.0,2088.0,17.0,-2.0,
2084.0,2081.0,17.0,-2.0,
2104.0,2093.0,17.0,-2.0,
2130.0,2105.0,17.0,-2.0,
2087.0,2112.0,18.0,-2.0,
2072.0,2107.0,18.0,-2.0,
2048.0,2094.0,18.0,-2.0,
2032.0,2092.0,18.0,-2.0,
2106.0,2093.0,19.0,-2.0,
2077.0,2111.0,19.0,-2.0,
2064.0,2117.0,19.0,-2.0,
2077.0,2122.0,19.0,-2.0,
2088.0,2043.0,20.0,-2.0,
2068.0,2080.0,20.0,-2.0,
2060.0,2101.0,20.0,-2.0,
2073.0,2107.0,20.0,-3.0,
2058.0,2098.0,21.0,-3.0,
2051.0,2091.0,21.0,-3.0,
2040.0,2098.0,21.0,-3.0,
2050.0,2077.0,21.0,-3.0,
2127.0,2086.0,21.0,-3.0,
2145.0,2095.0,21.0,-3.0,
2092.0,2096.0,21.0,-3.0,
2074.0,2101.0,21.0,-3.0,
2095.0,2092.0,22.0,-3.0,
2078.0,2094.0,22.0,-3.0,
2043.0,2103.0,22.0,-3.0,
2027.0,2047.0,22.0,-3.0,
2131.0,2056.0,22.0,-3.0,
2103.0,2076.0,22.0,-4.0,
2134.0,2104.0,21.0,-4.0,
2120.0,2112.0,21.0,-4.0,
2107.0,2072.0,21.0,-4.0,
2082.0,2076.0,21.0,-4.0,
2022.0,2093.0,21.0,-4.0,
2045.0,2129.0,21.0,-4.0,
2053.0,2113.0,21.0,-4.0,
2058.0,2104.0,20.0,-4.0,
2065.0,2131.0,20.0,-4.0,
2078.0,2111.0,20.0,-4.0,
2092.0,2092.0,20.0,-4.0,
2096.0,2099.0,19.0,-4.0,
2081.0,2096.0,19.0,-4.0,
2066.0,2094.0,19.0,-3.0,
2028.0,2104.0,19.0,-3.0,
2062.0,2088.0,19.0,-3.0,
2062.0,2084.0,19.0,-3.0,
2034.0,2084.0,19.0,-3.0,
2096.0,2092.0,19.0,-3.0,
2117.0,2112.0,19.0,-3.0,
2155.0,2132.0,18.0,-3.0,
2073.0,2118.0,18.0,-3.0,
2050.0,2031.0,18.0,-3.0,
2037.0,2066.0,18.0,-3.0,
2060.0,2089.0,18.0,-3.0,
2069.0,2089.0,18.0,-3.0,
2104.0,2095.0,18.0,-3.0,
2079.0,2090.0,18.0,-3.0,
2077.0,2092.0,18.0,-3.0,
2083.0,2105.0,18.0,-3.0,
2082.0,2109.0,18.0,-3.0,
2095.0,2085.0,18.0,-3.0,
2049.0,2057.0,18.0,-3.0,
2038.0,2077.0,18.0,-3.0,
2063.0,2075.0,18.0,-3.0,
2070.0,2094.0,18.0,-3.0,
2091.0,2081.0,19.0,-3.0,
2066.0,2108.0,19.0,-3.0,
2119.0,2108.0,19.0,-3.0,
2119.0,2114.0,19.0,-3.0,
2060.0,2118.0,19.0,-3.0,
2098.0,2101.0,19.0,-3.0,
2098.0,2084.0,19.0,-3.0,
2074.0,2079.0,19.0,-3.0,
2114.0,2115.0,19.0,-3.0,
2134.0,2137.0,19.0,-3.0,
2097.0,2088.0,19.0,-3.0,
2082.0,2059.0,19.0,-3.0,
2063.0,2031.0,20.0,-3.0,
2041.0,2131.0,20.0,-3.0,
2049.0,2141.0,20.0,-3.0,
2058.0,2105.0,20.0,-3.0,
2056.0,2087.0,20.0,-3.0,
2080.0,2102.0,20.0,-3.0,
2097.0,2104.0,20.0,-3.0,
2096.0,2094.0,20.0,-3.0,
2088.0,2100.0,19.0,-3.0,
2061.0,2094.0,19.0,-2.0,
2051.0,2088.0,19.0,-2.0,
2061.0,2079.0,19.0,-2.0,
2106.0,2084.0,19.0,-2.0,
2088.0,2097.0,19.0,-2.0,
2065.0,2160.0,19.0,-2.0,
2056.0,2161.0,19.0,-2.0,
2044.0,2074.0,19.0,-2.0,
2105.0,2036.0,19.0,-2.0,
2143.0,2033.0,19.0,-2.0,
2159.0,2083.0,19.0,-2.0,
2073.0,2072.0,19.0,-2.0,
2043.0,2084.0,19.0,-2.0,
2008.0,2099.0,19.0,-2.0,
2034.0,2043.0,19.0,-2.0,
2093.0,2100.0,19.0,-2.0,
2114.0,2068.0,19.0,-2.0,
2117.0,2095.0,19.0,-2.0,
2119.0,2078.0,19.0,-2.0,
2090.0,2094.0,19.0,-2.0,
2023.0,2079.0,19.0,-2.0,
2058.0,2049.0,19.0,-2.0,
2060.0,2083.0,19.0,-2.0,
2083.0,2191.0,19.0,-2.0,
2095.0,2189.0,19.0,-2.0,
2121.0,2097.0,19.0,-2.0,
2127.0,2078.0,19.0,-2.0,
2040.0,2067.0,19.0,-2.0,
2048.0,2090.0,19.0,-2.0,
2068.0,2096.0,19.0,-3.0,
2035.0,2068.0,19.0,-3.0,
2045.0,2090.0,19.0,-3.0,
2010.0,2065.0,19.0,-3.0,
1952.0,2095.0,19.0,-3.0,
2028.0,2096.0,19.0,-3.0,
2093.0,2090.0,19.0,-3.0,
2245.0,2110.0,18.0,-3.0,
2148.0,2109.0,18.0,-3.0,
2096.0,2064.0,18.0,-3.0,
2057.0,2038.0,18.0,-3.0,
2059.0,2079.0,18.0,-3.0,
1998.0,2160.0,18.0,-3.0,
2034.0,2141.0,18.0,-3.0,
2082.0,2129.0,18.0,-3.0,
2097.0,2023.0,17.0,-3.0,
2156.0,2086.0,17.0,-3.0,
2141.0,2080.0,17.0,-3.0,
2150.0,2181.0,17.0,-3.0,
2142.0,2145.0,17.0,-3.0,
2082.0,2077.0,17.0,-3.0,
2005.0,2049.0,17.0,-3.0,
2007.0,2058.0,17.0,-3.0,
2118.0,2038.0,17.0,-3.0,
2084.0,2078.0,17.0,-3.0,
2075.0,2162.0,17.0,-3.0,
2064.0,2162.0,17.0,-3.0,
2054.0,2125.0,17.0,-3.0,
2016.0,2099.0,18.0,-3.0,
2004.0,2096.0,18.0,-3.0,
2065.0,2138.0,18.0,-3.0,
2062.0,2144.0,18.0,-3.0,
2059.0,2135.0,18.0,-3.0,
2101.0,2010.0,18.0,-3.0,
2059.0,2061.0,18.0,-3.0,
2031.0,2075.0,18.0,-3.0,
2106.0,2156.0,18.0,-3.0,
2058.0,2229.0,19.0,-3.0,
2064.0,2040.0,19.0,-3.0,
2020.0,2019.0,19.0,-3.0,
2022.0,2075.0,19.0,-3.0,
2042.0,2082.0,19.0,-2.0,
2093.0,2079.0,19.0,-2.0,
1980.0,1980.0,19.0,-2.0,
2007.0,1952.0,19.0,-2.0,
2091.0,2055.0,19.0,-2.0,
2049.0,2073.0,19.0,-2.0,
2145.0,2093.0,18.0,-2.0,
2246.0,2092.0,18.0,-2.0,
2158.0,2108.0,18.0,-2.0,
2099.0,2133.0,18.0,-2.0,
2133.0,2189.0,18.0,-2.0,
2110.0,2180.0,18.0,-2.0,
2107.0,2048.0,18.0,-2.0,
2102.0,2155.0,18.0,-2.0,
2054.0,2184.0,18.0,-2.0,
2033.0,2059.0,18.0,-2.0,
2038.0,2084.0,19.0,-2.0,
2051.0,2138.0,19.0,-2.0,
2074.0,2128.0,19.0,-2.0,
2066.0,2067.0,20.0,-2.0,
2057.0,2087.0,20.0,-2.0,
2065.0,2220.0,20.0,-2.0,
2013.0,2108.0,21.0,-2.0,
2021.0,1966.0,21.0,-2.0,
2059.0,2092.0,21.0,-2.0,
2072.0,2104.0,22.0,-2.0,
2107.0,1987.0,22.0,-2.0,
2102.0,2067.0,22.0,-2.0,
2064.0,2052.0,22.0,-2.0,
2106.0,2080.0,22.0,-2.0,
2108.0,2168.0,23.0,-2.0,
2067.0,2173.0,23.0,-2.0,
2084.0,2179.0,23.0,-2.0,
1992.0,2161.0,23.0,-2.0,
2022.0,1949.0,23.0,-2.0,
2111.0,2124.0,23.0,-2.0,
2155.0,2108.0,23.0,-2.0,
2099.0,2070.0,23.0,-2.0,
2060.0,2213.0,24.0,-2.0,
2066.0,1990.0,24.0,-2.0,
1980.0,1929.0,24.0,-2.0,
2020.0,2025.0,24.0,-2.0,
2149.0,2131.0,24.0,-2.0,
2127.0,2138.0,24.0,-1.0,
2120.0,2128.0,24.0,-1.0,
2125.0,2094.0,24.0,-1.0,
2016.0,2034.0,25.0,-1.0,
2032.0,2169.0,25.0,-1.0,
2109.0,2212.0,0,
2117.0,1965.0,25.0,-1.0,
2067.0,2012.0,25.0,-1.0,
2054.0,2149.0,25.0,0.0,
2040.0,2072.0,25.0,0.0,
2093.0,2023.0,25.0,0.0,
2067.0,2115.0,24.0,0.0,
2085.0,2043.0,24.0,0.0,
2039.0,2056.0,24.0,-1.0,
2039.0,2096.0,24.0,-1.0,
2052.0,2092.0,25.0,-1.0,
2056.0,2079.0,26.0,-1.0,
2063.0,2176.0,26.0,-1.0,
2114.0,2261.0,27.0,-1.0,
2085.0,2203.0,28.0,-1.0,
2150.0,2189.0,30.0,-1.0,
2107.0,2184.0,32.0,-1.0,
2041.0,1945.0,33.0,0.0,
2097.0,1976.0,35.0,0.0,
2131.0,2044.0,36.0,0.0,
2103.0,2120.0,36.0,0.0,
2079.0,2090.0,37.0,0.0,
2100.0,2166.0,38.0,0.0,
2047.0,1995.0,39.0,-1.0,
2008.0,2043.0,39.0,-1.0,
2091.0,2250.0,40.0,-1.0,
1981.0,2061.0,40.0,-1.0,
2049.0,1975.0,41.0,-1.0,
2046.0,2053.0,41.0,-1.0,
2112.0,2092.0,42.0,-1.0,
2122.0,2132.0,42.0,-1.0,
2141.0,2172.0,43.0,-1.0,
2106.0,2298.0,43.0,-1.0,
2027.0,2002.0,44.0,-1.0,
2034.0,2040.0,44.0,-1.0,
2110.0,2015.0,45.0,-1.0,
2012.0,2031.0,45.0,-1.0,
2046.0,2225.0,46.0,-1.0,
1956.0,2181.0,46.0,-1.0,
2163.0,2080.0,46.0,-1.0,
2114.0,1881.0,47.0,-1.0,
2123.0,2089.0,47.0,-1.0,
2148.0,2045.0,47.0,-1.0,
2074.0,2033.0,47.0,-1.0,
2047.0,2027.0,48.0,-1.0,
1950.0,2153.0,48.0,-2.0,
2058.0,2319.0,48.0,-2.0,
2096.0,2031.0,48.0,-2.0,
2074.0,1953.0,49.0,-2.0,
2083.0,2082.0,49.0,-2.0,
2192.0,2394.0,49.0,-2.0,
2013.0,1874.0,50.0,-2.0,
1941.0,1988.0,50.0,-2.0,
2151.0,2407.0,51.0,-2.0,
2022.0,2012.0,51.0,-2.0,
2071.0,1893.0,52.0,-2.0,
2087.0,1963.0,52.0,-2.0,
2117.0,2087.0,52.0,-2.0,
2060.0,2214.0,52.0,-2.0,
2034.0,2305.0,53.0,-2.0,
2194.0,2184.0,53.0,-2.0,
1989.0,1731.0,53.0,-2.0,
2007.0,2022.0,54.0,-3.0,
2040.0,2146.0,54.0,-3.0,
2078.0,2164.0,55.0,-3.0,
2042.0,2128.0,55.0,-3.0,
2086.0,2200.0,56.0,-3.0,
1981.0,2160.0,56.0,-4.0,
2032.0,2165.0,57.0,-4.0,
2108.0,1944.0,57.0,-3.0,
2101.0,2053.0,58.0,-3.0,
1995.0,2085.0,59.0,-4.0,
2109.0,2168.0,59.0,-4.0,
2098.0,2210.0,60.0,-4.0,
2117.0,2139.0,60.0,-4.0,
2022.0,1871.0,61.0,-4.0,
2209.0,1983.0,61.0,-3.0,
2144.0,2196.0,62.0,-3.0,
2079.0,2038.0,62.0,-4.0,
2148.0,2111.0,63.0,-4.0,
2011.0,2079.0,63.0,-4.0,
2028.0,2196.0,63.0,-4.0,
2092.0,2225.0,64.0,-4.0,
1998.0,2035.0,64.0,-4.0,
1936.0,2008.0,65.0,-4.0,
2059.0,2078.0,65.0,-4.0,
2103.0,2007.0,65.0,-4.0,
2060.0,2149.0,65.0,-4.0,
2111.0,2074.0,66.0,-4.0,
2067.0,2133.0,66.0,-4.0,
2085.0,2092.0,66.0,-4.0,
2088.0,2215.0,67.0,-4.0,
2112.0,2215.0,67.0,-4.0,
2051.0,1884.0,67.0,-4.0,
2037.0,1978.0,68.0,-4.0,
2092.0,2104.0,68.0,-4.0,
2094.0,2145.0,68.0,-4.0,
2087.0,2226.0,68.0,-4.0,
2050.0,2303.0,68.0,-4.0,
2042.0,2117.0,68.0,-4.0,
1997.0,1801.0,68.0,-4.0,
2118.0,1980.0,69.0,-4.0,
2079.0,1991.0,69.0,-4.0,
2128.0,2125.0,69.0,-4.0,
2138.0,2154.0,69.0,-4.0,
2096.0,2170.0,69.0,-4.0,
1996.0,2097.0,69.0,-4.0,
2083.0,2094.0,70.0,-5.0,
2087.0,2090.0,70.0,-4.0,
2064.0,2145.0,70.0,-4.0,
2180.0,2273.0,70.0,-3.0,
1988.0,2011.0,70.0,-3.0,
2010.0,2093.0,70.0,-3.0,
2052.0,2157.0,71.0,-3.0,
2116.0,1842.0,70.0,-3.0,
2079.0,2056.0,71.0,-3.0,
2072.0,2412.0,71.0,-3.0,
2142.0,2005.0,71.0,-3.0,
2059.0,1962.0,71.0,-4.0,
2054.0,2164.0,70.0,-5.0,
2103.0,1920.0,70.0,-4.0,
2071.0,2186.0,71.0,-4.0,
2053.0,2056.0,70.0,-4.0,
2088.0,2438.0,70.0,-4.0,
2095.0,1940.0,71.0,-4.0,
2118.0,1952.0,70.0,-4.0,
2093.0,2038.0,71.0,-4.0,
2112.0,2064.0,71.0,-4.0,
2133.0,2177.0,71.0,-3.0,
2081.0,2441.0,72.0,-3.0,
2126.0,2136.0,71.0,-5.0,
1959.0,1650.0,71.0,-7.0,
2092.0,1879.0,72.0,-6.0,
2151.0,2264.0,72.0,-5.0,
2086.0,2231.0,73.0,-5.0,
1971.0,1843.0,73.0,-5.0,
2039.0,2099.0,73.0,-6.0,
1983.0,2241.0,73.0,-6.0,
2147.0,2135.0,73.0,-6.0,
2134.0,2236.0,73.0,-6.0,
2171.0,2495.0,73.0,-5.0,
1828.0,1748.0,74.0,-3.0,
2100.0,1921.0,74.0,-5.0,
2096.0,2017.0,74.0,-6.0,
2108.0,2333.0,74.0,-6.0,
2076.0,2144.0,75.0,-7.0,
1946.0,2133.0,74.0,-7.0,
2144.0,2041.0,75.0,-6.0,
2137.0,2043.0,75.0,-6.0,
2137.0,2210.0,75.0,-6.0,
2011.0,2057.0,75.0,-6.0,
2041.0,2105.0,75.0,-6.0,
2127.0,2229.0,75.0,-7.0,
2088.0,2033.0,75.0,-7.0,
2084.0,2146.0,75.0,-6.0,
1997.0,2038.0,76.0,-6.0,
2133.0,2078.0,76.0,-6.0,
2108.0,2062.0,76.0,-7.0,
2207.0,2099.0,76.0,-7.0,
2078.0,2084.0,77.0,-7.0,
1962.0,2116.0,77.0,-7.0,
1963.0,1901.0,77.0,-6.0,
2074.0,2069.0,78.0,-6.0,
2236.0,2274.0,78.0,-8.0,
2090.0,2237.0,78.0,-8.0,
2063.0,1767.0,78.0,-6.0,
2092.0,1990.0,78.0,-5.0,
2084.0,2236.0,78.0,-6.0,
1955.0,2214.0,78.0,-6.0,
1961.0,2346.0,78.0,-6.0,
2145.0,1876.0,79.0,-6.0,
2216.0,1994.0,79.0,-6.0,
2122.0,2135.0,79.0,-6.0,
2090.0,2105.0,79.0,-4.0,
2012.0,1960.0,80.0,-5.0,
2060.0,2106.0,79.0,-6.0,
2043.0,2103.0,80.0,-6.0,
1994.0,1942.0,80.0,-6.0,
2059.0,2041.0,80.0,-6.0,
2097.0,2181.0,80.0,-6.0,
2188.0,2489.0,80.0,-6.0,
2003.0,2096.0,80.0,-6.0,
2033.0,1945.0,80.0,-6.0,
2127.0,1868.0,80.0,-6.0,
2152.0,2011.0,80.0,-6.0,
1980.0,2161.0,80.0,-6.0,
1990.0,2440.0,80.0,-6.0,
2160.0,1856.0,80.0,-6.0,
2180.0,1989.0,80.0,-6.0,
2195.0,2490.0,80.0,-6.0,
2040.0,1778.0,81.0,-6.0,
2113.0,2037.0,81.0,-6.0,
2119.0,2197.0,81.0,-6.0,
2168.0,2440.0,81.0,-6.0,
1962.0,2254.0,81.0,-6.0,
1836.0,1675.0,82.0,-6.0,
2129.0,1947.0,82.0,-6.0,
2008.0,1997.0,82.0,-6.0,
1968.0,2206.0,82.0,-5.0,
2121.0,2029.0,82.0,-6.0,
2191.0,2047.0,82.0,-6.0,
1970.0,2463.0,83.0,-6.0,
1927.0,2073.0,83.0,-6.0,
1909.0,2071.0,83.0,-6.0,
2078.0,2013.0,83.0,-8.0,
2412.0,2010.0,83.0,-6.0,
2211.0,1999.0,83.0,-6.0,
2059.0,1953.0,83.0,-6.0,
2124.0,2023.0,83.0,-6.0,
1994.0,2114.0,83.0,-6.0,
2099.0,2267.0,83.0,-6.0,
1996.0,2516.0,83.0,-6.0,
1907.0,1965.0,83.0,-6.0,
2294.0,1934.0,83.0,-6.0,
2117.0,2109.0,83.0,-4.0,
2146.0,1932.0,83.0,-6.0,
2064.0,2222.0,82.0,-7.0,
2095.0,2003.0,82.0,-6.0,
2037.0,2357.0,82.0,-6.0,
1915.0,2164.0,82.0,-6.0,
1914.0,1900.0,82.0,-6.0,
2114.0,2076.0,82.0,-6.0,
2141.0,2122.0,82.0,-6.0,
2189.0,1998.0,82.0,-6.0,
2158.0,2108.0,82.0,-6.0,
2097.0,2137.0,82.0,-6.0,
2087.0,2104.0,82.0,-6.0,
2125.0,2611.0,82.0,-6.0,
1914.0,2293.0,81.0,-6.0,
1996.0,1567.0,81.0,-6.0,
2111.0,1929.0,81.0,-6.0,
2138.0,2144.0,81.0,-6.0,
2020.0,2019.0,81.0,-6.0,
2009.0,2328.0,81.0,-6.0,
1764.0,2429.0,81.0,-6.0,
1996.0,1906.0,81.0,-7.0,
2190.0,1598.0,80.0,-8.0,
2284.0,1930.0,80.0,-6.0,
2131.0,2095.0,81.0,-6.0,
2130.0,2343.0,81.0,-6.0,
2014.0,2200.0,80.0,-6.0,
2060.0,1969.0,81.0,-6.0,
2263.0,2203.0,81.0,-7.0,
2002.0,1972.0,81.0,-6.0,
2152.0,2092.0,82.0,-6.0,
2041.0,2345.0,82.0,-6.0,
1853.0,1853.0,83.0,-5.0,
1897.0,2165.0,83.0,-7.0,
2145.0,2176.0,83.0,-7.0,
1964.0,2173.0,83.0,-7.0,
2156.0,1882.0,83.0,-7.0,
2231.0,2030.0,84.0,-7.0,
2156.0,2034.0,84.0,-7.0,
1981.0,2608.0,84.0,-7.0,
1938.0,1940.0,84.0,-7.0,
2157.0,1729.0,84.0,-7.0,
2173.0,2014.0,84.0,-7.0,
2116.0,2071.0,84.0,-7.0,
2211.0,2005.0,84.0,-7.0,
2095.0,2208.0,84.0,-7.0,
2042.0,2188.0,84.0,-7.0,
2017.0,2189.0,84.0,-7.0,
1934.0,2150.0,84.0,-7.0,
2019.0,2133.0,84.0,-7.0,
2046.0,2064.0,84.0,-7.0,
2042.0,2304.0,84.0,-7.0,
2102.0,1905.0,84.0,-7.0,
2026.0,2019.0,84.0,-7.0,
2179.0,2063.0,84.0,-7.0,
2034.0,2122.0,84.0,-7.0,
1991.0,2146.0,84.0,-7.0,
2092.0,2127.0,84.0,-7.0,
2153.0,1990.0,84.0,-7.0,
2127.0,2102.0,83.0,-7.0,
2132.0,2087.0,83.0,-7.0,
2049.0,2130.0,83.0,-7.0,
2078.0,2112.0,83.0,-7.0,
1901.0,1903.0,83.0,-7.0,
2186.0,1941.0,82.0,-7.0,
2122.0,2114.0,82.0,-7.0,
2149.0,2155.0,82.0,-7.0,
2154.0,2358.0,82.0,-6.0,
2068.0,2172.0,81.0,-7.0,
1975.0,2240.0,81.0,-6.0,
2145.0,1973.0,81.0,-6.0,
2100.0,2061.0,81.0,-6.0,
2088.0,1855.0,80.0,-6.0,
2132.0,2102.0,80.0,-6.0,
1975.0,2106.0,80.0,-6.0,
2065.0,2050.0,80.0,-6.0,
2110.0,2386.0,80.0,-7.0,
2086.0,2078.0,80.0,-7.0,
1956.0,2037.0,81.0,-7.0,
2018.0,1838.0,81.0,-7.0,
2043.0,1982.0,81.0,-7.0,
2181.0,2170.0,81.0,-7.0,
2185.0,2383.0,81.0,-7.0,
1805.0,1897.0,82.0,-7.0,
2059.0,2136.0,82.0,-7.0,
1992.0,2255.0,82.0,-7.0,
2078.0,2040.0,82.0,-7.0,
2088.0,2351.0,82.0,-7.0,
2053.0,1991.0,83.0,-7.0,
2102.0,1998.0,83.0,-7.0,
2087.0,2187.0,83.0,-7.0,
2049.0,2071.0,83.0,-7.0,
2137.0,1956.0,83.0,-7.0,
1940.0,2101.0,83.0,-7.0,
2009.0,2081.0,83.0,-7.0,
2186.0,2220.0,83.0,-7.0,
2110.0,2145.0,83.0,-7.0,
2088.0,2014.0,83.0,-7.0,
2141.0,1974.0,83.0,-7.0,
2293.0,2036.0,83.0,-7.0,
2007.0,1984.0,83.0,-7.0,
2113.0,2072.0,83.0,-7.0,
2065.0,2086.0,83.0,-7.0,
2132.0,2375.0,83.0,-7.0,
2085.0,2165.0,83.0,-7.0,
1949.0,1861.0,83.0,-7.0,
2078.0,1956.0,83.0,-7.0,
2124.0,2082.0,83.0,-7.0,
2038.0,2256.0,83.0,-7.0,
2117.0,2074.0,83.0,-7.0,
2084.0,2076.0,83.0,-7.0,
2053.0,2152.0,83.0,-7.0,
2112.0,1967.0,82.0,-7.0,
2102.0,2007.0,82.0,-7.0,
2127.0,2276.0,82.0,-7.0,
2032.0,2099.0,82.0,-7.0,
2068.0,2031.0,82.0,-7.0,
2026.0,2156.0,82.0,-7.0,
2064.0,2082.0,82.0,-7.0,
2136.0,2329.0,82.0,-7.0,
2148.0,1927.0,82.0,-7.0,
2058.0,2104.0,81.0,-7.0,
2092.0,1940.0,81.0,-7.0,
2116.0,1956.0,81.0,-7.0,
2008.0,2158.0,81.0,-7.0,
2136.0,2230.0,81.0,-7.0,
2182.0,2313.0,81.0,-7.0,
1839.0,2219.0,81.0,-7.0,
1946.0,1710.0,81.0,-7.0,
2164.0,1894.0,81.0,-7.0,
2068.0,2107.0,81.0,-7.0,
2042.0,2199.0,81.0,-7.0,
2170.0,2129.0,81.0,-7.0,
2093.0,2070.0,81.0,-8.0,
2132.0,2016.0,81.0,-8.0,
2055.0,2062.0,81.0,-8.0,
2131.0,2118.0,81.0,-7.0,
2082.0,2374.0,81.0,-7.0,
2085.0,2272.0,81.0,-7.0,
1921.0,2056.0,81.0,-7.0,
2080.0,1751.0,81.0,-8.0,
2094.0,2072.0,82.0,-8.0,
2065.0,2281.0,82.0,-8.0,
2071.0,2185.0,82.0,-8.0,
2126.0,1925.0,82.0,-8.0,
2054.0,1962.0,82.0,-8.0,
1985.0,2235.0,82.0,-8.0,
1971.0,2113.0,83.0,-8.0,
2152.0,2067.0,83.0,-8.0,
2105.0,2228.0,83.0,-8.0,
2150.0,2227.0,83.0,-8.0,
2034.0,2160.0,83.0,-8.0,
2006.0,2031.0,83.0,-7.0,
2062.0,2062.0,83.0,-7.0,
2104.0,2109.0,83.0,-7.0,
2109.0,1974.0,0,
1984.0,1985.0,83.0,-7.0,
2110.0,1987.0,83.0,-7.0,
2115.0,2092.0,83.0,-7.0,
2154.0,2163.0,83.0,-7.0,
2121.0,2412.0,83.0,-7.0,
2041.0,2033.0,83.0,-7.0,
2028.0,1981.0,83.0,-7.0,
1865.0,2283.0,82.0,-7.0,
2085.0,2084.0,82.0,-7.0,
2151.0,2052.0,82.0,-7.0,
2070.0,1950.0,82.0,-7.0,
2129.0,1993.0,82.0,-7.0,
2179.0,2149.0,82.0,-7.0,
2118.0,2060.0,82.0,-7.0,
2077.0,2058.0,82.0,-7.0,
1971.0,2219.0,82.0,-7.0,
2047.0,2626.0,82.0,-7.0,
1907.0,1831.0,82.0,-7.0,
2105.0,1522.0,82.0,-7.0,
2165.0,1996.0,82.0,-7.0,
2169.0,2133.0,82.0,-7.0,
2098.0,2176.0,82.0,-7.0,
2084.0,2152.0,82.0,-7.0,
1993.0,2149.0,82.0,-7.0,
1976.0,2137.0,82.0,-7.0,
2047.0,1993.0,82.0,-7.0,
1953.0,1993.0,81.0,-7.0,
2127.0,2124.0,81.0,-7.0,
2091.0,2361.0,81.0,-7.0,
2134.0,1983.0,81.0,-7.0,
2122.0,2110.0,81.0,-7.0,
2067.0,2168.0,82.0,-7.0,
2074.0,2065.0,82.0,-7.0,
2162.0,2158.0,82.0,-7.0,
2044.0,2171.0,82.0,-7.0,
2034.0,1977.0,82.0,-7.0,
2071.0,1949.0,82.0,-7.0,
2081.0,2155.0,82.0,-7.0,
2147.0,2272.0,82.0,-7.0,
2022.0,1997.0,82.0,-7.0,
2069.0,2139.0,82.0,-7.0,
2049.0,2105.0,82.0,-7.0,
2111.0,2320.0,82.0,-7.0,
1964.0,1938.0,82.0,-7.0,
2044.0,2070.0,82.0,-7.0,
2047.0,2082.0,82.0,-7.0,
2128.0,2064.0,82.0,-7.0,
2069.0,2181.0,82.0,-7.0,
2120.0,2304.0,82.0,-7.0,
2013.0,2148.0,82.0,-7.0,
2088.0,2117.0,82.0,-7.0,
2068.0,1970.0,82.0,-7.0,
2103.0,2104.0,82.0,-7.0,
2071.0,2142.0,82.0,-7.0,
2070.0,2152.0,82.0,-7.0,
2052.0,2078.0,82.0,-7.0,
2058.0,2016.0,82.0,-7.0,
2021.0,2081.0,82.0,-7.0,
2178.0,2227.0,82.0,-7.0,
1959.0,2173.0,82.0,-7.0,
2055.0,1919.0,82.0,-7.0,
2132.0,1958.0,82.0,-7.0,
2133.0,2147.0,82.0,-7.0,
2052.0,2064.0,82.0,-7.0,
2060.0,2107.0,82.0,-7.0,
2141.0,2153.0,82.0,-7.0,
2099.0,1993.0,81.0,-7.0,
2086.0,2101.0,81.0,-7.0,
2128.0,2164.0,81.0,-7.0,
1985.0,2202.0,81.0,-7.0,
2054.0,1969.0,81.0,-7.0,
2023.0,2123.0,81.0,-7.0,
2059.0,2068.0,81.0,-7.0,
2010.0,2153.0,81.0,-7.0,
2189.0,2292.0,81.0,-7.0,
2138.0,2067.0,81.0,-7.0,
1965.0,1849.0,81.0,-7.0,
2037.0,2001.0,81.0,-7.0,
2053.0,2398.0,81.0,-7.0,
2072.0,1931.0,81.0,-7.0,
2087.0,2009.0,81.0,-7.0,
2094.0,2034.0,81.0,-7.0,
2207.0,2297.0,81.0,-7.0,
2119.0,2067.0,81.0,-7.0,
2085.0,1893.0,81.0,-7.0,
2024.0,1939.0,81.0,-7.0,
2010.0,2067.0,81.0,-7.0,
2105.0,2123.0,81.0,-7.0,
2067.0,2116.0,81.0,-7.0,
2121.0,2186.0,81.0,-7.0,
2100.0,2301.0,81.0,-7.0,
2059.0,1966.0,81.0,-7.0,
2073.0,2079.0,81.0,-7.0,
2063.0,2161.0,81.0,-7.0,
2046.0,2091.0,81.0,-7.0,
2007.0,2070.0,81.0,-7.0,
2118.0,2144.0,82.0,-7.0,
2197.0,2243.0,82.0,-7.0,
2027.0,2056.0,82.0,-7.0,
2084.0,1989.0,82.0,-7.0,
2106.0,2089.0,82.0,-7.0,
2050.0,2140.0,82.0,-7.0,
2116.0,2118.0,82.0,-7.0,
2095.0,2174.0,82.0,-7.0,
2020.0,2076.0,82.0,-7.0,
1933.0,1997.0,82.0,-7.0,
2051.0,2055.0,82.0,-7.0,
2082.0,2088.0,82.0,-7.0,
2135.0,2150.0,82.0,-7.0,
2082.0,2271.0,0,
2137.0,1934.0,82.0,-7.0,
2027.0,2011.0,82.0,-7.0,
2083.0,2095.0,82.0,-7.0,
2068.0,2083.0,82.0,-7.0,
1981.0,2087.0,82.0,-7.0,
2130.0,2094.0,82.0,-7.0,
2085.0,2054.0,82.0,-7.0,
2078.0,2069.0,82.0,-7.0,
2103.0,2086.0,82.0,-7.0,
2088.0,2217.0,82.0,-7.0,
2112.0,2238.0,82.0,-7.0,
2015.0,1949.0,82.0,-7.0,
2038.0,2048.0,82.0,-7.0,
2039.0,2026.0,82.0,-7.0,
2048.0,2064.0,82.0,-7.0,
2051.0,2054.0,82.0,-7.0,
2140.0,2101.0,82.0,-7.0,
2074.0,2145.0,82.0,-7.0,
2143.0,2189.0,82.0,-7.0,
2087.0,2045.0,82.0,-7.0,
2054.0,2066.0,82.0,-7.0,
2077.0,2101.0,82.0,-7.0,
2087.0,2122.0,82.0,-7.0,
2062.0,2067.0,82.0,-7.0,
2056.0,2113.0,82.0,-7.0,
2165.0,2107.0,82.0,-7.0,
2081.0,2069.0,82.0,-7.0,
2028.0,2094.0,82.0,-7.0,
1993.0,2059.0,82.0,-7.0,
2030.0,2247.0,82.0,-7.0,
2067.0,2094.0,82.0,-7.0,
2023.0,2053.0,82.0,-7.0,
2143.0,2010.0,82.0,-7.0,
2161.0,2038.0,82.0,-7.0,
2137.0,2027.0,82.0,-7.0,
2090.0,2127.0,82.0,-7.0,
2067.0,2110.0,82.0,-7.0,
1972.0,2215.0,82.0,-7.0,
2130.0,2188.0,82.0,-7.0,
2068.0,1981.0,82.0,-7.0,
2064.0,2129.0,82.0,-7.0,
2117.0,2015.0,82.0,-7.0,
2074.0,2061.0,82.0,-7.0,
2077.0,2107.0,82.0,-7.0,
2090.0,2172.0,82.0,-7.0,
2088.0,2117.0,82.0,-7.0,
1955.0,2048.0,82.0,-7.0,
2045.0,2064.0,82.0,-7.0,
2022.0,2120.0,82.0,-7.0,
2009.0,2106.0,82.0,-7.0,
2032.0,2073.0,82.0,-7.0,
2121.0,2086.0,82.0,-7.0,
2153.0,2097.0,81.0,-7.0,
2116.0,2106.0,81.0,-7.0,
2111.0,2129.0,81.0,-6.0,
2040.0,2064.0,81.0,-6.0,
1971.0,2082.0,81.0,-6.0,
2101.0,2086.0,81.0,-6.0,
2143.0,2152.0,81.0,-6.0,
2107.0,2123.0,81.0,-6.0,
2128.0,2159.0,80.0,-7.0,
2116.0,2139.0,80.0,-7.0,
2065.0,2117.0,80.0,-7.0,
2036.0,2045.0,80.0,-7.0,
2020.0,2063.0,80.0,-7.0,
2086.0,2114.0,80.0,-7.0,
2031.0,2078.0,80.0,-7.0,
2111.0,2040.0,80.0,-7.0,
2085.0,2082.0,80.0,-7.0,
2095.0,2047.0,80.0,-7.0,
2078.0,2103.0,80.0,-7.0,
2048.0,2150.0,80.0,-7.0,
2121.0,2047.0,80.0,-7.0,
2077.0,2027.0,80.0,-7.0,
2048.0,2106.0,80.0,-7.0,
2064.0,2129.0,80.0,-7.0,
2083.0,2121.0,79.0,-7.0,
2041.0,2116.0,79.0,-7.0,
2061.0,2095.0,79.0,-7.0,
2058.0,2115.0,79.0,-6.0,
2061.0,2119.0,78.0,-6.0,
2139.0,2102.0,78.0,-6.0,
2121.0,2087.0,78.0,-6.0,
2051.0,2101.0,78.0,-6.0,
2044.0,2092.0,78.0,-6.0,
2031.0,2114.0,77.0,-5.0,
2046.0,2097.0,77.0,-5.0,
2109.0,2145.0,77.0,-5.0,
2165.0,2056.0,77.0,-5.0,
2092.0,2005.0,77.0,-5.0,
2040.0,2075.0,77.0,-5.0,
2068.0,2062.0,77.0,-6.0,
2046.0,2093.0,78.0,-6.0,
2054.0,2103.0,78.0,-6.0,
2070.0,2097.0,77.0,-6.0,
2058.0,2098.0,77.0,-6.0,
2045.0,2123.0,77.0,-6.0,
2052.0,2125.0,77.0,-6.0,
2074.0,2101.0,77.0,-6.0,
2094.0,2132.0,77.0,-6.0,
2094.0,2029.0,77.0,-6.0,
2136.0,2168.0,77.0,-6.0,
2063.0,2104.0,77.0,-6.0,
2079.0,2083.0,76.0,-5.0,
2112.0,2074.0,76.0,-5.0,
2106.0,2088.0,76.0,-5.0,
2071.0,2087.0,76.0,-5.0,
2105.0,2056.0,76.0,-5.0,
2065.0,2084.0,75.0,-5.0,
2047.0,2109.0,75.0,-5.0,
2025.0,2087.0,75.0,-5.0,
2037.0,2116.0,74.0,-5.0,
2101.0,2100.0,74.0,-5.0,
2146.0,2065.0,74.0,-5.0,
2136.0,2027.0,74.0,-5.0,
2078.0,2178.0,73.0,-4.0,
2059.0,2110.0,73.0,-4.0,
2052.0,2117.0,72.0,-4.0,
2035.0,2083.0,72.0,-4.0,
2031.0,2099.0,72.0,-4.0,
2054.0,2131.0,71.0,-4.0,
2069.0,2097.0,71.0,-4.0,
2054.0,2069.0,71.0,-4.0,
2049.0,2084.0,70.0,-4.0,
2045.0,2090.0,70.0,-4.0,
2046.0,2135.0,69.0,-4.0,
2056.0,2124.0,69.0,-4.0,
2041.0,2140.0,69.0,-4.0,
2057.0,2069.0,69.0,-4.0,
2077.0,2030.0,68.0,-4.0,
2084.0,2066.0,68.0,-4.0,
2082.0,2053.0,68.0,-4.0,
2049.0,2174.0,68.0,-4.0,
2046.0,2137.0,68.0,-4.0,
1991.0,2111.0,67.0,-4.0,
2021.0,2077.0,67.0,-4.0,
2119.0,2088.0,67.0,-4.0,
2149.0,2068.0,67.0,-4.0,
2111.0,2094.0,67.0,-4.0,
2105.0,2109.0,67.0,-4.0,
2125.0,2098.0,66.0,-4.0,
2101.0,2091.0,66.0,-4.0,
2090.0,2074.0,66.0,-4.0,
2098.0,2106.0,66.0,-4.0,
2074.0,2083.0,65.0,-4.0,
2052.0,2107.0,65.0,-4.0,
2059.0,2103.0,65.0,-4.0,
2051.0,2091.0,65.0,-4.0,
2096.0,2093.0,64.0,-4.0,
2071.0,2103.0,64.0,-4.0,
2124.0,2066.0,64.0,-4.0,
2099.0,2123.0,64.0,-4.0,
2093.0,2079.0,64.0,-4.0,
2053.0,2089.0,63.0,-4.0,
2123.0,2111.0,63.0,-4.0,
2124.0,2084.0,63.0,-4.0,
2071.0,2093.0,63.0,-4.0,
2089.0,2105.0,63.0,-4.0,
2089.0,2097.0,62.0,-4.0,
2062.0,2061.0,62.0,-3.0,
2026.0,2104.0,62.0,-3.0,
1980.0,2117.0,62.0,-3.0,
2004.0,2102.0,62.0,-3.0,
2005.0,2091.0,62.0,-2.0,
2016.0,2097.0,62.0,-1.0,
2130.0,2108.0,61.0,-2.0,
2104.0,2111.0,61.0,-3.0,
2066.0,2080.0,61.0,-3.0,
2078.0,2081.0,61.0,-3.0,
2064.0,2038.0,61.0,-3.0,
2043.0,2092.0,60.0,-3.0,
2056.0,2068.0,60.0,-3.0,
2110.0,2110.0,60.0,-3.0,
2186.0,2118.0,60.0,-4.0,
2136.0,2125.0,60.0,-4.0,
2096.0,2114.0,59.0,-3.0,
2107.0,2084.0,59.0,-2.0,
2082.0,2088.0,59.0,-2.0,
2046.0,2094.0,59.0,-2.0,
2020.0,2071.0,58.0,-3.0,
2017.0,2093.0,58.0,-3.0,
2082.0,2098.0,58.0,-3.0,
2105.0,2108.0,57.0,-3.0,
2100.0,2106.0,57.0,-3.0,
2057.0,2084.0,57.0,-3.0,
2066.0,2087.0,56.0,-3.0,
2066.0,2099.0,56.0,-3.0,
2098.0,2091.0,56.0,-3.0,
2108.0,2085.0,55.0,-3.0,
2101.0,2118.0,55.0,-3.0,
2087.0,2122.0,55.0,-3.0,
2056.0,2077.0,54.0,-3.0,
2028.0,2099.0,54.0,-3.0,
2097.0,2082.0,54.0,-3.0,
2058.0,2080.0,53.0,-3.0,
2049.0,2070.0,53.0,-3.0,
2062.0,2062.0,53.0,-3.0,
2080.0,2071.0,53.0,-3.0,
2041.0,2169.0,53.0,-3.0,
2084.0,2161.0,53.0,-3.0,
2073.0,2143.0,52.0,-3.0,
2075.0,2092.0,52.0,-3.0,
2086.0,2079.0,52.0,-3.0,
2079.0,2032.0,52.0,-3.0,
2047.0,2055.0,52.0,-3.0,
2082.0,2056.0,52.0,-3.0,
2087.0,2186.0,51.0,-3.0,
2072.0,2157.0,51.0,-3.0,
2085.0,2079.0,51.0,-3.0,
2084.0,2162.0,51.0,-3.0,
2070.0,2117.0,51.0,-3.0,
2036.0,2035.0,51.0,-3.0,
2006.0,2047.0,51.0,-3.0,
2038.0,2046.0,51.0,-3.0,
2061.0,2096.0,51.0,-3.0,
2087.0,2084.0,51.0,-3.0,
2149.0,2122.0,51.0,-3.0,
2127.0,2130.0,51.0,-2.0,
2151.0,2124.0,50.0,-2.0,
2069.0,2116.0,50.0,-2.0,
2076.0,2099.0,50.0,-2.0,
2041.0,2055.0,50.0,-2.0,
2066.0,2061.0,50.0,-2.0,
2073.0,2092.0,50.0,-2.0,
2071.0,2077.0,50.0,-2.0,
2099.0,2119.0,50.0,-2.0,
2104.0,2046.0,50.0,-2.0,
2079.0,2092.0,50.0,-2.0,
2074.0,2098.0,50.0,-2.0,
2061.0,2108.0,50.0,-2.0,
2049.0,2105.0,50.0,-2.0,
2038.0,2091.0,50.0,-2.0,
2057.0,2085.0,50.0,-2.0,
2118.0,2100.0,50.0,-2.0,
2079.0,2116.0,50.0,-2.0,
2073.0,2133.0,50.0,-2.0,
2070.0,2105.0,50.0,-2.0,
2060.0,2059.0,50.0,-2.0,
2009.0,2079.0,50.0,-2.0,
2087.0,2093.0,50.0,-2.0,
2052.0,2036.0,50.0,-2.0,
2053.0,2115.0,51.0,-2.0,
2057.0,2027.0,50.0,-2.0,
2023.0,2141.0,50.0,-2.0,
2099.0,2104.0,50.0,-2.0,
2130.0,2082.0,50.0,-1.0,
2126.0,2071.0,50.0,-1.0,
2064.0,2164.0,50.0,-1.0,
2107.0,2135.0,50.0,-1.0,
2070.0,2102.0,50.0,-1.0,
2026.0,2137.0,50.0,-1.0,
2074.0,2125.0,50.0,-1.0,
2058.0,2076.0,50.0,-1.0,
2105.0,2087.0,50.0,-1.0,
2083.0,2077.0,49.0,-1.0,
2041.0,2097.0,49.0,-1.0,
2054.0,2106.0,49.0,-1.0,
2033.0,2108.0,49.0,-1.0,
2088.0,2047.0,49.0,-1.0,
2111.0,2028.0,49.0,-1.0,
2122.0,2131.0,49.0,-1.0,
2124.0,2123.0,49.0,-1.0,
2107.0,2099.0,49.0,-1.0,
2057.0,2109.0,48.0,-1.0,
2017.0,2094.0,48.0,-1.0,
2091.0,2032.0,48.0,-1.0,
2066.0,2103.0,48.0,-1.0,
2082.0,2088.0,48.0,-1.0,
2064.0,2095.0,47.0,-1.0,
2052.0,2104.0,47.0,-1.0,
2057.0,2102.0,47.0,-1.0,
2086.0,2081.0,47.0,-1.0,
2091.0,2074.0,47.0,-1.0,
2052.0,2079.0,46.0,-1.0,
2050.0,2101.0,46.0,-1.0,
2038.0,2151.0,46.0,-1.0,
2068.0,2131.0,46.0,-1.0,
2129.0,2117.0,46.0,-1.0,
2108.0,2101.0,46.0,-1.0,
2104.0,2093.0,46.0,-1.0,
2071.0,2075.0,45.0,-1.0,
2081.0,2090.0,45.0,-1.0,
2061.0,2073.0,45.0,-1.0,
2074.0,2012.0,45.0,-1.0,
2060.0,2074.0,44.0,-1.0,
2023.0,2093.0,44.0,-1.0,
2066.0,2119.0,44.0,-1.0,
2060.0,2112.0,44.0,-1.0,
2027.0,2114.0,43.0,-1.0,
2079.0,2144.0,43.0,-1.0,
2045.0,2131.0,43.0,-1.0,
2025.0,2107.0,43.0,-1.0,
2067.0,2059.0,42.0,-1.0,
2133.0,2065.0,42.0,-1.0,
2086.0,2101.0,42.0,-1.0,
2129.0,2081.0,41.0,-1.0,
2101.0,2100.0,41.0,-1.0,
2102.0,2118.0,41.0,-1.0,
2093.0,2067.0,41.0,-1.0,
2073.0,2073.0,40.0,-1.0,
2049.0,2112.0,40.0,-1.0,
2009.0,2105.0,40.0,-1.0,
2037.0,2105.0,39.0,-1.0,
2034.0,2053.0,39.0,-1.0,
2115.0,2064.0,39.0,-1.0,
2131.0,2143.0,39.0,-1.0,
2115.0,2098.0,39.0,-1.0,
2140.0,2054.0,38.0,-1.0,
2108.0,2124.0,38.0,-1.0,
2078.0,2104.0,38.0,-1.0,
2031.0,2115.0,37.0,-1.0,
2080.0,2103.0,37.0,-1.0,
2120.0,2115.0,37.0,-1.0,
2110.0,2116.0,37.0,-1.0,
2105.0,2081.0,37.0,-1.0,
2065.0,2119.0,36.0,-1.0,
2048.0,2056.0,36.0,-1.0,
2048.0,2073.0,36.0,-1.0,
2045.0,2080.0,36.0,-1.0,
2041.0,2116.0,36.0,-1.0,
2051.0,2126.0,36.0,-1.0,
2052.0,2095.0,35.0,-1.0,
2074.0,2062.0,35.0,-1.0,
2072.0,2056.0,35.0,-1.0,
2088.0,2087.0,35.0,-1.0,
2037.0,2060.0,35.0,-1.0,
2083.0,2091.0,34.0,-1.0,
2128.0,2079.0,34.0,-1.0,
2083.0,2112.0,34.0,-1.0,
2093.0,2095.0,34.0,-1.0,
2072.0,2106.0,34.0,-1.0,
2083.0,2127.0,34.0,-1.0,
2077.0,2130.0,34.0,-1.0,
2047.0,2133.0,33.0,-1.0,
2031.0,2066.0,33.0,-1.0,
2008.0,2095.0,33.0,-1.0,
2028.0,2108.0,33.0,-1.0,
2056.0,2108.0,33.0,-1.0,
2132.0,2102.0,33.0,-1.0,
2154.0,2118.0,33.0,-1.0,
2132.0,2053.0,33.0,-1.0,
2111.0,2072.0,33.0,-1.0,
2074.0,2073.0,32.0,-1.0,
2070.0,2078.0,32.0,-1.0,
2071.0,2047.0,32.0,-1.0,
2065.0,2033.0,32.0,-1.0,
2085.0,2123.0,32.0,-1.0,
2096.0,2093.0,32.0,-1.0,
2067.0,2157.0,32.0,-1.0,
2081.0,2093.0,32.0,-1.0,
2068.0,2143.0,32.0,-1.0,
2056.0,2127.0,32.0,-2.0,
2035.0,2116.0,32.0,-1.0,
2021.0,2101.0,32.0,-1.0,
2076.0,2095.0,0,
2071.0,2079.0,32.0,-2.0,
2082.0,2094.0,32.0,-2.0,
2097.0,2084.0,32.0,-2.0,
2083.0,2057.0,32.0,-2.0,
2098.0,2056.0,32.0,-2.0,
2056.0,2105.0,32.0,-2.0,
2057.0,2092.0,32.0,-2.0,
2066.0,2089.0,31.0,-2.0,
2054.0,2110.0,31.0,-2.0,
2079.0,2123.0,31.0,-2.0,
2120.0,2085.0,31.0,-1.0,
2077.0,2079.0,31.0,-1.0,
2076.0,2078.0,31.0,-1.0,
2061.0,2077.0,31.0,-1.0,
2015.0,2116.0,31.0,-2.0,
2041.0,2102.0,31.0,-1.0,
2066.0,2093.0,31.0,-1.0,
2081.0,2088.0,31.0,-1.0,
2150.0,2096.0,31.0,-1.0,
2187.0,2085.0,31.0,-1.0,
2131.0,2119.0,31.0,-1.0,
2079.0,2149.0,31.0,-1.0,
2075.0,2096.0,31.0,-1.0,
2037.0,2071.0,31.0,-1.0,
2070.0,2064.0,31.0,-1.0,
2136.0,2031.0,31.0,-1.0,
2067.0,2050.0,31.0,-1.0,
2085.0,2149.0,31.0,-1.0,
2091.0,2148.0,31.0,-1.0,
2053.0,2121.0,31.0,-1.0,
2066.0,2050.0,31.0,-1.0,
2058.0,2078.0,31.0,-1.0,
2046.0,2091.0,31.0,-1.0,
2100.0,2094.0,31.0,-1.0,
2079.0,2070.0,31.0,-1.0,
2063.0,2115.0,31.0,-1.0,
2082.0,2109.0,31.0,-1.0,
2109.0,2092.0,31.0,-1.0,
2091.0,2096.0,31.0,-1.0,
2097.0,2093.0,31.0,-1.0,
2082.0,2087.0,31.0,-1.0,
2046.0,2094.0,31.0,-1.0,
2058.0,2078.0,31.0,-1.0,
2057.0,2099.0,31.0,-1.0,
2082.0,2097.0,31.0,-1.0,
2091.0,2087.0,31.0,-1.0,
2094.0,2113.0,31.0,-1.0,
2091.0,2094.0,31.0,-1.0,
2086.0,2079.0,30.0,-1.0,
2056.0,2109.0,30.0,-1.0,
2077.0,2075.0,30.0,-1.0,
2090.0,2006.0,30.0,-1.0,
2058.0,2124.0,30.0,-1.0,
2085.0,2096.0,30.0,-1.0,
2086.0,2123.0,29.0,-1.0,
2073.0,2163.0,29.0,-1.0,
2099.0,2142.0,29.0,-1.0,
2058.0,2106.0,29.0,-1.0,
2081.0,2093.0,29.0,-1.0,
2066.0,2070.0,28.0,-1.0,
2044.0,2074.0,28.0,-1.0,
2080.0,2087.0,28.0,-1.0,
2108.0,2109.0,28.0,-1.0,
2067.0,2144.0,27.0,-1.0,
2065.0,2134.0,27.0,-1.0,
2064.0,2118.0,27.0,-1.0,
2056.0,2036.0,26.0,-1.0,
2070.0,1969.0,26.0,-1.0,
2100.0,2065.0,26.0,-1.0,
2084.0,2120.0,26.0,-1.0,
2060.0,2158.0,25.0,-1.0,
2109.0,2124.0,25.0,-1.0,
2109.0,2106.0,25.0,-1.0,
2130.0,2093.0,24.0,-1.0,
2107.0,2070.0,24.0,-1.0,
2102.0,2086.0,24.0,-1.0,
2048.0,2043.0,24.0,-2.0,
2050.0,2070.0,24.0,-2.0,
2090.0,2096.0,23.0,-2.0,
2077.0,2103.0,23.0,-2.0,
2107.0,2112.0,23.0,-2.0,
2077.0,2103.0,23.0,-2.0,
2053.0,2079.0,23.0,-2.0,
2044.0,2090.0,23.0,-2.0,
2059.0,2087.0,23.0,-2.0,
2062.0,2091.0,23.0,-2.0,
2060.0,2103.0,23.0,-2.0,
2065.0,2100.0,22.0,-2.0,
2088.0,2104.0,22.0,-2.0,
2094.0,2121.0,22.0,-2.0,
2089.0,2105.0,22.0,-2.0,
2062.0,2099.0,22.0,-2.0,
2033.0,2051.0,22.0,-2.0,
2050.0,2069.0,22.0,-2.0,
2068.0,2034.0,22.0,-2.0,
2048.0,2033.0,22.0,-2.0,
2072.0,2048.0,22.0,-2.0,
2140.0,2152.0,22.0,-2.0,
2110.0,2152.0,22.0,-2.0,
2090.0,2149.0,22.0,-2.0,
2082.0,2118.0,22.0,-2.0,
2081.0,2109.0,22.0,-2.0,
2102.0,2104.0,22.0,-2.0,
2070.0,2083.0,22.0,-2.0,
2024.0,2096.0,22.0,-2.0,
2072.0,2093.0,22.0,-2.0,
2078.0,2097.0,22.0,-2.0,
2093.0,2113.0,22.0,-2.0,
2087.0,2108.0,22.0,-2.0,
2036.0,2069.0,22.0,-2.0,
2052.0,2093.0,22.0,-2.0,
2034.0,2069.0,22.0,-2.0,
2020.0,2059.0,22.0,-2.0,
2065.0,2048.0,22.0,-2.0,
2109.0,2057.0,22.0,-2.0,
2160.0,2095.0,22.0,-2.0,
2127.0,2095.0,22.0,-2.0,
2107.0,2107.0,22.0,-2.0,
2078.0,2111.0,22.0,-2.0,
2084.0,2077.0,22.0,-2.0,
2053.0,2074.0,22.0,-2.0,
2089.0,2106.0,22.0,-2.0,
2102.0,2101.0,22.0,-2.0,
2071.0,2115.0,23.0,-2.0,
2089.0,2139.0,23.0,-2.0,
2080.0,2118.0,23.0,-2.0,
2042.0,2125.0,0,
2015.0,2137.0,23.0,-1.0,
2027.0,2063.0,23.0,-1.0,
2060.0,2078.0,23.0,-1.0,
2060.0,2083.0,23.0,-1.0,
2116.0,2075.0,23.0,-2.0,
2125.0,2106.0,23.0,-2.0,
2095.0,2108.0,23.0,-2.0,
2131.0,2105.0,23.0,-2.0,
2093.0,2050.0,23.0,-1.0,
2089.0,2088.0,23.0,-1.0,
2121.0,2072.0,24.0,-2.0,
2085.0,2090.0,24.0,-2.0,
2092.0,2090.0,24.0,-2.0,
2069.0,2174.0,24.0,-2.0,
2037.0,2100.0,24.0,-2.0,
2100.0,2078.0,23.0,-2.0,
2065.0,2079.0,24.0,-2.0,
2082.0,2126.0,23.0,-2.0,
2079.0,2117.0,23.0,-2.0,
2024.0,2093.0,23.0,-2.0,
2006.0,2064.0,23.0,-2.0,
2036.0,2117.0,23.0,-2.0,
2045.0,2123.0,23.0,-2.0,
2074.0,2161.0,23.0,-2.0,
2069.0,2060.0,23.0,-2.0,
2062.0,2043.0,23.0,-2.0,
2068.0,2000.0,23.0,-2.0,
2063.0,2063.0,23.0,-2.0,
2050.0,2124.0,23.0,-2.0,
2037.0,2148.0,23.0,-2.0,
2098.0,2093.0,24.0,-2.0,
2129.0,2116.0,24.0,-2.0,
2108.0,2116.0,24.0,-2.0,
2084.0,2116.0,24.0,-2.0,
2091.0,2074.0,24.0,-2.0,
2077.0,2084.0,24.0,-2.0,
2037.0,2084.0,24.0,-2.0,
2055.0,2093.0,24.0,-2.0,
2098.0,2082.0,24.0,-2.0,
2066.0,2059.0,24.0,-2.0,
2082.0,2089.0,24.0,-2.0,
2099.0,2099.0,23.0,-2.0,
2131.0,2099.0,23.0,-2.0,
2108.0,2083.0,23.0,-2.0,
2054.0,2104.0,23.0,-2.0,
2080.0,2109.0,23.0,-2.0,
2047.0,2069.0,23.0,-2.0,
2099.0,2086.0,22.0,-2.0,
2077.0,2093.0,22.0,-2.0,
2067.0,2078.0,22.0,-2.0,
2113.0,2090.0,22.0,-2.0,
2067.0,2112.0,22.0,-2.0,
2069.0,2108.0,22.0,-2.0,
2059.0,2100.0,22.0,-2.0,
2038.0,2088.0,22.0,-2.0,
2078.0,2100.0,22.0,-2.0,
2060.0,2117.0,21.0,-2.0,
2045.0,2105.0,21.0,-2.0,
2080.0,2108.0,21.0,-2.0,
2088.0,2104.0,21.0,-2.0,
2094.0,2105.0,20.0,-2.0,
2107.0,2107.0,20.0,-2.0,
2072.0,2098.0,20.0,-2.0,
2054.0,2094.0,20.0,-2.0,
2048.0,2082.0,20.0,-2.0,
2071.0,2084.0,20.0,-2.0,
2049.0,2082.0,20.0,-2.0,
2071.0,2095.0,20.0,-1.0,
2102.0,2101.0,20.0,-2.0,
2089.0,2105.0,20.0,-2.0,
2082.0,2097.0,20.0,-2.0,
2107.0,2075.0,20.0,-2.0,
2081.0,2056.0,20.0,-2.0,
2048.0,2111.0,20.0,-2.0,
2043.0,2094.0,19.0,-2.0,
2032.0,2131.0,19.0,-2.0,
2028.0,2063.0,19.0,-2.0,
2044.0,2075.0,19.0,-2.0,
2103.0,2125.0,19.0,-2.0,
2151.0,2178.0,19.0,-2.0,
2095.0,2109.0,19.0,-2.0,
2018.0,2082.0,19.0,-2.0,
1997.0,2076.0,19.0,-2.0,
2034.0,2064.0,19.0,-2.0,
2110.0,2060.0,19.0,-2.0,
2111.0,2085.0,18.0,-2.0,
2121.0,2080.0,18.0,-2.0,
2120.0,2098.0,18.0,-2.0,
2093.0,2107.0,18.0,-2.0,
2121.0,2113.0,18.0,-2.0,
2125.0,2089.0,18.0,-2.0,
2081.0,2083.0,18.0,-2.0,
2089.0,2095.0,19.0,-2.0,
2059.0,2097.0,19.0,-2.0,
2044.0,2119.0,19.0,-2.0,
2047.0,2110.0,19.0,-2.0,
2059.0,2104.0,19.0,-2.0,
2077.0,2125.0,19.0,-2.0,
2070.0,2096.0,19.0,-2.0,
2096.0,2091.0,19.0,-2.0,
2051.0,2036.0,19.0,-2.0,
2073.0,2071.0,20.0,-2.0,
2038.0,2098.0,20.0,-2.0,
2044.0,2134.0,20.0,-2.0,
2075.0,2122.0,20.0,-2.0,
2084.0,2056.0,20.0,-2.0,
2087.0,2036.0,20.0,-2.0,
2082.0,2117.0,21.0,-2.0,
2071.0,2168.0,21.0,-2.0,
2068.0,2164.0,21.0,-2.0,
2066.0,2073.0,21.0,-2.0,
2084.0,2083.0,21.0,-2.0,
2054.0,2065.0,21.0,-2.0,
2091.0,2073.0,21.0,-2.0,
2095.0,2086.0,22.0,-2.0,
2093.0,2093.0,22.0,-2.0,
2074.0,2082.0,22.0,-2.0,
2074.0,2090.0,22.0,-2.0,
2069.0,2092.0,22.0,-2.0,
2064.0,2093.0,22.0,-2.0,
2072.0,2094.0,22.0,-2.0,
2075.0,2084.0,22.0,-2.0,
2081.0,2073.0,22.0,-2.0,
2096.0,2141.0,22.0,-2.0,
2068.0,2106.0,22.0,-2.0,
2092.0,2130.0,22.0,-2.0,
2096.0,2107.0,22.0,-2.0,
2077.0,2094.0,22.0,-2.0,
2074.0,2104.0,22.0,-2.0,
2065.0,2093.0,22.0,-2.0,
2065.0,2095.0,22.0,-2.0,
2059.0,2109.0,22.0,-2.0,
2108.0,2079.0,22.0,-2.0,
2098.0,2083.0,22.0,-2.0,
2038.0,2086.0,22.0,-2.0,
2032.0,2091.0,22.0,-2.0,
2016.0,2100.0,22.0,-2.0,
1991.0,2052.0,22.0,-2.0,
2057.0,2090.0,22.0,-2.0,
2167.0,2091.0,21.0,-2.0,
2156.0,2099.0,21.0,-2.0,
2188.0,2135.0,21.0,-2.0,
2114.0,2098.0,21.0,-2.0,
2113.0,2081.0,21.0,-2.0,
2133.0,2088.0,21.0,-2.0,
2082.0,2071.0,21.0,-2.0,
2057.0,2069.0,21.0,-2.0,
2061.0,2092.0,20.0,-2.0,
2054.0,2105.0,20.0,-2.0,
2063.0,2101.0,20.0,-2.0,
2058.0,2100.0,20.0,-2.0,
2099.0,2106.0,20.0,-2.0,
2081.0,2103.0,20.0,-2.0,
2050.0,2099.0,20.0,-2.0,
2034.0,2099.0,20.0,-2.0,
2036.0,2101.0,20.0,-2.0,
2037.0,2094.0,20.0,-2.0,
2052.0,2088.0,20.0,-2.0,
2081.0,2094.0,20.0,-2.0,
2095.0,2098.0,20.0,-2.0,
2099.0,2098.0,20.0,-2.0,
2078.0,2097.0,20.0,-2.0,
2081.0,2094.0,20.0,-2.0,
2044.0,2092.0,20.0,-2.0,
2052.0,2098.0,20.0,-2.0,
2054.0,2092.0,20.0,-2.0,
2061.0,2094.0,20.0,-2.0,
2083.0,2092.0,20.0,-2.0,
2090.0,2089.0,20.0,-2.0,
2117.0,2105.0,20.0,-2.0,
2088.0,2129.0,20.0,-2.0,
2078.0,2124.0,20.0,-2.0,
2061.0,2074.0,20.0,-2.0,
2062.0,2077.0,20.0,-2.0,
2058.0,2087.0,20.0,-2.0,
2087.0,2099.0,20.0,-2.0,
2077.0,2103.0,20.0,-2.0,
2086.0,2105.0,20.0,-2.0,
2074.0,2108.0,20.0,-2.0,
2076.0,2081.0,21.0,-2.0,
2058.0,2157.0,21.0,-2.0,
2045.0,2103.0,21.0,-2.0,
2038.0,2075.0,21.0,-2.0,
2123.0,2085.0,21.0,-2.0,
2072.0,2091.0,21.0,-2.0,
2100.0,2120.0,21.0,-2.0,
2093.0,1986.0,21.0,-2.0,
2076.0,2109.0,21.0,-2.0,
2076.0,2118.0,21.0,-2.0,
2111.0,2084.0,21.0,-2.0,
2082.0,2059.0,21.0,-2.0,
2097.0,2079.0,21.0,-2.0,
2075.0,2084.0,21.0,-2.0,
2044.0,2093.0,21.0,-2.0,
2057.0,2070.0,21.0,-2.0,
2094.0,2097.0,21.0,-2.0,
2084.0,2105.0,21.0,-2.0,
2074.0,2147.0,21.0,-2.0,
2082.0,2145.0,21.0,-2.0,
2083.0,2110.0,21.0,-2.0,
2019.0,2104.0,21.0,-2.0,
2041.0,2115.0,21.0,-2.0,
2075.0,2105.0,21.0,-2.0,
2066.0,2090.0,21.0,-2.0,
2082.0,2089.0,21.0,-2.0,
2085.0,2096.0,21.0,-2.0,
2105.0,2081.0,0,
2067.0,2092.0,20.0,-2.0,
2060.0,2097.0,20.0,-2.0,
2035.0,2089.0,20.0,-2.0,
2053.0,2086.0,20.0,-2.0,
2069.0,2093.0,20.0,-2.0,
2080.0,2091.0,20.0,-2.0,
2076.0,2103.0,20.0,-2.0,
2074.0,2111.0,20.0,-2.0,
2057.0,2123.0,20.0,-2.0,
2076.0,2090.0,20.0,-2.0,
2041.0,2068.0,20.0,-2.0,
2045.0,2063.0,20.0,-2.0,
2088.0,2068.0,20.0,-2.0,
2115.0,2068.0,20.0,-2.0,
2121.0,2070.0,20.0,-2.0,
2087.0,2123.0,20.0,-2.0,
2077.0,2116.0,20.0,-2.0,
2064.0,2130.0,20.0,-2.0,
2041.0,2093.0,20.0,-2.0,
2061.0,2067.0,20.0,-2.0,
2055.0,2069.0,20.0,-2.0,
2115.0,2102.0,20.0,-2.0,
2106.0,2123.0,20.0,-2.0,
2098.0,2079.0,20.0,-2.0,
2110.0,2102.0,20.0,-2.0,
2085.0,2090.0,20.0,-2.0,
2112.0,2115.0,20.0,-2.0,
2080.0,2120.0,20.0,-2.0,
2041.0,2124.0,20.0,-2.0,
2032.0,2159.0,20.0,-2.0,
2011.0,2063.0,20.0,-2.0,
2039.0,2053.0,20.0,-2.0,
2107.0,2046.0,20.0,-2.0,
2085.0,2012.0,20.0,-2.0,
2092.0,2098.0,20.0,-2.0,
2145.0,2137.0,20.0,-2.0,
2097.0,2132.0,21.0,-2.0,
2089.0,2115.0,21.0,-2.0,
2078.0,2120.0,21.0,-2.0,
2058.0,2103.0,21.0,-2.0,
2037.0,2099.0,21.0,-2.0,
2066.0,2105.0,21.0,-2.0,
2074.0,2114.0,21.0,-2.0,
2087.0,2113.0,21.0,-2.0,
2089.0,2080.0,21.0,-2.0,
2072.0,2111.0,21.0,-2.0,
2051.0,2096.0,21.0,-2.0,
2056.0,2083.0,21.0,-2.0,
2068.0,2078.0,21.0,-2.0,
2050.0,2053.0,21.0,-2.0,
2064.0,2071.0,21.0,-2.0,
2078.0,2083.0,21.0,-2.0,
2094.0,2085.0,21.0,-2.0,
2063.0,2083.0,21.0,-2.0,
2104.0,2090.0,21.0,-2.0,
2077.0,2093.0,20.0,-2.0,
2087.0,2083.0,21.0,-2.0,
2075.0,2103.0,21.0,-2.0,
2067.0,2086.0,20.0,-2.0,
2054.0,2097.0,20.0,-2.0,
2079.0,2114.0,20.0,-2.0,
2073.0,2109.0,20.0,-2.0,
2058.0,2102.0,20.0,-2.0,
2064.0,2089.0,20.0,-2.0,
2141.0,2098.0,20.0,-2.0,
2108.0,2106.0,20.0,-2.0,
2087.0,2095.0,20.0,-2.0,
2095.0,2085.0,20.0,-2.0,
2119.0,2072.0,20.0,-2.0,
2102.0,2097.0,20.0,-2.0,
2068.0,2091.0,20.0,-2.0,
2073.0,2102.0,20.0,-2.0,
2053.0,2101.0,20.0,-2.0,
2033.0,2086.0,20.0,-2.0,
2053.0,2095.0,20.0,-2.0,
2072.0,2099.0,20.0,-2.0,
2055.0,2098.0,20.0,-2.0,
2060.0,2101.0,20.0,-2.0,
2066.0,2109.0,20.0,-2.0,
2090.0,2116.0,20.0,-2.0,
2068.0,2082.0,20.0,-2.0,
2086.0,2064.0,20.0,-2.0,
2053.0,2074.0,20.0,-2.0,
2061.0,2133.0,20.0,-2.0,
2056.0,2130.0,20.0,-2.0,
2082.0,2075.0,20.0,-2.0,
2101.0,2028.0,20.0,-2.0,
2127.0,2065.0,20.0,-2.0,
2110.0,2112.0,20.0,-2.0,
2096.0,2111.0,20.0,-2.0,
2054.0,2118.0,20.0,-2.0,
2065.0,2110.0,20.0,-2.0,
2066.0,2093.0,20.0,-2.0,
2069.0,2111.0,20.0,-2.0,
2046.0,2095.0,20.0,-2.0,
2045.0,2111.0,20.0,-2.0,
2081.0,2116.0,20.0,-2.0,
2063.0,2082.0,20.0,-2.0,
2048.0,2073.0,20.0,-2.0,
2071.0,2049.0,20.0,-2.0,
2066.0,2082.0,20.0,-2.0,
2108.0,2114.0,20.0,-2.0,
2111.0,2137.0,20.0,-2.0,
2090.0,2086.0,20.0,-2.0,
2080.0,2089.0,20.0,-2.0,
2124.0,2105.0,20.0,-2.0,
2118.0,2105.0,20.0,-2.0,
2125.0,2078.0,20.0,-2.0,
2093.0,2096.0,20.0,-2.0,
2067.0,2052.0,20.0,-2.0,
2068.0,2088.0,20.0,-2.0,
2061.0,2098.0,20.0,-2.0,
2056.0,2106.0,20.0,-2.0,
2048.0,2102.0,20.0,-2.0,
2087.0,2099.0,20.0,-2.0,
2084.0,2102.0,20.0,-2.0,
2093.0,2119.0,20.0,-2.0,
2079.0,2129.0,20.0,-2.0,
2041.0,2085.0,20.0,-2.0,
2038.0,2086.0,20.0,-2.0,
2029.0,2095.0,20.0,-2.0,
2038.0,2093.0,20.0,-2.0,
2083.0,2093.0,20.0,-2.0,
2071.0,2082.0,20.0,-2.0,
2093.0,2099.0,20.0,-2.0,
2013.0,2093.0,20.0,-2.0,
2086.0,2099.0,20.0,-2.0,
2071.0,2101.0,20.0,-2.0,
2038.0,2096.0,20.0,-2.0,
2032.0,2091.0,20.0,-2.0,
2097.0,2088.0,20.0,-2.0,
2077.0,2093.0,20.0,-2.0,
2089.0,2103.0,20.0,-2.0,
2115.0,2093.0,20.0,-2.0,
2134.0,2090.0,20.0,-2.0,
2119.0,2083.0,20.0,-2.0,
2068.0,2111.0,20.0,-2.0,
2063.0,2129.0,20.0,-2.0,
2037.0,2112.0,20.0,-2.0,
2049.0,2095.0,20.0,-2.0,
2036.0,2033.0,20.0,-2.0,
2069.0,2075.0,20.0,-2.0,
2061.0,2054.0,20.0,-2.0,
2132.0,2095.0,20.0,-2.0,
2127.0,2131.0,20.0,-2.0,
2073.0,2127.0,20.0,-2.0,
2072.0,2096.0,20.0,-2.0,
2066.0,2079.0,20.0,-2.0,
2048.0,2068.0,20.0,-2.0,
2078.0,2100.0,20.0,-2.0,
2071.0,2145.0,21.0,-2.0,
2101.0,2113.0,21.0,-2.0,
2086.0,2090.0,21.0,-2.0,
2118.0,2094.0,21.0,-2.0,
2075.0,2093.0,21.0,-2.0,
2050.0,2100.0,21.0,-2.0,
2043.0,2094.0,21.0,-2.0,
2055.0,2103.0,21.0,-2.0,
2042.0,2075.0,21.0,-2.0,
2092.0,2092.0,21.0,-2.0,
2101.0,2109.0,21.0,-2.0,
2133.0,2095.0,21.0,-2.0,
2103.0,2087.0,21.0,-2.0,
2079.0,2092.0,20.0,-2.0,
2042.0,2099.0,20.0,-2.0,
2050.0,2099.0,20.0,-2.0,
2037.0,2077.0,20.0,-2.0,
2044.0,2059.0,20.0,-2.0,
2092.0,2117.0,20.0,-2.0,
2120.0,2031.0,20.0,-2.0,
2132.0,2123.0,20.0,-2.0,
2089.0,2102.0,20.0,-2.0,
2048.0,2102.0,20.0,-2.0,
2058.0,2147.0,20.0,-2.0,
2048.0,2148.0,20.0,-2.0,
2064.0,2107.0,20.0,-2.0,
2132.0,2032.0,20.0,-2.0,
2129.0,2048.0,20.0,-2.0,
2105.0,2073.0,20.0,-2.0,
2096.0,2095.0,20.0,-2.0,
2071.0,2098.0,20.0,-2.0,
2059.0,2098.0,20.0,-2.0,
2065.0,2092.0,20.0,-2.0,
2042.0,2083.0,20.0,-2.0,
2025.0,2095.0,20.0,-2.0,
2068.0,2114.0,20.0,-2.0,
2054.0,2111.0,20.0,-2.0,
2100.0,2110.0,20.0,-2.0,
2145.0,2100.0,20.0,-2.0,
2105.0,2101.0,20.0,-2.0,
2107.0,2106.0,20.0,-2.0,
2050.0,2101.0,20.0,-2.0,
2025.0,2033.0,20.0,-2.0,
2055.0,2058.0,20.0,-2.0,
2056.0,2088.0,20.0,-2.0,
2073.0,2127.0,20.0,-2.0,
2076.0,2087.0,20.0,-2.0,
2136.0,2102.0,20.0,-2.0,
2135.0,2095.0,20.0,-2.0,
2094.0,2099.0,20.0,-2.0,
2060.0,2102.0,20.0,-2.0,
2058.0,2099.0,20.0,-2.0,
2061.0,2088.0,20.0,-2.0,
2068.0,2092.0,20.0,-3.0,
2072.0,2097.0,20.0,-2.0,
2090.0,2095.0,20.0,-2.0,
2080.0,2100.0,20.0,-2.0,
2073.0,2103.0,20.0,-2.0,
2052.0,2091.0,20.0,-2.0,
2065.0,2088.0,20.0,-2.0,
2070.0,2086.0,20.0,-2.0,
2064.0,2091.0,20.0,-2.0,
2072.0,2093.0,20.0,-2.0,
2088.0,2087.0,20.0,-2.0,
2084.0,2086.0,20.0,-2.0,
2093.0,2086.0,20.0,-2.0,
2070.0,2122.0,20.0,-2.0,
2100.0,2121.0,20.0,-2.0,
2030.0,2097.0,20.0,-2.0,
2058.0,2070.0,20.0,-2.0,
2064.0,2131.0,20.0,-2.0,
2054.0,2144.0,20.0,-2.0,
2108.0,2121.0,20.0,-2.0,
2138.0,2096.0,20.0,-2.0,
2093.0,2041.0,20.0,-2.0,
2108.0,2059.0,20.0,-2.0,
2118.0,2078.0,20.0,-2.0,
2071.0,2095.0,20.0,-2.0,
2067.0,2110.0,20.0,-2.0,
2052.0,2074.0,20.0,-2.0,
2089.0,2094.0,20.0,-2.0,
2072.0,2066.0,20.0,-2.0,
2101.0,2096.0,20.0,-2.0,
2075.0,2115.0,20.0,-2.0,
2086.0,2071.0,20.0,-2.0,
2065.0,2080.0,20.0,-2.0,
2059.0,2084.0,20.0,-2.0,
2083.0,2099.0,20.0,-2.0,
2090.0,2106.0,20.0,-2.0,
2088.0,2099.0,20.0,-2.0,
2075.0,2113.0,20.0,-2.0,
2041.0,2156.0,20.0,-2.0,
2017.0,2157.0,20.0,-2.0,
1999.0,2081.0,20.0,-2.0,
2027.0,1964.0,20.0,-2.0,
2093.0,2027.0,20.0,-2.0,
2194.0,2119.0,20.0,-2.0,
2195.0,2118.0,20.0,-2.0,
2132.0,2106.0,20.0,-2.0,
2119.0,2104.0,20.0,-2.0,
2107.0,2087.0,20.0,-2.0,
2078.0,2090.0,20.0,-2.0,
2062.0,2093.0,20.0,-2.0,
2059.0,2109.0,20.0,-2.0,
2057.0,2102.0,20.0,-2.0,
2033.0,2105.0,20.0,-2.0,
2039.0,2099.0,20.0,-2.0,
2052.0,2099.0,20.0,-2.0,
2068.0,2097.0,20.0,-2.0,
2080.0,2090.0,20.0,-2.0,
2086.0,2088.0,20.0,-2.0,
2066.0,2098.0,20.0,-2.0,
2050.0,2119.0,20.0,-2.0,
2048.0,2100.0,20.0,-2.0,
2049.0,2096.0,20.0,-2.0,
2046.0,2093.0,20.0,-2.0,
2053.0,2090.0,20.0,-2.0,
2073.0,2094.0,20.0,-2.0,
2104.0,2079.0,20.0,-2.0,
2094.0,2081.0,20.0,-2.0,
2083.0,2084.0,20.0,-2.0,
2071.0,2115.0,20.0,-2.0,
2063.0,2165.0,20.0,-2.0,
2057.0,2118.0,20.0,-2.0,
2059.0,2073.0,20.0,-2.0,
2070.0,2081.0,20.0,-2.0,
2064.0,2100.0,20.0,-2.0,
2083.0,2103.0,20.0,-2.0,
2080.0,2092.0,20.0,-2.0,
2085.0,2079.0,20.0,-2.0,
2081.0,2085.0,20.0,-2.0,
2086.0,2082.0,20.0,-2.0,
2070.0,2082.0,20.0,-2.0,
2062.0,2084.0,20.0,-2.0,
2084.0,2093.0,20.0,-2.0,
2083.0,2106.0,20.0,-2.0,
2074.0,2101.0,20.0,-2.0,
2112.0,2102.0,20.0,-2.0,
2086.0,2091.0,20.0,-2.0,
2062.0,2075.0,20.0,-2.0,
2048.0,2067.0,20.0,-2.0,
2048.0,2075.0,20.0,-2.0,
2039.0,2086.0,20.0,-2.0,
2051.0,2135.0,20.0,-2.0,
2060.0,2123.0,20.0,-2.0,
2072.0,2098.0,20.0,-2.0,
2089.0,2092.0,20.0,-2.0,
2094.0,2086.0,20.0,-2.0,
2069.0,2052.0,20.0,-2.0,
2033.0,2119.0,20.0,-2.0,
1977.0,2098.0,20.0,-2.0,
2134.0,2159.0,20.0,-2.0,
2120.0,2074.0,20.0,-2.0,
2064.0,2082.0,20.0,-2.0,
2226.0,2110.0,20.0,-3.0,
2199.0,2060.0,20.0,-2.0,
2141.0,2081.0,20.0,-2.0,
2074.0,2108.0,20.0,-2.0,
2081.0,2051.0,20.0,-2.0,
2066.0,2050.0,20.0,-2.0,
2062.0,2073.0,20.0,-2.0,
2058.0,2109.0,20.0,-2.0,
2060.0,2107.0,20.0,-2.0,
2070.0,2109.0,20.0,-2.0,
2076.0,2104.0,20.0,-2.0,
2066.0,2101.0,20.0,-2.0,
2037.0,2120.0,20.0,-2.0,
2054.0,2113.0,20.0,-2.0,
2037.0,2105.0,20.0,-2.0,
2047.0,2100.0,20.0,-2.0,
2059.0,2113.0,20.0,-2.0,
2069.0,2108.0,20.0,-2.0,
2079.0,2113.0,20.0,-2.0,
2072.0,2107.0,20.0,-2.0,
2063.0,2107.0,20.0,-2.0,
2044.0,2079.0,20.0,-2.0,
2024.0,2093.0,20.0,-2.0,
2039.0,2070.0,20.0,-2.0,
2053.0,2067.0,20.0,-2.0,
2067.0,2061.0,20.0,-2.0,
2082.0,2109.0,20.0,-2.0,
2043.0,2122.0,20.0,-2.0,
2033.0,2148.0,20.0,-2.0,
2078.0,2162.0,20.0,-2.0,
2123.0,2110.0,20.0,-2.0,
2107.0,2039.0,20.0,-2.0,
2083.0,2049.0,20.0,-2.0,
2120.0,2071.0,20.0,-2.0,
2090.0,2101.0,20.0,-2.0,
2102.0,2091.0,20.0,-2.0,
2108.0,2107.0,20.0,-2.0,
2104.0,2092.0,20.0,-2.0,
2080.0,2082.0,20.0,-2.0,
2067.0,2103.0,20.0,-2.0,
2057.0,2110.0,20.0,-2.0,
2043.0,2091.0,20.0,-2.0,
2038.0,2092.0,20.0,-2.0,
2055.0,2094.0,20.0,-2.0,
2069.0,2091.0,20.0,-2.0,
2071.0,2091.0,20.0,-2.0,
2073.0,2082.0,20.0,-2.0,
2069.0,2088.0,20.0,-2.0,
2064.0,2081.0,20.0,-2.0,
2071.0,2089.0,20.0,-2.0,
2054.0,2099.0,20.0,-2.0,
2062.0,2081.0,20.0,-2.0,
2068.0,2089.0,20.0,-2.0,
2088.0,2098.0,20.0,-2.0,
2073.0,2085.0,20.0,-2.0,
2058.0,2097.0,20.0,-2.0,
2039.0,2093.0,20.0,-2.0,
2038.0,2105.0,20.0,-2.0,
2009.0,2097.0,20.0,-3.0,
2089.0,2075.0,20.0,-3.0,
1995.0,2115.0,20.0,-3.0,
2129.0,2091.0,20.0,-3.0,
2220.0,2093.0,20.0,-3.0,
2150.0,2093.0,20.0,-3.0,
2141.0,2131.0,20.0,-3.0,
2134.0,2145.0,20.0,-3.0,
2105.0,2095.0,20.0,-3.0,
2077.0,2021.0,20.0,-3.0,
2076.0,2075.0,20.0,-3.0,
2049.0,2085.0,20.0,-3.0,
2053.0,2092.0,20.0,-3.0,
2053.0,2093.0,20.0,-3.0,
2079.0,2091.0,20.0,-3.0,
2059.0,2116.0,20.0,-3.0,
2083.0,2113.0,20.0,-3.0,
2064.0,2106.0,20.0,-3.0,
2040.0,2093.0,20.0,-3.0,
2037.0,2102.0,20.0,-3.0,
2043.0,2102.0,20.0,-2.0,
2036.0,2098.0,20.0,-2.0,
2053.0,2097.0,20.0,-2.0,
2052.0,2104.0,20.0,-2.0,
2061.0,2093.0,20.0,-2.0,
2087.0,2100.0,20.0,-2.0,
2080.0,2075.0,20.0,-2.0,
2104.0,2079.0,20.0,-2.0,
2105.0,2057.0,20.0,-2.0,
2067.0,2075.0,20.0,-2.0,
2075.0,2073.0,20.0,-2.0,
2085.0,2117.0,20.0,-2.0,
2096.0,2128.0,20.0,-2.0,
2106.0,2127.0,20.0,-2.0,
2090.0,2101.0,20.0,-2.0,
2067.0,2115.0,20.0,-2.0,
2054.0,2103.0,20.0,-2.0,
2051.0,2102.0,20.0,-2.0,
2064.0,2094.0,20.0,-2.0,
2048.0,2104.0,20.0,-2.0,
2057.0,2079.0,20.0,-2.0,
2074.0,2101.0,20.0,-2.0,
2078.0,2105.0,20.0,-2.0,
2088.0,2097.0,20.0,-2.0,
2077.0,2079.0,20.0,-2.0,
2081.0,2066.0,20.0,-2.0,
2058.0,2067.0,20.0,-2.0,
2035.0,2078.0,20.0,-2.0,
2043.0,2082.0,20.0,-2.0,
2068.0,2089.0,20.0,-2.0,
2081.0,2110.0,20.0,-2.0,
2086.0,2118.0,20.0,-2.0,
2119.0,2118.0,20.0,-2.0,
2103.0,2098.0,20.0,-2.0,
2130.0,2092.0,20.0,-2.0,
2127.0,2083.0,20.0,-2.0,
2091.0,2108.0,20.0,-2.0,
2081.0,2097.0,20.0,-2.0,
2056.0,2080.0,20.0,-2.0,
2064.0,2111.0,20.0,-2.0,
2070.0,2092.0,20.0,-2.0,
2051.0,2070.0,20.0,-2.0,
2090.0,2117.0,20.0,-2.0,
2074.0,2101.0,20.0,-2.0,
2051.0,2105.0,20.0,-2.0,
2056.0,2036.0,20.0,-2.0,
2090.0,2052.0,20.0,-2.0,
2067.0,2087.0,20.0,-2.0,
2080.0,2132.0,20.0,-2.0,
2084.0,2150.0,20.0,-2.0,
2086.0,2131.0,20.0,-2.0,
2067.0,2105.0,20.0,-2.0,
2063.0,2080.0,20.0,-2.0,
2057.0,2098.0,20.0,-2.0,
2064.0,2101.0,20.0,-2.0,
2080.0,2104.0,20.0,-2.0,
2083.0,2101.0,20.0,-2.0,
2080.0,2109.0,20.0,-2.0,
2106.0,2095.0,20.0,-2.0,
2082.0,2100.0,20.0,-2.0,
2101.0,2102.0,20.0,-2.0,
2066.0,2129.0,20.0,-2.0,
2055.0,2057.0,20.0,-2.0,
2073.0,2047.0,20.0,-2.0,
2092.0,2044.0,20.0,-2.0,
2093.0,2067.0,20.0,-2.0,
2089.0,2143.0,20.0,-2.0,
2078.0,2139.0,20.0,-2.0,
2088.0,2108.0,20.0,-2.0,
2067.0,2094.0,20.0,-2.0,
2065.0,2093.0,20.0,-3.0,
2070.0,2073.0,20.0,-3.0,
2061.0,2082.0,20.0,-3.0,
2085.0,2079.0,20.0,-3.0,
2084.0,2088.0,20.0,-3.0,
2097.0,2096.0,20.0,-3.0,
2102.0,2099.0,20.0,-3.0,
2099.0,2104.0,20.0,-3.0,
2062.0,2095.0,20.0,-3.0,
2047.0,2095.0,20.0,-3.0,
2022.0,2090.0,20.0,-3.0,
2010.0,2106.0,20.0,-3.0,
2039.0,2106.0,20.0,-3.0,
2075.0,2098.0,20.0,-2.0,
2179.0,2094.0,20.0,-2.0,
2158.0,2072.0,20.0,-3.0,
2095.0,2070.0,20.0,-3.0,
2120.0,2075.0,20.0,-3.0,
2102.0,2065.0,20.0,-3.0,
2087.0,2076.0,20.0,-3.0,
2092.0,2117.0,20.0,-3.0,
2092.0,2135.0,20.0,-3.0,
2091.0,2116.0,20.0,-3.0,
2076.0,2112.0,20.0,-3.0,
2070.0,2112.0,20.0,-3.0,
2062.0,2088.0,20.0,-3.0,
2042.0,2088.0,20.0,-3.0,
2075.0,2085.0,20.0,-3.0,
2093.0,2088.0,20.0,-3.0,
2063.0,2082.0,20.0,-3.0,
2050.0,2091.0,20.0,-3.0,
2057.0,2097.0,20.0,-3.0,
2091.0,2107.0,20.0,-3.0,
2096.0,2129.0,20.0,-3.0,
2081.0,2113.0,20.0,-3.0,
2059.0,2078.0,20.0,-3.0,
2028.0,2039.0,20.0,-3.0,
2059.0,2092.0,20.0,-3.0,
2089.0,2058.0,20.0,-3.0,
2045.0,2083.0,20.0,-3.0,
2065.0,2099.0,20.0,-3.0,
2055.0,2102.0,20.0,-3.0,
2055.0,2085.0,20.0,-3.0,
2105.0,2091.0,20.0,-3.0,
2126.0,2097.0,20.0,-3.0,
2100.0,2084.0,20.0,-3.0,
2070.0,2123.0,20.0,-3.0,
2067.0,2091.0,20.0,-3.0,
2068.0,2086.0,20.0,-3.0,
2087.0,2099.0,20.0,-3.0,
2101.0,2100.0,20.0,-3.0,
2104.0,2098.0,20.0,-3.0,
2089.0,2115.0,20.0,-3.0,
2073.0,2101.0,20.0,-3.0,
2057.0,2095.0,20.0,-2.0,
2042.0,2106.0,20.0,-2.0,
2047.0,2098.0,20.0,-2.0,
2064.0,2102.0,20.0,-2.0,
2076.0,2110.0,20.0,-2.0,
2084.0,2108.0,20.0,-2.0,
2084.0,2103.0,20.0,-2.0,
2082.0,2079.0,20.0,-2.0,
2062.0,2079.0,20.0,-2.0,
2059.0,2092.0,20.0,-2.0,
2060.0,2074.0,20.0,-2.0,
2077.0,2081.0,20.0,-2.0,
2070.0,2093.0,20.0,-2.0,
2040.0,2098.0,20.0,-2.0,
2088.0,2105.0,20.0,-2.0,
2099.0,2099.0,20.0,-2.0,
2097.0,2090.0,20.0,-2.0,
2097.0,2089.0,20.0,-2.0,
2093.0,2115.0,20.0,-2.0,
2056.0,2097.0,20.0,-2.0,
2062.0,2079.0,20.0,-2.0,
2088.0,2084.0,20.0,-2.0,
2098.0,2090.0,20.0,-2.0,
2122.0,2098.0,20.0,-2.0,
2114.0,2115.0,20.0,-2.0,
2109.0,2089.0,20.0,-2.0,
2113.0,2080.0,20.0,-2.0,
2096.0,2100.0,20.0,-2.0,
2065.0,2094.0,20.0,-2.0,
2055.0,2086.0,20.0,-2.0,
2061.0,2078.0,20.0,-2.0,
2054.0,2090.0,20.0,-2.0,
2075.0,2105.0,20.0,-2.0,
2090.0,2093.0,20.0,-2.0,
2054.0,2093.0,20.0,-2.0,
2106.0,2113.0,20.0,-3.0,
2077.0,2114.0,20.0,-2.0,
2043.0,2104.0,20.0,-2.0,
1999.0,2097.0,20.0,-3.0,
2083.0,2055.0,20.0,-3.0,
2110.0,2061.0,20.0,-3.0,
2101.0,2080.0,20.0,-3.0,
2091.0,2127.0,20.0,-3.0,
2083.0,2118.0,20.0,-3.0,
2065.0,2117.0,20.0,-3.0,
2072.0,2044.0,20.0,-3.0,
2078.0,2048.0,20.0,-3.0,
2090.0,2073.0,20.0,-3.0,
2091.0,2127.0,20.0,-3.0,
2055.0,2126.0,20.0,-3.0,
2100.0,2110.0,20.0,-3.0,
2100.0,2099.0,20.0,-3.0,
2090.0,2103.0,20.0,-2.0,
2076.0,2102.0,20.0,-3.0,
2067.0,2083.0,20.0,-3.0,
2055.0,2097.0,20.0,-3.0,
2042.0,2097.0,20.0,-3.0,
2059.0,2126.0,20.0,-3.0,
2075.0,2074.0,20.0,-3.0,
2122.0,2079.0,20.0,-3.0,
2089.0,2067.0,20.0,-3.0,
2098.0,2128.0,20.0,-3.0,
2070.0,2094.0,20.0,-3.0,
2036.0,2097.0,20.0,-3.0,
2026.0,2109.0,20.0,-3.0,
2065.0,2095.0,20.0,-3.0,
2056.0,2087.0,20.0,-3.0,
2091.0,2090.0,20.0,-3.0,
2107.0,2080.0,20.0,-3.0,
2077.0,2095.0,20.0,-3.0,
2098.0,2083.0,20.0,-3.0,
2168.0,2092.0,20.0,-3.0,
2101.0,2089.0,20.0,-3.0,
2069.0,2079.0,20.0,-3.0,
2054.0,2104.0,20.0,-3.0,
2060.0,2116.0,20.0,-3.0,
2058.0,2113.0,20.0,-3.0,
2056.0,2091.0,20.0,-3.0,
2042.0,2074.0,20.0,-3.0,
2126.0,2090.0,20.0,-3.0,
2100.0,2112.0,20.0,-3.0,
2049.0,2100.0,20.0,-3.0,
2025.0,2092.0,20.0,-3.0,
2056.0,2092.0,20.0,-2.0,
2067.0,2092.0,20.0,-2.0,
2068.0,2080.0,20.0,-2.0,
2139.0,2089.0,20.0,-3.0,
2124.0,2097.0,20.0,-3.0,
2076.0,2105.0,20.0,-3.0,
2074.0,2114.0,20.0,-3.0,
2073.0,2111.0,20.0,-3.0,
2047.0,2097.0,20.0,-3.0,
2040.0,2020.0,20.0,-3.0,
2073.0,2065.0,20.0,-3.0,
2094.0,2073.0,20.0,-3.0,
2094.0,2151.0,20.0,-3.0,
2096.0,2139.0,20.0,-3.0,
2092.0,2095.0,20.0,-3.0,
2082.0,2095.0,20.0,-2.0,
2077.0,2108.0,20.0,-3.0,
2046.0,2096.0,20.0,-3.0,
2061.0,2094.0,20.0,-3.0,
2062.0,2083.0,20.0,-2.0,
2111.0,2080.0,20.0,-3.0,
2134.0,2096.0,20.0,-2.0,
2103.0,2094.0,20.0,-2.0,
2088.0,2089.0,20.0,-3.0,
2076.0,2080.0,20.0,-3.0,
2072.0,2066.0,20.0,-3.0,
2074.0,2054.0,20.0,-2.0,
2090.0,2066.0,20.0,-2.0,
2084.0,2120.0,0,
2053.0,2122.0,20.0,-2.0,
2041.0,2118.0,20.0,-2.0,
2048.0,2124.0,20.0,-2.0,
2062.0,2135.0,20.0,-2.0,
2030.0,2055.0,20.0,-2.0,
2042.0,2100.0,20.0,-2.0,
2094.0,2062.0,20.0,-2.0,
2106.0,2030.0,20.0,-2.0,
2117.0,2060.0,20.0,-2.0,
2088.0,2081.0,20.0,-2.0,
2124.0,2131.0,20.0,-2.0,
2095.0,2105.0,20.0,-2.0,
2092.0,2100.0,20.0,-2.0,
2072.0,2084.0,20.0,-3.0,
2066.0,2099.0,20.0,-3.0,
2056.0,2106.0,20.0,-3.0,
2067.0,2093.0,20.0,-3.0,
2060.0,2061.0,0,
2071.0,2098.0,20.0,-3.0,
2082.0,2100.0,20.0,-3.0,
2081.0,2085.0,20.0,-3.0,
2065.0,2088.0,20.0,-3.0,
2063.0,2108.0,20.0,-3.0,
2050.0,2107.0,20.0,-3.0,
2060.0,2098.0,20.0,-3.0,
2078.0,2103.0,20.0,-3.0,
2056.0,2099.0,20.0,-3.0,
2063.0,2086.0,20.0,-3.0,
2108.0,2082.0,20.0,-3.0,
2108.0,2093.0,20.0,-2.0,
2081.0,2093.0,20.0,-2.0,
2058.0,2077.0,20.0,-3.0,
2000.0,2077.0,20.0,-3.0,
2044.0,2077.0,20.0,-3.0,
1993.0,2136.0,20.0,-3.0,
2094.0,2125.0,20.0,-3.0,
2153.0,2078.0,20.0,-3.0,
2228.0,2089.0,20.0,-3.0,
2159.0,2095.0,20.0,-3.0,
2119.0,2091.0,20.0,-3.0,
2093.0,2076.0,20.0,-3.0,
2063.0,2080.0,20.0,-3.0,
2074.0,2082.0,20.0,-3.0,
2051.0,2086.0,20.0,-3.0,
2069.0,2095.0,20.0,-3.0,
2055.0,2102.0,20.0,-3.0,
2081.0,2102.0,20.0,-3.0,
2082.0,2098.0,20.0,-3.0,
2090.0,2102.0,20.0,-3.0,
2079.0,2100.0,20.0,-3.0,
2089.0,2102.0,20.0,-3.0,
2073.0,2100.0,20.0,-3.0,
2055.0,2096.0,20.0,-3.0,
2051.0,2098.0,20.0,-3.0,
2057.0,2098.0,20.0,-3.0,
2080.0,2095.0,20.0,-3.0,
2088.0,2098.0,20.0,-3.0,
2087.0,2103.0,20.0,-3.0,
2085.0,2118.0,20.0,-3.0,
2053.0,2107.0,20.0,-3.0,
2041.0,2111.0,20.0,-2.0,
2034.0,2102.0,20.0,-2.0,
2050.0,2096.0,20.0,-2.0,
2062.0,2115.0,20.0,-2.0,
2110.0,2023.0,20.0,-2.0,
2084.0,2027.0,20.0,-2.0,
2133.0,2097.0,20.0,-2.0,
2137.0,2143.0,20.0,-2.0,
2106.0,2109.0,20.0,-2.0,
2098.0,2090.0,20.0,-2.0,
2091.0,2097.0,20.0,-3.0,
2039.0,2117.0,20.0,-3.0,
2063.0,2101.0,20.0,-3.0,
2076.0,2116.0,20.0,-3.0,
2083.0,2071.0,20.0,-3.0,
2074.0,2084.0,20.0,-3.0,
2076.0,2090.0,20.0,-3.0,
2077.0,2086.0,20.0,-3.0,
2081.0,2093.0,20.0,-3.0,
2098.0,2113.0,20.0,-3.0,
2056.0,2085.0,20.0,-3.0,
2077.0,2086.0,20.0,-3.0,
2078.0,2084.0,20.0,-3.0,
2085.0,2090.0,20.0,-3.0,
2092.0,2067.0,20.0,-3.0,
2094.0,2069.0,20.0,-3.0,
2074.0,2112.0,20.0,-3.0,
2047.0,2096.0,20.0,-3.0,
2013.0,2104.0,20.0,-3.0,
1997.0,2114.0,20.0,-3.0,
2005.0,2097.0,20.0,-3.0,
2098.0,2124.0,20.0,-3.0,
2080.0,2111.0,20.0,-2.0,
2138.0,2071.0,20.0,-3.0,
2157.0,2062.0,20.0,-3.0,
2128.0,2078.0,20.0,-3.0,
2120.0,2093.0,20.0,-3.0,
2089.0,2078.0,20.0,-3.0,
2090.0,2059.0,20.0,-3.0,
2065.0,2078.0,20.0,-3.0,
2079.0,2115.0,20.0,-3.0,
2086.0,2126.0,20.0,-3.0,
2077.0,2130.0,20.0,-3.0,
2064.0,2116.0,20.0,-3.0,
2068.0,2105.0,20.0,-3.0,
2050.0,2093.0,20.0,-3.0,
2045.0,2088.0,20.0,-3.0,
2037.0,2094.0,20.0,-3.0,
2044.0,2118.0,20.0,-3.0,
2059.0,2127.0,20.0,-3.0,
2062.0,2129.0,20.0,-3.0,
2058.0,2116.0,20.0,-3.0,
2053.0,2101.0,20.0,-3.0,
2085.0,2069.0,20.0,-3.0,
2086.0,2057.0,20.0,-3.0,
2066.0,2063.0,20.0,-3.0,
2070.0,2076.0,20.0,-3.0,
2078.0,2072.0,20.0,-3.0,
2114.0,2093.0,20.0,-3.0,
2097.0,2067.0,20.0,-2.0,
2099.0,2080.0,20.0,-3.0,
2082.0,2107.0,20.0,-3.0,
2101.0,2107.0,20.0,-3.0,
2053.0,2065.0,20.0,-3.0,
2053.0,2092.0,20.0,-3.0,
2047.0,2127.0,20.0,-3.0,
2091.0,2107.0,20.0,-2.0,
2091.0,2064.0,20.0,-3.0,
2047.0,2080.0,20.0,-3.0,
2065.0,2053.0,0,
2046.0,2092.0,20.0,-2.0,
2056.0,2125.0,20.0,-2.0,
2053.0,2123.0,20.0,-2.0,
2048.0,2087.0,20.0,-2.0,
2067.0,2057.0,20.0,-2.0,
2145.0,2138.0,20.0,-2.0,
2122.0,2106.0,20.0,-2.0,
2109.0,2068.0,19.0,-2.0,
2096.0,2063.0,19.0,-2.0,
2113.0,2086.0,19.0,-2.0,
2068.0,2124.0,19.0,-2.0,
2036.0,2131.0,19.0,-2.0,
2045.0,2130.0,19.0,-2.0,
2034.0,2115.0,19.0,-3.0,
2068.0,2137.0,19.0,-2.0,
2121.0,2076.0,19.0,-2.0,
2095.0,2050.0,19.0,-2.0,
2078.0,2101.0,19.0,-2.0,
2040.0,2051.0,19.0,-2.0,
2077.0,2065.0,19.0,-2.0,
2086.0,2082.0,19.0,-3.0,
2050.0,2057.0,19.0,-3.0,
2050.0,2074.0,19.0,-3.0,
2034.0,2122.0,19.0,-3.0,
2042.0,2067.0,19.0,-3.0,
2050.0,2101.0,19.0,-3.0,
2074.0,2107.0,19.0,-3.0,
2089.0,2104.0,20.0,-3.0,
2065.0,2104.0,20.0,-3.0,
2047.0,2118.0,20.0,-3.0,
2062.0,2156.0,20.0,-3.0,
2052.0,2077.0,20.0,-3.0,
2049.0,2074.0,20.0,-3.0,
2063.0,2051.0,20.0,-3.0,
2054.0,2085.0,20.0,-3.0,
2108.0,2101.0,20.0,-2.0,
2138.0,2105.0,21.0,-2.0,
2096.0,2062.0,21.0,-2.0,
2044.0,2044.0,21.0,-2.0,
2041.0,2090.0,21.0,-2.0,
2051.0,2093.0,21.0,-2.0,
2048.0,2127.0,21.0,-2.0,
2077.0,2141.0,21.0,-2.0,
2147.0,2153.0,21.0,-2.0,
2112.0,2105.0,21.0,-2.0,
2076.0,2094.0,21.0,-2.0,
2130.0,2065.0,21.0,-2.0,
2090.0,2108.0,21.0,-2.0,
2118.0,2117.0,21.0,-2.0,
2048.0,2014.0,21.0,-2.0,
2016.0,2049.0,21.0,-2.0,
2039.0,2081.0,21.0,-2.0,
2089.0,2100.0,21.0,-2.0,
2049.0,2113.0,21.0,-2.0,
2053.0,2069.0,21.0,-2.0,
2066.0,2104.0,21.0,-3.0,
2073.0,2112.0,21.0,-3.0,
2063.0,2065.0,20.0,-3.0,
2046.0,2089.0,20.0,-3.0,
2047.0,2122.0,20.0,-3.0,
2019.0,2127.0,20.0,-3.0,
2038.0,2094.0,20.0,-2.0,
2052.0,2079.0,20.0,-2.0,
2131.0,2095.0,20.0,-3.0,
2118.0,2117.0,20.0,-3.0,
2050.0,2099.0,20.0,-3.0,
2077.0,2058.0,20.0,-3.0,
2042.0,2078.0,20.0,-3.0,
2069.0,2083.0,20.0,-3.0,
2070.0,2089.0,20.0,-3.0,
2075.0,2105.0,20.0,-3.0,
2046.0,2172.0,20.0,-3.0,
2079.0,2104.0,20.0,-3.0,
2101.0,2090.0,20.0,-3.0,
2124.0,2092.0,20.0,-3.0,
2061.0,2095.0,20.0,-3.0,
2062.0,2083.0,21.0,-3.0,
2126.0,2094.0,21.0,-3.0,
2132.0,2132.0,21.0,-3.0,
2093.0,2143.0,21.0,-3.0,
2079.0,2105.0,21.0,-3.0,
2086.0,2078.0,21.0,-3.0,
2050.0,2108.0,21.0,-3.0,
2100.0,2106.0,22.0,-3.0,
2094.0,2111.0,22.0,-3.0,
2043.0,2040.0,22.0,-3.0,
2015.0,2057.0,22.0,-3.0,
2003.0,2109.0,22.0,-3.0,
2002.0,2093.0,22.0,-3.0,
2060.0,2029.0,22.0,-3.0,
2119.0,2055.0,22.0,-3.0,
2078.0,2051.0,23.0,-3.0,
2060.0,2011.0,23.0,-3.0,
2227.0,2075.0,23.0,-3.0,
2198.0,2110.0,23.0,-3.0,
2094.0,2151.0,23.0,-3.0,
2040.0,2120.0,23.0,-2.0,
2014.0,2101.0,23.0,-2.0,
2095.0,2152.0,23.0,-2.0,
2145.0,2125.0,23.0,-2.0,
2095.0,2075.0,23.0,-2.0,
2115.0,2070.0,23.0,-2.0,
2060.0,2007.0,23.0,-2.0,
2055.0,2129.0,23.0,-2.0,
2079.0,2153.0,23.0,-2.0,
2062.0,2125.0,23.0,-2.0,
2147.0,2122.0,23.0,-2.0,
2059.0,1993.0,23.0,-2.0,
2066.0,2037.0,23.0,-2.0,
2121.0,2050.0,23.0,-2.0,
2106.0,2125.0,23.0,-2.0,
2072.0,2109.0,23.0,-2.0,
2055.0,2138.0,23.0,-2.0,
2044.0,2110.0,23.0,-2.0,
2084.0,2039.0,23.0,-2.0,
2101.0,2068.0,22.0,-2.0,
2073.0,2074.0,22.0,-2.0,
2057.0,2110.0,22.0,-2.0,
2053.0,2142.0,22.0,-2.0,
2050.0,2144.0,22.0,-2.0,
2026.0,2069.0,22.0,-2.0,
2038.0,2106.0,22.0,-2.0,
2032.0,2091.0,22.0,-2.0,
2043.0,2088.0,22.0,-2.0,
2063.0,2113.0,23.0,-2.0,
2101.0,2110.0,23.0,-2.0,
2085.0,2101.0,23.0,-2.0,
2067.0,2097.0,23.0,-2.0,
2099.0,2105.0,23.0,-2.0,
2106.0,2122.0,23.0,-2.0,
2123.0,2114.0,24.0,-2.0,
2092.0,2111.0,24.0,-3.0,
2094.0,2089.0,24.0,-3.0,
2068.0,2128.0,24.0,-2.0,
2089.0,2112.0,25.0,-2.0,
2106.0,2097.0,25.0,-2.0,
2055.0,2137.0,0,
2115.0,2095.0,25.0,-3.0,
2086.0,2089.0,25.0,-3.0,
2054.0,2023.0,26.0,-3.0,
2068.0,2055.0,26.0,-3.0,
2049.0,1996.0,26.0,-3.0,
2057.0,2059.0,26.0,-3.0,
2039.0,2102.0,26.0,-3.0,
2064.0,2123.0,26.0,-3.0,
2053.0,2067.0,26.0,-3.0,
2044.0,2040.0,26.0,-3.0,
2049.0,2067.0,26.0,-2.0,
2148.0,2097.0,26.0,-2.0,
2147.0,2104.0,26.0,-2.0,
2095.0,2162.0,27.0,-2.0,
2037.0,1980.0,27.0,-2.0,
2064.0,2035.0,27.0,-2.0,
2079.0,2122.0,27.0,-2.0,
2047.0,2082.0,27.0,-2.0,
1989.0,2134.0,27.0,-2.0,
2071.0,2141.0,27.0,-2.0,
2042.0,2102.0,27.0,-2.0,
2059.0,2138.0,27.0,-2.0,
2065.0,2067.0,26.0,-2.0,
2073.0,2035.0,26.0,-2.0,
2099.0,2094.0,26.0,-2.0,
2087.0,2119.0,26.0,-2.0,
2096.0,2198.0,26.0,-2.0,
2059.0,2106.0,26.0,-2.0,
1992.0,2021.0,26.0,-2.0,
2026.0,2117.0,26.0,-2.0,
2122.0,2087.0,27.0,-1.0,
2126.0,2092.0,27.0,-1.0,
2145.0,2121.0,27.0,-2.0,
2114.0,2082.0,27.0,-2.0,
2075.0,2089.0,27.0,-2.0,
2046.0,2130.0,26.0,-2.0,
2071.0,2179.0,26.0,-2.0,
2090.0,2090.0,26.0,-2.0,
2091.0,2053.0,27.0,-2.0,
2088.0,2055.0,27.0,-2.0,
2079.0,2097.0,28.0,-2.0,
2056.0,2102.0,28.0,-2.0,
2060.0,2091.0,28.0,-2.0,
2095.0,2065.0,29.0,-2.0,
2072.0,2078.0,30.0,-2.0,
2040.0,2122.0,31.0,-2.0,
2054.0,2096.0,31.0,-2.0,
2046.0,2085.0,32.0,-2.0,
2078.0,2098.0,32.0,-2.0,
2164.0,2109.0,32.0,-2.0,
2154.0,2104.0,32.0,-2.0,
2092.0,2123.0,32.0,-2.0,
2025.0,2074.0,32.0,-2.0,
2019.0,2113.0,32.0,-2.0,
2076.0,2168.0,32.0,-2.0,
2050.0,2006.0,33.0,-2.0,
2055.0,2019.0,33.0,-2.0,
2095.0,2116.0,33.0,-2.0,
2070.0,2139.0,33.0,-2.0,
2054.0,2038.0,33.0,-2.0,
2070.0,2063.0,33.0,-2.0,
2080.0,2092.0,34.0,-2.0,
2078.0,2093.0,34.0,-2.0,
2076.0,2125.0,34.0,-2.0,
2043.0,2183.0,34.0,-2.0,
2062.0,2088.0,34.0,-2.0,
2028.0,2075.0,34.0,-2.0,
2105.0,2124.0,34.0,-2.0,
2113.0,2084.0,34.0,-2.0,
2044.0,2097.0,34.0,-2.0,
2032.0,2096.0,34.0,-2.0,
2068.0,2025.0,34.0,-2.0,
2085.0,2056.0,34.0,-2.0,
2088.0,2060.0,34.0,-2.0,
2086.0,2104.0,34.0,-2.0,
2114.0,2109.0,34.0,-2.0,
2047.0,2081.0,34.0,-2.0,
2104.0,2133.0,34.0,-2.0,
2142.0,2179.0,34.0,-2.0,
2057.0,2089.0,34.0,-1.0,
2036.0,2016.0,34.0,-2.0,
2094.0,2018.0,34.0,-1.0,
2099.0,2103.0,34.0,-1.0,
2086.0,2130.0,34.0,-2.0,
2099.0,2094.0,34.0,-2.0,
2083.0,2081.0,35.0,-2.0,
2035.0,2052.0,35.0,-2.0,
2057.0,2105.0,35.0,-2.0,
2065.0,2140.0,35.0,-2.0,
2041.0,2118.0,35.0,-2.0,
2057.0,2083.0,35.0,-2.0,
2107.0,2127.0,36.0,-2.0,
2114.0,2153.0,36.0,-2.0,
2078.0,2059.0,36.0,-2.0,
2078.0,2106.0,36.0,-2.0,
2057.0,2098.0,36.0,-2.0,
2002.0,2150.0,36.0,-2.0,
2017.0,2040.0,37.0,-2.0,
2041.0,2117.0,37.0,-2.0,
2099.0,2092.0,37.0,-2.0,
2116.0,2109.0,37.0,-2.0,
2102.0,2030.0,37.0,-2.0,
2091.0,2039.0,37.0,-2.0,
2055.0,2104.0,37.0,-2.0,
2056.0,2104.0,37.0,-2.0,
2049.0,2101.0,37.0,-2.0,
2012.0,2081.0,37.0,-2.0,
2027.0,2057.0,37.0,-2.0,
2102.0,2091.0,37.0,-2.0,
2166.0,2162.0,37.0,-2.0,
2188.0,2153.0,37.0,-2.0,
2049.0,2013.0,37.0,-2.0,
2078.0,2089.0,37.0,-2.0,
2056.0,2053.0,37.0,-2.0,
2077.0,2079.0,37.0,-2.0,
2053.0,2098.0,38.0,-2.0,
2070.0,2140.0,38.0,-2.0,
2066.0,2095.0,38.0,-2.0,
2075.0,2110.0,38.0,-2.0,
2100.0,2140.0,38.0,-2.0,
2113.0,2158.0,38.0,-2.0,
2048.0,2076.0,38.0,-2.0,
2095.0,2162.0,38.0,-2.0,
2062.0,2066.0,39.0,-2.0,
2058.0,2054.0,39.0,-2.0,
2052.0,2087.0,39.0,-2.0,
2079.0,2117.0,39.0,-2.0,
2097.0,2107.0,39.0,-2.0,
2114.0,2087.0,39.0,-2.0,
2110.0,1981.0,39.0,-2.0,
2053.0,2087.0,40.0,-2.0,
2046.0,2136.0,40.0,-2.0,
2064.0,2120.0,40.0,-2.0,
2042.0,2067.0,40.0,-2.0,
2060.0,2045.0,40.0,-2.0,
2065.0,2113.0,40.0,-2.0,
2081.0,2113.0,40.0,-2.0,
2066.0,2093.0,40.0,-2.0,
2043.0,2151.0,40.0,-2.0,
2056.0,2107.0,40.0,-2.0,
2035.0,2054.0,40.0,-2.0,
2082.0,2104.0,40.0,-2.0,
2067.0,2102.0,40.0,-2.0,
2089.0,2122.0,40.0,-2.0,
2095.0,2098.0,40.0,-2.0,
2055.0,2135.0,40.0,-2.0,
2105.0,2056.0,40.0,-2.0,
2068.0,2136.0,40.0,-2.0,
2110.0,2202.0,41.0,-2.0,
2018.0,2028.0,41.0,-2.0,
2034.0,1858.0,41.0,-2.0,
2058.0,1989.0,41.0,-2.0,
2107.0,2082.0,41.0,-2.0,
2111.0,2069.0,41.0,-2.0,
2105.0,2125.0,41.0,-2.0,
2072.0,2111.0,41.0,-2.0,
2091.0,2177.0,41.0,-2.0,
2109.0,2082.0,41.0,-2.0,
2100.0,2052.0,41.0,-2.0,
2056.0,2109.0,41.0,-2.0,
2039.0,2070.0,41.0,-2.0,
2043.0,2151.0,41.0,-2.0,
2093.0,2129.0,41.0,-2.0,
2091.0,2125.0,41.0,-2.0,
2034.0,2100.0,41.0,-2.0,
2013.0,2048.0,41.0,-2.0,
2072.0,2070.0,41.0,-2.0,
2041.0,2169.0,41.0,-2.0,
2042.0,2107.0,41.0,-2.0,
2002.0,2091.0,41.0,-2.0,
2076.0,2079.0,41.0,-2.0,
2136.0,2087.0,41.0,-2.0,
2079.0,2090.0,41.0,-2.0,
2102.0,2096.0,41.0,-2.0,
2057.0,2104.0,41.0,-2.0,
2037.0,2065.0,41.0,-2.0,
2075.0,2111.0,42.0,-2.0,
2091.0,2136.0,42.0,-2.0,
2053.0,2147.0,42.0,-2.0,
2043.0,2093.0,42.0,-2.0,
2058.0,2113.0,42.0,-2.0,
2087.0,2074.0,42.0,-2.0,
2034.0,2074.0,42.0,-2.0,
2076.0,2111.0,43.0,-2.0,
2139.0,2151.0,43.0,-2.0,
2030.0,2052.0,43.0,-2.0,
2022.0,2084.0,43.0,-2.0,
2081.0,2082.0,43.0,-2.0,
2134.0,2156.0,43.0,-2.0,
2105.0,2065.0,43.0,-3.0,
2141.0,2064.0,43.0,-3.0,
2125.0,2073.0,43.0,-3.0,
2053.0,2137.0,43.0,-2.0,
2071.0,2097.0,44.0,-2.0,
1982.0,2072.0,44.0,-2.0,
1965.0,2022.0,44.0,-2.0,
2122.0,2148.0,44.0,-2.0,
2175.0,2184.0,0,
2165.0,2062.0,44.0,-2.0,
2092.0,2067.0,44.0,-2.0,
2061.0,2053.0,44.0,-2.0,
2031.0,2082.0,44.0,-2.0,
2072.0,2042.0,44.0,-2.0,
2055.0,2064.0,44.0,-2.0,
2089.0,2102.0,44.0,-2.0,
2080.0,2091.0,44.0,-2.0,
2092.0,2097.0,44.0,-2.0,
2079.0,2116.0,44.0,-2.0,
2108.0,2146.0,44.0,-2.0,
2031.0,2078.0,44.0,-2.0,
2047.0,2120.0,44.0,-2.0,
2036.0,2169.0,44.0,-2.0,
2080.0,2161.0,45.0,-2.0,
2094.0,2102.0,45.0,-2.0,
2100.0,2107.0,45.0,-2.0,
2062.0,2115.0,45.0,-2.0,
