2106.0,2104.0,16.0,-12.0,
2074.0,2105.0,16.0,-12.0,
2097.0,2100.0,16.0,-12.0,
2049.0,2084.0,16.0,-11.0,
2051.0,2081.0,16.0,-11.0,
2065.0,2074.0,16.0,-11.0,
2090.0,2091.0,16.0,-11.0,
2066.0,2082.0,16.0,-11.0,
2075.0,2096.0,16.0,-11.0,
2091.0,2099.0,16.0,-11.0,
2101.0,2091.0,16.0,-11.0,
2082.0,2085.0,16.0,-11.0,
2063.0,2086.0,16.0,-11.0,
2061.0,2085.0,16.0,-11.0,
2063.0,2085.0,16.0,-10.0,
2106.0,2092.0,16.0,-10.0,
2070.0,2087.0,16.0,-10.0,
2063.0,2090.0,16.0,-10.0,
2069.0,2099.0,16.0,-10.0,
2089.0,2091.0,16.0,-10.0,
2074.0,2084.0,16.0,-10.0,
2054.0,2079.0,16.0,-10.0,
2069.0,2084.0,16.0,-10.0,
2062.0,2083.0,16.0,-10.0,
2083.0,2087.0,16.0,-10.0,
2066.0,2087.0,16.0,-10.0,
2065.0,2097.0,16.0,-11.0,
2079.0,2101.0,16.0,-11.0,
2072.0,2103.0,16.0,-11.0,
2082.0,2093.0,16.0,-11.0,
2046.0,2086.0,16.0,-11.0,
2057.0,2087.0,16.0,-11.0,
2057.0,2081.0,16.0,-11.0,
2083.0,2090.0,16.0,-11.0,
2070.0,2088.0,15.0,-11.0,
2074.0,2095.0,15.0,-11.0,
2079.0,2093.0,15.0,-11.0,
2098.0,2094.0,15.0,-11.0,
2084.0,2090.0,15.0,-11.0,
2051.0,2086.0,15.0,-11.0,
2053.0,2085.0,15.0,-11.0,
2058.0,2085.0,15.0,-11.0,
2103.0,2102.0,15.0,-11.0,
2071.0,2094.0,15.0,-11.0,
2070.0,2100.0,15.0,-11.0,
2078.0,2104.0,15.0,-11.0,
2090.0,2096.0,14.0,-11.0,
2077.0,2080.0,14.0,-11.0,
2061.0,2090.0,14.0,-11.0,
2040.0,2096.0,14.0,-11.0,
2054.0,2096.0,14.0,-11.0,
2074.0,2105.0,14.0,-11.0,
2060.0,2096.0,14.0,-11.0,
2051.0,2096.0,14.0,-11.0,
2063.0,2076.0,14.0,-11.0,
2078.0,2067.0,14.0,-11.0,
2065.0,2080.0,14.0,-11.0,
2033.0,2079.0,14.0,-11.0,
2030.0,2085.0,14.0,-12.0,
2048.0,2080.0,14.0,-12.0,
2075.0,2098.0,14.0,-12.0,
2050.0,2115.0,14.0,-12.0,
2053.0,2108.0,14.0,-12.0,
2066.0,2097.0,14.0,-12.0,
2078.0,2088.0,14.0,-12.0,
2089.0,2101.0,14.0,-12.0,
2056.0,2093.0,14.0,-12.0,
2060.0,2089.0,14.0,-12.0,
2054.0,2082.0,14.0,-12.0,
2088.0,2097.0,14.0,-12.0,
2070.0,2096.0,14.0,-12.0,
2070.0,2094.0,14.0,-12.0,
2081.0,2101.0,14.0,-12.0,
2101.0,2098.0,14.0,-12.0,
2095.0,2086.0,14.0,-12.0,
2052.0,2096.0,15.0,-12.0,
2052.0,2087.0,15.0,-12.0,
2046.0,2080.0,15.0,-12.0,
2089.0,2086.0,15.0,-12.0,
2070.0,2092.0,15.0,-12.0,
2068.0,2099.0,15.0,-12.0,
2065.0,2088.0,15.0,-12.0,
2092.0,2087.0,15.0,-12.0,
2084.0,2085.0,15.0,-12.0,
2050.0,2088.0,15.0,-12.0,
2051.0,2087.0,15.0,-12.0,
2064.0,2084.0,15.0,-12.0,
2076.0,2083.0,15.0,-11.0,
2080.0,2085.0,15.0,-11.0,
2061.0,2091.0,15.0,-11.0,
2071.0,2095.0,15.0,-11.0,
2087.0,2098.0,15.0,-11.0,
2083.0,2101.0,15.0,-11.0,
2054.0,2086.0,15.0,-11.0,
2042.0,2079.0,15.0,-11.0,
2047.0,2087.0,15.0,-11.0,
2080.0,2094.0,15.0,-11.0,
2075.0,2096.0,15.0,-11.0,
2066.0,2104.0,15.0,-11.0,
2077.0,2096.0,15.0,-11.0,
2092.0,2099.0,16.0,-11.0,
2096.0,2081.0,16.0,-11.0,
2067.0,2087.0,16.0,-11.0,
2057.0,2083.0,16.0,-11.0,
2057.0,2085.0,16.0,-11.0,
2081.0,2098.0,16.0,-11.0,
2086.0,2103.0,16.0,-11.0,
2066.0,2101.0,16.0,-11.0,
2074.0,2077.0,16.0,-11.0,
2078.0,2069.0,16.0,-11.0,
2088.0,2083.0,16.0,-11.0,
2058.0,2082.0,16.0,-11.0,
2059.0,2094.0,16.0,-11.0,
2055.0,2098.0,16.0,-11.0,
2073.0,2091.0,15.0,-11.0,
2070.0,2081.0,15.0,-11.0,
2069.0,2085.0,15.0,-11.0,
2074.0,2094.0,15.0,-11.0,
2083.0,2096.0,15.0,-11.0,
2095.0,2096.0,15.0,-11.0,
2058.0,2085.0,15.0,-11.0,
2046.0,2090.0,15.0,-11.0,
2048.0,2088.0,15.0,-11.0,
2093.0,2087.0,15.0,-11.0,
2077.0,2103.0,15.0,-11.0,
2074.0,2097.0,15.0,-11.0,
2086.0,2102.0,15.0,-11.0,
2089.0,2097.0,15.0,-11.0,
2100.0,2095.0,15.0,-11.0,
2050.0,2094.0,15.0,-11.0,
2051.0,2089.0,15.0,-11.0,
2046.0,2085.0,15.0,-11.0,
2078.0,2089.0,15.0,-11.0,
2087.0,2093.0,15.0,-12.0,
2060.0,2094.0,15.0,-12.0,
2061.0,2094.0,15.0,-12.0,
2073.0,2096.0,15.0,-12.0,
2085.0,2097.0,15.0,-12.0,
2049.0,2078.0,15.0,-12.0,
2062.0,2085.0,15.0,-12.0,
2051.0,2080.0,15.0,-12.0,
2099.0,2095.0,15.0,-12.0,
2077.0,2089.0,15.0,-12.0,
2059.0,2078.0,15.0,-12.0,
2066.0,2078.0,15.0,-12.0,
2078.0,2088.0,15.0,-12.0,
2087.0,2087.0,15.0,-12.0,
2061.0,2085.0,15.0,-12.0,
2054.0,2077.0,15.0,-12.0,
2055.0,2076.0,15.0,-12.0,
2083.0,2085.0,15.0,-12.0,
2092.0,2090.0,15.0,-12.0,
2065.0,2110.0,15.0,-12.0,
2065.0,2099.0,15.0,-12.0,
2073.0,2100.0,15.0,-12.0,
2098.0,2098.0,15.0,-12.0,
2070.0,2069.0,15.0,-12.0,
2057.0,2081.0,15.0,-12.0,
2060.0,2087.0,15.0,-12.0,
2070.0,2092.0,15.0,-12.0,
2082.0,2092.0,15.0,-12.0,
2066.0,2093.0,15.0,-12.0,
2073.0,2096.0,15.0,-12.0,
2075.0,2095.0,15.0,-12.0,
2080.0,2097.0,15.0,-12.0,
2066.0,2104.0,15.0,-12.0,
2057.0,2088.0,15.0,-12.0,
2051.0,2088.0,15.0,-11.0,
2084.0,2087.0,15.0,-11.0,
2081.0,2097.0,15.0,-11.0,
2067.0,2095.0,15.0,-12.0,
2074.0,2105.0,15.0,-11.0,
2079.0,2109.0,15.0,-11.0,
2099.0,2103.0,15.0,-12.0,
2071.0,2099.0,15.0,-11.0,
2055.0,2081.0,15.0,-12.0,
2055.0,2088.0,15.0,-11.0,
2077.0,2089.0,15.0,-12.0,
2085.0,2084.0,15.0,-11.0,
2068.0,2095.0,15.0,-11.0,
2076.0,2094.0,15.0,-11.0,
2081.0,2091.0,15.0,-11.0,
2094.0,2108.0,15.0,-12.0,
2072.0,2108.0,15.0,-12.0,
2053.0,2095.0,15.0,-12.0,
2055.0,2101.0,15.0,-12.0,
2074.0,2095.0,15.0,-12.0,
2081.0,2076.0,15.0,-12.0,
2059.0,2058.0,15.0,-12.0,
2065.0,2082.0,15.0,-12.0,
2069.0,2092.0,15.0,-12.0,
2086.0,2089.0,15.0,-12.0,
2054.0,2082.0,15.0,-12.0,
2036.0,2080.0,15.0,-12.0,
2045.0,2074.0,15.0,-12.0,
2062.0,2077.0,15.0,-12.0,
2084.0,2086.0,15.0,-12.0,
2073.0,2088.0,15.0,-12.0,
2070.0,2079.0,15.0,-12.0,
2088.0,2103.0,15.0,-11.0,
2097.0,2077.0,15.0,-11.0,
2078.0,2080.0,15.0,-11.0,
2045.0,2088.0,15.0,-11.0,
2059.0,2093.0,15.0,-11.0,
2060.0,2088.0,14.0,-11.0,
2090.0,2090.0,14.0,-11.0,
2060.0,2080.0,14.0,-11.0,
2066.0,2074.0,14.0,-11.0,
2079.0,2088.0,14.0,-11.0,
2087.0,2097.0,14.0,-11.0,
2074.0,2091.0,14.0,-11.0,
2053.0,2102.0,14.0,-11.0,
2047.0,2081.0,14.0,-11.0,
2072.0,2080.0,14.0,-11.0,
2095.0,2094.0,14.0,-11.0,
2057.0,2096.0,14.0,-11.0,
2073.0,2089.0,14.0,-11.0,
2076.0,2110.0,14.0,-11.0,
2095.0,2089.0,14.0,-11.0,
2071.0,2091.0,14.0,-11.0,
2054.0,2088.0,15.0,-11.0,
2052.0,2081.0,15.0,-11.0,
2067.0,2099.0,15.0,-11.0,
2098.0,2117.0,15.0,-11.0,
2072.0,2100.0,15.0,-11.0,
2066.0,2097.0,15.0,-11.0,
2085.0,2097.0,15.0,-11.0,
2117.0,2099.0,15.0,-11.0,
2071.0,2094.0,15.0,-11.0,
2052.0,2093.0,15.0,-11.0,
2052.0,2086.0,15.0,-11.0,
2056.0,2093.0,15.0,-11.0,
2078.0,2086.0,15.0,-11.0,
2064.0,2083.0,15.0,-12.0,
2067.0,2089.0,15.0,-12.0,
2084.0,2096.0,15.0,-12.0,
2097.0,2100.0,15.0,-12.0,
2079.0,2083.0,15.0,-12.0,
2051.0,2085.0,15.0,-12.0,
2055.0,2085.0,15.0,-12.0,
2061.0,2089.0,15.0,-12.0,
2085.0,2094.0,15.0,-12.0,
2069.0,2097.0,15.0,-11.0,
2075.0,2088.0,15.0,-11.0,
2077.0,2094.0,14.0,-11.0,
2101.0,2106.0,14.0,-11.0,
2071.0,2095.0,14.0,-11.0,
2049.0,2086.0,14.0,-11.0,
2054.0,2072.0,14.0,-11.0,
2056.0,2043.0,14.0,-11.0,
2074.0,2079.0,14.0,-11.0,
2066.0,2085.0,14.0,-11.0,
2077.0,2099.0,14.0,-11.0,
2086.0,2105.0,14.0,-11.0,
2090.0,2106.0,14.0,-11.0,
2080.0,2114.0,14.0,-11.0,
2056.0,2093.0,14.0,-11.0,
2045.0,2065.0,14.0,-11.0,
2046.0,2070.0,14.0,-11.0,
2084.0,2088.0,14.0,-11.0,
2066.0,2086.0,14.0,-11.0,
2071.0,2094.0,14.0,-11.0,
2090.0,2099.0,14.0,-11.0,
2090.0,2092.0,14.0,-11.0,
2077.0,2091.0,14.0,-11.0,
2054.0,2091.0,14.0,-11.0,
2059.0,2089.0,14.0,-11.0,
2063.0,2085.0,14.0,-11.0,
2090.0,2094.0,14.0,-12.0,
2074.0,2091.0,14.0,-12.0,
2082.0,2092.0,14.0,-12.0,
2088.0,2080.0,14.0,-12.0,
2088.0,2095.0,14.0,-12.0,
2094.0,2090.0,14.0,-12.0,
2060.0,2092.0,14.0,-12.0,
2058.0,2098.0,14.0,-12.0,
2053.0,2082.0,14.0,-12.0,
2087.0,2096.0,14.0,-12.0,
2071.0,2080.0,15.0,-12.0,
2067.0,2086.0,15.0,-12.0,
2078.0,2098.0,15.0,-12.0,
2101.0,2092.0,15.0,-11.0,
2082.0,2093.0,15.0,-12.0,
2053.0,2089.0,15.0,-12.0,
2052.0,2083.0,15.0,-11.0,
2049.0,2090.0,15.0,-11.0,
2078.0,2090.0,15.0,-11.0,
2064.0,2088.0,15.0,-12.0,
2070.0,2098.0,15.0,-12.0,
2068.0,2094.0,15.0,-11.0,
2077.0,2096.0,15.0,-11.0,
2083.0,2091.0,15.0,-11.0,
2044.0,2084.0,15.0,-11.0,
2046.0,2082.0,15.0,-11.0,
2046.0,2081.0,15.0,-11.0,
2078.0,2085.0,15.0,-11.0,
2059.0,2077.0,15.0,-11.0,
2062.0,2084.0,15.0,-11.0,
2083.0,2086.0,15.0,-11.0,
2078.0,2098.0,15.0,-12.0,
2091.0,2095.0,15.0,-12.0,
2048.0,2102.0,15.0,-12.0,
2046.0,2079.0,15.0,-12.0,
2050.0,2087.0,15.0,-12.0,
2069.0,2086.0,15.0,-12.0,
2072.0,2086.0,15.0,-12.0,
2070.0,2089.0,15.0,-12.0,
2074.0,2096.0,14.0,-12.0,
2094.0,2101.0,15.0,-11.0,
2092.0,2096.0,14.0,-11.0,
2057.0,2083.0,14.0,-12.0,
2064.0,2086.0,14.0,-12.0,
2060.0,2082.0,14.0,-12.0,
2092.0,2089.0,14.0,-12.0,
2079.0,2096.0,14.0,-11.0,
2061.0,2092.0,14.0,-11.0,
2078.0,2092.0,14.0,-11.0,
2096.0,2092.0,14.0,-11.0,
2099.0,2092.0,14.0,-11.0,
2070.0,2089.0,14.0,-11.0,
2066.0,2087.0,14.0,-11.0,
2062.0,2092.0,14.0,-11.0,
2083.0,2104.0,14.0,-11.0,
2083.0,2106.0,14.0,-11.0,
2063.0,2101.0,14.0,-11.0,
2078.0,2085.0,14.0,-11.0,
2081.0,2068.0,14.0,-11.0,
2085.0,2097.0,14.0,-11.0,
2060.0,2091.0,14.0,-11.0,
2049.0,2060.0,14.0,-11.0,
2051.0,2075.0,14.0,-11.0,
2081.0,2079.0,14.0,-11.0,
2082.0,2092.0,14.0,-11.0,
2072.0,2097.0,14.0,-11.0,
2077.0,2099.0,14.0,-11.0,
2087.0,2099.0,14.0,-11.0,
2088.0,2093.0,14.0,-11.0,
2051.0,2091.0,14.0,-11.0,
2056.0,2089.0,14.0,-11.0,
2063.0,2102.0,14.0,-11.0,
2088.0,2094.0,14.0,-11.0,
2086.0,2094.0,14.0,-11.0,
2066.0,2091.0,14.0,-11.0,
2083.0,2110.0,14.0,-11.0,
2094.0,2106.0,14.0,-11.0,
2107.0,2103.0,14.0,-11.0,
2073.0,2102.0,14.0,-11.0,
2064.0,2090.0,14.0,-11.0,
2062.0,2087.0,14.0,-11.0,
2102.0,2086.0,14.0,-11.0,
2074.0,2090.0,14.0,-11.0,
2062.0,2087.0,14.0,-11.0,
2070.0,2084.0,14.0,-11.0,
2078.0,2088.0,14.0,-11.0,
2086.0,2088.0,14.0,-11.0,
2055.0,2078.0,14.0,-11.0,
2040.0,2072.0,14.0,-11.0,
2053.0,2076.0,14.0,-11.0,
2071.0,2088.0,14.0,-11.0,
2082.0,2090.0,14.0,-11.0,
2064.0,2079.0,15.0,-11.0,
2068.0,2087.0,15.0,-11.0,
2073.0,2095.0,15.0,-11.0,
2093.0,2098.0,15.0,-12.0,
2059.0,2088.0,15.0,-12.0,
2046.0,2087.0,15.0,-12.0,
2053.0,2082.0,15.0,-11.0,
2083.0,2085.0,15.0,-12.0,
2076.0,2081.0,15.0,-12.0,
2058.0,2088.0,15.0,-12.0,
2068.0,2093.0,15.0,-12.0,
2079.0,2096.0,15.0,-12.0,
2093.0,2092.0,15.0,-12.0,
2054.0,2092.0,15.0,-12.0,
2049.0,2088.0,15.0,-12.0,
2056.0,2089.0,15.0,-12.0,
2075.0,2087.0,15.0,-12.0,
2080.0,2094.0,15.0,-12.0,
2054.0,2095.0,15.0,-12.0,
2063.0,2088.0,15.0,-12.0,
2075.0,2097.0,15.0,-12.0,
2085.0,2092.0,15.0,-12.0,
2059.0,2124.0,15.0,-12.0,
2048.0,2087.0,15.0,-12.0,
2057.0,2087.0,15.0,-12.0,
2071.0,2099.0,15.0,-12.0,
2082.0,2084.0,15.0,-12.0,
2057.0,2084.0,15.0,-12.0,
2069.0,2092.0,15.0,-12.0,
2085.0,2098.0,15.0,-12.0,
2089.0,2092.0,15.0,-12.0,
2074.0,2087.0,14.0,-12.0,
2054.0,2084.0,14.0,-12.0,
2054.0,2087.0,14.0,-12.0,
2101.0,2087.0,14.0,-12.0,
2097.0,2096.0,14.0,-12.0,
2084.0,2092.0,14.0,-12.0,
2080.0,2098.0,14.0,-12.0,
2085.0,2109.0,14.0,-12.0,
2095.0,2092.0,14.0,-12.0,
2062.0,2087.0,14.0,-12.0,
2050.0,2089.0,14.0,-12.0,
2061.0,2079.0,14.0,-12.0,
2085.0,2091.0,14.0,-12.0,
2080.0,2117.0,14.0,-12.0,
2073.0,2086.0,14.0,-12.0,
2058.0,2091.0,14.0,-12.0,
2076.0,2092.0,14.0,-12.0,
2091.0,2095.0,14.0,-12.0,
2074.0,2089.0,14.0,-12.0,
2053.0,2089.0,14.0,-12.0,
2051.0,2083.0,14.0,-12.0,
2059.0,2085.0,14.0,-12.0,
2087.0,2090.0,14.0,-12.0,
2065.0,2120.0,14.0,-12.0,
2062.0,2100.0,14.0,-12.0,
2082.0,2102.0,14.0,-11.0,
2088.0,2101.0,14.0,-12.0,
2064.0,2092.0,14.0,-12.0,
2063.0,2085.0,14.0,-12.0,
2058.0,2089.0,14.0,-11.0,
2072.0,2087.0,14.0,-12.0,
2091.0,2097.0,14.0,-11.0,
2079.0,2097.0,14.0,-12.0,
2070.0,2103.0,0,
2077.0,2095.0,14.0,-12.0,
2117.0,2094.0,14.0,-12.0,
2073.0,2090.0,14.0,-12.0,
2052.0,2085.0,14.0,-12.0,
2062.0,2085.0,14.0,-12.0,
2050.0,2077.0,14.0,-12.0,
2088.0,2082.0,14.0,-12.0,
2058.0,2091.0,14.0,-12.0,
2065.0,2090.0,14.0,-12.0,
2072.0,2088.0,14.0,-12.0,
2082.0,2085.0,14.0,-12.0,
2043.0,2095.0,14.0,-12.0,
2045.0,2077.0,14.0,-11.0,
2052.0,2081.0,14.0,-11.0,
2059.0,2081.0,14.0,-11.0,
2083.0,2070.0,14.0,-11.0,
2062.0,2087.0,14.0,-11.0,
2075.0,2088.0,14.0,-11.0,
2084.0,2086.0,14.0,-11.0,
2091.0,2092.0,14.0,-11.0,
2092.0,2086.0,14.0,-11.0,
2063.0,2089.0,14.0,-11.0,
2059.0,2083.0,14.0,-11.0,
2066.0,2090.0,14.0,-11.0,
2097.0,2091.0,14.0,-11.0,
2063.0,2087.0,14.0,-11.0,
2072.0,2094.0,14.0,-11.0,
2079.0,2098.0,14.0,-11.0,
2092.0,2096.0,14.0,-11.0,
2079.0,2084.0,14.0,-11.0,
2060.0,2082.0,14.0,-11.0,
2061.0,2087.0,14.0,-11.0,
2067.0,2072.0,14.0,-11.0,
2101.0,2081.0,14.0,-11.0,
2066.0,2085.0,14.0,-12.0,
2078.0,2090.0,14.0,-12.0,
2094.0,2095.0,14.0,-12.0,
2107.0,2102.0,14.0,-12.0,
2080.0,2090.0,14.0,-12.0,
2058.0,2088.0,14.0,-11.0,
2046.0,2085.0,14.0,-11.0,
2055.0,2095.0,14.0,-11.0,
2089.0,2094.0,14.0,-11.0,
2062.0,2094.0,14.0,-12.0,
2070.0,2089.0,14.0,-11.0,
2081.0,2097.0,14.0,-11.0,
2097.0,2098.0,14.0,-11.0,
2093.0,2090.0,14.0,-11.0,
2057.0,2087.0,14.0,-12.0,
2061.0,2091.0,14.0,-12.0,
2058.0,2098.0,14.0,-12.0,
2081.0,2094.0,14.0,-12.0,
2068.0,2089.0,14.0,-12.0,
2060.0,2094.0,14.0,-12.0,
2073.0,2092.0,14.0,-12.0,
2084.0,2091.0,14.0,-12.0,
2092.0,2087.0,14.0,-12.0,
2062.0,2082.0,14.0,-12.0,
2056.0,2089.0,14.0,-12.0,
2054.0,2081.0,14.0,-12.0,
2077.0,2082.0,14.0,-12.0,
2066.0,2091.0,14.0,-12.0,
2057.0,2088.0,14.0,-12.0,
2069.0,2096.0,14.0,-12.0,
2083.0,2093.0,14.0,-12.0,
2084.0,2088.0,14.0,-12.0,
2046.0,2095.0,14.0,-11.0,
2048.0,2086.0,14.0,-11.0,
2052.0,2085.0,14.0,-11.0,
2086.0,2098.0,14.0,-11.0,
2071.0,2086.0,14.0,-11.0,
2065.0,2094.0,14.0,-11.0,
2066.0,2091.0,14.0,-11.0,
2080.0,2092.0,14.0,-11.0,
2092.0,2088.0,14.0,-11.0,
2056.0,2089.0,14.0,-11.0,
2055.0,2084.0,14.0,-11.0,
2061.0,2076.0,14.0,-11.0,
2087.0,2088.0,14.0,-11.0,
2078.0,2088.0,14.0,-11.0,
2075.0,2096.0,14.0,-11.0,
2082.0,2100.0,14.0,-11.0,
2091.0,2111.0,14.0,-11.0,
2088.0,2101.0,14.0,-11.0,
2068.0,2089.0,14.0,-11.0,
2060.0,2093.0,14.0,-11.0,
2056.0,2097.0,14.0,-11.0,
2085.0,2096.0,14.0,-11.0,
2076.0,2095.0,14.0,-11.0,
2060.0,2096.0,14.0,-11.0,
2078.0,2087.0,14.0,-11.0,
2088.0,2101.0,14.0,-11.0,
2094.0,2093.0,14.0,-11.0,
2056.0,2092.0,14.0,-11.0,
2052.0,2085.0,14.0,-11.0,
2053.0,2087.0,14.0,-11.0,
2077.0,2087.0,14.0,-11.0,
2071.0,2082.0,14.0,-11.0,
2060.0,2090.0,14.0,-11.0,
2071.0,2085.0,14.0,-11.0,
2080.0,2094.0,14.0,-11.0,
2098.0,2076.0,14.0,-11.0,
2060.0,2086.0,14.0,-11.0,
2058.0,2077.0,14.0,-11.0,
2048.0,2073.0,14.0,-11.0,
2082.0,2093.0,14.0,-11.0,
2076.0,2085.0,14.0,-11.0,
2060.0,2091.0,14.0,-11.0,
2062.0,2090.0,14.0,-11.0,
2063.0,2097.0,14.0,-11.0,
2073.0,2082.0,14.0,-11.0,
2050.0,2089.0,14.0,-11.0,
2047.0,2081.0,14.0,-11.0,
2056.0,2077.0,14.0,-11.0,
2085.0,2090.0,14.0,-11.0,
2085.0,2093.0,14.0,-11.0,
2067.0,2086.0,14.0,-11.0,
2073.0,2085.0,14.0,-11.0,
2066.0,2090.0,14.0,-11.0,
2092.0,2092.0,14.0,-11.0,
2065.0,2089.0,14.0,-11.0,
2059.0,2092.0,14.0,-11.0,
2058.0,2085.0,14.0,-11.0,
2079.0,2092.0,14.0,-11.0,
2082.0,2093.0,14.0,-11.0,
2068.0,2097.0,14.0,-11.0,
2076.0,2099.0,14.0,-11.0,
2090.0,2102.0,14.0,-11.0,
2100.0,2092.0,14.0,-11.0,
2066.0,2094.0,0,
2055.0,2096.0,14.0,-11.0,
2066.0,2089.0,14.0,-11.0,
2085.0,2090.0,14.0,-11.0,
2090.0,2091.0,14.0,-11.0,
2073.0,2103.0,14.0,-11.0,
2072.0,2095.0,14.0,-12.0,
2100.0,2093.0,14.0,-12.0,
2101.0,2079.0,14.0,-12.0,
2070.0,2082.0,14.0,-12.0,
2061.0,2087.0,14.0,-11.0,
2065.0,2081.0,14.0,-12.0,
2076.0,2083.0,14.0,-12.0,
2094.0,2086.0,14.0,-11.0,
2074.0,2083.0,14.0,-11.0,
2074.0,2097.0,14.0,-11.0,
2081.0,2102.0,14.0,-11.0,
2089.0,2107.0,14.0,-11.0,
2067.0,2091.0,14.0,-11.0,
2051.0,2088.0,14.0,-11.0,
2046.0,2085.0,14.0,-11.0,
2069.0,2090.0,14.0,-11.0,
2086.0,2101.0,14.0,-11.0,
2055.0,2087.0,14.0,-11.0,
2061.0,2095.0,14.0,-11.0,
2066.0,2094.0,14.0,-11.0,
2071.0,2090.0,14.0,-11.0,
2047.0,2081.0,14.0,-11.0,
2035.0,2082.0,14.0,-11.0,
2044.0,2079.0,14.0,-11.0,
2058.0,2090.0,14.0,-12.0,
2072.0,2082.0,14.0,-12.0,
2052.0,2085.0,14.0,-12.0,
2060.0,2094.0,14.0,-12.0,
2071.0,2094.0,14.0,-11.0,
2092.0,2095.0,14.0,-11.0,
2067.0,2088.0,14.0,-11.0,
2040.0,2096.0,14.0,-11.0,
2045.0,2086.0,14.0,-11.0,
2067.0,2082.0,14.0,-11.0,
2083.0,2096.0,14.0,-11.0,
2059.0,2095.0,14.0,-11.0,
2076.0,2091.0,14.0,-11.0,
2086.0,2096.0,14.0,-11.0,
2084.0,2092.0,14.0,-11.0,
2066.0,2089.0,14.0,-11.0,
2059.0,2090.0,14.0,-12.0,
2055.0,2093.0,14.0,-12.0,
2057.0,2093.0,14.0,-12.0,
2094.0,2093.0,14.0,-12.0,
2066.0,2097.0,14.0,-12.0,
2071.0,2086.0,14.0,-12.0,
2091.0,2097.0,14.0,-12.0,
2100.0,2095.0,14.0,-12.0,
2082.0,2086.0,14.0,-12.0,
2060.0,2085.0,14.0,-12.0,
2061.0,2085.0,14.0,-12.0,
2046.0,2080.0,14.0,-11.0,
2088.0,2082.0,14.0,-12.0,
2063.0,2086.0,14.0,-11.0,
2065.0,2091.0,14.0,-11.0,
2070.0,2092.0,14.0,-11.0,
2082.0,2094.0,14.0,-11.0,
2070.0,2105.0,14.0,-11.0,
2041.0,2090.0,14.0,-11.0,
2053.0,2085.0,14.0,-11.0,
2067.0,2091.0,14.0,-11.0,
2096.0,2097.0,14.0,-11.0,
2070.0,2090.0,14.0,-11.0,
2080.0,2096.0,14.0,-11.0,
2078.0,2087.0,14.0,-11.0,
2095.0,2094.0,14.0,-11.0,
2074.0,2090.0,14.0,-11.0,
2053.0,2091.0,14.0,-11.0,
2059.0,2094.0,14.0,-12.0,
2065.0,2094.0,14.0,-12.0,
2090.0,2101.0,14.0,-12.0,
2053.0,2085.0,14.0,-12.0,
2064.0,2093.0,14.0,-12.0,
2077.0,2096.0,14.0,-12.0,
2094.0,2090.0,14.0,-11.0,
2070.0,2077.0,14.0,-11.0,
2051.0,2090.0,14.0,-11.0,
2052.0,2080.0,14.0,-11.0,
2066.0,2085.0,14.0,-11.0,
2090.0,2086.0,14.0,-11.0,
2063.0,2084.0,14.0,-11.0,
2068.0,2089.0,14.0,-11.0,
2081.0,2093.0,14.0,-11.0,
2088.0,2102.0,14.0,-11.0,
2072.0,2089.0,14.0,-11.0,
2043.0,2083.0,14.0,-11.0,
2051.0,2077.0,14.0,-11.0,
2060.0,2085.0,14.0,-11.0,
2086.0,2086.0,14.0,-11.0,
2079.0,2084.0,14.0,-11.0,
2076.0,2079.0,14.0,-11.0,
2087.0,2086.0,14.0,-11.0,
2099.0,2095.0,14.0,-11.0,
2091.0,2091.0,14.0,-11.0,
2048.0,2089.0,14.0,-11.0,
2050.0,2090.0,14.0,-11.0,
2067.0,2088.0,14.0,-11.0,
2091.0,2087.0,14.0,-11.0,
2064.0,2086.0,14.0,-11.0,
2072.0,2093.0,14.0,-11.0,
2099.0,2095.0,14.0,-11.0,
2089.0,2097.0,14.0,-11.0,
2072.0,2093.0,14.0,-11.0,
2044.0,2086.0,14.0,-11.0,
2049.0,2080.0,14.0,-11.0,
2056.0,2081.0,14.0,-11.0,
2089.0,2090.0,14.0,-11.0,
2082.0,2092.0,14.0,-11.0,
2084.0,2091.0,14.0,-11.0,
2096.0,2101.0,14.0,-11.0,
2097.0,2095.0,14.0,-11.0,
2086.0,2098.0,14.0,-11.0,
2055.0,2091.0,14.0,-11.0,
2045.0,2091.0,14.0,-11.0,
2058.0,2093.0,14.0,-11.0,
2091.0,2094.0,14.0,-11.0,
2059.0,2098.0,14.0,-11.0,
2068.0,2099.0,14.0,-11.0,
2071.0,2100.0,14.0,-11.0,
2093.0,2101.0,14.0,-11.0,
2082.0,2098.0,14.0,-11.0,
2048.0,2096.0,14.0,-11.0,
2055.0,2098.0,14.0,-11.0,
2051.0,2091.0,14.0,-11.0,
2086.0,2089.0,14.0,-11.0,
2068.0,2091.0,14.0,-11.0,
2067.0,2095.0,14.0,-11.0,
2075.0,2090.0,14.0,-11.0,
2091.0,2093.0,14.0,-11.0,
2091.0,2088.0,14.0,-11.0,
2052.0,2078.0,14.0,-12.0,
2048.0,2084.0,14.0,-12.0,
2054.0,2074.0,14.0,-11.0,
2104.0,2083.0,14.0,-11.0,
2074.0,2086.0,14.0,-12.0,
2055.0,2097.0,14.0,-12.0,
2076.0,2081.0,14.0,-12.0,
2076.0,2088.0,14.0,-11.0,
2085.0,2089.0,14.0,-11.0,
2056.0,2080.0,14.0,-11.0,
2054.0,2079.0,14.0,-11.0,
2062.0,2081.0,14.0,-11.0,
2076.0,2085.0,14.0,-11.0,
2069.0,2088.0,14.0,-11.0,
2059.0,2087.0,14.0,-11.0,
2074.0,2090.0,14.0,-11.0,
2089.0,2092.0,14.0,-11.0,
2090.0,2096.0,14.0,-11.0,
2062.0,2099.0,14.0,-11.0,
2057.0,2089.0,14.0,-11.0,
2056.0,2080.0,14.0,-11.0,
2090.0,2089.0,14.0,-11.0,
2067.0,2091.0,14.0,-11.0,
2062.0,2092.0,14.0,-11.0,
2074.0,2091.0,14.0,-11.0,
2089.0,2102.0,14.0,-11.0,
2091.0,2095.0,14.0,-11.0,
2052.0,2087.0,14.0,-11.0,
2047.0,2087.0,14.0,-11.0,
2050.0,2087.0,14.0,-11.0,
2080.0,2083.0,14.0,-11.0,
2069.0,2106.0,14.0,-11.0,
2061.0,2071.0,14.0,-11.0,
2072.0,2089.0,14.0,-11.0,
2090.0,2082.0,14.0,-11.0,
2097.0,2097.0,14.0,-11.0,
2057.0,2095.0,14.0,-11.0,
2055.0,2084.0,14.0,-11.0,
2054.0,2070.0,14.0,-11.0,
2088.0,2087.0,14.0,-11.0,
2080.0,2091.0,14.0,-11.0,
2069.0,2099.0,14.0,-11.0,
2074.0,2081.0,14.0,-11.0,
2084.0,2084.0,14.0,-11.0,
2096.0,2108.0,14.0,-11.0,
2052.0,2100.0,14.0,-11.0,
2054.0,2072.0,14.0,-11.0,
2054.0,2072.0,14.0,-11.0,
2082.0,2116.0,14.0,-11.0,
2080.0,2094.0,14.0,-11.0,
2071.0,2083.0,14.0,-11.0,
2077.0,2086.0,14.0,-11.0,
2095.0,2114.0,14.0,-11.0,
2092.0,2101.0,14.0,-11.0,
2044.0,2084.0,14.0,-11.0,
2052.0,2093.0,14.0,-11.0,
2081.0,2048.0,14.0,-11.0,
2102.0,2072.0,14.0,-11.0,
2076.0,2106.0,14.0,-11.0,
2059.0,2106.0,14.0,-11.0,
2074.0,2111.0,14.0,-11.0,
2083.0,2116.0,14.0,-11.0,
2094.0,2094.0,14.0,-11.0,
2065.0,2058.0,14.0,-11.0,
2047.0,2030.0,14.0,-11.0,
2060.0,2047.0,14.0,-11.0,
2082.0,2147.0,14.0,-12.0,
2055.0,2076.0,14.0,-12.0,
2062.0,2088.0,14.0,-12.0,
2070.0,2180.0,14.0,-12.0,
2085.0,2132.0,14.0,-12.0,
2084.0,2118.0,14.0,-12.0,
2050.0,2082.0,13.0,-12.0,
2048.0,2057.0,13.0,-12.0,
2050.0,2062.0,13.0,-12.0,
2081.0,2101.0,13.0,-12.0,
2075.0,2060.0,13.0,-12.0,
2058.0,2103.0,13.0,-11.0,
2076.0,2140.0,12.0,-11.0,
2076.0,2091.0,12.0,-11.0,
2099.0,2064.0,12.0,-11.0,
2065.0,2064.0,12.0,-11.0,
2047.0,2057.0,13.0,-11.0,
2053.0,2102.0,13.0,-11.0,
2070.0,2119.0,13.0,-11.0,
2077.0,2137.0,13.0,-11.0,
2059.0,2100.0,13.0,-11.0,
2075.0,2072.0,13.0,-11.0,
2083.0,2074.0,13.0,-11.0,
2087.0,2111.0,13.0,-11.0,
2062.0,2072.0,13.0,-11.0,
2040.0,2077.0,13.0,-12.0,
2037.0,2094.0,14.0,-12.0,
2078.0,2108.0,14.0,-12.0,
2088.0,2113.0,14.0,-12.0,
2071.0,2098.0,14.0,-12.0,
2075.0,2093.0,14.0,-12.0,
2083.0,2087.0,14.0,-12.0,
2091.0,2083.0,14.0,-11.0,
2068.0,2082.0,14.0,-11.0,
2054.0,2061.0,14.0,-11.0,
2057.0,2060.0,15.0,-11.0,
2071.0,2123.0,15.0,-12.0,
2084.0,2077.0,15.0,-12.0,
2072.0,2052.0,15.0,-11.0,
2084.0,2097.0,15.0,-11.0,
2084.0,2121.0,15.0,-11.0,
2096.0,2107.0,15.0,-11.0,
2072.0,2150.0,15.0,-11.0,
2042.0,2078.0,15.0,-12.0,
2060.0,2008.0,15.0,-12.0,
2082.0,2048.0,15.0,-12.0,
2092.0,2123.0,15.0,-12.0,
2063.0,2095.0,15.0,-12.0,
2058.0,2017.0,15.0,-12.0,
2080.0,2025.0,15.0,-12.0,
2093.0,2164.0,15.0,-12.0,
2048.0,2086.0,15.0,-12.0,
2046.0,2061.0,15.0,-12.0,
2045.0,2186.0,15.0,-12.0,
2058.0,2109.0,15.0,-12.0,
2077.0,2119.0,15.0,-11.0,
2072.0,2131.0,15.0,-11.0,
2052.0,2059.0,15.0,-11.0,
2060.0,2051.0,15.0,-11.0,
2079.0,2070.0,15.0,-11.0,
2064.0,2053.0,15.0,-12.0,
2041.0,2065.0,15.0,-11.0,
2052.0,2109.0,16.0,-11.0,
2066.0,2107.0,16.0,-11.0,
2067.0,2071.0,15.0,-11.0,
2056.0,2082.0,15.0,-12.0,
2048.0,2117.0,16.0,-12.0,
2050.0,2046.0,16.0,-12.0,
2065.0,2046.0,16.0,-12.0,
2059.0,2098.0,16.0,-12.0,
2034.0,2128.0,17.0,-12.0,
2057.0,2088.0,17.0,-12.0,
2107.0,2122.0,17.0,-12.0,
2123.0,2122.0,17.0,-11.0,
2074.0,2092.0,18.0,-12.0,
2062.0,2080.0,18.0,-12.0,
2077.0,2119.0,18.0,-12.0,
2097.0,2041.0,18.0,-12.0,
2084.0,2152.0,18.0,-12.0,
2069.0,2055.0,18.0,-12.0,
2072.0,2053.0,18.0,-12.0,
2059.0,2167.0,18.0,-12.0,
2063.0,2130.0,18.0,-12.0,
2055.0,2133.0,18.0,-12.0,
2067.0,2101.0,18.0,-12.0,
2072.0,2051.0,18.0,-12.0,
2072.0,2071.0,18.0,-12.0,
2061.0,2025.0,0,
2036.0,2099.0,18.0,-12.0,
2032.0,2131.0,18.0,-12.0,
2072.0,2124.0,18.0,-12.0,
2178.0,2099.0,18.0,-12.0,
2064.0,2035.0,18.0,-12.0,
2073.0,1934.0,18.0,-12.0,
2076.0,2122.0,18.0,-12.0,
2095.0,2186.0,18.0,-12.0,
2069.0,2145.0,18.0,-12.0,
2045.0,2055.0,18.0,-11.0,
2053.0,2079.0,19.0,-11.0,
2080.0,2042.0,19.0,-11.0,
2078.0,2093.0,19.0,-11.0,
2061.0,2116.0,19.0,-11.0,
2067.0,2018.0,19.0,-11.0,
2096.0,2030.0,19.0,-11.0,
2089.0,2031.0,19.0,-11.0,
2066.0,2000.0,19.0,-11.0,
2042.0,2126.0,19.0,-11.0,
2030.0,2259.0,19.0,-11.0,
2063.0,2094.0,19.0,-11.0,
2085.0,1982.0,20.0,-11.0,
2065.0,2086.0,20.0,-11.0,
2080.0,2044.0,20.0,-11.0,
2079.0,2090.0,20.0,-11.0,
2105.0,2169.0,20.0,-11.0,
2042.0,2249.0,20.0,-11.0,
2008.0,2155.0,20.0,-11.0,
2049.0,2100.0,20.0,-11.0,
2062.0,2059.0,20.0,-11.0,
2090.0,1990.0,20.0,-11.0,
2052.0,2035.0,20.0,-11.0,
2074.0,2071.0,20.0,-11.0,
2065.0,2159.0,20.0,-11.0,
2087.0,2081.0,20.0,-11.0,
2080.0,2093.0,19.0,-11.0,
2035.0,2093.0,19.0,-11.0,
2059.0,2039.0,19.0,-11.0,
2070.0,2075.0,19.0,-11.0,
2096.0,2125.0,19.0,-11.0,
2062.0,2082.0,19.0,-11.0,
2054.0,2070.0,19.0,-11.0,
2093.0,2041.0,19.0,-11.0,
2095.0,2091.0,20.0,-11.0,
2063.0,2064.0,20.0,-11.0,
2046.0,2066.0,20.0,-11.0,
2055.0,2073.0,20.0,-11.0,
2072.0,2094.0,21.0,-11.0,
2068.0,2031.0,21.0,-11.0,
2068.0,2067.0,22.0,-11.0,
2047.0,2072.0,23.0,-11.0,
2081.0,2099.0,23.0,-11.0,
2121.0,2193.0,24.0,-11.0,
2101.0,2154.0,25.0,-11.0,
2067.0,2087.0,25.0,-11.0,
2061.0,2069.0,26.0,-11.0,
2072.0,2073.0,27.0,-11.0,
2089.0,2093.0,27.0,-11.0,
2051.0,2054.0,28.0,-11.0,
2051.0,2097.0,29.0,-11.0,
2085.0,2103.0,29.0,-11.0,
2090.0,2087.0,29.0,-11.0,
2056.0,2078.0,30.0,-11.0,
2040.0,2053.0,30.0,-11.0,
2058.0,2078.0,30.0,-11.0,
2105.0,2164.0,31.0,-11.0,
2067.0,2125.0,31.0,-11.0,
2049.0,2132.0,30.0,-11.0,
2059.0,2076.0,30.0,-10.0,
2081.0,2079.0,30.0,-10.0,
2079.0,2046.0,30.0,-10.0,
2035.0,2093.0,29.0,-10.0,
2047.0,2187.0,29.0,-10.0,
2033.0,2057.0,28.0,-10.0,
2082.0,1988.0,28.0,-10.0,
2051.0,2068.0,27.0,-10.0,
2042.0,2102.0,27.0,-10.0,
2065.0,2040.0,27.0,-10.0,
2119.0,2111.0,27.0,-10.0,
2059.0,2154.0,27.0,-10.0,
2051.0,2100.0,26.0,-10.0,
2069.0,2088.0,26.0,-10.0,
2060.0,2070.0,26.0,-9.0,
2075.0,2101.0,27.0,-9.0,
2069.0,2132.0,27.0,-9.0,
2065.0,2107.0,27.0,-9.0,
2094.0,2124.0,27.0,-9.0,
2095.0,2047.0,28.0,-9.0,
2087.0,1987.0,28.0,-9.0,
2068.0,2053.0,28.0,-9.0,
2032.0,2047.0,29.0,-9.0,
2044.0,2059.0,29.0,-9.0,
2086.0,2133.0,30.0,-9.0,
2097.0,2167.0,30.0,-9.0,
2081.0,2113.0,31.0,-9.0,
2076.0,2108.0,31.0,-9.0,
2084.0,2039.0,32.0,-9.0,
2066.0,2081.0,32.0,-9.0,
2069.0,2165.0,33.0,-10.0,
2069.0,2208.0,33.0,-10.0,
2094.0,2059.0,33.0,-10.0,
2068.0,2092.0,34.0,-10.0,
2066.0,2041.0,34.0,-10.0,
2120.0,2021.0,34.0,-10.0,
2120.0,2027.0,34.0,-10.0,
2082.0,2147.0,34.0,-10.0,
2030.0,2177.0,35.0,-10.0,
2027.0,2145.0,35.0,-10.0,
2042.0,2060.0,35.0,-10.0,
2067.0,2090.0,35.0,-10.0,
2048.0,2056.0,35.0,-10.0,
2062.0,2041.0,35.0,-10.0,
2061.0,2019.0,35.0,-10.0,
2083.0,1845.0,35.0,-10.0,
2077.0,2026.0,35.0,-10.0,
2042.0,2094.0,35.0,-10.0,
2034.0,2131.0,34.0,-10.0,
2048.0,2149.0,34.0,-10.0,
2091.0,2139.0,34.0,-10.0,
2073.0,2207.0,34.0,-10.0,
2078.0,2094.0,34.0,-10.0,
2076.0,2119.0,34.0,-10.0,
2097.0,2038.0,33.0,-10.0,
2063.0,1970.0,33.0,-10.0,
2085.0,2142.0,33.0,-10.0,
2053.0,2190.0,33.0,-9.0,
2104.0,2104.0,34.0,-9.0,
2096.0,2078.0,34.0,-9.0,
2060.0,2204.0,34.0,-9.0,
2060.0,2084.0,35.0,-9.0,
2073.0,1947.0,35.0,-8.0,
2061.0,2082.0,35.0,-8.0,
2049.0,2117.0,36.0,-8.0,
2041.0,2073.0,36.0,-8.0,
2058.0,2089.0,36.0,-8.0,
2091.0,2103.0,36.0,-8.0,
2089.0,2037.0,36.0,-8.0,
2089.0,2173.0,36.0,-8.0,
2087.0,2067.0,36.0,-8.0,
2094.0,2105.0,36.0,-9.0,
2085.0,2135.0,36.0,-9.0,
2054.0,2148.0,36.0,-9.0,
2044.0,2074.0,37.0,-9.0,
2046.0,2065.0,37.0,-8.0,
2071.0,2057.0,38.0,-9.0,
2054.0,2083.0,38.0,-9.0,
2061.0,2123.0,38.0,-9.0,
2073.0,2024.0,38.0,-9.0,
2106.0,2067.0,39.0,-9.0,
2063.0,2158.0,39.0,-9.0,
2031.0,2112.0,39.0,-9.0,
2050.0,2077.0,39.0,-9.0,
2074.0,2123.0,39.0,-9.0,
2113.0,2077.0,40.0,-9.0,
2092.0,2006.0,40.0,-9.0,
2093.0,2151.0,40.0,-9.0,
2080.0,2023.0,40.0,-9.0,
2089.0,2144.0,40.0,-9.0,
2036.0,2079.0,40.0,-9.0,
2067.0,2036.0,41.0,-9.0,
2067.0,2098.0,41.0,-9.0,
2089.0,2026.0,41.0,-9.0,
2066.0,2054.0,41.0,-9.0,
2065.0,2083.0,42.0,-9.0,
2046.0,2049.0,43.0,-8.0,
2076.0,2075.0,44.0,-8.0,
2082.0,2191.0,44.0,-8.0,
2044.0,2000.0,44.0,-8.0,
2078.0,2196.0,44.0,-8.0,
2050.0,2039.0,43.0,-8.0,
2070.0,1977.0,43.0,-8.0,
2073.0,2149.0,43.0,-8.0,
2086.0,2249.0,44.0,-8.0,
2068.0,2061.0,43.0,-8.0,
2091.0,2113.0,42.0,-8.0,
2052.0,2049.0,41.0,-8.0,
2060.0,2146.0,41.0,-8.0,
2058.0,2074.0,41.0,-8.0,
2061.0,2065.0,41.0,-8.0,
2092.0,2034.0,42.0,-8.0,
2071.0,2129.0,42.0,-8.0,
2068.0,2094.0,42.0,-8.0,
2076.0,2050.0,42.0,-8.0,
2083.0,2051.0,42.0,-8.0,
2047.0,2105.0,42.0,-8.0,
2053.0,2091.0,42.0,-8.0,
2064.0,2031.0,43.0,-8.0,
2072.0,2093.0,43.0,-8.0,
2060.0,2039.0,43.0,-8.0,
2059.0,2034.0,44.0,-8.0,
2071.0,2081.0,44.0,-8.0,
2077.0,2077.0,44.0,-8.0,
2106.0,2100.0,45.0,-8.0,
2113.0,2124.0,45.0,-8.0,
2033.0,1997.0,45.0,-8.0,
2042.0,2068.0,45.0,-8.0,
2076.0,2125.0,45.0,-8.0,
2086.0,2043.0,45.0,-8.0,
2072.0,2052.0,45.0,-8.0,
2083.0,2210.0,45.0,-8.0,
2096.0,2189.0,45.0,-9.0,
2106.0,2177.0,46.0,-9.0,
2069.0,2041.0,46.0,-9.0,
2060.0,2079.0,46.0,-9.0,
2068.0,2223.0,46.0,-9.0,
2116.0,2127.0,46.0,-9.0,
2076.0,2051.0,46.0,-9.0,
2059.0,2020.0,46.0,-9.0,
2064.0,1945.0,46.0,-9.0,
2066.0,2150.0,46.0,-9.0,
2030.0,2014.0,46.0,-8.0,
2075.0,2135.0,46.0,-8.0,
2068.0,2256.0,46.0,-8.0,
2070.0,2102.0,46.0,-8.0,
2110.0,2078.0,46.0,-8.0,
2102.0,2191.0,46.0,-8.0,
2083.0,2135.0,46.0,-8.0,
2069.0,2030.0,46.0,-8.0,
2094.0,2021.0,47.0,-8.0,
2055.0,1913.0,47.0,-8.0,
2046.0,2106.0,47.0,-8.0,
2058.0,2041.0,47.0,-8.0,
2076.0,2134.0,47.0,-8.0,
2084.0,2074.0,47.0,-8.0,
2059.0,2027.0,47.0,-8.0,
2067.0,2099.0,47.0,-8.0,
2049.0,2056.0,47.0,-8.0,
2075.0,2129.0,48.0,-8.0,
2052.0,1997.0,48.0,-8.0,
2021.0,2087.0,48.0,-8.0,
2054.0,2087.0,48.0,-8.0,
2058.0,2132.0,48.0,-8.0,
2058.0,2106.0,48.0,-8.0,
2061.0,2073.0,48.0,-8.0,
2081.0,2202.0,48.0,-8.0,
2101.0,2125.0,48.0,-8.0,
2098.0,2080.0,48.0,-8.0,
2077.0,2045.0,49.0,-8.0,
2058.0,2171.0,49.0,-8.0,
2039.0,2060.0,49.0,-8.0,
2074.0,2074.0,49.0,-8.0,
2040.0,2122.0,49.0,-8.0,
2074.0,2104.0,49.0,-8.0,
2083.0,2085.0,49.0,-8.0,
2072.0,2100.0,49.0,-8.0,
2105.0,2056.0,49.0,-9.0,
2084.0,2144.0,49.0,-9.0,
2043.0,2080.0,50.0,-9.0,
2061.0,2012.0,50.0,-9.0,
2079.0,2004.0,50.0,-9.0,
2069.0,2104.0,50.0,-9.0,
2070.0,1944.0,50.0,-9.0,
2093.0,2127.0,51.0,-9.0,
2114.0,2228.0,51.0,-9.0,
2068.0,2140.0,51.0,-9.0,
2033.0,2146.0,51.0,-9.0,
2053.0,2067.0,51.0,-9.0,
2086.0,2142.0,52.0,-9.0,
2095.0,2112.0,52.0,-9.0,
2077.0,2140.0,52.0,-9.0,
2078.0,1919.0,52.0,-9.0,
2086.0,2168.0,51.0,-9.0,
2109.0,2061.0,52.0,-9.0,
2049.0,2127.0,51.0,-9.0,
2048.0,2051.0,52.0,-9.0,
2066.0,2033.0,52.0,-9.0,
2102.0,2101.0,52.0,-9.0,
2062.0,2121.0,52.0,-9.0,
2080.0,2110.0,52.0,-9.0,
2068.0,2101.0,52.0,-9.0,
2087.0,2050.0,52.0,-8.0,
2083.0,2120.0,52.0,-8.0,
2045.0,2098.0,52.0,-8.0,
2036.0,2048.0,53.0,-8.0,
2055.0,2031.0,52.0,-8.0,
2092.0,2210.0,53.0,-8.0,
2076.0,2161.0,53.0,-8.0,
2066.0,2087.0,53.0,-8.0,
2089.0,2068.0,53.0,-8.0,
2117.0,2040.0,54.0,-9.0,
2073.0,2041.0,54.0,-9.0,
2052.0,2043.0,54.0,-8.0,
2058.0,2080.0,54.0,-8.0,
2076.0,2147.0,54.0,-8.0,
2088.0,2064.0,54.0,-8.0,
2056.0,2064.0,54.0,-8.0,
2074.0,2080.0,54.0,-8.0,
2088.0,2163.0,55.0,-8.0,
2075.0,2069.0,55.0,-8.0,
2058.0,2163.0,55.0,-9.0,
2057.0,2110.0,55.0,-8.0,
2073.0,2068.0,55.0,-8.0,
2093.0,2035.0,55.0,-9.0,
2073.0,2032.0,55.0,-9.0,
2031.0,2058.0,55.0,-9.0,
2082.0,2132.0,56.0,-9.0,
2075.0,2061.0,56.0,-9.0,
2076.0,2082.0,56.0,-9.0,
2033.0,2147.0,56.0,-8.0,
2081.0,2031.0,56.0,-8.0,
2055.0,2058.0,56.0,-9.0,
2083.0,2196.0,56.0,-9.0,
2045.0,2170.0,56.0,-9.0,
2062.0,2070.0,56.0,-9.0,
2080.0,2143.0,57.0,-9.0,
2086.0,2145.0,57.0,-9.0,
2087.0,2045.0,57.0,-9.0,
2057.0,2083.0,57.0,-9.0,
2053.0,1994.0,57.0,-9.0,
2069.0,2056.0,57.0,-8.0,
2086.0,2140.0,57.0,-8.0,
2044.0,2115.0,57.0,-8.0,
2069.0,2119.0,57.0,-9.0,
2092.0,2091.0,57.0,-9.0,
2073.0,2084.0,57.0,-9.0,
2051.0,1989.0,58.0,-9.0,
2086.0,2030.0,58.0,-9.0,
2060.0,2090.0,58.0,-9.0,
2059.0,2082.0,58.0,-9.0,
2045.0,2148.0,58.0,-9.0,
2045.0,2095.0,58.0,-9.0,
2079.0,2137.0,58.0,-8.0,
2114.0,2105.0,59.0,-8.0,
2106.0,2042.0,59.0,-8.0,
2062.0,2080.0,59.0,-9.0,
2049.0,2077.0,59.0,-9.0,
2047.0,2141.0,59.0,-9.0,
2095.0,2058.0,59.0,-9.0,
2094.0,2210.0,59.0,-8.0,
2084.0,2148.0,59.0,-8.0,
2095.0,2124.0,59.0,-8.0,
2105.0,2073.0,60.0,-9.0,
2098.0,2069.0,60.0,-9.0,
2064.0,2053.0,60.0,-8.0,
2056.0,2067.0,60.0,-8.0,
2051.0,2046.0,60.0,-8.0,
2085.0,2052.0,61.0,-9.0,
2091.0,1967.0,61.0,-9.0,
2058.0,2103.0,61.0,-9.0,
2079.0,2086.0,61.0,-9.0,
2099.0,2078.0,61.0,-8.0,
2073.0,2122.0,62.0,-8.0,
2059.0,1987.0,62.0,-8.0,
2031.0,2129.0,62.0,-8.0,
2066.0,2173.0,62.0,-8.0,
2116.0,2193.0,62.0,-8.0,
2076.0,2145.0,62.0,-7.0,
2060.0,2053.0,62.0,-8.0,
2069.0,2056.0,62.0,-9.0,
2093.0,2131.0,62.0,-9.0,
2056.0,2011.0,62.0,-9.0,
2042.0,2197.0,62.0,-9.0,
2062.0,2107.0,62.0,-9.0,
2095.0,2053.0,62.0,-9.0,
2071.0,2101.0,63.0,-9.0,
2056.0,1940.0,63.0,-9.0,
2054.0,2095.0,63.0,-8.0,
2080.0,1998.0,63.0,-8.0,
2066.0,2115.0,63.0,-8.0,
2052.0,2014.0,64.0,-8.0,
2061.0,2045.0,64.0,-8.0,
2066.0,2105.0,64.0,-9.0,
2082.0,2122.0,64.0,-9.0,
2029.0,2038.0,64.0,-9.0,
2091.0,2129.0,64.0,-9.0,
2084.0,2048.0,64.0,-9.0,
2086.0,2131.0,65.0,-9.0,
2082.0,2245.0,65.0,-9.0,
2064.0,1991.0,65.0,-9.0,
2047.0,2085.0,65.0,-8.0,
2077.0,2104.0,65.0,-8.0,
2088.0,2126.0,65.0,-8.0,
2057.0,2104.0,65.0,-8.0,
2065.0,2003.0,65.0,-8.0,
2061.0,2117.0,65.0,-7.0,
2088.0,2067.0,65.0,-8.0,
2061.0,2105.0,65.0,-8.0,
2069.0,2097.0,65.0,-8.0,
2050.0,2133.0,65.0,-8.0,
2078.0,2120.0,65.0,-8.0,
2095.0,2137.0,65.0,-9.0,
2040.0,2076.0,65.0,-9.0,
2086.0,2117.0,65.0,-8.0,
2081.0,2119.0,65.0,-8.0,
2091.0,2017.0,65.0,-8.0,
2067.0,2049.0,65.0,-8.0,
2067.0,1994.0,65.0,-8.0,
2041.0,2014.0,66.0,-8.0,
2088.0,2137.0,66.0,-8.0,
2079.0,2096.0,66.0,-8.0,
2062.0,2036.0,66.0,-7.0,
2060.0,2167.0,66.0,-8.0,
2091.0,2093.0,66.0,-9.0,
2058.0,2107.0,66.0,-9.0,
2053.0,2146.0,66.0,-8.0,
2051.0,1980.0,66.0,-8.0,
2050.0,2050.0,66.0,-8.0,
2058.0,2117.0,67.0,-8.0,
2064.0,2089.0,67.0,-8.0,
2066.0,2097.0,67.0,-8.0,
2063.0,2098.0,67.0,-8.0,
2092.0,2046.0,67.0,-8.0,
2049.0,2110.0,67.0,-8.0,
2034.0,2136.0,67.0,-8.0,
2051.0,2017.0,67.0,-8.0,
2070.0,2000.0,67.0,-9.0,
2088.0,2065.0,67.0,-9.0,
2046.0,2257.0,68.0,-9.0,
2086.0,2080.0,68.0,-9.0,
2082.0,2067.0,68.0,-9.0,
2092.0,2029.0,68.0,-9.0,
2036.0,2123.0,68.0,-9.0,
2063.0,2036.0,68.0,-9.0,
2052.0,2205.0,68.0,-8.0,
2095.0,2140.0,68.0,-8.0,
2084.0,2018.0,68.0,-8.0,
2115.0,2121.0,68.0,-8.0,
2038.0,2100.0,68.0,-8.0,
2096.0,2027.0,68.0,-8.0,
2099.0,2158.0,68.0,-8.0,
2054.0,2071.0,68.0,-7.0,
2066.0,2112.0,68.0,-8.0,
2004.0,1966.0,68.0,-8.0,
2100.0,2149.0,68.0,-9.0,
2069.0,2022.0,69.0,-9.0,
2091.0,2080.0,69.0,-10.0,
2109.0,2121.0,69.0,-9.0,
2105.0,2219.0,69.0,-9.0,
2082.0,2084.0,69.0,-9.0,
2077.0,2025.0,69.0,-9.0,
2032.0,2080.0,69.0,-9.0,
2045.0,2180.0,69.0,-9.0,
2083.0,2083.0,69.0,-9.0,
2062.0,2028.0,70.0,-9.0,
2078.0,2028.0,70.0,-8.0,
2031.0,1918.0,70.0,-8.0,
2071.0,2257.0,70.0,-8.0,
2081.0,2159.0,70.0,-9.0,
2040.0,2138.0,70.0,-9.0,
2066.0,2093.0,70.0,-9.0,
2075.0,2088.0,70.0,-9.0,
2079.0,2066.0,70.0,-9.0,
2059.0,1957.0,70.0,-9.0,
2067.0,2125.0,71.0,-9.0,
2074.0,2107.0,71.0,-9.0,
2106.0,2176.0,71.0,-9.0,
2070.0,1980.0,71.0,-9.0,
2053.0,2076.0,71.0,-8.0,
2010.0,2054.0,71.0,-8.0,
2070.0,2243.0,71.0,-8.0,
2092.0,2158.0,71.0,-8.0,
2090.0,2049.0,71.0,-8.0,
2108.0,2110.0,71.0,-8.0,
2049.0,2030.0,71.0,-9.0,
2081.0,2222.0,71.0,-9.0,
2038.0,1983.0,72.0,-9.0,
2069.0,2179.0,72.0,-9.0,
2037.0,2033.0,72.0,-9.0,
2107.0,2142.0,72.0,-9.0,
2067.0,1954.0,72.0,-9.0,
2057.0,2081.0,72.0,-9.0,
2055.0,2116.0,73.0,-8.0,
2103.0,2107.0,73.0,-8.0,
2103.0,2110.0,73.0,-8.0,
2070.0,2071.0,73.0,-8.0,
2065.0,2105.0,73.0,-8.0,
2068.0,2040.0,73.0,-8.0,
2091.0,2093.0,73.0,-8.0,
2071.0,2025.0,73.0,-8.0,
2064.0,2053.0,73.0,-8.0,
2069.0,2018.0,73.0,-9.0,
2101.0,2209.0,73.0,-9.0,
2067.0,2034.0,73.0,-9.0,
2057.0,2044.0,74.0,-8.0,
2037.0,2054.0,74.0,-8.0,
2048.0,1837.0,74.0,-8.0,
2122.0,2341.0,74.0,-8.0,
2061.0,2133.0,74.0,-8.0,
2074.0,2116.0,74.0,-8.0,
2070.0,2060.0,74.0,-8.0,
2099.0,2020.0,74.0,-8.0,
2038.0,2099.0,74.0,-8.0,
2070.0,2227.0,74.0,-8.0,
2069.0,2010.0,74.0,-8.0,
2090.0,2095.0,74.0,-9.0,
2095.0,2077.0,75.0,-9.0,
2050.0,2053.0,75.0,-9.0,
2058.0,2053.0,75.0,-9.0,
2098.0,2194.0,75.0,-9.0,
2075.0,2128.0,75.0,-8.0,
2071.0,2066.0,75.0,-8.0,
2021.0,2021.0,75.0,-9.0,
2074.0,2120.0,75.0,-9.0,
2074.0,2040.0,75.0,-9.0,
2063.0,2199.0,75.0,-8.0,
2061.0,2041.0,75.0,-8.0,
2035.0,1932.0,75.0,-8.0,
2083.0,2173.0,75.0,-8.0,
2108.0,2173.0,75.0,-8.0,
2041.0,2057.0,75.0,-8.0,
2057.0,1903.0,75.0,-8.0,
2089.0,2250.0,75.0,-8.0,
2137.0,2075.0,76.0,-8.0,
2081.0,2183.0,76.0,-8.0,
2053.0,2047.0,76.0,-8.0,
2067.0,2123.0,76.0,-9.0,
2110.0,2082.0,76.0,-9.0,
2083.0,2020.0,76.0,-9.0,
2024.0,1960.0,76.0,-8.0,
2039.0,2094.0,76.0,-8.0,
2092.0,2125.0,76.0,-8.0,
2120.0,2155.0,76.0,-8.0,
2052.0,2105.0,76.0,-8.0,
2072.0,2090.0,76.0,-8.0,
2086.0,2236.0,76.0,-9.0,
2097.0,2092.0,76.0,-8.0,
2068.0,2001.0,76.0,-8.0,
2067.0,1984.0,77.0,-8.0,
2028.0,2142.0,77.0,-9.0,
2052.0,2047.0,77.0,-9.0,
2030.0,2028.0,77.0,-9.0,
2027.0,2090.0,77.0,-8.0,
2099.0,2111.0,77.0,-8.0,
2040.0,2028.0,77.0,-8.0,
2150.0,2126.0,77.0,-8.0,
2079.0,2033.0,77.0,-8.0,
2032.0,2127.0,77.0,-8.0,
2035.0,2026.0,77.0,-8.0,
2104.0,2265.0,77.0,-8.0,
2078.0,2083.0,77.0,-8.0,
2079.0,2073.0,78.0,-8.0,
2066.0,2137.0,78.0,-9.0,
2088.0,2196.0,78.0,-9.0,
2108.0,2083.0,78.0,-9.0,
2048.0,2083.0,78.0,-9.0,
2106.0,1722.0,78.0,-8.0,
2050.0,2179.0,78.0,-8.0,
2072.0,2176.0,78.0,-8.0,
2067.0,2111.0,78.0,-8.0,
2087.0,2198.0,78.0,-8.0,
2082.0,2047.0,78.0,-8.0,
2069.0,2104.0,78.0,-8.0,
2027.0,1844.0,78.0,-8.0,
2065.0,2133.0,78.0,-8.0,
2086.0,2289.0,78.0,-8.0,
2107.0,2065.0,79.0,-9.0,
2077.0,1853.0,79.0,-9.0,
2052.0,2170.0,79.0,-9.0,
2118.0,2047.0,79.0,-10.0,
2099.0,2134.0,79.0,-10.0,
2042.0,2128.0,79.0,-9.0,
2074.0,1972.0,79.0,-9.0,
2048.0,2132.0,79.0,-9.0,
2031.0,1995.0,79.0,-9.0,
2085.0,2303.0,79.0,-9.0,
2105.0,2167.0,79.0,-9.0,
2066.0,1982.0,79.0,-9.0,
2071.0,2130.0,79.0,-8.0,
1993.0,1976.0,79.0,-7.0,
2090.0,2073.0,79.0,-8.0,
2110.0,2211.0,79.0,-9.0,
2070.0,2220.0,79.0,-9.0,
2090.0,2077.0,80.0,-9.0,
2066.0,2173.0,80.0,-9.0,
2071.0,1916.0,80.0,-9.0,
2069.0,2256.0,80.0,-9.0,
2056.0,2121.0,80.0,-9.0,
2073.0,2156.0,80.0,-9.0,
2086.0,2047.0,80.0,-9.0,
1995.0,2049.0,80.0,-9.0,
2060.0,1853.0,80.0,-8.0,
2065.0,2120.0,80.0,-8.0,
2088.0,2116.0,80.0,-8.0,
2090.0,2238.0,80.0,-9.0,
2089.0,2105.0,81.0,-9.0,
2060.0,2012.0,81.0,-9.0,
2072.0,2143.0,81.0,-8.0,
2057.0,2086.0,81.0,-8.0,
2098.0,2224.0,81.0,-8.0,
2051.0,2026.0,81.0,-8.0,
2067.0,2116.0,81.0,-8.0,
2135.0,2220.0,82.0,-8.0,
2091.0,2126.0,82.0,-8.0,
2073.0,1958.0,82.0,-8.0,
2069.0,1991.0,82.0,-8.0,
2092.0,2093.0,82.0,-8.0,
2105.0,2169.0,82.0,-8.0,
2004.0,1962.0,82.0,-8.0,
2039.0,2180.0,82.0,-9.0,
2114.0,1991.0,82.0,-9.0,
2044.0,2079.0,82.0,-9.0,
2077.0,2111.0,82.0,-8.0,
2117.0,1940.0,83.0,-8.0,
2066.0,2290.0,83.0,-8.0,
2076.0,2072.0,83.0,-8.0,
2089.0,2025.0,83.0,-8.0,
2042.0,2085.0,83.0,-8.0,
1996.0,2206.0,83.0,-8.0,
2056.0,2213.0,84.0,-8.0,
2115.0,2097.0,84.0,-7.0,
2091.0,1977.0,84.0,-8.0,
2028.0,2021.0,84.0,-8.0,
2057.0,2119.0,84.0,-8.0,
2130.0,2293.0,84.0,-8.0,
2060.0,2061.0,84.0,-8.0,
2056.0,2133.0,84.0,-8.0,
2050.0,2016.0,84.0,-8.0,
2045.0,1920.0,84.0,-8.0,
2069.0,2324.0,84.0,-8.0,
2058.0,1995.0,84.0,-8.0,
2124.0,2336.0,85.0,-8.0,
2131.0,2139.0,85.0,-9.0,
2123.0,2150.0,85.0,-9.0,
2032.0,2007.0,85.0,-8.0,
2062.0,2009.0,85.0,-8.0,
2060.0,2047.0,85.0,-8.0,
2091.0,1982.0,85.0,-8.0,
2064.0,2194.0,85.0,-8.0,
2060.0,2043.0,85.0,-8.0,
2044.0,2060.0,85.0,-8.0,
2045.0,1880.0,85.0,-8.0,
2069.0,2391.0,85.0,-8.0,
2075.0,2224.0,86.0,-8.0,
2060.0,2205.0,86.0,-8.0,
2085.0,2120.0,86.0,-8.0,
2110.0,2040.0,86.0,-8.0,
2069.0,2018.0,86.0,-8.0,
2019.0,2078.0,86.0,-8.0,
2044.0,2024.0,86.0,-8.0,
2078.0,2051.0,86.0,-8.0,
2117.0,1848.0,86.0,-8.0,
2008.0,2290.0,86.0,-8.0,
2078.0,2162.0,86.0,-8.0,
2069.0,2044.0,86.0,-8.0,
2093.0,2010.0,86.0,-8.0,
2080.0,2277.0,86.0,-8.0,
2081.0,2009.0,87.0,-8.0,
2095.0,2188.0,87.0,-8.0,
2111.0,2109.0,87.0,-8.0,
2059.0,2139.0,87.0,-8.0,
2040.0,1978.0,86.0,-8.0,
2034.0,2071.0,86.0,-8.0,
2076.0,2025.0,86.0,-8.0,
2087.0,1982.0,86.0,-8.0,
2046.0,1887.0,86.0,-8.0,
1998.0,2064.0,86.0,-8.0,
2125.0,2200.0,86.0,-8.0,
2107.0,2090.0,86.0,-8.0,
2084.0,2156.0,86.0,-8.0,
2054.0,1958.0,86.0,-8.0,
2064.0,2037.0,86.0,-8.0,
2060.0,2081.0,86.0,-8.0,
2073.0,2209.0,86.0,-8.0,
2058.0,1928.0,86.0,-8.0,
2083.0,2187.0,86.0,-8.0,
2062.0,2077.0,86.0,-8.0,
2054.0,2089.0,86.0,-8.0,
2014.0,2093.0,86.0,-8.0,
1997.0,2203.0,86.0,-8.0,
2007.0,1729.0,86.0,-8.0,
2113.0,2586.0,86.0,-8.0,
2130.0,2210.0,86.0,-8.0,
2175.0,2119.0,86.0,-8.0,
2111.0,2127.0,86.0,-8.0,
2175.0,1957.0,86.0,-8.0,
2114.0,1850.0,86.0,-8.0,
2003.0,1912.0,86.0,-8.0,
2012.0,2028.0,86.0,-8.0,
2059.0,2356.0,86.0,-8.0,
2126.0,2222.0,86.0,-8.0,
2070.0,2139.0,87.0,-8.0,
2069.0,2098.0,87.0,-8.0,
2043.0,1992.0,87.0,-8.0,
2143.0,1820.0,87.0,-8.0,
2124.0,1984.0,87.0,-8.0,
2006.0,2006.0,87.0,-8.0,
2023.0,2354.0,87.0,-8.0,
2126.0,2403.0,87.0,-8.0,
2111.0,2080.0,87.0,-8.0,
2073.0,2200.0,87.0,-8.0,
2068.0,2134.0,87.0,-8.0,
2051.0,2014.0,87.0,-8.0,
2029.0,2039.0,87.0,-8.0,
2076.0,2139.0,87.0,-8.0,
2069.0,2013.0,87.0,-8.0,
2079.0,1999.0,87.0,-8.0,
2034.0,1950.0,87.0,-8.0,
2080.0,2227.0,87.0,-8.0,
2043.0,1972.0,87.0,-8.0,
2083.0,2243.0,87.0,-8.0,
2064.0,2001.0,87.0,-8.0,
2125.0,2333.0,87.0,-8.0,
2079.0,2015.0,87.0,-8.0,
2022.0,1959.0,87.0,-8.0,
2094.0,2065.0,87.0,-8.0,
2052.0,2326.0,87.0,-8.0,
2083.0,2037.0,87.0,-8.0,
2076.0,2302.0,87.0,-8.0,
2082.0,1889.0,87.0,-8.0,
2063.0,2217.0,87.0,-8.0,
2066.0,2017.0,87.0,-8.0,
2085.0,2193.0,87.0,-8.0,
2047.0,2117.0,87.0,-8.0,
2058.0,1997.0,87.0,-8.0,
2072.0,2128.0,0,
2053.0,1808.0,87.0,-8.0,
2064.0,2190.0,87.0,-8.0,
2088.0,2219.0,87.0,-8.0,
2046.0,1850.0,87.0,-8.0,
2083.0,2098.0,87.0,-8.0,
1984.0,2187.0,87.0,-8.0,
2141.0,2118.0,87.0,-8.0,
2076.0,2018.0,87.0,-8.0,
2099.0,2334.0,87.0,-8.0,
2073.0,2141.0,87.0,-8.0,
2100.0,2093.0,87.0,-8.0,
2101.0,2046.0,88.0,-8.0,
2074.0,1881.0,88.0,-8.0,
2012.0,1869.0,88.0,-8.0,
1997.0,2251.0,88.0,-8.0,
2002.0,2074.0,88.0,-8.0,
2060.0,2217.0,88.0,-8.0,
2188.0,1980.0,88.0,-8.0,
2103.0,2148.0,88.0,-8.0,
2049.0,1941.0,88.0,-8.0,
2133.0,2291.0,88.0,-8.0,
2029.0,2122.0,88.0,-8.0,
2086.0,2005.0,88.0,-8.0,
2005.0,1799.0,89.0,-8.0,
2034.0,2437.0,89.0,-8.0,
2111.0,2144.0,89.0,-8.0,
2095.0,2070.0,89.0,-8.0,
2069.0,1881.0,89.0,-8.0,
2040.0,2129.0,89.0,-8.0,
2083.0,2157.0,89.0,-8.0,
2074.0,2147.0,89.0,-8.0,
1994.0,1997.0,89.0,-8.0,
2044.0,2241.0,89.0,-8.0,
2055.0,2217.0,89.0,-8.0,
2096.0,2033.0,89.0,-8.0,
2064.0,2072.0,89.0,-9.0,
2065.0,2110.0,89.0,-9.0,
1987.0,1808.0,89.0,-8.0,
2125.0,2176.0,89.0,-7.0,
2106.0,2144.0,89.0,-7.0,
2127.0,2216.0,89.0,-8.0,
2103.0,2066.0,89.0,-8.0,
2095.0,2018.0,89.0,-8.0,
2052.0,1812.0,89.0,-7.0,
2095.0,2276.0,89.0,-7.0,
2073.0,2392.0,89.0,-6.0,
2058.0,1985.0,90.0,-7.0,
2058.0,2008.0,89.0,-8.0,
2031.0,2067.0,89.0,-8.0,
2090.0,2215.0,89.0,-8.0,
2064.0,2019.0,89.0,-8.0,
2003.0,1881.0,89.0,-8.0,
1942.0,1296.0,89.0,-8.0,
1999.0,2675.0,89.0,-8.0,
2212.0,2524.0,89.0,-8.0,
2163.0,2210.0,89.0,-8.0,
2143.0,2302.0,89.0,-8.0,
2114.0,2128.0,89.0,-8.0,
2066.0,1978.0,89.0,-8.0,
1969.0,1831.0,89.0,-8.0,
2052.0,2092.0,89.0,-8.0,
1956.0,1735.0,89.0,-8.0,
2126.0,2415.0,89.0,-8.0,
2100.0,2299.0,89.0,-8.0,
2106.0,2084.0,89.0,-8.0,
2080.0,1932.0,89.0,-8.0,
2047.0,1986.0,89.0,-8.0,
2039.0,2302.0,89.0,-8.0,
2095.0,2087.0,89.0,-8.0,
2093.0,1952.0,89.0,-8.0,
2061.0,2076.0,89.0,-8.0,
2047.0,2150.0,89.0,-8.0,
2044.0,2045.0,89.0,-8.0,
2062.0,2036.0,89.0,-8.0,
2061.0,2176.0,89.0,-8.0,
2068.0,2060.0,89.0,-8.0,
2063.0,2140.0,89.0,-8.0,
2079.0,2199.0,89.0,-8.0,
2034.0,2036.0,89.0,-8.0,
2070.0,2214.0,89.0,-8.0,
2053.0,1954.0,90.0,-8.0,
2032.0,1811.0,90.0,-8.0,
2156.0,2477.0,90.0,-8.0,
2042.0,1934.0,90.0,-8.0,
2051.0,2039.0,90.0,-8.0,
2102.0,2030.0,90.0,-8.0,
2038.0,2050.0,90.0,-8.0,
2075.0,2314.0,90.0,-8.0,
2070.0,1860.0,90.0,-8.0,
2083.0,2170.0,90.0,-8.0,
2063.0,1987.0,90.0,-8.0,
2083.0,2028.0,90.0,-8.0,
2073.0,2246.0,90.0,-8.0,
1993.0,2071.0,90.0,-8.0,
2049.0,1892.0,90.0,-8.0,
2117.0,2155.0,90.0,-8.0,
2068.0,1913.0,90.0,-7.0,
2084.0,2204.0,90.0,-8.0,
2105.0,2326.0,90.0,-8.0,
2135.0,2128.0,90.0,-8.0,
2091.0,1837.0,90.0,-8.0,
2010.0,1995.0,90.0,-8.0,
1971.0,2112.0,90.0,-8.0,
2070.0,2375.0,90.0,-8.0,
2178.0,2248.0,90.0,-8.0,
2139.0,2065.0,90.0,-8.0,
2044.0,2051.0,90.0,-8.0,
2085.0,2178.0,90.0,-8.0,
2052.0,2126.0,90.0,-8.0,
2156.0,2082.0,90.0,-8.0,
2089.0,2164.0,90.0,-8.0,
2053.0,2248.0,90.0,-8.0,
2074.0,2045.0,90.0,-8.0,
2047.0,2116.0,90.0,-8.0,
2027.0,2049.0,90.0,-8.0,
2059.0,2084.0,90.0,-8.0,
2115.0,2101.0,90.0,-8.0,
2110.0,1898.0,90.0,-8.0,
2057.0,1985.0,90.0,-8.0,
2003.0,2074.0,90.0,-8.0,
2050.0,2204.0,90.0,-8.0,
2005.0,2034.0,90.0,-8.0,
1995.0,2001.0,90.0,-8.0,
2060.0,2271.0,90.0,-8.0,
2132.0,2132.0,91.0,-8.0,
2090.0,2066.0,91.0,-8.0,
2100.0,1957.0,91.0,-8.0,
2029.0,1896.0,91.0,-8.0,
2064.0,2318.0,91.0,-8.0,
2082.0,2163.0,91.0,-8.0,
2069.0,2055.0,91.0,-8.0,
2085.0,2149.0,91.0,-8.0,
2030.0,2069.0,91.0,-8.0,
2064.0,2012.0,91.0,-8.0,
2118.0,2067.0,91.0,-8.0,
2076.0,2252.0,91.0,-8.0,
1970.0,1753.0,0,
2068.0,2156.0,91.0,-8.0,
2096.0,2195.0,91.0,-8.0,
2081.0,2262.0,91.0,-8.0,
2144.0,2032.0,91.0,-8.0,
2055.0,2052.0,91.0,-8.0,
1994.0,2134.0,91.0,-8.0,
2013.0,1863.0,91.0,-8.0,
2147.0,2294.0,91.0,-8.0,
2078.0,2370.0,91.0,-8.0,
2106.0,2131.0,91.0,-8.0,
2072.0,2197.0,91.0,-8.0,
2070.0,1866.0,91.0,-8.0,
2029.0,2032.0,91.0,-8.0,
2099.0,2210.0,90.0,-8.0,
2040.0,2047.0,90.0,-8.0,
2067.0,2118.0,90.0,-8.0,
2134.0,2134.0,90.0,-8.0,
2051.0,1989.0,90.0,-8.0,
2002.0,1953.0,90.0,-8.0,
2044.0,2159.0,90.0,-8.0,
2134.0,2279.0,90.0,-8.0,
2072.0,2153.0,90.0,-8.0,
2074.0,2116.0,90.0,-8.0,
2087.0,2033.0,90.0,-8.0,
2105.0,1955.0,90.0,-8.0,
2081.0,2132.0,90.0,-8.0,
2046.0,2016.0,90.0,-8.0,
2067.0,2032.0,90.0,-8.0,
2002.0,1902.0,90.0,-8.0,
2092.0,2167.0,91.0,-8.0,
2036.0,2056.0,91.0,-8.0,
2017.0,1956.0,91.0,-8.0,
2115.0,2215.0,91.0,-8.0,
2148.0,2132.0,91.0,-8.0,
2067.0,1991.0,91.0,-8.0,
2044.0,2210.0,91.0,-8.0,
2044.0,2218.0,90.0,-8.0,
2097.0,2111.0,90.0,-8.0,
2096.0,2017.0,90.0,-8.0,
2082.0,2043.0,90.0,-8.0,
2013.0,1890.0,90.0,-8.0,
2073.0,2253.0,90.0,-8.0,
2133.0,2213.0,90.0,-8.0,
2080.0,2206.0,90.0,-8.0,
2056.0,2063.0,90.0,-8.0,
2070.0,2107.0,90.0,-8.0,
2062.0,2074.0,90.0,-8.0,
2081.0,2093.0,90.0,-8.0,
2023.0,1990.0,90.0,-8.0,
2039.0,1879.0,90.0,-8.0,
2100.0,2201.0,90.0,-8.0,
2105.0,2076.0,91.0,-8.0,
2055.0,2182.0,91.0,-8.0,
1970.0,1961.0,91.0,-8.0,
2069.0,1854.0,91.0,-8.0,
2142.0,2395.0,91.0,-8.0,
2080.0,2196.0,91.0,-8.0,
2092.0,2199.0,90.0,-8.0,
2063.0,1968.0,90.0,-8.0,
2099.0,2221.0,90.0,-8.0,
2085.0,2071.0,90.0,-8.0,
2025.0,2064.0,90.0,-8.0,
2055.0,2115.0,90.0,-8.0,
2032.0,2003.0,90.0,-8.0,
2062.0,2103.0,90.0,-8.0,
2068.0,2154.0,90.0,-8.0,
2044.0,2181.0,90.0,-8.0,
2080.0,2099.0,90.0,-8.0,
2053.0,2025.0,90.0,-8.0,
2059.0,2136.0,90.0,-8.0,
1994.0,1936.0,90.0,-8.0,
2062.0,2068.0,90.0,-8.0,
2076.0,1973.0,90.0,-8.0,
2149.0,2265.0,90.0,-8.0,
2076.0,2216.0,90.0,-8.0,
2091.0,2093.0,90.0,-8.0,
2078.0,2099.0,90.0,-8.0,
2116.0,2110.0,90.0,-8.0,
2046.0,1784.0,90.0,-8.0,
2052.0,2113.0,90.0,-8.0,
2070.0,2093.0,90.0,-8.0,
2051.0,2074.0,90.0,-8.0,
2110.0,2257.0,90.0,-8.0,
2093.0,2158.0,90.0,-8.0,
2065.0,1748.0,90.0,-8.0,
2125.0,2303.0,90.0,-8.0,
2095.0,2138.0,90.0,-8.0,
2070.0,2180.0,90.0,-8.0,
2058.0,2006.0,90.0,-8.0,
2059.0,2140.0,90.0,-8.0,
2069.0,2003.0,90.0,-8.0,
2036.0,2023.0,90.0,-8.0,
2076.0,2015.0,90.0,-8.0,
2052.0,2119.0,90.0,-8.0,
2104.0,2137.0,90.0,-8.0,
2064.0,2104.0,90.0,-8.0,
2046.0,2094.0,90.0,-8.0,
2068.0,1983.0,91.0,-8.0,
2071.0,2224.0,91.0,-8.0,
2069.0,1938.0,91.0,-8.0,
2008.0,2043.0,91.0,-8.0,
2039.0,1945.0,91.0,-8.0,
2196.0,2448.0,91.0,-8.0,
2111.0,2276.0,91.0,-8.0,
2071.0,2213.0,91.0,-8.0,
2058.0,2129.0,91.0,-8.0,
2073.0,2034.0,91.0,-8.0,
2090.0,1986.0,91.0,-8.0,
2054.0,2116.0,91.0,-8.0,
2057.0,2204.0,91.0,-8.0,
2057.0,2074.0,91.0,-8.0,
2119.0,2011.0,90.0,-8.0,
2074.0,1846.0,90.0,-8.0,
2024.0,2065.0,90.0,-8.0,
2071.0,2173.0,90.0,-8.0,
2090.0,2162.0,90.0,-8.0,
2038.0,1861.0,90.0,-8.0,
2102.0,2354.0,90.0,-8.0,
2085.0,2183.0,90.0,-8.0,
2080.0,2153.0,90.0,-8.0,
2087.0,1952.0,90.0,-8.0,
2053.0,2151.0,90.0,-8.0,
2019.0,2116.0,90.0,-8.0,
2008.0,1842.0,90.0,-8.0,
2103.0,2144.0,90.0,-8.0,
2130.0,2295.0,90.0,-8.0,
2075.0,2006.0,90.0,-8.0,
2042.0,2108.0,90.0,-8.0,
2085.0,2145.0,90.0,-8.0,
2098.0,1989.0,90.0,-8.0,
2028.0,2151.0,90.0,-8.0,
2002.0,1858.0,90.0,-8.0,
2075.0,2241.0,90.0,-8.0,
2071.0,2198.0,90.0,-8.0,
2073.0,2136.0,90.0,-8.0,
2069.0,1915.0,90.0,-8.0,
2074.0,2026.0,90.0,-8.0,
2060.0,2199.0,90.0,-8.0,
2087.0,2116.0,90.0,-8.0,
2065.0,2089.0,90.0,-8.0,
2053.0,2075.0,90.0,-8.0,
2049.0,2034.0,90.0,-8.0,
2117.0,2119.0,90.0,-8.0,
2062.0,2087.0,90.0,-8.0,
2059.0,2008.0,90.0,-8.0,
2097.0,2066.0,90.0,-8.0,
2017.0,2066.0,90.0,-8.0,
2093.0,2068.0,90.0,-8.0,
2099.0,2158.0,90.0,-8.0,
2048.0,2170.0,90.0,-8.0,
2068.0,2097.0,90.0,-8.0,
2085.0,2104.0,90.0,-8.0,
2099.0,2087.0,90.0,-8.0,
2087.0,1952.0,90.0,-8.0,
2044.0,2140.0,90.0,-8.0,
2077.0,2125.0,90.0,-8.0,
2095.0,2154.0,90.0,-8.0,
2066.0,2070.0,90.0,-8.0,
2046.0,2070.0,90.0,-8.0,
2059.0,1943.0,90.0,-8.0,
2150.0,2089.0,90.0,-8.0,
2091.0,2009.0,90.0,-8.0,
2085.0,2048.0,90.0,-8.0,
2022.0,2197.0,90.0,-8.0,
2091.0,2130.0,90.0,-8.0,
2085.0,2251.0,90.0,-8.0,
2018.0,2028.0,90.0,-8.0,
2049.0,2174.0,90.0,-8.0,
2034.0,2106.0,90.0,-8.0,
2050.0,1981.0,90.0,-8.0,
2107.0,2040.0,90.0,-8.0,
2200.0,2240.0,90.0,-8.0,
2087.0,2183.0,90.0,-8.0,
2116.0,2169.0,90.0,-8.0,
2034.0,1936.0,90.0,-8.0,
2056.0,2239.0,90.0,-8.0,
2054.0,2127.0,90.0,-8.0,
2105.0,2186.0,90.0,-8.0,
2065.0,1926.0,90.0,-8.0,
2048.0,2158.0,90.0,-8.0,
2079.0,1853.0,90.0,-8.0,
2060.0,2120.0,89.0,-8.0,
2066.0,2202.0,89.0,-8.0,
2030.0,2092.0,89.0,-8.0,
2049.0,1941.0,89.0,-8.0,
1983.0,2165.0,89.0,-8.0,
2120.0,2162.0,89.0,-8.0,
2064.0,2083.0,89.0,-8.0,
2054.0,2054.0,89.0,-8.0,
2068.0,2084.0,89.0,-8.0,
2097.0,2094.0,89.0,-8.0,
2056.0,2047.0,89.0,-8.0,
2057.0,2013.0,89.0,-8.0,
2038.0,1888.0,89.0,-8.0,
2067.0,2084.0,89.0,-8.0,
2074.0,2009.0,89.0,-8.0,
2041.0,2370.0,89.0,-8.0,
2119.0,2212.0,89.0,-8.0,
2073.0,2101.0,89.0,-8.0,
2099.0,2123.0,89.0,-8.0,
2084.0,2038.0,90.0,-8.0,
2101.0,2105.0,90.0,-8.0,
2092.0,2066.0,89.0,-8.0,
2094.0,2110.0,89.0,-8.0,
2091.0,2018.0,89.0,-8.0,
2060.0,2012.0,89.0,-8.0,
2034.0,2176.0,90.0,-8.0,
2081.0,2041.0,90.0,-8.0,
2038.0,2082.0,90.0,-8.0,
2044.0,2187.0,90.0,-8.0,
2073.0,2126.0,90.0,-8.0,
2066.0,2056.0,90.0,-8.0,
2066.0,1864.0,90.0,-8.0,
2020.0,2264.0,90.0,-8.0,
2024.0,2187.0,90.0,-8.0,
2052.0,2069.0,90.0,-8.0,
2107.0,2103.0,90.0,-8.0,
2156.0,2094.0,90.0,-8.0,
2116.0,2058.0,90.0,-8.0,
2133.0,2167.0,90.0,-8.0,
2058.0,2033.0,90.0,-8.0,
2096.0,2135.0,90.0,-8.0,
2080.0,2023.0,90.0,-8.0,
2088.0,2146.0,90.0,-8.0,
2052.0,2016.0,90.0,-8.0,
2093.0,2114.0,90.0,-8.0,
2098.0,2136.0,90.0,-8.0,
2044.0,2167.0,90.0,-8.0,
2051.0,2055.0,90.0,-8.0,
2080.0,2094.0,90.0,-8.0,
2029.0,2039.0,90.0,-8.0,
2131.0,2289.0,90.0,-8.0,
2030.0,2000.0,90.0,-8.0,
2047.0,2179.0,90.0,-8.0,
2053.0,2031.0,90.0,-8.0,
2106.0,2103.0,90.0,-8.0,
2080.0,2135.0,90.0,-8.0,
2103.0,2033.0,90.0,-8.0,
2084.0,2094.0,90.0,-8.0,
2040.0,2026.0,90.0,-8.0,
2079.0,2111.0,89.0,-8.0,
2040.0,1995.0,89.0,-8.0,
2066.0,2160.0,90.0,-8.0,
2083.0,1993.0,90.0,-8.0,
2033.0,2008.0,90.0,-8.0,
2047.0,2081.0,90.0,-8.0,
2056.0,1990.0,90.0,-8.0,
2058.0,2128.0,90.0,-8.0,
2033.0,1874.0,90.0,-8.0,
2078.0,2250.0,90.0,-8.0,
2087.0,2173.0,90.0,-8.0,
2088.0,2031.0,90.0,-8.0,
2054.0,2053.0,90.0,-8.0,
2090.0,2006.0,90.0,-8.0,
2066.0,2300.0,90.0,-8.0,
2051.0,2222.0,90.0,-8.0,
2112.0,2141.0,90.0,-8.0,
2074.0,2026.0,90.0,-8.0,
2073.0,2209.0,90.0,-8.0,
2120.0,2112.0,90.0,-8.0,
2091.0,1942.0,90.0,-8.0,
2078.0,2027.0,89.0,-8.0,
2058.0,1899.0,89.0,-8.0,
2021.0,2257.0,89.0,-8.0,
2043.0,2155.0,89.0,-8.0,
2088.0,2103.0,89.0,-8.0,
2073.0,1996.0,89.0,-8.0,
2042.0,2138.0,89.0,-8.0,
2088.0,2031.0,89.0,-8.0,
2060.0,2253.0,89.0,-8.0,
2109.0,2135.0,89.0,-8.0,
2046.0,2125.0,89.0,-8.0,
2044.0,2082.0,89.0,-8.0,
2078.0,1990.0,89.0,-8.0,
2084.0,2105.0,89.0,-8.0,
2067.0,2118.0,89.0,-8.0,
2058.0,2036.0,90.0,-8.0,
2070.0,2043.0,90.0,-8.0,
2083.0,2159.0,90.0,-8.0,
2052.0,1957.0,90.0,-8.0,
2055.0,2188.0,90.0,-8.0,
1995.0,1995.0,90.0,-8.0,
2075.0,2170.0,90.0,-8.0,
2148.0,2069.0,90.0,-8.0,
2068.0,2043.0,90.0,-8.0,
2116.0,2098.0,90.0,-8.0,
2123.0,2273.0,90.0,-8.0,
2076.0,2079.0,90.0,-8.0,
2054.0,2113.0,90.0,-8.0,
2018.0,2115.0,90.0,-8.0,
2035.0,1869.0,90.0,-8.0,
2093.0,2296.0,90.0,-8.0,
2076.0,2104.0,89.0,-8.0,
2066.0,2109.0,89.0,-8.0,
2089.0,2024.0,89.0,-8.0,
2060.0,2102.0,89.0,-8.0,
2051.0,2089.0,89.0,-8.0,
2052.0,2022.0,89.0,-8.0,
2108.0,1943.0,90.0,-8.0,
2038.0,2253.0,89.0,-8.0,
2073.0,2164.0,90.0,-8.0,
2080.0,2132.0,90.0,-8.0,
2117.0,2149.0,90.0,-8.0,
2099.0,2142.0,90.0,-8.0,
2061.0,2002.0,90.0,-8.0,
2067.0,2108.0,90.0,-8.0,
2063.0,2012.0,90.0,-8.0,
2067.0,2125.0,90.0,-8.0,
2093.0,2077.0,90.0,-8.0,
2109.0,2071.0,90.0,-8.0,
2097.0,2057.0,90.0,-8.0,
2061.0,2041.0,90.0,-8.0,
2110.0,2017.0,90.0,-8.0,
2075.0,2073.0,90.0,-8.0,
2029.0,1976.0,90.0,-8.0,
2054.0,2183.0,90.0,-8.0,
2063.0,2202.0,90.0,-8.0,
2069.0,2120.0,90.0,-8.0,
2065.0,2000.0,90.0,-8.0,
2100.0,2191.0,90.0,-8.0,
2080.0,2070.0,90.0,-8.0,
2071.0,1992.0,90.0,-8.0,
2068.0,2070.0,90.0,-8.0,
2004.0,2045.0,90.0,-8.0,
2069.0,2052.0,90.0,-8.0,
2097.0,2127.0,90.0,-8.0,
2081.0,2141.0,90.0,-8.0,
2073.0,2064.0,90.0,-8.0,
2017.0,2098.0,90.0,-8.0,
2029.0,2160.0,90.0,-8.0,
2089.0,2168.0,90.0,-8.0,
2068.0,2103.0,90.0,-8.0,
2058.0,2072.0,90.0,-8.0,
2048.0,1968.0,90.0,-8.0,
2114.0,2153.0,90.0,-8.0,
2109.0,2083.0,90.0,-8.0,
2069.0,2126.0,90.0,-8.0,
2076.0,2100.0,90.0,-8.0,
2068.0,2052.0,90.0,-8.0,
2064.0,2009.0,90.0,-8.0,
2084.0,2089.0,90.0,-8.0,
2060.0,2174.0,90.0,-8.0,
2078.0,2123.0,90.0,-8.0,
2092.0,2072.0,90.0,-8.0,
2103.0,2024.0,90.0,-8.0,
2034.0,2046.0,90.0,-8.0,
2065.0,2072.0,90.0,-8.0,
2113.0,2168.0,90.0,-8.0,
2101.0,2087.0,90.0,-8.0,
2037.0,2115.0,90.0,-8.0,
2029.0,2032.0,90.0,-8.0,
2075.0,2033.0,90.0,-8.0,
2103.0,2141.0,90.0,-8.0,
2070.0,2130.0,90.0,-8.0,
2066.0,2080.0,90.0,-8.0,
2045.0,2081.0,90.0,-8.0,
2036.0,2068.0,90.0,-8.0,
2090.0,2185.0,90.0,-8.0,
2072.0,2076.0,90.0,-8.0,
2075.0,2120.0,90.0,-8.0,
2103.0,2002.0,90.0,-8.0,
2116.0,2140.0,90.0,-8.0,
2106.0,2135.0,90.0,-8.0,
2059.0,2029.0,90.0,-8.0,
2063.0,2145.0,90.0,-8.0,
2121.0,2121.0,90.0,-8.0,
2093.0,2055.0,90.0,-8.0,
2062.0,2092.0,90.0,-8.0,
2042.0,2021.0,90.0,-8.0,
2067.0,2062.0,90.0,-8.0,
2084.0,2119.0,90.0,-8.0,
2059.0,2116.0,90.0,-8.0,
2024.0,2036.0,89.0,-8.0,
2094.0,1901.0,89.0,-8.0,
2120.0,2213.0,89.0,-8.0,
2054.0,1966.0,89.0,-8.0,
2017.0,2100.0,89.0,-8.0,
2077.0,2167.0,89.0,-8.0,
2099.0,2196.0,90.0,-8.0,
2082.0,2118.0,90.0,-8.0,
2059.0,2056.0,89.0,-8.0,
2071.0,2079.0,89.0,-8.0,
2069.0,2091.0,89.0,-8.0,
2082.0,2079.0,89.0,-8.0,
2042.0,2053.0,89.0,-8.0,
2042.0,2022.0,89.0,-8.0,
2042.0,2124.0,89.0,-8.0,
2114.0,2113.0,89.0,-8.0,
2069.0,2089.0,89.0,-8.0,
2054.0,2067.0,89.0,-8.0,
2075.0,2107.0,89.0,-8.0,
2072.0,2090.0,89.0,-8.0,
2078.0,2127.0,89.0,-8.0,
2043.0,2100.0,89.0,-8.0,
2031.0,2106.0,89.0,-8.0,
2043.0,2091.0,89.0,-8.0,
2066.0,2094.0,89.0,-8.0,
2079.0,1985.0,89.0,-8.0,
2090.0,2115.0,89.0,-8.0,
2010.0,1966.0,89.0,-8.0,
2071.0,2208.0,89.0,-8.0,
2125.0,2032.0,89.0,-8.0,
2060.0,2091.0,89.0,-8.0,
2056.0,2083.0,89.0,-8.0,
2043.0,2091.0,89.0,-8.0,
2108.0,2185.0,89.0,-8.0,
2055.0,2098.0,89.0,-8.0,
2066.0,2102.0,89.0,-8.0,
2048.0,2096.0,89.0,-8.0,
2117.0,2062.0,89.0,-8.0,
2071.0,2120.0,89.0,-8.0,
2046.0,2076.0,88.0,-8.0,
2043.0,2037.0,88.0,-8.0,
2070.0,2137.0,88.0,-8.0,
2083.0,2045.0,88.0,-8.0,
2054.0,2133.0,88.0,-8.0,
2070.0,2075.0,88.0,-8.0,
2115.0,2011.0,88.0,-8.0,
2111.0,2023.0,87.0,-8.0,
2068.0,2169.0,87.0,-8.0,
2073.0,2099.0,87.0,-8.0,
2059.0,2070.0,87.0,-8.0,
2080.0,2069.0,87.0,-8.0,
2081.0,2093.0,87.0,-8.0,
2055.0,2072.0,87.0,-8.0,
2062.0,2080.0,87.0,-8.0,
2073.0,2128.0,87.0,-8.0,
2082.0,2074.0,87.0,-8.0,
2035.0,2065.0,87.0,-8.0,
2042.0,2085.0,87.0,-8.0,
2047.0,2098.0,87.0,-8.0,
2080.0,2029.0,87.0,-8.0,
2082.0,2013.0,87.0,-8.0,
2055.0,2142.0,87.0,-8.0,
2058.0,2058.0,87.0,-8.0,
2094.0,2138.0,87.0,-8.0,
2088.0,2085.0,87.0,-8.0,
2068.0,2101.0,87.0,-8.0,
2046.0,2114.0,87.0,-8.0,
2062.0,2127.0,87.0,-8.0,
2088.0,2132.0,87.0,-8.0,
2048.0,2134.0,87.0,-8.0,
2091.0,2130.0,0,
2105.0,2097.0,87.0,-8.0,
2152.0,2093.0,87.0,-8.0,
2077.0,2115.0,87.0,-8.0,
2069.0,2013.0,87.0,-8.0,
2073.0,2049.0,87.0,-8.0,
2070.0,2108.0,87.0,-8.0,
2078.0,2095.0,87.0,-8.0,
2038.0,2052.0,87.0,-8.0,
2042.0,2132.0,87.0,-8.0,
2053.0,2147.0,87.0,-8.0,
2101.0,2170.0,87.0,-8.0,
2079.0,2112.0,87.0,-8.0,
2087.0,2084.0,87.0,-8.0,
2059.0,2094.0,86.0,-8.0,
2092.0,2059.0,86.0,-7.0,
2087.0,2100.0,86.0,-7.0,
2056.0,2063.0,86.0,-7.0,
2066.0,2094.0,86.0,-7.0,
2072.0,2115.0,86.0,-7.0,
2092.0,2068.0,86.0,-7.0,
2066.0,2086.0,86.0,-7.0,
2058.0,2039.0,86.0,-7.0,
2068.0,2070.0,86.0,-7.0,
2094.0,2088.0,86.0,-7.0,
2073.0,2038.0,86.0,-7.0,
2052.0,2091.0,86.0,-7.0,
2060.0,2131.0,86.0,-7.0,
2078.0,2130.0,86.0,-7.0,
2091.0,2121.0,86.0,-8.0,
2057.0,2102.0,85.0,-8.0,
2051.0,2104.0,85.0,-8.0,
2047.0,2077.0,85.0,-8.0,
2083.0,2067.0,85.0,-8.0,
2053.0,2033.0,85.0,-8.0,
2061.0,2145.0,85.0,-8.0,
2065.0,2106.0,85.0,-8.0,
2063.0,2126.0,85.0,-8.0,
2072.0,2141.0,85.0,-8.0,
2049.0,2067.0,85.0,-8.0,
2063.0,2052.0,84.0,-8.0,
2056.0,2060.0,84.0,-8.0,
2146.0,2046.0,84.0,-8.0,
2089.0,2012.0,84.0,-8.0,
2075.0,2080.0,84.0,-8.0,
2094.0,2124.0,84.0,-8.0,
2099.0,2117.0,84.0,-8.0,
2058.0,2099.0,84.0,-8.0,
2032.0,2052.0,84.0,-8.0,
2038.0,2060.0,83.0,-8.0,
2115.0,2108.0,83.0,-8.0,
2058.0,2022.0,83.0,-8.0,
2084.0,2037.0,83.0,-8.0,
2117.0,2086.0,83.0,-8.0,
2103.0,2038.0,83.0,-8.0,
2112.0,2204.0,83.0,-8.0,
2074.0,2075.0,83.0,-8.0,
2053.0,2170.0,83.0,-8.0,
2054.0,2092.0,83.0,-8.0,
2066.0,2074.0,83.0,-8.0,
2067.0,2082.0,83.0,-8.0,
2068.0,2140.0,83.0,-8.0,
2088.0,2073.0,83.0,-8.0,
2071.0,2081.0,83.0,-8.0,
2092.0,2013.0,83.0,-8.0,
2038.0,1989.0,83.0,-8.0,
2039.0,2113.0,83.0,-7.0,
2052.0,2111.0,82.0,-7.0,
2080.0,2200.0,82.0,-7.0,
2071.0,2114.0,82.0,-7.0,
2070.0,2114.0,82.0,-7.0,
2053.0,2111.0,82.0,-7.0,
2060.0,2064.0,82.0,-7.0,
2065.0,2085.0,82.0,-7.0,
2003.0,2090.0,82.0,-7.0,
2026.0,2091.0,82.0,-7.0,
2076.0,2095.0,82.0,-7.0,
2077.0,2104.0,82.0,-7.0,
2063.0,2083.0,82.0,-7.0,
2073.0,2087.0,81.0,-7.0,
2100.0,2025.0,81.0,-7.0,
2098.0,2059.0,81.0,-8.0,
2057.0,2088.0,81.0,-8.0,
2058.0,2060.0,81.0,-8.0,
2053.0,2104.0,81.0,-8.0,
2080.0,2122.0,81.0,-8.0,
2054.0,2043.0,81.0,-8.0,
2040.0,2070.0,81.0,-8.0,
2055.0,2106.0,81.0,-8.0,
2040.0,2121.0,81.0,-8.0,
2122.0,2129.0,81.0,-8.0,
2093.0,2081.0,81.0,-8.0,
2056.0,2100.0,81.0,-8.0,
2087.0,2108.0,81.0,-8.0,
2136.0,2018.0,81.0,-8.0,
2102.0,2082.0,81.0,-8.0,
2100.0,2114.0,81.0,-8.0,
2097.0,2189.0,81.0,-8.0,
2076.0,2084.0,81.0,-8.0,
2092.0,2169.0,81.0,-8.0,
2051.0,2078.0,81.0,-8.0,
2022.0,2052.0,81.0,-8.0,
2066.0,2025.0,81.0,-8.0,
2116.0,2141.0,80.0,-8.0,
2105.0,2121.0,80.0,-8.0,
2082.0,2111.0,80.0,-7.0,
2052.0,2099.0,80.0,-7.0,
2105.0,2165.0,0,
2123.0,2104.0,79.0,-7.0,
2046.0,1907.0,79.0,-7.0,
2039.0,2132.0,79.0,-7.0,
2030.0,2085.0,78.0,-7.0,
2068.0,2097.0,78.0,-7.0,
2049.0,2073.0,78.0,-7.0,
2033.0,2114.0,78.0,-7.0,
2053.0,2113.0,78.0,-7.0,
2064.0,2098.0,78.0,-7.0,
2065.0,2082.0,78.0,-6.0,
2022.0,2060.0,78.0,-6.0,
2017.0,2067.0,79.0,-7.0,
2036.0,2091.0,79.0,-7.0,
2067.0,2065.0,79.0,-7.0,
2031.0,2074.0,79.0,-7.0,
2040.0,2078.0,79.0,-7.0,
2079.0,2114.0,79.0,-7.0,
2117.0,2084.0,79.0,-7.0,
2079.0,2115.0,79.0,-7.0,
2040.0,2079.0,79.0,-7.0,
2052.0,2087.0,79.0,-7.0,
2079.0,2109.0,79.0,-7.0,
2101.0,2078.0,79.0,-7.0,
2082.0,2103.0,79.0,-7.0,
2072.0,2093.0,79.0,-7.0,
2093.0,2112.0,79.0,-8.0,
2107.0,2094.0,78.0,-8.0,
2057.0,2075.0,78.0,-8.0,
2034.0,2094.0,78.0,-8.0,
2055.0,2056.0,78.0,-8.0,
2076.0,2087.0,78.0,-8.0,
2117.0,2105.0,77.0,-8.0,
2061.0,2049.0,77.0,-8.0,
2059.0,2010.0,77.0,-8.0,
2095.0,2126.0,76.0,-8.0,
2126.0,2044.0,76.0,-8.0,
2058.0,2069.0,76.0,-8.0,
2044.0,2134.0,76.0,-8.0,
2048.0,2071.0,75.0,-8.0,
2077.0,2135.0,75.0,-8.0,
2073.0,2107.0,74.0,-8.0,
2041.0,2134.0,74.0,-8.0,
2074.0,2116.0,74.0,-8.0,
2107.0,2119.0,73.0,-8.0,
2099.0,2074.0,73.0,-8.0,
2053.0,2008.0,73.0,-8.0,
2057.0,2120.0,73.0,-8.0,
2052.0,2039.0,72.0,-7.0,
2067.0,2114.0,72.0,-7.0,
2048.0,2088.0,72.0,-7.0,
2086.0,2087.0,72.0,-7.0,
2075.0,2090.0,72.0,-7.0,
2128.0,2109.0,72.0,-7.0,
2140.0,2085.0,71.0,-7.0,
2043.0,2072.0,71.0,-7.0,
2038.0,2114.0,71.0,-7.0,
2051.0,2073.0,71.0,-7.0,
2076.0,2100.0,71.0,-7.0,
2045.0,2114.0,71.0,-7.0,
2061.0,2110.0,71.0,-7.0,
2074.0,2098.0,71.0,-7.0,
2125.0,2081.0,71.0,-7.0,
2043.0,2097.0,71.0,-7.0,
2010.0,2062.0,71.0,-7.0,
2017.0,2085.0,71.0,-7.0,
2083.0,2045.0,70.0,-8.0,
2079.0,2058.0,70.0,-8.0,
2067.0,2077.0,70.0,-8.0,
2082.0,2079.0,70.0,-8.0,
2106.0,2101.0,70.0,-8.0,
2083.0,2114.0,70.0,-8.0,
2024.0,2121.0,70.0,-8.0,
2044.0,2028.0,70.0,-8.0,
2043.0,2044.0,70.0,-8.0,
2075.0,2124.0,70.0,-8.0,
2112.0,2112.0,70.0,-8.0,
2100.0,2070.0,70.0,-8.0,
2064.0,2078.0,70.0,-8.0,
2085.0,2141.0,70.0,-8.0,
2097.0,2120.0,70.0,-8.0,
2051.0,2078.0,70.0,-8.0,
2057.0,2078.0,70.0,-8.0,
2051.0,2064.0,70.0,-8.0,
2098.0,2087.0,70.0,-8.0,
2072.0,2059.0,70.0,-8.0,
2056.0,2070.0,69.0,-8.0,
2087.0,2086.0,69.0,-8.0,
2077.0,2119.0,69.0,-8.0,
2096.0,2106.0,69.0,-8.0,
2062.0,2143.0,69.0,-8.0,
2049.0,2117.0,69.0,-8.0,
2074.0,2142.0,68.0,-8.0,
2099.0,2135.0,68.0,-8.0,
2068.0,2106.0,68.0,-8.0,
2064.0,2116.0,68.0,-8.0,
2067.0,2089.0,67.0,-8.0,
2095.0,2061.0,67.0,-7.0,
2072.0,2069.0,67.0,-7.0,
2036.0,2077.0,66.0,-7.0,
2033.0,2040.0,66.0,-7.0,
2061.0,2043.0,66.0,-7.0,
2074.0,2040.0,66.0,-7.0,
2061.0,2115.0,66.0,-7.0,
2101.0,2091.0,66.0,-7.0,
2076.0,2032.0,66.0,-7.0,
2083.0,2062.0,67.0,-7.0,
2057.0,2075.0,67.0,-7.0,
2041.0,2090.0,67.0,-7.0,
2041.0,2106.0,67.0,-7.0,
2072.0,2093.0,67.0,-7.0,
2076.0,2079.0,67.0,-7.0,
2059.0,2101.0,67.0,-7.0,
2074.0,2116.0,67.0,-7.0,
2074.0,2104.0,67.0,-7.0,
2059.0,2105.0,67.0,-7.0,
2060.0,2059.0,67.0,-7.0,
2042.0,2067.0,67.0,-7.0,
2050.0,2051.0,67.0,-7.0,
2151.0,2082.0,67.0,-7.0,
2110.0,2104.0,67.0,-7.0,
2125.0,2111.0,67.0,-7.0,
2077.0,2114.0,67.0,-7.0,
2082.0,2102.0,68.0,-7.0,
2086.0,2089.0,68.0,-7.0,
2044.0,2098.0,68.0,-7.0,
2047.0,2104.0,68.0,-7.0,
2075.0,2111.0,68.0,-7.0,
2102.0,2051.0,68.0,-7.0,
2084.0,2116.0,68.0,-7.0,
2075.0,2105.0,68.0,-8.0,
2085.0,2156.0,68.0,-8.0,
2111.0,2095.0,68.0,-8.0,
2086.0,2139.0,68.0,-8.0,
2051.0,2117.0,68.0,-7.0,
2052.0,2077.0,68.0,-8.0,
2061.0,2050.0,68.0,-8.0,
2084.0,2068.0,67.0,-8.0,
2062.0,2073.0,67.0,-8.0,
2073.0,2122.0,66.0,-7.0,
2083.0,2087.0,65.0,-7.0,
2096.0,2093.0,65.0,-7.0,
2063.0,2034.0,64.0,-7.0,
2046.0,2051.0,64.0,-7.0,
2045.0,2018.0,63.0,-7.0,
2072.0,2125.0,63.0,-7.0,
2078.0,2106.0,62.0,-6.0,
2063.0,2095.0,62.0,-6.0,
2043.0,2115.0,62.0,-6.0,
2070.0,2121.0,62.0,-6.0,
2091.0,2124.0,62.0,-6.0,
2058.0,2106.0,62.0,-6.0,
2047.0,2080.0,62.0,-6.0,
2043.0,2077.0,62.0,-6.0,
2084.0,2082.0,61.0,-6.0,
2072.0,2073.0,61.0,-6.0,
2062.0,2057.0,61.0,-6.0,
2074.0,2098.0,61.0,-6.0,
2095.0,2096.0,62.0,-6.0,
2074.0,2078.0,62.0,-6.0,
2046.0,2093.0,62.0,-6.0,
2049.0,2103.0,62.0,-7.0,
2047.0,2087.0,62.0,-7.0,
2096.0,2113.0,62.0,-7.0,
2065.0,2090.0,62.0,-7.0,
2075.0,2135.0,62.0,-7.0,
2109.0,2142.0,62.0,-7.0,
2143.0,2101.0,62.0,-7.0,
2099.0,2095.0,62.0,-7.0,
2058.0,2106.0,62.0,-8.0,
2051.0,2008.0,62.0,-8.0,
2068.0,2103.0,62.0,-8.0,
2084.0,2115.0,61.0,-8.0,
2034.0,2117.0,61.0,-8.0,
2063.0,2065.0,61.0,-8.0,
2066.0,2153.0,61.0,-8.0,
2071.0,2086.0,60.0,-8.0,
2080.0,2051.0,60.0,-8.0,
2043.0,2034.0,59.0,-8.0,
1998.0,2074.0,59.0,-8.0,
2081.0,2054.0,58.0,-8.0,
2077.0,2150.0,58.0,-8.0,
2078.0,2132.0,57.0,-8.0,
2101.0,2091.0,57.0,-8.0,
2120.0,2078.0,56.0,-8.0,
2084.0,2063.0,56.0,-7.0,
2046.0,2133.0,55.0,-8.0,
2047.0,2046.0,54.0,-8.0,
2052.0,2065.0,54.0,-7.0,
2098.0,2150.0,54.0,-7.0,
2070.0,2087.0,53.0,-7.0,
2068.0,2105.0,53.0,-7.0,
2083.0,2119.0,53.0,-6.0,
2087.0,2101.0,52.0,-6.0,
2069.0,2074.0,52.0,-6.0,
2052.0,2091.0,51.0,-6.0,
2058.0,2082.0,51.0,-6.0,
2065.0,2101.0,51.0,-6.0,
2092.0,2078.0,51.0,-6.0,
2062.0,2066.0,50.0,-6.0,
2073.0,2092.0,50.0,-6.0,
2061.0,2100.0,50.0,-6.0,
2104.0,2098.0,50.0,-6.0,
2054.0,2097.0,50.0,-6.0,
2043.0,2080.0,50.0,-6.0,
2051.0,2091.0,50.0,-6.0,
2082.0,2118.0,50.0,-6.0,
2069.0,2077.0,50.0,-6.0,
2066.0,2082.0,49.0,-6.0,
2061.0,2077.0,50.0,-6.0,
2081.0,2103.0,50.0,-7.0,
2082.0,2109.0,49.0,-7.0,
2043.0,2052.0,50.0,-7.0,
2066.0,2079.0,50.0,-7.0,
2057.0,2092.0,50.0,-7.0,
2081.0,2099.0,50.0,-7.0,
2072.0,2078.0,50.0,-7.0,
2057.0,2080.0,50.0,-8.0,
2070.0,2089.0,50.0,-8.0,
2102.0,2097.0,50.0,-8.0,
2089.0,2065.0,50.0,-8.0,
2073.0,2082.0,50.0,-8.0,
2073.0,2089.0,50.0,-8.0,
2078.0,2103.0,50.0,-8.0,
2102.0,2112.0,50.0,-8.0,
2074.0,2114.0,51.0,-8.0,
2094.0,2078.0,51.0,-8.0,
2087.0,2093.0,51.0,-8.0,
2102.0,2098.0,51.0,-8.0,
2059.0,2047.0,51.0,-8.0,
2052.0,2102.0,51.0,-7.0,
2050.0,2082.0,51.0,-6.0,
2098.0,2128.0,51.0,-7.0,
2091.0,2108.0,52.0,-7.0,
2087.0,2118.0,52.0,-8.0,
2068.0,2083.0,52.0,-8.0,
2076.0,2139.0,52.0,-8.0,
2093.0,2085.0,52.0,-8.0,
2053.0,2079.0,51.0,-7.0,
2028.0,2083.0,51.0,-7.0,
2036.0,2097.0,50.0,-8.0,
2084.0,2117.0,49.0,-9.0,
2086.0,2112.0,49.0,-8.0,
2107.0,2099.0,48.0,-6.0,
2084.0,2067.0,47.0,-6.0,
2082.0,2074.0,46.0,-6.0,
2079.0,2050.0,45.0,-6.0,
2039.0,2050.0,44.0,-6.0,
2033.0,2067.0,44.0,-6.0,
2049.0,2076.0,44.0,-6.0,
2073.0,2081.0,45.0,-6.0,
2056.0,2116.0,45.0,-6.0,
2059.0,2115.0,46.0,-6.0,
2062.0,2102.0,46.0,-7.0,
2092.0,2082.0,47.0,-7.0,
2083.0,2103.0,47.0,-6.0,
2049.0,2101.0,47.0,-6.0,
2041.0,2069.0,47.0,-6.0,
2058.0,2077.0,47.0,-6.0,
2091.0,2078.0,47.0,-6.0,
2055.0,2099.0,46.0,-6.0,
2072.0,2122.0,46.0,-7.0,
2077.0,2093.0,46.0,-6.0,
2086.0,2074.0,46.0,-6.0,
2076.0,2081.0,46.0,-6.0,
2057.0,2090.0,46.0,-6.0,
2064.0,2089.0,46.0,-7.0,
2085.0,2111.0,47.0,-7.0,
2095.0,2076.0,47.0,-7.0,
2064.0,2086.0,47.0,-7.0,
2086.0,2124.0,48.0,-7.0,
2091.0,2053.0,48.0,-6.0,
2096.0,2058.0,48.0,-6.0,
2042.0,2178.0,48.0,-6.0,
2043.0,2077.0,48.0,-6.0,
2057.0,2054.0,47.0,-6.0,
2088.0,2147.0,47.0,-6.0,
2076.0,2087.0,46.0,-7.0,
2058.0,2106.0,46.0,-7.0,
2077.0,2084.0,45.0,-7.0,
2094.0,2032.0,45.0,-7.0,
2086.0,2127.0,44.0,-6.0,
2051.0,2119.0,44.0,-7.0,
2073.0,2124.0,43.0,-7.0,
2065.0,2088.0,43.0,-7.0,
2070.0,2024.0,42.0,-7.0,
2045.0,2019.0,41.0,-7.0,
2057.0,2095.0,41.0,-7.0,
2080.0,2103.0,40.0,-6.0,
2118.0,2100.0,40.0,-6.0,
2080.0,2112.0,39.0,-6.0,
2057.0,2108.0,39.0,-7.0,
2064.0,2074.0,38.0,-7.0,
2077.0,2050.0,38.0,-7.0,
2091.0,2066.0,38.0,-7.0,
2063.0,2047.0,37.0,-7.0,
2064.0,2131.0,37.0,-7.0,
2083.0,2122.0,37.0,-7.0,
2103.0,2119.0,37.0,-7.0,
2071.0,2101.0,37.0,-7.0,
2060.0,2086.0,37.0,-7.0,
2108.0,2068.0,37.0,-7.0,
2085.0,2080.0,37.0,-7.0,
2091.0,2099.0,36.0,-7.0,
2059.0,2100.0,36.0,-7.0,
2070.0,2096.0,36.0,-8.0,
2073.0,2094.0,36.0,-8.0,
2066.0,2105.0,36.0,-8.0,
2066.0,2096.0,36.0,-8.0,
2048.0,2090.0,35.0,-8.0,
2052.0,2093.0,35.0,-8.0,
2091.0,2092.0,35.0,-8.0,
2069.0,2109.0,35.0,-8.0,
2060.0,2102.0,35.0,-8.0,
2074.0,2117.0,35.0,-8.0,
2051.0,2107.0,35.0,-8.0,
2073.0,2099.0,35.0,-8.0,
2042.0,2077.0,36.0,-8.0,
2051.0,2072.0,36.0,-8.0,
2043.0,2090.0,36.0,-8.0,
2080.0,2097.0,36.0,-8.0,
2053.0,2086.0,36.0,-8.0,
2064.0,2108.0,36.0,-8.0,
2071.0,2084.0,36.0,-8.0,
2083.0,2076.0,37.0,-8.0,
2085.0,2062.0,37.0,-8.0,
2058.0,2069.0,37.0,-8.0,
2056.0,2086.0,37.0,-7.0,
2082.0,2094.0,37.0,-7.0,
2102.0,2096.0,37.0,-7.0,
2068.0,2087.0,37.0,-7.0,
2068.0,2068.0,37.0,-8.0,
2078.0,2078.0,37.0,-8.0,
2092.0,2125.0,37.0,-8.0,
2052.0,2081.0,37.0,-8.0,
2051.0,2088.0,37.0,-8.0,
2058.0,2103.0,36.0,-8.0,
2084.0,2122.0,36.0,-9.0,
2074.0,2099.0,36.0,-10.0,
2062.0,2084.0,36.0,-9.0,
2069.0,2082.0,36.0,-9.0,
2090.0,2101.0,36.0,-7.0,
2084.0,2100.0,35.0,-7.0,
2055.0,2099.0,35.0,-6.0,
2052.0,2091.0,35.0,-7.0,
2049.0,2098.0,35.0,-7.0,
2067.0,2093.0,35.0,-7.0,
2060.0,2102.0,35.0,-7.0,
2061.0,2092.0,35.0,-7.0,
2061.0,2084.0,35.0,-7.0,
2083.0,2075.0,35.0,-7.0,
2074.0,2039.0,35.0,-7.0,
2047.0,2106.0,36.0,-7.0,
2051.0,2115.0,36.0,-8.0,
2066.0,2106.0,36.0,-7.0,
2092.0,2102.0,36.0,-7.0,
2057.0,2046.0,36.0,-7.0,
2060.0,2082.0,36.0,-7.0,
2087.0,2106.0,36.0,-6.0,
2078.0,2084.0,36.0,-6.0,
2072.0,2052.0,36.0,-7.0,
2062.0,2063.0,36.0,-7.0,
2065.0,2121.0,0,
2069.0,2079.0,37.0,-7.0,
2081.0,2127.0,37.0,-7.0,
2057.0,2145.0,37.0,-7.0,
2062.0,2110.0,37.0,-6.0,
2091.0,2096.0,37.0,-6.0,
2093.0,2104.0,37.0,-6.0,
2083.0,2105.0,37.0,-7.0,
2066.0,2111.0,37.0,-7.0,
2073.0,2086.0,37.0,-7.0,
2079.0,2016.0,36.0,-6.0,
2084.0,2044.0,36.0,-7.0,
2077.0,2086.0,36.0,-7.0,
2078.0,2085.0,36.0,-7.0,
2092.0,2096.0,35.0,-7.0,
2099.0,2094.0,35.0,-7.0,
2062.0,2093.0,34.0,-8.0,
2055.0,2089.0,34.0,-8.0,
2066.0,2092.0,33.0,-8.0,
2087.0,2104.0,32.0,-8.0,
2076.0,2092.0,32.0,-8.0,
2086.0,2104.0,31.0,-8.0,
2078.0,2119.0,31.0,-8.0,
2109.0,2110.0,30.0,-8.0,
2089.0,2103.0,30.0,-8.0,
2063.0,2099.0,30.0,-8.0,
2069.0,2097.0,29.0,-7.0,
2094.0,2129.0,29.0,-7.0,
2107.0,2125.0,28.0,-8.0,
2076.0,2091.0,28.0,-8.0,
2094.0,2059.0,28.0,-8.0,
2090.0,2012.0,28.0,-8.0,
2106.0,2051.0,27.0,-8.0,
2086.0,2065.0,27.0,-8.0,
2070.0,2039.0,26.0,-8.0,
2065.0,2069.0,26.0,-8.0,
2088.0,2060.0,25.0,-8.0,
2096.0,2088.0,25.0,-9.0,
2072.0,2102.0,25.0,-9.0,
2072.0,2098.0,24.0,-9.0,
2086.0,2097.0,24.0,-9.0,
2097.0,2091.0,24.0,-9.0,
2067.0,2108.0,23.0,-9.0,
2058.0,2132.0,23.0,-9.0,
2055.0,2126.0,22.0,-9.0,
2082.0,2126.0,22.0,-9.0,
2082.0,2101.0,22.0,-10.0,
2073.0,2101.0,21.0,-10.0,
2085.0,2114.0,20.0,-10.0,
2090.0,2103.0,20.0,-10.0,
2099.0,2123.0,19.0,-10.0,
2064.0,2116.0,19.0,-10.0,
2065.0,2093.0,18.0,-10.0,
2065.0,2085.0,18.0,-10.0,
2094.0,2094.0,18.0,-10.0,
2093.0,2098.0,17.0,-10.0,
2077.0,2098.0,17.0,-11.0,
2087.0,2101.0,16.0,-11.0,
2096.0,2041.0,16.0,-11.0,
2110.0,2050.0,15.0,-11.0,
2063.0,2090.0,15.0,-11.0,
2052.0,2093.0,15.0,-11.0,
2055.0,2092.0,14.0,-11.0,
2072.0,2091.0,14.0,-11.0,
2069.0,2092.0,13.0,-11.0,
2056.0,2095.0,13.0,-11.0,
2070.0,2100.0,13.0,-11.0,
2082.0,2101.0,12.0,-11.0,
2090.0,2103.0,12.0,-11.0,
2059.0,2100.0,12.0,-11.0,
2049.0,2082.0,12.0,-11.0,
2042.0,2070.0,11.0,-11.0,
2059.0,2086.0,11.0,-11.0,
2062.0,2092.0,11.0,-11.0,
2055.0,2096.0,11.0,-11.0,
2069.0,2095.0,11.0,-11.0,
2065.0,2088.0,11.0,-11.0,
2082.0,2083.0,11.0,-11.0,
2054.0,2086.0,11.0,-11.0,
2046.0,2084.0,11.0,-11.0,
2047.0,2087.0,11.0,-11.0,
2067.0,2087.0,11.0,-11.0,
2068.0,2081.0,11.0,-11.0,
2058.0,2086.0,11.0,-11.0,
2060.0,2085.0,11.0,-11.0,
2076.0,2101.0,11.0,-11.0,
2102.0,2096.0,11.0,-11.0,
2052.0,2085.0,12.0,-11.0,
2050.0,2034.0,12.0,-11.0,
2048.0,2088.0,12.0,-11.0,
2081.0,2093.0,12.0,-11.0,
2100.0,2090.0,13.0,-11.0,
2064.0,2101.0,13.0,-11.0,
2072.0,2096.0,13.0,-11.0,
2095.0,2103.0,13.0,-11.0,
2098.0,2104.0,13.0,-11.0,
2053.0,2114.0,13.0,-11.0,
2035.0,2105.0,14.0,-11.0,
2047.0,2094.0,14.0,-11.0,
2068.0,2074.0,14.0,-11.0,
2070.0,2039.0,14.0,-11.0,
2048.0,2077.0,14.0,-11.0,
2051.0,2098.0,15.0,-11.0,
2062.0,2092.0,15.0,-11.0,
2089.0,2088.0,15.0,-11.0,
2047.0,2085.0,15.0,-11.0,
2042.0,2086.0,16.0,-11.0,
2039.0,2094.0,16.0,-10.0,
2070.0,2099.0,16.0,-10.0,
2065.0,2090.0,17.0,-10.0,
2056.0,2090.0,17.0,-10.0,
2061.0,2085.0,17.0,-10.0,
2072.0,2086.0,18.0,-10.0,
2082.0,2092.0,18.0,-10.0,
2055.0,2088.0,18.0,-10.0,
2047.0,2092.0,19.0,-10.0,
2053.0,2088.0,19.0,-10.0,
2078.0,2087.0,19.0,-10.0,
2077.0,2091.0,19.0,-10.0,
2066.0,2093.0,20.0,-10.0,
2072.0,2097.0,20.0,-10.0,
2077.0,2106.0,20.0,-10.0,
2087.0,2100.0,20.0,-10.0,
2053.0,2104.0,20.0,-10.0,
2046.0,2103.0,20.0,-10.0,
2055.0,2098.0,20.0,-10.0,
2070.0,2070.0,21.0,-10.0,
2082.0,2060.0,21.0,-10.0,
2062.0,2119.0,21.0,-10.0,
2069.0,2100.0,21.0,-10.0,
2074.0,2092.0,21.0,-10.0,
2097.0,2076.0,21.0,-10.0,
2056.0,2083.0,21.0,-10.0,
2048.0,2084.0,21.0,-10.0,
2061.0,2083.0,21.0,-10.0,
2077.0,2097.0,21.0,-10.0,
2081.0,2094.0,21.0,-10.0,
2058.0,2097.0,21.0,-10.0,
2060.0,2100.0,20.0,-10.0,
2077.0,2097.0,20.0,-10.0,
2089.0,2068.0,20.0,-10.0,
2069.0,2087.0,20.0,-10.0,
2052.0,2090.0,20.0,-10.0,
2059.0,2136.0,20.0,-10.0,
2066.0,2108.0,20.0,-10.0,
2080.0,2093.0,20.0,-10.0,
2064.0,2076.0,19.0,-10.0,
2069.0,2078.0,19.0,-10.0,
2087.0,2098.0,19.0,-10.0,
2084.0,2093.0,19.0,-10.0,
2061.0,2086.0,19.0,-10.0,
2048.0,2056.0,19.0,-10.0,
2049.0,2073.0,19.0,-10.0,
2067.0,2082.0,19.0,-10.0,
2089.0,2102.0,18.0,-10.0,
2068.0,2093.0,18.0,-10.0,
2067.0,2100.0,18.0,-10.0,
2074.0,2110.0,18.0,-10.0,
2090.0,2113.0,18.0,-10.0,
2065.0,2107.0,18.0,-10.0,
2055.0,2093.0,18.0,-10.0,
2066.0,2077.0,18.0,-10.0,
2065.0,2075.0,17.0,-10.0,
2074.0,2093.0,17.0,-10.0,
2061.0,2087.0,17.0,-10.0,
2067.0,2088.0,17.0,-10.0,
2079.0,2102.0,17.0,-10.0,
2092.0,2100.0,17.0,-10.0,
2061.0,2098.0,17.0,-10.0,
2044.0,2094.0,17.0,-10.0,
2054.0,2078.0,17.0,-10.0,
2065.0,2085.0,17.0,-10.0,
2086.0,2092.0,17.0,-10.0,
2069.0,2087.0,17.0,-10.0,
2073.0,2088.0,17.0,-10.0,
2076.0,2094.0,17.0,-10.0,
2092.0,2101.0,17.0,-10.0,
2068.0,2112.0,17.0,-10.0,
2048.0,2110.0,16.0,-10.0,
2047.0,2097.0,16.0,-10.0,
2062.0,2085.0,16.0,-10.0,
2074.0,2051.0,16.0,-10.0,
2044.0,2067.0,16.0,-10.0,
2055.0,2083.0,17.0,-10.0,
2098.0,2091.0,17.0,-10.0,
2082.0,2093.0,17.0,-10.0,
2062.0,2086.0,17.0,-10.0,
2049.0,2080.0,17.0,-10.0,
2042.0,2073.0,17.0,-10.0,
2061.0,2072.0,17.0,-10.0,
2091.0,2093.0,17.0,-10.0,
2067.0,2098.0,17.0,-10.0,
2077.0,2093.0,17.0,-11.0,
2082.0,2101.0,17.0,-11.0,
2094.0,2102.0,17.0,-11.0,
2075.0,2089.0,17.0,-10.0,
2049.0,2096.0,17.0,-10.0,
2069.0,2096.0,17.0,-10.0,
2063.0,2085.0,18.0,-10.0,
2088.0,2094.0,18.0,-10.0,
2068.0,2089.0,18.0,-10.0,
2064.0,2106.0,18.0,-11.0,
2081.0,2150.0,18.0,-10.0,
2100.0,2113.0,18.0,-11.0,
2080.0,2076.0,18.0,-11.0,
2042.0,2036.0,18.0,-11.0,
2045.0,2039.0,18.0,-11.0,
2074.0,2091.0,18.0,-11.0,
2084.0,2086.0,18.0,-11.0,
2056.0,2082.0,18.0,-11.0,
2061.0,2083.0,18.0,-11.0,
2081.0,2088.0,18.0,-11.0,
2090.0,2097.0,18.0,-11.0,
2075.0,2089.0,18.0,-11.0,
2044.0,2094.0,18.0,-11.0,
2048.0,2089.0,18.0,-11.0,
2058.0,2094.0,18.0,-11.0,
2083.0,2098.0,18.0,-11.0,
2070.0,2098.0,19.0,-11.0,
2073.0,2101.0,19.0,-11.0,
2086.0,2109.0,19.0,-11.0,
2092.0,2100.0,19.0,-10.0,
2081.0,2099.0,18.0,-10.0,
2061.0,2087.0,19.0,-10.0,
2060.0,2076.0,19.0,-10.0,
2067.0,2090.0,18.0,-10.0,
2090.0,2096.0,18.0,-10.0,
2071.0,2095.0,18.0,-10.0,
2073.0,2096.0,18.0,-10.0,
2084.0,2096.0,18.0,-10.0,
2095.0,2095.0,18.0,-10.0,
2080.0,2091.0,18.0,-10.0,
2046.0,2088.0,18.0,-10.0,
2060.0,2095.0,18.0,-10.0,
2051.0,2081.0,18.0,-10.0,
2080.0,2086.0,18.0,-10.0,
2053.0,2085.0,18.0,-10.0,
2064.0,2087.0,18.0,-10.0,
2069.0,2098.0,18.0,-10.0,
2091.0,2100.0,18.0,-10.0,
2082.0,2101.0,18.0,-10.0,
2040.0,2091.0,18.0,-10.0,
2041.0,2090.0,18.0,-10.0,
2049.0,2092.0,18.0,-10.0,
2076.0,2087.0,18.0,-10.0,
2054.0,2079.0,18.0,-10.0,
2055.0,2094.0,18.0,-10.0,
2070.0,2090.0,18.0,-10.0,
2083.0,2089.0,18.0,-10.0,
2085.0,2086.0,18.0,-10.0,
2044.0,2086.0,18.0,-10.0,
2038.0,2081.0,18.0,-10.0,
2054.0,2077.0,18.0,-10.0,
2083.0,2094.0,18.0,-10.0,
2066.0,2094.0,18.0,-10.0,
2064.0,2101.0,18.0,-10.0,
2072.0,2100.0,18.0,-10.0,
2096.0,2110.0,18.0,-10.0,
2080.0,2113.0,18.0,-10.0,
2053.0,2110.0,18.0,-10.0,
2069.0,2103.0,18.0,-10.0,
2046.0,2093.0,18.0,-10.0,
2076.0,2091.0,18.0,-10.0,
2057.0,2101.0,18.0,-11.0,
2073.0,2102.0,18.0,-11.0,
2080.0,2100.0,18.0,-11.0,
2100.0,2107.0,18.0,-11.0,
2084.0,2092.0,18.0,-11.0,
2039.0,2090.0,18.0,-11.0,
2063.0,2095.0,18.0,-10.0,
2056.0,2093.0,18.0,-10.0,
2086.0,2112.0,18.0,-11.0,
2066.0,2098.0,18.0,-10.0,
2068.0,2106.0,18.0,-10.0,
2080.0,2109.0,18.0,-10.0,
2088.0,2104.0,18.0,-10.0,
2086.0,2097.0,18.0,-10.0,
2060.0,2091.0,18.0,-10.0,
2055.0,2080.0,18.0,-10.0,
2053.0,2082.0,18.0,-10.0,
2083.0,2097.0,18.0,-10.0,
2060.0,2088.0,18.0,-10.0,
2053.0,2092.0,18.0,-10.0,
2070.0,2095.0,18.0,-10.0,
2083.0,2090.0,18.0,-10.0,
2079.0,2083.0,18.0,-10.0,
2051.0,2082.0,18.0,-10.0,
2054.0,2070.0,18.0,-10.0,
2066.0,2077.0,18.0,-10.0,
2084.0,2087.0,18.0,-10.0,
2060.0,2095.0,18.0,-10.0,
2061.0,2089.0,18.0,-10.0,
2067.0,2092.0,18.0,-10.0,
2074.0,2079.0,18.0,-10.0,
2073.0,2074.0,18.0,-10.0,
2042.0,2079.0,18.0,-10.0,
2045.0,2079.0,18.0,-10.0,
2052.0,2076.0,18.0,-10.0,
2085.0,2090.0,18.0,-10.0,
2063.0,2087.0,18.0,-10.0,
2054.0,2087.0,18.0,-10.0,
2069.0,2093.0,18.0,-10.0,
2091.0,2095.0,18.0,-10.0,
2091.0,2093.0,18.0,-10.0,
2053.0,2090.0,18.0,-10.0,
2062.0,2084.0,18.0,-10.0,
2067.0,2089.0,18.0,-10.0,
2097.0,2093.0,18.0,-10.0,
2072.0,2083.0,18.0,-10.0,
2064.0,2097.0,18.0,-10.0,
2074.0,2093.0,18.0,-10.0,
2093.0,2094.0,18.0,-10.0,
2091.0,2101.0,18.0,-10.0,
2048.0,2099.0,18.0,-10.0,
2041.0,2090.0,18.0,-10.0,
2049.0,2084.0,18.0,-10.0,
2076.0,2097.0,0,
2071.0,2089.0,18.0,-10.0,
2071.0,2089.0,18.0,-11.0,
2073.0,2094.0,18.0,-10.0,
2058.0,2097.0,18.0,-10.0,
2091.0,2070.0,18.0,-10.0,
2049.0,2089.0,18.0,-10.0,
2055.0,2080.0,18.0,-11.0,
2058.0,2085.0,18.0,-10.0,
2052.0,2088.0,18.0,-10.0,
2072.0,2103.0,18.0,-11.0,
2068.0,2090.0,18.0,-11.0,
2072.0,2089.0,18.0,-11.0,
2086.0,2084.0,18.0,-11.0,
2081.0,2092.0,18.0,-11.0,
2051.0,2078.0,18.0,-11.0,
2058.0,2089.0,18.0,-11.0,
2060.0,2090.0,18.0,-11.0,
2096.0,2074.0,18.0,-11.0,
2083.0,2083.0,18.0,-11.0,
2062.0,2087.0,18.0,-11.0,
2069.0,2085.0,18.0,-11.0,
2093.0,2094.0,18.0,-11.0,
2103.0,2088.0,18.0,-10.0,
2054.0,2083.0,18.0,-11.0,
2051.0,2085.0,18.0,-11.0,
2056.0,2073.0,18.0,-11.0,
2087.0,2083.0,18.0,-11.0,
2074.0,2088.0,18.0,-11.0,
2061.0,2091.0,18.0,-11.0,
2069.0,2096.0,18.0,-11.0,
2090.0,2091.0,18.0,-11.0,
2099.0,2090.0,18.0,-11.0,
2068.0,2083.0,18.0,-11.0,
2052.0,2080.0,18.0,-11.0,
2059.0,2080.0,18.0,-11.0,
2131.0,2090.0,18.0,-11.0,
2076.0,2091.0,18.0,-11.0,
2066.0,2092.0,18.0,-11.0,
2071.0,2097.0,18.0,-11.0,
2079.0,2095.0,18.0,-11.0,
2066.0,2096.0,18.0,-11.0,
2048.0,2088.0,18.0,-11.0,
2049.0,2090.0,18.0,-11.0,
2051.0,2078.0,18.0,-11.0,
2083.0,2094.0,18.0,-11.0,
2077.0,2085.0,18.0,-11.0,
2065.0,2087.0,18.0,-11.0,
2078.0,2088.0,18.0,-11.0,
2078.0,2094.0,18.0,-11.0,
2091.0,2097.0,18.0,-11.0,
2058.0,2087.0,18.0,-11.0,
2052.0,2083.0,18.0,-11.0,
2060.0,2085.0,18.0,-11.0,
2086.0,2085.0,18.0,-11.0,
2074.0,2081.0,18.0,-10.0,
2062.0,2104.0,18.0,-10.0,
2067.0,2097.0,18.0,-10.0,
2080.0,2060.0,18.0,-10.0,
2085.0,2094.0,18.0,-10.0,
2054.0,2090.0,18.0,-10.0,
2049.0,2087.0,18.0,-10.0,
2055.0,2083.0,18.0,-10.0,
2073.0,2064.0,18.0,-10.0,
2068.0,2091.0,18.0,-10.0,
2053.0,2098.0,18.0,-10.0,
2056.0,2100.0,18.0,-10.0,
2071.0,2102.0,18.0,-10.0,
2095.0,2099.0,18.0,-10.0,
2051.0,2098.0,18.0,-10.0,
2043.0,2089.0,18.0,-10.0,
2043.0,2085.0,18.0,-10.0,
2070.0,2089.0,18.0,-10.0,
2077.0,2091.0,18.0,-10.0,
2058.0,2098.0,18.0,-10.0,
2066.0,2090.0,18.0,-10.0,
2081.0,2095.0,18.0,-10.0,
2105.0,2104.0,18.0,-10.0,
2067.0,2100.0,18.0,-10.0,
2058.0,2095.0,18.0,-10.0,
2067.0,2088.0,18.0,-10.0,
2083.0,2092.0,18.0,-11.0,
2068.0,2083.0,18.0,-10.0,
2066.0,2090.0,18.0,-10.0,
2074.0,2095.0,18.0,-10.0,
2091.0,2095.0,18.0,-10.0,
2093.0,2093.0,18.0,-10.0,
2067.0,2082.0,18.0,-10.0,
2057.0,2089.0,18.0,-10.0,
2058.0,2093.0,18.0,-11.0,
2081.0,2082.0,18.0,-11.0,
2084.0,2080.0,18.0,-11.0,
2064.0,2073.0,18.0,-11.0,
2075.0,2088.0,18.0,-10.0,
2085.0,2097.0,18.0,-10.0,
2088.0,2100.0,18.0,-10.0,
2056.0,2080.0,18.0,-10.0,
2047.0,2076.0,18.0,-10.0,
2056.0,2083.0,18.0,-10.0,
2079.0,2089.0,18.0,-11.0,
2081.0,2081.0,18.0,-10.0,
2063.0,2086.0,18.0,-10.0,
2080.0,2100.0,18.0,-10.0,
2076.0,2090.0,18.0,-10.0,
2090.0,2098.0,18.0,-10.0,
2068.0,2081.0,18.0,-11.0,
2055.0,2095.0,18.0,-11.0,
2059.0,2088.0,18.0,-11.0,
2075.0,2091.0,18.0,-10.0,
2081.0,2100.0,18.0,-10.0,
2068.0,2089.0,18.0,-10.0,
2068.0,2093.0,18.0,-10.0,
2071.0,2090.0,18.0,-10.0,
2083.0,2088.0,18.0,-11.0,
2056.0,2089.0,18.0,-10.0,
2044.0,2083.0,18.0,-10.0,
2045.0,2045.0,18.0,-10.0,
2065.0,2093.0,18.0,-10.0,
2076.0,2084.0,18.0,-10.0,
2056.0,2083.0,18.0,-10.0,
2068.0,2091.0,18.0,-10.0,
2080.0,2093.0,18.0,-11.0,
2092.0,2105.0,18.0,-10.0,
2060.0,2088.0,18.0,-10.0,
2042.0,2090.0,18.0,-11.0,
2065.0,2087.0,18.0,-11.0,
2080.0,2159.0,18.0,-11.0,
2093.0,2095.0,18.0,-11.0,
2078.0,2095.0,18.0,-11.0,
2073.0,2098.0,18.0,-11.0,
2083.0,2101.0,18.0,-11.0,
2093.0,2090.0,18.0,-11.0,
2077.0,2079.0,18.0,-11.0,
2054.0,2086.0,18.0,-11.0,
2062.0,2084.0,18.0,-10.0,
2089.0,2094.0,18.0,-11.0,
2087.0,2090.0,18.0,-11.0,
2071.0,2088.0,18.0,-11.0,
2080.0,2086.0,18.0,-11.0,
2078.0,2092.0,18.0,-11.0,
2091.0,2101.0,18.0,-10.0,
2040.0,2094.0,18.0,-10.0,
2051.0,2093.0,18.0,-10.0,
2050.0,2086.0,18.0,-10.0,
2061.0,2086.0,18.0,-10.0,
2082.0,2096.0,18.0,-10.0,
2055.0,2093.0,18.0,-10.0,
2064.0,2091.0,18.0,-10.0,
2084.0,2100.0,18.0,-10.0,
2097.0,2101.0,18.0,-10.0,
2066.0,2093.0,18.0,-11.0,
2073.0,2087.0,18.0,-11.0,
2052.0,2083.0,18.0,-11.0,
2065.0,2068.0,18.0,-11.0,
2088.0,2082.0,18.0,-11.0,
2066.0,2094.0,18.0,-11.0,
2064.0,2088.0,18.0,-10.0,
2073.0,2090.0,18.0,-10.0,
2082.0,2095.0,18.0,-10.0,
2053.0,2083.0,18.0,-10.0,
2040.0,2082.0,18.0,-10.0,
2046.0,2086.0,18.0,-10.0,
2053.0,2085.0,18.0,-10.0,
2079.0,2088.0,18.0,-10.0,
2059.0,2095.0,18.0,-10.0,
2067.0,2090.0,18.0,-10.0,
2074.0,2093.0,18.0,-11.0,
2073.0,2090.0,18.0,-11.0,
2061.0,2090.0,18.0,-11.0,
2042.0,2083.0,18.0,-11.0,
2042.0,2073.0,18.0,-11.0,
2057.0,2081.0,18.0,-10.0,
2080.0,2086.0,18.0,-10.0,
2060.0,2082.0,18.0,-10.0,
2069.0,2085.0,18.0,-11.0,
2088.0,2099.0,18.0,-11.0,
2075.0,2084.0,18.0,-11.0,
2065.0,2090.0,18.0,-11.0,
2053.0,2080.0,18.0,-11.0,
2063.0,2076.0,18.0,-11.0,
2073.0,2080.0,18.0,-11.0,
2099.0,2092.0,18.0,-11.0,
2072.0,2095.0,18.0,-11.0,
2078.0,2097.0,18.0,-11.0,
2079.0,2093.0,18.0,-11.0,
2098.0,2098.0,18.0,-11.0,
2073.0,2091.0,18.0,-11.0,
2060.0,2083.0,18.0,-11.0,
2066.0,2084.0,18.0,-11.0,
2068.0,2096.0,18.0,-11.0,
2081.0,2081.0,18.0,-11.0,
2062.0,2097.0,18.0,-11.0,
2063.0,2094.0,18.0,-11.0,
2080.0,2098.0,18.0,-10.0,
2100.0,2096.0,18.0,-10.0,
2089.0,2103.0,18.0,-10.0,
2057.0,2085.0,18.0,-11.0,
2057.0,2082.0,18.0,-11.0,
2092.0,2089.0,18.0,-11.0,
2090.0,2085.0,18.0,-11.0,
2061.0,2087.0,18.0,-11.0,
2075.0,2098.0,18.0,-11.0,
2078.0,2093.0,18.0,-11.0,
2102.0,2103.0,18.0,-11.0,
2071.0,2090.0,18.0,-11.0,
2049.0,2089.0,18.0,-11.0,
2043.0,2091.0,18.0,-11.0,
2060.0,2094.0,18.0,-11.0,
2081.0,2094.0,18.0,-11.0,
2052.0,2090.0,18.0,-11.0,
2061.0,2096.0,18.0,-11.0,
2067.0,2096.0,18.0,-11.0,
2081.0,2095.0,18.0,-11.0,
2068.0,2091.0,18.0,-11.0,
2040.0,2088.0,18.0,-11.0,
2046.0,2093.0,18.0,-11.0,
2065.0,2085.0,18.0,-11.0,
2083.0,2092.0,18.0,-11.0,
2061.0,2085.0,18.0,-11.0,
2065.0,2093.0,18.0,-11.0,
2076.0,2096.0,18.0,-11.0,
2078.0,2094.0,18.0,-11.0,
2070.0,2086.0,18.0,-11.0,
2041.0,2082.0,18.0,-11.0,
2045.0,2083.0,18.0,-11.0,
2053.0,2088.0,18.0,-11.0,
2089.0,2084.0,18.0,-11.0,
2066.0,2099.0,18.0,-11.0,
2063.0,2101.0,18.0,-11.0,
2075.0,2099.0,18.0,-11.0,
2091.0,2086.0,18.0,-11.0,
2074.0,2088.0,18.0,-11.0,
2057.0,2080.0,18.0,-11.0,
2060.0,2083.0,18.0,-11.0,
2059.0,2090.0,18.0,-11.0,
2082.0,2083.0,18.0,-11.0,
2069.0,2089.0,18.0,-11.0,
2072.0,2090.0,18.0,-11.0,
2078.0,2096.0,18.0,-11.0,
2084.0,2100.0,18.0,-11.0,
2069.0,2092.0,18.0,-11.0,
2046.0,2093.0,18.0,-11.0,
2054.0,2084.0,18.0,-11.0,
2056.0,2101.0,18.0,-11.0,
2083.0,2089.0,18.0,-11.0,
2061.0,2085.0,18.0,-11.0,
2074.0,2087.0,18.0,-11.0,
2084.0,2097.0,18.0,-11.0,
2074.0,2097.0,18.0,-11.0,
2074.0,2103.0,18.0,-11.0,
2057.0,2091.0,18.0,-11.0,
2058.0,2089.0,18.0,-11.0,
2095.0,2089.0,18.0,-11.0,
2086.0,2090.0,18.0,-11.0,
2069.0,2093.0,18.0,-11.0,
2062.0,2090.0,18.0,-11.0,
2073.0,2095.0,18.0,-11.0,
2088.0,2099.0,18.0,-11.0,
2073.0,2107.0,18.0,-11.0,
2057.0,2088.0,18.0,-11.0,
2049.0,2092.0,18.0,-11.0,
2058.0,2088.0,18.0,-11.0,
2085.0,2080.0,18.0,-11.0,
2082.0,2085.0,18.0,-11.0,
2077.0,2092.0,18.0,-11.0,
2073.0,2093.0,18.0,-11.0,
2094.0,2088.0,18.0,-11.0,
2083.0,2084.0,18.0,-10.0,
2058.0,2115.0,18.0,-10.0,
2052.0,2081.0,18.0,-10.0,
2051.0,2082.0,18.0,-10.0,
2092.0,2085.0,18.0,-11.0,
2056.0,2085.0,18.0,-11.0,
2081.0,2096.0,18.0,-11.0,
2082.0,2099.0,18.0,-11.0,
2082.0,2097.0,18.0,-11.0,
2085.0,2086.0,18.0,-10.0,
2056.0,2088.0,18.0,-11.0,
2050.0,2087.0,18.0,-11.0,
2058.0,2087.0,18.0,-11.0,
2093.0,2086.0,18.0,-11.0,
2061.0,2094.0,18.0,-11.0,
2062.0,2091.0,18.0,-11.0,
2066.0,2094.0,18.0,-11.0,
2086.0,2090.0,18.0,-11.0,
2081.0,2090.0,18.0,-11.0,
2054.0,2085.0,18.0,-11.0,
2063.0,2084.0,18.0,-11.0,
2055.0,2069.0,18.0,-11.0,
2082.0,2080.0,18.0,-11.0,
2069.0,2084.0,18.0,-11.0,
2071.0,2097.0,18.0,-11.0,
2084.0,2091.0,18.0,-10.0,
2094.0,2099.0,18.0,-10.0,
2091.0,2105.0,18.0,-10.0,
2051.0,2086.0,18.0,-10.0,
2047.0,2083.0,18.0,-10.0,
2050.0,2085.0,18.0,-10.0,
2097.0,2091.0,18.0,-10.0,
2069.0,2091.0,18.0,-10.0,
2064.0,2097.0,18.0,-10.0,
2077.0,2101.0,18.0,-10.0,
2092.0,2095.0,18.0,-10.0,
2085.0,2096.0,18.0,-10.0,
2054.0,2087.0,18.0,-10.0,
2050.0,2084.0,18.0,-10.0,
2059.0,2088.0,18.0,-10.0,
2090.0,2088.0,18.0,-11.0,
2067.0,2093.0,18.0,-10.0,
2059.0,2094.0,18.0,-10.0,
2074.0,2101.0,18.0,-10.0,
2082.0,2095.0,18.0,-10.0,
2085.0,2088.0,18.0,-10.0,
2057.0,2087.0,18.0,-10.0,
2053.0,2092.0,18.0,-10.0,
2056.0,2086.0,18.0,-10.0,
2091.0,2088.0,18.0,-10.0,
2075.0,2095.0,18.0,-10.0,
2071.0,2088.0,18.0,-10.0,
2088.0,2095.0,18.0,-10.0,
2095.0,2092.0,18.0,-10.0,
2080.0,2089.0,18.0,-10.0,
2054.0,2073.0,18.0,-10.0,
2047.0,2061.0,18.0,-10.0,
2047.0,2076.0,18.0,-10.0,
2085.0,2087.0,18.0,-10.0,
2066.0,2085.0,18.0,-10.0,
2065.0,2095.0,18.0,-10.0,
2067.0,2093.0,18.0,-10.0,
2109.0,2091.0,18.0,-10.0,
2086.0,2091.0,18.0,-10.0,
2051.0,2084.0,18.0,-10.0,
2053.0,2080.0,18.0,-10.0,
2055.0,2075.0,18.0,-10.0,
2080.0,2098.0,18.0,-11.0,
2069.0,2087.0,18.0,-11.0,
2060.0,2091.0,18.0,-11.0,
2075.0,2091.0,18.0,-11.0,
2083.0,2096.0,18.0,-11.0,
2080.0,2096.0,18.0,-11.0,
2061.0,2086.0,18.0,-11.0,
2031.0,2082.0,18.0,-11.0,
2045.0,2088.0,18.0,-11.0,
2065.0,2092.0,18.0,-11.0,
2071.0,2088.0,18.0,-11.0,
2060.0,2089.0,18.0,-11.0,
2075.0,2094.0,18.0,-11.0,
2093.0,2091.0,18.0,-11.0,
2087.0,2092.0,18.0,-11.0,
2064.0,2082.0,18.0,-11.0,
2063.0,2084.0,18.0,-11.0,
2069.0,2092.0,18.0,-11.0,
2091.0,2092.0,18.0,-11.0,
2083.0,2083.0,18.0,-11.0,
2073.0,2086.0,18.0,-11.0,
2110.0,2086.0,18.0,-11.0,
2094.0,2087.0,18.0,-11.0,
2093.0,2086.0,18.0,-11.0,
2061.0,2078.0,18.0,-11.0,
2059.0,2082.0,18.0,-11.0,
2057.0,2088.0,18.0,-11.0,
2077.0,2081.0,18.0,-11.0,
2072.0,2083.0,18.0,-11.0,
2061.0,2089.0,18.0,-11.0,
2078.0,2101.0,18.0,-11.0,
2068.0,2099.0,18.0,-11.0,
2098.0,2096.0,18.0,-11.0,
2063.0,2097.0,18.0,-11.0,
2047.0,2082.0,18.0,-11.0,
2049.0,2083.0,18.0,-11.0,
2078.0,2087.0,18.0,-11.0,
2071.0,2084.0,18.0,-11.0,
2059.0,2093.0,18.0,-11.0,
2076.0,2089.0,18.0,-11.0,
2074.0,2091.0,18.0,-11.0,
2082.0,2084.0,18.0,-11.0,
2051.0,2075.0,18.0,-11.0,
2054.0,2073.0,18.0,-11.0,
2056.0,2072.0,18.0,-11.0,
2081.0,2089.0,18.0,-11.0,
2076.0,2083.0,18.0,-11.0,
2066.0,2081.0,18.0,-11.0,
2068.0,2094.0,18.0,-11.0,
2076.0,2080.0,18.0,-11.0,
2084.0,2095.0,18.0,-11.0,
2054.0,2093.0,18.0,-10.0,
2048.0,2088.0,18.0,-11.0,
2058.0,2086.0,18.0,-11.0,
2072.0,2089.0,18.0,-10.0,
2066.0,2090.0,18.0,-10.0,
2065.0,2093.0,18.0,-10.0,
2069.0,2104.0,18.0,-10.0,
2077.0,2098.0,18.0,-11.0,
2091.0,2090.0,18.0,-11.0,
2051.0,2090.0,18.0,-11.0,
2053.0,2084.0,18.0,-11.0,
2054.0,2086.0,18.0,-11.0,
2077.0,2098.0,18.0,-11.0,
2073.0,2096.0,18.0,-11.0,
2062.0,2099.0,18.0,-11.0,
2076.0,2093.0,18.0,-11.0,
2082.0,2098.0,18.0,-11.0,
2091.0,2094.0,18.0,-11.0,
2058.0,2087.0,18.0,-11.0,
2057.0,2084.0,18.0,-11.0,
2061.0,2079.0,18.0,-11.0,
2093.0,2090.0,18.0,-11.0,
2091.0,2096.0,18.0,-11.0,
2072.0,2085.0,18.0,-11.0,
2078.0,2088.0,18.0,-11.0,
2083.0,2090.0,18.0,-11.0,
2098.0,2089.0,18.0,-11.0,
2053.0,2084.0,18.0,-11.0,
2052.0,2081.0,18.0,-11.0,
2047.0,2078.0,18.0,-11.0,
2075.0,2080.0,18.0,-11.0,
2075.0,2087.0,18.0,-11.0,
2070.0,2088.0,18.0,-11.0,
2080.0,2090.0,18.0,-11.0,
2088.0,2098.0,18.0,-11.0,
2097.0,2102.0,18.0,-11.0,
2057.0,2090.0,18.0,-11.0,
2053.0,2083.0,18.0,-11.0,
2062.0,2079.0,18.0,-11.0,
2077.0,2076.0,18.0,-11.0,
2076.0,2079.0,18.0,-11.0,
2057.0,2090.0,18.0,-11.0,
2065.0,2092.0,18.0,-11.0,
2076.0,2096.0,18.0,-11.0,
2094.0,2094.0,18.0,-11.0,
2053.0,2086.0,18.0,-11.0,
2051.0,2080.0,18.0,-10.0,
2049.0,2083.0,18.0,-11.0,
2084.0,2089.0,18.0,-11.0,
2082.0,2077.0,18.0,-11.0,
2069.0,2083.0,18.0,-11.0,
2101.0,2085.0,18.0,-11.0,
2084.0,2083.0,18.0,-11.0,
2102.0,2088.0,18.0,-11.0,
2062.0,2080.0,18.0,-11.0,
2052.0,2084.0,18.0,-11.0,
2061.0,2074.0,18.0,-11.0,
2077.0,2083.0,18.0,-11.0,
2082.0,2085.0,18.0,-11.0,
2072.0,2086.0,18.0,-11.0,
2072.0,2095.0,18.0,-11.0,
2081.0,2097.0,18.0,-11.0,
2084.0,2091.0,18.0,-11.0,
2055.0,2086.0,18.0,-11.0,
2052.0,2083.0,18.0,-11.0,
2116.0,2083.0,18.0,-11.0,
2075.0,2085.0,18.0,-11.0,
2079.0,2094.0,18.0,-11.0,
2075.0,2093.0,18.0,-11.0,
2065.0,2089.0,18.0,-11.0,
2072.0,2094.0,18.0,-11.0,
2078.0,2093.0,18.0,-11.0,
2057.0,2080.0,18.0,-11.0,
2038.0,2079.0,18.0,-11.0,
2046.0,2080.0,18.0,-11.0,
2068.0,2082.0,18.0,-11.0,
2073.0,2085.0,18.0,-11.0,
2064.0,2085.0,18.0,-11.0,
2072.0,2088.0,18.0,-11.0,
2086.0,2094.0,18.0,-11.0,
2098.0,2096.0,18.0,-11.0,
2057.0,2097.0,18.0,-11.0,
2063.0,2086.0,18.0,-11.0,
2057.0,2084.0,18.0,-11.0,
2078.0,2075.0,18.0,-11.0,
2087.0,2092.0,18.0,-11.0,
2067.0,2091.0,18.0,-11.0,
2063.0,2095.0,18.0,-11.0,
2078.0,2102.0,18.0,-11.0,
2085.0,2101.0,18.0,-11.0,
2054.0,2095.0,18.0,-11.0,
2043.0,2092.0,18.0,-11.0,
2047.0,2087.0,18.0,-11.0,
2078.0,2082.0,18.0,-11.0,
2095.0,2091.0,18.0,-11.0,
2063.0,2087.0,18.0,-11.0,
2074.0,2091.0,18.0,-11.0,
2084.0,2093.0,18.0,-11.0,
2091.0,2085.0,18.0,-11.0,
2070.0,2089.0,18.0,-11.0,
2063.0,2080.0,18.0,-11.0,
2062.0,2094.0,18.0,-11.0,
2063.0,2092.0,18.0,-11.0,
2084.0,2091.0,18.0,-11.0,
2058.0,2100.0,18.0,-11.0,
2071.0,2099.0,18.0,-11.0,
2086.0,2097.0,18.0,-11.0,
2108.0,2105.0,18.0,-11.0,
2066.0,2092.0,18.0,-11.0,
2046.0,2090.0,18.0,-11.0,
2044.0,2089.0,18.0,-11.0,
2077.0,2085.0,18.0,-11.0,
2093.0,2091.0,18.0,-11.0,
2047.0,2086.0,18.0,-11.0,
2070.0,2095.0,18.0,-11.0,
2073.0,2091.0,18.0,-11.0,
2077.0,2090.0,18.0,-11.0,
2054.0,2089.0,0,
2044.0,2081.0,18.0,-11.0,
2048.0,2080.0,18.0,-10.0,
2064.0,2084.0,18.0,-11.0,
2086.0,2085.0,18.0,-11.0,
2064.0,2082.0,18.0,-11.0,
2065.0,2090.0,18.0,-11.0,
2074.0,2096.0,18.0,-10.0,
2087.0,2095.0,18.0,-10.0,
2064.0,2097.0,18.0,-10.0,
2056.0,2092.0,18.0,-10.0,
2041.0,2080.0,18.0,-10.0,
2048.0,2085.0,18.0,-11.0,
2083.0,2076.0,18.0,-11.0,
2062.0,2084.0,18.0,-11.0,
2069.0,2091.0,18.0,-10.0,
2077.0,2092.0,18.0,-10.0,
2092.0,2109.0,18.0,-10.0,
2063.0,2087.0,18.0,-11.0,
2044.0,2071.0,18.0,-11.0,
2050.0,2072.0,18.0,-11.0,
2063.0,2083.0,18.0,-11.0,
2090.0,2060.0,18.0,-11.0,
2059.0,2107.0,18.0,-11.0,
2065.0,2082.0,18.0,-11.0,
2082.0,2096.0,18.0,-11.0,
2091.0,2102.0,18.0,-11.0,
2072.0,2088.0,18.0,-11.0,
2060.0,2084.0,18.0,-11.0,
2058.0,2083.0,18.0,-11.0,
2077.0,2091.0,18.0,-11.0,
2090.0,2083.0,18.0,-11.0,
2069.0,2086.0,18.0,-11.0,
2064.0,2081.0,18.0,-11.0,
2074.0,2087.0,18.0,-11.0,
2078.0,2083.0,18.0,-11.0,
2067.0,2096.0,18.0,-10.0,
2039.0,2073.0,18.0,-11.0,
2045.0,2081.0,18.0,-10.0,
2052.0,2090.0,18.0,-10.0,
2081.0,2094.0,18.0,-10.0,
2060.0,2078.0,18.0,-10.0,
2068.0,2074.0,18.0,-10.0,
2092.0,2119.0,18.0,-10.0,
2095.0,2098.0,18.0,-10.0,
2078.0,2044.0,18.0,-10.0,
2054.0,2070.0,18.0,-11.0,
2072.0,2163.0,18.0,-11.0,
2080.0,2112.0,18.0,-11.0,
2088.0,2107.0,18.0,-11.0,
2055.0,2099.0,18.0,-11.0,
2069.0,2072.0,18.0,-11.0,
2070.0,2072.0,18.0,-11.0,
2087.0,2122.0,18.0,-11.0,
2062.0,2115.0,18.0,-11.0,
2043.0,2086.0,17.0,-11.0,
2060.0,2094.0,17.0,-11.0,
2057.0,2050.0,17.0,-11.0,
2082.0,2085.0,17.0,-11.0,
2053.0,2077.0,17.0,-11.0,
2062.0,2091.0,17.0,-11.0,
2068.0,2112.0,17.0,-10.0,
2098.0,2108.0,17.0,-10.0,
2074.0,2096.0,17.0,-10.0,
2051.0,2041.0,17.0,-10.0,
2049.0,2078.0,17.0,-10.0,
2057.0,2122.0,17.0,-10.0,
2090.0,2093.0,17.0,-10.0,
2058.0,2100.0,17.0,-10.0,
2069.0,2117.0,18.0,-10.0,
2077.0,2088.0,18.0,-11.0,
2081.0,2064.0,18.0,-11.0,
2065.0,2081.0,18.0,-11.0,
2039.0,2045.0,18.0,-11.0,
2031.0,2083.0,18.0,-11.0,
2052.0,2117.0,18.0,-11.0,
2103.0,2139.0,18.0,-11.0,
2076.0,2100.0,18.0,-11.0,
2080.0,2099.0,18.0,-11.0,
2089.0,2081.0,18.0,-11.0,
2103.0,2088.0,18.0,-11.0,
2077.0,2082.0,18.0,-11.0,
2060.0,2077.0,18.0,-11.0,
2053.0,2064.0,18.0,-11.0,
2059.0,2082.0,18.0,-11.0,
2087.0,2080.0,18.0,-11.0,
2066.0,2092.0,18.0,-11.0,
2062.0,2072.0,18.0,-11.0,
2078.0,2050.0,18.0,-11.0,
2110.0,2087.0,18.0,-11.0,
2078.0,2117.0,18.0,-10.0,
2046.0,2087.0,18.0,-10.0,
2047.0,2083.0,18.0,-10.0,
2049.0,2066.0,18.0,-10.0,
2079.0,2073.0,18.0,-10.0,
2051.0,2084.0,19.0,-10.0,
2061.0,2062.0,19.0,-10.0,
2073.0,2100.0,19.0,-10.0,
2088.0,2083.0,19.0,-10.0,
2071.0,2083.0,19.0,-10.0,
2056.0,2095.0,19.0,-10.0,
2063.0,2032.0,19.0,-11.0,
2072.0,2170.0,19.0,-11.0,
2083.0,2158.0,19.0,-11.0,
2062.0,2124.0,19.0,-11.0,
2064.0,2098.0,18.0,-11.0,
2079.0,2088.0,18.0,-11.0,
2096.0,2093.0,18.0,-11.0,
2085.0,2103.0,18.0,-11.0,
2065.0,2056.0,18.0,-10.0,
2060.0,1991.0,18.0,-10.0,
2068.0,2016.0,18.0,-10.0,
2086.0,2144.0,18.0,-10.0,
2069.0,2105.0,17.0,-10.0,
2061.0,2133.0,17.0,-10.0,
2062.0,2140.0,17.0,-10.0,
2092.0,2108.0,17.0,-10.0,
2068.0,2098.0,17.0,-10.0,
2044.0,2053.0,17.0,-10.0,
2045.0,2111.0,17.0,-10.0,
2052.0,2123.0,17.0,-10.0,
2087.0,2042.0,17.0,-10.0,
2068.0,2025.0,17.0,-10.0,
2055.0,2115.0,16.0,-10.0,
2064.0,2101.0,16.0,-10.0,
2077.0,2190.0,16.0,-10.0,
2080.0,2123.0,16.0,-10.0,
2044.0,2065.0,16.0,-10.0,
2055.0,2042.0,17.0,-10.0,
2035.0,2091.0,17.0,-10.0,
2062.0,2093.0,17.0,-11.0,
2059.0,2103.0,17.0,-11.0,
2066.0,2074.0,17.0,-11.0,
2069.0,2074.0,17.0,-10.0,
2091.0,2052.0,18.0,-10.0,
2079.0,2066.0,18.0,-10.0,
2043.0,2065.0,18.0,-10.0,
2050.0,2063.0,18.0,-10.0,
2050.0,2088.0,18.0,-11.0,
2069.0,2081.0,19.0,-11.0,
2055.0,2089.0,19.0,-11.0,
2056.0,2099.0,19.0,-11.0,
2063.0,2118.0,19.0,-11.0,
2080.0,2092.0,20.0,-11.0,
2071.0,2073.0,20.0,-11.0,
2044.0,2047.0,20.0,-11.0,
2037.0,2121.0,20.0,-11.0,
2051.0,2096.0,21.0,-11.0,
2088.0,2084.0,21.0,-11.0,
2064.0,2081.0,21.0,-11.0,
2063.0,2103.0,22.0,-11.0,
2078.0,2098.0,22.0,-11.0,
2104.0,2134.0,22.0,-11.0,
2098.0,2139.0,22.0,-11.0,
2056.0,2028.0,22.0,-11.0,
2059.0,2115.0,23.0,-11.0,
2056.0,2053.0,23.0,-11.0,
2084.0,2072.0,23.0,-11.0,
2083.0,2115.0,23.0,-11.0,
2074.0,2042.0,23.0,-11.0,
2077.0,2109.0,23.0,-11.0,
2085.0,2110.0,23.0,-11.0,
2082.0,2171.0,23.0,-11.0,
2052.0,2083.0,23.0,-11.0,
2051.0,2098.0,23.0,-11.0,
2053.0,2091.0,23.0,-11.0,
2084.0,2170.0,23.0,-11.0,
2052.0,2120.0,23.0,-11.0,
2042.0,2066.0,23.0,-11.0,
2062.0,2065.0,23.0,-11.0,
2083.0,2091.0,22.0,-11.0,
2080.0,2090.0,22.0,-10.0,
2041.0,2140.0,22.0,-10.0,
2054.0,2114.0,22.0,-10.0,
2058.0,2063.0,21.0,-10.0,
2110.0,2045.0,21.0,-10.0,
2077.0,2064.0,21.0,-10.0,
2070.0,2106.0,21.0,-10.0,
2067.0,2061.0,21.0,-10.0,
2089.0,2077.0,21.0,-10.0,
2090.0,2043.0,21.0,-10.0,
2057.0,2078.0,21.0,-10.0,
2051.0,2109.0,21.0,-10.0,
2055.0,2087.0,21.0,-10.0,
2074.0,2046.0,21.0,-10.0,
2063.0,2059.0,21.0,-10.0,
2076.0,2129.0,21.0,-10.0,
2054.0,2095.0,21.0,-10.0,
2067.0,2067.0,22.0,-10.0,
2068.0,2129.0,22.0,-10.0,
2042.0,2057.0,22.0,-10.0,
2031.0,2035.0,22.0,-10.0,
2039.0,2076.0,23.0,-10.0,
2074.0,2111.0,23.0,-10.0,
2055.0,2050.0,23.0,-11.0,
2058.0,2097.0,23.0,-11.0,
2057.0,2112.0,24.0,-11.0,
2064.0,2163.0,24.0,-11.0,
2077.0,2098.0,24.0,-11.0,
2038.0,1996.0,24.0,-11.0,
2042.0,2085.0,24.0,-11.0,
2042.0,2062.0,25.0,-11.0,
2086.0,2104.0,25.0,-11.0,
2065.0,2111.0,25.0,-11.0,
2067.0,2161.0,25.0,-10.0,
2081.0,2106.0,25.0,-10.0,
2101.0,2085.0,26.0,-11.0,
2060.0,2074.0,26.0,-11.0,
2042.0,2034.0,26.0,-11.0,
2044.0,2045.0,26.0,-11.0,
2064.0,2059.0,26.0,-10.0,
2083.0,2036.0,26.0,-10.0,
2059.0,2104.0,26.0,-10.0,
2069.0,2168.0,26.0,-10.0,
2075.0,2131.0,26.0,-10.0,
2072.0,2018.0,26.0,-10.0,
2056.0,2119.0,26.0,-10.0,
2040.0,2164.0,27.0,-10.0,
2057.0,2046.0,27.0,-10.0,
2078.0,2033.0,27.0,-10.0,
2072.0,2112.0,27.0,-10.0,
2057.0,2140.0,27.0,-10.0,
2067.0,2095.0,28.0,-10.0,
2075.0,2075.0,28.0,-10.0,
2052.0,2092.0,28.0,-10.0,
2039.0,2048.0,28.0,-10.0,
2068.0,2125.0,28.0,-9.0,
2065.0,2130.0,28.0,-9.0,
2085.0,2077.0,28.0,-9.0,
2068.0,2043.0,28.0,-9.0,
2064.0,2103.0,29.0,-9.0,
2082.0,2060.0,29.0,-9.0,
2092.0,2125.0,29.0,-9.0,
2074.0,2104.0,29.0,-9.0,
2061.0,2073.0,29.0,-9.0,
2049.0,2046.0,29.0,-9.0,
2006.0,2074.0,29.0,-10.0,
2081.0,2056.0,29.0,-10.0,
2054.0,2029.0,29.0,-10.0,
2065.0,2030.0,29.0,-10.0,
2065.0,2090.0,29.0,-10.0,
2074.0,2065.0,29.0,-10.0,
2061.0,2148.0,29.0,-10.0,
2070.0,2117.0,30.0,-10.0,
2048.0,2138.0,30.0,-10.0,
2069.0,2112.0,30.0,-10.0,
2063.0,2062.0,0,
2037.0,2088.0,30.0,-10.0,
2062.0,2070.0,30.0,-10.0,
2071.0,2046.0,30.0,-9.0,
2073.0,2084.0,31.0,-9.0,
2044.0,2171.0,31.0,-9.0,
2041.0,2129.0,31.0,-9.0,
2058.0,2070.0,32.0,-9.0,
2102.0,2010.0,32.0,-9.0,
2062.0,2039.0,32.0,-9.0,
2061.0,2095.0,33.0,-9.0,
2073.0,2127.0,33.0,-9.0,
2114.0,2093.0,33.0,-9.0,
2072.0,2063.0,0,
2045.0,2078.0,34.0,-9.0,
2049.0,2101.0,34.0,-9.0,
2053.0,2071.0,34.0,-9.0,
2090.0,2090.0,34.0,-9.0,
2066.0,2177.0,34.0,-9.0,
2054.0,2119.0,34.0,-9.0,
2078.0,2129.0,34.0,-9.0,
2096.0,2115.0,34.0,-9.0,
2072.0,2131.0,34.0,-9.0,
2057.0,2002.0,34.0,-9.0,
2046.0,2014.0,34.0,-9.0,
2065.0,2082.0,34.0,-9.0,
2077.0,2069.0,34.0,-9.0,
2063.0,2019.0,34.0,-9.0,
2054.0,2143.0,34.0,-9.0,
2078.0,2184.0,34.0,-9.0,
2094.0,2129.0,34.0,-9.0,
2077.0,2054.0,34.0,-9.0,
2050.0,2045.0,33.0,-9.0,
2054.0,2116.0,34.0,-9.0,
2100.0,2057.0,34.0,-9.0,
2065.0,2079.0,34.0,-9.0,
2060.0,2143.0,34.0,-9.0,
2067.0,2127.0,34.0,-9.0,
2087.0,2086.0,34.0,-9.0,
2094.0,2096.0,34.0,-9.0,
2057.0,2128.0,34.0,-9.0,
2056.0,2083.0,34.0,-10.0,
2050.0,2065.0,34.0,-10.0,
2082.0,2043.0,35.0,-9.0,
2068.0,2087.0,35.0,-9.0,
2070.0,2077.0,35.0,-8.0,
2071.0,2015.0,35.0,-8.0,
2077.0,2097.0,35.0,-8.0,
2065.0,2089.0,35.0,-8.0,
2050.0,2157.0,35.0,-8.0,
2062.0,2115.0,35.0,-8.0,
2068.0,2093.0,35.0,-8.0,
2092.0,2036.0,36.0,-8.0,
2083.0,2124.0,36.0,-8.0,
2070.0,2103.0,36.0,-9.0,
2070.0,2020.0,36.0,-9.0,
2100.0,2010.0,36.0,-9.0,
2073.0,2082.0,37.0,-10.0,
2043.0,2040.0,37.0,-9.0,
2047.0,2146.0,37.0,-9.0,
2084.0,2048.0,37.0,-9.0,
2101.0,2088.0,37.0,-9.0,
2054.0,2190.0,38.0,-9.0,
2066.0,2099.0,38.0,-9.0,
2092.0,2143.0,38.0,-9.0,
2080.0,2127.0,38.0,-9.0,
2045.0,2081.0,39.0,-9.0,
2052.0,2133.0,39.0,-9.0,
2051.0,2025.0,39.0,-9.0,
2091.0,2114.0,39.0,-9.0,
2067.0,2079.0,39.0,-9.0,
2073.0,2086.0,39.0,-9.0,
2084.0,2073.0,39.0,-9.0,
2080.0,2067.0,39.0,-9.0,
2087.0,2054.0,39.0,-9.0,
2052.0,2129.0,39.0,-9.0,
2043.0,2109.0,39.0,-9.0,
2040.0,2088.0,39.0,-9.0,
2077.0,2088.0,39.0,-9.0,
2060.0,2107.0,39.0,-9.0,
2063.0,2026.0,39.0,-9.0,
2069.0,2097.0,39.0,-9.0,
2079.0,2102.0,39.0,-9.0,
2068.0,2099.0,39.0,-9.0,
2039.0,2129.0,39.0,-9.0,
2045.0,2030.0,39.0,-9.0,
2058.0,2076.0,39.0,-9.0,
2080.0,2116.0,39.0,-9.0,
2065.0,2049.0,40.0,-9.0,
2076.0,2054.0,40.0,-9.0,
2099.0,2128.0,40.0,-9.0,
2105.0,2114.0,40.0,-9.0,
2073.0,2055.0,40.0,-9.0,
2038.0,2045.0,40.0,-9.0,
2052.0,2125.0,40.0,-8.0,
2089.0,2146.0,40.0,-8.0,
2064.0,2124.0,40.0,-8.0,
2048.0,2086.0,40.0,-8.0,
2071.0,2136.0,40.0,-8.0,
2091.0,2126.0,40.0,-8.0,
2108.0,2115.0,41.0,-8.0,
2045.0,2017.0,41.0,-8.0,
2043.0,2133.0,41.0,-8.0,
2077.0,2060.0,42.0,-8.0,
2078.0,2117.0,0,
2066.0,2069.0,42.0,-8.0,
2068.0,2065.0,42.0,-9.0,
2082.0,2083.0,42.0,-9.0,
2112.0,2073.0,42.0,-9.0,
2106.0,2074.0,42.0,-9.0,
2058.0,2074.0,42.0,-8.0,
2060.0,2076.0,42.0,-8.0,
2079.0,2082.0,42.0,-8.0,
2096.0,2126.0,43.0,-8.0,
2075.0,2066.0,43.0,-8.0,
2059.0,2026.0,43.0,-8.0,
2082.0,2072.0,43.0,-8.0,
2087.0,2063.0,43.0,-8.0,
2081.0,2088.0,44.0,-9.0,
2063.0,2086.0,44.0,-9.0,
2060.0,2093.0,44.0,-9.0,
2070.0,2077.0,44.0,-9.0,
2095.0,2133.0,44.0,-9.0,
2070.0,2098.0,44.0,-9.0,
2060.0,2145.0,44.0,-9.0,
2070.0,2070.0,44.0,-9.0,
2094.0,2038.0,44.0,-9.0,
2072.0,2113.0,44.0,-8.0,
2038.0,2138.0,44.0,-8.0,
2048.0,2156.0,44.0,-8.0,
2056.0,2123.0,44.0,-8.0,
2055.0,2058.0,44.0,-8.0,
2072.0,2093.0,44.0,-9.0,
2073.0,2160.0,44.0,-9.0,
2099.0,2105.0,44.0,-9.0,
2088.0,2050.0,44.0,-9.0,
2086.0,2016.0,44.0,-9.0,
2051.0,2051.0,44.0,-9.0,
2051.0,1952.0,44.0,-9.0,
2040.0,2282.0,44.0,-9.0,
2065.0,2111.0,44.0,-8.0,
2057.0,2169.0,44.0,-8.0,
2089.0,2115.0,43.0,-8.0,
2072.0,2100.0,43.0,-8.0,
2098.0,2045.0,43.0,-8.0,
2078.0,2048.0,43.0,-8.0,
2063.0,2061.0,43.0,-8.0,
2061.0,2050.0,43.0,-8.0,
2112.0,2038.0,43.0,-8.0,
2083.0,2092.0,43.0,-8.0,
2072.0,2090.0,44.0,-9.0,
2079.0,2040.0,44.0,-9.0,
2089.0,2090.0,44.0,-9.0,
2080.0,2102.0,44.0,-9.0,
2048.0,2125.0,44.0,-9.0,
2060.0,2049.0,44.0,-9.0,
2066.0,2189.0,44.0,-8.0,
2092.0,2107.0,45.0,-8.0,
2056.0,2082.0,45.0,-8.0,
2072.0,2088.0,45.0,-8.0,
2059.0,2091.0,45.0,-8.0,
2078.0,2085.0,45.0,-8.0,
2049.0,2053.0,45.0,-8.0,
2038.0,2025.0,45.0,-9.0,
2038.0,2110.0,45.0,-9.0,
2074.0,2177.0,45.0,-9.0,
2071.0,2121.0,45.0,-9.0,
2051.0,2066.0,45.0,-9.0,
2041.0,2129.0,45.0,-9.0,
2075.0,2017.0,45.0,-9.0,
2073.0,2082.0,45.0,-9.0,
2053.0,2096.0,46.0,-9.0,
2065.0,2145.0,46.0,-9.0,
2043.0,2071.0,46.0,-9.0,
2095.0,2109.0,46.0,-8.0,
2090.0,2074.0,46.0,-8.0,
2073.0,2062.0,46.0,-8.0,
2081.0,2088.0,46.0,-8.0,
2094.0,2007.0,46.0,-9.0,
2096.0,2070.0,46.0,-9.0,
2049.0,2166.0,46.0,-9.0,
2056.0,2128.0,47.0,-9.0,
2073.0,2096.0,47.0,-9.0,
2094.0,2115.0,47.0,-9.0,
2077.0,2083.0,46.0,-8.0,
2084.0,2112.0,46.0,-8.0,
2105.0,2081.0,46.0,-8.0,
2110.0,2037.0,46.0,-8.0,
2099.0,2098.0,46.0,-8.0,
2040.0,2082.0,46.0,-8.0,
2043.0,2179.0,46.0,-8.0,
2067.0,2124.0,46.0,-8.0,
2095.0,2035.0,47.0,-8.0,
2051.0,2037.0,47.0,-8.0,
2081.0,2076.0,47.0,-9.0,
2095.0,2127.0,47.0,-9.0,
2093.0,2108.0,47.0,-9.0,
2061.0,2076.0,47.0,-9.0,
2053.0,2095.0,47.0,-10.0,
2049.0,2082.0,47.0,-10.0,
2082.0,2085.0,47.0,-9.0,
2072.0,2060.0,47.0,-9.0,
2060.0,2032.0,47.0,-9.0,
2061.0,2038.0,47.0,-9.0,
2067.0,2074.0,47.0,-9.0,
2075.0,2072.0,47.0,-9.0,
2043.0,2094.0,47.0,-9.0,
2044.0,2088.0,48.0,-8.0,
2055.0,2131.0,48.0,-8.0,
2077.0,2139.0,47.0,-8.0,
2053.0,2055.0,48.0,-8.0,
2058.0,2011.0,48.0,-9.0,
2076.0,2142.0,48.0,-9.0,
2079.0,2080.0,48.0,-9.0,
2087.0,2024.0,48.0,-9.0,
2034.0,2116.0,48.0,-9.0,
2028.0,2090.0,48.0,-9.0,
2058.0,2128.0,48.0,-9.0,
2074.0,2098.0,49.0,-9.0,
2067.0,2023.0,49.0,-9.0,
2056.0,2038.0,49.0,-9.0,
2074.0,2154.0,49.0,-9.0,
2083.0,2120.0,49.0,-9.0,
2067.0,2096.0,49.0,-9.0,
2057.0,2084.0,49.0,-9.0,
2053.0,2090.0,49.0,-9.0,
2093.0,2061.0,49.0,-8.0,
2107.0,2017.0,49.0,-8.0,
2065.0,2126.0,49.0,-8.0,
2079.0,2049.0,49.0,-8.0,
2118.0,2009.0,49.0,-9.0,
2095.0,2088.0,49.0,-9.0,
2055.0,2094.0,49.0,-9.0,
2051.0,2005.0,49.0,-9.0,
2041.0,2077.0,49.0,-9.0,
2069.0,2149.0,49.0,-9.0,
2096.0,2106.0,49.0,-9.0,
2070.0,2069.0,49.0,-9.0,
2057.0,2107.0,49.0,-9.0,
2086.0,2130.0,49.0,-10.0,
2099.0,2119.0,49.0,-10.0,
2032.0,2051.0,49.0,-9.0,
2047.0,2076.0,49.0,-9.0,
2069.0,2057.0,49.0,-9.0,
2078.0,2085.0,49.0,-9.0,
2072.0,2112.0,49.0,-9.0,
2063.0,2081.0,49.0,-9.0,
2078.0,2097.0,50.0,-9.0,
2086.0,2148.0,50.0,-8.0,
2073.0,2121.0,50.0,-8.0,
2040.0,2071.0,50.0,-8.0,
2062.0,2101.0,50.0,-8.0,
2065.0,2064.0,50.0,-9.0,
2088.0,2105.0,50.0,-9.0,
2068.0,2112.0,50.0,-9.0,
2075.0,2073.0,50.0,-9.0,
2086.0,2115.0,50.0,-9.0,
2080.0,2069.0,50.0,-9.0,
2052.0,2100.0,50.0,-10.0,
2047.0,2137.0,50.0,-9.0,
2050.0,2071.0,50.0,-9.0,
2071.0,2110.0,50.0,-9.0,
2093.0,2121.0,50.0,-9.0,
2054.0,2096.0,50.0,-9.0,
2083.0,2084.0,50.0,-9.0,
2092.0,2136.0,51.0,-9.0,
2082.0,2155.0,51.0,-9.0,
2044.0,2116.0,51.0,-8.0,
2052.0,2075.0,51.0,-8.0,
2050.0,2098.0,51.0,-8.0,
2080.0,2087.0,51.0,-9.0,
2064.0,2044.0,51.0,-9.0,
2087.0,2102.0,51.0,-9.0,
2106.0,2031.0,51.0,-9.0,
2075.0,2129.0,51.0,-9.0,
2098.0,2127.0,51.0,-9.0,
2060.0,2071.0,51.0,-9.0,
2037.0,2106.0,51.0,-9.0,
2064.0,2080.0,51.0,-9.0,
2075.0,2058.0,51.0,-9.0,
2067.0,1971.0,51.0,-9.0,
2039.0,2175.0,51.0,-9.0,
2086.0,2044.0,51.0,-9.0,
2079.0,2165.0,51.0,-9.0,
2051.0,2125.0,51.0,-9.0,
2037.0,2115.0,51.0,-9.0,
2071.0,2106.0,51.0,-9.0,
2106.0,2104.0,51.0,-9.0,
2096.0,1986.0,51.0,-9.0,
2084.0,2083.0,51.0,-9.0,
2069.0,2122.0,51.0,-9.0,
2071.0,2099.0,51.0,-9.0,
2081.0,2098.0,51.0,-9.0,
2058.0,2100.0,51.0,-8.0,
2046.0,2119.0,51.0,-8.0,
2056.0,2079.0,51.0,-8.0,
2074.0,2058.0,51.0,-8.0,
2089.0,2054.0,51.0,-8.0,
2052.0,2059.0,51.0,-8.0,
2044.0,2034.0,51.0,-8.0,
2067.0,2069.0,51.0,-8.0,
2091.0,2090.0,51.0,-9.0,
2051.0,2114.0,51.0,-9.0,
2048.0,2111.0,52.0,-9.0,
2050.0,2097.0,52.0,-9.0,
2073.0,2008.0,52.0,-10.0,
2073.0,1977.0,52.0,-10.0,
2040.0,2122.0,52.0,-9.0,
2062.0,2141.0,52.0,-9.0,
2094.0,2128.0,52.0,-9.0,
2067.0,2098.0,52.0,-9.0,
2052.0,2078.0,52.0,-9.0,
2062.0,2103.0,52.0,-9.0,
2076.0,2073.0,52.0,-9.0,
2124.0,2120.0,52.0,-9.0,
2065.0,2101.0,52.0,-8.0,
2067.0,2071.0,52.0,-8.0,
2063.0,2063.0,53.0,-9.0,
2076.0,2146.0,53.0,-9.0,
2071.0,2058.0,53.0,-9.0,
2077.0,2082.0,53.0,-10.0,
2076.0,2120.0,53.0,-10.0,
2088.0,2112.0,53.0,-10.0,
2087.0,2073.0,53.0,-9.0,
2066.0,2096.0,53.0,-9.0,
2057.0,2166.0,53.0,-9.0,
2082.0,2077.0,53.0,-9.0,
2091.0,2069.0,53.0,-9.0,
2055.0,2061.0,53.0,-9.0,
2053.0,2089.0,54.0,-9.0,
2060.0,2041.0,54.0,-8.0,
2094.0,1981.0,54.0,-8.0,
2078.0,2060.0,54.0,-8.0,
2083.0,2096.0,54.0,-9.0,
2057.0,2195.0,54.0,-9.0,
2090.0,2164.0,54.0,-9.0,
2088.0,2091.0,54.0,-9.0,
2058.0,2059.0,54.0,-9.0,
2057.0,2055.0,54.0,-9.0,
2044.0,2083.0,54.0,-9.0,
2098.0,2000.0,54.0,-9.0,
2040.0,2120.0,54.0,-9.0,
2069.0,2106.0,54.0,-9.0,
2081.0,2107.0,54.0,-9.0,
2092.0,2089.0,54.0,-9.0,
2073.0,2112.0,54.0,-9.0,
2049.0,2101.0,54.0,-9.0,
2051.0,2115.0,54.0,-9.0,
2065.0,2111.0,54.0,-8.0,
2082.0,2039.0,55.0,-8.0,
2053.0,2091.0,55.0,-8.0,
2076.0,2055.0,55.0,-8.0,
2078.0,2096.0,55.0,-8.0,
2081.0,2008.0,55.0,-9.0,
2065.0,2145.0,55.0,-9.0,
2042.0,2129.0,56.0,-9.0,
2041.0,2095.0,56.0,-9.0,
2085.0,2106.0,56.0,-9.0,
2067.0,2108.0,56.0,-9.0,
2060.0,2097.0,56.0,-9.0,
2075.0,2110.0,56.0,-9.0,
2091.0,2083.0,56.0,-9.0,
2070.0,2086.0,56.0,-9.0,
2035.0,2023.0,56.0,-8.0,
2048.0,2137.0,56.0,-8.0,
2055.0,2107.0,56.0,-8.0,
2090.0,1973.0,56.0,-9.0,
2037.0,1973.0,56.0,-9.0,
2070.0,2162.0,56.0,-9.0,
2067.0,2129.0,57.0,-9.0,
2120.0,2131.0,57.0,-9.0,
2112.0,2092.0,57.0,-9.0,
2065.0,2091.0,57.0,-9.0,
2055.0,2051.0,56.0,-9.0,
2061.0,2066.0,56.0,-9.0,
2097.0,2153.0,56.0,-9.0,
2065.0,2080.0,56.0,-10.0,
2077.0,2023.0,57.0,-9.0,
2062.0,2104.0,56.0,-9.0,
2092.0,2203.0,56.0,-9.0,
2047.0,2078.0,56.0,-9.0,
2068.0,2085.0,56.0,-9.0,
2023.0,2091.0,57.0,-9.0,
2070.0,2012.0,57.0,-9.0,
2067.0,2177.0,57.0,-9.0,
2067.0,2195.0,57.0,-8.0,
2058.0,2093.0,57.0,-8.0,
2067.0,2096.0,57.0,-8.0,
2091.0,2092.0,57.0,-9.0,
2048.0,2068.0,57.0,-9.0,
2047.0,2080.0,57.0,-9.0,
2045.0,1979.0,57.0,-9.0,
2088.0,2126.0,57.0,-9.0,
2048.0,2123.0,57.0,-9.0,
2073.0,2105.0,57.0,-9.0,
2079.0,2171.0,57.0,-9.0,
2091.0,2089.0,57.0,-9.0,
2099.0,2049.0,57.0,-9.0,
2041.0,2046.0,58.0,-10.0,
2058.0,2141.0,58.0,-9.0,
2076.0,2086.0,58.0,-9.0,
2093.0,2006.0,58.0,-9.0,
2074.0,2044.0,58.0,-9.0,
2082.0,2043.0,58.0,-9.0,
2068.0,2180.0,58.0,-9.0,
2079.0,2047.0,58.0,-9.0,
2056.0,2052.0,58.0,-9.0,
2041.0,2129.0,58.0,-8.0,
2061.0,2159.0,58.0,-8.0,
2107.0,2130.0,58.0,-8.0,
2070.0,2099.0,58.0,-9.0,
2075.0,2073.0,58.0,-9.0,
2072.0,2073.0,58.0,-9.0,
2098.0,2094.0,58.0,-9.0,
2088.0,2047.0,58.0,-9.0,
2038.0,2152.0,58.0,-9.0,
2045.0,2066.0,58.0,-9.0,
2072.0,2091.0,58.0,-9.0,
2085.0,2106.0,59.0,-9.0,
2059.0,2072.0,59.0,-9.0,
2062.0,2106.0,59.0,-10.0,
2081.0,2082.0,59.0,-10.0,
2095.0,2113.0,59.0,-9.0,
2078.0,2071.0,59.0,-9.0,
2066.0,2053.0,59.0,-9.0,
2051.0,2139.0,59.0,-9.0,
2055.0,2081.0,59.0,-9.0,
2096.0,2060.0,59.0,-9.0,
2064.0,2120.0,59.0,-9.0,
2049.0,1989.0,59.0,-8.0,
2095.0,2046.0,59.0,-8.0,
2098.0,2163.0,59.0,-8.0,
2065.0,2127.0,59.0,-8.0,
2068.0,2149.0,59.0,-9.0,
2071.0,2003.0,60.0,-9.0,
2074.0,2092.0,60.0,-9.0,
2085.0,2087.0,60.0,-9.0,
2063.0,2050.0,60.0,-9.0,
2078.0,1976.0,60.0,-9.0,
2085.0,2149.0,60.0,-9.0,
2066.0,2136.0,60.0,-9.0,
2044.0,2107.0,60.0,-9.0,
2038.0,2026.0,60.0,-9.0,
2038.0,2126.0,60.0,-9.0,
2094.0,2108.0,60.0,-10.0,
2064.0,2157.0,60.0,-9.0,
2047.0,2064.0,60.0,-9.0,
2068.0,2108.0,60.0,-9.0,
2096.0,2132.0,60.0,-9.0,
2072.0,2088.0,60.0,-9.0,
2051.0,2086.0,61.0,-9.0,
2065.0,2079.0,61.0,-9.0,
2058.0,2078.0,61.0,-9.0,
2067.0,2003.0,61.0,-8.0,
2051.0,2106.0,61.0,-8.0,
2045.0,2021.0,61.0,-8.0,
2084.0,2115.0,61.0,-9.0,
2076.0,2072.0,61.0,-9.0,
2044.0,2157.0,61.0,-9.0,
2047.0,2117.0,61.0,-9.0,
2060.0,2116.0,61.0,-9.0,
2082.0,2125.0,61.0,-9.0,
2099.0,2006.0,62.0,-9.0,
2051.0,2049.0,62.0,-9.0,
2063.0,2080.0,62.0,-9.0,
2091.0,2061.0,62.0,-10.0,
2071.0,2116.0,62.0,-10.0,
2058.0,2096.0,62.0,-10.0,
2034.0,2112.0,62.0,-9.0,
2044.0,2022.0,62.0,-9.0,
2098.0,2134.0,62.0,-9.0,
2059.0,2112.0,62.0,-9.0,
2054.0,2098.0,62.0,-9.0,
2052.0,2119.0,62.0,-9.0,
2091.0,2133.0,62.0,-9.0,
2085.0,2056.0,62.0,-8.0,
2053.0,2079.0,62.0,-8.0,
2058.0,2030.0,62.0,-8.0,
2055.0,1985.0,62.0,-9.0,
2087.0,2051.0,62.0,-9.0,
2052.0,2193.0,62.0,-9.0,
2072.0,2092.0,62.0,-9.0,
2094.0,2169.0,62.0,-9.0,
2095.0,2117.0,62.0,-9.0,
2062.0,2084.0,62.0,-9.0,
2036.0,2040.0,62.0,-9.0,
2063.0,2077.0,62.0,-9.0,
2085.0,2115.0,62.0,-9.0,
2059.0,2093.0,62.0,-9.0,
2063.0,2155.0,62.0,-9.0,
2075.0,2021.0,62.0,-9.0,
2074.0,2178.0,62.0,-9.0,
2088.0,2126.0,62.0,-9.0,
2055.0,2108.0,62.0,-9.0,
2048.0,2066.0,63.0,-9.0,
2048.0,2063.0,63.0,-9.0,
2069.0,2040.0,63.0,-10.0,
2074.0,2087.0,63.0,-9.0,
2063.0,2107.0,63.0,-9.0,
2072.0,2114.0,63.0,-9.0,
2101.0,2013.0,63.0,-9.0,
2088.0,2121.0,63.0,-9.0,
2050.0,2068.0,63.0,-9.0,
2048.0,2053.0,63.0,-9.0,
2063.0,2124.0,63.0,-9.0,
2089.0,2045.0,63.0,-8.0,
2070.0,2065.0,63.0,-8.0,
2069.0,2098.0,63.0,-8.0,
2072.0,2091.0,63.0,-9.0,
2080.0,2166.0,63.0,-9.0,
2080.0,2107.0,64.0,-9.0,
2067.0,2097.0,64.0,-9.0,
2046.0,2135.0,64.0,-9.0,
2076.0,2123.0,64.0,-9.0,
2095.0,2011.0,64.0,-9.0,
2138.0,2058.0,64.0,-9.0,
2053.0,2114.0,64.0,-9.0,
2078.0,2116.0,64.0,-9.0,
2098.0,2101.0,64.0,-9.0,
2059.0,2114.0,64.0,-9.0,
2040.0,2052.0,64.0,-9.0,
2046.0,2064.0,64.0,-9.0,
2080.0,2158.0,64.0,-9.0,
2063.0,2051.0,64.0,-9.0,
2073.0,2139.0,64.0,-9.0,
2083.0,2076.0,64.0,-9.0,
2091.0,2035.0,64.0,-9.0,
2099.0,2110.0,64.0,-9.0,
2018.0,2047.0,64.0,-9.0,
2064.0,2041.0,64.0,-9.0,
2070.0,2161.0,64.0,-9.0,
2088.0,2089.0,64.0,-9.0,
2043.0,2088.0,64.0,-9.0,
2063.0,2076.0,64.0,-9.0,
2079.0,1948.0,64.0,-10.0,
2085.0,2130.0,65.0,-9.0,
2064.0,2084.0,65.0,-9.0,
2039.0,2125.0,65.0,-9.0,
2062.0,2072.0,65.0,-9.0,
2053.0,2076.0,65.0,-9.0,
2090.0,2163.0,65.0,-9.0,
2058.0,2141.0,65.0,-9.0,
2060.0,2084.0,65.0,-9.0,
2080.0,2131.0,65.0,-8.0,
2104.0,2142.0,65.0,-8.0,
2050.0,2025.0,65.0,-8.0,
2064.0,2095.0,65.0,-9.0,
2072.0,2001.0,66.0,-9.0,
2070.0,2142.0,66.0,-9.0,
2084.0,2035.0,66.0,-9.0,
2052.0,2170.0,66.0,-9.0,
2087.0,2152.0,66.0,-9.0,
2090.0,2037.0,66.0,-9.0,
2045.0,2131.0,66.0,-9.0,
2050.0,2074.0,66.0,-9.0,
2028.0,2097.0,66.0,-9.0,
2074.0,2089.0,66.0,-9.0,
2084.0,2170.0,66.0,-9.0,
2046.0,2009.0,66.0,-9.0,
2068.0,2194.0,66.0,-9.0,
2060.0,2205.0,66.0,-9.0,
2079.0,2093.0,66.0,-9.0,
2073.0,2039.0,66.0,-9.0,
2042.0,2081.0,66.0,-9.0,
2051.0,2093.0,66.0,-9.0,
2084.0,2093.0,66.0,-9.0,
2079.0,2095.0,66.0,-9.0,
2054.0,2071.0,66.0,-9.0,
2041.0,2100.0,66.0,-9.0,
2080.0,2067.0,66.0,-9.0,
2101.0,2090.0,66.0,-9.0,
2066.0,2080.0,66.0,-9.0,
2054.0,2035.0,66.0,-9.0,
2029.0,2059.0,66.0,-9.0,
2086.0,2101.0,66.0,-9.0,
2067.0,2106.0,67.0,-9.0,
2083.0,2134.0,67.0,-9.0,
2080.0,2128.0,67.0,-10.0,
2085.0,2080.0,67.0,-9.0,
2079.0,2126.0,67.0,-9.0,
2063.0,2120.0,67.0,-9.0,
2053.0,2042.0,67.0,-9.0,
2059.0,2084.0,67.0,-9.0,
2106.0,2098.0,67.0,-9.0,
2070.0,2086.0,67.0,-9.0,
2067.0,2044.0,67.0,-9.0,
2056.0,1998.0,67.0,-8.0,
2099.0,2063.0,67.0,-8.0,
2091.0,2088.0,67.0,-8.0,
2065.0,2136.0,67.0,-9.0,
2065.0,2101.0,67.0,-9.0,
2075.0,2019.0,67.0,-9.0,
2083.0,2111.0,67.0,-9.0,
2078.0,2160.0,67.0,-9.0,
2049.0,2119.0,67.0,-9.0,
2125.0,2098.0,67.0,-9.0,
2094.0,2069.0,67.0,-9.0,
2060.0,2111.0,67.0,-9.0,
2046.0,2009.0,67.0,-9.0,
2028.0,2079.0,67.0,-9.0,
2062.0,1989.0,67.0,-9.0,
2073.0,1997.0,67.0,-9.0,
2056.0,2187.0,67.0,-9.0,
2061.0,2175.0,67.0,-9.0,
2075.0,2172.0,67.0,-9.0,
2058.0,2105.0,67.0,-9.0,
2060.0,2047.0,67.0,-9.0,
2042.0,2111.0,67.0,-9.0,
2044.0,2025.0,67.0,-9.0,
2081.0,2052.0,67.0,-9.0,
2056.0,2091.0,67.0,-9.0,
2068.0,2097.0,67.0,-9.0,
2061.0,2079.0,67.0,-9.0,
2095.0,2093.0,67.0,-9.0,
2083.0,2081.0,67.0,-9.0,
2037.0,2102.0,67.0,-9.0,
2049.0,2101.0,67.0,-9.0,
2056.0,2089.0,67.0,-9.0,
2088.0,2097.0,67.0,-10.0,
2067.0,2092.0,67.0,-9.0,
2078.0,2101.0,67.0,-9.0,
2081.0,2042.0,67.0,-9.0,
2084.0,2088.0,67.0,-9.0,
2062.0,2064.0,67.0,-9.0,
2055.0,2089.0,67.0,-9.0,
2064.0,2083.0,67.0,-9.0,
2072.0,2097.0,67.0,-9.0,
2086.0,2025.0,67.0,-8.0,
2077.0,2129.0,68.0,-8.0,
2075.0,2102.0,68.0,-9.0,
2069.0,2052.0,68.0,-9.0,
2061.0,2037.0,68.0,-9.0,
2043.0,2074.0,68.0,-9.0,
2048.0,2048.0,68.0,-9.0,
2043.0,2193.0,68.0,-9.0,
2107.0,2136.0,68.0,-9.0,
2081.0,2147.0,68.0,-9.0,
2065.0,1946.0,68.0,-9.0,
2061.0,2030.0,68.0,-9.0,
2077.0,2129.0,68.0,-9.0,
2087.0,2166.0,68.0,-9.0,
2045.0,2192.0,68.0,-9.0,
2064.0,2121.0,68.0,-9.0,
2067.0,2077.0,68.0,-9.0,
2079.0,2028.0,68.0,-9.0,
2092.0,2092.0,68.0,-9.0,
2082.0,2072.0,68.0,-9.0,
2072.0,2007.0,69.0,-9.0,
2075.0,2097.0,69.0,-9.0,
2075.0,2157.0,69.0,-9.0,
2061.0,2098.0,69.0,-9.0,
2066.0,2011.0,69.0,-9.0,
2062.0,2202.0,69.0,-9.0,
2106.0,2079.0,69.0,-9.0,
2070.0,2166.0,69.0,-9.0,
2068.0,2086.0,69.0,-9.0,
2084.0,2103.0,69.0,-9.0,
2084.0,2043.0,69.0,-9.0,
2080.0,2077.0,69.0,-9.0,
2038.0,2106.0,69.0,-9.0,
2051.0,2103.0,69.0,-8.0,
2083.0,2123.0,69.0,-8.0,
2097.0,2074.0,69.0,-8.0,
2075.0,2081.0,69.0,-9.0,
2080.0,2061.0,70.0,-9.0,
2078.0,2063.0,70.0,-9.0,
2100.0,2104.0,70.0,-9.0,
2070.0,2042.0,70.0,-9.0,
2042.0,2021.0,70.0,-9.0,
2049.0,2135.0,70.0,-9.0,
2050.0,2053.0,70.0,-9.0,
2084.0,2071.0,70.0,-9.0,
2067.0,2005.0,70.0,-9.0,
2072.0,2170.0,70.0,-9.0,
2073.0,2011.0,70.0,-9.0,
2085.0,2186.0,71.0,-9.0,
2037.0,2116.0,71.0,-9.0,
2065.0,1994.0,71.0,-9.0,
2050.0,2005.0,71.0,-9.0,
2086.0,2183.0,71.0,-9.0,
2061.0,2232.0,71.0,-9.0,
2063.0,2163.0,71.0,-9.0,
2067.0,2090.0,71.0,-9.0,
2081.0,2108.0,71.0,-9.0,
2099.0,2118.0,71.0,-9.0,
2060.0,1949.0,71.0,-9.0,
2038.0,2022.0,71.0,-9.0,
2030.0,2097.0,71.0,-9.0,
2064.0,2075.0,71.0,-10.0,
2062.0,2044.0,71.0,-9.0,
2076.0,2208.0,71.0,-9.0,
2068.0,2160.0,71.0,-9.0,
2099.0,2073.0,71.0,-9.0,
2074.0,2146.0,71.0,-9.0,
2039.0,2059.0,71.0,-9.0,
2046.0,2020.0,71.0,-9.0,
2050.0,2037.0,71.0,-9.0,
2088.0,2101.0,71.0,-8.0,
2070.0,2101.0,70.0,-8.0,
2070.0,2083.0,70.0,-8.0,
2076.0,2092.0,70.0,-8.0,
2100.0,2098.0,70.0,-9.0,
2032.0,2013.0,70.0,-9.0,
2062.0,2071.0,70.0,-9.0,
2063.0,2064.0,71.0,-8.0,
2089.0,2083.0,71.0,-8.0,
2100.0,2100.0,71.0,-9.0,
2079.0,2099.0,71.0,-9.0,
2087.0,2071.0,71.0,-9.0,
2095.0,2081.0,71.0,-9.0,
2080.0,1966.0,71.0,-9.0,
2059.0,2178.0,71.0,-9.0,
2055.0,2148.0,71.0,-9.0,
2075.0,2008.0,71.0,-9.0,
2092.0,2065.0,71.0,-9.0,
2069.0,2167.0,71.0,-9.0,
2057.0,2189.0,71.0,-9.0,
2065.0,2107.0,71.0,-9.0,
2074.0,2074.0,71.0,-9.0,
2104.0,2085.0,71.0,-9.0,
2042.0,2179.0,71.0,-9.0,
2037.0,2123.0,71.0,-9.0,
2064.0,2041.0,71.0,-9.0,
2069.0,2062.0,71.0,-9.0,
2067.0,2076.0,71.0,-9.0,
2056.0,2046.0,71.0,-9.0,
2089.0,2148.0,71.0,-9.0,
2077.0,2161.0,71.0,-9.0,
2081.0,1967.0,71.0,-9.0,
2029.0,2159.0,71.0,-10.0,
2050.0,2060.0,71.0,-9.0,
2052.0,2033.0,72.0,-9.0,
2072.0,2095.0,71.0,-9.0,
2047.0,1927.0,72.0,-9.0,
2042.0,2171.0,72.0,-9.0,
2092.0,2142.0,72.0,-9.0,
2105.0,2071.0,72.0,-9.0,
2068.0,2109.0,72.0,-9.0,
2046.0,2023.0,72.0,-9.0,
2070.0,2138.0,72.0,-8.0,
2079.0,2087.0,72.0,-8.0,
2072.0,1997.0,72.0,-9.0,
2088.0,2148.0,72.0,-9.0,
2078.0,2133.0,72.0,-9.0,
2072.0,2124.0,72.0,-9.0,
2103.0,2110.0,72.0,-9.0,
2082.0,2076.0,72.0,-9.0,
2072.0,1958.0,73.0,-9.0,
2032.0,2048.0,0,
2054.0,2274.0,73.0,-9.0,
2086.0,2109.0,73.0,-9.0,
2069.0,2059.0,73.0,-9.0,
2074.0,2125.0,73.0,-9.0,
2076.0,2066.0,73.0,-9.0,
2063.0,2136.0,73.0,-9.0,
2065.0,2095.0,73.0,-9.0,
2055.0,2107.0,73.0,-9.0,
2046.0,2029.0,73.0,-9.0,
2110.0,2080.0,73.0,-9.0,
2087.0,2052.0,73.0,-9.0,
2032.0,2060.0,72.0,-9.0,
2083.0,2140.0,72.0,-9.0,
2087.0,2116.0,73.0,-8.0,
2093.0,2106.0,73.0,-8.0,
2052.0,2009.0,73.0,-9.0,
2058.0,2172.0,73.0,-10.0,
2053.0,2083.0,73.0,-10.0,
2103.0,2085.0,73.0,-9.0,
2090.0,2129.0,73.0,-9.0,
2035.0,2047.0,73.0,-9.0,
2077.0,2058.0,73.0,-9.0,
2102.0,2164.0,74.0,-9.0,
2087.0,2105.0,74.0,-10.0,
2053.0,2079.0,74.0,-9.0,
2063.0,2119.0,74.0,-9.0,
2056.0,2077.0,74.0,-8.0,
2093.0,2057.0,74.0,-8.0,
2049.0,2034.0,74.0,-9.0,
2062.0,2056.0,74.0,-9.0,
2092.0,2171.0,74.0,-9.0,
2081.0,2107.0,75.0,-9.0,
2065.0,2133.0,75.0,-9.0,
2060.0,2097.0,75.0,-9.0,
2057.0,1966.0,75.0,-9.0,
2065.0,2110.0,75.0,-9.0,
2074.0,2170.0,75.0,-9.0,
2053.0,2097.0,75.0,-9.0,
2072.0,2113.0,75.0,-9.0,
2068.0,2187.0,75.0,-9.0,
2091.0,2084.0,76.0,-9.0,
2060.0,2103.0,76.0,-9.0,
2064.0,2089.0,76.0,-9.0,
2057.0,1997.0,76.0,-9.0,
2079.0,2029.0,76.0,-9.0,
2080.0,2122.0,76.0,-9.0,
2089.0,2160.0,76.0,-9.0,
2064.0,2065.0,76.0,-8.0,
2097.0,2052.0,76.0,-8.0,
2089.0,2108.0,76.0,-8.0,
2066.0,1969.0,76.0,-8.0,
2029.0,2043.0,76.0,-8.0,
2053.0,2205.0,76.0,-8.0,
2076.0,2103.0,76.0,-8.0,
2075.0,2113.0,76.0,-8.0,
2071.0,2025.0,76.0,-8.0,
2084.0,2170.0,76.0,-8.0,
2083.0,2069.0,76.0,-8.0,
2069.0,1998.0,76.0,-8.0,
2040.0,2138.0,76.0,-8.0,
2060.0,2097.0,76.0,-8.0,
2063.0,2128.0,76.0,-8.0,
2087.0,2112.0,76.0,-8.0,
2056.0,2106.0,76.0,-8.0,
2067.0,2036.0,76.0,-8.0,
2094.0,2137.0,76.0,-8.0,
2077.0,2113.0,76.0,-8.0,
2074.0,2088.0,76.0,-8.0,
2044.0,2044.0,76.0,-8.0,
2062.0,2067.0,76.0,-8.0,
2043.0,2073.0,75.0,-8.0,
2095.0,2134.0,75.0,-8.0,
2061.0,2093.0,75.0,-8.0,
2062.0,2038.0,75.0,-8.0,
2082.0,2071.0,75.0,-9.0,
2071.0,2085.0,75.0,-9.0,
2077.0,2107.0,75.0,-9.0,
2050.0,2036.0,75.0,-9.0,
2062.0,2141.0,75.0,-9.0,
2083.0,2109.0,75.0,-9.0,
2104.0,2058.0,75.0,-9.0,
2074.0,2075.0,75.0,-9.0,
2085.0,2086.0,75.0,-9.0,
2119.0,2080.0,75.0,-9.0,
2044.0,2010.0,75.0,-9.0,
2048.0,2104.0,75.0,-9.0,
2090.0,2250.0,75.0,-9.0,
2072.0,2140.0,75.0,-9.0,
2060.0,2053.0,75.0,-9.0,
2064.0,2049.0,75.0,-9.0,
2062.0,2075.0,75.0,-9.0,
2081.0,1983.0,75.0,-9.0,
2084.0,2181.0,75.0,-9.0,
2063.0,2171.0,75.0,-9.0,
2046.0,2072.0,75.0,-9.0,
2068.0,2140.0,75.0,-9.0,
2045.0,2131.0,75.0,-9.0,
2092.0,2072.0,75.0,-9.0,
2081.0,2050.0,75.0,-9.0,
2068.0,2044.0,75.0,-9.0,
2068.0,2066.0,75.0,-9.0,
2075.0,2055.0,75.0,-9.0,
2094.0,2117.0,75.0,-9.0,
2063.0,2096.0,75.0,-9.0,
2068.0,2090.0,75.0,-9.0,
2059.0,2112.0,75.0,-9.0,
2073.0,2025.0,75.0,-9.0,
2058.0,2119.0,75.0,-9.0,
2068.0,2056.0,75.0,-8.0,
2066.0,2124.0,75.0,-8.0,
2103.0,2038.0,75.0,-8.0,
2080.0,2112.0,75.0,-8.0,
2052.0,2046.0,75.0,-8.0,
2054.0,2116.0,75.0,-8.0,
2065.0,2107.0,75.0,-8.0,
2097.0,2123.0,75.0,-9.0,
2059.0,2131.0,75.0,-8.0,
2068.0,2117.0,75.0,-8.0,
2083.0,2109.0,75.0,-8.0,
2100.0,2052.0,75.0,-9.0,
2065.0,2080.0,75.0,-9.0,
2032.0,2061.0,75.0,-9.0,
2067.0,2084.0,75.0,-9.0,
2079.0,2100.0,75.0,-9.0,
2101.0,2129.0,75.0,-9.0,
2056.0,2068.0,75.0,-9.0,
2069.0,2102.0,75.0,-9.0,
2072.0,2121.0,75.0,-9.0,
2077.0,2053.0,75.0,-9.0,
2055.0,2096.0,75.0,-9.0,
2038.0,2110.0,75.0,-9.0,
2066.0,2075.0,75.0,-9.0,
2105.0,2063.0,75.0,-9.0,
2077.0,2113.0,75.0,-9.0,
2084.0,2057.0,75.0,-9.0,
2095.0,2097.0,75.0,-9.0,
2090.0,2006.0,75.0,-9.0,
2091.0,2094.0,75.0,-9.0,
2052.0,2262.0,75.0,-9.0,
2054.0,2106.0,76.0,-9.0,
2066.0,2094.0,76.0,-9.0,
2074.0,2085.0,76.0,-9.0,
2053.0,2071.0,76.0,-9.0,
2057.0,2077.0,76.0,-9.0,
2078.0,2082.0,76.0,-9.0,
2104.0,2067.0,76.0,-9.0,
2078.0,2090.0,76.0,-9.0,
2041.0,2091.0,76.0,-9.0,
2058.0,2118.0,76.0,-9.0,
2058.0,2062.0,76.0,-9.0,
2077.0,2057.0,76.0,-9.0,
2112.0,2074.0,76.0,-9.0,
2069.0,2095.0,76.0,-9.0,
2073.0,2063.0,76.0,-9.0,
2089.0,2068.0,76.0,-9.0,
2071.0,2113.0,76.0,-9.0,
2048.0,2086.0,76.0,-9.0,
2044.0,2088.0,76.0,-9.0,
2058.0,2030.0,76.0,-9.0,
2077.0,2071.0,76.0,-9.0,
2072.0,2117.0,76.0,-9.0,
2068.0,2086.0,76.0,-9.0,
2089.0,2145.0,76.0,-9.0,
2113.0,2082.0,76.0,-9.0,
2069.0,2097.0,76.0,-9.0,
2050.0,2084.0,76.0,-9.0,
2064.0,2071.0,76.0,-9.0,
2082.0,2125.0,76.0,-9.0,
2071.0,2051.0,76.0,-9.0,
2054.0,2097.0,76.0,-9.0,
2076.0,2102.0,76.0,-9.0,
2087.0,2064.0,76.0,-9.0,
2128.0,2009.0,76.0,-9.0,
2089.0,2146.0,76.0,-9.0,
2050.0,2121.0,76.0,-9.0,
2056.0,2060.0,76.0,-9.0,
2115.0,2075.0,76.0,-9.0,
2083.0,2136.0,76.0,-8.0,
2084.0,2104.0,76.0,-9.0,
2094.0,2095.0,76.0,-9.0,
2085.0,2091.0,76.0,-9.0,
2091.0,2112.0,75.0,-9.0,
2066.0,2102.0,75.0,-9.0,
2070.0,2100.0,75.0,-9.0,
2050.0,2027.0,75.0,-9.0,
2089.0,2055.0,75.0,-9.0,
2073.0,2035.0,75.0,-9.0,
2059.0,2102.0,75.0,-9.0,
2054.0,2057.0,75.0,-8.0,
2096.0,2112.0,75.0,-8.0,
2065.0,2133.0,75.0,-8.0,
2065.0,2067.0,75.0,-8.0,
2055.0,2160.0,75.0,-8.0,
2032.0,2080.0,75.0,-8.0,
2095.0,2085.0,75.0,-8.0,
2083.0,2066.0,74.0,-8.0,
2055.0,2123.0,74.0,-8.0,
2072.0,2104.0,74.0,-8.0,
2089.0,2126.0,74.0,-8.0,
2079.0,2091.0,74.0,-9.0,
2051.0,2071.0,74.0,-9.0,
2057.0,2050.0,73.0,-9.0,
2067.0,2065.0,73.0,-9.0,
2088.0,2075.0,73.0,-9.0,
2045.0,2036.0,73.0,-9.0,
2088.0,2156.0,72.0,-9.0,
2065.0,2115.0,72.0,-9.0,
2088.0,2127.0,72.0,-8.0,
2056.0,2097.0,72.0,-8.0,
2044.0,2085.0,71.0,-8.0,
2039.0,2070.0,71.0,-8.0,
2072.0,2101.0,71.0,-8.0,
2064.0,2080.0,71.0,-8.0,
2048.0,2063.0,70.0,-8.0,
2061.0,2056.0,70.0,-8.0,
2092.0,2107.0,70.0,-8.0,
2082.0,2132.0,70.0,-8.0,
2055.0,2088.0,70.0,-8.0,
2054.0,2083.0,70.0,-8.0,
2061.0,2146.0,70.0,-9.0,
2071.0,2067.0,70.0,-9.0,
2075.0,2009.0,69.0,-9.0,
2064.0,2091.0,69.0,-9.0,
2069.0,2090.0,69.0,-9.0,
2117.0,2102.0,69.0,-9.0,
2102.0,2149.0,69.0,-9.0,
2070.0,2060.0,69.0,-9.0,
2064.0,2089.0,69.0,-9.0,
2045.0,2075.0,69.0,-9.0,
2091.0,2070.0,69.0,-9.0,
2082.0,2111.0,69.0,-9.0,
2074.0,2081.0,69.0,-9.0,
2083.0,2124.0,69.0,-9.0,
2091.0,2148.0,69.0,-9.0,
2084.0,2120.0,68.0,-9.0,
2041.0,2090.0,68.0,-9.0,
2047.0,2083.0,68.0,-9.0,
2058.0,2082.0,68.0,-9.0,
2120.0,2089.0,68.0,-9.0,
2069.0,2120.0,68.0,-9.0,
2057.0,2104.0,68.0,-9.0,
2074.0,2051.0,68.0,-9.0,
2092.0,2035.0,68.0,-9.0,
2026.0,2155.0,68.0,-9.0,
2025.0,2123.0,68.0,-9.0,
2060.0,2095.0,68.0,-9.0,
2092.0,2024.0,68.0,-9.0,
2091.0,2051.0,68.0,-9.0,
2057.0,2152.0,68.0,-9.0,
2108.0,2066.0,68.0,-9.0,
2090.0,2090.0,68.0,-9.0,
2094.0,2084.0,68.0,-9.0,
2061.0,2095.0,68.0,-9.0,
2057.0,2089.0,68.0,-9.0,
2051.0,2076.0,68.0,-9.0,
2084.0,2095.0,68.0,-9.0,
2072.0,2085.0,68.0,-9.0,
2056.0,2088.0,68.0,-9.0,
2072.0,2090.0,68.0,-9.0,
2072.0,2036.0,67.0,-9.0,
2095.0,2153.0,67.0,-9.0,
2053.0,2136.0,67.0,-9.0,
2045.0,2092.0,68.0,-9.0,
2035.0,2024.0,68.0,-8.0,
2048.0,2083.0,68.0,-8.0,
2032.0,2099.0,68.0,-8.0,
2047.0,2118.0,68.0,-8.0,
2102.0,2088.0,68.0,-8.0,
2083.0,2078.0,68.0,-8.0,
2133.0,2094.0,68.0,-8.0,
2074.0,2107.0,68.0,-9.0,
2060.0,2077.0,68.0,-9.0,
2064.0,2057.0,68.0,-9.0,
2101.0,2035.0,68.0,-9.0,
2072.0,2082.0,68.0,-9.0,
2046.0,2055.0,68.0,-9.0,
2076.0,2154.0,68.0,-9.0,
2100.0,2087.0,68.0,-9.0,
2076.0,2111.0,68.0,-9.0,
2071.0,2072.0,68.0,-9.0,
2055.0,2121.0,68.0,-9.0,
2051.0,2103.0,68.0,-9.0,
2089.0,2104.0,68.0,-9.0,
2056.0,2054.0,68.0,-9.0,
2058.0,2075.0,68.0,-9.0,
2068.0,2074.0,68.0,-9.0,
2078.0,2088.0,67.0,-9.0,
2047.0,2061.0,67.0,-8.0,
2056.0,2093.0,67.0,-8.0,
2050.0,2048.0,67.0,-8.0,
2077.0,2077.0,67.0,-8.0,
2068.0,2112.0,67.0,-8.0,
2068.0,2057.0,67.0,-8.0,
2069.0,2096.0,66.0,-8.0,
2079.0,2114.0,66.0,-8.0,
2107.0,2090.0,66.0,-8.0,
2074.0,2087.0,66.0,-8.0,
2033.0,2083.0,66.0,-8.0,
2060.0,2092.0,66.0,-8.0,
2100.0,2078.0,66.0,-8.0,
2080.0,2087.0,66.0,-8.0,
2091.0,2092.0,66.0,-8.0,
2072.0,2065.0,65.0,-8.0,
2093.0,2096.0,65.0,-8.0,
2084.0,2093.0,65.0,-8.0,
2050.0,2094.0,65.0,-8.0,
2058.0,2088.0,65.0,-8.0,
2065.0,2079.0,65.0,-8.0,
2095.0,2125.0,65.0,-8.0,
2074.0,2018.0,65.0,-8.0,
2071.0,2086.0,65.0,-8.0,
2077.0,2086.0,65.0,-8.0,
2084.0,2092.0,65.0,-8.0,
2076.0,2119.0,65.0,-8.0,
