2119.0,2102.0,27.0,-3.0,
2112.0,2114.0,27.0,-3.0,
2094.0,2122.0,27.0,-3.0,
2097.0,2088.0,27.0,-3.0,
2089.0,2094.0,27.0,-3.0,
2056.0,2082.0,28.0,-3.0,
2122.0,2068.0,28.0,-3.0,
2124.0,2062.0,28.0,-3.0,
2119.0,2093.0,28.0,-3.0,
2094.0,2125.0,28.0,-3.0,
2064.0,2100.0,28.0,-3.0,
2060.0,2075.0,27.0,-3.0,
2082.0,2089.0,27.0,-3.0,
2054.0,2072.0,27.0,-3.0,
2108.0,2081.0,27.0,-3.0,
2065.0,2080.0,27.0,-3.0,
2051.0,2110.0,27.0,-3.0,
2054.0,2104.0,27.0,-3.0,
2082.0,2096.0,27.0,-3.0,
2064.0,2095.0,27.0,-3.0,
2058.0,2091.0,27.0,-3.0,
2035.0,2086.0,27.0,-3.0,
2032.0,2095.0,27.0,-3.0,
2034.0,2084.0,27.0,-3.0,
2080.0,2080.0,27.0,-3.0,
2066.0,2092.0,27.0,-3.0,
2094.0,2116.0,27.0,-3.0,
2114.0,2130.0,27.0,-3.0,
2085.0,2106.0,27.0,-3.0,
2056.0,2033.0,27.0,-3.0,
2059.0,2051.0,27.0,-3.0,
2074.0,2086.0,27.0,-3.0,
2086.0,2094.0,27.0,-3.0,
2063.0,2077.0,27.0,-3.0,
2079.0,2124.0,27.0,-3.0,
2106.0,2121.0,27.0,-3.0,
2084.0,2110.0,27.0,-3.0,
2073.0,2100.0,27.0,-3.0,
2068.0,2100.0,27.0,-3.0,
2044.0,2091.0,27.0,-3.0,
2037.0,2102.0,27.0,-3.0,
2060.0,2107.0,27.0,-3.0,
2070.0,2084.0,27.0,-3.0,
2096.0,2111.0,27.0,-3.0,
2126.0,2105.0,27.0,-3.0,
2088.0,2094.0,27.0,-3.0,
2081.0,2099.0,27.0,-3.0,
2079.0,2089.0,27.0,-3.0,
2060.0,2078.0,27.0,-3.0,
2054.0,2090.0,27.0,-3.0,
2062.0,2090.0,27.0,-3.0,
2075.0,2092.0,28.0,-3.0,
2084.0,2095.0,28.0,-3.0,
2069.0,2132.0,28.0,-3.0,
2063.0,2103.0,28.0,-3.0,
2053.0,2082.0,28.0,-3.0,
2083.0,2065.0,28.0,-3.0,
2100.0,2074.0,28.0,-3.0,
2072.0,2099.0,28.0,-3.0,
2077.0,2126.0,28.0,-3.0,
2063.0,2078.0,28.0,-3.0,
2098.0,2088.0,28.0,-3.0,
2125.0,2084.0,28.0,-3.0,
2112.0,2085.0,28.0,-3.0,
2074.0,2082.0,28.0,-3.0,
2080.0,2092.0,28.0,-3.0,
2075.0,2103.0,28.0,-3.0,
2073.0,2111.0,28.0,-3.0,
2078.0,2064.0,27.0,-3.0,
2094.0,2111.0,27.0,-3.0,
2068.0,2073.0,27.0,-3.0,
2074.0,2093.0,27.0,-3.0,
2029.0,2098.0,27.0,-3.0,
2038.0,2077.0,27.0,-3.0,
2050.0,2083.0,27.0,-3.0,
2042.0,2082.0,27.0,-3.0,
2079.0,2108.0,27.0,-3.0,
2068.0,2127.0,27.0,-3.0,
2062.0,2118.0,27.0,-3.0,
2062.0,2092.0,27.0,-3.0,
2047.0,2093.0,27.0,-3.0,
2070.0,2091.0,27.0,-3.0,
2125.0,2087.0,27.0,-3.0,
2103.0,2072.0,27.0,-3.0,
2081.0,2099.0,27.0,-3.0,
2067.0,2117.0,27.0,-3.0,
2091.0,2086.0,27.0,-3.0,
2102.0,2092.0,27.0,-3.0,
2087.0,2084.0,27.0,-3.0,
2082.0,2090.0,27.0,-3.0,
2062.0,2096.0,27.0,-3.0,
2048.0,2128.0,27.0,-3.0,
2062.0,2094.0,27.0,-3.0,
2066.0,2094.0,27.0,-3.0,
2062.0,2104.0,27.0,-3.0,
2090.0,2091.0,27.0,-3.0,
2067.0,2092.0,27.0,-3.0,
2072.0,2099.0,27.0,-3.0,
2064.0,2105.0,27.0,-3.0,
2040.0,2078.0,27.0,-3.0,
2065.0,2080.0,27.0,-3.0,
2100.0,2083.0,27.0,-3.0,
2092.0,2082.0,27.0,-3.0,
2092.0,2095.0,27.0,-3.0,
2106.0,2110.0,27.0,-3.0,
2107.0,2099.0,27.0,-3.0,
2084.0,2087.0,27.0,-3.0,
2066.0,2078.0,27.0,-3.0,
2056.0,2087.0,27.0,-3.0,
2068.0,2090.0,0,
2063.0,2076.0,27.0,-3.0,
2069.0,2076.0,27.0,-3.0,
2059.0,2131.0,27.0,-3.0,
2064.0,2124.0,27.0,-3.0,
2103.0,2104.0,27.0,-3.0,
2073.0,2130.0,27.0,-3.0,
2068.0,2085.0,27.0,-3.0,
2041.0,2069.0,27.0,-3.0,
2051.0,2031.0,27.0,-3.0,
2054.0,2127.0,27.0,-3.0,
2127.0,2138.0,27.0,-3.0,
2128.0,2140.0,27.0,-3.0,
2101.0,2017.0,27.0,-3.0,
2100.0,2063.0,27.0,-3.0,
2089.0,2070.0,27.0,-3.0,
2060.0,2066.0,27.0,-3.0,
2052.0,2073.0,27.0,-3.0,
2043.0,2116.0,27.0,-3.0,
2045.0,2105.0,27.0,-3.0,
2072.0,2109.0,27.0,-3.0,
2083.0,2082.0,27.0,-3.0,
2072.0,2092.0,27.0,-3.0,
2074.0,2101.0,28.0,-3.0,
2040.0,2107.0,28.0,-3.0,
2048.0,2105.0,28.0,-3.0,
2060.0,2098.0,27.0,-3.0,
2081.0,2097.0,27.0,-3.0,
2072.0,2065.0,27.0,-3.0,
2091.0,2090.0,27.0,-3.0,
2083.0,2102.0,27.0,-3.0,
2096.0,2101.0,27.0,-3.0,
2090.0,2090.0,27.0,-3.0,
2062.0,2094.0,27.0,-3.0,
2044.0,2102.0,27.0,-3.0,
2034.0,2068.0,27.0,-3.0,
2035.0,2093.0,27.0,-3.0,
2061.0,2073.0,27.0,-3.0,
2115.0,2092.0,27.0,-3.0,
2143.0,2095.0,27.0,-3.0,
2078.0,2103.0,0,
2067.0,2098.0,27.0,-3.0,
2051.0,2087.0,27.0,-3.0,
2041.0,2096.0,27.0,-3.0,
2066.0,2107.0,27.0,-3.0,
2079.0,2102.0,27.0,-3.0,
2097.0,2082.0,27.0,-3.0,
2108.0,2074.0,27.0,-3.0,
2113.0,2085.0,27.0,-3.0,
2093.0,2111.0,27.0,-3.0,
2073.0,2114.0,27.0,-3.0,
2065.0,2104.0,27.0,-3.0,
2065.0,2076.0,27.0,-3.0,
2037.0,2082.0,27.0,-3.0,
2077.0,2119.0,27.0,-3.0,
2091.0,2129.0,27.0,-3.0,
2123.0,2104.0,27.0,-3.0,
2098.0,2071.0,27.0,-3.0,
2080.0,2088.0,27.0,-3.0,
2065.0,2086.0,27.0,-3.0,
2048.0,2076.0,0,
2044.0,2070.0,27.0,-3.0,
2081.0,2071.0,27.0,-3.0,
2058.0,2099.0,27.0,-3.0,
2060.0,2109.0,27.0,-3.0,
2068.0,2118.0,27.0,-3.0,
2051.0,2131.0,27.0,-3.0,
2044.0,2091.0,27.0,-3.0,
2028.0,2098.0,27.0,-3.0,
2020.0,2084.0,27.0,-3.0,
2119.0,2041.0,27.0,-3.0,
2110.0,2077.0,27.0,-3.0,
2113.0,2098.0,27.0,-3.0,
2106.0,2102.0,27.0,-3.0,
2085.0,2064.0,27.0,-3.0,
2082.0,2058.0,27.0,-3.0,
2062.0,2066.0,27.0,-3.0,
2032.0,2106.0,27.0,-3.0,
2052.0,2118.0,27.0,-3.0,
2050.0,2109.0,27.0,-3.0,
2035.0,2071.0,27.0,-3.0,
2073.0,2076.0,27.0,-3.0,
2122.0,2082.0,27.0,-3.0,
2104.0,2114.0,27.0,-3.0,
2070.0,2151.0,27.0,-3.0,
2075.0,2109.0,27.0,-3.0,
2035.0,2095.0,27.0,-3.0,
2046.0,2093.0,27.0,-3.0,
1996.0,2087.0,27.0,-3.0,
2059.0,2088.0,27.0,-3.0,
2093.0,2073.0,27.0,-3.0,
2106.0,2112.0,27.0,-3.0,
2104.0,2097.0,27.0,-3.0,
2084.0,2088.0,27.0,-3.0,
2061.0,2072.0,27.0,-3.0,
2039.0,2084.0,27.0,-3.0,
2046.0,2115.0,27.0,-3.0,
2036.0,2122.0,27.0,-3.0,
2032.0,2095.0,27.0,-3.0,
2065.0,2093.0,27.0,-3.0,
2067.0,2076.0,27.0,-3.0,
2097.0,2076.0,27.0,-3.0,
2150.0,2075.0,27.0,-3.0,
2081.0,2077.0,27.0,-3.0,
2107.0,2069.0,27.0,-3.0,
2062.0,2104.0,27.0,-3.0,
2066.0,2115.0,27.0,-3.0,
2085.0,2093.0,27.0,-3.0,
2081.0,2101.0,27.0,-3.0,
2077.0,2114.0,27.0,-3.0,
2063.0,2101.0,27.0,-3.0,
2080.0,2102.0,27.0,-3.0,
2082.0,2065.0,27.0,-3.0,
2069.0,2089.0,27.0,-3.0,
2056.0,2088.0,27.0,-3.0,
2074.0,2082.0,27.0,-3.0,
2056.0,2115.0,27.0,-3.0,
2046.0,2109.0,27.0,-3.0,
2099.0,2109.0,27.0,-3.0,
2042.0,2122.0,27.0,-3.0,
2086.0,2084.0,28.0,-3.0,
2140.0,2063.0,28.0,-3.0,
2061.0,2079.0,28.0,-3.0,
2075.0,2085.0,28.0,-3.0,
2071.0,2086.0,28.0,-3.0,
2084.0,2086.0,28.0,-3.0,
2096.0,2076.0,28.0,-3.0,
2094.0,2080.0,28.0,-3.0,
2077.0,2078.0,27.0,-3.0,
2046.0,2110.0,28.0,-3.0,
2049.0,2087.0,28.0,-3.0,
2053.0,2101.0,28.0,-3.0,
2063.0,2157.0,27.0,-3.0,
2089.0,2134.0,27.0,-3.0,
2061.0,2113.0,27.0,-3.0,
2072.0,2101.0,27.0,-3.0,
2056.0,2091.0,27.0,-3.0,
2059.0,2112.0,27.0,-3.0,
2077.0,2084.0,27.0,-3.0,
2122.0,2083.0,27.0,-3.0,
2071.0,2076.0,27.0,-3.0,
2078.0,2091.0,27.0,-3.0,
2102.0,2083.0,27.0,-3.0,
2084.0,2085.0,27.0,-3.0,
2079.0,2100.0,27.0,-3.0,
2080.0,2094.0,27.0,-3.0,
2066.0,2081.0,27.0,-3.0,
2065.0,2073.0,27.0,-3.0,
2084.0,2082.0,27.0,-3.0,
2048.0,2089.0,27.0,-3.0,
2061.0,2087.0,27.0,-3.0,
2084.0,2091.0,27.0,-3.0,
2080.0,2091.0,27.0,-3.0,
2117.0,2106.0,27.0,-3.0,
2064.0,2095.0,27.0,-3.0,
2062.0,2052.0,27.0,-3.0,
2089.0,2064.0,27.0,-3.0,
2092.0,2097.0,27.0,-3.0,
2049.0,2094.0,27.0,-3.0,
2056.0,2105.0,27.0,-3.0,
2076.0,2095.0,27.0,-3.0,
2100.0,2093.0,27.0,-3.0,
2138.0,2087.0,27.0,-3.0,
2109.0,2093.0,27.0,-3.0,
2069.0,2089.0,27.0,-3.0,
2096.0,2079.0,27.0,-3.0,
2074.0,2075.0,27.0,-3.0,
2078.0,2081.0,27.0,-3.0,
2085.0,2102.0,27.0,-3.0,
2083.0,2088.0,27.0,-3.0,
2090.0,2088.0,27.0,-3.0,
2063.0,2136.0,27.0,-3.0,
2040.0,2145.0,27.0,-3.0,
2026.0,2083.0,27.0,-3.0,
2065.0,2092.0,27.0,-3.0,
2077.0,2091.0,27.0,-3.0,
2062.0,2083.0,27.0,-3.0,
2068.0,2082.0,27.0,-3.0,
2097.0,2100.0,27.0,-3.0,
2120.0,2099.0,27.0,-3.0,
2089.0,2100.0,27.0,-3.0,
2070.0,2084.0,27.0,-3.0,
2053.0,2100.0,27.0,-3.0,
2041.0,2098.0,27.0,-3.0,
2053.0,2092.0,27.0,-3.0,
2101.0,2097.0,27.0,-3.0,
2104.0,2086.0,27.0,-3.0,
2096.0,2086.0,27.0,-3.0,
2070.0,2088.0,27.0,-3.0,
2086.0,2091.0,27.0,-3.0,
2083.0,2099.0,27.0,-3.0,
2050.0,2086.0,27.0,-3.0,
2063.0,2077.0,27.0,-3.0,
2080.0,2063.0,27.0,-3.0,
2066.0,2114.0,27.0,-3.0,
2112.0,2114.0,27.0,-3.0,
2102.0,2080.0,27.0,-3.0,
2093.0,2086.0,27.0,-3.0,
2059.0,2099.0,27.0,-3.0,
2052.0,2110.0,27.0,-3.0,
2041.0,2087.0,27.0,-3.0,
2077.0,2063.0,27.0,-3.0,
2082.0,2078.0,27.0,-3.0,
2078.0,2132.0,27.0,-3.0,
2093.0,2138.0,27.0,-3.0,
2096.0,2129.0,27.0,-3.0,
2071.0,2045.0,27.0,-3.0,
2076.0,2030.0,27.0,-3.0,
2063.0,2047.0,27.0,-3.0,
2069.0,2120.0,27.0,-3.0,
2049.0,2129.0,27.0,-3.0,
2092.0,2124.0,27.0,-3.0,
2081.0,2114.0,27.0,-3.0,
2104.0,2103.0,27.0,-3.0,
2083.0,2091.0,27.0,-3.0,
2077.0,2087.0,27.0,-3.0,
2140.0,2076.0,27.0,-3.0,
2075.0,2087.0,27.0,-3.0,
2077.0,2089.0,27.0,-3.0,
2085.0,2097.0,27.0,-3.0,
2106.0,2091.0,27.0,-3.0,
2105.0,2107.0,27.0,-3.0,
2077.0,2100.0,27.0,-3.0,
2076.0,2064.0,27.0,-3.0,
2082.0,2078.0,27.0,-3.0,
2077.0,2084.0,27.0,-3.0,
2082.0,2072.0,27.0,-3.0,
2047.0,2078.0,27.0,-3.0,
2082.0,2094.0,27.0,-3.0,
2104.0,2093.0,27.0,-3.0,
2092.0,2097.0,27.0,-3.0,
2139.0,2107.0,27.0,-3.0,
2124.0,2082.0,27.0,-3.0,
2084.0,2086.0,27.0,-3.0,
2062.0,2093.0,27.0,-3.0,
2053.0,2094.0,27.0,-3.0,
2054.0,2082.0,27.0,-3.0,
2076.0,2087.0,27.0,-3.0,
2085.0,2091.0,27.0,-3.0,
2123.0,2097.0,27.0,-3.0,
2102.0,2094.0,27.0,-3.0,
2074.0,2107.0,27.0,-3.0,
2040.0,2120.0,27.0,-3.0,
2059.0,2086.0,27.0,-3.0,
2069.0,2080.0,27.0,-3.0,
2063.0,2069.0,27.0,-3.0,
2076.0,2098.0,27.0,-3.0,
2096.0,2103.0,27.0,-3.0,
2096.0,2103.0,27.0,-3.0,
2085.0,2094.0,27.0,-3.0,
2059.0,2093.0,27.0,-3.0,
2051.0,2092.0,27.0,-3.0,
2040.0,2090.0,27.0,-3.0,
2061.0,2087.0,27.0,-3.0,
2084.0,2097.0,27.0,-3.0,
2096.0,2095.0,27.0,-3.0,
2104.0,2107.0,27.0,-3.0,
2084.0,2127.0,27.0,-3.0,
2075.0,2098.0,27.0,-3.0,
2053.0,2068.0,27.0,-3.0,
2043.0,2085.0,27.0,-3.0,
2046.0,2084.0,27.0,-3.0,
2060.0,2095.0,27.0,-3.0,
2086.0,2063.0,27.0,-3.0,
2104.0,2073.0,27.0,-3.0,
2101.0,2114.0,27.0,-3.0,
2072.0,2144.0,27.0,-3.0,
2066.0,2116.0,27.0,-3.0,
2090.0,2089.0,27.0,-3.0,
2082.0,2033.0,27.0,-3.0,
2070.0,2083.0,0,
2056.0,2106.0,27.0,-3.0,
2059.0,2096.0,27.0,-3.0,
2057.0,2102.0,27.0,-3.0,
2081.0,2095.0,27.0,-3.0,
2091.0,2087.0,27.0,-3.0,
2079.0,2099.0,27.0,-3.0,
2098.0,2074.0,27.0,-3.0,
2122.0,2069.0,27.0,-3.0,
2059.0,2080.0,27.0,-3.0,
2068.0,2095.0,27.0,-3.0,
2068.0,2063.0,27.0,-3.0,
2071.0,2105.0,27.0,-3.0,
2084.0,2118.0,27.0,-3.0,
2073.0,2106.0,27.0,-3.0,
2059.0,2102.0,27.0,-3.0,
2045.0,2089.0,27.0,-3.0,
2024.0,2059.0,27.0,-3.0,
2020.0,2091.0,27.0,-3.0,
2089.0,2116.0,27.0,-3.0,
2118.0,2107.0,27.0,-3.0,
2087.0,2068.0,27.0,-3.0,
2089.0,2083.0,27.0,-3.0,
2077.0,2087.0,27.0,-3.0,
2064.0,2121.0,27.0,-3.0,
2073.0,2114.0,27.0,-3.0,
2054.0,2074.0,27.0,-3.0,
2054.0,2055.0,27.0,-3.0,
2072.0,2093.0,27.0,-3.0,
2081.0,2124.0,27.0,-3.0,
2099.0,2098.0,27.0,-3.0,
2085.0,2086.0,27.0,-3.0,
2064.0,2091.0,27.0,-3.0,
2065.0,2116.0,27.0,-3.0,
2076.0,2090.0,27.0,-3.0,
2067.0,2083.0,27.0,-3.0,
2060.0,2091.0,27.0,-3.0,
2056.0,2090.0,27.0,-3.0,
2101.0,2086.0,27.0,-3.0,
2092.0,2087.0,0,
2100.0,2061.0,27.0,-3.0,
2085.0,2072.0,27.0,-3.0,
2083.0,2097.0,27.0,-3.0,
2058.0,2122.0,27.0,-3.0,
2081.0,2083.0,27.0,-3.0,
2100.0,2096.0,27.0,-3.0,
2116.0,2103.0,27.0,-3.0,
2107.0,2108.0,27.0,-3.0,
2100.0,2124.0,27.0,-3.0,
2073.0,2117.0,0,
2070.0,2107.0,27.0,-3.0,
2039.0,2034.0,27.0,-3.0,
2041.0,2073.0,27.0,-3.0,
2037.0,2068.0,27.0,-3.0,
2049.0,2092.0,27.0,-3.0,
2056.0,2102.0,27.0,-3.0,
2073.0,2069.0,27.0,-3.0,
2085.0,2119.0,27.0,-3.0,
2071.0,2127.0,27.0,-3.0,
2068.0,2087.0,27.0,-3.0,
2057.0,2117.0,27.0,-3.0,
2066.0,2083.0,27.0,-3.0,
2077.0,2067.0,27.0,-3.0,
2068.0,2093.0,27.0,-3.0,
2063.0,2098.0,27.0,-3.0,
2112.0,2084.0,27.0,-3.0,
2095.0,2061.0,27.0,-3.0,
2116.0,2091.0,27.0,-3.0,
2105.0,2103.0,27.0,-3.0,
2059.0,2110.0,27.0,-3.0,
2038.0,2096.0,27.0,-3.0,
2045.0,2094.0,27.0,-3.0,
2113.0,2114.0,27.0,-3.0,
2113.0,2116.0,27.0,-3.0,
2088.0,2075.0,27.0,-3.0,
2082.0,2072.0,27.0,-3.0,
2074.0,2100.0,27.0,-3.0,
2040.0,2081.0,27.0,-3.0,
2052.0,2114.0,27.0,-3.0,
2056.0,2101.0,27.0,-3.0,
2091.0,2094.0,27.0,-3.0,
2103.0,2086.0,27.0,-3.0,
2076.0,2113.0,27.0,-3.0,
2069.0,2118.0,27.0,-3.0,
2054.0,2080.0,27.0,-3.0,
2075.0,2094.0,27.0,-3.0,
2068.0,2119.0,27.0,-3.0,
2084.0,2064.0,27.0,-3.0,
2047.0,2076.0,27.0,-3.0,
2042.0,2073.0,27.0,-3.0,
2070.0,2081.0,27.0,-3.0,
2046.0,2125.0,27.0,-3.0,
2073.0,2111.0,27.0,-3.0,
2039.0,2116.0,27.0,-3.0,
2046.0,2104.0,27.0,-3.0,
2078.0,2063.0,27.0,-3.0,
2097.0,2062.0,27.0,-3.0,
2127.0,2086.0,27.0,-3.0,
2085.0,2101.0,27.0,-3.0,
2080.0,2100.0,27.0,-3.0,
2085.0,2121.0,27.0,-3.0,
2087.0,2097.0,27.0,-3.0,
2069.0,2079.0,27.0,-3.0,
2017.0,2053.0,27.0,-3.0,
2068.0,2082.0,27.0,-3.0,
2081.0,2096.0,27.0,-3.0,
2101.0,2076.0,27.0,-3.0,
2133.0,2084.0,27.0,-3.0,
2101.0,2090.0,27.0,-3.0,
2096.0,2085.0,27.0,-3.0,
2104.0,2097.0,27.0,-3.0,
2066.0,2092.0,27.0,-3.0,
2053.0,2114.0,27.0,-3.0,
2043.0,2117.0,27.0,-3.0,
2063.0,2142.0,27.0,-3.0,
2077.0,2100.0,27.0,-3.0,
2089.0,2021.0,27.0,-3.0,
2090.0,2059.0,27.0,-3.0,
2081.0,2095.0,27.0,-3.0,
2108.0,2100.0,27.0,-3.0,
2076.0,2096.0,27.0,-3.0,
2051.0,2047.0,27.0,-3.0,
2055.0,2079.0,27.0,-3.0,
2058.0,2119.0,27.0,-3.0,
2026.0,2099.0,27.0,-3.0,
2058.0,2115.0,27.0,-3.0,
2096.0,2103.0,27.0,-3.0,
2065.0,2099.0,27.0,-3.0,
2064.0,2135.0,27.0,-3.0,
2082.0,2121.0,27.0,-3.0,
2018.0,2086.0,27.0,-3.0,
2020.0,2106.0,27.0,-3.0,
2145.0,2093.0,27.0,-3.0,
2189.0,1997.0,27.0,-3.0,
2092.0,2021.0,27.0,-3.0,
2142.0,2125.0,27.0,-3.0,
2095.0,2089.0,27.0,-3.0,
2062.0,2037.0,27.0,-3.0,
2015.0,2100.0,27.0,-3.0,
2045.0,2116.0,27.0,-3.0,
2104.0,2106.0,27.0,-3.0,
2084.0,2049.0,27.0,-3.0,
2077.0,2062.0,27.0,-3.0,
2120.0,2110.0,27.0,-3.0,
2059.0,2118.0,26.0,-3.0,
2051.0,2102.0,26.0,-3.0,
2058.0,2106.0,26.0,-3.0,
2055.0,2099.0,26.0,-3.0,
2051.0,2100.0,26.0,-3.0,
2039.0,2107.0,26.0,-3.0,
2030.0,2119.0,26.0,-3.0,
2037.0,2111.0,26.0,-3.0,
2019.0,2096.0,26.0,-3.0,
2060.0,2081.0,26.0,-3.0,
2142.0,2079.0,26.0,-3.0,
2192.0,2111.0,26.0,-3.0,
2129.0,2096.0,27.0,-3.0,
2093.0,2095.0,27.0,-3.0,
2094.0,2105.0,27.0,-3.0,
2058.0,2105.0,27.0,-3.0,
2065.0,2074.0,27.0,-3.0,
2074.0,2070.0,27.0,-3.0,
2077.0,2075.0,27.0,-3.0,
2080.0,2095.0,27.0,-3.0,
2054.0,2104.0,27.0,-3.0,
2038.0,2079.0,27.0,-3.0,
2033.0,2094.0,27.0,-3.0,
2015.0,2121.0,28.0,-3.0,
2039.0,2101.0,28.0,-3.0,
2085.0,2073.0,28.0,-3.0,
2091.0,2075.0,28.0,-3.0,
2096.0,2118.0,28.0,-3.0,
2064.0,2110.0,28.0,-3.0,
2060.0,2058.0,28.0,-3.0,
2080.0,2083.0,28.0,-3.0,
2030.0,2086.0,28.0,-3.0,
2050.0,2067.0,28.0,-3.0,
2045.0,2091.0,28.0,-3.0,
2071.0,2100.0,28.0,-3.0,
2063.0,2125.0,28.0,-3.0,
2066.0,2087.0,28.0,-3.0,
2156.0,2090.0,29.0,-3.0,
2145.0,2165.0,29.0,-3.0,
2040.0,2025.0,29.0,-3.0,
2060.0,2038.0,29.0,-3.0,
2089.0,2029.0,29.0,-3.0,
2138.0,2109.0,29.0,-3.0,
2092.0,2089.0,29.0,-3.0,
2093.0,2079.0,29.0,-3.0,
2080.0,2096.0,29.0,-3.0,
2081.0,2150.0,29.0,-3.0,
2109.0,2175.0,29.0,-3.0,
2071.0,2043.0,28.0,-3.0,
2059.0,1993.0,28.0,-3.0,
2086.0,2099.0,28.0,-3.0,
2079.0,2101.0,28.0,-3.0,
2050.0,2057.0,28.0,-3.0,
2066.0,2092.0,28.0,-3.0,
2043.0,2132.0,28.0,-3.0,
2025.0,2161.0,28.0,-3.0,
2061.0,2127.0,27.0,-3.0,
2073.0,2048.0,27.0,-3.0,
2048.0,2064.0,27.0,-3.0,
2099.0,2085.0,27.0,-3.0,
2111.0,2129.0,27.0,-3.0,
2098.0,2086.0,27.0,-3.0,
2085.0,2080.0,27.0,-3.0,
2053.0,2041.0,26.0,-3.0,
2068.0,2141.0,26.0,-3.0,
2052.0,2116.0,26.0,-3.0,
2058.0,2063.0,26.0,-3.0,
2063.0,2097.0,26.0,-3.0,
2094.0,2110.0,26.0,-3.0,
2097.0,2131.0,26.0,-3.0,
2078.0,2097.0,27.0,-3.0,
2081.0,2107.0,27.0,-3.0,
2048.0,2096.0,27.0,-3.0,
2037.0,2100.0,27.0,-3.0,
2025.0,2109.0,27.0,-3.0,
2038.0,2097.0,27.0,-3.0,
2064.0,2123.0,28.0,-3.0,
2160.0,2104.0,28.0,-3.0,
2177.0,2076.0,28.0,-3.0,
2119.0,2122.0,28.0,-3.0,
2111.0,2141.0,28.0,-3.0,
2063.0,2068.0,28.0,-3.0,
2052.0,2054.0,29.0,-3.0,
2069.0,2064.0,29.0,-3.0,
2048.0,2072.0,29.0,-3.0,
2081.0,2080.0,29.0,-3.0,
2108.0,2037.0,29.0,-3.0,
2074.0,2093.0,30.0,-3.0,
2081.0,2119.0,30.0,-3.0,
2070.0,2136.0,30.0,-3.0,
2047.0,2051.0,30.0,-3.0,
2061.0,2099.0,30.0,-3.0,
2053.0,2077.0,30.0,-3.0,
2051.0,2075.0,31.0,-3.0,
2093.0,2098.0,31.0,-3.0,
2126.0,2134.0,31.0,-3.0,
2076.0,2117.0,31.0,-3.0,
2085.0,2072.0,31.0,-3.0,
2060.0,2090.0,31.0,-3.0,
2071.0,2079.0,31.0,-3.0,
2116.0,2108.0,31.0,-3.0,
2120.0,2116.0,31.0,-3.0,
2067.0,2101.0,31.0,-3.0,
2080.0,2057.0,31.0,-3.0,
2105.0,2065.0,31.0,-3.0,
2036.0,2080.0,32.0,-3.0,
2039.0,2118.0,32.0,-3.0,
2034.0,2115.0,32.0,-3.0,
2054.0,2166.0,32.0,-2.0,
2049.0,2069.0,32.0,-2.0,
2060.0,2029.0,32.0,-2.0,
2046.0,2057.0,33.0,-2.0,
2071.0,2101.0,33.0,-2.0,
2201.0,2184.0,33.0,-3.0,
2153.0,2156.0,33.0,-3.0,
2084.0,2055.0,33.0,-3.0,
2036.0,2035.0,33.0,-3.0,
1997.0,2031.0,33.0,-3.0,
2104.0,2100.0,33.0,-3.0,
2106.0,2099.0,33.0,-3.0,
2108.0,2148.0,33.0,-3.0,
2106.0,2091.0,33.0,-3.0,
2108.0,2109.0,33.0,-3.0,
2078.0,2086.0,33.0,-3.0,
2037.0,2106.0,33.0,-3.0,
2040.0,2108.0,33.0,-3.0,
2058.0,2089.0,33.0,-3.0,
2040.0,2055.0,33.0,-3.0,
2055.0,2091.0,33.0,-3.0,
2071.0,2106.0,33.0,-3.0,
2079.0,2129.0,33.0,-3.0,
2126.0,2148.0,33.0,-3.0,
2068.0,2047.0,33.0,-3.0,
2021.0,2101.0,33.0,-3.0,
2045.0,2136.0,33.0,-3.0,
2063.0,2046.0,33.0,-3.0,
2029.0,2064.0,33.0,-3.0,
2119.0,2083.0,33.0,-3.0,
2095.0,2104.0,33.0,-3.0,
2060.0,2023.0,32.0,-3.0,
2089.0,2110.0,32.0,-3.0,
2115.0,2096.0,32.0,-3.0,
2049.0,2076.0,32.0,-3.0,
2061.0,2094.0,32.0,-3.0,
2073.0,2092.0,32.0,-2.0,
2104.0,2120.0,32.0,-2.0,
2123.0,2140.0,32.0,-2.0,
2137.0,2134.0,32.0,-2.0,
2097.0,2149.0,32.0,-2.0,
2088.0,2102.0,32.0,-2.0,
2106.0,2024.0,32.0,-2.0,
2059.0,1991.0,32.0,-2.0,
2057.0,2063.0,32.0,-2.0,
2044.0,2041.0,32.0,-2.0,
2078.0,2125.0,33.0,-2.0,
2102.0,2110.0,33.0,-2.0,
2071.0,2077.0,33.0,-2.0,
2085.0,2096.0,0,
2083.0,2098.0,33.0,-2.0,
2051.0,2092.0,33.0,-2.0,
2027.0,2140.0,33.0,-2.0,
2040.0,2074.0,33.0,-2.0,
2084.0,2104.0,33.0,-2.0,
2078.0,2058.0,33.0,-3.0,
2107.0,2085.0,33.0,-3.0,
2080.0,2153.0,33.0,-3.0,
2083.0,2144.0,33.0,-3.0,
2069.0,2100.0,33.0,-3.0,
2077.0,2099.0,33.0,-3.0,
2057.0,2153.0,33.0,-3.0,
2054.0,2100.0,33.0,-3.0,
2079.0,2129.0,33.0,-3.0,
2105.0,2138.0,34.0,-3.0,
2073.0,2030.0,34.0,-3.0,
2072.0,2046.0,34.0,-3.0,
2064.0,2115.0,34.0,-3.0,
2054.0,2119.0,34.0,-3.0,
2050.0,2080.0,35.0,-3.0,
2094.0,2086.0,35.0,-3.0,
2058.0,2088.0,35.0,-3.0,
2038.0,2034.0,35.0,-3.0,
2145.0,2106.0,35.0,-3.0,
2138.0,2113.0,35.0,-3.0,
2084.0,2067.0,35.0,-3.0,
2045.0,2029.0,35.0,-3.0,
2064.0,2113.0,35.0,-3.0,
2012.0,2062.0,36.0,-3.0,
2050.0,2078.0,36.0,-3.0,
2080.0,2121.0,36.0,-3.0,
2136.0,2109.0,36.0,-3.0,
2112.0,2069.0,36.0,-3.0,
2081.0,2073.0,36.0,-3.0,
2080.0,2069.0,36.0,-3.0,
2109.0,2098.0,36.0,-3.0,
2091.0,2114.0,36.0,-3.0,
2114.0,2227.0,36.0,-3.0,
2081.0,2284.0,36.0,-3.0,
1993.0,1987.0,36.0,-3.0,
2083.0,2007.0,37.0,-2.0,
1990.0,2013.0,37.0,-2.0,
2071.0,2073.0,37.0,-2.0,
2074.0,2131.0,37.0,-2.0,
2064.0,2096.0,37.0,-2.0,
2114.0,2074.0,37.0,-2.0,
2050.0,2060.0,37.0,-2.0,
2031.0,2101.0,37.0,-2.0,
2097.0,2095.0,37.0,-2.0,
2100.0,2132.0,37.0,-2.0,
2069.0,2095.0,37.0,-2.0,
2094.0,2136.0,37.0,-3.0,
2054.0,2104.0,37.0,-3.0,
2057.0,2064.0,37.0,-3.0,
2040.0,2031.0,37.0,-3.0,
2040.0,2055.0,38.0,-3.0,
2062.0,2105.0,38.0,-2.0,
2114.0,2096.0,39.0,-2.0,
2130.0,2102.0,39.0,-2.0,
2117.0,2136.0,39.0,-2.0,
2096.0,2102.0,40.0,-2.0,
2093.0,2142.0,40.0,-2.0,
2034.0,2108.0,40.0,-2.0,
2048.0,2092.0,41.0,-2.0,
2040.0,2108.0,41.0,-2.0,
2045.0,2097.0,41.0,-3.0,
2087.0,2074.0,41.0,-3.0,
2065.0,2069.0,41.0,-3.0,
2120.0,2104.0,41.0,-3.0,
2140.0,2072.0,42.0,-3.0,
2101.0,2104.0,42.0,-3.0,
2074.0,2124.0,42.0,-3.0,
2056.0,2118.0,42.0,-3.0,
2096.0,2016.0,43.0,-3.0,
2104.0,2139.0,43.0,-3.0,
2066.0,2075.0,43.0,-3.0,
2111.0,2106.0,43.0,-3.0,
2114.0,2103.0,43.0,-3.0,
2069.0,2136.0,44.0,-3.0,
2073.0,2133.0,44.0,-3.0,
2082.0,2117.0,44.0,-3.0,
2012.0,1944.0,44.0,-3.0,
2120.0,2115.0,44.0,-3.0,
2054.0,2119.0,44.0,-3.0,
2006.0,1941.0,44.0,-3.0,
2112.0,2145.0,44.0,-3.0,
2054.0,2004.0,44.0,-3.0,
2073.0,2043.0,44.0,-3.0,
2035.0,2132.0,44.0,-3.0,
1996.0,2078.0,44.0,-3.0,
2026.0,2083.0,44.0,-3.0,
2101.0,2199.0,44.0,-3.0,
2092.0,2147.0,44.0,-3.0,
2145.0,1992.0,44.0,-2.0,
2140.0,2100.0,44.0,-2.0,
2092.0,2050.0,44.0,-2.0,
2077.0,2099.0,44.0,-2.0,
2060.0,2119.0,44.0,-2.0,
2069.0,2087.0,44.0,-2.0,
2074.0,2094.0,44.0,-2.0,
2103.0,2112.0,44.0,-2.0,
2082.0,2140.0,44.0,-2.0,
2117.0,2081.0,45.0,-2.0,
2068.0,2130.0,45.0,-2.0,
2059.0,2120.0,45.0,-2.0,
2116.0,2123.0,45.0,-2.0,
2084.0,2099.0,46.0,-3.0,
2099.0,2081.0,46.0,-3.0,
2075.0,2077.0,46.0,-3.0,
2095.0,2119.0,46.0,-3.0,
2059.0,2200.0,47.0,-3.0,
2047.0,2151.0,47.0,-3.0,
2050.0,2073.0,47.0,-3.0,
2018.0,2050.0,47.0,-3.0,
2089.0,2184.0,47.0,-3.0,
2111.0,2088.0,48.0,-3.0,
2056.0,2026.0,48.0,-3.0,
2105.0,2012.0,48.0,-3.0,
1984.0,1989.0,48.0,-3.0,
2060.0,1989.0,48.0,-3.0,
2080.0,2026.0,48.0,-3.0,
2062.0,2152.0,48.0,-3.0,
2099.0,2188.0,48.0,-3.0,
2128.0,2123.0,48.0,-3.0,
2113.0,2145.0,48.0,-3.0,
2011.0,1983.0,48.0,-3.0,
2053.0,2094.0,48.0,-3.0,
2130.0,2239.0,48.0,-3.0,
2078.0,2018.0,48.0,-3.0,
2077.0,2032.0,48.0,-3.0,
2055.0,2026.0,48.0,-3.0,
2064.0,2178.0,48.0,-3.0,
2068.0,2253.0,48.0,-3.0,
2047.0,2014.0,48.0,-3.0,
2009.0,1972.0,48.0,-3.0,
2085.0,2194.0,48.0,-3.0,
2081.0,2061.0,48.0,-3.0,
2073.0,2058.0,48.0,-3.0,
2137.0,2120.0,48.0,-3.0,
2075.0,2125.0,48.0,-3.0,
2061.0,2049.0,48.0,-3.0,
2066.0,2082.0,48.0,-3.0,
2100.0,2132.0,49.0,-3.0,
2083.0,2132.0,49.0,-3.0,
2102.0,2153.0,49.0,-3.0,
2057.0,2083.0,49.0,-3.0,
2160.0,2131.0,50.0,-3.0,
2078.0,2064.0,50.0,-3.0,
2080.0,2055.0,50.0,-3.0,
2096.0,2109.0,50.0,-3.0,
2106.0,2091.0,51.0,-3.0,
2083.0,2112.0,51.0,-3.0,
2126.0,2242.0,52.0,-3.0,
2056.0,2021.0,52.0,-3.0,
2035.0,2011.0,52.0,-3.0,
2087.0,2075.0,52.0,-3.0,
2063.0,2089.0,53.0,-4.0,
2054.0,2101.0,53.0,-4.0,
2054.0,2135.0,53.0,-4.0,
2065.0,2176.0,53.0,-4.0,
2034.0,2067.0,53.0,-4.0,
2035.0,2080.0,53.0,-4.0,
2059.0,2051.0,53.0,-4.0,
2066.0,2148.0,54.0,-4.0,
2031.0,2148.0,54.0,-3.0,
2098.0,1954.0,54.0,-3.0,
2088.0,1994.0,54.0,-3.0,
2042.0,2041.0,54.0,-3.0,
2082.0,2085.0,54.0,-3.0,
2097.0,2199.0,54.0,-3.0,
2085.0,2099.0,54.0,-3.0,
2054.0,2124.0,54.0,-3.0,
2106.0,2048.0,54.0,-3.0,
2099.0,2048.0,54.0,-3.0,
2114.0,2115.0,54.0,-3.0,
2042.0,2088.0,54.0,-3.0,
2065.0,2232.0,54.0,-3.0,
2062.0,2183.0,55.0,-3.0,
2060.0,2047.0,55.0,-3.0,
2100.0,2106.0,55.0,-3.0,
2064.0,1992.0,55.0,-3.0,
2112.0,2086.0,55.0,-3.0,
2124.0,2054.0,55.0,-3.0,
2029.0,2043.0,56.0,-3.0,
2174.0,2142.0,56.0,-3.0,
2043.0,2051.0,56.0,-3.0,
2033.0,2118.0,56.0,-3.0,
2076.0,2159.0,56.0,-4.0,
2152.0,2168.0,57.0,-4.0,
2091.0,2023.0,57.0,-4.0,
2131.0,2060.0,57.0,-4.0,
2135.0,2186.0,57.0,-4.0,
2098.0,2089.0,57.0,-4.0,
2059.0,2072.0,57.0,-4.0,
2068.0,2057.0,57.0,-4.0,
2106.0,2194.0,58.0,-4.0,
2073.0,2061.0,58.0,-4.0,
2038.0,2124.0,58.0,-4.0,
2083.0,1968.0,58.0,-4.0,
2083.0,2069.0,58.0,-4.0,
2136.0,2098.0,58.0,-4.0,
2077.0,2150.0,58.0,-4.0,
2067.0,2156.0,59.0,-4.0,
2029.0,2046.0,59.0,-4.0,
2008.0,2154.0,59.0,-4.0,
2107.0,2236.0,59.0,-4.0,
1992.0,2015.0,59.0,-4.0,
2072.0,2044.0,59.0,-4.0,
2131.0,2072.0,59.0,-4.0,
2126.0,2170.0,59.0,-4.0,
2027.0,2108.0,59.0,-4.0,
2017.0,2018.0,60.0,-4.0,
2037.0,2042.0,60.0,-4.0,
2095.0,2048.0,60.0,-4.0,
2096.0,2036.0,60.0,-4.0,
2106.0,2130.0,60.0,-4.0,
2082.0,2149.0,60.0,-4.0,
2070.0,2144.0,60.0,-4.0,
2099.0,2152.0,60.0,-4.0,
2062.0,2274.0,61.0,-4.0,
2023.0,1947.0,61.0,-4.0,
2145.0,2048.0,61.0,-4.0,
2070.0,2093.0,61.0,-4.0,
2082.0,2051.0,61.0,-4.0,
2060.0,2098.0,61.0,-4.0,
2091.0,2145.0,61.0,-4.0,
2103.0,2076.0,0,
2078.0,2178.0,61.0,-4.0,
2033.0,2064.0,62.0,-4.0,
2074.0,2026.0,62.0,-4.0,
2095.0,2086.0,62.0,-4.0,
2127.0,2069.0,62.0,-4.0,
2080.0,2070.0,62.0,-4.0,
2078.0,2112.0,62.0,-4.0,
2128.0,2178.0,62.0,-4.0,
2003.0,1981.0,63.0,-4.0,
2104.0,2114.0,63.0,-4.0,
2012.0,2078.0,63.0,-4.0,
2078.0,2071.0,63.0,-4.0,
2112.0,2087.0,63.0,-4.0,
2007.0,2091.0,63.0,-4.0,
2147.0,2115.0,63.0,-4.0,
2109.0,2053.0,63.0,-4.0,
2043.0,2118.0,63.0,-4.0,
2079.0,2099.0,63.0,-4.0,
2078.0,2148.0,63.0,-4.0,
2078.0,2136.0,63.0,-4.0,
2051.0,2050.0,64.0,-4.0,
2086.0,2040.0,64.0,-4.0,
2074.0,2165.0,64.0,-4.0,
2120.0,2146.0,64.0,-4.0,
2099.0,2182.0,64.0,-4.0,
2093.0,2062.0,64.0,-4.0,
2057.0,2112.0,64.0,-4.0,
2036.0,1968.0,64.0,-4.0,
2107.0,2151.0,64.0,-4.0,
2077.0,2120.0,64.0,-4.0,
2009.0,2041.0,65.0,-4.0,
2067.0,2080.0,65.0,-4.0,
2070.0,2106.0,65.0,-4.0,
2045.0,2121.0,65.0,-4.0,
2150.0,2049.0,65.0,-4.0,
2064.0,2034.0,65.0,-4.0,
2084.0,2072.0,65.0,-4.0,
2059.0,2058.0,65.0,-4.0,
2082.0,2141.0,66.0,-4.0,
2081.0,2100.0,66.0,-4.0,
2054.0,2131.0,66.0,-4.0,
2074.0,2160.0,66.0,-4.0,
2190.0,2146.0,66.0,-4.0,
2103.0,2060.0,66.0,-4.0,
1983.0,2072.0,66.0,-4.0,
2085.0,2136.0,66.0,-4.0,
2022.0,2025.0,66.0,-4.0,
2020.0,2097.0,66.0,-4.0,
2098.0,2092.0,66.0,-4.0,
2037.0,2083.0,67.0,-4.0,
2086.0,2160.0,67.0,-4.0,
2082.0,1971.0,67.0,-4.0,
2083.0,2120.0,67.0,-4.0,
2091.0,2100.0,67.0,-4.0,
2094.0,2132.0,67.0,-4.0,
2126.0,2040.0,67.0,-4.0,
2092.0,2141.0,67.0,-4.0,
2131.0,2198.0,67.0,-4.0,
2092.0,2175.0,67.0,-4.0,
2013.0,1965.0,68.0,-4.0,
2061.0,2016.0,68.0,-4.0,
2090.0,2058.0,68.0,-4.0,
2066.0,2172.0,68.0,-4.0,
2063.0,2184.0,68.0,-4.0,
2019.0,2116.0,68.0,-4.0,
1988.0,2089.0,0,
2185.0,2150.0,68.0,-4.0,
2148.0,2112.0,68.0,-4.0,
2065.0,2004.0,68.0,-4.0,
2060.0,2025.0,68.0,-4.0,
2075.0,2173.0,68.0,-4.0,
2068.0,2024.0,68.0,-4.0,
2078.0,2182.0,68.0,-4.0,
2092.0,2187.0,68.0,-4.0,
2019.0,1930.0,69.0,-4.0,
2066.0,1924.0,69.0,-5.0,
2110.0,2102.0,69.0,-5.0,
2100.0,2075.0,69.0,-5.0,
2105.0,2110.0,69.0,-5.0,
2079.0,2098.0,69.0,-5.0,
1990.0,2183.0,69.0,-5.0,
2130.0,2126.0,69.0,-5.0,
2063.0,2140.0,70.0,-5.0,
2106.0,2124.0,70.0,-5.0,
2080.0,2234.0,69.0,-5.0,
2101.0,2117.0,70.0,-5.0,
2043.0,1980.0,70.0,-5.0,
1993.0,1966.0,70.0,-5.0,
2125.0,2147.0,70.0,-5.0,
2127.0,1973.0,70.0,-5.0,
2024.0,2147.0,70.0,-5.0,
2043.0,2054.0,70.0,-5.0,
2116.0,2135.0,70.0,-5.0,
2063.0,2126.0,70.0,-5.0,
2029.0,2062.0,71.0,-5.0,
2092.0,2087.0,71.0,-5.0,
2110.0,2103.0,71.0,-5.0,
2047.0,2080.0,71.0,-5.0,
2031.0,2189.0,71.0,-5.0,
2127.0,2306.0,71.0,-5.0,
2036.0,2023.0,71.0,-5.0,
2056.0,1976.0,72.0,-5.0,
2145.0,1993.0,72.0,-5.0,
2129.0,2078.0,72.0,-5.0,
2024.0,2137.0,72.0,-5.0,
2033.0,1976.0,72.0,-5.0,
2161.0,2137.0,72.0,-5.0,
2080.0,2154.0,72.0,-5.0,
2209.0,2189.0,72.0,-5.0,
2071.0,2031.0,73.0,-5.0,
2031.0,1976.0,73.0,-5.0,
2039.0,2034.0,73.0,-5.0,
2116.0,2113.0,73.0,-5.0,
2074.0,2068.0,73.0,-5.0,
2062.0,2022.0,73.0,-5.0,
2051.0,2094.0,73.0,-5.0,
2038.0,2123.0,73.0,-5.0,
2050.0,2072.0,73.0,-5.0,
2082.0,2224.0,73.0,-5.0,
2113.0,2045.0,73.0,-5.0,
2125.0,2087.0,73.0,-5.0,
2074.0,2150.0,73.0,-5.0,
2087.0,2017.0,73.0,-5.0,
2150.0,2167.0,73.0,-5.0,
2067.0,2212.0,73.0,-5.0,
2037.0,2104.0,73.0,-5.0,
2074.0,2081.0,73.0,-5.0,
2112.0,2005.0,74.0,-5.0,
2024.0,2137.0,74.0,-5.0,
2077.0,2031.0,74.0,-5.0,
2059.0,1967.0,74.0,-5.0,
2047.0,2076.0,74.0,-5.0,
2087.0,2163.0,74.0,-5.0,
2044.0,2084.0,74.0,-5.0,
2061.0,1987.0,74.0,-5.0,
2049.0,2152.0,74.0,-5.0,
2096.0,2097.0,74.0,-5.0,
2141.0,2146.0,74.0,-5.0,
2007.0,2125.0,74.0,-5.0,
2027.0,1991.0,75.0,-5.0,
2071.0,2060.0,75.0,-5.0,
2115.0,2118.0,75.0,-5.0,
2100.0,2202.0,75.0,-5.0,
2071.0,2058.0,75.0,-5.0,
2138.0,2100.0,75.0,-5.0,
2080.0,2146.0,75.0,-5.0,
2068.0,2007.0,75.0,-5.0,
2021.0,2087.0,76.0,-5.0,
2060.0,2137.0,76.0,-5.0,
1997.0,2100.0,76.0,-6.0,
2131.0,1991.0,76.0,-6.0,
2029.0,2047.0,76.0,-6.0,
2093.0,2179.0,76.0,-6.0,
2167.0,2037.0,76.0,-6.0,
2111.0,2132.0,76.0,-6.0,
2151.0,2198.0,76.0,-6.0,
2064.0,2208.0,77.0,-6.0,
2096.0,2137.0,77.0,-6.0,
2092.0,1864.0,77.0,-6.0,
2086.0,2050.0,77.0,-6.0,
2139.0,2038.0,77.0,-6.0,
2044.0,2100.0,77.0,-6.0,
2102.0,2139.0,77.0,-6.0,
2136.0,2393.0,77.0,-6.0,
1978.0,1855.0,77.0,-6.0,
2062.0,1884.0,77.0,-6.0,
2023.0,1938.0,78.0,-6.0,
2057.0,2077.0,78.0,-6.0,
2107.0,2076.0,78.0,-6.0,
2100.0,2155.0,78.0,-6.0,
2190.0,2371.0,78.0,-6.0,
2036.0,2104.0,78.0,-6.0,
1981.0,2014.0,78.0,-5.0,
2199.0,2150.0,78.0,-5.0,
2077.0,2405.0,78.0,-5.0,
2152.0,2038.0,78.0,-5.0,
1903.0,1758.0,78.0,-5.0,
2046.0,1963.0,78.0,-5.0,
2106.0,2055.0,78.0,-5.0,
2136.0,2226.0,78.0,-5.0,
2086.0,2215.0,78.0,-5.0,
2071.0,1972.0,78.0,-5.0,
2104.0,2282.0,79.0,-5.0,
1964.0,2080.0,79.0,-5.0,
2076.0,2107.0,79.0,-6.0,
2195.0,2103.0,79.0,-6.0,
2138.0,2349.0,79.0,-6.0,
2015.0,1905.0,79.0,-6.0,
2121.0,1957.0,79.0,-6.0,
2063.0,1996.0,79.0,-5.0,
2043.0,2216.0,79.0,-5.0,
2065.0,2037.0,80.0,-6.0,
2004.0,2084.0,80.0,-6.0,
2060.0,2043.0,80.0,-6.0,
2074.0,2244.0,80.0,-6.0,
2127.0,2243.0,80.0,-6.0,
2130.0,1960.0,80.0,-6.0,
2084.0,1913.0,80.0,-6.0,
2096.0,2113.0,80.0,-6.0,
2090.0,2176.0,80.0,-6.0,
2109.0,2302.0,81.0,-6.0,
2106.0,2196.0,81.0,-7.0,
1969.0,2117.0,81.0,-6.0,
1940.0,2101.0,81.0,-6.0,
2208.0,1748.0,81.0,-6.0,
2093.0,2090.0,81.0,-6.0,
2045.0,2170.0,81.0,-6.0,
2189.0,2065.0,81.0,-6.0,
2149.0,2184.0,81.0,-6.0,
1918.0,2085.0,82.0,-6.0,
2151.0,2000.0,82.0,-6.0,
2078.0,2051.0,82.0,-6.0,
2026.0,2274.0,82.0,-6.0,
2034.0,2149.0,82.0,-6.0,
2100.0,1865.0,82.0,-6.0,
2156.0,2093.0,82.0,-6.0,
2132.0,2082.0,82.0,-6.0,
2084.0,2116.0,82.0,-6.0,
2102.0,2000.0,82.0,-6.0,
2051.0,2147.0,83.0,-6.0,
2066.0,2339.0,83.0,-6.0,
1991.0,2114.0,83.0,-6.0,
2030.0,2146.0,83.0,-6.0,
2068.0,1707.0,83.0,-6.0,
2110.0,2041.0,83.0,-7.0,
2083.0,2188.0,83.0,-7.0,
2087.0,2196.0,83.0,-7.0,
2088.0,2047.0,83.0,-6.0,
2049.0,2290.0,83.0,-6.0,
2014.0,1963.0,83.0,-6.0,
2145.0,1980.0,83.0,-6.0,
2025.0,2368.0,83.0,-7.0,
2025.0,1933.0,83.0,-7.0,
2134.0,2166.0,83.0,-6.0,
2167.0,2273.0,83.0,-6.0,
2127.0,2257.0,83.0,-6.0,
2179.0,1862.0,83.0,-6.0,
1973.0,1848.0,83.0,-6.0,
1916.0,2030.0,83.0,-6.0,
2097.0,1992.0,83.0,-6.0,
2114.0,1994.0,83.0,-6.0,
1946.0,2142.0,83.0,-6.0,
2200.0,2127.0,83.0,-6.0,
2193.0,2306.0,83.0,-6.0,
2142.0,2141.0,83.0,-6.0,
1875.0,2225.0,83.0,-6.0,
1604.0,2159.0,83.0,-6.0,
2211.0,2082.0,83.0,-6.0,
2305.0,1741.0,83.0,-6.0,
2393.0,2288.0,83.0,-6.0,
2113.0,2061.0,83.0,-6.0,
2083.0,2139.0,83.0,-6.0,
1935.0,2150.0,83.0,-6.0,
2013.0,1722.0,83.0,-6.0,
1963.0,2044.0,83.0,-6.0,
2195.0,2037.0,83.0,-6.0,
2220.0,2294.0,83.0,-7.0,
1908.0,2141.0,83.0,-7.0,
2119.0,1976.0,83.0,-7.0,
2153.0,2311.0,84.0,-7.0,
2046.0,2020.0,84.0,-7.0,
2050.0,2137.0,84.0,-7.0,
1825.0,2415.0,84.0,-7.0,
1918.0,2169.0,84.0,-7.0,
2080.0,1674.0,84.0,-7.0,
2254.0,1959.0,84.0,-7.0,
2201.0,2226.0,84.0,-7.0,
2135.0,2129.0,85.0,-7.0,
2134.0,1974.0,85.0,-7.0,
2080.0,2072.0,85.0,-7.0,
2132.0,2152.0,85.0,-7.0,
2044.0,2288.0,85.0,-7.0,
2061.0,2186.0,85.0,-7.0,
1913.0,2107.0,85.0,-7.0,
2130.0,1939.0,85.0,-7.0,
2189.0,2238.0,85.0,-7.0,
2051.0,2035.0,85.0,-7.0,
1970.0,2009.0,85.0,-7.0,
2063.0,2254.0,85.0,-7.0,
2171.0,1880.0,85.0,-7.0,
2059.0,1940.0,85.0,-7.0,
1935.0,2204.0,85.0,-7.0,
2095.0,2203.0,85.0,-7.0,
2133.0,2162.0,86.0,-7.0,
2119.0,2290.0,86.0,-7.0,
1982.0,2098.0,86.0,-7.0,
2163.0,2120.0,86.0,-7.0,
2097.0,1885.0,86.0,-7.0,
1996.0,2093.0,86.0,-7.0,
2078.0,1780.0,86.0,-7.0,
2124.0,1972.0,86.0,-7.0,
2089.0,2073.0,86.0,-7.0,
2112.0,2128.0,86.0,-7.0,
2049.0,2181.0,86.0,-7.0,
2048.0,2224.0,86.0,-7.0,
2163.0,2185.0,86.0,-7.0,
1990.0,2019.0,86.0,-7.0,
1967.0,2237.0,86.0,-7.0,
2182.0,2052.0,86.0,-7.0,
2012.0,2124.0,86.0,-7.0,
2006.0,2099.0,86.0,-7.0,
2176.0,1961.0,86.0,-7.0,
2119.0,2072.0,86.0,-7.0,
2109.0,2156.0,86.0,-7.0,
1897.0,2062.0,86.0,-7.0,
2049.0,2096.0,86.0,-7.0,
2101.0,1933.0,86.0,-7.0,
2154.0,2014.0,86.0,-7.0,
2103.0,2107.0,86.0,-7.0,
2016.0,2366.0,86.0,-7.0,
1943.0,2006.0,86.0,-7.0,
2174.0,2308.0,86.0,-7.0,
1891.0,1821.0,86.0,-7.0,
2099.0,1967.0,86.0,-7.0,
2142.0,2129.0,86.0,-7.0,
1968.0,2177.0,86.0,-7.0,
2313.0,2326.0,86.0,-7.0,
2133.0,2026.0,86.0,-7.0,
2035.0,1863.0,86.0,-7.0,
1952.0,2026.0,86.0,-7.0,
2135.0,1971.0,86.0,-7.0,
2150.0,2061.0,86.0,-7.0,
2094.0,2160.0,86.0,-7.0,
2147.0,2295.0,86.0,-7.0,
2005.0,1958.0,86.0,-7.0,
2000.0,2299.0,86.0,-7.0,
2123.0,2060.0,86.0,-7.0,
2096.0,2135.0,86.0,-7.0,
1774.0,2335.0,86.0,-7.0,
2034.0,1820.0,86.0,-7.0,
2279.0,1796.0,86.0,-7.0,
2151.0,2008.0,86.0,-7.0,
2139.0,2073.0,86.0,-7.0,
2063.0,2178.0,86.0,-7.0,
2090.0,2504.0,86.0,-7.0,
1910.0,2272.0,86.0,-7.0,
2140.0,1796.0,86.0,-7.0,
2124.0,1943.0,86.0,-7.0,
1958.0,2069.0,86.0,-7.0,
2115.0,1877.0,86.0,-7.0,
2117.0,2052.0,85.0,-7.0,
2026.0,2244.0,85.0,-7.0,
2125.0,2074.0,85.0,-7.0,
2167.0,2480.0,85.0,-7.0,
1927.0,1982.0,85.0,-7.0,
1806.0,2088.0,85.0,-7.0,
2230.0,1719.0,85.0,-7.0,
2220.0,2012.0,85.0,-7.0,
2160.0,2133.0,85.0,-7.0,
2105.0,2131.0,85.0,-7.0,
2063.0,2121.0,85.0,-7.0,
2079.0,2143.0,85.0,-7.0,
2049.0,2151.0,85.0,-7.0,
2035.0,2126.0,85.0,-7.0,
2074.0,2134.0,85.0,-7.0,
2088.0,2178.0,85.0,-7.0,
2060.0,2239.0,85.0,-7.0,
2093.0,2157.0,85.0,-7.0,
1975.0,1964.0,85.0,-7.0,
2019.0,2169.0,86.0,-7.0,
1896.0,2044.0,86.0,-7.0,
2173.0,2296.0,86.0,-7.0,
2062.0,2141.0,86.0,-8.0,
2062.0,1821.0,86.0,-8.0,
2084.0,2006.0,86.0,-8.0,
2047.0,1983.0,86.0,-8.0,
2221.0,2059.0,86.0,-8.0,
2192.0,2030.0,86.0,-8.0,
2118.0,2065.0,86.0,-8.0,
2082.0,2108.0,86.0,-8.0,
2062.0,2132.0,86.0,-8.0,
2118.0,2061.0,87.0,-8.0,
2089.0,2180.0,87.0,-8.0,
2066.0,2250.0,87.0,-8.0,
2133.0,2062.0,87.0,-7.0,
2044.0,2208.0,87.0,-7.0,
1964.0,2089.0,87.0,-7.0,
2209.0,2199.0,87.0,-7.0,
1942.0,1996.0,87.0,-7.0,
2054.0,1960.0,87.0,-7.0,
2134.0,2011.0,87.0,-7.0,
2110.0,2005.0,87.0,-7.0,
2055.0,2060.0,87.0,-7.0,
2127.0,2125.0,87.0,-7.0,
2111.0,2150.0,87.0,-7.0,
2057.0,2129.0,87.0,-7.0,
2067.0,2175.0,86.0,-7.0,
2105.0,2203.0,86.0,-7.0,
2017.0,2056.0,86.0,-7.0,
2050.0,2070.0,86.0,-7.0,
2082.0,2192.0,86.0,-7.0,
2157.0,2078.0,86.0,-7.0,
2105.0,2069.0,86.0,-7.0,
2049.0,2088.0,86.0,-7.0,
2037.0,1999.0,86.0,-7.0,
2106.0,2116.0,86.0,-7.0,
2072.0,2046.0,86.0,-7.0,
2068.0,2110.0,86.0,-7.0,
2104.0,2131.0,86.0,-7.0,
2076.0,2124.0,86.0,-7.0,
2104.0,2092.0,85.0,-7.0,
2115.0,2149.0,85.0,-7.0,
2063.0,2079.0,85.0,-7.0,
2074.0,2245.0,85.0,-7.0,
2020.0,2010.0,85.0,-7.0,
2038.0,2041.0,85.0,-7.0,
2131.0,2036.0,85.0,-7.0,
2063.0,2161.0,85.0,-7.0,
2014.0,2050.0,85.0,-8.0,
2114.0,2120.0,85.0,-8.0,
2083.0,2050.0,85.0,-8.0,
2079.0,2091.0,85.0,-8.0,
2069.0,2142.0,85.0,-8.0,
2090.0,2010.0,85.0,-7.0,
2166.0,2088.0,85.0,-7.0,
2030.0,2095.0,85.0,-7.0,
2112.0,2128.0,85.0,-7.0,
2104.0,2111.0,85.0,-7.0,
2087.0,2101.0,85.0,-7.0,
2051.0,2056.0,85.0,-7.0,
2057.0,2033.0,85.0,-7.0,
2097.0,2046.0,85.0,-7.0,
2064.0,2077.0,85.0,-7.0,
2064.0,2138.0,85.0,-7.0,
2064.0,2204.0,85.0,-7.0,
2029.0,2181.0,85.0,-7.0,
2081.0,1900.0,85.0,-7.0,
2140.0,2010.0,85.0,-7.0,
2120.0,2085.0,85.0,-7.0,
2070.0,2080.0,85.0,-7.0,
2044.0,2120.0,85.0,-7.0,
2046.0,2137.0,85.0,-7.0,
2088.0,2180.0,85.0,-7.0,
2036.0,2045.0,85.0,-7.0,
2107.0,2107.0,85.0,-7.0,
2058.0,2067.0,85.0,-7.0,
2074.0,2114.0,84.0,-7.0,
2082.0,2109.0,84.0,-7.0,
2057.0,2160.0,84.0,-7.0,
2023.0,2097.0,84.0,-7.0,
2093.0,2135.0,84.0,-7.0,
2022.0,2026.0,84.0,-7.0,
2117.0,2048.0,84.0,-7.0,
2097.0,2089.0,84.0,-7.0,
2033.0,2133.0,84.0,-7.0,
2040.0,2136.0,84.0,-7.0,
2150.0,2075.0,83.0,-7.0,
2073.0,2092.0,83.0,-7.0,
2132.0,2086.0,83.0,-7.0,
2137.0,2099.0,83.0,-7.0,
2104.0,2171.0,83.0,-7.0,
2067.0,2170.0,83.0,-7.0,
2050.0,2102.0,83.0,-7.0,
2082.0,2083.0,83.0,-7.0,
2088.0,2163.0,83.0,-7.0,
2025.0,2102.0,83.0,-7.0,
2024.0,2023.0,83.0,-7.0,
2077.0,2113.0,83.0,-7.0,
2018.0,2064.0,83.0,-7.0,
2162.0,2045.0,83.0,-7.0,
2083.0,1951.0,83.0,-7.0,
2074.0,2088.0,82.0,-7.0,
2028.0,2045.0,82.0,-7.0,
2083.0,2014.0,82.0,-7.0,
2093.0,2110.0,82.0,-7.0,
2055.0,2121.0,82.0,-7.0,
2101.0,2154.0,81.0,-7.0,
2066.0,2061.0,81.0,-7.0,
2085.0,2075.0,81.0,-7.0,
2077.0,2207.0,81.0,-6.0,
2047.0,2154.0,81.0,-6.0,
2047.0,2059.0,80.0,-6.0,
2091.0,2163.0,80.0,-6.0,
2123.0,2081.0,80.0,-6.0,
2126.0,2064.0,80.0,-6.0,
2089.0,2065.0,80.0,-6.0,
2048.0,2023.0,80.0,-6.0,
2155.0,2061.0,80.0,-6.0,
2063.0,2053.0,80.0,-6.0,
2089.0,2139.0,80.0,-6.0,
2106.0,2177.0,80.0,-6.0,
2066.0,2099.0,79.0,-6.0,
2105.0,2070.0,79.0,-7.0,
2043.0,2185.0,79.0,-7.0,
2080.0,2235.0,79.0,-7.0,
2118.0,2018.0,78.0,-7.0,
2091.0,2043.0,78.0,-7.0,
2066.0,2091.0,78.0,-7.0,
2093.0,2010.0,78.0,-7.0,
2097.0,2052.0,78.0,-7.0,
2098.0,2163.0,78.0,-7.0,
2064.0,2182.0,78.0,-7.0,
1988.0,1973.0,77.0,-7.0,
2061.0,2058.0,77.0,-7.0,
2065.0,2088.0,77.0,-7.0,
2045.0,2117.0,77.0,-7.0,
2107.0,2109.0,77.0,-7.0,
2086.0,2116.0,77.0,-7.0,
2073.0,2162.0,77.0,-7.0,
2080.0,2098.0,77.0,-7.0,
2056.0,2153.0,76.0,-7.0,
2047.0,2118.0,76.0,-7.0,
2056.0,2054.0,77.0,-7.0,
2112.0,2083.0,77.0,-7.0,
2084.0,2103.0,77.0,-7.0,
2103.0,2040.0,77.0,-7.0,
2093.0,2100.0,77.0,-7.0,
2059.0,2043.0,77.0,-7.0,
2015.0,1994.0,77.0,-7.0,
2066.0,2093.0,77.0,-7.0,
2061.0,2068.0,77.0,-6.0,
2074.0,2080.0,77.0,-7.0,
2072.0,2086.0,77.0,-7.0,
2134.0,2116.0,77.0,-7.0,
2054.0,2147.0,77.0,-7.0,
2140.0,2139.0,77.0,-7.0,
1997.0,1958.0,77.0,-7.0,
2101.0,2121.0,77.0,-6.0,
2023.0,2119.0,77.0,-6.0,
2070.0,2084.0,77.0,-6.0,
2055.0,2044.0,77.0,-6.0,
2073.0,2077.0,77.0,-6.0,
2119.0,2104.0,77.0,-6.0,
2107.0,2119.0,77.0,-6.0,
2109.0,2154.0,77.0,-6.0,
2095.0,2042.0,77.0,-6.0,
2084.0,2100.0,77.0,-6.0,
2033.0,2143.0,77.0,-6.0,
2047.0,2087.0,77.0,-6.0,
2076.0,2090.0,77.0,-6.0,
2094.0,2045.0,77.0,-6.0,
2121.0,2173.0,77.0,-6.0,
2052.0,2116.0,77.0,-6.0,
2080.0,2059.0,77.0,-6.0,
2090.0,2080.0,77.0,-6.0,
2053.0,2103.0,77.0,-6.0,
2028.0,2035.0,77.0,-6.0,
2044.0,2119.0,77.0,-6.0,
2122.0,2132.0,77.0,-6.0,
2106.0,2051.0,77.0,-6.0,
2156.0,2107.0,77.0,-6.0,
2010.0,2009.0,77.0,-6.0,
2079.0,2093.0,77.0,-6.0,
2013.0,2186.0,77.0,-6.0,
2029.0,2087.0,77.0,-6.0,
2056.0,2113.0,77.0,-6.0,
2083.0,2079.0,77.0,-6.0,
2027.0,2008.0,77.0,-6.0,
2091.0,2074.0,77.0,-6.0,
2066.0,2054.0,76.0,-6.0,
2124.0,2096.0,76.0,-6.0,
2089.0,2058.0,76.0,-6.0,
2042.0,2120.0,76.0,-6.0,
2062.0,2136.0,76.0,-6.0,
2066.0,2136.0,76.0,-6.0,
2094.0,2131.0,75.0,-6.0,
2093.0,2094.0,75.0,-6.0,
2077.0,2109.0,75.0,-6.0,
2090.0,2085.0,75.0,-6.0,
2078.0,2127.0,75.0,-6.0,
2024.0,2105.0,76.0,-6.0,
2038.0,2134.0,76.0,-6.0,
2061.0,2083.0,76.0,-5.0,
2068.0,2059.0,76.0,-5.0,
2113.0,2083.0,76.0,-6.0,
2136.0,2143.0,76.0,-6.0,
2106.0,2165.0,76.0,-6.0,
2142.0,2113.0,76.0,-6.0,
2073.0,2049.0,76.0,-6.0,
2024.0,2082.0,76.0,-6.0,
2044.0,2097.0,76.0,-6.0,
2080.0,2081.0,76.0,-6.0,
2047.0,2083.0,75.0,-6.0,
2067.0,2036.0,75.0,-6.0,
2141.0,2095.0,75.0,-6.0,
2066.0,2110.0,75.0,-6.0,
2075.0,2043.0,75.0,-6.0,
2096.0,2055.0,75.0,-6.0,
2084.0,2118.0,75.0,-6.0,
2061.0,2080.0,75.0,-6.0,
2056.0,2087.0,75.0,-6.0,
2060.0,2082.0,75.0,-6.0,
2105.0,2128.0,74.0,-6.0,
2103.0,2097.0,74.0,-6.0,
2072.0,2093.0,74.0,-6.0,
2058.0,2150.0,74.0,-6.0,
2048.0,2094.0,74.0,-6.0,
2060.0,2045.0,74.0,-6.0,
2068.0,2071.0,74.0,-5.0,
2025.0,2119.0,74.0,-5.0,
2024.0,2143.0,74.0,-5.0,
2057.0,2092.0,74.0,-5.0,
2120.0,2098.0,73.0,-5.0,
2071.0,2081.0,73.0,-5.0,
2088.0,2120.0,73.0,-5.0,
2088.0,2069.0,73.0,-5.0,
2051.0,2067.0,73.0,-5.0,
2057.0,2077.0,73.0,-5.0,
2076.0,2134.0,73.0,-5.0,
2046.0,2227.0,73.0,-5.0,
2110.0,2102.0,73.0,-5.0,
2076.0,2111.0,73.0,-5.0,
2039.0,2001.0,73.0,-5.0,
2062.0,2003.0,73.0,-5.0,
2042.0,2027.0,73.0,-5.0,
2121.0,2064.0,73.0,-5.0,
2137.0,2086.0,73.0,-5.0,
2088.0,2112.0,73.0,-6.0,
2073.0,2042.0,73.0,-6.0,
2122.0,2107.0,72.0,-6.0,
2106.0,2154.0,72.0,-6.0,
2058.0,2136.0,72.0,-5.0,
2094.0,2111.0,72.0,-5.0,
2103.0,2088.0,71.0,-5.0,
2050.0,2078.0,71.0,-5.0,
2043.0,2095.0,71.0,-5.0,
2102.0,2087.0,71.0,-5.0,
2066.0,2105.0,71.0,-5.0,
2084.0,2074.0,71.0,-5.0,
2058.0,2110.0,71.0,-5.0,
2101.0,2109.0,70.0,-5.0,
2059.0,2107.0,70.0,-5.0,
2076.0,2020.0,70.0,-5.0,
2038.0,2143.0,70.0,-5.0,
2077.0,2140.0,70.0,-5.0,
2077.0,2123.0,70.0,-5.0,
2098.0,2095.0,70.0,-5.0,
2066.0,2114.0,0,
2070.0,2152.0,69.0,-5.0,
2075.0,2132.0,69.0,-5.0,
2065.0,2049.0,69.0,-5.0,
2035.0,2030.0,69.0,-5.0,
2044.0,2082.0,69.0,-6.0,
2015.0,2134.0,69.0,-6.0,
2033.0,2112.0,69.0,-6.0,
2079.0,2153.0,69.0,-6.0,
2087.0,2009.0,69.0,-6.0,
2099.0,2053.0,69.0,-6.0,
2120.0,2100.0,69.0,-6.0,
2042.0,2046.0,69.0,-5.0,
2069.0,2098.0,69.0,-5.0,
2109.0,2079.0,69.0,-5.0,
2093.0,2066.0,69.0,-5.0,
2112.0,2043.0,69.0,-5.0,
2076.0,2082.0,69.0,-5.0,
2133.0,2136.0,69.0,-5.0,
2123.0,2112.0,68.0,-5.0,
2065.0,2086.0,68.0,-5.0,
2056.0,2080.0,68.0,-5.0,
2073.0,2135.0,68.0,-5.0,
2071.0,2148.0,68.0,-5.0,
2025.0,2054.0,67.0,-5.0,
2034.0,1989.0,67.0,-5.0,
2102.0,2043.0,67.0,-5.0,
2095.0,2124.0,67.0,-5.0,
2132.0,2195.0,67.0,-5.0,
2069.0,2092.0,66.0,-5.0,
2044.0,2025.0,66.0,-4.0,
2056.0,2035.0,66.0,-4.0,
2043.0,2084.0,66.0,-4.0,
2016.0,2138.0,65.0,-4.0,
2118.0,2137.0,65.0,-4.0,
2112.0,2119.0,65.0,-4.0,
2101.0,2078.0,65.0,-4.0,
2097.0,2105.0,65.0,-4.0,
2057.0,2105.0,65.0,-4.0,
2051.0,2097.0,65.0,-4.0,
2072.0,2089.0,65.0,-4.0,
2058.0,2094.0,65.0,-4.0,
2071.0,2117.0,65.0,-5.0,
2078.0,2099.0,65.0,-5.0,
2092.0,2091.0,66.0,-5.0,
2125.0,2093.0,66.0,-5.0,
2095.0,2106.0,66.0,-5.0,
2053.0,2124.0,66.0,-5.0,
2036.0,2122.0,66.0,-5.0,
2045.0,2093.0,66.0,-5.0,
2028.0,2096.0,66.0,-5.0,
2051.0,2090.0,66.0,-5.0,
2054.0,2096.0,66.0,-5.0,
2089.0,2087.0,66.0,-5.0,
2112.0,2090.0,66.0,-5.0,
2124.0,2089.0,66.0,-5.0,
2072.0,2089.0,66.0,-5.0,
2060.0,2086.0,66.0,-5.0,
2094.0,2104.0,66.0,-5.0,
2072.0,2098.0,66.0,-5.0,
2075.0,2107.0,66.0,-5.0,
2067.0,2112.0,67.0,-5.0,
2040.0,2070.0,67.0,-5.0,
2040.0,2110.0,67.0,-5.0,
2048.0,2025.0,67.0,-5.0,
2041.0,2066.0,67.0,-5.0,
2084.0,2065.0,67.0,-5.0,
2092.0,2126.0,67.0,-5.0,
2176.0,2153.0,67.0,-5.0,
2096.0,2147.0,67.0,-5.0,
2112.0,2100.0,66.0,-5.0,
2116.0,1981.0,66.0,-5.0,
2060.0,2045.0,66.0,-5.0,
2015.0,2093.0,65.0,-5.0,
2033.0,2076.0,65.0,-4.0,
2047.0,2081.0,64.0,-5.0,
2061.0,2089.0,63.0,-4.0,
2085.0,2111.0,63.0,-4.0,
2089.0,2119.0,62.0,-4.0,
2083.0,2094.0,62.0,-4.0,
2070.0,2017.0,61.0,-4.0,
2059.0,2210.0,61.0,-3.0,
2061.0,2021.0,61.0,-3.0,
2067.0,2095.0,60.0,-3.0,
2094.0,2148.0,60.0,-4.0,
2129.0,2117.0,60.0,-3.0,
2093.0,2034.0,60.0,-3.0,
2071.0,2063.0,60.0,-3.0,
2098.0,2115.0,60.0,-4.0,
2096.0,2115.0,60.0,-4.0,
2063.0,2103.0,60.0,-4.0,
2062.0,2118.0,60.0,-4.0,
2056.0,2115.0,61.0,-4.0,
2063.0,2086.0,61.0,-4.0,
2064.0,2101.0,61.0,-4.0,
2103.0,2093.0,61.0,-4.0,
2100.0,2072.0,61.0,-4.0,
2080.0,2162.0,61.0,-4.0,
2102.0,2131.0,61.0,-4.0,
2052.0,2058.0,61.0,-4.0,
2047.0,2096.0,61.0,-5.0,
2053.0,2106.0,61.0,-5.0,
2073.0,2113.0,62.0,-5.0,
2065.0,2075.0,62.0,-5.0,
2108.0,2098.0,62.0,-5.0,
2089.0,2081.0,62.0,-5.0,
2069.0,2096.0,61.0,-5.0,
2066.0,2117.0,61.0,-5.0,
2032.0,2050.0,61.0,-5.0,
2041.0,2094.0,62.0,-5.0,
2079.0,2077.0,61.0,-5.0,
2066.0,2091.0,61.0,-5.0,
2083.0,2111.0,61.0,-5.0,
2094.0,2071.0,61.0,-5.0,
2109.0,2104.0,61.0,-5.0,
2065.0,2071.0,62.0,-4.0,
2070.0,2104.0,62.0,-4.0,
2053.0,2045.0,62.0,-4.0,
2049.0,2089.0,62.0,-4.0,
2030.0,2126.0,62.0,-4.0,
2010.0,2011.0,62.0,-4.0,
2124.0,2070.0,61.0,-4.0,
2073.0,2129.0,61.0,-4.0,
2055.0,2095.0,61.0,-4.0,
2087.0,2127.0,60.0,-4.0,
2146.0,2090.0,60.0,-4.0,
2051.0,2042.0,60.0,-4.0,
2062.0,2150.0,59.0,-4.0,
2117.0,2126.0,59.0,-4.0,
2156.0,2118.0,58.0,-4.0,
2108.0,2066.0,58.0,-4.0,
2068.0,2068.0,58.0,-4.0,
2062.0,2052.0,57.0,-4.0,
2044.0,2085.0,57.0,-4.0,
2032.0,2093.0,57.0,-4.0,
2039.0,2122.0,57.0,-3.0,
2092.0,2092.0,56.0,-3.0,
2077.0,2066.0,56.0,-3.0,
2079.0,2065.0,56.0,-3.0,
2073.0,2084.0,56.0,-3.0,
2110.0,2109.0,56.0,-3.0,
2098.0,2136.0,56.0,-4.0,
2059.0,2159.0,56.0,-4.0,
2062.0,2120.0,57.0,-4.0,
2069.0,2122.0,57.0,-4.0,
2060.0,2123.0,57.0,-4.0,
2064.0,2103.0,57.0,-4.0,
2088.0,2111.0,57.0,-4.0,
2103.0,2117.0,58.0,-4.0,
2099.0,2072.0,58.0,-4.0,
2103.0,2077.0,58.0,-4.0,
2055.0,2097.0,58.0,-4.0,
2011.0,2125.0,58.0,-4.0,
2033.0,2132.0,58.0,-4.0,
2044.0,2154.0,59.0,-4.0,
2080.0,2088.0,59.0,-4.0,
2142.0,2056.0,59.0,-4.0,
2092.0,2014.0,59.0,-4.0,
2081.0,2089.0,59.0,-4.0,
2068.0,2042.0,59.0,-4.0,
2079.0,2109.0,59.0,-4.0,
2099.0,2098.0,59.0,-4.0,
2074.0,2039.0,59.0,-4.0,
2063.0,2068.0,59.0,-4.0,
2076.0,2064.0,59.0,-4.0,
2092.0,2082.0,59.0,-4.0,
2111.0,2113.0,59.0,-4.0,
2094.0,2094.0,59.0,-4.0,
2056.0,2110.0,59.0,-4.0,
2031.0,2094.0,59.0,-4.0,
2024.0,2110.0,60.0,-4.0,
2067.0,2123.0,60.0,-4.0,
2068.0,2102.0,60.0,-4.0,
2084.0,2041.0,60.0,-4.0,
2081.0,2147.0,60.0,-4.0,
2138.0,2097.0,60.0,-4.0,
2103.0,2094.0,60.0,-4.0,
2069.0,2098.0,60.0,-4.0,
2058.0,2084.0,60.0,-4.0,
2071.0,2110.0,60.0,-4.0,
2040.0,2134.0,60.0,-4.0,
2083.0,2012.0,59.0,-4.0,
2085.0,2043.0,59.0,-4.0,
2132.0,2077.0,59.0,-4.0,
2076.0,2074.0,58.0,-4.0,
2068.0,2084.0,58.0,-4.0,
2127.0,2102.0,57.0,-4.0,
2083.0,2046.0,56.0,-3.0,
2083.0,2115.0,56.0,-3.0,
2062.0,2112.0,55.0,-3.0,
2077.0,2144.0,55.0,-3.0,
2079.0,2096.0,55.0,-3.0,
2059.0,2073.0,54.0,-3.0,
2064.0,2152.0,54.0,-3.0,
2106.0,2215.0,54.0,-2.0,
2096.0,2145.0,54.0,-2.0,
2043.0,2008.0,54.0,-2.0,
2019.0,1936.0,54.0,-2.0,
2056.0,2070.0,54.0,-2.0,
2089.0,2064.0,54.0,-2.0,
2138.0,2094.0,54.0,-2.0,
2062.0,2129.0,54.0,-3.0,
2054.0,2161.0,54.0,-3.0,
2075.0,2129.0,54.0,-3.0,
2056.0,2133.0,54.0,-3.0,
2032.0,2104.0,54.0,-3.0,
2070.0,2102.0,54.0,-3.0,
2098.0,2088.0,54.0,-3.0,
2091.0,2124.0,54.0,-3.0,
2078.0,2072.0,54.0,-3.0,
2153.0,2058.0,54.0,-3.0,
2112.0,2074.0,54.0,-4.0,
2030.0,2077.0,54.0,-4.0,
2069.0,2135.0,54.0,-4.0,
2047.0,2116.0,54.0,-4.0,
2051.0,2124.0,54.0,-4.0,
2088.0,2073.0,54.0,-4.0,
2091.0,2104.0,54.0,-4.0,
2146.0,2093.0,53.0,-4.0,
2078.0,2072.0,53.0,-4.0,
2041.0,2066.0,53.0,-4.0,
2043.0,2094.0,53.0,-4.0,
2019.0,2095.0,53.0,-4.0,
2080.0,2088.0,53.0,-4.0,
2094.0,2078.0,53.0,-4.0,
2097.0,2064.0,53.0,-4.0,
2098.0,2087.0,53.0,-4.0,
2089.0,2086.0,53.0,-4.0,
2084.0,2076.0,53.0,-4.0,
2094.0,2078.0,53.0,-4.0,
2075.0,2097.0,53.0,-4.0,
2058.0,2104.0,53.0,-4.0,
2051.0,2111.0,53.0,-4.0,
2053.0,2126.0,53.0,-4.0,
2072.0,2145.0,53.0,-3.0,
2074.0,2114.0,54.0,-3.0,
2046.0,2071.0,54.0,-3.0,
2052.0,2071.0,54.0,-3.0,
2047.0,2066.0,53.0,-3.0,
2047.0,2113.0,53.0,-3.0,
2047.0,2087.0,53.0,-3.0,
2067.0,2078.0,53.0,-3.0,
2075.0,2087.0,53.0,-3.0,
2069.0,2095.0,52.0,-3.0,
2096.0,2106.0,0,
2094.0,2107.0,52.0,-3.0,
2064.0,2014.0,52.0,-3.0,
2051.0,2091.0,51.0,-3.0,
2098.0,2096.0,51.0,-3.0,
2076.0,2037.0,0,
2056.0,2085.0,51.0,-3.0,
2095.0,2089.0,51.0,-3.0,
2116.0,2090.0,50.0,-2.0,
2105.0,2137.0,50.0,-2.0,
2114.0,2168.0,49.0,-2.0,
2096.0,2069.0,49.0,-2.0,
2057.0,2033.0,48.0,-2.0,
1985.0,2082.0,48.0,-2.0,
2106.0,2101.0,48.0,-2.0,
2098.0,2079.0,48.0,-2.0,
2101.0,2079.0,48.0,-2.0,
2093.0,2090.0,48.0,-2.0,
2054.0,2194.0,48.0,-2.0,
2046.0,2141.0,48.0,-2.0,
2048.0,2102.0,48.0,-2.0,
2048.0,2067.0,48.0,-2.0,
2046.0,2091.0,48.0,-2.0,
2091.0,2101.0,48.0,-2.0,
2079.0,2085.0,48.0,-2.0,
2081.0,2098.0,48.0,-2.0,
2082.0,2060.0,48.0,-3.0,
2081.0,2062.0,49.0,-3.0,
2078.0,2074.0,49.0,-3.0,
2046.0,2098.0,49.0,-3.0,
2081.0,2064.0,49.0,-3.0,
2055.0,2117.0,49.0,-3.0,
2069.0,2159.0,49.0,-3.0,
2065.0,2098.0,49.0,-3.0,
2039.0,2075.0,49.0,-3.0,
2039.0,2138.0,49.0,-3.0,
2040.0,2098.0,49.0,-3.0,
2068.0,2101.0,49.0,-3.0,
2172.0,2106.0,49.0,-3.0,
2101.0,2086.0,49.0,-3.0,
2070.0,2047.0,48.0,-3.0,
2066.0,2107.0,48.0,-4.0,
2108.0,2020.0,48.0,-4.0,
2111.0,2067.0,48.0,-4.0,
2118.0,2113.0,48.0,-4.0,
2088.0,2142.0,48.0,-4.0,
2067.0,2172.0,47.0,-4.0,
2048.0,2090.0,47.0,-4.0,
2054.0,1981.0,47.0,-4.0,
2127.0,2061.0,47.0,-4.0,
2077.0,2106.0,47.0,-4.0,
2116.0,2096.0,46.0,-4.0,
2053.0,2072.0,46.0,-4.0,
2064.0,2022.0,45.0,-4.0,
2056.0,2079.0,45.0,-4.0,
1988.0,2118.0,45.0,-3.0,
2076.0,2095.0,44.0,-3.0,
2088.0,2154.0,44.0,-3.0,
2064.0,2042.0,43.0,-3.0,
2110.0,2073.0,43.0,-3.0,
2103.0,2095.0,43.0,-3.0,
2086.0,2091.0,42.0,-3.0,
2084.0,2117.0,42.0,-3.0,
2063.0,2102.0,42.0,-3.0,
2053.0,2066.0,41.0,-3.0,
2044.0,2045.0,41.0,-2.0,
2044.0,2104.0,41.0,-2.0,
2058.0,2170.0,41.0,-2.0,
2073.0,2200.0,41.0,-2.0,
2089.0,2139.0,41.0,-2.0,
2084.0,2135.0,41.0,-2.0,
2078.0,2152.0,41.0,-2.0,
2052.0,2115.0,41.0,-2.0,
2058.0,2091.0,42.0,-2.0,
2123.0,2090.0,42.0,-2.0,
2078.0,2080.0,42.0,-2.0,
2041.0,2091.0,42.0,-2.0,
2060.0,2080.0,43.0,-3.0,
2147.0,2110.0,43.0,-3.0,
2120.0,2072.0,43.0,-3.0,
2085.0,2065.0,43.0,-3.0,
2084.0,2063.0,44.0,-3.0,
2070.0,2096.0,44.0,-3.0,
2057.0,2092.0,44.0,-3.0,
2100.0,2086.0,44.0,-3.0,
2113.0,2074.0,44.0,-3.0,
2084.0,2083.0,44.0,-3.0,
2086.0,2116.0,44.0,-3.0,
2052.0,2121.0,44.0,-3.0,
2086.0,2101.0,44.0,-3.0,
2026.0,2075.0,44.0,-3.0,
2041.0,2066.0,44.0,-3.0,
2083.0,2095.0,44.0,-3.0,
2086.0,2100.0,44.0,-3.0,
2055.0,2112.0,44.0,-3.0,
2056.0,2111.0,45.0,-3.0,
2058.0,2084.0,45.0,-3.0,
2081.0,2106.0,45.0,-3.0,
2072.0,2068.0,45.0,-3.0,
2058.0,2077.0,44.0,-3.0,
2049.0,2085.0,44.0,-3.0,
2080.0,2069.0,44.0,-3.0,
2062.0,2074.0,44.0,-3.0,
2075.0,2097.0,44.0,-3.0,
2081.0,2110.0,44.0,-3.0,
2100.0,2098.0,43.0,-3.0,
2084.0,2070.0,43.0,-3.0,
2055.0,2111.0,43.0,-3.0,
2037.0,2106.0,43.0,-3.0,
2027.0,2115.0,43.0,-3.0,
2024.0,2111.0,44.0,-3.0,
2114.0,2097.0,44.0,-3.0,
2101.0,2110.0,44.0,-3.0,
2124.0,2035.0,43.0,-3.0,
2082.0,2058.0,43.0,-2.0,
2080.0,2071.0,43.0,-2.0,
2072.0,2077.0,43.0,-2.0,
2052.0,2112.0,42.0,-2.0,
2019.0,2101.0,42.0,-2.0,
2090.0,2106.0,42.0,-2.0,
2086.0,2131.0,42.0,-2.0,
2086.0,2121.0,41.0,-2.0,
2149.0,2092.0,41.0,-2.0,
2120.0,2036.0,41.0,-2.0,
2071.0,2034.0,41.0,-2.0,
2069.0,2091.0,41.0,-2.0,
2031.0,2151.0,41.0,-2.0,
2043.0,2150.0,40.0,-2.0,
2014.0,2127.0,40.0,-2.0,
2097.0,2075.0,40.0,-2.0,
2111.0,2096.0,40.0,-2.0,
2080.0,2094.0,40.0,-2.0,
2076.0,2098.0,40.0,-2.0,
2073.0,2097.0,40.0,-2.0,
2063.0,2077.0,40.0,-2.0,
2070.0,2083.0,40.0,-2.0,
2055.0,2077.0,39.0,-2.0,
2084.0,2095.0,39.0,-2.0,
2087.0,2092.0,39.0,-2.0,
2088.0,2086.0,39.0,-2.0,
2075.0,2072.0,39.0,-2.0,
2048.0,2099.0,39.0,-2.0,
2065.0,2110.0,38.0,-2.0,
2044.0,2111.0,38.0,-2.0,
2085.0,2088.0,38.0,-2.0,
2086.0,2082.0,38.0,-2.0,
2089.0,2095.0,38.0,-2.0,
2076.0,2131.0,38.0,-2.0,
2058.0,2108.0,37.0,-2.0,
2070.0,2069.0,37.0,-2.0,
2063.0,2083.0,37.0,-2.0,
2063.0,2058.0,37.0,-2.0,
2096.0,2067.0,37.0,-2.0,
2061.0,2100.0,36.0,-2.0,
2054.0,2125.0,36.0,-2.0,
2062.0,2098.0,36.0,-2.0,
2042.0,2108.0,35.0,-3.0,
2062.0,2128.0,35.0,-3.0,
2069.0,2130.0,35.0,-3.0,
2056.0,2104.0,35.0,-3.0,
2101.0,2088.0,35.0,-3.0,
2086.0,2068.0,35.0,-3.0,
2095.0,2065.0,35.0,-3.0,
2051.0,2066.0,34.0,-3.0,
2090.0,2061.0,34.0,-3.0,
2141.0,2083.0,34.0,-3.0,
2119.0,2107.0,34.0,-3.0,
2079.0,2118.0,34.0,-3.0,
2047.0,2105.0,34.0,-3.0,
2033.0,2090.0,34.0,-3.0,
2038.0,2069.0,34.0,-3.0,
2073.0,2077.0,34.0,-3.0,
2082.0,2102.0,34.0,-3.0,
2124.0,2138.0,34.0,-3.0,
2095.0,2126.0,34.0,-3.0,
2057.0,2095.0,34.0,-3.0,
2086.0,2118.0,34.0,-3.0,
2040.0,2101.0,34.0,-3.0,
2051.0,2135.0,34.0,-3.0,
2051.0,2089.0,34.0,-3.0,
2075.0,2050.0,33.0,-3.0,
2067.0,1960.0,33.0,-3.0,
2099.0,2070.0,33.0,-3.0,
2075.0,2108.0,33.0,-2.0,
2073.0,2127.0,34.0,-2.0,
2066.0,2118.0,35.0,-2.0,
2076.0,2075.0,35.0,-2.0,
2059.0,2064.0,34.0,-2.0,
2050.0,2094.0,34.0,-2.0,
2065.0,2135.0,33.0,-2.0,
2111.0,2142.0,33.0,-2.0,
2119.0,2093.0,33.0,-2.0,
2109.0,2074.0,33.0,-2.0,
2068.0,2078.0,33.0,-2.0,
2067.0,2144.0,33.0,-2.0,
2055.0,2142.0,32.0,-2.0,
2059.0,2090.0,32.0,-3.0,
2029.0,2040.0,33.0,-3.0,
2109.0,2083.0,33.0,-2.0,
2107.0,2079.0,34.0,-2.0,
2144.0,2085.0,34.0,-2.0,
2146.0,2108.0,34.0,-2.0,
2110.0,2065.0,34.0,-2.0,
2064.0,2074.0,34.0,-2.0,
2083.0,2079.0,34.0,-2.0,
2070.0,2104.0,34.0,-2.0,
2051.0,2095.0,34.0,-2.0,
2061.0,2087.0,34.0,-2.0,
2061.0,2115.0,33.0,-2.0,
2059.0,2147.0,33.0,-2.0,
2048.0,2117.0,33.0,-2.0,
2091.0,2043.0,33.0,-2.0,
2054.0,2052.0,33.0,-2.0,
2031.0,2058.0,33.0,-2.0,
2041.0,2077.0,33.0,-2.0,
2060.0,2102.0,33.0,-2.0,
2038.0,2108.0,33.0,-2.0,
2072.0,2124.0,34.0,-2.0,
2079.0,2117.0,34.0,-2.0,
2057.0,2110.0,33.0,-2.0,
2093.0,2070.0,33.0,-2.0,
2127.0,2090.0,33.0,-2.0,
2068.0,2139.0,33.0,-2.0,
2042.0,2019.0,33.0,-2.0,
2075.0,2087.0,33.0,-2.0,
2077.0,2095.0,33.0,-2.0,
2069.0,2103.0,33.0,-2.0,
2042.0,2084.0,33.0,-2.0,
2060.0,2079.0,32.0,-2.0,
2103.0,2098.0,32.0,-2.0,
2084.0,2086.0,32.0,-2.0,
2081.0,2071.0,32.0,-2.0,
2076.0,2090.0,32.0,-2.0,
2068.0,2092.0,32.0,-2.0,
2057.0,2109.0,32.0,-2.0,
2079.0,2083.0,32.0,-2.0,
2062.0,2114.0,32.0,-2.0,
2026.0,2105.0,32.0,-2.0,
2161.0,2109.0,32.0,-2.0,
2124.0,2069.0,32.0,-2.0,
2058.0,2087.0,32.0,-2.0,
2077.0,2184.0,32.0,-2.0,
2100.0,2153.0,32.0,-2.0,
2082.0,2088.0,32.0,-2.0,
2070.0,2033.0,32.0,-2.0,
2064.0,2079.0,32.0,-2.0,
2050.0,2062.0,32.0,-2.0,
2048.0,2078.0,32.0,-2.0,
2051.0,2088.0,32.0,-2.0,
2082.0,2084.0,32.0,-2.0,
2052.0,2083.0,32.0,-2.0,
2049.0,2098.0,32.0,-2.0,
2093.0,2110.0,32.0,-2.0,
2100.0,2124.0,32.0,-2.0,
2070.0,2103.0,32.0,-2.0,
2072.0,2086.0,32.0,-2.0,
2057.0,2066.0,31.0,-2.0,
2031.0,2071.0,31.0,-2.0,
2077.0,2097.0,31.0,-2.0,
2101.0,2087.0,31.0,-2.0,
2095.0,2079.0,31.0,-2.0,
2116.0,2084.0,31.0,-2.0,
2109.0,2099.0,31.0,-2.0,
2080.0,2099.0,31.0,-2.0,
2046.0,2099.0,31.0,-2.0,
2042.0,2097.0,31.0,-2.0,
2068.0,2096.0,31.0,-2.0,
2065.0,2097.0,31.0,-2.0,
2100.0,2110.0,31.0,-2.0,
2065.0,2097.0,31.0,-2.0,
2071.0,2068.0,31.0,-2.0,
2085.0,2097.0,31.0,-2.0,
2075.0,2093.0,31.0,-2.0,
2050.0,2098.0,31.0,-2.0,
2031.0,2115.0,31.0,-2.0,
2075.0,2100.0,31.0,-2.0,
2119.0,2086.0,31.0,-2.0,
2109.0,2108.0,31.0,-2.0,
2099.0,2090.0,31.0,-2.0,
2084.0,2105.0,31.0,-2.0,
2090.0,2102.0,31.0,-2.0,
2079.0,2095.0,31.0,-2.0,
2046.0,2083.0,32.0,-2.0,
2048.0,2077.0,32.0,-2.0,
2048.0,2067.0,32.0,-2.0,
2068.0,2082.0,32.0,-2.0,
2082.0,2115.0,32.0,-2.0,
2096.0,2136.0,33.0,-2.0,
2084.0,2134.0,33.0,-2.0,
2054.0,2125.0,33.0,-2.0,
2041.0,2098.0,32.0,-2.0,
2022.0,2070.0,32.0,-2.0,
2024.0,2073.0,31.0,-3.0,
2109.0,2051.0,31.0,-3.0,
2139.0,2080.0,31.0,-3.0,
2118.0,2135.0,31.0,-3.0,
2118.0,2067.0,30.0,-3.0,
2093.0,2082.0,29.0,-3.0,
2086.0,2077.0,29.0,-3.0,
2051.0,2078.0,29.0,-3.0,
2077.0,2093.0,29.0,-3.0,
2062.0,2102.0,30.0,-3.0,
2048.0,2129.0,30.0,-3.0,
2070.0,2101.0,30.0,-2.0,
2069.0,2101.0,30.0,-2.0,
2061.0,2105.0,29.0,-2.0,
2051.0,2096.0,29.0,-2.0,
2065.0,2091.0,29.0,-2.0,
2066.0,2085.0,29.0,-2.0,
2101.0,2083.0,29.0,-2.0,
2042.0,2091.0,28.0,-2.0,
2068.0,2098.0,28.0,-2.0,
2118.0,2098.0,28.0,-3.0,
2080.0,2078.0,28.0,-3.0,
2059.0,2054.0,28.0,-3.0,
2078.0,2109.0,28.0,-3.0,
2103.0,2082.0,28.0,-3.0,
2101.0,2094.0,28.0,-2.0,
2114.0,2089.0,28.0,-3.0,
2094.0,2106.0,28.0,-2.0,
2077.0,2113.0,28.0,-2.0,
2071.0,2111.0,28.0,-2.0,
2071.0,2088.0,28.0,-2.0,
2066.0,2044.0,28.0,-2.0,
2075.0,2075.0,28.0,-2.0,
2062.0,2075.0,28.0,-2.0,
2060.0,2098.0,28.0,-2.0,
2062.0,2071.0,28.0,-2.0,
2092.0,2091.0,28.0,-2.0,
2103.0,2091.0,28.0,-2.0,
2085.0,2107.0,28.0,-3.0,
2073.0,2127.0,28.0,-3.0,
2085.0,2127.0,27.0,-3.0,
2060.0,2108.0,27.0,-3.0,
2046.0,2087.0,27.0,-3.0,
2024.0,2071.0,27.0,-3.0,
2057.0,2080.0,27.0,-3.0,
2069.0,2059.0,27.0,-2.0,
2112.0,2103.0,27.0,-2.0,
2102.0,2161.0,27.0,-2.0,
2059.0,2087.0,27.0,-2.0,
2065.0,2070.0,27.0,-2.0,
2098.0,2081.0,27.0,-2.0,
2073.0,2097.0,27.0,-2.0,
2043.0,2091.0,27.0,-2.0,
2048.0,2093.0,27.0,-2.0,
2059.0,2104.0,27.0,-2.0,
2080.0,2099.0,27.0,-2.0,
2105.0,2103.0,27.0,-2.0,
2086.0,2105.0,27.0,-2.0,
2036.0,2089.0,27.0,-2.0,
2022.0,2055.0,27.0,-2.0,
2040.0,2053.0,0,
2055.0,2137.0,27.0,-2.0,
2112.0,2100.0,27.0,-2.0,
2105.0,2092.0,27.0,-2.0,
2083.0,2095.0,27.0,-2.0,
2148.0,2093.0,27.0,-2.0,
2096.0,2106.0,27.0,-2.0,
2076.0,2093.0,27.0,-2.0,
2041.0,2099.0,27.0,-2.0,
2027.0,2086.0,27.0,-2.0,
2038.0,2108.0,27.0,-2.0,
2081.0,2087.0,27.0,-2.0,
2072.0,2091.0,27.0,-2.0,
2098.0,2099.0,27.0,-2.0,
2063.0,2096.0,27.0,-2.0,
2055.0,2088.0,27.0,-2.0,
2084.0,2082.0,27.0,-2.0,
2068.0,2074.0,27.0,-2.0,
2065.0,2070.0,28.0,-2.0,
2108.0,2071.0,28.0,-2.0,
2086.0,2090.0,28.0,-2.0,
2074.0,2103.0,0,
2069.0,2115.0,28.0,-2.0,
2065.0,2087.0,28.0,-2.0,
2059.0,2065.0,28.0,-2.0,
2044.0,2100.0,28.0,-2.0,
2036.0,2110.0,28.0,-2.0,
2037.0,2100.0,28.0,-2.0,
2052.0,2098.0,28.0,-2.0,
2076.0,2083.0,28.0,-2.0,
2108.0,2072.0,28.0,-2.0,
2113.0,2085.0,28.0,-2.0,
2074.0,2106.0,28.0,-2.0,
2053.0,2115.0,28.0,-2.0,
2081.0,2095.0,28.0,-2.0,
2086.0,2093.0,28.0,-2.0,
2083.0,2079.0,28.0,-2.0,
2077.0,2051.0,28.0,-2.0,
2052.0,2054.0,28.0,-2.0,
2073.0,2135.0,28.0,-2.0,
2058.0,2103.0,28.0,-3.0,
2086.0,2100.0,28.0,-3.0,
2059.0,2077.0,28.0,-3.0,
2033.0,2107.0,28.0,-3.0,
2069.0,2056.0,28.0,-3.0,
2086.0,2069.0,28.0,-3.0,
2053.0,2094.0,28.0,-3.0,
2095.0,2146.0,28.0,-3.0,
2092.0,2112.0,27.0,-3.0,
2079.0,2102.0,28.0,-3.0,
2058.0,2110.0,28.0,-3.0,
2067.0,2127.0,28.0,-3.0,
2050.0,2082.0,28.0,-2.0,
2081.0,2089.0,28.0,-2.0,
2066.0,2042.0,28.0,-2.0,
2086.0,2105.0,27.0,-2.0,
2109.0,2090.0,27.0,-2.0,
2100.0,2096.0,27.0,-2.0,
2086.0,2091.0,27.0,-2.0,
2072.0,2092.0,27.0,-2.0,
2068.0,2083.0,27.0,-2.0,
2075.0,2077.0,27.0,-2.0,
2064.0,2079.0,27.0,-2.0,
2054.0,2086.0,27.0,-2.0,
2080.0,2089.0,27.0,-2.0,
2060.0,2089.0,27.0,-2.0,
2060.0,2099.0,27.0,-2.0,
2078.0,2091.0,27.0,-2.0,
2140.0,2106.0,27.0,-2.0,
2090.0,2100.0,27.0,-2.0,
2084.0,2090.0,27.0,-2.0,
2062.0,2087.0,27.0,-2.0,
2058.0,2095.0,27.0,-2.0,
2065.0,2098.0,27.0,-2.0,
2076.0,2102.0,27.0,-2.0,
2049.0,2101.0,27.0,-2.0,
2044.0,2091.0,27.0,-2.0,
2030.0,2081.0,27.0,-2.0,
2055.0,2068.0,27.0,-3.0,
2052.0,2071.0,27.0,-3.0,
2121.0,2082.0,27.0,-2.0,
2093.0,2104.0,27.0,-3.0,
2121.0,2150.0,27.0,-3.0,
2102.0,2130.0,27.0,-2.0,
2092.0,2065.0,27.0,-2.0,
2069.0,2034.0,27.0,-2.0,
2045.0,2061.0,27.0,-2.0,
2041.0,2092.0,27.0,-2.0,
2061.0,2089.0,27.0,-2.0,
2079.0,2098.0,27.0,-2.0,
2064.0,2100.0,26.0,-2.0,
2095.0,2101.0,26.0,-2.0,
2070.0,2091.0,26.0,-2.0,
2080.0,2083.0,26.0,-3.0,
2065.0,2082.0,26.0,-2.0,
2057.0,2084.0,26.0,-2.0,
2048.0,2101.0,26.0,-2.0,
2066.0,2131.0,26.0,-2.0,
2067.0,2096.0,26.0,-2.0,
2044.0,2075.0,26.0,-2.0,
2066.0,2080.0,26.0,-2.0,
2106.0,2098.0,26.0,-2.0,
2102.0,2119.0,25.0,-3.0,
2108.0,2117.0,25.0,-3.0,
2073.0,2093.0,25.0,-3.0,
2077.0,2087.0,25.0,-3.0,
2071.0,2076.0,25.0,-3.0,
2073.0,2043.0,25.0,-3.0,
2071.0,2113.0,25.0,-3.0,
2089.0,2110.0,25.0,-3.0,
2079.0,2119.0,25.0,-3.0,
2082.0,2100.0,25.0,-3.0,
2058.0,2074.0,25.0,-3.0,
2059.0,2070.0,25.0,-3.0,
2063.0,2084.0,25.0,-3.0,
2056.0,2096.0,25.0,-3.0,
2055.0,2083.0,25.0,-3.0,
2051.0,2089.0,25.0,-3.0,
2055.0,2090.0,25.0,-3.0,
2068.0,2094.0,25.0,-3.0,
2098.0,2110.0,25.0,-3.0,
2105.0,2093.0,25.0,-3.0,
2103.0,2092.0,25.0,-3.0,
2066.0,2096.0,25.0,-3.0,
2072.0,2090.0,25.0,-3.0,
2072.0,2097.0,25.0,-3.0,
2087.0,2136.0,25.0,-3.0,
2067.0,2115.0,25.0,-3.0,
2037.0,2119.0,25.0,-3.0,
2048.0,2072.0,25.0,-3.0,
2037.0,2085.0,25.0,-3.0,
2074.0,2101.0,25.0,-3.0,
2108.0,2108.0,25.0,-3.0,
2090.0,2099.0,25.0,-3.0,
2120.0,2076.0,25.0,-3.0,
2181.0,2052.0,25.0,-3.0,
2092.0,2077.0,25.0,-3.0,
2094.0,2091.0,25.0,-3.0,
2071.0,2095.0,25.0,-3.0,
2084.0,2090.0,25.0,-3.0,
2033.0,2071.0,25.0,-3.0,
2081.0,2082.0,26.0,-3.0,
2097.0,2085.0,26.0,-3.0,
2074.0,2097.0,26.0,-3.0,
2081.0,2118.0,26.0,-3.0,
2089.0,2120.0,26.0,-3.0,
2084.0,2072.0,26.0,-3.0,
2083.0,2087.0,26.0,-3.0,
2053.0,2099.0,26.0,-3.0,
2051.0,2126.0,26.0,-3.0,
2051.0,2115.0,26.0,-3.0,
2081.0,2116.0,26.0,-3.0,
2073.0,2070.0,26.0,-3.0,
2081.0,2085.0,26.0,-3.0,
2098.0,2082.0,26.0,-3.0,
2071.0,2082.0,26.0,-3.0,
2050.0,2110.0,26.0,-3.0,
2059.0,2106.0,26.0,-3.0,
2047.0,2100.0,26.0,-3.0,
2083.0,2085.0,26.0,-3.0,
2080.0,2096.0,26.0,-3.0,
2077.0,2093.0,26.0,-3.0,
2084.0,2087.0,26.0,-3.0,
2077.0,2088.0,26.0,-3.0,
2079.0,2094.0,26.0,-3.0,
2064.0,2107.0,26.0,-3.0,
2056.0,2089.0,26.0,-3.0,
2059.0,2100.0,26.0,-3.0,
2049.0,2097.0,26.0,-3.0,
2081.0,2101.0,26.0,-3.0,
2080.0,2107.0,26.0,-3.0,
2076.0,2107.0,26.0,-3.0,
2110.0,2073.0,26.0,-3.0,
2082.0,2049.0,26.0,-3.0,
2052.0,2071.0,26.0,-3.0,
2027.0,2121.0,26.0,-3.0,
2036.0,2137.0,26.0,-3.0,
2083.0,2132.0,26.0,-3.0,
2133.0,2051.0,26.0,-2.0,
2155.0,2067.0,26.0,-3.0,
2121.0,2073.0,26.0,-2.0,
2075.0,2100.0,26.0,-2.0,
2047.0,2098.0,26.0,-3.0,
2043.0,2110.0,26.0,-3.0,
2045.0,2062.0,26.0,-3.0,
2045.0,2099.0,26.0,-3.0,
2030.0,2101.0,26.0,-3.0,
2082.0,2098.0,26.0,-3.0,
2043.0,2085.0,26.0,-3.0,
2108.0,2066.0,26.0,-3.0,
2155.0,2057.0,26.0,-3.0,
2105.0,2066.0,26.0,-3.0,
2081.0,2080.0,26.0,-3.0,
2059.0,2112.0,26.0,-3.0,
2076.0,2103.0,26.0,-3.0,
2088.0,2101.0,26.0,-3.0,
2092.0,2097.0,26.0,-3.0,
2059.0,2107.0,25.0,-3.0,
2068.0,2126.0,25.0,-3.0,
2076.0,2104.0,25.0,-3.0,
2062.0,2094.0,25.0,-3.0,
2055.0,2087.0,25.0,-3.0,
2032.0,2095.0,25.0,-3.0,
2072.0,2105.0,25.0,-3.0,
2100.0,2093.0,25.0,-3.0,
2128.0,2095.0,25.0,-3.0,
2110.0,2090.0,25.0,-3.0,
2072.0,2080.0,25.0,-3.0,
2048.0,2087.0,25.0,-3.0,
2033.0,2111.0,25.0,-3.0,
2076.0,2081.0,25.0,-3.0,
2074.0,2088.0,25.0,-3.0,
2085.0,2078.0,25.0,-3.0,
2108.0,2054.0,25.0,-3.0,
2098.0,2077.0,25.0,-3.0,
2064.0,2150.0,25.0,-3.0,
2048.0,2125.0,25.0,-3.0,
2037.0,2091.0,25.0,-3.0,
2045.0,2092.0,25.0,-3.0,
2055.0,2092.0,25.0,-3.0,
2073.0,2087.0,25.0,-3.0,
2102.0,2097.0,25.0,-3.0,
2094.0,2101.0,25.0,-3.0,
2064.0,2096.0,25.0,-3.0,
2075.0,2094.0,25.0,-3.0,
2112.0,2086.0,25.0,-3.0,
2069.0,2094.0,25.0,-3.0,
2068.0,2074.0,25.0,-3.0,
2065.0,2079.0,25.0,-3.0,
2087.0,2092.0,25.0,-3.0,
2100.0,2097.0,25.0,-3.0,
2092.0,2103.0,26.0,-3.0,
2083.0,2087.0,26.0,-3.0,
2059.0,2092.0,26.0,-3.0,
2073.0,2100.0,26.0,-3.0,
2046.0,2092.0,26.0,-3.0,
2036.0,2101.0,26.0,-3.0,
2069.0,2095.0,26.0,-3.0,
2086.0,2104.0,26.0,-3.0,
2082.0,2103.0,26.0,-3.0,
2083.0,2081.0,26.0,-3.0,
2058.0,2075.0,26.0,-3.0,
2055.0,2087.0,26.0,-3.0,
2041.0,2121.0,26.0,-3.0,
2016.0,2092.0,0,
2029.0,2062.0,26.0,-3.0,
2133.0,2081.0,26.0,-3.0,
2155.0,2092.0,26.0,-3.0,
2134.0,2104.0,25.0,-3.0,
2078.0,2097.0,25.0,-3.0,
2089.0,2093.0,25.0,-3.0,
2059.0,2095.0,25.0,-3.0,
2053.0,2083.0,25.0,-3.0,
2040.0,2088.0,25.0,-3.0,
2052.0,2073.0,25.0,-3.0,
2064.0,2076.0,25.0,-3.0,
2080.0,2095.0,25.0,-3.0,
2067.0,2115.0,25.0,-3.0,
2069.0,2125.0,25.0,-3.0,
2057.0,2114.0,25.0,-3.0,
2050.0,2103.0,25.0,-3.0,
2047.0,2085.0,25.0,-3.0,
2030.0,2065.0,25.0,-3.0,
2063.0,2088.0,25.0,-3.0,
2080.0,2094.0,25.0,-3.0,
2100.0,2078.0,25.0,-3.0,
2111.0,2054.0,25.0,-3.0,
2123.0,2062.0,25.0,-3.0,
2100.0,2148.0,25.0,-3.0,
2113.0,2106.0,25.0,-3.0,
2106.0,2101.0,25.0,-3.0,
2066.0,2107.0,25.0,-3.0,
2076.0,2064.0,25.0,-3.0,
2084.0,2083.0,25.0,-3.0,
2071.0,2087.0,25.0,-3.0,
2079.0,2139.0,25.0,-3.0,
2063.0,2104.0,26.0,-3.0,
2061.0,2085.0,26.0,-3.0,
2031.0,2065.0,25.0,-3.0,
2042.0,2100.0,25.0,-3.0,
2052.0,2094.0,26.0,-3.0,
2076.0,2092.0,26.0,-3.0,
2080.0,2102.0,26.0,-3.0,
2087.0,2107.0,26.0,-3.0,
2093.0,2083.0,26.0,-3.0,
2070.0,2082.0,26.0,-3.0,
2069.0,2092.0,26.0,-3.0,
2049.0,2108.0,26.0,-3.0,
2057.0,2100.0,26.0,-3.0,
2057.0,2082.0,26.0,-3.0,
2072.0,2086.0,26.0,-3.0,
2068.0,2087.0,26.0,-3.0,
2090.0,2091.0,26.0,-3.0,
2071.0,2085.0,26.0,-3.0,
2072.0,2135.0,26.0,-3.0,
2078.0,2096.0,26.0,-3.0,
2076.0,2088.0,26.0,-3.0,
2086.0,2074.0,26.0,-3.0,
2062.0,2079.0,26.0,-3.0,
2074.0,2090.0,26.0,-3.0,
2086.0,2086.0,26.0,-3.0,
2076.0,2081.0,26.0,-3.0,
2081.0,2086.0,26.0,-3.0,
2065.0,2125.0,26.0,-3.0,
2050.0,2106.0,26.0,-3.0,
2054.0,2101.0,26.0,-3.0,
2057.0,2106.0,26.0,-3.0,
2070.0,2100.0,26.0,-3.0,
2066.0,2097.0,26.0,-3.0,
2095.0,2098.0,26.0,-3.0,
2052.0,2093.0,26.0,-3.0,
2022.0,2082.0,26.0,-3.0,
2004.0,2107.0,26.0,-3.0,
2015.0,2095.0,25.0,-3.0,
2114.0,2097.0,25.0,-3.0,
2057.0,2093.0,25.0,-3.0,
2187.0,2066.0,25.0,-3.0,
2189.0,2072.0,25.0,-3.0,
2138.0,2120.0,25.0,-3.0,
2131.0,2072.0,25.0,-3.0,
2093.0,2073.0,25.0,-3.0,
2072.0,2085.0,25.0,-3.0,
2065.0,2112.0,25.0,-3.0,
2051.0,2100.0,25.0,-3.0,
2058.0,2094.0,25.0,-3.0,
2065.0,2063.0,25.0,-3.0,
2069.0,2093.0,25.0,-3.0,
2074.0,2100.0,25.0,-3.0,
2064.0,2107.0,25.0,-3.0,
2057.0,2102.0,25.0,-3.0,
2039.0,2105.0,25.0,-3.0,
2036.0,2099.0,25.0,-3.0,
2042.0,2101.0,25.0,-3.0,
2041.0,2105.0,25.0,-3.0,
2060.0,2096.0,25.0,-3.0,
2116.0,2089.0,25.0,-3.0,
2089.0,2069.0,25.0,-3.0,
2030.0,2040.0,25.0,-3.0,
2063.0,2118.0,25.0,-3.0,
2032.0,2136.0,25.0,-3.0,
2042.0,2157.0,25.0,-3.0,
2059.0,2113.0,25.0,-3.0,
2085.0,2097.0,25.0,-3.0,
2080.0,2086.0,25.0,-3.0,
2124.0,2084.0,25.0,-3.0,
2114.0,2086.0,25.0,-3.0,
2068.0,2084.0,25.0,-3.0,
2046.0,2082.0,25.0,-3.0,
2044.0,2077.0,25.0,-3.0,
2040.0,2081.0,25.0,-3.0,
2068.0,2077.0,25.0,-3.0,
2069.0,2087.0,25.0,-3.0,
2094.0,2092.0,25.0,-3.0,
2087.0,2097.0,25.0,-3.0,
2083.0,2078.0,25.0,-3.0,
2066.0,2076.0,25.0,-3.0,
2040.0,2101.0,25.0,-3.0,
2024.0,2117.0,25.0,-3.0,
2030.0,2083.0,25.0,-3.0,
2042.0,2089.0,26.0,-3.0,
2108.0,2080.0,25.0,-3.0,
2119.0,2086.0,25.0,-3.0,
2099.0,2102.0,25.0,-3.0,
2108.0,2103.0,25.0,-3.0,
2078.0,2108.0,25.0,-3.0,
2122.0,2096.0,26.0,-3.0,
2072.0,2067.0,26.0,-3.0,
2074.0,2102.0,25.0,-3.0,
2088.0,2093.0,26.0,-3.0,
2082.0,2057.0,25.0,-3.0,
2062.0,2058.0,26.0,-3.0,
2096.0,2087.0,26.0,-3.0,
2066.0,2091.0,25.0,-3.0,
2072.0,2092.0,25.0,-3.0,
2060.0,2092.0,25.0,-3.0,
2045.0,2091.0,25.0,-3.0,
2074.0,2099.0,25.0,-3.0,
2068.0,2110.0,25.0,-3.0,
2067.0,2114.0,25.0,-3.0,
2088.0,2077.0,25.0,-3.0,
2084.0,2115.0,25.0,-3.0,
2077.0,2089.0,25.0,-3.0,
2075.0,2086.0,25.0,-3.0,
2110.0,2086.0,25.0,-3.0,
2065.0,2107.0,25.0,-3.0,
2077.0,2108.0,25.0,-3.0,
2101.0,2104.0,25.0,-3.0,
2071.0,2102.0,25.0,-3.0,
2080.0,2098.0,25.0,-3.0,
2067.0,2094.0,25.0,-3.0,
2056.0,2089.0,25.0,-3.0,
2071.0,2088.0,25.0,-3.0,
2056.0,2083.0,25.0,-3.0,
2074.0,2088.0,25.0,-3.0,
2019.0,2085.0,25.0,-3.0,
2073.0,2090.0,25.0,-3.0,
2083.0,2091.0,25.0,-3.0,
2061.0,2089.0,25.0,-3.0,
2064.0,2085.0,25.0,-3.0,
2065.0,2087.0,25.0,-3.0,
2070.0,2090.0,25.0,-3.0,
2046.0,2091.0,25.0,-3.0,
2056.0,2107.0,25.0,-3.0,
2050.0,2097.0,25.0,-3.0,
2048.0,2095.0,25.0,-3.0,
2042.0,2097.0,25.0,-3.0,
2054.0,2097.0,25.0,-3.0,
2071.0,2075.0,25.0,-3.0,
2070.0,2067.0,25.0,-3.0,
2073.0,2072.0,25.0,-3.0,
2072.0,2107.0,25.0,-3.0,
2112.0,2122.0,25.0,-3.0,
2095.0,2107.0,25.0,-3.0,
2108.0,2097.0,25.0,-3.0,
2094.0,2093.0,25.0,-3.0,
2096.0,2118.0,25.0,-3.0,
2066.0,2109.0,25.0,-3.0,
2064.0,2068.0,25.0,-3.0,
2054.0,2088.0,25.0,-3.0,
2040.0,2106.0,25.0,-3.0,
2071.0,2112.0,25.0,-3.0,
2082.0,2102.0,25.0,-3.0,
2089.0,2080.0,25.0,-3.0,
2095.0,2135.0,25.0,-3.0,
2070.0,2116.0,25.0,-3.0,
2078.0,2033.0,25.0,-3.0,
2066.0,2045.0,25.0,-3.0,
2044.0,2063.0,25.0,-3.0,
2055.0,2105.0,25.0,-3.0,
2074.0,2080.0,25.0,-3.0,
2076.0,2099.0,25.0,-3.0,
2085.0,2103.0,25.0,-3.0,
2068.0,2083.0,25.0,-3.0,
2071.0,2085.0,25.0,-3.0,
2041.0,2101.0,25.0,-3.0,
2066.0,2117.0,25.0,-3.0,
2076.0,2107.0,25.0,-3.0,
2065.0,2097.0,25.0,-3.0,
2072.0,2106.0,25.0,-3.0,
2088.0,2101.0,25.0,-3.0,
2079.0,2096.0,25.0,-3.0,
2061.0,2095.0,25.0,-3.0,
2050.0,2094.0,25.0,-3.0,
2042.0,2086.0,25.0,-3.0,
2043.0,2090.0,25.0,-3.0,
2044.0,2095.0,25.0,-3.0,
2083.0,2095.0,25.0,-3.0,
2078.0,2086.0,25.0,-3.0,
2079.0,2091.0,25.0,-3.0,
2123.0,2089.0,25.0,-3.0,
2142.0,2082.0,25.0,-3.0,
2090.0,2072.0,25.0,-3.0,
2013.0,2112.0,25.0,-3.0,
2028.0,2103.0,25.0,-3.0,
2055.0,2098.0,25.0,-3.0,
2056.0,2103.0,25.0,-3.0,
2073.0,2093.0,25.0,-3.0,
2096.0,2106.0,25.0,-3.0,
2065.0,2080.0,25.0,-3.0,
2087.0,2105.0,25.0,-3.0,
2055.0,2089.0,26.0,-3.0,
2107.0,2087.0,25.0,-3.0,
2110.0,2100.0,25.0,-3.0,
2069.0,2097.0,25.0,-3.0,
2086.0,2093.0,25.0,-3.0,
2090.0,2116.0,25.0,-3.0,
2071.0,2107.0,25.0,-3.0,
2061.0,2087.0,25.0,-3.0,
2065.0,2080.0,25.0,-3.0,
2033.0,2065.0,25.0,-3.0,
2046.0,2050.0,25.0,-3.0,
2049.0,2100.0,25.0,-3.0,
2052.0,2105.0,25.0,-3.0,
2074.0,2074.0,25.0,-3.0,
2084.0,2088.0,25.0,-3.0,
2081.0,2076.0,25.0,-3.0,
2062.0,2091.0,25.0,-3.0,
2054.0,2105.0,25.0,-3.0,
2048.0,2079.0,25.0,-3.0,
2049.0,2087.0,25.0,-3.0,
2055.0,2120.0,25.0,-3.0,
2070.0,2109.0,25.0,-3.0,
2093.0,2110.0,25.0,-3.0,
2080.0,2108.0,25.0,-3.0,
2063.0,2104.0,25.0,-3.0,
2087.0,2104.0,25.0,-3.0,
2093.0,2109.0,25.0,-3.0,
2054.0,2091.0,25.0,-3.0,
2028.0,2094.0,25.0,-3.0,
2043.0,2076.0,25.0,-3.0,
2063.0,2071.0,25.0,-3.0,
2109.0,2085.0,25.0,-3.0,
2077.0,2092.0,25.0,-3.0,
2142.0,2087.0,25.0,-3.0,
2081.0,2094.0,25.0,-3.0,
2069.0,2082.0,25.0,-3.0,
2051.0,2080.0,25.0,-3.0,
2102.0,2086.0,25.0,-3.0,
2112.0,2084.0,25.0,-3.0,
2113.0,2081.0,25.0,-3.0,
2073.0,2084.0,25.0,-3.0,
2078.0,2112.0,25.0,-3.0,
2057.0,2105.0,25.0,-3.0,
2040.0,2080.0,25.0,-3.0,
2077.0,2086.0,25.0,-3.0,
2063.0,2104.0,25.0,-3.0,
2041.0,2115.0,25.0,-3.0,
2063.0,2114.0,25.0,-3.0,
2072.0,2110.0,25.0,-3.0,
2144.0,2092.0,25.0,-3.0,
2104.0,2078.0,25.0,-3.0,
2078.0,2096.0,25.0,-3.0,
2074.0,2089.0,25.0,-3.0,
2058.0,2101.0,25.0,-3.0,
2033.0,2084.0,25.0,-3.0,
2047.0,2114.0,25.0,-3.0,
2054.0,2081.0,25.0,-3.0,
2083.0,2060.0,25.0,-3.0,
2075.0,2082.0,25.0,-3.0,
2060.0,2088.0,25.0,-3.0,
2069.0,2097.0,25.0,-3.0,
2055.0,2092.0,25.0,-3.0,
2035.0,2094.0,25.0,-3.0,
2030.0,2083.0,25.0,-3.0,
2051.0,2095.0,25.0,-3.0,
2045.0,2122.0,25.0,-3.0,
2110.0,2109.0,25.0,-3.0,
2152.0,2077.0,25.0,-3.0,
2099.0,2079.0,25.0,-3.0,
2062.0,2094.0,25.0,-3.0,
2038.0,2100.0,25.0,-3.0,
2040.0,2083.0,25.0,-3.0,
2060.0,2066.0,26.0,-3.0,
2074.0,2090.0,26.0,-3.0,
2083.0,2145.0,26.0,-3.0,
2088.0,2118.0,26.0,-3.0,
2100.0,2096.0,26.0,-3.0,
2136.0,2076.0,26.0,-3.0,
2066.0,2088.0,26.0,-3.0,
2043.0,2090.0,26.0,-3.0,
2027.0,2116.0,25.0,-3.0,
2026.0,2083.0,25.0,-3.0,
2075.0,2099.0,25.0,-3.0,
2084.0,2103.0,25.0,-3.0,
2060.0,2150.0,25.0,-3.0,
2100.0,2152.0,25.0,-3.0,
2087.0,2091.0,25.0,-3.0,
2089.0,2064.0,25.0,-3.0,
2070.0,2001.0,25.0,-3.0,
2063.0,2071.0,25.0,-3.0,
2070.0,2039.0,25.0,-3.0,
2056.0,2083.0,25.0,-3.0,
2054.0,2099.0,25.0,-3.0,
2080.0,2097.0,25.0,-3.0,
2035.0,2097.0,25.0,-3.0,
2065.0,2077.0,25.0,-3.0,
2081.0,2104.0,25.0,-3.0,
2062.0,2104.0,25.0,-3.0,
2039.0,2118.0,25.0,-3.0,
2087.0,2123.0,25.0,-3.0,
2038.0,2151.0,24.0,-3.0,
2083.0,2087.0,24.0,-3.0,
2065.0,2105.0,24.0,-3.0,
2049.0,2063.0,24.0,-3.0,
2070.0,2064.0,24.0,-3.0,
2070.0,2093.0,24.0,-3.0,
2043.0,2103.0,24.0,-3.0,
2026.0,2092.0,24.0,-3.0,
2032.0,2092.0,24.0,-3.0,
2093.0,2110.0,24.0,-3.0,
2135.0,2153.0,24.0,-3.0,
2065.0,2069.0,24.0,-3.0,
2077.0,2182.0,24.0,-3.0,
2065.0,2121.0,24.0,-3.0,
2035.0,2066.0,24.0,-3.0,
2093.0,2067.0,24.0,-3.0,
2073.0,2057.0,24.0,-3.0,
2084.0,2056.0,24.0,-3.0,
2137.0,2117.0,24.0,-3.0,
2159.0,2132.0,25.0,-3.0,
2092.0,2111.0,25.0,-3.0,
2056.0,2117.0,25.0,-3.0,
1993.0,2089.0,25.0,-3.0,
2013.0,2076.0,25.0,-3.0,
2044.0,2070.0,25.0,-3.0,
2116.0,2082.0,25.0,-3.0,
2106.0,2081.0,25.0,-3.0,
2090.0,2103.0,25.0,-3.0,
2067.0,2163.0,25.0,-3.0,
2047.0,2125.0,25.0,-3.0,
2017.0,2113.0,25.0,-3.0,
2092.0,2113.0,25.0,-3.0,
2052.0,2110.0,26.0,-3.0,
2061.0,2027.0,26.0,-3.0,
2071.0,2068.0,26.0,-3.0,
2071.0,2072.0,26.0,-3.0,
2120.0,2151.0,26.0,-3.0,
2105.0,2138.0,26.0,-3.0,
2049.0,2058.0,26.0,-3.0,
2054.0,2129.0,26.0,-3.0,
2007.0,2103.0,27.0,-3.0,
1997.0,2049.0,27.0,-3.0,
2053.0,2070.0,27.0,-3.0,
2077.0,2139.0,27.0,-3.0,
2160.0,2163.0,27.0,-3.0,
2087.0,1981.0,27.0,-3.0,
2077.0,1940.0,27.0,-3.0,
2035.0,1973.0,27.0,-3.0,
2048.0,2079.0,27.0,-3.0,
2067.0,2120.0,26.0,-3.0,
2031.0,2049.0,26.0,-3.0,
2056.0,2034.0,26.0,-3.0,
2094.0,2095.0,26.0,-3.0,
2121.0,2160.0,26.0,-3.0,
2100.0,2139.0,26.0,-2.0,
2062.0,2228.0,26.0,-2.0,
2084.0,2125.0,25.0,-2.0,
2052.0,2047.0,25.0,-3.0,
2025.0,2011.0,25.0,-3.0,
2029.0,2143.0,25.0,-3.0,
2045.0,2081.0,25.0,-3.0,
2147.0,2045.0,25.0,-3.0,
2134.0,2029.0,25.0,-3.0,
2095.0,2102.0,25.0,-3.0,
2066.0,2141.0,24.0,-3.0,
2060.0,2151.0,24.0,-3.0,
2054.0,2135.0,24.0,-3.0,
2072.0,2109.0,24.0,-3.0,
2080.0,2102.0,24.0,-3.0,
2095.0,2129.0,24.0,-3.0,
2112.0,2100.0,24.0,-3.0,
2063.0,2125.0,24.0,-3.0,
2058.0,2169.0,25.0,-3.0,
2053.0,2111.0,25.0,-3.0,
2037.0,2041.0,25.0,-3.0,
2093.0,2082.0,0,
2075.0,2065.0,25.0,-3.0,
2075.0,2099.0,26.0,-3.0,
2079.0,2118.0,26.0,-3.0,
2056.0,2112.0,26.0,-3.0,
2075.0,2111.0,26.0,-3.0,
2087.0,2095.0,26.0,-3.0,
2092.0,2036.0,27.0,-3.0,
2058.0,2106.0,27.0,-3.0,
2076.0,2073.0,27.0,-3.0,
2078.0,2092.0,28.0,-3.0,
2050.0,2097.0,28.0,-3.0,
2063.0,2065.0,28.0,-3.0,
2085.0,2011.0,28.0,-3.0,
2080.0,2002.0,28.0,-3.0,
2078.0,2132.0,28.0,-3.0,
1994.0,2098.0,29.0,-3.0,
2058.0,2170.0,29.0,-3.0,
2091.0,2122.0,29.0,-3.0,
2079.0,2144.0,29.0,-3.0,
2052.0,2234.0,29.0,-3.0,
2080.0,2080.0,29.0,-3.0,
2062.0,1974.0,29.0,-3.0,
2133.0,2057.0,29.0,-2.0,
2072.0,2069.0,28.0,-2.0,
2030.0,2072.0,28.0,-2.0,
2036.0,1963.0,28.0,-2.0,
2058.0,2118.0,28.0,-2.0,
2038.0,2005.0,28.0,-2.0,
2092.0,2097.0,28.0,-2.0,
2122.0,2136.0,28.0,-2.0,
2109.0,2164.0,28.0,-2.0,
2043.0,2143.0,28.0,-2.0,
2062.0,2091.0,28.0,-2.0,
2049.0,2108.0,28.0,-2.0,
2057.0,2112.0,28.0,-2.0,
2044.0,2040.0,28.0,-2.0,
2049.0,2091.0,28.0,-2.0,
2072.0,2108.0,28.0,-2.0,
2073.0,2131.0,28.0,-2.0,
2084.0,2129.0,29.0,-3.0,
2140.0,2101.0,29.0,-3.0,
2091.0,2094.0,29.0,-3.0,
2041.0,2087.0,29.0,-3.0,
2078.0,2127.0,29.0,-3.0,
2146.0,2150.0,29.0,-3.0,
2147.0,2089.0,29.0,-3.0,
2112.0,2067.0,30.0,-3.0,
2090.0,2094.0,30.0,-3.0,
2047.0,2032.0,30.0,-3.0,
2089.0,2045.0,30.0,-3.0,
2080.0,2102.0,30.0,-3.0,
2033.0,2119.0,30.0,-3.0,
2018.0,2118.0,31.0,-3.0,
2048.0,2085.0,31.0,-3.0,
2030.0,2058.0,31.0,-3.0,
2032.0,2059.0,31.0,-3.0,
2067.0,2061.0,31.0,-3.0,
2065.0,2091.0,31.0,-3.0,
2041.0,2114.0,32.0,-3.0,
2029.0,2086.0,32.0,-3.0,
2040.0,2135.0,32.0,-3.0,
2020.0,2269.0,32.0,-3.0,
2075.0,2109.0,32.0,-3.0,
2054.0,2117.0,32.0,-3.0,
2114.0,1989.0,32.0,-3.0,
2091.0,2026.0,33.0,-3.0,
2113.0,2023.0,33.0,-3.0,
2078.0,2065.0,33.0,-3.0,
2068.0,2095.0,33.0,-3.0,
2084.0,2090.0,33.0,-3.0,
2099.0,2105.0,33.0,-3.0,
2136.0,2081.0,33.0,-3.0,
2072.0,2125.0,34.0,-3.0,
2070.0,2134.0,34.0,-3.0,
2066.0,2042.0,34.0,-3.0,
2070.0,2080.0,34.0,-2.0,
2041.0,2061.0,34.0,-2.0,
2078.0,2095.0,34.0,-2.0,
2136.0,2099.0,34.0,-2.0,
2052.0,2077.0,35.0,-2.0,
2102.0,2189.0,35.0,-2.0,
2110.0,2150.0,35.0,-2.0,
2045.0,2035.0,35.0,-2.0,
2031.0,2084.0,35.0,-2.0,
2100.0,2148.0,36.0,-2.0,
1993.0,2068.0,36.0,-2.0,
2029.0,2044.0,36.0,-2.0,
2069.0,2146.0,36.0,-2.0,
2078.0,2060.0,36.0,-2.0,
2074.0,2049.0,37.0,-2.0,
2106.0,2081.0,37.0,-2.0,
2089.0,2048.0,37.0,-2.0,
2053.0,2136.0,37.0,-2.0,
2066.0,2179.0,37.0,-2.0,
2067.0,2136.0,37.0,-2.0,
2018.0,2068.0,37.0,-2.0,
2044.0,2058.0,37.0,-2.0,
2055.0,2081.0,37.0,-2.0,
2102.0,2047.0,37.0,-2.0,
2095.0,2045.0,37.0,-2.0,
2105.0,2156.0,37.0,-2.0,
2067.0,2125.0,37.0,-3.0,
2022.0,2020.0,36.0,-3.0,
2046.0,2028.0,36.0,-3.0,
2064.0,2105.0,36.0,-3.0,
2084.0,2155.0,36.0,-3.0,
2097.0,2170.0,37.0,-3.0,
2047.0,2140.0,37.0,-3.0,
2023.0,2148.0,37.0,-3.0,
2048.0,2038.0,38.0,-3.0,
2123.0,2100.0,38.0,-3.0,
2054.0,2074.0,39.0,-2.0,
2105.0,2090.0,39.0,-2.0,
2107.0,2120.0,40.0,-2.0,
2083.0,2093.0,41.0,-2.0,
2099.0,2105.0,41.0,-2.0,
2094.0,2093.0,41.0,-2.0,
2065.0,2081.0,41.0,-2.0,
2087.0,2144.0,41.0,-2.0,
2110.0,2034.0,41.0,-3.0,
2088.0,2074.0,41.0,-3.0,
2051.0,2083.0,41.0,-3.0,
2061.0,2081.0,42.0,-3.0,
2091.0,2111.0,42.0,-3.0,
2073.0,2082.0,42.0,-3.0,
2075.0,2045.0,42.0,-3.0,
2091.0,2106.0,42.0,-3.0,
2085.0,2098.0,42.0,-3.0,
2036.0,2128.0,42.0,-3.0,
2020.0,2095.0,42.0,-3.0,
2065.0,2177.0,42.0,-3.0,
2102.0,2173.0,42.0,-3.0,
2062.0,2286.0,42.0,-3.0,
2072.0,2014.0,42.0,-3.0,
2013.0,2003.0,42.0,-3.0,
2066.0,2027.0,43.0,-3.0,
2082.0,1976.0,43.0,-3.0,
2073.0,2001.0,42.0,-3.0,
2054.0,2025.0,42.0,-3.0,
2049.0,2079.0,42.0,-3.0,
2099.0,2190.0,42.0,-3.0,
2089.0,2073.0,42.0,-3.0,
2014.0,1979.0,42.0,-3.0,
2070.0,2118.0,42.0,-3.0,
2093.0,2145.0,42.0,-3.0,
2086.0,2114.0,42.0,-3.0,
2068.0,2062.0,42.0,-3.0,
2076.0,2147.0,42.0,-3.0,
2034.0,2168.0,42.0,-3.0,
2109.0,2187.0,42.0,-3.0,
2118.0,2081.0,42.0,-3.0,
2066.0,2087.0,42.0,-3.0,
2108.0,2097.0,42.0,-3.0,
2071.0,2110.0,43.0,-3.0,
2004.0,2115.0,43.0,-3.0,
2065.0,2083.0,43.0,-3.0,
2063.0,2071.0,43.0,-3.0,
2064.0,2111.0,43.0,-3.0,
2099.0,2103.0,44.0,-3.0,
2070.0,2026.0,44.0,-3.0,
2092.0,2066.0,44.0,-3.0,
2032.0,2152.0,44.0,-3.0,
2008.0,2061.0,44.0,-3.0,
2085.0,2135.0,44.0,-3.0,
2047.0,2038.0,45.0,-3.0,
2046.0,2067.0,45.0,-3.0,
2125.0,2077.0,45.0,-3.0,
2070.0,2084.0,45.0,-3.0,
2112.0,2144.0,45.0,-3.0,
2113.0,2152.0,45.0,-3.0,
2131.0,2039.0,45.0,-3.0,
2090.0,2041.0,45.0,-3.0,
2028.0,2161.0,45.0,-3.0,
2075.0,2046.0,45.0,-3.0,
2015.0,2048.0,45.0,-3.0,
2081.0,2136.0,45.0,-3.0,
2063.0,2062.0,45.0,-3.0,
2075.0,2031.0,45.0,-3.0,
2059.0,2137.0,45.0,-3.0,
2078.0,2268.0,46.0,-3.0,
2026.0,2070.0,46.0,-3.0,
2070.0,2141.0,46.0,-3.0,
2094.0,2189.0,46.0,-3.0,
2034.0,2013.0,46.0,-3.0,
2073.0,1995.0,46.0,-3.0,
2019.0,1936.0,46.0,-3.0,
2058.0,2149.0,46.0,-3.0,
2103.0,2012.0,46.0,-3.0,
2052.0,1992.0,46.0,-3.0,
2084.0,2081.0,46.0,-3.0,
2096.0,2128.0,46.0,-3.0,
2063.0,2168.0,46.0,-3.0,
2126.0,2175.0,46.0,-3.0,
2087.0,2124.0,47.0,-3.0,
2080.0,2088.0,47.0,-3.0,
2089.0,2132.0,47.0,-3.0,
2078.0,2168.0,0,
2078.0,2123.0,47.0,-3.0,
2041.0,2090.0,48.0,-3.0,
2012.0,2080.0,48.0,-3.0,
2033.0,2120.0,48.0,-3.0,
2085.0,2025.0,48.0,-3.0,
2106.0,2091.0,48.0,-3.0,
2100.0,2103.0,49.0,-3.0,
2084.0,2084.0,49.0,-3.0,
2063.0,2038.0,49.0,-3.0,
2043.0,2102.0,49.0,-3.0,
2059.0,2113.0,49.0,-3.0,
2041.0,2175.0,50.0,-3.0,
2040.0,2125.0,50.0,-4.0,
2046.0,2035.0,50.0,-4.0,
2070.0,2077.0,50.0,-4.0,
2076.0,2067.0,50.0,-4.0,
2075.0,2056.0,50.0,-4.0,
2052.0,2079.0,50.0,-4.0,
2069.0,2092.0,50.0,-4.0,
2065.0,2048.0,50.0,-3.0,
2003.0,2048.0,50.0,-3.0,
2074.0,2177.0,50.0,-3.0,
2086.0,2174.0,50.0,-3.0,
2054.0,2040.0,50.0,-3.0,
2116.0,2097.0,50.0,-3.0,
2112.0,2071.0,50.0,-3.0,
2131.0,2139.0,50.0,-3.0,
2056.0,2192.0,51.0,-3.0,
2062.0,2057.0,51.0,-3.0,
2027.0,2034.0,51.0,-3.0,
2043.0,2058.0,51.0,-3.0,
2059.0,2122.0,51.0,-3.0,
2057.0,2178.0,51.0,-3.0,
2076.0,2147.0,51.0,-3.0,
2082.0,2039.0,51.0,-3.0,
2159.0,2161.0,51.0,-3.0,
2088.0,1991.0,51.0,-3.0,
1949.0,1876.0,52.0,-3.0,
2031.0,2006.0,52.0,-3.0,
2058.0,2095.0,52.0,-3.0,
2041.0,2138.0,52.0,-3.0,
2091.0,2073.0,52.0,-3.0,
2081.0,2155.0,52.0,-3.0,
2097.0,2170.0,52.0,-3.0,
2059.0,2102.0,52.0,-3.0,
2072.0,2048.0,52.0,-3.0,
2098.0,2108.0,52.0,-3.0,
2059.0,2141.0,52.0,-3.0,
2103.0,2135.0,52.0,-3.0,
2093.0,2137.0,52.0,-3.0,
2109.0,2105.0,52.0,-3.0,
2084.0,2114.0,52.0,-4.0,
2063.0,2047.0,53.0,-4.0,
2055.0,2086.0,53.0,-4.0,
2078.0,2123.0,53.0,-4.0,
2006.0,2069.0,53.0,-4.0,
2042.0,2120.0,53.0,-4.0,
2069.0,2104.0,53.0,-4.0,
2127.0,2166.0,54.0,-4.0,
2059.0,2165.0,54.0,-4.0,
2051.0,2054.0,54.0,-4.0,
2100.0,2117.0,54.0,-4.0,
2073.0,2095.0,54.0,-4.0,
2044.0,2136.0,54.0,-4.0,
2056.0,2035.0,54.0,-4.0,
2066.0,2050.0,55.0,-4.0,
2082.0,2071.0,55.0,-4.0,
2041.0,1942.0,55.0,-4.0,
2064.0,2101.0,55.0,-4.0,
2120.0,2127.0,55.0,-4.0,
2085.0,2060.0,55.0,-4.0,
2050.0,2092.0,55.0,-4.0,
2044.0,2102.0,55.0,-4.0,
2106.0,2228.0,55.0,-4.0,
2055.0,2130.0,55.0,-4.0,
2029.0,2079.0,56.0,-4.0,
2118.0,2004.0,56.0,-4.0,
2077.0,1938.0,56.0,-4.0,
2104.0,2179.0,56.0,-4.0,
2030.0,2063.0,56.0,-4.0,
2011.0,2036.0,56.0,-4.0,
2061.0,2052.0,56.0,-4.0,
2039.0,2024.0,56.0,-4.0,
2057.0,2092.0,56.0,-4.0,
2068.0,2107.0,56.0,-4.0,
2132.0,2120.0,56.0,-4.0,
2124.0,2137.0,56.0,-3.0,
2094.0,2134.0,56.0,-3.0,
2097.0,2228.0,56.0,-3.0,
2064.0,2205.0,56.0,-3.0,
1942.0,1977.0,57.0,-3.0,
2048.0,2065.0,57.0,-4.0,
2051.0,2008.0,57.0,-4.0,
2071.0,2040.0,57.0,-3.0,
2098.0,2123.0,57.0,-4.0,
2078.0,2082.0,57.0,-4.0,
2123.0,2126.0,57.0,-4.0,
2045.0,2180.0,58.0,-4.0,
2019.0,2042.0,58.0,-4.0,
2065.0,2065.0,58.0,-4.0,
2090.0,2100.0,58.0,-4.0,
2035.0,2190.0,58.0,-4.0,
2094.0,2188.0,58.0,-4.0,
2069.0,2046.0,58.0,-4.0,
2065.0,2049.0,58.0,-4.0,
2089.0,2085.0,58.0,-4.0,
2050.0,2046.0,58.0,-4.0,
2047.0,2067.0,59.0,-4.0,
2042.0,2093.0,59.0,-4.0,
2086.0,2128.0,59.0,-4.0,
2130.0,2104.0,59.0,-4.0,
2103.0,2030.0,59.0,-4.0,
2093.0,2079.0,59.0,-4.0,
2074.0,2112.0,59.0,-4.0,
2070.0,2116.0,59.0,-4.0,
2061.0,2154.0,59.0,-4.0,
2086.0,2075.0,59.0,-4.0,
2071.0,2151.0,59.0,-4.0,
2096.0,2061.0,59.0,-4.0,
2089.0,2064.0,59.0,-4.0,
2060.0,2046.0,59.0,-4.0,
2061.0,2077.0,60.0,-4.0,
2057.0,2111.0,60.0,-4.0,
2135.0,2181.0,60.0,-4.0,
1972.0,2050.0,60.0,-4.0,
2054.0,2060.0,60.0,-4.0,
2058.0,1961.0,60.0,-4.0,
2099.0,2059.0,60.0,-4.0,
2126.0,2093.0,60.0,-4.0,
2104.0,2100.0,60.0,-4.0,
2061.0,2139.0,60.0,-4.0,
2073.0,2123.0,60.0,-4.0,
2065.0,2105.0,60.0,-4.0,
2059.0,2048.0,60.0,-4.0,
2051.0,2134.0,60.0,-4.0,
2058.0,2235.0,61.0,-4.0,
2075.0,1949.0,61.0,-4.0,
2088.0,2127.0,61.0,-4.0,
2074.0,2041.0,61.0,-4.0,
2055.0,2135.0,61.0,-4.0,
2042.0,2066.0,61.0,-4.0,
2067.0,2204.0,61.0,-4.0,
2073.0,2184.0,61.0,-4.0,
2044.0,1969.0,61.0,-4.0,
2058.0,2069.0,61.0,-4.0,
2046.0,2064.0,61.0,-4.0,
2125.0,2073.0,61.0,-4.0,
2176.0,2134.0,61.0,-4.0,
2028.0,2013.0,61.0,-4.0,
2041.0,1994.0,61.0,-4.0,
2040.0,2084.0,61.0,-4.0,
2102.0,2166.0,61.0,-4.0,
2086.0,2178.0,61.0,-4.0,
1988.0,1962.0,61.0,-4.0,
2042.0,2074.0,60.0,-4.0,
2138.0,2123.0,60.0,-4.0,
2141.0,2145.0,60.0,-4.0,
2060.0,2214.0,60.0,-4.0,
2049.0,2027.0,60.0,-4.0,
2046.0,2071.0,60.0,-4.0,
2102.0,2047.0,60.0,-4.0,
2074.0,2120.0,60.0,-4.0,
2098.0,2132.0,60.0,-4.0,
2070.0,2071.0,60.0,-4.0,
2076.0,2114.0,60.0,-4.0,
2090.0,2091.0,60.0,-4.0,
2054.0,2106.0,60.0,-4.0,
2081.0,2107.0,60.0,-4.0,
2092.0,2114.0,60.0,-4.0,
2060.0,2096.0,59.0,-4.0,
2067.0,2110.0,59.0,-4.0,
2079.0,2155.0,59.0,-4.0,
2059.0,2074.0,60.0,-4.0,
2078.0,2119.0,60.0,-4.0,
2046.0,2078.0,60.0,-4.0,
2047.0,2021.0,60.0,-4.0,
2060.0,2029.0,60.0,-4.0,
2054.0,2060.0,60.0,-4.0,
2081.0,2106.0,60.0,-4.0,
2093.0,2108.0,60.0,-4.0,
2065.0,2126.0,60.0,-4.0,
2097.0,2124.0,60.0,-4.0,
2070.0,2099.0,60.0,-5.0,
2066.0,2112.0,60.0,-4.0,
2121.0,2128.0,60.0,-4.0,
2083.0,2046.0,60.0,-4.0,
2053.0,2098.0,60.0,-4.0,
2070.0,2100.0,61.0,-4.0,
2102.0,2115.0,61.0,-4.0,
2100.0,2166.0,61.0,-4.0,
2055.0,2174.0,61.0,-4.0,
2031.0,2031.0,61.0,-4.0,
2073.0,1997.0,61.0,-4.0,
2086.0,2087.0,61.0,-4.0,
2047.0,2069.0,61.0,-4.0,
2087.0,2128.0,61.0,-4.0,
2134.0,2060.0,61.0,-4.0,
2079.0,2093.0,61.0,-4.0,
2048.0,2040.0,62.0,-4.0,
2044.0,2029.0,62.0,-4.0,
2046.0,2085.0,62.0,-4.0,
2047.0,2112.0,62.0,-4.0,
2086.0,2196.0,62.0,-4.0,
2038.0,2061.0,61.0,-4.0,
2099.0,2062.0,61.0,-4.0,
2155.0,2176.0,61.0,-4.0,
2124.0,2049.0,61.0,-4.0,
2095.0,2117.0,61.0,-4.0,
2071.0,2057.0,61.0,-4.0,
2095.0,2105.0,60.0,-4.0,
2070.0,2097.0,60.0,-4.0,
2048.0,2170.0,0,
2087.0,2180.0,60.0,-4.0,
2079.0,2102.0,60.0,-4.0,
2078.0,2091.0,60.0,-4.0,
2024.0,2083.0,60.0,-4.0,
2030.0,2050.0,60.0,-4.0,
2087.0,2092.0,60.0,-4.0,
2035.0,2059.0,60.0,-4.0,
2127.0,2135.0,60.0,-4.0,
2092.0,2110.0,59.0,-4.0,
2075.0,2009.0,59.0,-4.0,
2096.0,2067.0,59.0,-4.0,
2110.0,2103.0,59.0,-4.0,
2073.0,2113.0,59.0,-4.0,
2084.0,2090.0,59.0,-4.0,
2055.0,2179.0,59.0,-4.0,
2062.0,2171.0,59.0,-4.0,
2045.0,2074.0,59.0,-5.0,
2046.0,2025.0,59.0,-5.0,
2057.0,2073.0,59.0,-5.0,
2082.0,2075.0,59.0,-5.0,
2083.0,2072.0,59.0,-5.0,
2061.0,2055.0,59.0,-4.0,
2064.0,2121.0,59.0,-4.0,
2058.0,2091.0,59.0,-4.0,
2089.0,2090.0,59.0,-4.0,
2071.0,2104.0,59.0,-4.0,
2034.0,2143.0,59.0,-4.0,
2076.0,2099.0,59.0,-4.0,
2100.0,2101.0,59.0,-4.0,
2089.0,2136.0,59.0,-4.0,
2121.0,2078.0,59.0,-4.0,
2058.0,2082.0,59.0,-4.0,
2026.0,2079.0,59.0,-4.0,
2038.0,2106.0,59.0,-4.0,
2032.0,2105.0,59.0,-4.0,
2086.0,2141.0,59.0,-4.0,
2088.0,2064.0,59.0,-4.0,
2122.0,2104.0,60.0,-4.0,
2137.0,2169.0,60.0,-4.0,
2083.0,2024.0,60.0,-4.0,
2037.0,2035.0,60.0,-4.0,
2027.0,2086.0,60.0,-4.0,
2068.0,2045.0,60.0,-4.0,
2036.0,2034.0,60.0,-4.0,
2051.0,2022.0,60.0,-4.0,
2063.0,2064.0,60.0,-4.0,
2114.0,2078.0,61.0,-4.0,
2071.0,2167.0,60.0,-4.0,
2068.0,2105.0,60.0,-4.0,
2050.0,2056.0,60.0,-4.0,
2040.0,2080.0,60.0,-4.0,
2058.0,2121.0,60.0,-4.0,
2059.0,2125.0,60.0,-4.0,
2108.0,2104.0,60.0,-4.0,
2146.0,2124.0,60.0,-4.0,
2149.0,2123.0,60.0,-4.0,
2083.0,2111.0,60.0,-4.0,
2026.0,2132.0,60.0,-4.0,
2036.0,2092.0,60.0,-4.0,
2047.0,2084.0,60.0,-4.0,
2093.0,2117.0,60.0,-4.0,
2003.0,2105.0,60.0,-4.0,
2044.0,2053.0,60.0,-4.0,
2143.0,2073.0,60.0,-4.0,
2081.0,2065.0,60.0,-4.0,
2068.0,2053.0,60.0,-4.0,
2085.0,2091.0,60.0,-4.0,
2072.0,2078.0,60.0,-4.0,
2098.0,2095.0,60.0,-4.0,
2073.0,2105.0,60.0,-4.0,
2053.0,2193.0,59.0,-4.0,
2049.0,2105.0,59.0,-4.0,
2070.0,2091.0,59.0,-4.0,
2054.0,2021.0,59.0,-4.0,
2080.0,2097.0,59.0,-4.0,
2092.0,2136.0,59.0,-4.0,
2035.0,2105.0,58.0,-4.0,
2034.0,2102.0,58.0,-4.0,
2082.0,2064.0,58.0,-4.0,
2068.0,2078.0,58.0,-4.0,
2068.0,2122.0,58.0,-4.0,
2056.0,2108.0,58.0,-4.0,
2081.0,2108.0,58.0,-4.0,
2087.0,2161.0,58.0,-4.0,
2076.0,2078.0,57.0,-4.0,
2085.0,2070.0,57.0,-4.0,
2063.0,2081.0,57.0,-4.0,
2078.0,2100.0,57.0,-4.0,
2104.0,2055.0,57.0,-4.0,
2023.0,2089.0,57.0,-4.0,
2067.0,2070.0,57.0,-4.0,
2056.0,2136.0,57.0,-4.0,
2048.0,2095.0,57.0,-4.0,
2061.0,2006.0,57.0,-4.0,
2101.0,2090.0,57.0,-4.0,
2079.0,2156.0,57.0,-4.0,
2062.0,2049.0,57.0,-4.0,
2122.0,2095.0,56.0,-4.0,
2092.0,2071.0,56.0,-4.0,
2084.0,2099.0,56.0,-4.0,
2072.0,2125.0,55.0,-4.0,
2061.0,2083.0,55.0,-4.0,
1985.0,1966.0,55.0,-3.0,
2077.0,2032.0,55.0,-3.0,
2130.0,2182.0,54.0,-3.0,
2098.0,2220.0,54.0,-3.0,
2072.0,2047.0,54.0,-3.0,
2083.0,2120.0,54.0,-3.0,
2096.0,2131.0,54.0,-3.0,
2087.0,2138.0,53.0,-3.0,
2060.0,2123.0,53.0,-3.0,
2069.0,2108.0,53.0,-3.0,
2014.0,2084.0,53.0,-3.0,
2063.0,2076.0,53.0,-3.0,
2068.0,2101.0,53.0,-3.0,
2089.0,2091.0,53.0,-3.0,
2051.0,2087.0,53.0,-3.0,
2087.0,2105.0,53.0,-3.0,
2092.0,2108.0,53.0,-3.0,
2030.0,2087.0,53.0,-3.0,
2044.0,2074.0,53.0,-3.0,
2082.0,2088.0,53.0,-4.0,
2094.0,2105.0,53.0,-4.0,
2071.0,2110.0,53.0,-4.0,
2083.0,2069.0,53.0,-4.0,
2104.0,2061.0,53.0,-4.0,
2064.0,2072.0,53.0,-4.0,
2037.0,2096.0,53.0,-4.0,
2075.0,2098.0,53.0,-4.0,
2061.0,2089.0,53.0,-4.0,
2077.0,2122.0,53.0,-4.0,
2059.0,2047.0,53.0,-4.0,
2082.0,2093.0,53.0,-4.0,
2081.0,2137.0,53.0,-4.0,
2090.0,2165.0,54.0,-4.0,
2112.0,2127.0,54.0,-4.0,
2043.0,1994.0,54.0,-4.0,
2038.0,2064.0,54.0,-4.0,
2049.0,2046.0,54.0,-4.0,
2036.0,2103.0,54.0,-4.0,
2071.0,2136.0,54.0,-4.0,
2151.0,2062.0,54.0,-4.0,
2135.0,2067.0,54.0,-4.0,
2086.0,2068.0,54.0,-4.0,
2042.0,2043.0,53.0,-4.0,
2031.0,2064.0,53.0,-4.0,
2056.0,2094.0,53.0,-4.0,
2014.0,2130.0,53.0,-4.0,
2058.0,2122.0,53.0,-4.0,
2074.0,2073.0,52.0,-4.0,
2125.0,2152.0,52.0,-3.0,
2075.0,2112.0,51.0,-3.0,
2111.0,2059.0,51.0,-3.0,
2071.0,2188.0,51.0,-3.0,
2032.0,2041.0,50.0,-3.0,
2030.0,2086.0,50.0,-3.0,
2041.0,2127.0,50.0,-3.0,
2045.0,2100.0,50.0,-3.0,
2107.0,2128.0,49.0,-3.0,
2095.0,2095.0,49.0,-3.0,
2057.0,2016.0,49.0,-3.0,
2088.0,2129.0,49.0,-3.0,
2068.0,2119.0,49.0,-3.0,
2079.0,2089.0,49.0,-3.0,
2072.0,2048.0,49.0,-3.0,
2082.0,2092.0,49.0,-3.0,
2099.0,2091.0,49.0,-3.0,
2083.0,2093.0,49.0,-3.0,
2048.0,2117.0,49.0,-3.0,
2056.0,2113.0,49.0,-3.0,
2075.0,2096.0,49.0,-3.0,
2074.0,2081.0,50.0,-3.0,
2080.0,2066.0,50.0,-3.0,
2097.0,2065.0,50.0,-4.0,
2069.0,2063.0,50.0,-4.0,
2074.0,2062.0,50.0,-4.0,
2046.0,2118.0,50.0,-4.0,
2117.0,2145.0,50.0,-4.0,
2159.0,2134.0,50.0,-4.0,
2104.0,2085.0,50.0,-4.0,
2080.0,2076.0,50.0,-4.0,
2064.0,2088.0,51.0,-4.0,
2052.0,2076.0,51.0,-4.0,
2090.0,2097.0,51.0,-4.0,
2113.0,2103.0,51.0,-4.0,
2096.0,2084.0,51.0,-4.0,
2074.0,2099.0,51.0,-4.0,
2058.0,2093.0,51.0,-4.0,
2068.0,2069.0,51.0,-4.0,
1995.0,2054.0,51.0,-4.0,
2059.0,2110.0,51.0,-4.0,
2089.0,2177.0,51.0,-4.0,
2110.0,2136.0,51.0,-4.0,
2095.0,2072.0,51.0,-4.0,
2089.0,2115.0,51.0,-4.0,
2071.0,2095.0,51.0,-4.0,
2029.0,2036.0,50.0,-4.0,
2032.0,2020.0,50.0,-4.0,
2048.0,2018.0,50.0,-4.0,
2068.0,2062.0,50.0,-4.0,
2104.0,2114.0,49.0,-4.0,
2078.0,2065.0,49.0,-4.0,
2066.0,2093.0,48.0,-3.0,
2094.0,2114.0,47.0,-3.0,
2082.0,2117.0,47.0,-3.0,
2077.0,2116.0,46.0,-3.0,
2058.0,2124.0,45.0,-3.0,
2068.0,2085.0,45.0,-3.0,
2046.0,2115.0,44.0,-2.0,
2057.0,2125.0,44.0,-2.0,
2061.0,2096.0,44.0,-2.0,
2071.0,2075.0,44.0,-2.0,
2060.0,2038.0,44.0,-2.0,
2036.0,2127.0,44.0,-2.0,
2061.0,2190.0,44.0,-2.0,
2075.0,2143.0,44.0,-2.0,
2113.0,2119.0,45.0,-2.0,
2109.0,2096.0,0,
2082.0,2078.0,45.0,-2.0,
2085.0,2063.0,45.0,-2.0,
2111.0,2080.0,46.0,-2.0,
2084.0,2150.0,46.0,-2.0,
2058.0,2052.0,46.0,-2.0,
2034.0,2047.0,46.0,-3.0,
2056.0,2062.0,47.0,-3.0,
2049.0,2114.0,47.0,-3.0,
2077.0,2113.0,47.0,-3.0,
2087.0,2096.0,47.0,-3.0,
2051.0,2092.0,47.0,-3.0,
2035.0,2105.0,48.0,-3.0,
2089.0,2084.0,48.0,-3.0,
2033.0,2084.0,48.0,-3.0,
2121.0,2050.0,47.0,-3.0,
2180.0,2067.0,47.0,-3.0,
2110.0,2097.0,47.0,-3.0,
2057.0,2108.0,47.0,-3.0,
2068.0,2065.0,47.0,-3.0,
2085.0,2079.0,47.0,-3.0,
2085.0,2121.0,46.0,-3.0,
2091.0,2097.0,46.0,-3.0,
2061.0,2085.0,46.0,-3.0,
2018.0,2121.0,45.0,-3.0,
2048.0,2055.0,45.0,-3.0,
2075.0,2048.0,44.0,-3.0,
2074.0,2038.0,44.0,-3.0,
2086.0,2144.0,43.0,-3.0,
2079.0,2182.0,43.0,-3.0,
2053.0,2081.0,43.0,-3.0,
2052.0,2060.0,42.0,-3.0,
2074.0,2089.0,42.0,-3.0,
2080.0,2077.0,41.0,-3.0,
2058.0,2043.0,41.0,-3.0,
2058.0,2075.0,40.0,-3.0,
2096.0,2087.0,40.0,-3.0,
2101.0,2134.0,39.0,-3.0,
2092.0,2131.0,39.0,-2.0,
2089.0,2122.0,38.0,-2.0,
2083.0,2150.0,38.0,-2.0,
2069.0,2094.0,37.0,-2.0,
2020.0,2078.0,37.0,-2.0,
2036.0,2076.0,37.0,-2.0,
2053.0,2071.0,37.0,-2.0,
2054.0,2096.0,37.0,-2.0,
2077.0,2143.0,37.0,-2.0,
2122.0,2098.0,37.0,-2.0,
2130.0,2119.0,37.0,-2.0,
2070.0,2166.0,37.0,-2.0,
2038.0,2108.0,37.0,-2.0,
2018.0,2073.0,37.0,-2.0,
2078.0,2052.0,37.0,-2.0,
2101.0,2110.0,37.0,-2.0,
2099.0,2074.0,37.0,-2.0,
2105.0,2078.0,37.0,-2.0,
2094.0,2098.0,37.0,-3.0,
2074.0,2097.0,37.0,-3.0,
2069.0,2094.0,37.0,-3.0,
2034.0,2088.0,38.0,-3.0,
2049.0,2090.0,38.0,-3.0,
2044.0,2065.0,38.0,-3.0,
2052.0,2071.0,38.0,-3.0,
2107.0,2073.0,38.0,-3.0,
2153.0,2077.0,38.0,-3.0,
2109.0,2106.0,38.0,-3.0,
2073.0,2081.0,38.0,-3.0,
2059.0,2085.0,37.0,-3.0,
2028.0,2133.0,37.0,-3.0,
2033.0,2117.0,37.0,-3.0,
2057.0,2093.0,37.0,-3.0,
2065.0,2099.0,37.0,-3.0,
2123.0,2102.0,37.0,-3.0,
2124.0,2100.0,37.0,-3.0,
2085.0,2092.0,37.0,-3.0,
2037.0,2102.0,37.0,-3.0,
2028.0,2089.0,37.0,-3.0,
2039.0,2084.0,37.0,-3.0,
2054.0,2094.0,37.0,-3.0,
2055.0,2118.0,37.0,-3.0,
2048.0,2109.0,37.0,-3.0,
2050.0,2076.0,37.0,-3.0,
2065.0,2057.0,37.0,-3.0,
2109.0,2060.0,38.0,-3.0,
2140.0,2123.0,37.0,-3.0,
2083.0,2115.0,37.0,-3.0,
2038.0,2099.0,37.0,-3.0,
2048.0,2108.0,37.0,-3.0,
2070.0,2075.0,37.0,-3.0,
2056.0,2018.0,37.0,-3.0,
2071.0,2105.0,37.0,-3.0,
2109.0,2109.0,37.0,-3.0,
2089.0,2106.0,36.0,-3.0,
2043.0,2106.0,36.0,-3.0,
2107.0,2055.0,36.0,-3.0,
2114.0,2070.0,35.0,-3.0,
2048.0,2119.0,35.0,-2.0,
2056.0,2103.0,35.0,-2.0,
2081.0,2094.0,34.0,-2.0,
2097.0,2084.0,34.0,-2.0,
2093.0,2103.0,33.0,-2.0,
2066.0,2125.0,33.0,-2.0,
2049.0,2113.0,33.0,-2.0,
2051.0,2111.0,33.0,-2.0,
2046.0,2083.0,33.0,-2.0,
2039.0,2102.0,33.0,-2.0,
2062.0,2072.0,32.0,-2.0,
2063.0,2074.0,33.0,-2.0,
2067.0,2177.0,33.0,-2.0,
2082.0,2130.0,33.0,-2.0,
2033.0,2094.0,33.0,-2.0,
2038.0,2097.0,33.0,-2.0,
2076.0,2088.0,33.0,-2.0,
2108.0,2063.0,33.0,-2.0,
2082.0,2092.0,34.0,-2.0,
2068.0,2114.0,0,
2084.0,2117.0,34.0,-3.0,
2099.0,2078.0,34.0,-3.0,
2114.0,2074.0,34.0,-3.0,
2091.0,2083.0,34.0,-3.0,
2050.0,2115.0,34.0,-3.0,
2047.0,2081.0,34.0,-3.0,
2052.0,2078.0,34.0,-3.0,
2064.0,2116.0,34.0,-3.0,
2059.0,2130.0,34.0,-3.0,
2102.0,2099.0,34.0,-3.0,
2089.0,2052.0,34.0,-3.0,
2086.0,2065.0,34.0,-3.0,
2066.0,2090.0,34.0,-3.0,
2035.0,2078.0,34.0,-3.0,
2039.0,2085.0,34.0,-3.0,
2031.0,2093.0,34.0,-3.0,
2098.0,2097.0,33.0,-3.0,
2111.0,2104.0,33.0,-3.0,
2092.0,2130.0,33.0,-3.0,
2065.0,2070.0,33.0,-3.0,
2069.0,2114.0,33.0,-3.0,
2019.0,2111.0,33.0,-3.0,
1993.0,2107.0,33.0,-3.0,
2039.0,2086.0,33.0,-3.0,
2104.0,2075.0,33.0,-3.0,
2131.0,2081.0,33.0,-3.0,
2117.0,2097.0,33.0,-3.0,
2078.0,2112.0,33.0,-3.0,
2086.0,2103.0,33.0,-3.0,
2080.0,2073.0,33.0,-3.0,
2100.0,2068.0,0,
2069.0,2126.0,33.0,-3.0,
2074.0,2123.0,33.0,-3.0,
2064.0,2101.0,33.0,-3.0,
2080.0,2095.0,33.0,-3.0,
2078.0,2088.0,33.0,-3.0,
2087.0,2096.0,32.0,-3.0,
2101.0,2098.0,32.0,-3.0,
2078.0,2077.0,32.0,-3.0,
2026.0,2101.0,32.0,-3.0,
2055.0,2077.0,32.0,-3.0,
2056.0,2042.0,32.0,-3.0,
2066.0,2072.0,32.0,-2.0,
2053.0,2159.0,32.0,-2.0,
2101.0,2140.0,32.0,-2.0,
2105.0,2065.0,31.0,-2.0,
2101.0,2086.0,31.0,-2.0,
2067.0,2103.0,31.0,-2.0,
2064.0,2094.0,31.0,-2.0,
2057.0,2103.0,31.0,-2.0,
2057.0,2097.0,31.0,-2.0,
2096.0,2101.0,31.0,-2.0,
2102.0,2098.0,31.0,-2.0,
2078.0,2092.0,31.0,-2.0,
2037.0,2078.0,31.0,-2.0,
2068.0,2090.0,31.0,-2.0,
2019.0,2090.0,31.0,-2.0,
2050.0,2110.0,0,
2065.0,2060.0,31.0,-2.0,
2068.0,2032.0,31.0,-3.0,
2102.0,2119.0,31.0,-3.0,
2086.0,2095.0,31.0,-3.0,
2065.0,2148.0,31.0,-3.0,
2055.0,2105.0,31.0,-3.0,
2046.0,2085.0,31.0,-3.0,
2089.0,2080.0,31.0,-3.0,
2117.0,2087.0,30.0,-3.0,
2115.0,2088.0,30.0,-3.0,
2082.0,2140.0,30.0,-3.0,
2099.0,2121.0,30.0,-3.0,
2073.0,2098.0,30.0,-3.0,
2070.0,2083.0,30.0,-3.0,
2043.0,2118.0,30.0,-3.0,
2063.0,2121.0,30.0,-3.0,
2072.0,2089.0,30.0,-3.0,
2062.0,2104.0,29.0,-3.0,
2124.0,2110.0,29.0,-3.0,
2098.0,2092.0,29.0,-3.0,
2098.0,2063.0,29.0,-3.0,
2079.0,2088.0,29.0,-3.0,
2110.0,2096.0,29.0,-3.0,
2063.0,2077.0,28.0,-3.0,
2034.0,2090.0,28.0,-3.0,
2003.0,2095.0,28.0,-3.0,
2014.0,2104.0,28.0,-3.0,
2070.0,2046.0,28.0,-3.0,
2156.0,2038.0,28.0,-3.0,
2145.0,2108.0,27.0,-3.0,
2118.0,2126.0,27.0,-3.0,
2070.0,2082.0,27.0,-3.0,
2077.0,2105.0,27.0,-3.0,
2061.0,2107.0,27.0,-3.0,
2078.0,2093.0,27.0,-3.0,
2045.0,2084.0,27.0,-3.0,
2048.0,2129.0,27.0,-3.0,
2074.0,2100.0,27.0,-3.0,
2100.0,2099.0,28.0,-3.0,
2103.0,2112.0,28.0,-3.0,
2066.0,2126.0,28.0,-3.0,
2027.0,2053.0,28.0,-3.0,
2026.0,2068.0,27.0,-3.0,
2069.0,2098.0,27.0,-3.0,
2081.0,2104.0,27.0,-3.0,
2116.0,2096.0,27.0,-3.0,
2099.0,2101.0,27.0,-3.0,
2080.0,2095.0,27.0,-3.0,
2074.0,2089.0,27.0,-3.0,
2057.0,2100.0,27.0,-3.0,
2041.0,2090.0,27.0,-3.0,
2078.0,2071.0,27.0,-3.0,
2080.0,2087.0,27.0,-3.0,
2107.0,2088.0,27.0,-3.0,
2070.0,2084.0,27.0,-3.0,
2085.0,2091.0,27.0,-3.0,
2085.0,2101.0,27.0,-3.0,
2066.0,2127.0,27.0,-3.0,
2058.0,2096.0,27.0,-3.0,
2037.0,2080.0,27.0,-3.0,
2028.0,2088.0,27.0,-3.0,
2058.0,2094.0,27.0,-3.0,
2067.0,2103.0,27.0,-3.0,
2076.0,2109.0,27.0,-3.0,
2085.0,2115.0,27.0,-3.0,
2082.0,2072.0,28.0,-3.0,
2074.0,2046.0,28.0,-3.0,
2068.0,2017.0,28.0,-3.0,
2027.0,2110.0,28.0,-3.0,
2029.0,2138.0,28.0,-3.0,
2107.0,2160.0,28.0,-3.0,
2097.0,2108.0,29.0,-3.0,
2103.0,2097.0,29.0,-3.0,
2080.0,2110.0,29.0,-3.0,
2071.0,2109.0,29.0,-3.0,
2071.0,2110.0,28.0,-3.0,
2037.0,2084.0,28.0,-3.0,
2020.0,2072.0,28.0,-3.0,
2068.0,2089.0,28.0,-3.0,
2114.0,2085.0,27.0,-3.0,
2126.0,2073.0,27.0,-3.0,
2116.0,2075.0,27.0,-3.0,
2090.0,2105.0,26.0,-3.0,
2061.0,2114.0,27.0,-3.0,
2038.0,2122.0,27.0,-3.0,
2059.0,2105.0,27.0,-3.0,
2079.0,2102.0,27.0,-3.0,
2090.0,2104.0,27.0,-3.0,
2126.0,2069.0,28.0,-3.0,
2149.0,2043.0,28.0,-3.0,
2099.0,2082.0,27.0,-3.0,
2087.0,2097.0,27.0,-3.0,
2085.0,2094.0,27.0,-3.0,
2044.0,2087.0,27.0,-3.0,
2034.0,2088.0,27.0,-3.0,
2027.0,2080.0,27.0,-3.0,
2028.0,2085.0,27.0,-3.0,
2037.0,2102.0,27.0,-3.0,
2048.0,2105.0,27.0,-3.0,
2057.0,2078.0,27.0,-3.0,
2166.0,2076.0,27.0,-3.0,
2133.0,2082.0,27.0,-3.0,
2100.0,2092.0,27.0,-3.0,
2083.0,2093.0,27.0,-3.0,
2070.0,2108.0,27.0,-3.0,
2071.0,2114.0,27.0,-3.0,
2073.0,2091.0,27.0,-3.0,
2084.0,2098.0,27.0,-3.0,
2086.0,2100.0,27.0,-3.0,
2064.0,2113.0,27.0,-3.0,
2066.0,2086.0,27.0,-3.0,
2054.0,2092.0,27.0,-3.0,
2048.0,2079.0,27.0,-3.0,
2033.0,2093.0,27.0,-3.0,
2051.0,2098.0,27.0,-3.0,
2069.0,2094.0,27.0,-3.0,
2081.0,2103.0,27.0,-3.0,
2071.0,2110.0,27.0,-3.0,
2079.0,2103.0,27.0,-3.0,
2067.0,2096.0,27.0,-3.0,
2059.0,2099.0,27.0,-3.0,
2050.0,2087.0,27.0,-3.0,
2053.0,2076.0,27.0,-3.0,
2070.0,2091.0,27.0,-3.0,
2099.0,2086.0,26.0,-3.0,
2090.0,2099.0,26.0,-3.0,
2081.0,2111.0,26.0,-3.0,
2075.0,2113.0,26.0,-3.0,
2059.0,2106.0,26.0,-3.0,
2043.0,2100.0,26.0,-3.0,
2042.0,2091.0,26.0,-3.0,
2071.0,2092.0,26.0,-3.0,
2067.0,2100.0,26.0,-3.0,
2128.0,2103.0,0,
2097.0,2123.0,26.0,-3.0,
2056.0,2055.0,26.0,-3.0,
2059.0,2080.0,26.0,-3.0,
2082.0,2089.0,26.0,-3.0,
2070.0,2087.0,26.0,-3.0,
2057.0,2124.0,26.0,-3.0,
2075.0,2108.0,26.0,-3.0,
2105.0,2097.0,26.0,-3.0,
2087.0,2082.0,26.0,-3.0,
2084.0,2071.0,26.0,-3.0,
2109.0,2092.0,26.0,-3.0,
2099.0,2101.0,26.0,-3.0,
2072.0,2101.0,26.0,-3.0,
2064.0,2144.0,26.0,-3.0,
2047.0,2080.0,26.0,-3.0,
2056.0,2093.0,26.0,-3.0,
2059.0,2123.0,26.0,-3.0,
2045.0,2140.0,26.0,-3.0,
2093.0,2066.0,26.0,-3.0,
2129.0,2039.0,26.0,-3.0,
2067.0,2080.0,26.0,-3.0,
2063.0,2091.0,26.0,-3.0,
2040.0,2082.0,26.0,-3.0,
2039.0,2093.0,26.0,-3.0,
2041.0,2076.0,26.0,-3.0,
2052.0,2095.0,26.0,-3.0,
2083.0,2100.0,26.0,-3.0,
2060.0,2093.0,26.0,-3.0,
2023.0,2088.0,0,
2055.0,2098.0,26.0,-3.0,
2094.0,2095.0,26.0,-3.0,
2073.0,2081.0,26.0,-3.0,
2075.0,2093.0,26.0,-3.0,
2101.0,2093.0,26.0,-3.0,
2084.0,2103.0,26.0,-3.0,
2082.0,2105.0,26.0,-3.0,
2056.0,2096.0,26.0,-3.0,
2024.0,2103.0,26.0,-3.0,
2043.0,2092.0,26.0,-3.0,
2046.0,2080.0,26.0,-3.0,
2085.0,2088.0,26.0,-3.0,
2109.0,2098.0,26.0,-3.0,
2090.0,2095.0,26.0,-3.0,
2094.0,2089.0,26.0,-3.0,
2116.0,2088.0,26.0,-3.0,
2112.0,2105.0,26.0,-3.0,
2071.0,2087.0,26.0,-3.0,
2045.0,2096.0,26.0,-3.0,
2054.0,2110.0,26.0,-3.0,
2067.0,2108.0,26.0,-3.0,
2058.0,2099.0,26.0,-3.0,
2049.0,2122.0,26.0,-3.0,
2082.0,2116.0,26.0,-3.0,
2086.0,2093.0,26.0,-3.0,
2077.0,2059.0,26.0,-3.0,
2098.0,2058.0,26.0,-3.0,
2063.0,2070.0,26.0,-3.0,
2050.0,2107.0,26.0,-3.0,
2059.0,2124.0,26.0,-3.0,
2073.0,2091.0,26.0,-3.0,
2086.0,2097.0,26.0,-3.0,
2128.0,2122.0,26.0,-3.0,
2093.0,2092.0,26.0,-3.0,
2070.0,2084.0,26.0,-3.0,
2102.0,2067.0,26.0,-3.0,
2068.0,2098.0,26.0,-3.0,
2041.0,2082.0,26.0,-3.0,
2078.0,2085.0,26.0,-3.0,
2084.0,2092.0,26.0,-3.0,
2075.0,2134.0,26.0,-3.0,
2068.0,2139.0,26.0,-3.0,
2031.0,2142.0,26.0,-3.0,
2014.0,2081.0,26.0,-3.0,
2003.0,2075.0,25.0,-3.0,
2002.0,2103.0,26.0,-3.0,
2078.0,2106.0,26.0,-3.0,
2095.0,2054.0,26.0,-3.0,
2122.0,2089.0,26.0,-3.0,
2113.0,2103.0,26.0,-3.0,
2163.0,2099.0,25.0,-3.0,
2100.0,2119.0,25.0,-3.0,
2063.0,2059.0,25.0,-3.0,
2076.0,2073.0,26.0,-3.0,
2047.0,2082.0,26.0,-3.0,
2059.0,2096.0,25.0,-3.0,
2070.0,2109.0,25.0,-3.0,
2070.0,2104.0,25.0,-3.0,
2071.0,2116.0,25.0,-3.0,
2107.0,2067.0,25.0,-3.0,
2077.0,2069.0,25.0,-3.0,
2084.0,2083.0,25.0,-3.0,
2068.0,2097.0,25.0,-3.0,
2059.0,2103.0,25.0,-3.0,
2037.0,2082.0,25.0,-3.0,
2081.0,2104.0,25.0,-3.0,
2091.0,2102.0,25.0,-3.0,
2097.0,2101.0,25.0,-3.0,
2081.0,2093.0,25.0,-3.0,
2101.0,2093.0,25.0,-3.0,
2084.0,2092.0,25.0,-3.0,
2078.0,2098.0,25.0,-3.0,
2067.0,2095.0,25.0,-3.0,
2068.0,2103.0,25.0,-3.0,
2083.0,2096.0,25.0,-3.0,
2071.0,2100.0,25.0,-3.0,
2085.0,2096.0,25.0,-3.0,
2080.0,2092.0,25.0,-3.0,
2070.0,2088.0,25.0,-3.0,
2017.0,2081.0,25.0,-3.0,
2059.0,2084.0,25.0,-3.0,
2057.0,2093.0,25.0,-3.0,
2087.0,2093.0,25.0,-3.0,
2089.0,2092.0,25.0,-3.0,
2092.0,2096.0,25.0,-3.0,
2110.0,2100.0,25.0,-3.0,
2077.0,2088.0,25.0,-3.0,
2053.0,2083.0,25.0,-3.0,
2061.0,2081.0,25.0,-3.0,
2057.0,2097.0,25.0,-3.0,
2063.0,2108.0,25.0,-3.0,
2071.0,2104.0,25.0,-3.0,
2066.0,2093.0,25.0,-3.0,
2081.0,2089.0,25.0,-3.0,
2074.0,2106.0,25.0,-3.0,
2095.0,2121.0,25.0,-3.0,
2076.0,2100.0,25.0,-3.0,
2047.0,2107.0,25.0,-3.0,
2043.0,2089.0,25.0,-3.0,
2057.0,2082.0,25.0,-3.0,
2084.0,2087.0,25.0,-3.0,
2106.0,2091.0,25.0,-3.0,
2087.0,2088.0,25.0,-3.0,
2058.0,2094.0,25.0,-3.0,
2069.0,2087.0,25.0,-3.0,
2031.0,2092.0,25.0,-3.0,
2041.0,2086.0,25.0,-3.0,
2096.0,2093.0,25.0,-3.0,
2099.0,2091.0,25.0,-3.0,
2110.0,2090.0,25.0,-3.0,
2082.0,2095.0,25.0,-3.0,
2087.0,2109.0,25.0,-3.0,
2128.0,2109.0,25.0,-3.0,
2085.0,2114.0,25.0,-3.0,
2056.0,2093.0,25.0,-3.0,
2047.0,2058.0,25.0,-3.0,
2116.0,2099.0,25.0,-3.0,
2076.0,2106.0,25.0,-3.0,
2073.0,2105.0,25.0,-3.0,
2072.0,2103.0,25.0,-3.0,
2100.0,2104.0,25.0,-3.0,
2053.0,2101.0,25.0,-3.0,
2052.0,2087.0,25.0,-3.0,
2073.0,2077.0,25.0,-3.0,
2078.0,2084.0,25.0,-3.0,
2072.0,2088.0,25.0,-3.0,
2098.0,2094.0,25.0,-3.0,
2105.0,2100.0,25.0,-3.0,
2078.0,2089.0,25.0,-3.0,
2094.0,2089.0,25.0,-3.0,
2070.0,2099.0,25.0,-3.0,
2069.0,2097.0,25.0,-3.0,
2068.0,2100.0,25.0,-3.0,
2056.0,2072.0,25.0,-3.0,
2065.0,2084.0,25.0,-3.0,
2092.0,2087.0,25.0,-3.0,
2074.0,2087.0,25.0,-3.0,
2097.0,2107.0,25.0,-3.0,
2087.0,2094.0,25.0,-3.0,
2058.0,2108.0,25.0,-3.0,
2046.0,2113.0,25.0,-3.0,
2057.0,2108.0,25.0,-3.0,
2068.0,2102.0,25.0,-3.0,
2082.0,2098.0,25.0,-3.0,
2111.0,2107.0,25.0,-3.0,
2103.0,2102.0,25.0,-3.0,
2082.0,2102.0,25.0,-3.0,
2077.0,2099.0,25.0,-3.0,
2039.0,2085.0,25.0,-3.0,
2064.0,2078.0,25.0,-3.0,
2076.0,2065.0,25.0,-3.0,
2077.0,2078.0,25.0,-3.0,
2080.0,2107.0,25.0,-3.0,
2088.0,2126.0,25.0,-3.0,
2080.0,2091.0,25.0,-3.0,
2039.0,2072.0,25.0,-3.0,
2051.0,2079.0,25.0,-3.0,
2123.0,2092.0,25.0,-3.0,
2073.0,2088.0,25.0,-3.0,
2072.0,2095.0,25.0,-3.0,
2105.0,2104.0,25.0,-3.0,
2118.0,2101.0,25.0,-3.0,
2101.0,2094.0,25.0,-3.0,
2085.0,2085.0,25.0,-3.0,
2052.0,2086.0,25.0,-3.0,
2037.0,2105.0,25.0,-3.0,
2071.0,2113.0,25.0,-3.0,
2037.0,2090.0,25.0,-3.0,
2040.0,2054.0,25.0,-3.0,
2146.0,2077.0,25.0,-3.0,
2108.0,2093.0,25.0,-3.0,
2098.0,2090.0,25.0,-3.0,
2078.0,2091.0,25.0,-3.0,
2048.0,2093.0,25.0,-3.0,
2044.0,2109.0,25.0,-3.0,
2057.0,2093.0,25.0,-3.0,
2065.0,2072.0,25.0,-3.0,
2059.0,2082.0,25.0,-3.0,
2053.0,2110.0,25.0,-3.0,
2105.0,2126.0,25.0,-3.0,
2112.0,2101.0,25.0,-3.0,
2070.0,2105.0,25.0,-3.0,
2065.0,2092.0,25.0,-3.0,
2055.0,2087.0,25.0,-3.0,
2044.0,2096.0,25.0,-3.0,
2039.0,2067.0,25.0,-3.0,
2075.0,2091.0,25.0,-3.0,
2077.0,2088.0,25.0,-3.0,
2088.0,2096.0,25.0,-3.0,
2075.0,2093.0,25.0,-3.0,
2090.0,2102.0,25.0,-3.0,
2073.0,2091.0,25.0,-3.0,
2050.0,2092.0,25.0,-3.0,
2049.0,2092.0,25.0,-3.0,
2079.0,2089.0,25.0,-3.0,
2073.0,2088.0,25.0,-3.0,
2082.0,2091.0,25.0,-3.0,
2085.0,2089.0,0,
2071.0,2091.0,25.0,-3.0,
2089.0,2095.0,25.0,-3.0,
2088.0,2073.0,25.0,-3.0,
2077.0,2071.0,25.0,-3.0,
2064.0,2107.0,25.0,-3.0,
2084.0,2119.0,25.0,-3.0,
2100.0,2102.0,25.0,-3.0,
2080.0,2104.0,25.0,-3.0,
2059.0,2100.0,25.0,-3.0,
2058.0,2090.0,25.0,-3.0,
2041.0,2118.0,25.0,-3.0,
2034.0,2099.0,25.0,-3.0,
2060.0,2109.0,25.0,-3.0,
2086.0,2071.0,25.0,-3.0,
2096.0,2070.0,25.0,-3.0,
2125.0,2078.0,25.0,-3.0,
2090.0,2110.0,25.0,-3.0,
2092.0,2111.0,25.0,-3.0,
2082.0,2105.0,25.0,-3.0,
2055.0,2102.0,25.0,-3.0,
2056.0,2059.0,25.0,-3.0,
2050.0,2081.0,25.0,-3.0,
2054.0,2086.0,25.0,-3.0,
2049.0,2086.0,25.0,-3.0,
2081.0,2098.0,25.0,-3.0,
2087.0,2106.0,25.0,-3.0,
2071.0,2102.0,25.0,-3.0,
2082.0,2105.0,25.0,-3.0,
2059.0,2093.0,25.0,-3.0,
2053.0,2094.0,25.0,-3.0,
2036.0,2089.0,25.0,-3.0,
2052.0,2094.0,25.0,-3.0,
2094.0,2098.0,25.0,-3.0,
2075.0,2089.0,25.0,-3.0,
2105.0,2079.0,25.0,-3.0,
2098.0,2083.0,25.0,-3.0,
2077.0,2073.0,25.0,-3.0,
2060.0,2116.0,25.0,-3.0,
2085.0,2121.0,25.0,-3.0,
2081.0,2106.0,25.0,-3.0,
2053.0,2102.0,25.0,-3.0,
2035.0,2079.0,25.0,-3.0,
2074.0,2076.0,25.0,-3.0,
2126.0,2078.0,25.0,-3.0,
2075.0,2083.0,25.0,-3.0,
2109.0,2087.0,25.0,-3.0,
2044.0,2088.0,25.0,-3.0,
2063.0,2073.0,25.0,-3.0,
2066.0,2088.0,25.0,-3.0,
2086.0,2089.0,25.0,-3.0,
2100.0,2092.0,25.0,-3.0,
2094.0,2079.0,25.0,-3.0,
2085.0,2088.0,25.0,-3.0,
2060.0,2138.0,25.0,-3.0,
2062.0,2133.0,25.0,-3.0,
2048.0,2107.0,25.0,-3.0,
2048.0,2080.0,0,
2061.0,2092.0,25.0,-3.0,
2083.0,2089.0,25.0,-3.0,
2082.0,2077.0,25.0,-3.0,
2074.0,2114.0,25.0,-3.0,
2071.0,2112.0,25.0,-3.0,
2082.0,2110.0,25.0,-3.0,
2057.0,2061.0,25.0,-3.0,
2057.0,2073.0,25.0,-3.0,
2073.0,2087.0,25.0,-3.0,
2096.0,2093.0,25.0,-3.0,
2092.0,2098.0,25.0,-3.0,
2094.0,2097.0,25.0,-3.0,
2087.0,2093.0,25.0,-3.0,
2081.0,2090.0,25.0,-3.0,
2061.0,2088.0,25.0,-3.0,
2056.0,2089.0,25.0,-3.0,
2041.0,2092.0,25.0,-3.0,
2040.0,2105.0,25.0,-3.0,
2061.0,2096.0,25.0,-3.0,
2075.0,2094.0,25.0,-3.0,
2086.0,2088.0,25.0,-3.0,
2101.0,2093.0,25.0,-3.0,
2106.0,2092.0,25.0,-3.0,
2063.0,2099.0,25.0,-3.0,
2051.0,2114.0,25.0,-3.0,
2045.0,2121.0,25.0,-3.0,
2032.0,2048.0,25.0,-3.0,
2078.0,2058.0,25.0,-3.0,
2094.0,2079.0,25.0,-3.0,
2086.0,2083.0,25.0,-3.0,
2108.0,2107.0,25.0,-3.0,
2111.0,2108.0,25.0,-3.0,
2086.0,2092.0,25.0,-3.0,
2059.0,2095.0,25.0,-3.0,
2060.0,2108.0,25.0,-3.0,
2051.0,2101.0,25.0,-3.0,
2106.0,2099.0,25.0,-3.0,
2110.0,2095.0,25.0,-3.0,
2096.0,2092.0,25.0,-3.0,
2076.0,2101.0,25.0,-3.0,
2066.0,2104.0,25.0,-3.0,
2054.0,2106.0,25.0,-3.0,
2035.0,2073.0,25.0,-3.0,
2062.0,2083.0,25.0,-3.0,
2056.0,2100.0,25.0,-3.0,
2076.0,2096.0,25.0,-3.0,
2061.0,2089.0,25.0,-3.0,
2048.0,2077.0,25.0,-3.0,
2077.0,2099.0,25.0,-3.0,
2067.0,2085.0,25.0,-3.0,
2077.0,2098.0,25.0,-3.0,
2058.0,2069.0,25.0,-3.0,
2091.0,2108.0,25.0,-3.0,
2056.0,2113.0,25.0,-3.0,
2055.0,2111.0,25.0,-3.0,
2094.0,2068.0,25.0,-3.0,
2111.0,2082.0,24.0,-3.0,
2073.0,2088.0,24.0,-3.0,
2053.0,2080.0,24.0,-3.0,
2047.0,2086.0,25.0,-3.0,
2106.0,2085.0,25.0,-3.0,
2076.0,2089.0,25.0,-3.0,
2079.0,2097.0,25.0,-3.0,
2092.0,2093.0,25.0,-3.0,
2097.0,2105.0,25.0,-3.0,
2074.0,2105.0,25.0,-3.0,
2046.0,2094.0,25.0,-3.0,
2035.0,2091.0,25.0,-3.0,
2049.0,2093.0,25.0,-3.0,
2047.0,2079.0,25.0,-3.0,
2058.0,2077.0,25.0,-3.0,
2092.0,2099.0,25.0,-3.0,
2075.0,2137.0,25.0,-3.0,
2101.0,2141.0,25.0,-3.0,
2068.0,2116.0,25.0,-3.0,
2040.0,2068.0,25.0,-3.0,
2030.0,2086.0,25.0,-3.0,
2050.0,2095.0,25.0,-3.0,
2063.0,2083.0,25.0,-3.0,
2108.0,2088.0,25.0,-3.0,
2099.0,2092.0,25.0,-3.0,
2092.0,2091.0,25.0,-3.0,
2092.0,2090.0,25.0,-3.0,
2126.0,2081.0,25.0,-3.0,
2093.0,2077.0,25.0,-3.0,
2084.0,2083.0,25.0,-3.0,
2081.0,2087.0,25.0,-3.0,
2067.0,2095.0,25.0,-3.0,
2072.0,2094.0,25.0,-3.0,
2086.0,2095.0,25.0,-3.0,
2118.0,2102.0,25.0,-3.0,
2090.0,2096.0,25.0,-3.0,
2071.0,2098.0,25.0,-3.0,
2059.0,2090.0,25.0,-3.0,
2059.0,2088.0,25.0,-3.0,
2038.0,2089.0,25.0,-3.0,
2055.0,2098.0,25.0,-3.0,
2083.0,2099.0,25.0,-3.0,
2091.0,2109.0,25.0,-3.0,
2080.0,2104.0,25.0,-3.0,
2074.0,2090.0,25.0,-3.0,
2052.0,2058.0,25.0,-3.0,
2047.0,2088.0,25.0,-3.0,
2033.0,2092.0,25.0,-3.0,
2031.0,2120.0,25.0,-3.0,
2068.0,2074.0,25.0,-3.0,
2089.0,2092.0,25.0,-3.0,
2144.0,2101.0,25.0,-3.0,
2121.0,2103.0,25.0,-3.0,
2117.0,2096.0,25.0,-3.0,
2060.0,2087.0,25.0,-3.0,
2061.0,2091.0,25.0,-3.0,
2071.0,2092.0,25.0,-3.0,
2061.0,2093.0,25.0,-3.0,
2078.0,2094.0,25.0,-3.0,
2084.0,2095.0,25.0,-3.0,
2087.0,2100.0,25.0,-3.0,
2084.0,2103.0,25.0,-3.0,
2076.0,2095.0,25.0,-3.0,
2071.0,2095.0,25.0,-3.0,
2049.0,2088.0,25.0,-3.0,
2055.0,2082.0,25.0,-3.0,
2060.0,2097.0,25.0,-3.0,
2079.0,2106.0,25.0,-3.0,
2079.0,2107.0,25.0,-3.0,
2084.0,2089.0,25.0,-3.0,
2091.0,2089.0,25.0,-3.0,
2084.0,2087.0,25.0,-3.0,
2059.0,2116.0,25.0,-3.0,
2045.0,2110.0,25.0,-3.0,
2070.0,2095.0,25.0,-3.0,
2107.0,2079.0,25.0,-3.0,
2092.0,2077.0,25.0,-3.0,
2133.0,2099.0,25.0,-3.0,
2110.0,2110.0,25.0,-3.0,
2100.0,2104.0,25.0,-3.0,
2042.0,2100.0,25.0,-3.0,
2059.0,2069.0,25.0,-3.0,
2069.0,2088.0,25.0,-3.0,
2077.0,2103.0,25.0,-3.0,
2071.0,2102.0,25.0,-3.0,
2079.0,2070.0,25.0,-3.0,
2064.0,2105.0,25.0,-3.0,
2028.0,2077.0,25.0,-3.0,
2034.0,2078.0,25.0,-3.0,
2027.0,2082.0,25.0,-3.0,
2035.0,2115.0,25.0,-3.0,
2123.0,2070.0,25.0,-3.0,
2156.0,2079.0,25.0,-3.0,
2136.0,2097.0,25.0,-3.0,
2112.0,2087.0,25.0,-3.0,
2092.0,2091.0,25.0,-3.0,
2120.0,2103.0,25.0,-3.0,
2072.0,2102.0,25.0,-3.0,
2043.0,2098.0,25.0,-3.0,
2041.0,2098.0,25.0,-3.0,
2043.0,2098.0,25.0,-3.0,
2070.0,2096.0,25.0,-3.0,
2101.0,2099.0,25.0,-3.0,
2090.0,2092.0,25.0,-3.0,
2082.0,2086.0,25.0,-3.0,
2076.0,2090.0,25.0,-3.0,
2048.0,2104.0,25.0,-3.0,
2040.0,2101.0,25.0,-3.0,
2044.0,2091.0,25.0,-3.0,
2050.0,2086.0,25.0,-3.0,
2070.0,2095.0,25.0,-3.0,
2090.0,2128.0,25.0,-3.0,
2090.0,2137.0,25.0,-3.0,
2076.0,2108.0,25.0,-3.0,
2066.0,2081.0,25.0,-3.0,
2033.0,2048.0,25.0,-3.0,
2059.0,2094.0,25.0,-3.0,
2073.0,2087.0,25.0,-3.0,
2078.0,2092.0,25.0,-3.0,
2084.0,2096.0,25.0,-3.0,
2098.0,2106.0,25.0,-3.0,
2104.0,2094.0,25.0,-3.0,
2100.0,2097.0,25.0,-3.0,
2074.0,2094.0,25.0,-3.0,
2061.0,2096.0,25.0,-3.0,
2063.0,2081.0,25.0,-3.0,
2063.0,2069.0,25.0,-3.0,
2075.0,2084.0,25.0,-3.0,
2096.0,2090.0,25.0,-3.0,
2096.0,2104.0,25.0,-3.0,
2087.0,2105.0,25.0,-3.0,
2071.0,2094.0,25.0,-3.0,
2074.0,2095.0,25.0,-3.0,
2049.0,2098.0,25.0,-3.0,
2005.0,2069.0,25.0,-3.0,
1966.0,2050.0,25.0,-3.0,
2025.0,2119.0,25.0,-3.0,
2055.0,2143.0,25.0,-3.0,
2155.0,2103.0,25.0,-3.0,
2209.0,2071.0,25.0,-3.0,
2139.0,2077.0,25.0,-3.0,
2094.0,2083.0,25.0,-3.0,
2064.0,2087.0,25.0,-3.0,
2063.0,2084.0,25.0,-3.0,
2078.0,2086.0,25.0,-3.0,
2108.0,2089.0,25.0,-3.0,
2130.0,2094.0,25.0,-3.0,
2101.0,2078.0,25.0,-3.0,
2081.0,2083.0,25.0,-3.0,
2064.0,2100.0,25.0,-3.0,
2058.0,2118.0,25.0,-3.0,
2035.0,2097.0,25.0,-3.0,
2036.0,2096.0,25.0,-3.0,
2044.0,2097.0,25.0,-3.0,
2061.0,2097.0,25.0,-3.0,
2088.0,2102.0,25.0,-3.0,
2101.0,2098.0,25.0,-3.0,
2077.0,2093.0,25.0,-3.0,
2074.0,2090.0,25.0,-3.0,
2061.0,2117.0,25.0,-3.0,
2035.0,2109.0,25.0,-3.0,
2056.0,2068.0,25.0,-3.0,
2064.0,2101.0,25.0,-3.0,
2055.0,2101.0,25.0,-3.0,
2076.0,2098.0,25.0,-3.0,
2081.0,2076.0,25.0,-3.0,
2070.0,2070.0,25.0,-3.0,
2075.0,2069.0,25.0,-3.0,
2071.0,2086.0,25.0,-3.0,
2056.0,2085.0,25.0,-3.0,
2051.0,2091.0,25.0,-3.0,
2069.0,2122.0,25.0,-3.0,
2073.0,2103.0,25.0,-3.0,
2098.0,2109.0,25.0,-3.0,
2103.0,2105.0,25.0,-3.0,
2098.0,2089.0,25.0,-3.0,
2068.0,2086.0,25.0,-3.0,
2060.0,2096.0,25.0,-3.0,
2059.0,2106.0,25.0,-3.0,
2088.0,2098.0,25.0,-3.0,
2082.0,2077.0,25.0,-3.0,
2096.0,2094.0,25.0,-3.0,
2091.0,2134.0,25.0,-3.0,
2066.0,2103.0,25.0,-3.0,
2072.0,2092.0,25.0,-3.0,
2040.0,2091.0,25.0,-3.0,
2048.0,2092.0,25.0,-3.0,
2054.0,2082.0,25.0,-3.0,
2053.0,2067.0,25.0,-3.0,
2077.0,2074.0,25.0,-3.0,
2055.0,2118.0,25.0,-3.0,
2040.0,2166.0,25.0,-3.0,
2026.0,2147.0,25.0,-3.0,
2041.0,2082.0,25.0,-3.0,
2088.0,2021.0,25.0,-3.0,
2112.0,2056.0,25.0,-3.0,
2111.0,2089.0,25.0,-3.0,
2193.0,2096.0,25.0,-3.0,
2121.0,2095.0,0,
2096.0,2083.0,25.0,-3.0,
2076.0,2089.0,25.0,-3.0,
2090.0,2097.0,25.0,-3.0,
2074.0,2088.0,24.0,-3.0,
2067.0,2088.0,25.0,-3.0,
2049.0,2088.0,25.0,-3.0,
2068.0,2118.0,25.0,-3.0,
2071.0,2133.0,25.0,-3.0,
2092.0,2094.0,25.0,-3.0,
2074.0,2075.0,25.0,-3.0,
2057.0,2071.0,25.0,-3.0,
2071.0,2087.0,25.0,-3.0,
2057.0,2092.0,25.0,-3.0,
2062.0,2103.0,25.0,-3.0,
2059.0,2095.0,25.0,-3.0,
2049.0,2080.0,25.0,-3.0,
2074.0,2095.0,25.0,-3.0,
2082.0,2108.0,25.0,-3.0,
2082.0,2098.0,25.0,-3.0,
2099.0,2096.0,25.0,-3.0,
2073.0,2088.0,25.0,-3.0,
2049.0,2086.0,25.0,-3.0,
2025.0,2090.0,25.0,-3.0,
2017.0,2113.0,25.0,-3.0,
2074.0,2123.0,25.0,-3.0,
2092.0,2108.0,25.0,-3.0,
2100.0,2088.0,24.0,-3.0,
2137.0,2075.0,25.0,-3.0,
2092.0,2099.0,25.0,-3.0,
2075.0,2087.0,25.0,-3.0,
2044.0,2090.0,25.0,-3.0,
2062.0,2083.0,25.0,-3.0,
2073.0,2108.0,25.0,-3.0,
2068.0,2117.0,25.0,-3.0,
2081.0,2105.0,25.0,-3.0,
2089.0,2091.0,25.0,-3.0,
2086.0,2085.0,25.0,-3.0,
2072.0,2094.0,25.0,-3.0,
2045.0,2116.0,25.0,-3.0,
2061.0,2103.0,25.0,-3.0,
2058.0,2105.0,25.0,-3.0,
2073.0,2106.0,25.0,-3.0,
2059.0,2103.0,25.0,-3.0,
2073.0,2075.0,25.0,-3.0,
2070.0,2067.0,25.0,-3.0,
2102.0,2080.0,25.0,-3.0,
2072.0,2089.0,25.0,-3.0,
2055.0,2099.0,25.0,-3.0,
2062.0,2112.0,25.0,-3.0,
2056.0,2072.0,25.0,-3.0,
2084.0,2096.0,25.0,-3.0,
2098.0,2077.0,25.0,-3.0,
2147.0,2090.0,25.0,-3.0,
2111.0,2078.0,25.0,-3.0,
2074.0,2123.0,25.0,-3.0,
2064.0,2116.0,25.0,-3.0,
2021.0,2060.0,25.0,-3.0,
2038.0,2050.0,25.0,-3.0,
2042.0,2104.0,25.0,-3.0,
2114.0,2126.0,25.0,-3.0,
2087.0,2119.0,25.0,-3.0,
2047.0,2132.0,25.0,-3.0,
2099.0,2117.0,25.0,-3.0,
2069.0,2042.0,25.0,-3.0,
2061.0,2072.0,25.0,-3.0,
2067.0,2087.0,25.0,-3.0,
2062.0,2096.0,25.0,-3.0,
2060.0,2081.0,25.0,-3.0,
2104.0,2114.0,25.0,-3.0,
2125.0,2106.0,24.0,-3.0,
2079.0,2081.0,24.0,-3.0,
2063.0,2099.0,24.0,-3.0,
2060.0,2151.0,24.0,-3.0,
2054.0,2116.0,24.0,-3.0,
2037.0,2046.0,24.0,-3.0,
2038.0,2037.0,24.0,-3.0,
2075.0,2091.0,24.0,-3.0,
2067.0,2103.0,24.0,-3.0,
2083.0,2155.0,24.0,-3.0,
2081.0,2112.0,24.0,-3.0,
2054.0,2075.0,24.0,-3.0,
2046.0,2087.0,24.0,-3.0,
2034.0,2095.0,24.0,-3.0,
2069.0,2088.0,24.0,-3.0,
2119.0,2102.0,24.0,-3.0,
2126.0,2093.0,24.0,-3.0,
2095.0,2046.0,24.0,-3.0,
2078.0,2099.0,24.0,-3.0,
2093.0,2151.0,24.0,-3.0,
2114.0,2169.0,24.0,-3.0,
2080.0,2127.0,24.0,-3.0,
2034.0,2025.0,0,
2004.0,1959.0,24.0,-3.0,
2028.0,2047.0,24.0,-3.0,
2105.0,2103.0,24.0,-3.0,
2133.0,2140.0,24.0,-3.0,
2072.0,2138.0,24.0,-3.0,
2064.0,2122.0,24.0,-3.0,
2073.0,2119.0,24.0,-3.0,
2040.0,2011.0,24.0,-3.0,
2010.0,2061.0,0,
2032.0,2087.0,23.0,-3.0,
2108.0,2065.0,23.0,-3.0,
2064.0,2071.0,23.0,-3.0,
2075.0,2101.0,23.0,-3.0,
2066.0,2163.0,23.0,-3.0,
2044.0,2132.0,23.0,-3.0,
2125.0,2086.0,23.0,-3.0,
2127.0,2098.0,23.0,-3.0,
2107.0,2099.0,23.0,-3.0,
2109.0,2074.0,23.0,-3.0,
2079.0,2087.0,23.0,-3.0,
2083.0,2097.0,23.0,-3.0,
2118.0,2116.0,23.0,-3.0,
2048.0,2129.0,23.0,-3.0,
2054.0,2078.0,23.0,-3.0,
2049.0,2088.0,23.0,-3.0,
2051.0,2068.0,24.0,-3.0,
2048.0,2134.0,24.0,-3.0,
2101.0,2090.0,24.0,-3.0,
2090.0,2093.0,24.0,-3.0,
2111.0,2078.0,24.0,-3.0,
2072.0,2115.0,24.0,-3.0,
2046.0,2087.0,24.0,-3.0,
2071.0,2130.0,24.0,-3.0,
2069.0,2075.0,24.0,-3.0,
2053.0,2034.0,24.0,-3.0,
2015.0,2055.0,24.0,-3.0,
2042.0,2113.0,24.0,-3.0,
2038.0,2144.0,25.0,-3.0,
2090.0,2171.0,25.0,-3.0,
2127.0,2132.0,25.0,-3.0,
2073.0,2107.0,25.0,-3.0,
2102.0,2030.0,25.0,-3.0,
2065.0,2041.0,25.0,-3.0,
2008.0,2064.0,25.0,-3.0,
2081.0,2037.0,26.0,-3.0,
2091.0,2039.0,26.0,-3.0,
2077.0,2104.0,26.0,-3.0,
2091.0,2130.0,26.0,-3.0,
2086.0,2086.0,26.0,-3.0,
2063.0,2120.0,26.0,-3.0,
2056.0,2108.0,26.0,-3.0,
2077.0,2136.0,26.0,-3.0,
2089.0,2109.0,27.0,-3.0,
2030.0,2069.0,27.0,-3.0,
2050.0,2136.0,27.0,-3.0,
2056.0,2147.0,27.0,-3.0,
2049.0,2034.0,27.0,-3.0,
2089.0,2020.0,27.0,-3.0,
2144.0,2103.0,27.0,-3.0,
2106.0,2158.0,27.0,-3.0,
2022.0,2085.0,27.0,-3.0,
2044.0,2080.0,0,
2051.0,2085.0,27.0,-3.0,
2084.0,2047.0,28.0,-3.0,
2048.0,2108.0,28.0,-3.0,
2120.0,2138.0,28.0,-3.0,
2117.0,2034.0,28.0,-3.0,
2092.0,2035.0,28.0,-3.0,
2060.0,2097.0,28.0,-3.0,
2023.0,2089.0,27.0,-3.0,
2037.0,2126.0,27.0,-3.0,
2055.0,2176.0,27.0,-3.0,
2043.0,2074.0,27.0,-3.0,
2051.0,2056.0,27.0,-3.0,
2113.0,2125.0,27.0,-3.0,
2078.0,2123.0,28.0,-3.0,
2071.0,2097.0,28.0,-3.0,
2081.0,2114.0,28.0,-3.0,
2095.0,2082.0,28.0,-3.0,
2105.0,2008.0,28.0,-3.0,
2108.0,2077.0,29.0,-3.0,
2083.0,2141.0,29.0,-3.0,
2054.0,2110.0,29.0,-3.0,
2062.0,2099.0,29.0,-3.0,
2064.0,2104.0,29.0,-3.0,
2076.0,2124.0,30.0,-3.0,
2043.0,2080.0,30.0,-3.0,
2055.0,2065.0,30.0,-3.0,
2027.0,2023.0,30.0,-3.0,
2033.0,2077.0,30.0,-3.0,
2040.0,2095.0,30.0,-3.0,
2102.0,2088.0,30.0,-3.0,
2139.0,2117.0,30.0,-3.0,
2182.0,2110.0,30.0,-3.0,
2100.0,2105.0,31.0,-3.0,
2083.0,2120.0,31.0,-3.0,
2094.0,2131.0,31.0,-3.0,
2078.0,2102.0,31.0,-3.0,
2075.0,2098.0,31.0,-3.0,
2045.0,2115.0,31.0,-3.0,
2061.0,2141.0,32.0,-3.0,
2076.0,2113.0,32.0,-3.0,
2057.0,2075.0,32.0,-3.0,
2078.0,2035.0,32.0,-3.0,
2060.0,2101.0,33.0,-3.0,
2045.0,2047.0,33.0,-3.0,
2060.0,2115.0,33.0,-3.0,
2078.0,2081.0,33.0,-3.0,
2087.0,2064.0,33.0,-3.0,
2041.0,2037.0,34.0,-3.0,
2092.0,2103.0,34.0,-3.0,
2046.0,2120.0,34.0,-3.0,
2014.0,2097.0,34.0,-3.0,
2055.0,2056.0,34.0,-3.0,
2067.0,2097.0,34.0,-3.0,
2041.0,2017.0,34.0,-3.0,
2076.0,2108.0,34.0,-3.0,
2113.0,2177.0,34.0,-3.0,
2102.0,2040.0,0,
2080.0,2056.0,34.0,-3.0,
2071.0,2094.0,34.0,-3.0,
2005.0,2103.0,34.0,-3.0,
2025.0,2132.0,34.0,-3.0,
2121.0,2068.0,34.0,-3.0,
2126.0,2031.0,34.0,-3.0,
2082.0,2119.0,34.0,-3.0,
2073.0,2179.0,34.0,-3.0,
2077.0,2120.0,34.0,-3.0,
2047.0,2116.0,34.0,-3.0,
2084.0,2057.0,35.0,-2.0,
2045.0,2079.0,35.0,-2.0,
2002.0,2072.0,35.0,-2.0,
2128.0,2135.0,36.0,-2.0,
2123.0,2080.0,36.0,-2.0,
2106.0,2051.0,36.0,-2.0,
2091.0,2097.0,36.0,-2.0,
2116.0,2141.0,36.0,-2.0,
2097.0,2053.0,36.0,-2.0,
2048.0,2111.0,36.0,-2.0,
2076.0,2125.0,36.0,-2.0,
2048.0,2087.0,36.0,-2.0,
2059.0,2089.0,36.0,-2.0,
2103.0,2112.0,36.0,-2.0,
2083.0,2147.0,37.0,-3.0,
2086.0,2154.0,37.0,-3.0,
2057.0,2073.0,37.0,-3.0,
2017.0,2027.0,37.0,-3.0,
2068.0,2092.0,37.0,-3.0,
2054.0,2130.0,38.0,-3.0,
2068.0,2074.0,38.0,-3.0,
2125.0,2057.0,38.0,-3.0,
2098.0,2112.0,38.0,-3.0,
2088.0,2082.0,38.0,-3.0,
2058.0,2085.0,38.0,-3.0,
2061.0,2074.0,38.0,-3.0,
2043.0,2113.0,39.0,-3.0,
2028.0,2037.0,39.0,-3.0,
2122.0,2118.0,39.0,-3.0,
2086.0,2116.0,39.0,-3.0,
2044.0,2052.0,39.0,-3.0,
2050.0,2054.0,39.0,-3.0,
2072.0,2083.0,39.0,-3.0,
2095.0,2081.0,39.0,-3.0,
2070.0,2111.0,39.0,-3.0,
2109.0,2150.0,39.0,-3.0,
2104.0,2190.0,39.0,-3.0,
2109.0,2122.0,39.0,-3.0,
2072.0,2043.0,39.0,-3.0,
2079.0,2051.0,39.0,-3.0,
2132.0,2083.0,39.0,-3.0,
2104.0,2087.0,39.0,-3.0,
2117.0,2079.0,39.0,-3.0,
2032.0,2088.0,40.0,-3.0,
2054.0,2183.0,40.0,-3.0,
2059.0,2088.0,40.0,-3.0,
2050.0,2088.0,40.0,-3.0,
2027.0,2092.0,40.0,-3.0,
2062.0,2065.0,40.0,-3.0,
2047.0,2088.0,40.0,-3.0,
2137.0,2064.0,40.0,-3.0,
2094.0,2082.0,40.0,-3.0,
2070.0,2097.0,40.0,-3.0,
2045.0,2090.0,41.0,-3.0,
2023.0,2079.0,41.0,-3.0,
2075.0,2133.0,41.0,-3.0,
2089.0,2093.0,41.0,-3.0,
2088.0,2065.0,41.0,-3.0,
2105.0,2115.0,41.0,-3.0,
2106.0,2104.0,41.0,-3.0,
2066.0,2052.0,41.0,-3.0,
2046.0,2068.0,41.0,-3.0,
2057.0,2114.0,41.0,-3.0,
2067.0,2064.0,41.0,-3.0,
2062.0,2124.0,41.0,-3.0,
2104.0,2127.0,41.0,-3.0,
2135.0,2121.0,41.0,-3.0,
2103.0,2166.0,41.0,-3.0,
2039.0,2086.0,41.0,-3.0,
2018.0,2077.0,41.0,-3.0,
2102.0,2026.0,41.0,-3.0,
2053.0,2037.0,42.0,-3.0,
2046.0,2083.0,42.0,-3.0,
2179.0,2179.0,42.0,-3.0,
2139.0,2045.0,42.0,-3.0,
2018.0,2068.0,42.0,-3.0,
2110.0,2137.0,42.0,-3.0,
2058.0,2058.0,42.0,-3.0,
2048.0,2092.0,42.0,-3.0,
2097.0,2115.0,42.0,-3.0,
2065.0,2095.0,42.0,-3.0,
2078.0,2111.0,42.0,-3.0,
2055.0,2082.0,42.0,-3.0,
2066.0,2054.0,42.0,-3.0,
2146.0,2085.0,42.0,-3.0,
2110.0,2104.0,42.0,-3.0,
2039.0,2118.0,42.0,-3.0,
2057.0,2056.0,42.0,-3.0,
2083.0,2082.0,42.0,-3.0,
2052.0,2076.0,42.0,-3.0,
2041.0,2143.0,42.0,-3.0,
2072.0,2120.0,42.0,-3.0,
2109.0,2111.0,42.0,-3.0,
2060.0,2045.0,42.0,-3.0,
2066.0,2072.0,42.0,-3.0,
2112.0,2123.0,42.0,-3.0,
2129.0,2173.0,43.0,-3.0,
2062.0,2052.0,43.0,-3.0,
2036.0,1988.0,43.0,-3.0,
2056.0,2088.0,43.0,-3.0,
2062.0,2111.0,43.0,-3.0,
2098.0,2096.0,43.0,-3.0,
2058.0,2127.0,44.0,-3.0,
2089.0,2152.0,44.0,-3.0,
2067.0,2170.0,44.0,-3.0,
2066.0,2093.0,44.0,-3.0,
2065.0,1958.0,44.0,-3.0,
2081.0,2091.0,44.0,-3.0,
2106.0,2048.0,44.0,-3.0,
2069.0,2091.0,44.0,-3.0,
2091.0,2159.0,44.0,-3.0,
2132.0,2094.0,44.0,-3.0,
2123.0,2024.0,43.0,-3.0,
2098.0,2128.0,43.0,-3.0,
2032.0,2032.0,43.0,-3.0,
2039.0,2061.0,43.0,-3.0,
2078.0,2082.0,43.0,-3.0,
2147.0,2061.0,43.0,-3.0,
2114.0,2114.0,43.0,-3.0,
2063.0,2139.0,43.0,-3.0,
2062.0,2109.0,43.0,-3.0,
2068.0,2146.0,44.0,-3.0,
2060.0,2061.0,44.0,-3.0,
2025.0,2094.0,44.0,-3.0,
2074.0,2179.0,44.0,-3.0,
2109.0,2049.0,44.0,-3.0,
2083.0,2083.0,44.0,-3.0,
2042.0,2053.0,44.0,-3.0,
2096.0,2089.0,44.0,-3.0,
2062.0,2120.0,44.0,-3.0,
2057.0,2103.0,44.0,-3.0,
2125.0,2162.0,45.0,-3.0,
2098.0,2068.0,45.0,-3.0,
2071.0,2063.0,45.0,-3.0,
2119.0,2028.0,45.0,-3.0,
2076.0,2031.0,45.0,-3.0,
2029.0,2080.0,45.0,-3.0,
2071.0,2089.0,45.0,-3.0,
2126.0,2150.0,45.0,-3.0,
2089.0,2093.0,45.0,-3.0,
2056.0,2105.0,45.0,-3.0,
2066.0,2096.0,45.0,-3.0,
2081.0,2122.0,45.0,-3.0,
2080.0,2103.0,45.0,-3.0,
2097.0,2135.0,45.0,-3.0,
2080.0,2104.0,46.0,-3.0,
2102.0,2115.0,46.0,-3.0,
2070.0,2055.0,46.0,-3.0,
2057.0,2118.0,46.0,-3.0,
2034.0,2104.0,46.0,-3.0,
2043.0,2124.0,47.0,-3.0,
2040.0,2112.0,47.0,-3.0,
2080.0,2173.0,47.0,-3.0,
2077.0,2020.0,47.0,-3.0,
2103.0,2065.0,48.0,-3.0,
2081.0,2112.0,48.0,-4.0,
2066.0,2107.0,48.0,-4.0,
2082.0,2133.0,48.0,-4.0,
2090.0,2109.0,49.0,-4.0,
2074.0,1981.0,49.0,-4.0,
2049.0,2049.0,49.0,-4.0,
2082.0,2074.0,49.0,-4.0,
2058.0,2068.0,49.0,-4.0,
2074.0,2088.0,49.0,-4.0,
2065.0,2096.0,49.0,-4.0,
2089.0,2146.0,49.0,-4.0,
2052.0,2057.0,49.0,-3.0,
2037.0,2040.0,49.0,-3.0,
2059.0,2149.0,0,
2089.0,2032.0,49.0,-3.0,
2104.0,2083.0,49.0,-3.0,
2058.0,2053.0,49.0,-3.0,
2074.0,2128.0,49.0,-3.0,
2044.0,2171.0,49.0,-3.0,
2053.0,2108.0,49.0,-3.0,
2071.0,2130.0,50.0,-3.0,
2021.0,2098.0,50.0,-3.0,
2116.0,2077.0,50.0,-3.0,
2043.0,2088.0,50.0,-3.0,
2156.0,1977.0,50.0,-3.0,
2063.0,2090.0,50.0,-3.0,
2114.0,2118.0,50.0,-3.0,
2091.0,2029.0,50.0,-3.0,
2086.0,2105.0,51.0,-3.0,
2092.0,2107.0,51.0,-3.0,
2090.0,2115.0,51.0,-3.0,
2139.0,2127.0,51.0,-3.0,
2133.0,2065.0,51.0,-3.0,
2092.0,2131.0,51.0,-3.0,
2062.0,2121.0,51.0,-3.0,
2072.0,2110.0,51.0,-3.0,
2080.0,2108.0,51.0,-3.0,
2045.0,2148.0,52.0,-3.0,
2048.0,2070.0,52.0,-3.0,
2046.0,2087.0,52.0,-3.0,
2083.0,2113.0,52.0,-3.0,
2085.0,2124.0,52.0,-3.0,
2086.0,2086.0,52.0,-3.0,
2130.0,2080.0,52.0,-3.0,
2099.0,1992.0,52.0,-3.0,
2035.0,2084.0,52.0,-3.0,
2096.0,2145.0,52.0,-3.0,
2022.0,2102.0,52.0,-3.0,
2029.0,2094.0,52.0,-3.0,
2045.0,2127.0,52.0,-3.0,
2064.0,2148.0,52.0,-3.0,
2098.0,2146.0,52.0,-3.0,
2140.0,2098.0,53.0,-3.0,
2069.0,2047.0,53.0,-3.0,
2064.0,2089.0,53.0,-3.0,
2020.0,2057.0,53.0,-3.0,
2025.0,2189.0,53.0,-3.0,
2070.0,1946.0,53.0,-3.0,
2078.0,2055.0,53.0,-3.0,
2068.0,2145.0,53.0,-3.0,
2063.0,2029.0,53.0,-3.0,
2114.0,2144.0,53.0,-3.0,
2089.0,2059.0,53.0,-3.0,
2042.0,2044.0,53.0,-3.0,
1989.0,2296.0,53.0,-3.0,
2097.0,2076.0,53.0,-3.0,
2124.0,2022.0,53.0,-3.0,
2119.0,2076.0,53.0,-4.0,
2035.0,2105.0,53.0,-4.0,
2091.0,1972.0,53.0,-4.0,
2125.0,2167.0,0,
2047.0,2018.0,53.0,-4.0,
2047.0,2060.0,53.0,-4.0,
2094.0,2078.0,53.0,-4.0,
2083.0,2084.0,53.0,-4.0,
2066.0,2151.0,53.0,-4.0,
2096.0,2164.0,53.0,-4.0,
2066.0,2023.0,53.0,-4.0,
2093.0,2039.0,53.0,-4.0,
2088.0,2137.0,53.0,-4.0,
2047.0,2145.0,53.0,-4.0,
2049.0,2166.0,53.0,-4.0,
2056.0,2167.0,54.0,-4.0,
2021.0,2102.0,54.0,-4.0,
2060.0,2049.0,54.0,-4.0,
2096.0,2098.0,54.0,-4.0,
2057.0,2117.0,54.0,-4.0,
2084.0,2059.0,54.0,-4.0,
2130.0,2055.0,54.0,-4.0,
2076.0,2111.0,55.0,-4.0,
2043.0,2002.0,55.0,-4.0,
2043.0,2090.0,55.0,-4.0,
2060.0,2149.0,55.0,-4.0,
2039.0,2184.0,55.0,-4.0,
2176.0,2128.0,55.0,-4.0,
2100.0,2065.0,55.0,-4.0,
2061.0,2140.0,56.0,-4.0,
2060.0,2012.0,56.0,-4.0,
2003.0,2174.0,56.0,-4.0,
2044.0,2029.0,56.0,-4.0,
2062.0,2033.0,56.0,-4.0,
2030.0,1995.0,56.0,-4.0,
2126.0,2089.0,56.0,-4.0,
2184.0,2064.0,56.0,-4.0,
2129.0,2099.0,56.0,-4.0,
2086.0,2126.0,56.0,-4.0,
2058.0,2047.0,56.0,-4.0,
2058.0,2092.0,56.0,-4.0,
2034.0,2135.0,56.0,-4.0,
2021.0,2109.0,56.0,-4.0,
2082.0,2147.0,56.0,-4.0,
2118.0,2067.0,56.0,-4.0,
2072.0,2038.0,56.0,-4.0,
2085.0,2079.0,57.0,-4.0,
2057.0,2104.0,57.0,-4.0,
2024.0,2234.0,57.0,-4.0,
2114.0,2168.0,57.0,-4.0,
2028.0,2068.0,57.0,-4.0,
2064.0,2013.0,57.0,-4.0,
2095.0,2099.0,58.0,-4.0,
2124.0,2025.0,58.0,-4.0,
2118.0,2051.0,58.0,-4.0,
2149.0,2079.0,58.0,-4.0,
2060.0,2040.0,58.0,-4.0,
2008.0,2035.0,58.0,-4.0,
2088.0,2089.0,58.0,-4.0,
2071.0,2199.0,58.0,-4.0,
2092.0,2074.0,58.0,-4.0,
2093.0,2119.0,58.0,-4.0,
2077.0,2027.0,58.0,-4.0,
2053.0,2065.0,58.0,-4.0,
2084.0,2160.0,58.0,-4.0,
2086.0,2222.0,59.0,-4.0,
2039.0,1966.0,59.0,-4.0,
2079.0,2021.0,59.0,-4.0,
2112.0,2104.0,59.0,-4.0,
2087.0,2158.0,59.0,-4.0,
2124.0,2157.0,59.0,-4.0,
2053.0,2168.0,59.0,-4.0,
2008.0,1978.0,59.0,-4.0,
2101.0,2040.0,59.0,-4.0,
2154.0,2098.0,59.0,-4.0,
2071.0,2131.0,59.0,-4.0,
2041.0,2042.0,59.0,-4.0,
2040.0,2194.0,59.0,-4.0,
2025.0,1965.0,59.0,-4.0,
2062.0,2114.0,59.0,-4.0,
2130.0,2109.0,60.0,-4.0,
2109.0,2062.0,60.0,-4.0,
2097.0,2103.0,60.0,-4.0,
2066.0,2149.0,60.0,-4.0,
2066.0,2044.0,60.0,-4.0,
2052.0,2106.0,60.0,-4.0,
2108.0,2108.0,60.0,-4.0,
2150.0,2131.0,60.0,-4.0,
2093.0,2089.0,61.0,-4.0,
2092.0,2125.0,61.0,-4.0,
2035.0,2075.0,61.0,-4.0,
2060.0,2086.0,61.0,-4.0,
2068.0,2241.0,61.0,-4.0,
2039.0,2046.0,61.0,-4.0,
2025.0,2114.0,62.0,-4.0,
2042.0,2046.0,62.0,-4.0,
2008.0,2009.0,62.0,-4.0,
2105.0,2055.0,62.0,-4.0,
2073.0,2215.0,62.0,-4.0,
2102.0,1980.0,62.0,-4.0,
2059.0,2001.0,62.0,-4.0,
2075.0,2065.0,62.0,-4.0,
2088.0,2076.0,62.0,-4.0,
2107.0,2118.0,62.0,-4.0,
2090.0,2096.0,62.0,-4.0,
2102.0,2123.0,62.0,-4.0,
2029.0,2123.0,62.0,-4.0,
2112.0,2168.0,62.0,-4.0,
2085.0,2152.0,62.0,-4.0,
2042.0,2076.0,62.0,-4.0,
2070.0,2030.0,62.0,-4.0,
2003.0,2050.0,62.0,-4.0,
2102.0,2072.0,63.0,-4.0,
2153.0,2127.0,63.0,-4.0,
2121.0,2100.0,63.0,-4.0,
2093.0,2130.0,63.0,-4.0,
2051.0,1965.0,63.0,-4.0,
2059.0,2103.0,63.0,-4.0,
2068.0,2097.0,63.0,-4.0,
2045.0,2066.0,63.0,-4.0,
2068.0,2178.0,63.0,-4.0,
2126.0,2258.0,63.0,-4.0,
2022.0,2037.0,63.0,-4.0,
2085.0,2089.0,64.0,-4.0,
2039.0,2058.0,64.0,-4.0,
2046.0,2103.0,64.0,-4.0,
2076.0,2048.0,64.0,-4.0,
