2063.0,2095.0,36.0,-4.0,
2098.0,2084.0,36.0,-4.0,
2095.0,2088.0,36.0,-4.0,
2125.0,2095.0,36.0,-4.0,
2120.0,2123.0,36.0,-4.0,
2119.0,2087.0,36.0,-4.0,
2114.0,2060.0,36.0,-4.0,
2087.0,2109.0,36.0,-4.0,
2050.0,2065.0,36.0,-4.0,
2058.0,2093.0,36.0,-4.0,
2053.0,2073.0,36.0,-4.0,
2070.0,2093.0,36.0,-4.0,
2078.0,2105.0,36.0,-4.0,
2078.0,2098.0,36.0,-4.0,
2081.0,2105.0,36.0,-4.0,
2068.0,2095.0,36.0,-4.0,
2054.0,2106.0,36.0,-4.0,
2038.0,2095.0,36.0,-4.0,
2054.0,2098.0,36.0,-4.0,
2046.0,2094.0,36.0,-4.0,
2067.0,2082.0,36.0,-4.0,
2084.0,2097.0,36.0,-4.0,
2086.0,2107.0,36.0,-4.0,
2049.0,2088.0,36.0,-4.0,
2094.0,2089.0,36.0,-4.0,
2051.0,2089.0,36.0,-4.0,
2035.0,2095.0,36.0,-4.0,
2091.0,2097.0,36.0,-4.0,
2076.0,2100.0,36.0,-4.0,
2091.0,2091.0,36.0,-4.0,
2085.0,2087.0,36.0,-4.0,
2103.0,2100.0,36.0,-4.0,
2099.0,2074.0,36.0,-4.0,
2077.0,2086.0,36.0,-4.0,
2076.0,2093.0,36.0,-4.0,
2079.0,2082.0,36.0,-4.0,
2060.0,2091.0,36.0,-4.0,
2067.0,2110.0,36.0,-4.0,
2068.0,2131.0,36.0,-4.0,
2070.0,2051.0,36.0,-4.0,
2046.0,2083.0,36.0,-4.0,
2086.0,2094.0,36.0,-4.0,
2085.0,2095.0,36.0,-4.0,
2056.0,2095.0,36.0,-4.0,
2055.0,2090.0,36.0,-4.0,
2066.0,2093.0,35.0,-4.0,
2082.0,2089.0,35.0,-4.0,
2085.0,2093.0,35.0,-4.0,
2074.0,2071.0,35.0,-4.0,
2069.0,2089.0,35.0,-4.0,
2030.0,2106.0,36.0,-4.0,
2077.0,2095.0,36.0,-4.0,
2060.0,2089.0,36.0,-4.0,
2071.0,2137.0,36.0,-4.0,
2070.0,2074.0,36.0,-4.0,
2083.0,2035.0,36.0,-4.0,
2084.0,2054.0,36.0,-4.0,
2074.0,2143.0,36.0,-4.0,
2047.0,2187.0,36.0,-4.0,
2069.0,2115.0,36.0,-4.0,
2084.0,2093.0,36.0,-4.0,
2092.0,2103.0,36.0,-4.0,
2102.0,2057.0,36.0,-4.0,
2092.0,2085.0,36.0,-4.0,
2088.0,2093.0,36.0,-4.0,
2100.0,2112.0,36.0,-4.0,
2111.0,2120.0,36.0,-4.0,
2061.0,2141.0,36.0,-4.0,
2029.0,2036.0,36.0,-4.0,
2059.0,2050.0,36.0,-4.0,
2048.0,2063.0,36.0,-4.0,
2039.0,2061.0,36.0,-4.0,
2067.0,2087.0,36.0,-4.0,
2102.0,2094.0,36.0,-4.0,
2097.0,2105.0,36.0,-4.0,
2097.0,2099.0,36.0,-4.0,
2111.0,2108.0,36.0,-4.0,
2058.0,2102.0,36.0,-4.0,
2041.0,2108.0,36.0,-4.0,
2059.0,2076.0,36.0,-4.0,
2061.0,2088.0,36.0,-4.0,
2050.0,2089.0,36.0,-4.0,
2080.0,2115.0,36.0,-4.0,
2099.0,2117.0,36.0,-4.0,
2064.0,2089.0,36.0,-4.0,
2088.0,2104.0,36.0,-4.0,
2109.0,2107.0,36.0,-4.0,
2055.0,2072.0,36.0,-4.0,
2038.0,2093.0,36.0,-4.0,
2052.0,2092.0,36.0,-4.0,
2064.0,2074.0,36.0,-4.0,
2091.0,2083.0,36.0,-4.0,
2156.0,2095.0,36.0,-4.0,
2134.0,2089.0,36.0,-4.0,
2088.0,2070.0,36.0,-4.0,
2070.0,2087.0,36.0,-4.0,
2082.0,2096.0,36.0,-4.0,
2060.0,2095.0,36.0,-4.0,
2068.0,2094.0,36.0,-4.0,
2065.0,2073.0,36.0,-4.0,
2052.0,2116.0,36.0,-4.0,
2073.0,2122.0,36.0,-4.0,
2067.0,2103.0,36.0,-4.0,
2034.0,2109.0,36.0,-4.0,
2073.0,2104.0,36.0,-4.0,
2066.0,2089.0,36.0,-4.0,
2068.0,2111.0,36.0,-4.0,
2053.0,2090.0,36.0,-4.0,
2062.0,2105.0,36.0,-4.0,
2067.0,2099.0,36.0,-4.0,
2089.0,2066.0,36.0,-4.0,
2081.0,2078.0,36.0,-4.0,
2058.0,2089.0,36.0,-4.0,
2055.0,2095.0,36.0,-4.0,
2071.0,2066.0,36.0,-4.0,
2063.0,2084.0,35.0,-4.0,
2079.0,2080.0,35.0,-4.0,
2083.0,2089.0,35.0,-4.0,
2098.0,2101.0,35.0,-4.0,
2068.0,2130.0,35.0,-4.0,
2068.0,2108.0,35.0,-4.0,
2040.0,2057.0,35.0,-4.0,
2035.0,2075.0,36.0,-4.0,
2067.0,2105.0,36.0,-4.0,
2119.0,2082.0,36.0,-4.0,
2092.0,2063.0,36.0,-4.0,
2073.0,2086.0,36.0,-4.0,
2054.0,2084.0,36.0,-4.0,
2061.0,2070.0,36.0,-4.0,
2051.0,2100.0,36.0,-4.0,
2144.0,2130.0,36.0,-4.0,
2097.0,2111.0,36.0,-4.0,
2084.0,2103.0,36.0,-4.0,
2110.0,2097.0,36.0,-4.0,
2104.0,2099.0,36.0,-4.0,
2090.0,2103.0,36.0,-4.0,
2071.0,2106.0,36.0,-4.0,
2074.0,2105.0,36.0,-4.0,
2059.0,2098.0,36.0,-4.0,
2048.0,2096.0,36.0,-4.0,
2054.0,2105.0,36.0,-4.0,
2066.0,2089.0,36.0,-4.0,
2038.0,2073.0,36.0,-4.0,
2058.0,2113.0,36.0,-4.0,
2076.0,2115.0,36.0,-4.0,
2031.0,2064.0,36.0,-4.0,
2062.0,2023.0,36.0,-4.0,
2066.0,2081.0,36.0,-4.0,
2131.0,2105.0,36.0,-4.0,
2082.0,2059.0,36.0,-4.0,
2092.0,2095.0,36.0,-4.0,
2086.0,2111.0,36.0,-4.0,
2053.0,2065.0,36.0,-4.0,
2062.0,2087.0,36.0,-4.0,
2062.0,2089.0,36.0,-4.0,
2110.0,2085.0,36.0,-4.0,
2058.0,2071.0,36.0,-4.0,
2070.0,2091.0,36.0,-4.0,
2063.0,2108.0,36.0,-4.0,
2058.0,2100.0,36.0,-4.0,
2091.0,2101.0,36.0,-4.0,
2093.0,2142.0,36.0,-4.0,
2089.0,2126.0,0,
2090.0,2106.0,36.0,-4.0,
2079.0,2106.0,36.0,-4.0,
2063.0,2093.0,36.0,-4.0,
2050.0,2089.0,36.0,-4.0,
2060.0,2092.0,36.0,-4.0,
2067.0,2088.0,36.0,-4.0,
2085.0,2081.0,36.0,-4.0,
2088.0,2093.0,36.0,-4.0,
2085.0,2103.0,36.0,-4.0,
2091.0,2118.0,36.0,-4.0,
2066.0,2101.0,36.0,-4.0,
2067.0,2066.0,36.0,-4.0,
2045.0,2076.0,36.0,-4.0,
2028.0,2082.0,36.0,-4.0,
2045.0,2100.0,36.0,-4.0,
2112.0,2089.0,36.0,-4.0,
2099.0,2101.0,36.0,-4.0,
2080.0,2051.0,36.0,-4.0,
2093.0,2066.0,36.0,-4.0,
2069.0,2090.0,36.0,-4.0,
2042.0,2095.0,36.0,-4.0,
2057.0,2092.0,36.0,-4.0,
2066.0,2084.0,36.0,-4.0,
2091.0,2105.0,36.0,-4.0,
2113.0,2103.0,36.0,-4.0,
2093.0,2097.0,36.0,-4.0,
2077.0,2078.0,36.0,-4.0,
2073.0,2086.0,36.0,-4.0,
2071.0,2099.0,36.0,-4.0,
2059.0,2097.0,36.0,-4.0,
2066.0,2097.0,36.0,-4.0,
2065.0,2096.0,36.0,-4.0,
2070.0,2100.0,36.0,-4.0,
2076.0,2113.0,36.0,-4.0,
2073.0,2107.0,36.0,-4.0,
2079.0,2090.0,36.0,-4.0,
2076.0,2087.0,36.0,-4.0,
2065.0,2100.0,36.0,-4.0,
2054.0,2094.0,36.0,-4.0,
2041.0,2101.0,36.0,-4.0,
2073.0,2081.0,36.0,-4.0,
2105.0,2092.0,36.0,-4.0,
2089.0,2105.0,36.0,-4.0,
2065.0,2107.0,36.0,-4.0,
2074.0,2119.0,36.0,-4.0,
2074.0,2056.0,36.0,-4.0,
2077.0,2063.0,36.0,-4.0,
2107.0,2087.0,36.0,-4.0,
2083.0,2121.0,36.0,-4.0,
2055.0,2066.0,36.0,-4.0,
2081.0,2078.0,36.0,-4.0,
2067.0,2089.0,36.0,-4.0,
2055.0,2096.0,36.0,-4.0,
2077.0,2092.0,36.0,-4.0,
2050.0,2091.0,36.0,-4.0,
2054.0,2095.0,36.0,-4.0,
2095.0,2097.0,36.0,-4.0,
2088.0,2091.0,36.0,-4.0,
2088.0,2092.0,36.0,-4.0,
2092.0,2092.0,36.0,-4.0,
2092.0,2125.0,36.0,-4.0,
2064.0,2105.0,36.0,-4.0,
2061.0,2075.0,36.0,-4.0,
2033.0,2071.0,36.0,-4.0,
2032.0,2090.0,36.0,-4.0,
2037.0,2094.0,36.0,-4.0,
2074.0,2100.0,36.0,-4.0,
2065.0,2084.0,36.0,-4.0,
2065.0,2073.0,36.0,-4.0,
2108.0,2092.0,36.0,-4.0,
2089.0,2105.0,36.0,-4.0,
2060.0,2105.0,36.0,-4.0,
2081.0,2106.0,36.0,-4.0,
2069.0,2086.0,36.0,-4.0,
2064.0,2105.0,36.0,-4.0,
2058.0,2131.0,36.0,-4.0,
2102.0,2030.0,36.0,-4.0,
2096.0,2078.0,36.0,-4.0,
2059.0,2121.0,36.0,-4.0,
2076.0,2140.0,36.0,-4.0,
2068.0,2094.0,36.0,-4.0,
2070.0,2108.0,36.0,-4.0,
2047.0,2056.0,0,
2052.0,2066.0,36.0,-4.0,
2064.0,2061.0,36.0,-4.0,
2057.0,2049.0,36.0,-4.0,
2102.0,2083.0,36.0,-4.0,
2106.0,2148.0,36.0,-4.0,
2064.0,2135.0,36.0,-4.0,
2043.0,2102.0,36.0,-4.0,
2052.0,2101.0,36.0,-4.0,
2049.0,2106.0,36.0,-4.0,
2056.0,2091.0,36.0,-4.0,
2049.0,2096.0,36.0,-4.0,
2062.0,2093.0,36.0,-4.0,
2070.0,2095.0,36.0,-4.0,
2085.0,2100.0,36.0,-4.0,
2105.0,2095.0,36.0,-4.0,
2061.0,2088.0,36.0,-4.0,
2092.0,2089.0,36.0,-4.0,
2091.0,2095.0,36.0,-4.0,
2081.0,2074.0,36.0,-4.0,
2087.0,2085.0,36.0,-4.0,
2080.0,2096.0,36.0,-4.0,
2095.0,2115.0,36.0,-4.0,
2092.0,2104.0,36.0,-4.0,
2048.0,2082.0,36.0,-4.0,
1984.0,2075.0,36.0,-4.0,
2023.0,2079.0,36.0,-4.0,
2093.0,2105.0,36.0,-4.0,
2093.0,2125.0,36.0,-4.0,
2103.0,2063.0,36.0,-4.0,
2104.0,2063.0,36.0,-4.0,
2097.0,2076.0,36.0,-4.0,
2034.0,2075.0,36.0,-4.0,
2056.0,2115.0,36.0,-4.0,
2036.0,2073.0,36.0,-4.0,
2051.0,2066.0,36.0,-4.0,
2057.0,2061.0,36.0,-4.0,
2068.0,2084.0,36.0,-4.0,
2117.0,2124.0,36.0,-4.0,
2104.0,2120.0,36.0,-4.0,
2081.0,2113.0,36.0,-4.0,
2090.0,2125.0,36.0,-4.0,
2054.0,2109.0,36.0,-4.0,
2069.0,2094.0,36.0,-4.0,
2114.0,2109.0,36.0,-4.0,
2065.0,2098.0,36.0,-4.0,
2067.0,2109.0,36.0,-4.0,
2076.0,2097.0,36.0,-4.0,
2091.0,2077.0,36.0,-4.0,
2114.0,2106.0,36.0,-4.0,
2060.0,2059.0,36.0,-4.0,
2056.0,2079.0,36.0,-4.0,
2048.0,2090.0,36.0,-4.0,
2057.0,2091.0,36.0,-4.0,
2059.0,2102.0,36.0,-4.0,
2082.0,2116.0,36.0,-4.0,
2088.0,2067.0,36.0,-4.0,
2055.0,2073.0,36.0,-4.0,
2044.0,2091.0,36.0,-4.0,
2050.0,2097.0,36.0,-4.0,
2045.0,2077.0,36.0,-4.0,
2054.0,2085.0,36.0,-4.0,
2047.0,2096.0,36.0,-4.0,
2096.0,2090.0,36.0,-4.0,
2087.0,2114.0,36.0,-4.0,
2109.0,2114.0,36.0,-4.0,
2106.0,2125.0,36.0,-4.0,
2083.0,2139.0,36.0,-4.0,
2051.0,2054.0,36.0,-4.0,
2028.0,2081.0,36.0,-4.0,
2050.0,2083.0,36.0,-4.0,
2074.0,2091.0,36.0,-4.0,
2069.0,2101.0,36.0,-4.0,
2115.0,2096.0,36.0,-4.0,
2087.0,2086.0,36.0,-4.0,
2096.0,2113.0,36.0,-4.0,
2080.0,2090.0,36.0,-4.0,
2065.0,2098.0,36.0,-4.0,
2042.0,2092.0,36.0,-4.0,
2070.0,2075.0,36.0,-4.0,
2027.0,2066.0,36.0,-4.0,
2055.0,2103.0,36.0,-4.0,
2102.0,2098.0,36.0,-4.0,
2068.0,2079.0,36.0,-4.0,
2070.0,2056.0,36.0,-4.0,
2068.0,2085.0,36.0,-4.0,
2104.0,2074.0,36.0,-4.0,
2084.0,2063.0,36.0,-4.0,
2105.0,2081.0,36.0,-4.0,
2090.0,2139.0,36.0,-4.0,
2076.0,2144.0,36.0,-4.0,
2093.0,2096.0,36.0,-4.0,
2075.0,2100.0,36.0,-4.0,
2047.0,2112.0,36.0,-4.0,
2046.0,2100.0,36.0,-4.0,
2055.0,2095.0,36.0,-4.0,
2065.0,2091.0,36.0,-4.0,
2121.0,2094.0,36.0,-4.0,
2093.0,2095.0,36.0,-4.0,
2075.0,2083.0,36.0,-4.0,
2080.0,2079.0,36.0,-4.0,
2073.0,2084.0,36.0,-4.0,
2065.0,2098.0,36.0,-4.0,
2089.0,2076.0,36.0,-4.0,
2031.0,2073.0,36.0,-4.0,
2037.0,2096.0,36.0,-4.0,
2067.0,2109.0,36.0,-4.0,
2088.0,2087.0,36.0,-4.0,
2098.0,2107.0,36.0,-4.0,
2117.0,2132.0,36.0,-4.0,
2053.0,2032.0,36.0,-4.0,
2050.0,2069.0,36.0,-4.0,
2063.0,2096.0,36.0,-4.0,
2052.0,2113.0,36.0,-4.0,
2058.0,2095.0,36.0,-4.0,
2013.0,2072.0,36.0,-4.0,
2057.0,2096.0,35.0,-4.0,
2075.0,2100.0,35.0,-4.0,
2083.0,2105.0,35.0,-4.0,
2087.0,2092.0,35.0,-4.0,
2049.0,2101.0,35.0,-4.0,
2071.0,2094.0,35.0,-4.0,
2071.0,2093.0,35.0,-4.0,
2066.0,2104.0,35.0,-4.0,
2071.0,2106.0,35.0,-4.0,
2052.0,2075.0,35.0,-4.0,
2067.0,2111.0,35.0,-4.0,
2106.0,2116.0,35.0,-4.0,
2099.0,2100.0,36.0,-4.0,
2079.0,2079.0,36.0,-4.0,
2104.0,2091.0,36.0,-4.0,
2077.0,2094.0,36.0,-4.0,
2108.0,2102.0,36.0,-4.0,
2095.0,2096.0,36.0,-4.0,
2084.0,2096.0,36.0,-4.0,
2078.0,2082.0,36.0,-4.0,
2078.0,2086.0,36.0,-4.0,
2071.0,2111.0,36.0,-4.0,
2071.0,2123.0,36.0,-4.0,
2051.0,2057.0,36.0,-4.0,
2038.0,2041.0,36.0,-4.0,
2060.0,2085.0,36.0,-4.0,
2087.0,2049.0,36.0,-4.0,
2076.0,2100.0,36.0,-4.0,
2080.0,2083.0,36.0,-4.0,
2081.0,2093.0,36.0,-4.0,
2059.0,2095.0,36.0,-4.0,
2038.0,2118.0,36.0,-4.0,
2047.0,2076.0,36.0,-4.0,
2059.0,2110.0,36.0,-4.0,
2062.0,2055.0,36.0,-4.0,
2076.0,2104.0,36.0,-4.0,
2080.0,2127.0,36.0,-4.0,
2075.0,2076.0,36.0,-4.0,
2058.0,2083.0,36.0,-4.0,
2053.0,2094.0,36.0,-4.0,
2036.0,2087.0,36.0,-4.0,
2055.0,2095.0,36.0,-4.0,
2050.0,2109.0,36.0,-4.0,
2078.0,2115.0,36.0,-4.0,
2087.0,2097.0,36.0,-4.0,
2069.0,2087.0,36.0,-4.0,
2093.0,2111.0,36.0,-4.0,
2156.0,2110.0,36.0,-4.0,
2107.0,2090.0,36.0,-4.0,
2075.0,2068.0,36.0,-4.0,
2053.0,2091.0,36.0,-4.0,
2072.0,2088.0,36.0,-4.0,
2074.0,2093.0,36.0,-4.0,
2059.0,2057.0,36.0,-4.0,
2064.0,2078.0,36.0,-4.0,
2066.0,2090.0,36.0,-4.0,
2051.0,2109.0,36.0,-4.0,
2088.0,2088.0,36.0,-4.0,
2063.0,2098.0,36.0,-4.0,
2072.0,2111.0,36.0,-4.0,
2061.0,2093.0,36.0,-4.0,
2081.0,2117.0,36.0,-4.0,
2074.0,2094.0,36.0,-4.0,
2093.0,2098.0,36.0,-4.0,
2086.0,2111.0,35.0,-4.0,
2059.0,2096.0,0,
2027.0,2069.0,35.0,-4.0,
2053.0,2074.0,35.0,-4.0,
2040.0,2098.0,35.0,-4.0,
2095.0,2105.0,35.0,-4.0,
2092.0,2115.0,35.0,-4.0,
2100.0,2097.0,35.0,-4.0,
2075.0,2066.0,35.0,-4.0,
2092.0,2080.0,35.0,-4.0,
2078.0,2029.0,35.0,-4.0,
2051.0,2077.0,35.0,-4.0,
2061.0,2133.0,35.0,-4.0,
2057.0,2120.0,0,
2071.0,2116.0,35.0,-4.0,
2080.0,2108.0,35.0,-4.0,
2078.0,2107.0,35.0,-4.0,
2080.0,2149.0,35.0,-4.0,
2086.0,2060.0,35.0,-4.0,
2062.0,2063.0,35.0,-4.0,
2052.0,2079.0,35.0,-4.0,
2042.0,2100.0,35.0,-4.0,
2039.0,2111.0,35.0,-4.0,
2065.0,2109.0,35.0,-4.0,
2111.0,2103.0,35.0,-4.0,
2109.0,2091.0,35.0,-4.0,
2084.0,2089.0,35.0,-4.0,
2069.0,2066.0,36.0,-4.0,
2108.0,2100.0,36.0,-4.0,
2088.0,2103.0,36.0,-4.0,
2068.0,2122.0,36.0,-4.0,
2066.0,2108.0,36.0,-4.0,
2071.0,2090.0,36.0,-4.0,
2080.0,2087.0,36.0,-4.0,
2071.0,2099.0,36.0,-4.0,
2062.0,2096.0,36.0,-4.0,
2048.0,2110.0,36.0,-4.0,
2072.0,2082.0,36.0,-4.0,
2056.0,2088.0,36.0,-4.0,
2071.0,2105.0,36.0,-4.0,
2048.0,2111.0,36.0,-4.0,
2082.0,2080.0,36.0,-4.0,
2070.0,2078.0,36.0,-4.0,
2056.0,2084.0,36.0,-4.0,
2105.0,2099.0,36.0,-4.0,
2090.0,2088.0,36.0,-4.0,
2060.0,2088.0,36.0,-4.0,
2061.0,2144.0,36.0,-4.0,
2076.0,2127.0,36.0,-4.0,
2063.0,2038.0,36.0,-4.0,
2087.0,2052.0,36.0,-4.0,
2089.0,2075.0,36.0,-4.0,
2098.0,2099.0,36.0,-4.0,
2065.0,2099.0,36.0,-4.0,
2027.0,2085.0,0,
2052.0,2111.0,36.0,-4.0,
2045.0,2124.0,36.0,-4.0,
2049.0,2089.0,36.0,-4.0,
2070.0,2107.0,36.0,-4.0,
2109.0,2163.0,36.0,-4.0,
2096.0,2093.0,36.0,-4.0,
2069.0,2028.0,36.0,-4.0,
2078.0,2077.0,36.0,-4.0,
2057.0,2089.0,36.0,-4.0,
2044.0,2098.0,36.0,-4.0,
2063.0,2099.0,36.0,-4.0,
2069.0,2110.0,35.0,-4.0,
2075.0,2102.0,35.0,-4.0,
2078.0,2101.0,35.0,-4.0,
2072.0,2114.0,35.0,-4.0,
2062.0,2104.0,35.0,-4.0,
2036.0,2112.0,35.0,-4.0,
2046.0,2079.0,35.0,-4.0,
2059.0,2107.0,35.0,-4.0,
2072.0,2053.0,35.0,-4.0,
2118.0,2086.0,35.0,-4.0,
2097.0,2052.0,35.0,-4.0,
2102.0,2059.0,35.0,-4.0,
2130.0,2080.0,35.0,-4.0,
2093.0,2085.0,35.0,-4.0,
2050.0,2109.0,35.0,-4.0,
2070.0,2147.0,35.0,-4.0,
2084.0,2121.0,35.0,-4.0,
2081.0,2119.0,35.0,-4.0,
2084.0,2103.0,35.0,-4.0,
2075.0,2111.0,35.0,-4.0,
2083.0,2128.0,35.0,-4.0,
2093.0,2081.0,35.0,-4.0,
2086.0,2091.0,35.0,-4.0,
2079.0,2077.0,35.0,-4.0,
2054.0,2082.0,35.0,-4.0,
2057.0,2089.0,35.0,-4.0,
2036.0,2107.0,35.0,-4.0,
2060.0,2119.0,36.0,-4.0,
2056.0,2083.0,36.0,-4.0,
2074.0,2109.0,35.0,-4.0,
2111.0,2146.0,35.0,-4.0,
2077.0,2115.0,36.0,-4.0,
2045.0,2044.0,36.0,-4.0,
2080.0,2019.0,36.0,-4.0,
2061.0,2062.0,36.0,-4.0,
2042.0,2063.0,36.0,-4.0,
2084.0,2107.0,36.0,-4.0,
2075.0,2020.0,36.0,-4.0,
2085.0,2047.0,36.0,-4.0,
2114.0,2109.0,36.0,-4.0,
2093.0,2117.0,36.0,-4.0,
2048.0,2148.0,36.0,-4.0,
2084.0,2108.0,36.0,-4.0,
2092.0,2120.0,36.0,-4.0,
2044.0,2105.0,36.0,-4.0,
2086.0,2114.0,36.0,-4.0,
2072.0,2067.0,36.0,-4.0,
2132.0,2071.0,36.0,-4.0,
2109.0,2119.0,36.0,-4.0,
2100.0,2100.0,36.0,-4.0,
2072.0,2104.0,36.0,-4.0,
2055.0,2107.0,36.0,-4.0,
2054.0,2083.0,36.0,-4.0,
1995.0,2087.0,36.0,-4.0,
2031.0,2111.0,36.0,-4.0,
2062.0,2057.0,35.0,-4.0,
2082.0,2077.0,35.0,-4.0,
2036.0,2082.0,35.0,-4.0,
2134.0,2115.0,35.0,-4.0,
2110.0,2131.0,35.0,-4.0,
2090.0,2069.0,35.0,-4.0,
2060.0,2054.0,35.0,-4.0,
2144.0,2077.0,35.0,-4.0,
2103.0,2115.0,35.0,-4.0,
2088.0,2094.0,35.0,-4.0,
2095.0,2089.0,35.0,-4.0,
2050.0,2086.0,35.0,-4.0,
2035.0,2046.0,35.0,-4.0,
2064.0,2119.0,35.0,-4.0,
2045.0,2133.0,35.0,-4.0,
2047.0,2096.0,35.0,-4.0,
2089.0,2130.0,35.0,-4.0,
2085.0,2116.0,35.0,-4.0,
2055.0,2024.0,35.0,-4.0,
2068.0,2069.0,35.0,-4.0,
2071.0,2070.0,35.0,-4.0,
2068.0,2056.0,35.0,-4.0,
2020.0,2081.0,35.0,-4.0,
2080.0,2137.0,35.0,-4.0,
2071.0,2143.0,35.0,-4.0,
2057.0,2101.0,35.0,-4.0,
2006.0,2073.0,35.0,-4.0,
2086.0,2100.0,35.0,-4.0,
2040.0,2072.0,35.0,-4.0,
2027.0,2076.0,35.0,-4.0,
2041.0,2085.0,35.0,-4.0,
2068.0,2109.0,35.0,-4.0,
2065.0,2088.0,36.0,-4.0,
2057.0,2107.0,36.0,-4.0,
2107.0,2153.0,36.0,-4.0,
2169.0,2174.0,36.0,-4.0,
2104.0,1998.0,36.0,-4.0,
2103.0,2068.0,36.0,-4.0,
2093.0,2155.0,36.0,-4.0,
2081.0,2168.0,36.0,-4.0,
2082.0,2080.0,36.0,-4.0,
2069.0,2135.0,36.0,-4.0,
2002.0,1996.0,36.0,-4.0,
2045.0,2030.0,36.0,-4.0,
2149.0,2076.0,36.0,-4.0,
2124.0,2127.0,37.0,-4.0,
2073.0,2129.0,37.0,-4.0,
2056.0,2039.0,37.0,-4.0,
2057.0,2053.0,36.0,-4.0,
2059.0,2077.0,36.0,-4.0,
2041.0,2117.0,36.0,-4.0,
2072.0,2135.0,36.0,-4.0,
2097.0,2129.0,36.0,-4.0,
2041.0,2027.0,36.0,-4.0,
2047.0,2110.0,36.0,-4.0,
2062.0,2034.0,36.0,-4.0,
2011.0,2028.0,36.0,-4.0,
2034.0,2074.0,36.0,-4.0,
2047.0,2080.0,36.0,-4.0,
2073.0,2095.0,36.0,-4.0,
2118.0,2102.0,36.0,-4.0,
2080.0,2105.0,36.0,-4.0,
2130.0,2133.0,36.0,-4.0,
2158.0,2054.0,36.0,-4.0,
2101.0,2125.0,36.0,-4.0,
2081.0,2107.0,36.0,-4.0,
2064.0,2111.0,36.0,-4.0,
2098.0,2130.0,36.0,-4.0,
2038.0,2107.0,36.0,-4.0,
2068.0,2110.0,36.0,-4.0,
2030.0,2101.0,36.0,-4.0,
2004.0,2084.0,36.0,-4.0,
2060.0,2113.0,36.0,-4.0,
2080.0,2095.0,36.0,-4.0,
2087.0,2102.0,36.0,-4.0,
2116.0,2103.0,36.0,-4.0,
2124.0,2100.0,36.0,-4.0,
2083.0,2100.0,36.0,-4.0,
2044.0,2169.0,36.0,-4.0,
2065.0,2195.0,36.0,-4.0,
2054.0,2036.0,36.0,-4.0,
1995.0,2043.0,36.0,-4.0,
2044.0,1985.0,37.0,-4.0,
2056.0,2039.0,37.0,-4.0,
2098.0,2045.0,37.0,-4.0,
2088.0,2119.0,37.0,-4.0,
2119.0,2145.0,37.0,-4.0,
2095.0,2105.0,37.0,-4.0,
2120.0,2187.0,37.0,-4.0,
2070.0,2112.0,37.0,-4.0,
2006.0,2014.0,37.0,-4.0,
2000.0,2005.0,37.0,-4.0,
2018.0,2074.0,37.0,-4.0,
2028.0,2074.0,37.0,-4.0,
2068.0,2136.0,37.0,-4.0,
2105.0,2232.0,37.0,-4.0,
2052.0,2149.0,37.0,-4.0,
2031.0,2051.0,37.0,-4.0,
2005.0,1992.0,37.0,-4.0,
2054.0,2121.0,38.0,-4.0,
2013.0,2052.0,38.0,-4.0,
2042.0,2085.0,38.0,-4.0,
2129.0,2036.0,38.0,-4.0,
2140.0,2088.0,38.0,-4.0,
2098.0,2089.0,38.0,-4.0,
2145.0,2066.0,38.0,-4.0,
2169.0,2110.0,38.0,-4.0,
2092.0,2144.0,38.0,-4.0,
2040.0,2188.0,38.0,-4.0,
2053.0,2167.0,38.0,-4.0,
2059.0,2147.0,38.0,-4.0,
1996.0,2023.0,38.0,-4.0,
1995.0,2005.0,38.0,-4.0,
2084.0,2058.0,39.0,-4.0,
2160.0,2090.0,39.0,-4.0,
2160.0,2094.0,39.0,-4.0,
2069.0,2111.0,39.0,-4.0,
2088.0,2101.0,39.0,-4.0,
2052.0,2114.0,39.0,-4.0,
2083.0,2126.0,39.0,-4.0,
2079.0,2135.0,39.0,-4.0,
2066.0,2095.0,39.0,-4.0,
2063.0,2075.0,39.0,-4.0,
2074.0,2124.0,39.0,-4.0,
2039.0,2103.0,40.0,-4.0,
2083.0,2120.0,40.0,-4.0,
2041.0,2059.0,40.0,-4.0,
1997.0,2069.0,40.0,-4.0,
2043.0,2138.0,40.0,-4.0,
2056.0,2180.0,40.0,-4.0,
2076.0,2069.0,40.0,-4.0,
2085.0,2050.0,40.0,-4.0,
2047.0,2026.0,40.0,-4.0,
2053.0,2146.0,41.0,-4.0,
2051.0,2150.0,41.0,-4.0,
2058.0,2043.0,41.0,-4.0,
2058.0,2035.0,41.0,-4.0,
2075.0,2091.0,41.0,-4.0,
2086.0,2154.0,41.0,-3.0,
2079.0,2217.0,41.0,-3.0,
2083.0,2199.0,41.0,-3.0,
2065.0,2014.0,41.0,-3.0,
2076.0,2030.0,42.0,-3.0,
2004.0,2021.0,42.0,-3.0,
2026.0,2031.0,42.0,-3.0,
2011.0,2004.0,42.0,-3.0,
2068.0,2099.0,42.0,-3.0,
2086.0,2215.0,42.0,-3.0,
2142.0,2085.0,42.0,-3.0,
2137.0,2030.0,43.0,-3.0,
2131.0,2074.0,43.0,-3.0,
2076.0,2121.0,43.0,-3.0,
2069.0,2167.0,43.0,-3.0,
2094.0,2204.0,43.0,-3.0,
2074.0,2071.0,43.0,-3.0,
1973.0,1942.0,43.0,-3.0,
2102.0,2079.0,44.0,-3.0,
2144.0,2120.0,44.0,-3.0,
2106.0,2057.0,44.0,-3.0,
2044.0,2042.0,44.0,-3.0,
2065.0,2109.0,44.0,-3.0,
2096.0,2107.0,44.0,-3.0,
2088.0,2149.0,45.0,-3.0,
2082.0,2167.0,45.0,-3.0,
2071.0,2012.0,45.0,-3.0,
2086.0,2030.0,45.0,-3.0,
2092.0,2102.0,45.0,-3.0,
2058.0,2145.0,46.0,-3.0,
2061.0,2094.0,46.0,-3.0,
2009.0,2139.0,46.0,-3.0,
2036.0,2044.0,46.0,-3.0,
2089.0,2122.0,46.0,-3.0,
2113.0,2135.0,46.0,-3.0,
2069.0,2062.0,46.0,-3.0,
2062.0,2030.0,47.0,-3.0,
2077.0,2145.0,47.0,-3.0,
2163.0,2203.0,47.0,-3.0,
2114.0,2149.0,47.0,-3.0,
2017.0,2028.0,47.0,-3.0,
1998.0,2006.0,48.0,-4.0,
2026.0,2052.0,48.0,-3.0,
2074.0,2108.0,48.0,-3.0,
2088.0,2128.0,48.0,-3.0,
2163.0,2139.0,49.0,-3.0,
2088.0,2072.0,49.0,-3.0,
2019.0,2070.0,49.0,-3.0,
2096.0,2170.0,49.0,-3.0,
2118.0,2061.0,49.0,-3.0,
2025.0,2133.0,49.0,-3.0,
2028.0,2165.0,49.0,-3.0,
2115.0,2090.0,49.0,-3.0,
2084.0,2043.0,49.0,-3.0,
2053.0,2061.0,49.0,-3.0,
2069.0,2008.0,49.0,-3.0,
2058.0,2088.0,49.0,-3.0,
2021.0,2109.0,49.0,-3.0,
2052.0,1968.0,49.0,-3.0,
2062.0,2112.0,50.0,-3.0,
2106.0,2049.0,50.0,-3.0,
2040.0,2091.0,50.0,-3.0,
2116.0,2122.0,50.0,-3.0,
2128.0,2164.0,50.0,-3.0,
2108.0,2173.0,50.0,-3.0,
2019.0,2039.0,50.0,-3.0,
2039.0,2172.0,50.0,-3.0,
2076.0,2144.0,50.0,-3.0,
2052.0,2057.0,50.0,-3.0,
2006.0,2070.0,50.0,-4.0,
2035.0,2057.0,50.0,-4.0,
2132.0,2126.0,50.0,-4.0,
2099.0,2068.0,50.0,-4.0,
2089.0,2111.0,50.0,-4.0,
2057.0,2142.0,50.0,-4.0,
2005.0,2064.0,50.0,-4.0,
2050.0,2022.0,51.0,-4.0,
2081.0,2077.0,51.0,-4.0,
2077.0,2068.0,51.0,-4.0,
2161.0,2176.0,51.0,-4.0,
2072.0,2033.0,51.0,-4.0,
2057.0,2123.0,51.0,-4.0,
2045.0,2101.0,51.0,-4.0,
2048.0,2201.0,51.0,-4.0,
2093.0,2104.0,51.0,-4.0,
2026.0,2002.0,51.0,-4.0,
2104.0,2022.0,51.0,-4.0,
2062.0,2019.0,52.0,-4.0,
2106.0,2076.0,52.0,-4.0,
2137.0,2111.0,52.0,-4.0,
2120.0,2107.0,52.0,-4.0,
2058.0,2166.0,52.0,-4.0,
2099.0,2155.0,52.0,-4.0,
2039.0,2197.0,52.0,-4.0,
2024.0,2049.0,53.0,-4.0,
2065.0,2061.0,53.0,-4.0,
2079.0,2111.0,53.0,-4.0,
2033.0,2185.0,53.0,-4.0,
2053.0,2159.0,53.0,-4.0,
2085.0,2028.0,53.0,-4.0,
2096.0,2030.0,53.0,-4.0,
2049.0,2014.0,54.0,-5.0,
2102.0,2154.0,54.0,-4.0,
2077.0,2138.0,0,
2069.0,1999.0,54.0,-4.0,
2127.0,2124.0,54.0,-4.0,
2086.0,2165.0,55.0,-4.0,
2043.0,2036.0,55.0,-4.0,
1994.0,2065.0,55.0,-4.0,
2100.0,2109.0,55.0,-4.0,
2134.0,2131.0,55.0,-4.0,
2066.0,2027.0,55.0,-4.0,
2072.0,2038.0,55.0,-4.0,
2070.0,2204.0,55.0,-4.0,
2078.0,2035.0,55.0,-4.0,
2056.0,2027.0,56.0,-4.0,
2041.0,2092.0,56.0,-4.0,
2065.0,2127.0,56.0,-4.0,
2083.0,2180.0,56.0,-4.0,
2077.0,2071.0,56.0,-4.0,
2087.0,2092.0,57.0,-4.0,
2090.0,2120.0,57.0,-4.0,
2117.0,2202.0,57.0,-4.0,
2065.0,2222.0,57.0,-4.0,
2051.0,2182.0,57.0,-4.0,
2097.0,2013.0,57.0,-4.0,
2043.0,1943.0,58.0,-4.0,
2029.0,2054.0,58.0,-4.0,
2031.0,2064.0,58.0,-4.0,
2084.0,2079.0,58.0,-4.0,
2103.0,2091.0,58.0,-4.0,
2137.0,2190.0,58.0,-4.0,
2049.0,2034.0,58.0,-4.0,
2017.0,1969.0,58.0,-4.0,
2066.0,2064.0,58.0,-4.0,
2007.0,2136.0,58.0,-4.0,
2075.0,2075.0,58.0,-4.0,
2063.0,2213.0,59.0,-4.0,
2088.0,2087.0,59.0,-4.0,
2058.0,2181.0,59.0,-4.0,
2079.0,2074.0,59.0,-4.0,
2175.0,2064.0,59.0,-4.0,
2039.0,2012.0,59.0,-4.0,
2113.0,2217.0,59.0,-4.0,
2124.0,2091.0,59.0,-4.0,
2031.0,1983.0,60.0,-4.0,
2074.0,2167.0,60.0,-4.0,
2068.0,2191.0,60.0,-4.0,
2060.0,2038.0,60.0,-4.0,
2122.0,2183.0,60.0,-4.0,
2023.0,2198.0,60.0,-4.0,
2016.0,2051.0,60.0,-4.0,
1943.0,2299.0,61.0,-4.0,
2020.0,1805.0,61.0,-4.0,
2154.0,2022.0,61.0,-4.0,
2119.0,2048.0,61.0,-4.0,
2070.0,2102.0,61.0,-4.0,
2116.0,2132.0,61.0,-4.0,
2074.0,2047.0,61.0,-4.0,
2061.0,2047.0,61.0,-5.0,
2104.0,2187.0,62.0,-5.0,
2021.0,2123.0,62.0,-5.0,
2040.0,2205.0,62.0,-5.0,
2067.0,2057.0,62.0,-5.0,
2135.0,2122.0,62.0,-5.0,
2135.0,1982.0,62.0,-5.0,
2165.0,2083.0,62.0,-5.0,
2113.0,2113.0,63.0,-5.0,
2021.0,2126.0,63.0,-5.0,
2105.0,2020.0,63.0,-5.0,
2078.0,1982.0,63.0,-5.0,
2064.0,2095.0,63.0,-5.0,
2068.0,2222.0,63.0,-5.0,
1991.0,2002.0,63.0,-5.0,
2078.0,2001.0,63.0,-5.0,
2044.0,2241.0,64.0,-5.0,
2111.0,2305.0,64.0,-5.0,
2098.0,1945.0,64.0,-5.0,
1968.0,1955.0,65.0,-5.0,
2019.0,2048.0,65.0,-5.0,
2056.0,2195.0,65.0,-5.0,
2058.0,1991.0,65.0,-5.0,
2094.0,2113.0,65.0,-5.0,
2112.0,2266.0,66.0,-5.0,
2052.0,2067.0,66.0,-5.0,
2023.0,2136.0,66.0,-5.0,
2117.0,2175.0,66.0,-5.0,
2079.0,2093.0,0,
2046.0,2031.0,66.0,-5.0,
2076.0,2094.0,66.0,-5.0,
2055.0,2103.0,66.0,-5.0,
2108.0,2179.0,67.0,-5.0,
2156.0,2038.0,67.0,-5.0,
2072.0,2167.0,67.0,-5.0,
2021.0,2037.0,67.0,-5.0,
2029.0,2227.0,67.0,-5.0,
2085.0,2069.0,67.0,-5.0,
2155.0,2091.0,67.0,-5.0,
1930.0,2065.0,67.0,-5.0,
2047.0,1942.0,68.0,-5.0,
2178.0,2148.0,68.0,-5.0,
1999.0,1999.0,68.0,-5.0,
1975.0,2077.0,68.0,-5.0,
2134.0,2153.0,68.0,-5.0,
2169.0,2026.0,68.0,-5.0,
2179.0,2432.0,69.0,-5.0,
2096.0,2141.0,69.0,-5.0,
1918.0,1901.0,0,
2074.0,2031.0,69.0,-5.0,
2023.0,1998.0,69.0,-5.0,
2004.0,2252.0,69.0,-5.0,
1953.0,2017.0,69.0,-5.0,
2042.0,1995.0,69.0,-5.0,
2211.0,2169.0,69.0,-5.0,
2136.0,2012.0,69.0,-5.0,
2111.0,2307.0,69.0,-5.0,
2050.0,1934.0,69.0,-5.0,
2099.0,2021.0,69.0,-5.0,
2086.0,2117.0,69.0,-5.0,
2110.0,2075.0,69.0,-5.0,
2085.0,2104.0,70.0,-5.0,
2133.0,2302.0,70.0,-5.0,
1948.0,2102.0,70.0,-5.0,
1955.0,2004.0,70.0,-5.0,
2016.0,2114.0,71.0,-5.0,
2071.0,2270.0,71.0,-5.0,
2042.0,2145.0,70.0,-6.0,
2099.0,2000.0,71.0,-6.0,
2076.0,2027.0,71.0,-6.0,
2136.0,1910.0,72.0,-6.0,
2175.0,2139.0,72.0,-7.0,
2117.0,2206.0,72.0,-6.0,
1997.0,2001.0,72.0,-7.0,
2062.0,2089.0,72.0,-7.0,
2070.0,2077.0,72.0,-7.0,
2124.0,2228.0,72.0,-7.0,
2106.0,2030.0,74.0,-6.0,
1929.0,2029.0,74.0,-6.0,
2148.0,2134.0,74.0,-6.0,
2042.0,2110.0,74.0,-6.0,
2027.0,2152.0,74.0,-6.0,
2031.0,2165.0,74.0,-7.0,
1993.0,2022.0,74.0,-7.0,
2133.0,1918.0,74.0,-7.0,
2195.0,2151.0,75.0,-6.0,
2070.0,2166.0,75.0,-6.0,
2126.0,1990.0,75.0,-7.0,
2098.0,2078.0,75.0,-6.0,
2026.0,2078.0,75.0,-7.0,
2046.0,2169.0,76.0,-7.0,
2027.0,2144.0,76.0,-7.0,
2111.0,2320.0,76.0,-7.0,
2057.0,2052.0,76.0,-6.0,
2061.0,2014.0,77.0,-6.0,
2008.0,2234.0,77.0,-6.0,
2022.0,2120.0,77.0,-7.0,
2034.0,1884.0,77.0,-6.0,
2087.0,2238.0,78.0,-6.0,
2116.0,1777.0,78.0,-6.0,
1989.0,2057.0,78.0,-6.0,
1983.0,2042.0,78.0,-6.0,
2192.0,2166.0,78.0,-6.0,
2107.0,2092.0,78.0,-6.0,
2185.0,2387.0,79.0,-6.0,
2157.0,2034.0,79.0,-6.0,
1983.0,1929.0,79.0,-6.0,
1998.0,1996.0,79.0,-7.0,
2039.0,2126.0,79.0,-6.0,
2059.0,2100.0,80.0,-6.0,
2073.0,2067.0,80.0,-7.0,
2042.0,2317.0,81.0,-6.0,
2095.0,2141.0,81.0,-6.0,
2043.0,1970.0,81.0,-6.0,
2175.0,2233.0,81.0,-6.0,
2098.0,1992.0,81.0,-6.0,
2052.0,2013.0,81.0,-6.0,
2020.0,1976.0,82.0,-6.0,
2006.0,2164.0,82.0,-6.0,
2152.0,2194.0,82.0,-6.0,
2105.0,2349.0,82.0,-6.0,
2153.0,1906.0,82.0,-6.0,
2147.0,1971.0,83.0,-6.0,
2063.0,2121.0,83.0,-6.0,
2003.0,2262.0,83.0,-6.0,
2003.0,2085.0,83.0,-6.0,
1985.0,1988.0,84.0,-6.0,
2071.0,2123.0,84.0,-6.0,
2073.0,2090.0,84.0,-6.0,
2104.0,2028.0,84.0,-6.0,
2137.0,2135.0,84.0,-6.0,
2143.0,2382.0,84.0,-6.0,
1965.0,2053.0,85.0,-6.0,
2013.0,1896.0,85.0,-6.0,
2112.0,2027.0,85.0,-6.0,
2124.0,2058.0,85.0,-6.0,
2072.0,2064.0,85.0,-6.0,
2173.0,2026.0,86.0,-7.0,
2163.0,2306.0,86.0,-7.0,
2087.0,2288.0,86.0,-6.0,
2082.0,2087.0,86.0,-7.0,
1997.0,1987.0,86.0,-6.0,
2148.0,1938.0,86.0,-7.0,
2062.0,1937.0,86.0,-6.0,
2103.0,2053.0,87.0,-6.0,
2089.0,2201.0,87.0,-6.0,
1869.0,2313.0,87.0,-6.0,
1932.0,2131.0,87.0,-6.0,
2238.0,1972.0,87.0,-6.0,
2031.0,1915.0,87.0,-6.0,
2156.0,2006.0,87.0,-6.0,
2099.0,2135.0,87.0,-6.0,
1983.0,2250.0,87.0,-6.0,
1907.0,2467.0,87.0,-6.0,
2197.0,2002.0,87.0,-6.0,
2104.0,1979.0,87.0,-6.0,
2158.0,1996.0,87.0,-6.0,
2116.0,2036.0,88.0,-6.0,
2084.0,2008.0,88.0,-6.0,
2038.0,2097.0,88.0,-6.0,
1996.0,2462.0,88.0,-6.0,
2092.0,1919.0,88.0,-6.0,
2061.0,2133.0,88.0,-6.0,
1984.0,2242.0,88.0,-6.0,
1975.0,1953.0,88.0,-6.0,
2047.0,1944.0,88.0,-6.0,
2142.0,2132.0,88.0,-7.0,
2049.0,2334.0,88.0,-7.0,
1999.0,1970.0,88.0,-7.0,
2141.0,2014.0,88.0,-7.0,
2229.0,2071.0,88.0,-7.0,
2229.0,2338.0,88.0,-6.0,
1943.0,2200.0,0,
1947.0,2071.0,88.0,-7.0,
2132.0,1861.0,88.0,-7.0,
2120.0,1934.0,88.0,-6.0,
2131.0,2027.0,88.0,-7.0,
2006.0,2090.0,88.0,-7.0,
2031.0,2266.0,88.0,-7.0,
2110.0,2465.0,88.0,-7.0,
1841.0,2259.0,89.0,-7.0,
1983.0,1736.0,88.0,-7.0,
2298.0,1867.0,89.0,-7.0,
2160.0,2253.0,89.0,-7.0,
2100.0,2021.0,89.0,-7.0,
2089.0,1902.0,89.0,-7.0,
2075.0,2040.0,89.0,-7.0,
2082.0,2214.0,89.0,-7.0,
1976.0,2137.0,89.0,-7.0,
1971.0,2607.0,89.0,-7.0,
2141.0,1887.0,89.0,-7.0,
1982.0,1941.0,89.0,-7.0,
1988.0,2188.0,89.0,-7.0,
1984.0,2097.0,89.0,-7.0,
2197.0,1862.0,89.0,-7.0,
2206.0,1983.0,89.0,-7.0,
2232.0,2545.0,89.0,-7.0,
1898.0,2085.0,89.0,-7.0,
2073.0,2027.0,89.0,-7.0,
2126.0,1860.0,89.0,-7.0,
2099.0,1966.0,89.0,-7.0,
2162.0,2148.0,89.0,-7.0,
1985.0,1957.0,89.0,-7.0,
2039.0,2305.0,90.0,-7.0,
1914.0,2282.0,89.0,-7.0,
2070.0,2146.0,90.0,-7.0,
2214.0,2211.0,90.0,-7.0,
2017.0,1760.0,90.0,-7.0,
2028.0,1928.0,90.0,-7.0,
2097.0,1970.0,90.0,-7.0,
2031.0,2145.0,90.0,-7.0,
2023.0,2080.0,90.0,-7.0,
2064.0,2440.0,90.0,-7.0,
1784.0,2312.0,90.0,-7.0,
2160.0,1766.0,90.0,-7.0,
2182.0,1907.0,90.0,-7.0,
2187.0,2057.0,90.0,-7.0,
2195.0,2150.0,90.0,-7.0,
2125.0,2196.0,90.0,-7.0,
2000.0,2028.0,90.0,-7.0,
2125.0,1953.0,90.0,-7.0,
2085.0,2544.0,90.0,-7.0,
2017.0,1938.0,90.0,-7.0,
2042.0,1814.0,90.0,-7.0,
2042.0,2007.0,90.0,-7.0,
1984.0,1952.0,90.0,-7.0,
2189.0,2313.0,90.0,-7.0,
2145.0,2178.0,90.0,-7.0,
1964.0,2150.0,90.0,-7.0,
1848.0,2695.0,90.0,-7.0,
2056.0,1656.0,90.0,-7.0,
2189.0,1847.0,90.0,-7.0,
2112.0,1909.0,90.0,-7.0,
2200.0,1977.0,90.0,-7.0,
2118.0,2070.0,90.0,-7.0,
2140.0,2458.0,90.0,-7.0,
2202.0,2967.0,91.0,-7.0,
1564.0,1631.0,91.0,-7.0,
2089.0,1926.0,91.0,-7.0,
2213.0,2164.0,91.0,-7.0,
2107.0,1797.0,91.0,-7.0,
2068.0,2016.0,91.0,-7.0,
2051.0,2270.0,91.0,-8.0,
2211.0,1844.0,91.0,-7.0,
2257.0,2050.0,91.0,-7.0,
2128.0,2090.0,92.0,-8.0,
1970.0,2502.0,92.0,-7.0,
1946.0,2462.0,92.0,-7.0,
1979.0,1921.0,92.0,-7.0,
2022.0,1632.0,92.0,-7.0,
2191.0,1825.0,92.0,-7.0,
2154.0,2019.0,92.0,-7.0,
2118.0,2492.0,92.0,-7.0,
1860.0,2028.0,92.0,-7.0,
1901.0,2181.0,92.0,-7.0,
2143.0,2177.0,92.0,-7.0,
2217.0,2172.0,92.0,-7.0,
2129.0,1941.0,93.0,-7.0,
2079.0,1987.0,93.0,-7.0,
2064.0,2055.0,93.0,-7.0,
2051.0,2221.0,93.0,-7.0,
1932.0,2789.0,93.0,-7.0,
1907.0,1954.0,93.0,-7.0,
2271.0,1691.0,93.0,-7.0,
2163.0,1872.0,93.0,-7.0,
2135.0,2011.0,93.0,-8.0,
2009.0,2055.0,93.0,-8.0,
1860.0,2357.0,93.0,-8.0,
1913.0,2561.0,93.0,-8.0,
2236.0,1802.0,93.0,-8.0,
2233.0,1847.0,93.0,-7.0,
2065.0,1907.0,93.0,-7.0,
2105.0,1982.0,93.0,-7.0,
2065.0,2154.0,93.0,-7.0,
1934.0,2177.0,93.0,-7.0,
2161.0,2525.0,93.0,-7.0,
2079.0,1874.0,93.0,-7.0,
2054.0,1976.0,93.0,-7.0,
1961.0,2426.0,92.0,-7.0,
2089.0,2050.0,92.0,-7.0,
1803.0,2340.0,92.0,-7.0,
2240.0,2025.0,92.0,-7.0,
2206.0,1827.0,92.0,-7.0,
2051.0,1965.0,92.0,-7.0,
2191.0,2094.0,92.0,-7.0,
2120.0,2083.0,92.0,-7.0,
2074.0,2000.0,92.0,-7.0,
2070.0,2308.0,92.0,-7.0,
1905.0,2346.0,92.0,-7.0,
1968.0,2040.0,92.0,-7.0,
2281.0,1940.0,92.0,-7.0,
2151.0,1903.0,92.0,-7.0,
2027.0,2073.0,92.0,-7.0,
2019.0,2124.0,92.0,-7.0,
2182.0,2160.0,92.0,-7.0,
2067.0,2250.0,92.0,-7.0,
1954.0,2232.0,92.0,-7.0,
1963.0,2218.0,92.0,-7.0,
2070.0,1857.0,92.0,-7.0,
2000.0,1806.0,92.0,-7.0,
2000.0,2219.0,92.0,-7.0,
2078.0,2640.0,92.0,-7.0,
2315.0,1488.0,93.0,-7.0,
2227.0,1960.0,93.0,-7.0,
2152.0,1883.0,93.0,-7.0,
2075.0,2020.0,93.0,-7.0,
1991.0,2141.0,93.0,-7.0,
1929.0,2428.0,93.0,-7.0,
2023.0,1850.0,93.0,-7.0,
2144.0,2084.0,93.0,-7.0,
2196.0,2119.0,93.0,-8.0,
2033.0,1965.0,94.0,-8.0,
2025.0,2159.0,94.0,-8.0,
1925.0,2557.0,94.0,-8.0,
2207.0,2117.0,94.0,-8.0,
2103.0,1821.0,94.0,-8.0,
2010.0,2009.0,94.0,-8.0,
1727.0,2163.0,94.0,-8.0,
2281.0,2082.0,94.0,-8.0,
2087.0,2176.0,95.0,-8.0,
1938.0,2240.0,95.0,-8.0,
2209.0,2116.0,95.0,-8.0,
2140.0,1808.0,95.0,-8.0,
2125.0,1904.0,95.0,-8.0,
2041.0,2028.0,95.0,-8.0,
2096.0,2078.0,95.0,-8.0,
1826.0,2328.0,95.0,-8.0,
2045.0,2486.0,95.0,-8.0,
2151.0,1716.0,95.0,-7.0,
2201.0,1632.0,95.0,-7.0,
2065.0,2363.0,95.0,-8.0,
2046.0,2190.0,95.0,-8.0,
2185.0,2197.0,94.0,-8.0,
2091.0,2336.0,94.0,-7.0,
1929.0,2005.0,94.0,-7.0,
2106.0,2029.0,94.0,-7.0,
1939.0,2314.0,94.0,-7.0,
2008.0,2280.0,94.0,-7.0,
2187.0,1940.0,94.0,-7.0,
2111.0,2007.0,94.0,-7.0,
2078.0,2057.0,94.0,-7.0,
2114.0,2287.0,94.0,-7.0,
1906.0,1728.0,94.0,-7.0,
2234.0,1922.0,94.0,-7.0,
2036.0,2016.0,94.0,-7.0,
2170.0,2270.0,94.0,-7.0,
1939.0,1989.0,94.0,-7.0,
2037.0,1939.0,94.0,-7.0,
2147.0,2206.0,94.0,-7.0,
2052.0,1846.0,93.0,-7.0,
2137.0,2110.0,93.0,-7.0,
2107.0,2362.0,93.0,-7.0,
1921.0,2359.0,93.0,-7.0,
2015.0,2140.0,93.0,-7.0,
2062.0,1910.0,93.0,-7.0,
2123.0,1940.0,93.0,-7.0,
2213.0,2168.0,93.0,-7.0,
2051.0,1981.0,93.0,-7.0,
1998.0,2185.0,93.0,-7.0,
2061.0,2103.0,94.0,-7.0,
2161.0,1925.0,94.0,-8.0,
2137.0,2459.0,94.0,-8.0,
2017.0,2114.0,94.0,-8.0,
2103.0,2022.0,94.0,-8.0,
2054.0,1906.0,94.0,-8.0,
2139.0,2075.0,94.0,-8.0,
2141.0,2282.0,94.0,-8.0,
1923.0,2110.0,94.0,-8.0,
2066.0,2319.0,94.0,-8.0,
2152.0,1734.0,94.0,-8.0,
2071.0,2239.0,95.0,-8.0,
2027.0,2016.0,95.0,-8.0,
2161.0,1876.0,95.0,-8.0,
2023.0,2244.0,95.0,-8.0,
2202.0,2138.0,95.0,-8.0,
2023.0,2135.0,95.0,-8.0,
2048.0,2104.0,95.0,-8.0,
2075.0,2109.0,95.0,-8.0,
2086.0,2037.0,95.0,-8.0,
1997.0,2330.0,95.0,-8.0,
1951.0,2088.0,95.0,-8.0,
2133.0,2018.0,95.0,-8.0,
1924.0,2170.0,95.0,-8.0,
2140.0,1841.0,95.0,-8.0,
2178.0,1817.0,0,
2184.0,2072.0,94.0,-8.0,
2032.0,2284.0,94.0,-8.0,
1936.0,2340.0,94.0,-8.0,
1983.0,1958.0,94.0,-8.0,
2123.0,1992.0,94.0,-8.0,
2123.0,2121.0,94.0,-8.0,
2102.0,2151.0,94.0,-8.0,
2113.0,2123.0,94.0,-8.0,
2081.0,2258.0,94.0,-7.0,
1900.0,2227.0,94.0,-7.0,
2084.0,2155.0,94.0,-8.0,
2159.0,1905.0,94.0,-8.0,
1923.0,2054.0,94.0,-7.0,
2133.0,2131.0,94.0,-8.0,
1977.0,1838.0,94.0,-8.0,
2132.0,1919.0,94.0,-7.0,
2188.0,2108.0,94.0,-8.0,
2146.0,1995.0,94.0,-7.0,
2068.0,2238.0,94.0,-8.0,
2056.0,2220.0,94.0,-8.0,
2019.0,2254.0,94.0,-8.0,
2110.0,2375.0,94.0,-7.0,
1951.0,1815.0,94.0,-7.0,
2144.0,2039.0,94.0,-7.0,
2030.0,2064.0,94.0,-7.0,
2227.0,2321.0,94.0,-7.0,
1873.0,2050.0,94.0,-7.0,
2046.0,1957.0,94.0,-7.0,
2200.0,1954.0,94.0,-7.0,
2134.0,2163.0,94.0,-7.0,
1884.0,2125.0,94.0,-7.0,
2148.0,1884.0,94.0,-7.0,
2177.0,2088.0,94.0,-7.0,
2008.0,2326.0,94.0,-7.0,
2074.0,2133.0,94.0,-7.0,
1974.0,2018.0,94.0,-8.0,
2178.0,1975.0,94.0,-8.0,
2082.0,2104.0,94.0,-8.0,
2032.0,2142.0,94.0,-8.0,
2133.0,2097.0,94.0,-8.0,
2092.0,2218.0,94.0,-8.0,
2094.0,2062.0,94.0,-8.0,
2177.0,2179.0,94.0,-8.0,
2105.0,2202.0,94.0,-8.0,
1917.0,2043.0,94.0,-8.0,
1916.0,2057.0,94.0,-8.0,
2048.0,2166.0,94.0,-8.0,
2086.0,1931.0,94.0,-8.0,
2148.0,2020.0,95.0,-8.0,
2125.0,2027.0,95.0,-8.0,
2059.0,2050.0,95.0,-8.0,
2053.0,2158.0,95.0,-8.0,
2068.0,2143.0,95.0,-8.0,
2077.0,2286.0,95.0,-8.0,
1947.0,2023.0,95.0,-8.0,
2053.0,2068.0,95.0,-8.0,
2078.0,1814.0,95.0,-8.0,
2066.0,2067.0,95.0,-8.0,
2073.0,2084.0,95.0,-8.0,
2049.0,2104.0,95.0,-8.0,
2017.0,2277.0,95.0,-7.0,
2163.0,2189.0,95.0,-7.0,
2051.0,2342.0,94.0,-7.0,
1858.0,2173.0,94.0,-7.0,
2097.0,2170.0,94.0,-7.0,
2219.0,2011.0,94.0,-7.0,
2097.0,2252.0,94.0,-7.0,
1994.0,1886.0,94.0,-7.0,
2136.0,1970.0,94.0,-7.0,
2159.0,2196.0,94.0,-7.0,
2020.0,2033.0,94.0,-7.0,
2036.0,2301.0,94.0,-7.0,
2040.0,2157.0,94.0,-8.0,
2068.0,1812.0,94.0,-8.0,
2047.0,2075.0,94.0,-8.0,
2033.0,2203.0,94.0,-8.0,
2133.0,2193.0,94.0,-8.0,
2048.0,1917.0,94.0,-8.0,
2089.0,2041.0,94.0,-8.0,
2059.0,2169.0,94.0,-7.0,
2013.0,2206.0,94.0,-7.0,
2131.0,2224.0,94.0,-8.0,
2060.0,2042.0,94.0,-8.0,
2002.0,2100.0,94.0,-8.0,
2143.0,2162.0,94.0,-8.0,
2074.0,1990.0,94.0,-8.0,
2105.0,2183.0,94.0,-8.0,
2131.0,2056.0,94.0,-8.0,
2071.0,2138.0,94.0,-8.0,
2086.0,2026.0,94.0,-8.0,
2021.0,2343.0,94.0,-8.0,
2081.0,2080.0,94.0,-8.0,
1855.0,2172.0,94.0,-8.0,
1949.0,2071.0,94.0,-8.0,
2249.0,2199.0,94.0,-8.0,
2112.0,1978.0,94.0,-8.0,
2187.0,2018.0,94.0,-8.0,
2168.0,2096.0,94.0,-7.0,
2073.0,2054.0,94.0,-7.0,
2103.0,2104.0,94.0,-7.0,
2019.0,2246.0,94.0,-7.0,
2115.0,2094.0,94.0,-7.0,
2021.0,1996.0,95.0,-7.0,
2068.0,2137.0,95.0,-7.0,
2127.0,2178.0,95.0,-7.0,
2063.0,1867.0,95.0,-7.0,
1983.0,2124.0,95.0,-7.0,
1998.0,2106.0,95.0,-7.0,
2071.0,2196.0,95.0,-7.0,
2196.0,1871.0,95.0,-7.0,
2044.0,2034.0,95.0,-7.0,
2038.0,2117.0,95.0,-7.0,
2116.0,2127.0,95.0,-7.0,
2038.0,2197.0,95.0,-7.0,
2055.0,2109.0,95.0,-7.0,
2075.0,2125.0,95.0,-7.0,
2037.0,2100.0,95.0,-7.0,
2043.0,1702.0,95.0,-7.0,
2065.0,2234.0,95.0,-8.0,
2060.0,2170.0,95.0,-7.0,
2072.0,2158.0,95.0,-7.0,
2113.0,2048.0,95.0,-8.0,
2096.0,2139.0,95.0,-8.0,
2061.0,2128.0,95.0,-8.0,
2043.0,2181.0,95.0,-8.0,
1997.0,2137.0,95.0,-8.0,
2002.0,2087.0,95.0,-7.0,
2084.0,2044.0,94.0,-7.0,
2135.0,2130.0,94.0,-7.0,
1850.0,2158.0,94.0,-7.0,
2224.0,1960.0,94.0,-7.0,
2196.0,1868.0,94.0,-7.0,
2123.0,2125.0,94.0,-7.0,
2040.0,2185.0,94.0,-7.0,
1996.0,2188.0,94.0,-7.0,
2046.0,2092.0,94.0,-7.0,
2075.0,2183.0,94.0,-7.0,
2068.0,2022.0,94.0,-7.0,
2109.0,2243.0,94.0,-7.0,
2153.0,1990.0,94.0,-7.0,
2076.0,2179.0,94.0,-7.0,
1992.0,2062.0,94.0,-7.0,
1971.0,2092.0,94.0,-7.0,
2083.0,2139.0,94.0,-7.0,
2052.0,2073.0,94.0,-7.0,
2083.0,1946.0,94.0,-7.0,
2072.0,2101.0,94.0,-7.0,
2150.0,2223.0,94.0,-7.0,
2131.0,2254.0,94.0,-7.0,
2026.0,1864.0,94.0,-7.0,
2029.0,2032.0,94.0,-7.0,
2029.0,2052.0,94.0,-7.0,
2052.0,2333.0,94.0,-7.0,
2025.0,1888.0,94.0,-7.0,
2064.0,2104.0,94.0,-7.0,
2183.0,2078.0,94.0,-7.0,
2150.0,2126.0,94.0,-7.0,
2087.0,1992.0,94.0,-7.0,
2047.0,2154.0,94.0,-7.0,
2061.0,2080.0,94.0,-7.0,
2030.0,2124.0,94.0,-7.0,
2088.0,2053.0,93.0,-7.0,
2039.0,2042.0,93.0,-7.0,
1954.0,2210.0,93.0,-7.0,
1883.0,2208.0,93.0,-7.0,
2116.0,2037.0,93.0,-7.0,
1963.0,2043.0,93.0,-7.0,
1966.0,2036.0,93.0,-7.0,
2040.0,2160.0,93.0,-7.0,
2128.0,2128.0,93.0,-7.0,
2114.0,2124.0,93.0,-7.0,
2134.0,2050.0,93.0,-7.0,
2253.0,2088.0,93.0,-7.0,
2219.0,2130.0,93.0,-7.0,
2202.0,2116.0,93.0,-7.0,
2119.0,2069.0,92.0,-7.0,
2039.0,2135.0,92.0,-7.0,
2003.0,2147.0,92.0,-7.0,
2106.0,2135.0,92.0,-7.0,
2072.0,2038.0,92.0,-7.0,
2025.0,2032.0,92.0,-7.0,
2190.0,2009.0,92.0,-7.0,
2051.0,2117.0,92.0,-7.0,
2033.0,2280.0,92.0,-7.0,
2063.0,1980.0,92.0,-7.0,
2025.0,2218.0,92.0,-7.0,
1956.0,2003.0,92.0,-7.0,
2024.0,2062.0,91.0,-7.0,
2026.0,2124.0,91.0,-7.0,
2122.0,2155.0,91.0,-7.0,
2072.0,2042.0,91.0,-7.0,
2048.0,2003.0,91.0,-7.0,
2031.0,2147.0,91.0,-7.0,
2059.0,2102.0,92.0,-7.0,
2135.0,2102.0,92.0,-7.0,
2056.0,1983.0,92.0,-7.0,
2077.0,2147.0,92.0,-7.0,
2081.0,2161.0,92.0,-7.0,
2103.0,2112.0,92.0,-7.0,
2098.0,2101.0,92.0,-7.0,
1978.0,2181.0,92.0,-7.0,
2120.0,2157.0,92.0,-6.0,
2021.0,1950.0,92.0,-7.0,
2061.0,2016.0,92.0,-6.0,
2014.0,2099.0,92.0,-7.0,
2020.0,2098.0,92.0,-7.0,
2105.0,2122.0,92.0,-7.0,
2095.0,2119.0,92.0,-7.0,
2048.0,1952.0,92.0,-7.0,
2089.0,2068.0,92.0,-7.0,
2059.0,2125.0,92.0,-7.0,
2068.0,2114.0,92.0,-7.0,
2085.0,2049.0,92.0,-7.0,
2051.0,2111.0,92.0,-7.0,
2092.0,2116.0,92.0,-7.0,
2063.0,2130.0,92.0,-7.0,
2108.0,2056.0,92.0,-7.0,
2099.0,1953.0,92.0,-7.0,
2140.0,2260.0,92.0,-7.0,
2074.0,2002.0,93.0,-7.0,
2063.0,2076.0,92.0,-7.0,
2057.0,2020.0,92.0,-7.0,
1973.0,2229.0,92.0,-7.0,
2041.0,2156.0,92.0,-7.0,
2070.0,2018.0,92.0,-7.0,
2097.0,2162.0,92.0,-7.0,
2103.0,2118.0,92.0,-7.0,
2082.0,2062.0,92.0,-7.0,
2026.0,2228.0,91.0,-7.0,
2046.0,1992.0,91.0,-7.0,
2068.0,2030.0,91.0,-7.0,
1986.0,2273.0,90.0,-7.0,
2037.0,2160.0,90.0,-7.0,
2074.0,2039.0,90.0,-7.0,
2050.0,2116.0,89.0,-7.0,
2025.0,2099.0,89.0,-7.0,
2068.0,2096.0,89.0,-7.0,
2087.0,2087.0,89.0,-7.0,
2078.0,2086.0,88.0,-7.0,
2100.0,2056.0,88.0,-7.0,
2138.0,2061.0,88.0,-7.0,
2117.0,2076.0,87.0,-7.0,
2064.0,2057.0,87.0,-6.0,
2028.0,2200.0,87.0,-6.0,
2057.0,2071.0,87.0,-6.0,
2027.0,2079.0,87.0,-6.0,
2117.0,2098.0,87.0,-6.0,
2089.0,2093.0,87.0,-6.0,
2038.0,1954.0,86.0,-6.0,
2099.0,2044.0,86.0,-6.0,
2113.0,2025.0,86.0,-6.0,
2112.0,2136.0,86.0,-6.0,
2071.0,2144.0,86.0,-7.0,
2144.0,2116.0,86.0,-7.0,
2090.0,2146.0,86.0,-7.0,
2062.0,2125.0,86.0,-7.0,
1992.0,2090.0,86.0,-7.0,
2085.0,2114.0,86.0,-7.0,
2087.0,2234.0,86.0,-7.0,
2079.0,2110.0,86.0,-7.0,
2012.0,1956.0,86.0,-7.0,
2079.0,2030.0,86.0,-7.0,
2068.0,2077.0,86.0,-7.0,
2098.0,2074.0,86.0,-6.0,
2053.0,2082.0,86.0,-6.0,
2016.0,1987.0,85.0,-7.0,
2007.0,2236.0,85.0,-6.0,
2019.0,2146.0,85.0,-6.0,
2038.0,2122.0,85.0,-6.0,
2048.0,2142.0,85.0,-6.0,
2112.0,2137.0,86.0,-6.0,
2058.0,2049.0,86.0,-6.0,
2038.0,2092.0,86.0,-6.0,
2086.0,2119.0,86.0,-6.0,
2098.0,2068.0,86.0,-6.0,
2061.0,2090.0,86.0,-6.0,
2050.0,2102.0,86.0,-6.0,
2111.0,2051.0,86.0,-6.0,
2122.0,2182.0,86.0,-6.0,
2059.0,2124.0,86.0,-6.0,
2058.0,2108.0,85.0,-6.0,
2009.0,2127.0,85.0,-6.0,
1991.0,1993.0,85.0,-6.0,
1966.0,2039.0,85.0,-6.0,
2023.0,1982.0,85.0,-6.0,
2060.0,2148.0,85.0,-6.0,
2093.0,2118.0,85.0,-6.0,
2045.0,2158.0,85.0,-6.0,
2100.0,2118.0,84.0,-6.0,
2156.0,2120.0,84.0,-6.0,
2130.0,2101.0,84.0,-6.0,
2155.0,2123.0,84.0,-6.0,
2150.0,2019.0,84.0,-6.0,
2095.0,2124.0,84.0,-6.0,
2100.0,2183.0,84.0,-6.0,
2095.0,2107.0,84.0,-6.0,
2140.0,2130.0,84.0,-6.0,
2120.0,2146.0,84.0,-6.0,
2124.0,2151.0,84.0,-6.0,
2035.0,2050.0,84.0,-6.0,
2044.0,1972.0,83.0,-6.0,
2034.0,2055.0,83.0,-6.0,
2046.0,2123.0,83.0,-6.0,
2042.0,2069.0,83.0,-6.0,
2041.0,2124.0,83.0,-6.0,
2105.0,1987.0,83.0,-6.0,
2098.0,2105.0,83.0,-6.0,
2011.0,1993.0,82.0,-6.0,
1993.0,2114.0,82.0,-6.0,
2026.0,2106.0,82.0,-6.0,
2011.0,2059.0,82.0,-6.0,
2052.0,2104.0,82.0,-6.0,
2067.0,2125.0,81.0,-6.0,
2044.0,2108.0,81.0,-6.0,
2091.0,2137.0,81.0,-6.0,
2056.0,2117.0,81.0,-5.0,
2097.0,2065.0,81.0,-5.0,
2068.0,2147.0,81.0,-5.0,
2028.0,2061.0,81.0,-5.0,
2065.0,2077.0,82.0,-5.0,
2080.0,2091.0,82.0,-5.0,
2083.0,2120.0,82.0,-5.0,
2070.0,2127.0,82.0,-5.0,
2064.0,2074.0,82.0,-5.0,
2038.0,2086.0,82.0,-6.0,
2041.0,2106.0,82.0,-6.0,
2076.0,2112.0,82.0,-5.0,
2088.0,2091.0,82.0,-5.0,
2093.0,2091.0,82.0,-6.0,
2097.0,2099.0,82.0,-6.0,
2119.0,2070.0,81.0,-6.0,
2094.0,2120.0,81.0,-6.0,
2073.0,2118.0,81.0,-6.0,
2037.0,2072.0,80.0,-6.0,
2031.0,2096.0,80.0,-6.0,
2030.0,2120.0,80.0,-6.0,
2011.0,2082.0,80.0,-6.0,
2104.0,2100.0,79.0,-6.0,
2061.0,2109.0,79.0,-6.0,
2121.0,2058.0,79.0,-6.0,
2096.0,2125.0,79.0,-6.0,
2091.0,2074.0,78.0,-6.0,
2056.0,2086.0,78.0,-6.0,
2055.0,2088.0,78.0,-6.0,
2095.0,2065.0,78.0,-6.0,
2072.0,2055.0,78.0,-6.0,
2055.0,2042.0,77.0,-6.0,
2117.0,2069.0,77.0,-6.0,
2066.0,2301.0,77.0,-6.0,
2047.0,2108.0,77.0,-6.0,
2088.0,2129.0,77.0,-6.0,
2076.0,2084.0,76.0,-6.0,
2063.0,2111.0,76.0,-6.0,
2075.0,2090.0,76.0,-6.0,
2065.0,2132.0,75.0,-6.0,
2012.0,2055.0,75.0,-6.0,
2064.0,2041.0,74.0,-6.0,
2106.0,2061.0,74.0,-6.0,
2056.0,2061.0,73.0,-6.0,
2053.0,2164.0,73.0,-6.0,
2036.0,2028.0,72.0,-6.0,
2033.0,2050.0,71.0,-5.0,
2047.0,2047.0,71.0,-5.0,
2115.0,2043.0,70.0,-5.0,
2108.0,2277.0,69.0,-5.0,
2049.0,2140.0,69.0,-5.0,
2009.0,2090.0,68.0,-5.0,
2060.0,2085.0,68.0,-5.0,
2082.0,2057.0,68.0,-5.0,
2088.0,2078.0,68.0,-5.0,
2050.0,2085.0,68.0,-5.0,
1998.0,2092.0,68.0,-5.0,
2027.0,2057.0,68.0,-4.0,
2031.0,2086.0,68.0,-5.0,
2073.0,2063.0,68.0,-4.0,
2158.0,2025.0,69.0,-4.0,
2156.0,2171.0,69.0,-4.0,
2141.0,2134.0,69.0,-4.0,
2090.0,2098.0,69.0,-4.0,
2098.0,2075.0,69.0,-4.0,
2033.0,2098.0,69.0,-4.0,
2057.0,2139.0,69.0,-5.0,
2078.0,2152.0,69.0,-5.0,
2066.0,2124.0,69.0,-5.0,
2099.0,2080.0,69.0,-5.0,
2118.0,2078.0,68.0,-5.0,
2075.0,2062.0,68.0,-6.0,
2016.0,2065.0,68.0,-6.0,
2014.0,2051.0,68.0,-6.0,
2013.0,2026.0,68.0,-6.0,
2054.0,2098.0,68.0,-6.0,
2115.0,2116.0,68.0,-6.0,
2148.0,2100.0,69.0,-6.0,
2148.0,2085.0,69.0,-6.0,
2139.0,2127.0,69.0,-6.0,
2058.0,2139.0,69.0,-6.0,
2045.0,2064.0,69.0,-6.0,
1979.0,2091.0,69.0,-5.0,
2018.0,2111.0,69.0,-5.0,
2053.0,2153.0,69.0,-5.0,
2025.0,2018.0,69.0,-5.0,
2095.0,2088.0,69.0,-5.0,
2145.0,2107.0,68.0,-5.0,
2097.0,2021.0,68.0,-5.0,
2089.0,2126.0,68.0,-6.0,
2052.0,2037.0,67.0,-6.0,
2053.0,2047.0,67.0,-6.0,
2034.0,2098.0,66.0,-6.0,
2080.0,2075.0,65.0,-6.0,
2093.0,2103.0,64.0,-6.0,
2071.0,2122.0,63.0,-6.0,
2091.0,2118.0,62.0,-5.0,
2089.0,2096.0,61.0,-5.0,
2043.0,2123.0,60.0,-5.0,
2041.0,2137.0,59.0,-4.0,
2006.0,2073.0,58.0,-4.0,
1991.0,2066.0,57.0,-3.0,
2072.0,2088.0,56.0,-3.0,
2098.0,2025.0,55.0,-3.0,
2033.0,2166.0,55.0,-2.0,
2082.0,2061.0,55.0,-2.0,
2077.0,2120.0,56.0,-2.0,
2090.0,2117.0,56.0,-3.0,
2075.0,2128.0,57.0,-3.0,
2095.0,2120.0,57.0,-3.0,
2127.0,2117.0,57.0,-3.0,
2089.0,2064.0,58.0,-3.0,
2065.0,2143.0,58.0,-3.0,
2078.0,2095.0,59.0,-3.0,
2056.0,2134.0,60.0,-3.0,
2064.0,2130.0,60.0,-3.0,
2037.0,2053.0,0,
2064.0,2000.0,61.0,-4.0,
2029.0,2063.0,61.0,-4.0,
2047.0,2122.0,61.0,-4.0,
2064.0,2123.0,61.0,-4.0,
2074.0,2110.0,61.0,-5.0,
2057.0,2129.0,61.0,-5.0,
2068.0,2099.0,61.0,-5.0,
2025.0,2093.0,61.0,-5.0,
2030.0,2090.0,61.0,-5.0,
2067.0,2047.0,61.0,-5.0,
2136.0,2074.0,61.0,-5.0,
2100.0,2107.0,61.0,-5.0,
2074.0,2095.0,61.0,-5.0,
2085.0,2086.0,61.0,-5.0,
2073.0,2067.0,61.0,-5.0,
2057.0,2080.0,62.0,-5.0,
2055.0,2084.0,62.0,-5.0,
2031.0,2098.0,62.0,-5.0,
2076.0,2129.0,62.0,-5.0,
2109.0,2148.0,62.0,-5.0,
2066.0,2144.0,62.0,-5.0,
2036.0,2072.0,0,
2077.0,2088.0,62.0,-5.0,
2086.0,2114.0,62.0,-5.0,
2062.0,2033.0,62.0,-5.0,
2058.0,2026.0,61.0,-5.0,
2031.0,2060.0,61.0,-5.0,
2089.0,2105.0,60.0,-6.0,
2086.0,2076.0,59.0,-6.0,
2064.0,2044.0,59.0,-6.0,
2057.0,2084.0,58.0,-6.0,
2009.0,2093.0,57.0,-6.0,
2021.0,2080.0,56.0,-5.0,
2036.0,2123.0,54.0,-5.0,
2158.0,2137.0,53.0,-4.0,
2050.0,2065.0,52.0,-4.0,
2040.0,2056.0,51.0,-3.0,
2058.0,2127.0,50.0,-3.0,
2098.0,2103.0,49.0,-2.0,
2139.0,2125.0,48.0,-2.0,
2072.0,2123.0,48.0,-2.0,
2079.0,2107.0,48.0,-2.0,
2078.0,2119.0,47.0,-2.0,
2104.0,2101.0,47.0,-2.0,
2128.0,2106.0,48.0,-2.0,
2081.0,2099.0,48.0,-2.0,
2091.0,2073.0,48.0,-2.0,
2090.0,2109.0,49.0,-2.0,
2079.0,2111.0,50.0,-2.0,
2058.0,2121.0,50.0,-3.0,
2056.0,2081.0,50.0,-3.0,
2045.0,2064.0,51.0,-3.0,
2061.0,2026.0,51.0,-3.0,
2063.0,2081.0,52.0,-3.0,
2074.0,2111.0,52.0,-3.0,
2081.0,2097.0,52.0,-4.0,
2088.0,2113.0,52.0,-4.0,
2092.0,2106.0,53.0,-4.0,
2062.0,2072.0,53.0,-4.0,
2030.0,2125.0,53.0,-4.0,
2023.0,2108.0,53.0,-5.0,
2019.0,2109.0,53.0,-5.0,
2040.0,2096.0,53.0,-5.0,
2123.0,2058.0,53.0,-5.0,
2138.0,2057.0,53.0,-5.0,
2079.0,2116.0,53.0,-5.0,
2072.0,2081.0,53.0,-5.0,
2038.0,2104.0,53.0,-5.0,
2059.0,2130.0,53.0,-5.0,
2024.0,2096.0,53.0,-5.0,
2083.0,2091.0,53.0,-5.0,
2087.0,2095.0,54.0,-5.0,
2061.0,2091.0,54.0,-5.0,
2111.0,2093.0,54.0,-5.0,
2091.0,2100.0,54.0,-5.0,
2098.0,2089.0,54.0,-5.0,
2082.0,2091.0,54.0,-5.0,
2087.0,2071.0,55.0,-5.0,
2092.0,2068.0,55.0,-5.0,
2090.0,2061.0,55.0,-5.0,
2113.0,2080.0,55.0,-5.0,
2094.0,2135.0,55.0,-5.0,
2060.0,2136.0,55.0,-5.0,
2063.0,2136.0,55.0,-5.0,
2091.0,2187.0,55.0,-5.0,
1958.0,1922.0,55.0,-5.0,
2034.0,2023.0,55.0,-5.0,
2102.0,2059.0,54.0,-5.0,
2098.0,2044.0,54.0,-5.0,
2102.0,2098.0,54.0,-5.0,
2103.0,2105.0,53.0,-5.0,
2099.0,2109.0,53.0,-4.0,
2064.0,2113.0,52.0,-4.0,
2054.0,2117.0,52.0,-4.0,
2043.0,2110.0,51.0,-3.0,
2034.0,2110.0,50.0,-3.0,
2056.0,2107.0,50.0,-3.0,
2053.0,2128.0,49.0,-3.0,
2049.0,2140.0,48.0,-2.0,
2048.0,2062.0,48.0,-2.0,
2035.0,2068.0,48.0,-2.0,
2057.0,2083.0,47.0,-2.0,
2062.0,2096.0,47.0,-2.0,
2060.0,2103.0,47.0,-2.0,
2041.0,2071.0,47.0,-2.0,
2026.0,2086.0,47.0,-2.0,
2134.0,2095.0,48.0,-2.0,
2131.0,2098.0,47.0,-2.0,
2107.0,2108.0,47.0,-2.0,
2014.0,2099.0,47.0,-2.0,
2082.0,2125.0,47.0,-2.0,
2043.0,2130.0,47.0,-2.0,
2007.0,2115.0,48.0,-2.0,
2012.0,2081.0,48.0,-2.0,
2032.0,2067.0,48.0,-3.0,
2179.0,2044.0,48.0,-3.0,
2162.0,2025.0,48.0,-3.0,
2190.0,2067.0,48.0,-3.0,
2126.0,2081.0,48.0,-3.0,
2104.0,2092.0,48.0,-3.0,
2079.0,2095.0,48.0,-3.0,
2034.0,2106.0,48.0,-4.0,
2040.0,2082.0,48.0,-4.0,
2046.0,2133.0,47.0,-4.0,
2039.0,2099.0,47.0,-4.0,
2058.0,2139.0,47.0,-4.0,
2067.0,2131.0,46.0,-4.0,
2065.0,2115.0,46.0,-4.0,
2085.0,2090.0,46.0,-4.0,
2036.0,2042.0,46.0,-4.0,
2048.0,2029.0,45.0,-4.0,
2072.0,2068.0,45.0,-4.0,
2064.0,2083.0,45.0,-4.0,
2067.0,2095.0,45.0,-4.0,
2060.0,2099.0,44.0,-4.0,
2058.0,2104.0,44.0,-4.0,
2067.0,2118.0,44.0,-4.0,
2052.0,2122.0,44.0,-4.0,
2031.0,2114.0,43.0,-4.0,
2046.0,2096.0,43.0,-4.0,
2043.0,2100.0,43.0,-4.0,
2109.0,2074.0,43.0,-4.0,
2095.0,2089.0,43.0,-4.0,
2106.0,2099.0,43.0,-4.0,
2070.0,2098.0,42.0,-4.0,
2059.0,2106.0,42.0,-4.0,
2063.0,2124.0,42.0,-4.0,
2048.0,2121.0,42.0,-4.0,
2059.0,2061.0,42.0,-4.0,
2074.0,2078.0,42.0,-4.0,
2047.0,2083.0,42.0,-4.0,
2049.0,2098.0,42.0,-4.0,
2059.0,2101.0,41.0,-4.0,
2108.0,2193.0,41.0,-4.0,
2134.0,2171.0,41.0,-4.0,
2040.0,1917.0,41.0,-4.0,
2013.0,1980.0,41.0,-4.0,
2070.0,2112.0,41.0,-3.0,
2023.0,2130.0,41.0,-3.0,
2085.0,2087.0,40.0,-3.0,
2120.0,2076.0,40.0,-3.0,
2103.0,2097.0,40.0,-3.0,
2102.0,2147.0,39.0,-3.0,
2067.0,2098.0,39.0,-3.0,
2080.0,2114.0,39.0,-3.0,
2059.0,2112.0,38.0,-3.0,
2050.0,2131.0,38.0,-3.0,
2052.0,2106.0,38.0,-3.0,
2059.0,2097.0,38.0,-3.0,
2069.0,2101.0,38.0,-3.0,
2070.0,2103.0,38.0,-3.0,
2034.0,2088.0,38.0,-3.0,
2008.0,2063.0,38.0,-3.0,
2029.0,2065.0,38.0,-3.0,
2049.0,2067.0,38.0,-3.0,
2157.0,2115.0,38.0,-3.0,
2140.0,2121.0,38.0,-3.0,
2097.0,2081.0,39.0,-3.0,
2089.0,2059.0,39.0,-3.0,
2064.0,2090.0,39.0,-3.0,
2055.0,2079.0,39.0,-3.0,
2058.0,2083.0,39.0,-3.0,
2035.0,2076.0,39.0,-3.0,
2024.0,2084.0,39.0,-3.0,
2004.0,2068.0,39.0,-3.0,
2021.0,2162.0,39.0,-3.0,
2060.0,2125.0,39.0,-3.0,
2109.0,2081.0,39.0,-3.0,
2093.0,2082.0,40.0,-3.0,
2026.0,2107.0,40.0,-3.0,
2042.0,2094.0,40.0,-3.0,
2138.0,2078.0,40.0,-3.0,
2181.0,2077.0,40.0,-3.0,
2061.0,2074.0,40.0,-3.0,
2079.0,2095.0,40.0,-3.0,
2109.0,2104.0,40.0,-3.0,
2082.0,2093.0,40.0,-3.0,
2078.0,2085.0,41.0,-3.0,
2058.0,2084.0,41.0,-3.0,
2048.0,2094.0,41.0,-3.0,
2028.0,2106.0,41.0,-3.0,
2022.0,2118.0,41.0,-4.0,
2039.0,2106.0,41.0,-4.0,
2063.0,2095.0,41.0,-4.0,
2094.0,2072.0,41.0,-4.0,
2188.0,2085.0,41.0,-4.0,
2084.0,2074.0,41.0,-4.0,
2076.0,2060.0,41.0,-4.0,
2048.0,2103.0,41.0,-4.0,
2037.0,2118.0,40.0,-4.0,
2074.0,2085.0,40.0,-3.0,
2084.0,2071.0,40.0,-3.0,
2090.0,2077.0,40.0,-3.0,
2046.0,2097.0,40.0,-3.0,
2051.0,2126.0,40.0,-3.0,
2043.0,2145.0,40.0,-3.0,
2035.0,2102.0,39.0,-3.0,
2056.0,2083.0,39.0,-3.0,
2063.0,2072.0,39.0,-3.0,
2098.0,2056.0,39.0,-3.0,
2114.0,2128.0,39.0,-3.0,
2083.0,2121.0,38.0,-3.0,
2060.0,2116.0,38.0,-3.0,
2077.0,2102.0,38.0,-3.0,
2071.0,2161.0,38.0,-3.0,
2080.0,2134.0,38.0,-2.0,
2055.0,2099.0,38.0,-2.0,
2019.0,2033.0,38.0,-2.0,
2055.0,2053.0,37.0,-2.0,
2100.0,2066.0,37.0,-2.0,
2084.0,2112.0,37.0,-2.0,
2088.0,2104.0,37.0,-2.0,
2065.0,2088.0,37.0,-2.0,
2098.0,2141.0,37.0,-2.0,
2072.0,2093.0,37.0,-2.0,
2068.0,2016.0,37.0,-2.0,
2049.0,2018.0,37.0,-2.0,
2071.0,2057.0,36.0,-2.0,
2050.0,2069.0,36.0,-2.0,
2107.0,2093.0,36.0,-2.0,
2119.0,2130.0,36.0,-2.0,
2098.0,2093.0,36.0,-2.0,
2040.0,2117.0,36.0,-2.0,
2063.0,2119.0,35.0,-2.0,
2036.0,2089.0,35.0,-2.0,
2095.0,2124.0,35.0,-2.0,
2108.0,2167.0,35.0,-2.0,
2082.0,2096.0,35.0,-2.0,
2057.0,2008.0,35.0,-2.0,
2053.0,2048.0,35.0,-2.0,
2059.0,2051.0,35.0,-2.0,
2059.0,2083.0,35.0,-2.0,
2068.0,2108.0,35.0,-2.0,
2072.0,2094.0,35.0,-2.0,
2062.0,2102.0,35.0,-2.0,
2064.0,2108.0,35.0,-2.0,
2075.0,2116.0,34.0,-2.0,
2085.0,2127.0,34.0,-2.0,
2096.0,2104.0,34.0,-3.0,
2102.0,2109.0,33.0,-3.0,
2062.0,2105.0,33.0,-3.0,
2040.0,2105.0,33.0,-3.0,
2058.0,2102.0,33.0,-3.0,
2075.0,2095.0,33.0,-3.0,
2071.0,2111.0,33.0,-3.0,
2081.0,2104.0,33.0,-3.0,
2066.0,2095.0,33.0,-3.0,
2049.0,2101.0,33.0,-3.0,
2031.0,2100.0,33.0,-3.0,
2026.0,2103.0,33.0,-3.0,
2046.0,2096.0,34.0,-3.0,
2057.0,2082.0,34.0,-3.0,
2063.0,2078.0,34.0,-3.0,
2123.0,2084.0,34.0,-4.0,
2105.0,2076.0,34.0,-4.0,
2084.0,2107.0,34.0,-4.0,
2062.0,2097.0,34.0,-4.0,
2040.0,2091.0,34.0,-4.0,
2077.0,2107.0,34.0,-4.0,
2092.0,2106.0,34.0,-4.0,
2075.0,2091.0,34.0,-3.0,
2083.0,2074.0,35.0,-3.0,
2076.0,2085.0,35.0,-3.0,
2089.0,2108.0,35.0,-3.0,
2073.0,2099.0,35.0,-3.0,
2063.0,2079.0,35.0,-3.0,
2062.0,2084.0,36.0,-3.0,
2047.0,2102.0,36.0,-3.0,
2056.0,2100.0,36.0,-3.0,
2067.0,2084.0,36.0,-3.0,
2084.0,2108.0,37.0,-3.0,
2086.0,2091.0,37.0,-3.0,
2047.0,2077.0,37.0,-3.0,
2082.0,2077.0,37.0,-3.0,
2081.0,2107.0,38.0,-3.0,
2044.0,2094.0,38.0,-3.0,
2052.0,2081.0,38.0,-3.0,
2056.0,2061.0,38.0,-3.0,
2054.0,2085.0,38.0,-3.0,
2057.0,2097.0,39.0,-3.0,
2071.0,2110.0,39.0,-3.0,
2118.0,2122.0,39.0,-3.0,
2121.0,2125.0,39.0,-3.0,
2063.0,2081.0,39.0,-3.0,
2055.0,2106.0,39.0,-3.0,
2047.0,2066.0,39.0,-3.0,
2051.0,2064.0,39.0,-3.0,
2068.0,2091.0,39.0,-3.0,
2087.0,2070.0,39.0,-3.0,
2091.0,2154.0,39.0,-3.0,
2101.0,2108.0,39.0,-3.0,
2088.0,2099.0,39.0,-3.0,
2067.0,2103.0,39.0,-3.0,
2053.0,2102.0,39.0,-3.0,
2040.0,2077.0,39.0,-3.0,
2042.0,2123.0,39.0,-3.0,
2076.0,2120.0,38.0,-3.0,
2070.0,2052.0,38.0,-3.0,
2071.0,2097.0,38.0,-3.0,
2070.0,2087.0,38.0,-3.0,
2073.0,2074.0,38.0,-3.0,
2016.0,2101.0,38.0,-3.0,
2026.0,2084.0,37.0,-3.0,
2028.0,2070.0,37.0,-3.0,
2037.0,2097.0,37.0,-3.0,
2126.0,2086.0,37.0,-3.0,
2158.0,2155.0,37.0,-3.0,
2075.0,2055.0,37.0,-3.0,
2050.0,2096.0,36.0,-3.0,
2004.0,2043.0,36.0,-3.0,
2039.0,2083.0,36.0,-3.0,
2061.0,2121.0,36.0,-3.0,
2073.0,2114.0,36.0,-3.0,
2169.0,2103.0,35.0,-3.0,
2131.0,2058.0,35.0,-3.0,
2085.0,2069.0,35.0,-3.0,
2072.0,2058.0,35.0,-3.0,
2057.0,2071.0,35.0,-3.0,
2057.0,2110.0,35.0,-3.0,
2068.0,2127.0,35.0,-3.0,
2021.0,2098.0,35.0,-3.0,
2019.0,2108.0,35.0,-3.0,
2067.0,2111.0,35.0,-3.0,
2076.0,2101.0,34.0,-3.0,
2129.0,2113.0,34.0,-3.0,
2111.0,2119.0,35.0,-3.0,
2126.0,2107.0,34.0,-3.0,
2075.0,2102.0,35.0,-3.0,
2057.0,2088.0,35.0,-3.0,
2039.0,2065.0,35.0,-3.0,
2058.0,2050.0,35.0,-3.0,
2062.0,2117.0,35.0,-3.0,
2059.0,2159.0,35.0,-3.0,
2068.0,2141.0,35.0,-3.0,
2102.0,2116.0,35.0,-3.0,
2044.0,2098.0,35.0,-3.0,
2044.0,2079.0,35.0,-3.0,
2059.0,2084.0,35.0,-3.0,
2069.0,2089.0,36.0,-3.0,
2071.0,2082.0,36.0,-3.0,
2074.0,2094.0,36.0,-3.0,
2074.0,2095.0,36.0,-3.0,
2072.0,2097.0,36.0,-3.0,
2057.0,2092.0,36.0,-3.0,
2034.0,2085.0,37.0,-3.0,
2024.0,2083.0,37.0,-3.0,
2091.0,2092.0,37.0,-3.0,
2072.0,2091.0,37.0,-3.0,
2052.0,2087.0,37.0,-3.0,
2084.0,2093.0,37.0,-3.0,
2112.0,2082.0,38.0,-3.0,
2099.0,2092.0,38.0,-3.0,
2061.0,2095.0,38.0,-3.0,
2032.0,2094.0,38.0,-3.0,
2045.0,2090.0,38.0,-3.0,
2044.0,2090.0,39.0,-3.0,
2081.0,2093.0,39.0,-3.0,
2071.0,2098.0,39.0,-3.0,
2093.0,2100.0,39.0,-3.0,
2103.0,2094.0,39.0,-3.0,
2069.0,2084.0,39.0,-3.0,
2052.0,2075.0,39.0,-3.0,
2054.0,2099.0,39.0,-3.0,
2054.0,2114.0,39.0,-3.0,
2049.0,2108.0,39.0,-3.0,
2054.0,2136.0,39.0,-3.0,
2076.0,2142.0,39.0,-3.0,
2073.0,2059.0,39.0,-3.0,
2105.0,2037.0,39.0,-3.0,
2103.0,2053.0,39.0,-3.0,
2073.0,2108.0,39.0,-3.0,
2071.0,2093.0,39.0,-3.0,
2081.0,2038.0,39.0,-3.0,
2052.0,2087.0,39.0,-3.0,
2058.0,2088.0,39.0,-3.0,
2068.0,2083.0,39.0,-3.0,
2062.0,2089.0,39.0,-3.0,
2073.0,2112.0,38.0,-3.0,
2063.0,2120.0,38.0,-3.0,
2043.0,2095.0,38.0,-3.0,
2070.0,2105.0,38.0,-3.0,
2077.0,2102.0,38.0,-3.0,
2069.0,2104.0,38.0,-3.0,
2074.0,2103.0,38.0,-3.0,
2048.0,2122.0,37.0,-3.0,
2079.0,2140.0,37.0,-3.0,
2058.0,2101.0,37.0,-3.0,
2040.0,2079.0,37.0,-3.0,
2036.0,2013.0,37.0,-3.0,
2027.0,2086.0,37.0,-3.0,
2052.0,2116.0,37.0,-3.0,
2083.0,2094.0,37.0,-3.0,
2094.0,2130.0,37.0,-3.0,
2069.0,2149.0,36.0,-3.0,
2121.0,2118.0,36.0,-3.0,
2109.0,2003.0,36.0,-3.0,
2091.0,2078.0,36.0,-3.0,
2032.0,2077.0,36.0,-3.0,
2040.0,2127.0,36.0,-3.0,
2069.0,2046.0,36.0,-3.0,
2043.0,2073.0,36.0,-3.0,
2065.0,2052.0,36.0,-3.0,
2072.0,2069.0,36.0,-3.0,
2106.0,2076.0,36.0,-3.0,
2081.0,2084.0,35.0,-3.0,
2058.0,2089.0,35.0,-3.0,
2033.0,2087.0,35.0,-3.0,
2026.0,2121.0,35.0,-3.0,
2062.0,2111.0,35.0,-3.0,
2068.0,2111.0,35.0,-3.0,
2101.0,2075.0,35.0,-3.0,
2102.0,2074.0,35.0,-3.0,
2087.0,2136.0,35.0,-3.0,
2074.0,2089.0,35.0,-3.0,
2057.0,2088.0,35.0,-3.0,
2026.0,2098.0,35.0,-3.0,
2044.0,2121.0,35.0,-3.0,
2033.0,2132.0,35.0,-3.0,
2055.0,2134.0,35.0,-3.0,
2051.0,2090.0,35.0,-3.0,
2083.0,2083.0,35.0,-3.0,
2078.0,2066.0,35.0,-3.0,
2131.0,2082.0,35.0,-3.0,
2103.0,2082.0,35.0,-3.0,
2074.0,2082.0,35.0,-3.0,
2050.0,2116.0,35.0,-3.0,
2078.0,2115.0,35.0,-3.0,
2090.0,2119.0,35.0,-3.0,
2065.0,2109.0,35.0,-3.0,
2077.0,2109.0,35.0,-3.0,
2057.0,2099.0,35.0,-3.0,
2064.0,2098.0,36.0,-3.0,
2054.0,2091.0,36.0,-3.0,
2051.0,2083.0,36.0,-3.0,
2044.0,2084.0,36.0,-3.0,
2053.0,2090.0,36.0,-3.0,
2067.0,2112.0,36.0,-3.0,
2066.0,2086.0,36.0,-3.0,
2093.0,2100.0,37.0,-3.0,
2082.0,2091.0,37.0,-3.0,
2062.0,2086.0,37.0,-3.0,
2029.0,2064.0,37.0,-3.0,
2058.0,2068.0,37.0,-3.0,
2082.0,2083.0,37.0,-3.0,
2098.0,2129.0,37.0,-3.0,
2101.0,2117.0,37.0,-3.0,
2091.0,2111.0,38.0,-3.0,
2094.0,2123.0,38.0,-3.0,
2082.0,2108.0,38.0,-3.0,
2040.0,2091.0,38.0,-3.0,
2051.0,2063.0,38.0,-3.0,
2063.0,2083.0,38.0,-3.0,
2059.0,2077.0,38.0,-3.0,
2055.0,2080.0,38.0,-3.0,
2059.0,2099.0,39.0,-3.0,
2061.0,2101.0,39.0,-3.0,
2069.0,2086.0,39.0,-3.0,
2083.0,2095.0,39.0,-3.0,
2096.0,2091.0,39.0,-3.0,
2043.0,2088.0,39.0,-3.0,
2051.0,2087.0,39.0,-3.0,
2087.0,2090.0,39.0,-3.0,
2113.0,2092.0,39.0,-3.0,
2084.0,2067.0,39.0,-3.0,
2080.0,2082.0,39.0,-3.0,
2079.0,2108.0,39.0,-3.0,
2082.0,2072.0,39.0,-3.0,
2044.0,2076.0,39.0,-3.0,
2027.0,2080.0,38.0,-3.0,
2075.0,2101.0,38.0,-3.0,
2098.0,2081.0,38.0,-3.0,
2071.0,2097.0,38.0,-3.0,
2074.0,2123.0,38.0,-3.0,
2066.0,2100.0,38.0,-3.0,
2064.0,2076.0,38.0,-3.0,
2069.0,2081.0,38.0,-3.0,
2042.0,2088.0,38.0,-3.0,
2034.0,2089.0,38.0,-3.0,
2037.0,2121.0,37.0,-3.0,
2048.0,2080.0,37.0,-3.0,
2069.0,2102.0,37.0,-3.0,
2033.0,2093.0,37.0,-3.0,
2064.0,2094.0,37.0,-3.0,
2095.0,2126.0,37.0,-3.0,
2182.0,2053.0,37.0,-3.0,
2161.0,2080.0,37.0,-3.0,
2081.0,2116.0,37.0,-3.0,
2080.0,2108.0,37.0,-3.0,
2052.0,2077.0,36.0,-3.0,
2083.0,2089.0,36.0,-3.0,
2094.0,2085.0,36.0,-3.0,
2044.0,2059.0,36.0,-3.0,
2025.0,2077.0,36.0,-3.0,
2049.0,2127.0,36.0,-3.0,
2064.0,2179.0,36.0,-3.0,
2056.0,2140.0,36.0,-3.0,
2042.0,2130.0,36.0,-3.0,
2045.0,2088.0,36.0,-3.0,
2074.0,2084.0,36.0,-3.0,
2086.0,2078.0,36.0,-3.0,
2119.0,2094.0,36.0,-3.0,
2106.0,2094.0,36.0,-3.0,
2068.0,2097.0,36.0,-3.0,
2062.0,2070.0,36.0,-3.0,
2061.0,2091.0,36.0,-3.0,
2080.0,2075.0,36.0,-3.0,
2065.0,2080.0,36.0,-3.0,
2076.0,2095.0,36.0,-3.0,
2060.0,2098.0,36.0,-3.0,
2062.0,2105.0,36.0,-3.0,
2060.0,2109.0,36.0,-3.0,
2038.0,2086.0,36.0,-3.0,
2019.0,2097.0,36.0,-3.0,
2073.0,2099.0,36.0,-3.0,
2085.0,2086.0,36.0,-3.0,
2089.0,2061.0,36.0,-3.0,
2101.0,2109.0,36.0,-3.0,
2123.0,2136.0,36.0,-3.0,
2052.0,2042.0,36.0,-3.0,
2024.0,2076.0,36.0,-3.0,
2069.0,2103.0,36.0,-3.0,
2042.0,2091.0,36.0,-3.0,
2056.0,2102.0,36.0,-3.0,
2085.0,2131.0,36.0,-3.0,
2124.0,2095.0,36.0,-3.0,
2124.0,2098.0,36.0,-3.0,
2101.0,2079.0,36.0,-3.0,
2073.0,2045.0,36.0,-3.0,
2082.0,2073.0,37.0,-3.0,
2040.0,2079.0,37.0,-3.0,
2061.0,2088.0,37.0,-3.0,
2074.0,2096.0,37.0,-3.0,
2066.0,2121.0,37.0,-3.0,
2049.0,2086.0,37.0,-3.0,
2063.0,2091.0,37.0,-3.0,
2063.0,2075.0,37.0,-3.0,
2071.0,2082.0,36.0,-3.0,
2054.0,2127.0,36.0,-3.0,
2063.0,2132.0,36.0,-3.0,
2035.0,2083.0,36.0,-3.0,
2066.0,2128.0,36.0,-3.0,
2083.0,2137.0,37.0,-3.0,
2089.0,2164.0,36.0,-3.0,
2046.0,2042.0,36.0,-3.0,
2034.0,2093.0,37.0,-3.0,
2092.0,2061.0,37.0,-3.0,
2098.0,2067.0,37.0,-3.0,
2087.0,2073.0,37.0,-3.0,
2122.0,2088.0,37.0,-3.0,
2096.0,2104.0,37.0,-3.0,
2112.0,2111.0,37.0,-3.0,
2100.0,2081.0,37.0,-3.0,
2078.0,2076.0,37.0,-3.0,
2069.0,2063.0,37.0,-3.0,
2053.0,2126.0,37.0,-3.0,
2075.0,2110.0,37.0,-3.0,
2068.0,2089.0,37.0,-3.0,
2076.0,2099.0,37.0,-3.0,
2070.0,2104.0,37.0,-3.0,
2093.0,2117.0,37.0,-3.0,
2067.0,2103.0,37.0,-3.0,
2054.0,2098.0,37.0,-3.0,
2067.0,2095.0,37.0,-3.0,
2038.0,2086.0,37.0,-3.0,
2047.0,2083.0,37.0,-3.0,
2044.0,2088.0,37.0,-3.0,
2064.0,2089.0,37.0,-3.0,
2076.0,2088.0,37.0,-3.0,
2082.0,2101.0,37.0,-3.0,
2082.0,2089.0,37.0,-3.0,
2080.0,2090.0,0,
2081.0,2106.0,38.0,-3.0,
2082.0,2114.0,38.0,-3.0,
2052.0,2067.0,38.0,-3.0,
2067.0,2060.0,38.0,-3.0,
2071.0,2091.0,38.0,-3.0,
2088.0,2110.0,38.0,-3.0,
2078.0,2074.0,38.0,-3.0,
2092.0,2093.0,38.0,-3.0,
2062.0,2067.0,38.0,-3.0,
2017.0,2082.0,38.0,-3.0,
2039.0,2093.0,38.0,-3.0,
2030.0,2093.0,38.0,-3.0,
2038.0,2099.0,38.0,-3.0,
2083.0,2122.0,38.0,-3.0,
2074.0,2120.0,38.0,-3.0,
2058.0,2115.0,38.0,-3.0,
2038.0,2095.0,38.0,-3.0,
2006.0,2076.0,38.0,-3.0,
2069.0,2096.0,38.0,-3.0,
2116.0,2101.0,38.0,-3.0,
2046.0,2084.0,37.0,-3.0,
2140.0,2121.0,37.0,-3.0,
2148.0,2074.0,37.0,-3.0,
2100.0,2096.0,37.0,-3.0,
2104.0,2101.0,37.0,-3.0,
2077.0,2075.0,37.0,-3.0,
2056.0,2085.0,37.0,-3.0,
2056.0,2084.0,37.0,-3.0,
2042.0,2067.0,37.0,-3.0,
2043.0,2081.0,37.0,-3.0,
2045.0,2118.0,37.0,-3.0,
2076.0,2150.0,37.0,-3.0,
2077.0,2118.0,36.0,-3.0,
2063.0,2108.0,36.0,-3.0,
2079.0,2109.0,36.0,-3.0,
2047.0,2076.0,36.0,-3.0,
2087.0,2077.0,36.0,-3.0,
2078.0,2067.0,36.0,-3.0,
2072.0,2121.0,36.0,-3.0,
2050.0,2103.0,36.0,-3.0,
2074.0,2130.0,36.0,-3.0,
2077.0,2127.0,36.0,-3.0,
2058.0,2073.0,36.0,-3.0,
2056.0,2081.0,36.0,-3.0,
2040.0,2077.0,36.0,-3.0,
2049.0,2035.0,36.0,-3.0,
2114.0,2062.0,36.0,-3.0,
2081.0,2079.0,36.0,-3.0,
2096.0,2109.0,36.0,-3.0,
2127.0,2118.0,36.0,-3.0,
2094.0,2109.0,36.0,-3.0,
2098.0,2112.0,36.0,-3.0,
2084.0,2078.0,36.0,-3.0,
2063.0,2096.0,36.0,-3.0,
2047.0,2094.0,36.0,-3.0,
2063.0,2097.0,36.0,-3.0,
2075.0,2092.0,36.0,-3.0,
2074.0,2091.0,36.0,-3.0,
2075.0,2094.0,36.0,-3.0,
2079.0,2106.0,36.0,-3.0,
2086.0,2110.0,36.0,-3.0,
2038.0,2099.0,36.0,-3.0,
1993.0,2111.0,36.0,-3.0,
1991.0,2122.0,36.0,-3.0,
2043.0,2077.0,36.0,-3.0,
2145.0,2095.0,36.0,-3.0,
2165.0,2113.0,36.0,-3.0,
2103.0,2104.0,36.0,-3.0,
2085.0,2074.0,36.0,-3.0,
2077.0,2102.0,36.0,-3.0,
2040.0,2088.0,36.0,-3.0,
2053.0,2078.0,36.0,-3.0,
2049.0,2087.0,36.0,-3.0,
2077.0,2093.0,0,
2068.0,2091.0,36.0,-3.0,
2076.0,2102.0,36.0,-3.0,
2088.0,2106.0,37.0,-3.0,
2077.0,2097.0,37.0,-3.0,
2066.0,2095.0,37.0,-3.0,
2041.0,2101.0,37.0,-3.0,
2059.0,2112.0,37.0,-3.0,
2051.0,2118.0,37.0,-3.0,
2048.0,2097.0,37.0,-3.0,
2064.0,2051.0,37.0,-3.0,
2068.0,2071.0,37.0,-3.0,
2064.0,2096.0,37.0,-3.0,
2082.0,2137.0,37.0,-3.0,
2058.0,2108.0,37.0,-3.0,
2063.0,2106.0,37.0,-3.0,
2076.0,2090.0,37.0,-3.0,
2036.0,2098.0,37.0,-3.0,
2071.0,2096.0,37.0,-3.0,
2105.0,2075.0,37.0,-3.0,
2089.0,2087.0,37.0,-3.0,
2084.0,2089.0,37.0,-3.0,
2073.0,2101.0,37.0,-3.0,
2070.0,2101.0,37.0,-3.0,
2034.0,2093.0,37.0,-3.0,
2060.0,2089.0,37.0,-3.0,
2071.0,2102.0,37.0,-3.0,
2091.0,2122.0,37.0,-3.0,
2101.0,2064.0,37.0,-3.0,
2087.0,2091.0,37.0,-3.0,
2099.0,2091.0,37.0,-3.0,
2077.0,2098.0,37.0,-3.0,
2053.0,2077.0,37.0,-3.0,
2046.0,2099.0,37.0,-3.0,
2080.0,2110.0,37.0,-3.0,
2075.0,2096.0,37.0,-3.0,
2061.0,2095.0,37.0,-3.0,
2045.0,2089.0,37.0,-3.0,
2072.0,2113.0,37.0,-3.0,
2095.0,2064.0,37.0,-3.0,
2066.0,2072.0,37.0,-3.0,
2110.0,2082.0,37.0,-3.0,
2105.0,2096.0,37.0,-3.0,
2059.0,2093.0,37.0,-3.0,
2067.0,2098.0,37.0,-3.0,
2078.0,2117.0,37.0,-3.0,
2085.0,2106.0,37.0,-3.0,
2111.0,2101.0,37.0,-3.0,
2076.0,2090.0,37.0,-3.0,
2057.0,2051.0,37.0,-3.0,
2033.0,2083.0,37.0,-3.0,
2078.0,2118.0,37.0,-3.0,
2063.0,2089.0,37.0,-3.0,
2103.0,2107.0,37.0,-3.0,
2081.0,2093.0,37.0,-3.0,
2082.0,2077.0,0,
2080.0,2091.0,37.0,-3.0,
2058.0,2091.0,37.0,-3.0,
2071.0,2086.0,37.0,-3.0,
2059.0,2093.0,37.0,-3.0,
2056.0,2093.0,37.0,-3.0,
2043.0,2092.0,37.0,-3.0,
2070.0,2105.0,37.0,-3.0,
2084.0,2105.0,37.0,-3.0,
2077.0,2096.0,37.0,-3.0,
2063.0,2125.0,37.0,-3.0,
2078.0,2099.0,37.0,-3.0,
2080.0,2119.0,37.0,-3.0,
2095.0,2091.0,36.0,-3.0,
2053.0,2065.0,36.0,-3.0,
2050.0,2032.0,36.0,-3.0,
2097.0,2107.0,36.0,-3.0,
2090.0,2147.0,36.0,-3.0,
2098.0,2128.0,36.0,-3.0,
2100.0,2104.0,36.0,-3.0,
2074.0,2100.0,36.0,-3.0,
2054.0,2105.0,36.0,-3.0,
2053.0,2105.0,37.0,-3.0,
2040.0,2100.0,36.0,-3.0,
2057.0,2083.0,36.0,-3.0,
2093.0,2113.0,36.0,-3.0,
2112.0,2106.0,36.0,-3.0,
2068.0,2035.0,36.0,-3.0,
2069.0,2077.0,36.0,-3.0,
2065.0,2085.0,36.0,-3.0,
2030.0,2055.0,36.0,-3.0,
2079.0,2075.0,36.0,-3.0,
2098.0,2096.0,36.0,-3.0,
2075.0,2113.0,36.0,-3.0,
2077.0,2091.0,36.0,-3.0,
2065.0,2104.0,36.0,-3.0,
2044.0,2089.0,36.0,-3.0,
2052.0,2079.0,36.0,-3.0,
2077.0,2069.0,36.0,-3.0,
2094.0,2107.0,36.0,-3.0,
2061.0,2160.0,36.0,-3.0,
2084.0,2063.0,36.0,-3.0,
2072.0,2090.0,36.0,-3.0,
2113.0,2084.0,36.0,-3.0,
2101.0,2072.0,36.0,-3.0,
2119.0,2080.0,36.0,-3.0,
2078.0,2076.0,36.0,-3.0,
2052.0,2096.0,36.0,-3.0,
2040.0,2100.0,36.0,-3.0,
2037.0,2106.0,36.0,-3.0,
2049.0,2085.0,36.0,-3.0,
2063.0,2090.0,36.0,-3.0,
2105.0,2106.0,36.0,-3.0,
2083.0,2111.0,36.0,-3.0,
2064.0,2106.0,36.0,-3.0,
2071.0,2105.0,36.0,-3.0,
2044.0,2093.0,36.0,-3.0,
2077.0,2096.0,36.0,-3.0,
2088.0,2098.0,36.0,-3.0,
2071.0,2086.0,0,
2057.0,2097.0,36.0,-3.0,
2071.0,2099.0,36.0,-3.0,
2079.0,2108.0,36.0,-3.0,
2058.0,2091.0,36.0,-3.0,
2045.0,2115.0,36.0,-3.0,
2057.0,2102.0,36.0,-3.0,
2035.0,2141.0,36.0,-3.0,
2056.0,2082.0,36.0,-3.0,
2087.0,2055.0,36.0,-3.0,
2094.0,2078.0,36.0,-3.0,
2083.0,2093.0,36.0,-3.0,
2076.0,2104.0,36.0,-3.0,
2082.0,2131.0,36.0,-3.0,
2035.0,2045.0,36.0,-3.0,
2080.0,2073.0,36.0,-3.0,
2056.0,2116.0,36.0,-3.0,
2046.0,2105.0,36.0,-3.0,
2057.0,2109.0,36.0,-3.0,
2083.0,2100.0,36.0,-3.0,
2092.0,2094.0,36.0,-3.0,
2103.0,2098.0,36.0,-3.0,
2069.0,2093.0,36.0,-3.0,
2027.0,2089.0,36.0,-3.0,
2051.0,2075.0,36.0,-3.0,
2056.0,2087.0,36.0,-3.0,
2056.0,2085.0,37.0,-3.0,
2063.0,2127.0,37.0,-3.0,
2063.0,2108.0,37.0,-3.0,
2104.0,2112.0,37.0,-3.0,
2090.0,2085.0,37.0,-3.0,
2067.0,2092.0,37.0,-3.0,
2050.0,2107.0,37.0,-3.0,
2095.0,2082.0,37.0,-3.0,
2056.0,2085.0,37.0,-3.0,
2072.0,2078.0,37.0,-3.0,
2086.0,2092.0,37.0,-3.0,
2096.0,2099.0,37.0,-3.0,
2092.0,2092.0,37.0,-3.0,
2087.0,2093.0,37.0,-3.0,
2079.0,2113.0,37.0,-3.0,
2068.0,2093.0,37.0,-3.0,
2046.0,2081.0,37.0,-3.0,
2062.0,2076.0,37.0,-3.0,
2062.0,2086.0,37.0,-3.0,
2088.0,2093.0,37.0,-3.0,
2079.0,2096.0,37.0,-3.0,
2086.0,2103.0,37.0,-3.0,
2080.0,2096.0,37.0,-3.0,
2060.0,2097.0,37.0,-3.0,
2073.0,2095.0,37.0,-3.0,
2058.0,2100.0,37.0,-3.0,
2073.0,2138.0,37.0,-3.0,
2100.0,2139.0,37.0,-3.0,
2050.0,2061.0,37.0,-3.0,
2069.0,2066.0,37.0,-3.0,
2086.0,2071.0,37.0,-3.0,
2042.0,2055.0,37.0,-3.0,
2065.0,2045.0,37.0,-3.0,
2036.0,2059.0,37.0,-3.0,
2074.0,2124.0,36.0,-3.0,
2130.0,2146.0,36.0,-3.0,
2077.0,2104.0,36.0,-3.0,
2081.0,2105.0,36.0,-3.0,
2072.0,2097.0,36.0,-3.0,
2068.0,2101.0,36.0,-3.0,
2105.0,2102.0,36.0,-3.0,
2068.0,2097.0,36.0,-3.0,
2057.0,2110.0,36.0,-3.0,
2053.0,2100.0,36.0,-3.0,
2063.0,2079.0,36.0,-3.0,
2067.0,2077.0,36.0,-3.0,
2079.0,2102.0,36.0,-3.0,
2064.0,2092.0,36.0,-3.0,
2039.0,2088.0,36.0,-3.0,
2085.0,2086.0,36.0,-3.0,
2053.0,2088.0,36.0,-3.0,
2045.0,2086.0,36.0,-3.0,
2056.0,2088.0,36.0,-3.0,
2054.0,2097.0,36.0,-3.0,
2080.0,2098.0,36.0,-3.0,
2113.0,2107.0,36.0,-3.0,
2090.0,2125.0,36.0,-3.0,
2072.0,2137.0,36.0,-3.0,
2029.0,2089.0,36.0,-3.0,
2029.0,2090.0,36.0,-3.0,
2044.0,2050.0,36.0,-3.0,
2099.0,2140.0,36.0,-3.0,
2083.0,2063.0,36.0,-3.0,
2069.0,2049.0,36.0,-3.0,
2102.0,2080.0,36.0,-3.0,
2119.0,2135.0,36.0,-3.0,
2088.0,2068.0,36.0,-3.0,
2053.0,2062.0,36.0,-3.0,
2044.0,2092.0,36.0,-3.0,
2077.0,2089.0,37.0,-3.0,
2085.0,2093.0,37.0,-3.0,
2068.0,2110.0,37.0,-3.0,
2078.0,2117.0,37.0,-3.0,
2090.0,2117.0,37.0,-3.0,
2089.0,2113.0,37.0,-3.0,
2059.0,2105.0,37.0,-3.0,
2055.0,2097.0,37.0,-3.0,
2064.0,2102.0,37.0,-3.0,
2058.0,2099.0,37.0,-3.0,
2051.0,2102.0,37.0,-3.0,
2075.0,2093.0,37.0,-3.0,
2067.0,2098.0,37.0,-3.0,
2091.0,2102.0,37.0,-3.0,
2079.0,2098.0,37.0,-3.0,
2063.0,2098.0,37.0,-3.0,
2049.0,2060.0,37.0,-3.0,
2042.0,2058.0,37.0,-3.0,
2056.0,2074.0,37.0,-3.0,
2031.0,2134.0,37.0,-3.0,
2080.0,2118.0,37.0,-3.0,
2057.0,2130.0,37.0,-3.0,
2042.0,2131.0,37.0,-3.0,
2050.0,2129.0,37.0,-3.0,
2067.0,2016.0,37.0,-3.0,
2100.0,2021.0,37.0,-3.0,
2087.0,2039.0,37.0,-3.0,
2075.0,2094.0,37.0,-3.0,
2124.0,2092.0,37.0,-3.0,
2113.0,2130.0,37.0,-3.0,
2093.0,2106.0,37.0,-3.0,
2130.0,2102.0,37.0,-3.0,
2102.0,2087.0,37.0,-3.0,
2068.0,2098.0,37.0,-3.0,
2057.0,2097.0,37.0,-3.0,
2046.0,2098.0,37.0,-3.0,
2061.0,2098.0,37.0,-3.0,
2090.0,2102.0,37.0,-3.0,
2075.0,2100.0,37.0,-3.0,
2083.0,2101.0,37.0,-3.0,
2067.0,2101.0,37.0,-3.0,
2062.0,2098.0,37.0,-3.0,
2053.0,2100.0,37.0,-3.0,
2052.0,2088.0,36.0,-3.0,
2053.0,2095.0,36.0,-3.0,
2064.0,2104.0,36.0,-3.0,
2080.0,2111.0,36.0,-3.0,
2066.0,2080.0,36.0,-3.0,
2066.0,2102.0,36.0,-3.0,
2079.0,2086.0,36.0,-3.0,
2078.0,2075.0,37.0,-3.0,
2046.0,2090.0,37.0,-3.0,
2032.0,2098.0,37.0,-3.0,
2038.0,2100.0,37.0,-3.0,
2075.0,2101.0,37.0,-3.0,
2074.0,2095.0,37.0,-3.0,
2110.0,2064.0,37.0,-3.0,
2129.0,2084.0,37.0,-3.0,
2099.0,2100.0,37.0,-3.0,
2060.0,2088.0,37.0,-3.0,
2052.0,2092.0,36.0,-3.0,
2057.0,2093.0,36.0,-3.0,
2057.0,2102.0,36.0,-3.0,
2069.0,2106.0,36.0,-3.0,
2060.0,2111.0,36.0,-3.0,
2067.0,2098.0,36.0,-3.0,
2060.0,2097.0,36.0,-3.0,
2090.0,2095.0,36.0,-3.0,
2062.0,2087.0,37.0,-3.0,
2046.0,2090.0,37.0,-3.0,
2050.0,2090.0,37.0,-3.0,
2044.0,2097.0,37.0,-3.0,
2054.0,2099.0,37.0,-3.0,
2093.0,2097.0,37.0,-3.0,
2076.0,2097.0,37.0,-3.0,
2095.0,2114.0,37.0,-3.0,
2077.0,2093.0,37.0,-3.0,
2070.0,2060.0,37.0,-3.0,
2061.0,2059.0,37.0,-3.0,
2061.0,2055.0,37.0,-3.0,
2067.0,2113.0,37.0,-3.0,
2072.0,2133.0,37.0,-3.0,
2087.0,2128.0,37.0,-3.0,
2081.0,2093.0,37.0,-3.0,
2075.0,2098.0,37.0,-3.0,
2067.0,2110.0,37.0,-3.0,
2077.0,2076.0,37.0,-3.0,
2047.0,2087.0,37.0,-3.0,
2055.0,2087.0,37.0,-3.0,
2084.0,2082.0,37.0,-3.0,
2087.0,2109.0,37.0,-3.0,
2066.0,2103.0,37.0,-3.0,
2071.0,2087.0,37.0,-3.0,
2085.0,2071.0,37.0,-3.0,
2077.0,2058.0,37.0,-3.0,
2065.0,2123.0,37.0,-3.0,
2065.0,2066.0,37.0,-3.0,
2096.0,2110.0,37.0,-3.0,
2072.0,2068.0,37.0,-3.0,
2109.0,2098.0,37.0,-3.0,
2075.0,2090.0,37.0,-3.0,
2066.0,2088.0,36.0,-3.0,
2050.0,2096.0,37.0,-3.0,
2045.0,2092.0,37.0,-3.0,
2109.0,2101.0,36.0,-3.0,
2072.0,2103.0,36.0,-3.0,
2057.0,2102.0,36.0,-3.0,
2074.0,2102.0,36.0,-3.0,
2090.0,2110.0,36.0,-3.0,
2069.0,2101.0,36.0,-3.0,
2089.0,2098.0,36.0,-3.0,
2049.0,2104.0,36.0,-3.0,
2045.0,2102.0,36.0,-3.0,
2035.0,2105.0,36.0,-3.0,
2037.0,2105.0,36.0,-3.0,
2077.0,2101.0,36.0,-3.0,
2116.0,2076.0,36.0,-3.0,
2099.0,2037.0,36.0,-3.0,
2065.0,2105.0,36.0,-3.0,
2079.0,2101.0,36.0,-3.0,
2053.0,2098.0,36.0,-3.0,
2054.0,2051.0,36.0,-3.0,
2083.0,2079.0,36.0,-3.0,
2076.0,2118.0,36.0,-3.0,
2071.0,2195.0,37.0,-3.0,
2087.0,2147.0,37.0,-3.0,
2072.0,2042.0,37.0,-3.0,
2078.0,2072.0,37.0,-3.0,
2068.0,2096.0,37.0,-3.0,
2038.0,2077.0,37.0,-3.0,
2059.0,2092.0,37.0,-3.0,
2052.0,2085.0,37.0,-3.0,
2041.0,2084.0,37.0,-3.0,
2060.0,2078.0,37.0,-3.0,
2107.0,2083.0,37.0,-3.0,
2112.0,2081.0,37.0,-3.0,
2099.0,2090.0,37.0,-3.0,
2053.0,2080.0,37.0,-3.0,
2050.0,2096.0,37.0,-3.0,
2078.0,2126.0,37.0,-3.0,
2105.0,2142.0,37.0,-3.0,
2088.0,2055.0,37.0,-3.0,
2089.0,2071.0,37.0,-3.0,
2073.0,2083.0,37.0,-3.0,
2078.0,2101.0,0,
2080.0,2095.0,37.0,-3.0,
2050.0,2083.0,37.0,-3.0,
2059.0,2063.0,37.0,-3.0,
2058.0,2064.0,37.0,-3.0,
2071.0,2101.0,37.0,-3.0,
2104.0,2100.0,37.0,-3.0,
2106.0,2122.0,37.0,-3.0,
2088.0,2109.0,37.0,-3.0,
2070.0,2098.0,37.0,-3.0,
2074.0,2092.0,37.0,-3.0,
2013.0,2033.0,37.0,-3.0,
2046.0,2096.0,37.0,-3.0,
2039.0,2102.0,37.0,-3.0,
2092.0,2100.0,37.0,-3.0,
2096.0,2097.0,37.0,-3.0,
2080.0,2096.0,37.0,-3.0,
2060.0,2117.0,37.0,-3.0,
2084.0,2109.0,37.0,-3.0,
2067.0,2076.0,37.0,-3.0,
2071.0,2054.0,37.0,-3.0,
2066.0,2099.0,37.0,-3.0,
2048.0,2131.0,37.0,-3.0,
2058.0,2132.0,37.0,-3.0,
2073.0,2095.0,37.0,-3.0,
2067.0,2087.0,37.0,-3.0,
2128.0,2101.0,37.0,-3.0,
2101.0,2160.0,37.0,-3.0,
2088.0,2099.0,37.0,-3.0,
2046.0,2053.0,37.0,-3.0,
2054.0,2111.0,37.0,-3.0,
2098.0,2067.0,37.0,-3.0,
2110.0,2081.0,37.0,-3.0,
2116.0,2086.0,37.0,-3.0,
2112.0,2093.0,37.0,-3.0,
2102.0,2075.0,37.0,-3.0,
2077.0,2029.0,37.0,-3.0,
2068.0,2061.0,37.0,-3.0,
2054.0,2172.0,37.0,-3.0,
2020.0,2164.0,37.0,-3.0,
2019.0,2171.0,37.0,-3.0,
2033.0,2088.0,37.0,-3.0,
2015.0,2107.0,37.0,-3.0,
2062.0,2074.0,37.0,-3.0,
2120.0,2049.0,37.0,-3.0,
2103.0,2097.0,37.0,-3.0,
2105.0,2081.0,37.0,-3.0,
2074.0,2032.0,37.0,-3.0,
2005.0,2152.0,37.0,-3.0,
2060.0,2109.0,37.0,-3.0,
2076.0,2060.0,37.0,-3.0,
2091.0,2082.0,37.0,-3.0,
2085.0,2172.0,37.0,-3.0,
2080.0,2123.0,37.0,-3.0,
2053.0,2076.0,37.0,-3.0,
2053.0,2083.0,37.0,-3.0,
2036.0,2092.0,37.0,-3.0,
2035.0,2112.0,37.0,-3.0,
2070.0,2140.0,37.0,-4.0,
2137.0,2122.0,37.0,-4.0,
2103.0,2113.0,37.0,-3.0,
2067.0,2073.0,37.0,-3.0,
2061.0,2046.0,37.0,-3.0,
2048.0,2077.0,37.0,-3.0,
2045.0,2112.0,37.0,-3.0,
2044.0,2132.0,37.0,-3.0,
2022.0,2111.0,37.0,-3.0,
2053.0,2051.0,37.0,-3.0,
2059.0,1991.0,37.0,-3.0,
2094.0,2086.0,37.0,-3.0,
2064.0,2047.0,37.0,-3.0,
2092.0,2130.0,37.0,-3.0,
2092.0,2153.0,37.0,-3.0,
2067.0,2111.0,37.0,-3.0,
2030.0,2101.0,37.0,-3.0,
2112.0,2102.0,37.0,-3.0,
2106.0,2082.0,37.0,-3.0,
2102.0,2084.0,37.0,-3.0,
2072.0,2098.0,37.0,-3.0,
2086.0,2073.0,37.0,-3.0,
2068.0,2147.0,38.0,-3.0,
2046.0,2108.0,39.0,-3.0,
2060.0,2045.0,39.0,-2.0,
2028.0,2072.0,39.0,-2.0,
2024.0,2020.0,38.0,-3.0,
2048.0,2177.0,37.0,-3.0,
2088.0,2160.0,37.0,-3.0,
2081.0,2114.0,36.0,-3.0,
2086.0,2115.0,36.0,-3.0,
2072.0,2108.0,36.0,-3.0,
2056.0,2031.0,35.0,-3.0,
2044.0,2078.0,34.0,-3.0,
2024.0,2090.0,33.0,-3.0,
2017.0,2100.0,34.0,-3.0,
2018.0,2047.0,34.0,-3.0,
2049.0,2066.0,35.0,-3.0,
2071.0,2068.0,35.0,-3.0,
2092.0,2070.0,35.0,-3.0,
2102.0,2111.0,35.0,-2.0,
2093.0,2112.0,35.0,-2.0,
2098.0,2112.0,34.0,-2.0,
2050.0,2175.0,34.0,-3.0,
2062.0,2113.0,0,
2065.0,2132.0,34.0,-3.0,
2034.0,2065.0,34.0,-3.0,
2071.0,1933.0,34.0,-3.0,
2116.0,2024.0,34.0,-3.0,
2092.0,2177.0,34.0,-3.0,
2095.0,2192.0,34.0,-3.0,
2062.0,2109.0,34.0,-3.0,
2061.0,2077.0,34.0,-3.0,
2082.0,2037.0,34.0,-3.0,
2081.0,2051.0,34.0,-3.0,
2085.0,2078.0,34.0,-3.0,
2092.0,2142.0,34.0,-3.0,
2094.0,2180.0,34.0,-3.0,
2055.0,2133.0,34.0,-3.0,
2044.0,2125.0,33.0,-3.0,
2023.0,2018.0,33.0,-3.0,
2050.0,2099.0,32.0,-3.0,
2059.0,2121.0,32.0,-3.0,
2072.0,2017.0,31.0,-4.0,
2118.0,2026.0,0,
2088.0,2105.0,31.0,-4.0,
2106.0,2071.0,30.0,-4.0,
2036.0,2023.0,29.0,-4.0,
2021.0,2189.0,29.0,-4.0,
2065.0,2096.0,28.0,-4.0,
2053.0,2098.0,28.0,-4.0,
2085.0,2124.0,27.0,-4.0,
2120.0,2173.0,27.0,-4.0,
2094.0,2144.0,27.0,-4.0,
2067.0,2098.0,26.0,-4.0,
2061.0,2045.0,26.0,-4.0,
2039.0,2042.0,25.0,-4.0,
2059.0,2123.0,25.0,-4.0,
2050.0,2147.0,25.0,-4.0,
2080.0,2100.0,24.0,-4.0,
2052.0,1992.0,23.0,-4.0,
2041.0,2089.0,23.0,-4.0,
2059.0,2068.0,23.0,-5.0,
2057.0,2032.0,23.0,-5.0,
2060.0,2063.0,23.0,-4.0,
2052.0,2141.0,22.0,-4.0,
2042.0,2138.0,22.0,-5.0,
2045.0,2081.0,22.0,-5.0,
2086.0,2058.0,22.0,-5.0,
2060.0,2136.0,22.0,-5.0,
2085.0,2142.0,22.0,-5.0,
2075.0,2137.0,21.0,-5.0,
2075.0,2107.0,21.0,-5.0,
2104.0,2019.0,21.0,-5.0,
2064.0,2082.0,20.0,-6.0,
2037.0,2154.0,20.0,-6.0,
2089.0,2088.0,20.0,-5.0,
2168.0,2084.0,20.0,-5.0,
2105.0,2084.0,20.0,-5.0,
2071.0,2151.0,20.0,-5.0,
2073.0,2132.0,19.0,-6.0,
2076.0,2113.0,19.0,-6.0,
2047.0,2088.0,19.0,-6.0,
2063.0,2035.0,19.0,-6.0,
2089.0,2117.0,19.0,-6.0,
2090.0,2117.0,19.0,-6.0,
2088.0,2020.0,19.0,-6.0,
2061.0,2150.0,19.0,-6.0,
2059.0,2142.0,20.0,-5.0,
2059.0,2166.0,20.0,-5.0,
2055.0,2121.0,20.0,-5.0,
2034.0,2033.0,20.0,-5.0,
2056.0,2033.0,20.0,-5.0,
2089.0,1972.0,20.0,-5.0,
1981.0,1890.0,20.0,-5.0,
1996.0,2146.0,21.0,-6.0,
2030.0,2249.0,20.0,-5.0,
2049.0,2140.0,20.0,-5.0,
2135.0,2124.0,20.0,-6.0,
2248.0,2118.0,20.0,-6.0,
2123.0,2153.0,20.0,-6.0,
2082.0,2123.0,21.0,-6.0,
2078.0,2126.0,21.0,-6.0,
2063.0,2082.0,21.0,-5.0,
2064.0,2021.0,0,
2001.0,2033.0,20.0,-5.0,
2093.0,2056.0,20.0,-5.0,
2068.0,2121.0,20.0,-6.0,
2088.0,2103.0,20.0,-6.0,
2071.0,2113.0,19.0,-6.0,
2024.0,2094.0,19.0,-5.0,
2042.0,2014.0,19.0,-5.0,
2060.0,2140.0,18.0,-5.0,
2024.0,2144.0,18.0,-5.0,
2003.0,2136.0,17.0,-6.0,
2081.0,2051.0,17.0,-6.0,
2135.0,2057.0,17.0,-6.0,
2149.0,2013.0,16.0,-6.0,
2059.0,2069.0,16.0,-6.0,
2012.0,2092.0,16.0,-6.0,
1990.0,2201.0,16.0,-6.0,
2061.0,2048.0,16.0,-6.0,
2027.0,2105.0,16.0,-5.0,
2150.0,2017.0,16.0,-5.0,
2102.0,2103.0,16.0,-6.0,
2015.0,2116.0,16.0,-6.0,
2109.0,2132.0,17.0,-6.0,
2138.0,2102.0,17.0,-6.0,
2033.0,2126.0,17.0,-6.0,
2004.0,2059.0,18.0,-6.0,
2090.0,2099.0,18.0,-6.0,
2229.0,1947.0,18.0,-6.0,
2111.0,2210.0,18.0,-7.0,
2103.0,2122.0,18.0,-7.0,
1989.0,2086.0,18.0,-7.0,
1955.0,2101.0,18.0,-7.0,
1894.0,2079.0,17.0,-7.0,
2071.0,2138.0,17.0,-7.0,
2184.0,2139.0,17.0,-7.0,
2154.0,2121.0,16.0,-8.0,
2119.0,2112.0,16.0,-8.0,
2063.0,2096.0,16.0,-7.0,
2045.0,2075.0,15.0,-7.0,
2033.0,2067.0,15.0,-7.0,
2078.0,2108.0,15.0,-7.0,
2083.0,2123.0,14.0,-7.0,
2041.0,2094.0,14.0,-8.0,
2091.0,2085.0,14.0,-8.0,
2074.0,2078.0,14.0,-7.0,
2062.0,2089.0,14.0,-7.0,
2078.0,2073.0,14.0,-7.0,
2063.0,2106.0,13.0,-7.0,
2037.0,2123.0,13.0,-7.0,
2066.0,2102.0,13.0,-8.0,
2044.0,2074.0,13.0,-8.0,
2053.0,1970.0,12.0,-7.0,
1983.0,1919.0,12.0,-7.0,
2016.0,2220.0,11.0,-7.0,
2110.0,2069.0,11.0,-7.0,
2078.0,2276.0,10.0,-7.0,
2157.0,2125.0,10.0,-8.0,
2061.0,2220.0,10.0,-7.0,
1987.0,2096.0,10.0,-7.0,
2004.0,2072.0,9.0,-7.0,
2057.0,2027.0,9.0,-7.0,
1908.0,1967.0,9.0,-7.0,
1955.0,2252.0,9.0,-7.0,
2088.0,2077.0,8.0,-7.0,
2046.0,2011.0,8.0,-7.0,
1980.0,2158.0,8.0,-7.0,
1980.0,2115.0,8.0,-7.0,
2189.0,2126.0,8.0,-7.0,
1990.0,1937.0,8.0,-7.0,
1930.0,2201.0,8.0,-7.0,
2202.0,2115.0,9.0,-7.0,
2248.0,2073.0,9.0,-7.0,
2292.0,2111.0,9.0,-7.0,
2220.0,2149.0,10.0,-6.0,
2176.0,2033.0,11.0,-6.0,
2098.0,2145.0,11.0,-6.0,
2010.0,1961.0,12.0,-6.0,
2235.0,2170.0,12.0,-6.0,
2252.0,2052.0,13.0,-6.0,
2115.0,2098.0,13.0,-6.0,
2047.0,2201.0,13.0,-7.0,
2036.0,2117.0,14.0,-7.0,
1978.0,2088.0,14.0,-7.0,
2043.0,1963.0,14.0,-7.0,
2048.0,2000.0,14.0,-7.0,
2067.0,2247.0,14.0,-7.0,
2110.0,2110.0,14.0,-7.0,
2113.0,2061.0,14.0,-7.0,
2045.0,2149.0,13.0,-7.0,
2013.0,2083.0,13.0,-7.0,
2000.0,2107.0,12.0,-8.0,
2033.0,2099.0,11.0,-8.0,
2055.0,1939.0,10.0,-8.0,
2051.0,2212.0,9.0,-8.0,
2063.0,2082.0,8.0,-8.0,
2048.0,2212.0,6.0,-9.0,
2030.0,2081.0,5.0,-9.0,
2054.0,1945.0,4.0,-9.0,
2062.0,2110.0,3.0,-10.0,
2011.0,2171.0,1.0,-11.0,
2042.0,2176.0,0.0,-13.0,
1982.0,2111.0,0.0,-12.0,
1954.0,2044.0,-1.0,-11.0,
1997.0,2063.0,-2.0,-10.0,
2019.0,2157.0,-3.0,-10.0,
2132.0,2124.0,-3.0,-10.0,
2141.0,2084.0,-4.0,-9.0,
2076.0,1996.0,-4.0,-9.0,
1993.0,2159.0,-5.0,-9.0,
1839.0,2138.0,-5.0,-8.0,
2177.0,2067.0,-4.0,-6.0,
2289.0,2015.0,-4.0,-7.0,
2097.0,2041.0,-4.0,-8.0,
2090.0,2198.0,-4.0,-9.0,
2187.0,2225.0,-3.0,-10.0,
2065.0,2209.0,-3.0,-10.0,
1881.0,2149.0,-2.0,-10.0,
1956.0,2104.0,-2.0,-10.0,
1929.0,2058.0,-1.0,-10.0,
2105.0,2004.0,0.0,-10.0,
2013.0,2062.0,0.0,-10.0,
2201.0,2073.0,0.0,-10.0,
2282.0,1921.0,0.0,-10.0,
2108.0,2352.0,0.0,-10.0,
2349.0,2097.0,0.0,-10.0,
2227.0,1879.0,1.0,-10.0,
2057.0,2271.0,1.0,-10.0,
2251.0,2194.0,1.0,-10.0,
2227.0,2156.0,1.0,-10.0,
2040.0,2170.0,1.0,-10.0,
2024.0,2103.0,1.0,-10.0,
1931.0,2070.0,1.0,-10.0,
1885.0,2079.0,0.0,-10.0,
2077.0,1958.0,0.0,-10.0,
2185.0,2111.0,0.0,-10.0,
2125.0,2091.0,0.0,-10.0,
2078.0,1999.0,0.0,-11.0,
2007.0,2154.0,0.0,-11.0,
2092.0,2111.0,0.0,-11.0,
2061.0,2111.0,-1.0,-11.0,
2009.0,2117.0,-1.0,-11.0,
2056.0,2116.0,-2.0,-11.0,
1998.0,2061.0,-2.0,-11.0,
1960.0,2065.0,-3.0,-11.0,
2037.0,2046.0,-4.0,-15.0,
2040.0,2051.0,-4.0,-15.0,
1961.0,2115.0,-5.0,-14.0,
2069.0,2066.0,-5.0,-13.0,
2014.0,2157.0,-6.0,-12.0,
2036.0,2164.0,-7.0,-11.0,
1934.0,2120.0,-7.0,-11.0,
1931.0,2036.0,-8.0,-11.0,
2042.0,1872.0,-8.0,-11.0,
1960.0,2318.0,-9.0,-11.0,
2184.0,1996.0,-8.0,-6.0,
2318.0,2161.0,-9.0,-6.0,
2137.0,2028.0,-10.0,-8.0,
1989.0,2033.0,-10.0,-9.0,
2197.0,2153.0,-10.0,-11.0,
2154.0,2103.0,-11.0,-12.0,
2083.0,2086.0,-11.0,-14.0,
2131.0,2292.0,-10.0,-15.0,
2021.0,2151.0,-10.0,-14.0,
1974.0,2176.0,-10.0,-13.0,
2149.0,1982.0,-9.0,-13.0,
1942.0,1885.0,-9.0,-12.0,
1942.0,2069.0,-8.0,-12.0,
1679.0,2134.0,-8.0,-13.0,
1769.0,2128.0,-8.0,-13.0,
2283.0,2204.0,-7.0,-12.0,
1984.0,2131.0,-7.0,-11.0,
2094.0,2019.0,-8.0,-10.0,
2481.0,2288.0,-8.0,-11.0,
2486.0,2166.0,-8.0,-12.0,
2111.0,1943.0,-8.0,-13.0,
1948.0,2051.0,-8.0,-13.0,
1856.0,1924.0,-8.0,-13.0,
2380.0,2342.0,-8.0,-13.0,
2290.0,2082.0,-7.0,-13.0,
2013.0,1968.0,-7.0,-13.0,
2400.0,2040.0,-7.0,-13.0,
2270.0,2189.0,-7.0,-13.0,
2136.0,2072.0,-7.0,-13.0,
1997.0,2077.0,-7.0,-13.0,
1991.0,2041.0,-8.0,-13.0,
1860.0,2101.0,-8.0,-13.0,
1953.0,2042.0,-8.0,-13.0,
1962.0,2155.0,-8.0,-13.0,
2048.0,2069.0,-8.0,-13.0,
2102.0,2085.0,-8.0,-13.0,
2032.0,1981.0,-8.0,-13.0,
1985.0,2008.0,-9.0,-13.0,
1948.0,2146.0,-9.0,-13.0,
2213.0,2042.0,-9.0,-13.0,
2071.0,2174.0,-9.0,-13.0,
2018.0,2030.0,-10.0,-13.0,
2081.0,1891.0,-10.0,-13.0,
1971.0,2121.0,-11.0,-13.0,
1968.0,2222.0,-11.0,-13.0,
2003.0,2115.0,-11.0,-13.0,
2123.0,1844.0,-11.0,-12.0,
2117.0,2228.0,-12.0,-12.0,
2081.0,2237.0,-12.0,-13.0,
1914.0,2116.0,-12.0,-13.0,
2081.0,2165.0,-13.0,-13.0,
1882.0,2017.0,-13.0,-13.0,
1682.0,1770.0,-13.0,-13.0,
1918.0,2292.0,-13.0,-13.0,
2216.0,2394.0,-13.0,-13.0,
2514.0,2172.0,-13.0,-13.0,
2062.0,2196.0,-14.0,-16.0,
1860.0,1812.0,-14.0,-16.0,
2101.0,2038.0,-14.0,-14.0,
2406.0,1929.0,-13.0,-14.0,
2509.0,2266.0,-13.0,-14.0,
2202.0,2210.0,-13.0,-14.0,
2048.0,2200.0,-13.0,-14.0,
1998.0,2157.0,-13.0,-14.0,
1704.0,2100.0,-13.0,-13.0,
1726.0,2243.0,-13.0,-13.0,
2342.0,2215.0,-12.0,-11.0,
2379.0,1976.0,-12.0,-11.0,
2116.0,2148.0,-13.0,-13.0,
2210.0,2078.0,-13.0,-13.0,
2099.0,2060.0,-13.0,-13.0,
1987.0,2049.0,0,
2124.0,2060.0,-13.0,-13.0,
2119.0,2029.0,-13.0,-12.0,
2180.0,2025.0,-13.0,-12.0,
2107.0,2059.0,-13.0,-12.0,
1954.0,1962.0,-13.0,-12.0,
2007.0,2123.0,-13.0,-12.0,
2034.0,2087.0,-13.0,-12.0,
1982.0,2083.0,-13.0,-12.0,
1953.0,2069.0,-13.0,-12.0,
1984.0,2112.0,-13.0,-12.0,
2018.0,2099.0,-13.0,-12.0,
2036.0,2123.0,-13.0,-13.0,
1954.0,2058.0,-14.0,-13.0,
2056.0,2108.0,-14.0,-13.0,
1876.0,2114.0,-14.0,-14.0,
1986.0,2139.0,-14.0,-14.0,
2001.0,2069.0,0,
2127.0,2204.0,-15.0,-14.0,
2227.0,2155.0,-15.0,-14.0,
2201.0,1890.0,-15.0,-14.0,
2261.0,2016.0,-16.0,-14.0,
2032.0,1767.0,-16.0,-14.0,
2251.0,2309.0,-16.0,-14.0,
2020.0,1966.0,-16.0,-14.0,
1936.0,1973.0,-16.0,-14.0,
1820.0,2181.0,-16.0,-15.0,
2171.0,2321.0,-17.0,-15.0,
1956.0,2288.0,-17.0,-15.0,
2198.0,2119.0,-17.0,-15.0,
2261.0,2025.0,-16.0,-15.0,
2301.0,2155.0,-17.0,-15.0,
2045.0,2304.0,-16.0,-15.0,
1937.0,2062.0,-16.0,-15.0,
1840.0,1582.0,-16.0,-15.0,
1888.0,2092.0,-16.0,-15.0,
2002.0,2400.0,-16.0,-15.0,
2147.0,2144.0,-16.0,-15.0,
2120.0,2177.0,-16.0,-14.0,
2037.0,2363.0,-16.0,-14.0,
2271.0,2092.0,-15.0,-14.0,
2502.0,1841.0,-15.0,-14.0,
2147.0,1927.0,-15.0,-14.0,
1831.0,2035.0,-15.0,-14.0,
1781.0,1924.0,-15.0,-14.0,
2101.0,2261.0,-15.0,-14.0,
1958.0,2182.0,-15.0,-14.0,
2226.0,2066.0,-16.0,-14.0,
2132.0,2023.0,-16.0,-14.0,
2010.0,2141.0,-16.0,-14.0,
1917.0,2065.0,-16.0,-14.0,
2102.0,2066.0,-16.0,-14.0,
2200.0,2046.0,-17.0,-13.0,
2094.0,2040.0,-17.0,-13.0,
2047.0,1977.0,-17.0,-13.0,
2078.0,2088.0,-17.0,-13.0,
2191.0,2073.0,-17.0,-13.0,
2235.0,2102.0,-17.0,-13.0,
2201.0,2118.0,-18.0,-13.0,
2041.0,1933.0,-18.0,-13.0,
1911.0,2104.0,-18.0,-13.0,
1929.0,2068.0,-18.0,-13.0,
1550.0,2003.0,-19.0,-13.0,
2050.0,2162.0,-19.0,-13.0,
2403.0,2125.0,-19.0,-13.0,
1928.0,2029.0,-19.0,-13.0,
2383.0,2085.0,-20.0,-13.0,
2272.0,2206.0,-20.0,-13.0,
2022.0,2137.0,-20.0,-13.0,
2070.0,2130.0,-20.0,-13.0,
1879.0,2018.0,-20.0,-13.0,
1724.0,2041.0,-20.0,-13.0,
2142.0,2149.0,-20.0,-13.0,
2022.0,2153.0,-20.0,-13.0,
2224.0,1993.0,-20.0,-13.0,
2102.0,2122.0,-20.0,-13.0,
2163.0,2132.0,-20.0,-13.0,
2144.0,2037.0,-19.0,-13.0,
2251.0,2059.0,-19.0,-13.0,
2123.0,2168.0,-19.0,-13.0,
2050.0,1810.0,-19.0,-14.0,
1828.0,2035.0,-18.0,-14.0,
1906.0,2091.0,-18.0,-14.0,
1937.0,2407.0,-18.0,-14.0,
2168.0,2036.0,-18.0,-14.0,
2275.0,2016.0,-17.0,-14.0,
2061.0,2018.0,-17.0,-14.0,
2231.0,2302.0,-17.0,-14.0,
2314.0,2148.0,-17.0,-14.0,
2020.0,2085.0,-17.0,-14.0,
2032.0,1916.0,-17.0,-14.0,
1968.0,2345.0,-17.0,-14.0,
2034.0,2079.0,-17.0,-14.0,
1999.0,2139.0,-16.0,-14.0,
2073.0,2103.0,-16.0,-14.0,
1824.0,2117.0,-16.0,-14.0,
1602.0,1977.0,-17.0,-14.0,
1890.0,2035.0,-17.0,-14.0,
2100.0,2125.0,-17.0,-14.0,
2555.0,1865.0,-17.0,-14.0,
2195.0,2147.0,-17.0,-14.0,
2102.0,2134.0,-17.0,-14.0,
2202.0,2073.0,-17.0,-14.0,
2149.0,2049.0,-18.0,-14.0,
2089.0,2008.0,-18.0,-14.0,
1892.0,1977.0,-18.0,-14.0,
1849.0,2153.0,-18.0,-14.0,
2234.0,2167.0,-18.0,-14.0,
1939.0,2266.0,-18.0,-14.0,
2335.0,2244.0,-19.0,-14.0,
2007.0,2169.0,-19.0,-14.0,
2104.0,2149.0,-19.0,-14.0,
1921.0,2006.0,-19.0,-14.0,
2020.0,2173.0,-19.0,-14.0,
2202.0,2087.0,-19.0,-14.0,
2217.0,2073.0,-19.0,-14.0,
2215.0,1998.0,-19.0,-13.0,
1778.0,2203.0,-19.0,-13.0,
1699.0,2175.0,-19.0,-13.0,
1716.0,1981.0,-19.0,-13.0,
1927.0,2036.0,-19.0,-13.0,
2172.0,1859.0,-19.0,-13.0,
2211.0,2127.0,-19.0,-13.0,
2738.0,2168.0,-19.0,-13.0,
2267.0,2117.0,-20.0,-13.0,
2062.0,1995.0,-20.0,-13.0,
2009.0,1840.0,-20.0,-13.0,
2162.0,2087.0,-20.0,-14.0,
2069.0,2051.0,-20.0,-13.0,
1949.0,2280.0,-20.0,-13.0,
2166.0,2349.0,-20.0,-14.0,
2079.0,2075.0,-20.0,-14.0,
2118.0,2088.0,-20.0,-14.0,
1987.0,2154.0,-20.0,-14.0,
2098.0,2118.0,-20.0,-14.0,
2113.0,2149.0,-20.0,-14.0,
2193.0,1985.0,-20.0,-14.0,
1962.0,1838.0,-20.0,-14.0,
1993.0,2219.0,-19.0,-14.0,
1849.0,2030.0,-19.0,-14.0,
2070.0,2365.0,-19.0,-14.0,
2220.0,2199.0,-19.0,-14.0,
2106.0,2105.0,-19.0,-14.0,
2073.0,1955.0,-19.0,-14.0,
2005.0,2098.0,-19.0,-14.0,
1910.0,1724.0,-19.0,-14.0,
1831.0,1964.0,-19.0,-14.0,
2081.0,1889.0,-19.0,-14.0,
2318.0,2487.0,-19.0,-14.0,
1994.0,2281.0,-19.0,-14.0,
2060.0,2029.0,-19.0,-14.0,
2049.0,1922.0,-19.0,-14.0,
2073.0,2092.0,-19.0,-14.0,
2147.0,1989.0,-19.0,-14.0,
1989.0,1937.0,-19.0,-14.0,
1824.0,2083.0,-19.0,-14.0,
1885.0,2005.0,-20.0,-14.0,
2269.0,2221.0,-20.0,-14.0,
2294.0,2179.0,-20.0,-14.0,
2182.0,2119.0,-20.0,-14.0,
1947.0,1995.0,-20.0,-14.0,
1891.0,2175.0,-20.0,-14.0,
1685.0,2247.0,-21.0,-14.0,
2075.0,2080.0,-21.0,-14.0,
2149.0,2277.0,-21.0,-14.0,
1822.0,2133.0,-21.0,-14.0,
1847.0,2049.0,-21.0,-14.0,
2084.0,2132.0,-21.0,-14.0,
2689.0,2127.0,-21.0,-14.0,
2422.0,2100.0,-22.0,-14.0,
2007.0,2145.0,-22.0,-14.0,
1965.0,1960.0,-22.0,-14.0,
2388.0,1985.0,-22.0,-14.0,
2205.0,2064.0,-22.0,-14.0,
2047.0,2100.0,-22.0,-14.0,
2416.0,1830.0,-22.0,-14.0,
1874.0,1970.0,-22.0,-14.0,
2052.0,2253.0,-22.0,-14.0,
2330.0,2205.0,-22.0,-14.0,
2232.0,2075.0,-22.0,-14.0,
2158.0,2196.0,-21.0,-14.0,
1998.0,2318.0,-21.0,-14.0,
1949.0,2129.0,-21.0,-14.0,
1863.0,1858.0,-21.0,-14.0,
1624.0,2088.0,-21.0,-14.0,
1975.0,1871.0,-21.0,-14.0,
2305.0,2235.0,-21.0,-14.0,
2018.0,2230.0,-21.0,-14.0,
1866.0,2172.0,-21.0,-14.0,
1879.0,2129.0,-21.0,-14.0,
2101.0,2076.0,-21.0,-14.0,
2387.0,2058.0,-21.0,-14.0,
1971.0,2218.0,-21.0,-14.0,
1811.0,1979.0,-21.0,-14.0,
2100.0,1973.0,-21.0,-14.0,
2208.0,2021.0,-21.0,-14.0,
2213.0,2215.0,-21.0,-14.0,
2029.0,2138.0,-21.0,-14.0,
2173.0,2080.0,-20.0,-14.0,
2121.0,2130.0,-21.0,-14.0,
1975.0,2111.0,-21.0,-14.0,
1886.0,2071.0,-21.0,-14.0,
1750.0,2077.0,-21.0,-14.0,
1927.0,2093.0,-21.0,-14.0,
1955.0,1958.0,-21.0,-14.0,
2308.0,1949.0,-21.0,-14.0,
2099.0,2330.0,-21.0,-14.0,
2207.0,2153.0,-21.0,-14.0,
2242.0,2313.0,-21.0,-14.0,
2366.0,2354.0,-20.0,-14.0,
2102.0,2034.0,-20.0,-14.0,
2132.0,1954.0,-20.0,-14.0,
2181.0,2288.0,-20.0,-14.0,
1958.0,2170.0,-20.0,-14.0,
1658.0,2020.0,-20.0,-14.0,
2063.0,2000.0,-20.0,-14.0,
2016.0,2039.0,-20.0,-14.0,
2212.0,2118.0,-20.0,-14.0,
2027.0,2020.0,-20.0,-14.0,
2007.0,2047.0,-21.0,-14.0,
1947.0,1790.0,-20.0,-15.0,
2112.0,2236.0,-20.0,-14.0,
2167.0,2147.0,-20.0,-14.0,
2439.0,2130.0,-20.0,-14.0,
1990.0,2060.0,-21.0,-14.0,
1979.0,2230.0,-21.0,-14.0,
1978.0,2033.0,-21.0,-14.0,
2317.0,2200.0,-21.0,-14.0,
2175.0,2138.0,-21.0,-14.0,
2042.0,2023.0,-21.0,-14.0,
2137.0,2040.0,-21.0,-14.0,
1840.0,2047.0,-21.0,-14.0,
1563.0,2174.0,-21.0,-14.0,
1862.0,2048.0,-21.0,-14.0,
1926.0,2071.0,-21.0,-14.0,
2196.0,2084.0,-21.0,-14.0,
2086.0,2031.0,-21.0,-14.0,
1932.0,1863.0,-21.0,-14.0,
2198.0,2305.0,-21.0,-14.0,
2604.0,2215.0,-21.0,-14.0,
2297.0,2036.0,-21.0,-14.0,
2182.0,2075.0,-21.0,-14.0,
1979.0,2186.0,-21.0,-14.0,
1989.0,1826.0,-21.0,-14.0,
2069.0,2062.0,-21.0,-14.0,
2011.0,2255.0,-21.0,-14.0,
2253.0,2162.0,-21.0,-14.0,
1963.0,1892.0,-21.0,-14.0,
2144.0,2147.0,-21.0,-14.0,
2126.0,2171.0,-21.0,-14.0,
1657.0,2004.0,-21.0,-14.0,
2311.0,2079.0,-21.0,-14.0,
2220.0,2112.0,-21.0,-14.0,
1922.0,2056.0,-20.0,-14.0,
1775.0,2005.0,-20.0,-14.0,
1970.0,1821.0,-20.0,-14.0,
2123.0,2214.0,-20.0,-14.0,
2409.0,2238.0,-20.0,-14.0,
2058.0,2138.0,-20.0,-14.0,
2018.0,2129.0,-20.0,-14.0,
1994.0,2015.0,-20.0,-14.0,
2300.0,2020.0,-20.0,-14.0,
2271.0,2149.0,-20.0,-14.0,
2087.0,2052.0,-20.0,-14.0,
2086.0,2099.0,-20.0,-14.0,
2075.0,2093.0,-20.0,-14.0,
1971.0,1954.0,-20.0,-14.0,
2068.0,2180.0,-20.0,-14.0,
1926.0,2257.0,-20.0,-14.0,
2207.0,2227.0,-20.0,-14.0,
1995.0,2104.0,-20.0,-14.0,
1838.0,2019.0,-20.0,-14.0,
1955.0,2038.0,-20.0,-14.0,
1879.0,2272.0,-20.0,-14.0,
2050.0,2154.0,-20.0,-14.0,
1878.0,2109.0,-20.0,-14.0,
2233.0,2115.0,-20.0,-14.0,
2051.0,2025.0,-20.0,-14.0,
2518.0,2052.0,-20.0,-14.0,
2353.0,2060.0,-20.0,-14.0,
2228.0,1973.0,-20.0,-14.0,
2484.0,2034.0,-20.0,-14.0,
2052.0,2141.0,-21.0,-14.0,
1800.0,2088.0,-21.0,-14.0,
1926.0,2138.0,-21.0,-14.0,
1898.0,2350.0,-21.0,-14.0,
1880.0,2180.0,-21.0,-14.0,
2029.0,1957.0,-21.0,-14.0,
2444.0,1988.0,-21.0,-14.0,
2015.0,2004.0,-21.0,-14.0,
2160.0,2248.0,-21.0,-14.0,
2339.0,2066.0,-21.0,-14.0,
2003.0,2110.0,-21.0,-14.0,
1899.0,2072.0,-21.0,-14.0,
1896.0,2090.0,-21.0,-14.0,
1957.0,1991.0,-21.0,-14.0,
1988.0,1615.0,-20.0,-14.0,
2103.0,2406.0,-20.0,-14.0,
2167.0,1902.0,-20.0,-14.0,
2305.0,2393.0,-20.0,-14.0,
2236.0,2211.0,-20.0,-14.0,
2017.0,1987.0,-20.0,-14.0,
1992.0,2080.0,-20.0,-14.0,
2117.0,2250.0,-20.0,-14.0,
1880.0,2281.0,-20.0,-14.0,
1989.0,2080.0,-20.0,-14.0,
1838.0,2139.0,-20.0,-14.0,
2052.0,2016.0,-20.0,-14.0,
1972.0,2059.0,-20.0,-14.0,
2057.0,1846.0,-20.0,-14.0,
2307.0,2175.0,-20.0,-14.0,
2130.0,2096.0,-21.0,-14.0,
1846.0,1868.0,-21.0,-14.0,
1869.0,2215.0,-21.0,-14.0,
2167.0,2143.0,-21.0,-14.0,
2030.0,2135.0,-21.0,-14.0,
1926.0,2091.0,-21.0,-14.0,
1935.0,1823.0,-21.0,-14.0,
2114.0,1914.0,-21.0,-14.0,
2526.0,2104.0,-21.0,-14.0,
2401.0,2157.0,-21.0,-14.0,
2072.0,2123.0,-21.0,-14.0,
2037.0,2101.0,-21.0,-14.0,
1954.0,2123.0,-21.0,-14.0,
1603.0,2072.0,-20.0,-14.0,
1479.0,2070.0,-20.0,-14.0,
1991.0,2107.0,-20.0,-14.0,
2450.0,2019.0,-20.0,-14.0,
2287.0,2218.0,-20.0,-14.0,
2322.0,2205.0,-20.0,-14.0,
2227.0,2078.0,-20.0,-14.0,
2406.0,2034.0,-20.0,-14.0,
2089.0,2017.0,-20.0,-14.0,
1947.0,1991.0,-20.0,-14.0,
1893.0,2318.0,-19.0,-14.0,
2222.0,2066.0,-19.0,-14.0,
2287.0,2099.0,-19.0,-14.0,
2255.0,2293.0,-19.0,-14.0,
2310.0,2054.0,-19.0,-14.0,
1829.0,2113.0,-19.0,-14.0,
1906.0,2071.0,-19.0,-14.0,
2143.0,2183.0,-19.0,-14.0,
2064.0,2041.0,-19.0,-15.0,
2096.0,2037.0,-19.0,-15.0,
1982.0,1994.0,-19.0,-15.0,
1765.0,1964.0,-19.0,-15.0,
1977.0,1966.0,-19.0,-15.0,
1949.0,1924.0,-19.0,-15.0,
2398.0,2460.0,-19.0,-15.0,
2160.0,2256.0,-19.0,-15.0,
2090.0,2264.0,-19.0,-15.0,
2068.0,1944.0,-19.0,-15.0,
2099.0,2036.0,-20.0,-15.0,
1959.0,2063.0,-20.0,-15.0,
1740.0,2157.0,-20.0,-14.0,
1626.0,2049.0,-20.0,-14.0,
1770.0,1979.0,-20.0,-14.0,
2069.0,2241.0,-20.0,-14.0,
2517.0,2028.0,-20.0,-14.0,
2091.0,2062.0,-20.0,-14.0,
2143.0,2044.0,-20.0,-14.0,
2121.0,2233.0,-20.0,-14.0,
2107.0,2050.0,-20.0,-14.0,
2100.0,2003.0,-21.0,-14.0,
2043.0,2181.0,-21.0,-14.0,
2152.0,2216.0,-21.0,-14.0,
2014.0,1836.0,-21.0,-14.0,
2022.0,2002.0,-21.0,-14.0,
2123.0,2192.0,-21.0,-14.0,
2472.0,2209.0,-21.0,-14.0,
2134.0,2132.0,-21.0,-14.0,
2117.0,2119.0,-21.0,-14.0,
2035.0,2124.0,-22.0,-14.0,
1948.0,2109.0,-22.0,-14.0,
1884.0,2095.0,-22.0,-14.0,
1853.0,1999.0,-22.0,-14.0,
2148.0,2100.0,-22.0,-14.0,
2133.0,2073.0,-22.0,-14.0,
1885.0,2052.0,-22.0,-14.0,
2005.0,2102.0,-22.0,-14.0,
2210.0,2042.0,-22.0,-14.0,
2096.0,2069.0,-22.0,-14.0,
1992.0,2177.0,-22.0,-14.0,
1866.0,2039.0,-22.0,-14.0,
1977.0,2132.0,-22.0,-14.0,
2199.0,2118.0,-22.0,-14.0,
2131.0,2062.0,-22.0,-14.0,
2424.0,2068.0,-22.0,-14.0,
2417.0,2152.0,-22.0,-14.0,
2132.0,2225.0,-22.0,-14.0,
2030.0,2192.0,-22.0,-14.0,
1975.0,2105.0,-22.0,-14.0,
2069.0,1926.0,-22.0,-15.0,
2048.0,2083.0,-22.0,-15.0,
1986.0,2125.0,-22.0,-15.0,
1988.0,2155.0,-21.0,-15.0,
1998.0,2126.0,-21.0,-15.0,
2134.0,1947.0,-21.0,-15.0,
2033.0,2049.0,-21.0,-15.0,
2045.0,2025.0,-21.0,-15.0,
2141.0,2211.0,-21.0,-15.0,
2100.0,2179.0,-21.0,-15.0,
2025.0,2127.0,-21.0,-15.0,
2071.0,2188.0,-21.0,-15.0,
2059.0,2057.0,-21.0,-15.0,
2074.0,2102.0,-22.0,-15.0,
1938.0,2097.0,-22.0,-15.0,
1915.0,2122.0,-22.0,-15.0,
2019.0,2183.0,-22.0,-15.0,
2154.0,2101.0,-22.0,-15.0,
2112.0,2057.0,-22.0,-15.0,
1971.0,1998.0,-22.0,-15.0,
2005.0,2041.0,-22.0,-14.0,
2149.0,2098.0,-22.0,-14.0,
2031.0,2087.0,-22.0,-14.0,
2028.0,2088.0,-23.0,-14.0,
2139.0,2134.0,-23.0,-14.0,
2108.0,2057.0,-23.0,-14.0,
2101.0,2020.0,-23.0,-14.0,
2137.0,2134.0,-23.0,-14.0,
2096.0,2106.0,-23.0,-14.0,
2075.0,2111.0,-23.0,-14.0,
2094.0,2108.0,-23.0,-14.0,
2038.0,2108.0,-23.0,-14.0,
1986.0,2096.0,-23.0,-15.0,
2038.0,2087.0,-23.0,-15.0,
2013.0,2091.0,-23.0,-15.0,
2109.0,2084.0,-23.0,-15.0,
2131.0,2086.0,-24.0,-15.0,
2074.0,2091.0,-24.0,-15.0,
2033.0,2055.0,-24.0,-15.0,
1977.0,2055.0,-24.0,-15.0,
2062.0,2132.0,-24.0,-15.0,
2096.0,2129.0,-24.0,-15.0,
2213.0,2125.0,-24.0,-15.0,
2112.0,2098.0,-25.0,-15.0,
2118.0,2100.0,-25.0,-15.0,
2152.0,2106.0,-25.0,-15.0,
2030.0,2083.0,-25.0,-15.0,
2136.0,2102.0,-25.0,-15.0,
2098.0,2101.0,-25.0,-15.0,
1970.0,2076.0,-25.0,-15.0,
2056.0,2068.0,-25.0,-15.0,
2023.0,2075.0,-24.0,-15.0,
2151.0,2088.0,-24.0,-15.0,
2177.0,2093.0,-24.0,-15.0,
2089.0,2127.0,-24.0,-15.0,
2095.0,2093.0,-23.0,-15.0,
2066.0,2040.0,-23.0,-15.0,
2011.0,2066.0,-22.0,-15.0,
2048.0,2119.0,-22.0,-15.0,
2071.0,2155.0,-21.0,-15.0,
2070.0,2133.0,-20.0,-15.0,
2040.0,2123.0,-20.0,-15.0,
2082.0,2124.0,-19.0,-15.0,
2075.0,2164.0,-19.0,-15.0,
1983.0,2071.0,-18.0,-15.0,
1952.0,1990.0,-18.0,-14.0,
2089.0,2119.0,-18.0,-14.0,
2116.0,2161.0,-17.0,-14.0,
2114.0,2109.0,-17.0,-14.0,
2120.0,2073.0,-17.0,-14.0,
2130.0,2115.0,-17.0,-14.0,
2083.0,2107.0,-17.0,-14.0,
2067.0,2091.0,-16.0,-14.0,
2092.0,2082.0,-16.0,-14.0,
2034.0,2134.0,-16.0,-14.0,
2030.0,2141.0,-16.0,-14.0,
2001.0,2102.0,-16.0,-13.0,
2021.0,2089.0,-15.0,-13.0,
2087.0,2090.0,-15.0,-13.0,
2159.0,2102.0,-15.0,-13.0,
2134.0,2102.0,-15.0,-13.0,
2140.0,2087.0,-15.0,-13.0,
2031.0,2097.0,-15.0,-13.0,
2004.0,2097.0,-15.0,-13.0,
2054.0,2123.0,-14.0,-12.0,
2112.0,2117.0,-14.0,-12.0,
2106.0,2130.0,-14.0,-8.0,
2094.0,2039.0,-15.0,-8.0,
2053.0,2075.0,-15.0,-8.0,
2046.0,2057.0,-14.0,-9.0,
2021.0,2073.0,-14.0,-11.0,
2053.0,2127.0,-14.0,-12.0,
2024.0,2168.0,-13.0,-12.0,
2029.0,2106.0,-13.0,-12.0,
2130.0,2090.0,-12.0,-12.0,
2072.0,2067.0,-11.0,-12.0,
2061.0,2081.0,-11.0,-16.0,
2139.0,2081.0,-10.0,-16.0,
2109.0,2038.0,-10.0,-15.0,
2083.0,2069.0,-9.0,-14.0,
2143.0,2104.0,-9.0,-12.0,
2104.0,2093.0,-8.0,-9.0,
2069.0,2101.0,-8.0,-8.0,
2089.0,2156.0,-8.0,-8.0,
2065.0,2102.0,-7.0,-9.0,
2070.0,2109.0,-7.0,-10.0,
2041.0,2112.0,-6.0,-10.0,
2075.0,2090.0,-6.0,-10.0,
2057.0,2130.0,-6.0,-10.0,
2051.0,2103.0,-5.0,-10.0,
2051.0,2091.0,-5.0,-11.0,
2027.0,2089.0,-4.0,-12.0,
2081.0,2095.0,-3.0,-13.0,
2085.0,2118.0,-3.0,-12.0,
2134.0,2071.0,-3.0,-11.0,
2093.0,2049.0,-2.0,-10.0,
2052.0,2141.0,-2.0,-8.0,
2026.0,2126.0,-2.0,-7.0,
1978.0,2135.0,-1.0,-8.0,
1931.0,1983.0,-1.0,-8.0,
2024.0,1984.0,-1.0,-9.0,
1991.0,2131.0,-1.0,-9.0,
2033.0,2106.0,-1.0,-9.0,
2103.0,2087.0,-1.0,-9.0,
2188.0,2139.0,-1.0,-9.0,
2257.0,2127.0,-1.0,-9.0,
2227.0,2057.0,-1.0,-11.0,
2121.0,2117.0,0.0,-11.0,
2089.0,2110.0,0.0,-11.0,
2061.0,2105.0,0.0,-10.0,
2076.0,2091.0,0.0,-9.0,
2034.0,2097.0,0.0,-9.0,
2063.0,2173.0,0.0,-9.0,
2043.0,2163.0,0.0,-9.0,
2035.0,2222.0,0.0,-8.0,
2093.0,2042.0,0.0,-8.0,
2036.0,1880.0,0.0,-8.0,
2054.0,1995.0,0.0,-9.0,
2030.0,2108.0,0.0,-9.0,
2047.0,2030.0,0.0,-9.0,
2090.0,2080.0,0.0,-9.0,
2194.0,2121.0,0.0,-9.0,
2156.0,2139.0,0.0,-9.0,
2063.0,2111.0,0.0,-9.0,
2045.0,2043.0,0.0,-9.0,
2046.0,2080.0,0.0,-9.0,
1992.0,2121.0,0.0,-9.0,
2037.0,2137.0,0.0,-9.0,
2131.0,2144.0,0.0,-9.0,
2073.0,2022.0,1.0,-9.0,
2066.0,1972.0,1.0,-9.0,
2040.0,2161.0,1.0,-9.0,
2134.0,2132.0,2.0,-9.0,
2079.0,2101.0,2.0,-8.0,
2029.0,2123.0,2.0,-8.0,
2057.0,2079.0,2.0,-8.0,
2030.0,2114.0,3.0,-8.0,
2048.0,2131.0,3.0,-8.0,
2071.0,2115.0,3.0,-8.0,
2069.0,2127.0,4.0,-6.0,
2069.0,2111.0,4.0,-5.0,
2069.0,2159.0,4.0,-6.0,
2069.0,2167.0,5.0,-7.0,
2085.0,2062.0,5.0,-8.0,
2056.0,2132.0,6.0,-8.0,
2059.0,2140.0,7.0,-8.0,
2067.0,2074.0,7.0,-8.0,
2066.0,2054.0,8.0,-8.0,
2078.0,2051.0,8.0,-8.0,
2113.0,2092.0,8.0,-9.0,
2104.0,2133.0,9.0,-10.0,
2106.0,2148.0,9.0,-9.0,
2028.0,2127.0,10.0,-8.0,
2038.0,2091.0,10.0,-7.0,
1981.0,1908.0,10.0,-7.0,
2016.0,1976.0,11.0,-7.0,
2087.0,2046.0,11.0,-7.0,
2101.0,2112.0,11.0,-6.0,
2110.0,2136.0,11.0,-6.0,
2133.0,2195.0,10.0,-7.0,
2112.0,2249.0,10.0,-7.0,
2063.0,2070.0,10.0,-7.0,
1993.0,1921.0,10.0,-7.0,
2026.0,2054.0,10.0,-7.0,
2084.0,2140.0,10.0,-6.0,
2056.0,2117.0,9.0,-6.0,
1979.0,2007.0,9.0,-6.0,
2056.0,2076.0,9.0,-6.0,
2082.0,2076.0,9.0,-6.0,
2090.0,2096.0,9.0,-6.0,
2150.0,2146.0,9.0,-6.0,
2048.0,2143.0,9.0,-6.0,
2070.0,2101.0,10.0,-6.0,
2090.0,2158.0,10.0,-6.0,
2064.0,2088.0,10.0,-6.0,
2100.0,2063.0,10.0,-6.0,
2126.0,2073.0,11.0,-6.0,
2130.0,2072.0,11.0,-6.0,
2097.0,2150.0,11.0,-6.0,
2071.0,2089.0,12.0,-6.0,
2018.0,2077.0,12.0,-6.0,
2022.0,2081.0,13.0,-6.0,
2071.0,2150.0,13.0,-6.0,
2046.0,2135.0,13.0,-6.0,
2057.0,2079.0,14.0,-6.0,
2066.0,2169.0,14.0,-6.0,
2072.0,2094.0,14.0,-6.0,
2047.0,2048.0,15.0,-6.0,
2076.0,2102.0,15.0,-6.0,
2071.0,2115.0,16.0,-6.0,
2054.0,2066.0,16.0,-6.0,
1986.0,2058.0,17.0,-6.0,
1963.0,2164.0,17.0,-6.0,
2008.0,2183.0,18.0,-6.0,
2081.0,2179.0,18.0,-6.0,
2089.0,2107.0,19.0,-6.0,
2147.0,1984.0,19.0,-6.0,
2189.0,2074.0,20.0,-6.0,
2088.0,2102.0,20.0,-6.0,
2058.0,2107.0,20.0,-6.0,
2070.0,2071.0,20.0,-6.0,
2041.0,2031.0,20.0,-6.0,
2074.0,2010.0,20.0,-6.0,
2103.0,2046.0,20.0,-6.0,
2091.0,2092.0,20.0,-6.0,
2104.0,2148.0,20.0,-6.0,
2077.0,2121.0,20.0,-6.0,
2039.0,2061.0,20.0,-6.0,
2038.0,2111.0,20.0,-6.0,
2031.0,2122.0,20.0,-6.0,
2056.0,2090.0,20.0,-6.0,
2083.0,2104.0,19.0,-6.0,
2101.0,2107.0,19.0,-6.0,
2059.0,2088.0,19.0,-6.0,
2044.0,2150.0,19.0,-6.0,
2087.0,2144.0,19.0,-6.0,
2044.0,2121.0,19.0,-6.0,
2021.0,2154.0,19.0,-6.0,
2045.0,2019.0,19.0,-6.0,
1983.0,1993.0,19.0,-6.0,
2059.0,2097.0,19.0,-6.0,
2163.0,2177.0,19.0,-6.0,
2207.0,2129.0,19.0,-6.0,
2050.0,2040.0,19.0,-6.0,
1972.0,1963.0,19.0,-6.0,
2079.0,2041.0,19.0,-6.0,
2043.0,2098.0,19.0,-6.0,
1998.0,2063.0,19.0,-6.0,
2035.0,2098.0,19.0,-6.0,
2073.0,2198.0,19.0,-6.0,
2087.0,2168.0,19.0,-6.0,
2147.0,2144.0,19.0,-6.0,
2202.0,2148.0,19.0,-6.0,
2120.0,2165.0,19.0,-6.0,
2060.0,2108.0,19.0,-6.0,
2028.0,2076.0,19.0,-6.0,
2023.0,2066.0,19.0,-6.0,
2070.0,2067.0,19.0,-6.0,
2141.0,2094.0,19.0,-6.0,
2153.0,2128.0,19.0,-6.0,
2123.0,2133.0,20.0,-6.0,
2105.0,2045.0,20.0,-6.0,
2058.0,1987.0,20.0,-6.0,
2077.0,2036.0,20.0,-6.0,
2052.0,2114.0,19.0,-6.0,
2068.0,2132.0,19.0,-6.0,
2055.0,2123.0,19.0,-6.0,
2034.0,2109.0,20.0,-6.0,
2077.0,2129.0,20.0,-6.0,
2102.0,2103.0,20.0,-6.0,
2094.0,2162.0,20.0,-6.0,
2042.0,2103.0,20.0,-6.0,
1936.0,1994.0,20.0,-6.0,
1986.0,2122.0,20.0,-6.0,
2107.0,2124.0,20.0,-6.0,
2078.0,2060.0,20.0,-6.0,
2080.0,2026.0,20.0,-6.0,
2105.0,2026.0,20.0,-6.0,
2129.0,2078.0,20.0,-6.0,
2090.0,2097.0,20.0,-6.0,
2076.0,2098.0,20.0,-6.0,
2030.0,2105.0,20.0,-6.0,
2019.0,2142.0,20.0,-6.0,
2031.0,2123.0,20.0,-6.0,
2091.0,2108.0,20.0,-6.0,
2128.0,2105.0,20.0,-6.0,
2136.0,2133.0,20.0,-6.0,
2164.0,2120.0,20.0,-6.0,
2110.0,2068.0,20.0,-6.0,
2057.0,2137.0,20.0,-6.0,
2022.0,2128.0,20.0,-6.0,
2083.0,2237.0,20.0,-5.0,
2078.0,2225.0,20.0,-6.0,
2016.0,1996.0,21.0,-5.0,
2028.0,2019.0,21.0,-5.0,
2072.0,2059.0,22.0,-5.0,
2045.0,2107.0,22.0,-5.0,
2109.0,2091.0,22.0,-5.0,
2063.0,2088.0,22.0,-5.0,
2058.0,2081.0,23.0,-5.0,
2083.0,2091.0,23.0,-5.0,
2177.0,2112.0,24.0,-5.0,
2120.0,2087.0,24.0,-5.0,
2076.0,2042.0,24.0,-5.0,
2097.0,2098.0,25.0,-5.0,
2056.0,2101.0,25.0,-5.0,
2088.0,2079.0,25.0,-5.0,
2071.0,2120.0,25.0,-5.0,
2046.0,2110.0,26.0,-5.0,
2017.0,2042.0,26.0,-5.0,
2006.0,2056.0,26.0,-5.0,
2068.0,2073.0,26.0,-5.0,
2073.0,2102.0,26.0,-5.0,
2087.0,2092.0,26.0,-5.0,
2082.0,2109.0,26.0,-5.0,
2098.0,2109.0,26.0,-5.0,
2071.0,2120.0,27.0,-5.0,
2069.0,2126.0,27.0,-5.0,
2069.0,2192.0,27.0,-5.0,
2089.0,2187.0,27.0,-5.0,
2082.0,2083.0,27.0,-5.0,
2013.0,2038.0,27.0,-5.0,
2115.0,2078.0,27.0,-5.0,
2052.0,2089.0,27.0,-5.0,
2050.0,2108.0,27.0,-5.0,
2039.0,2150.0,26.0,-4.0,
2047.0,2019.0,26.0,-4.0,
2081.0,2038.0,26.0,-4.0,
2104.0,2091.0,26.0,-4.0,
2120.0,2038.0,26.0,-4.0,
2134.0,2152.0,26.0,-4.0,
2099.0,2153.0,26.0,-4.0,
2088.0,2092.0,26.0,-4.0,
2054.0,2089.0,26.0,-4.0,
2055.0,2131.0,26.0,-4.0,
2013.0,2078.0,26.0,-4.0,
2038.0,2125.0,26.0,-4.0,
2027.0,2095.0,26.0,-4.0,
2063.0,2094.0,26.0,-5.0,
2120.0,2042.0,26.0,-4.0,
2092.0,2070.0,26.0,-4.0,
2092.0,2117.0,26.0,-4.0,
2084.0,2120.0,26.0,-4.0,
2080.0,2081.0,26.0,-4.0,
2099.0,2094.0,26.0,-4.0,
2047.0,2114.0,26.0,-4.0,
2114.0,2120.0,26.0,-4.0,
2118.0,2166.0,26.0,-4.0,
2073.0,2109.0,26.0,-4.0,
2049.0,2014.0,26.0,-4.0,
2027.0,2083.0,26.0,-4.0,
2058.0,2040.0,26.0,-4.0,
2046.0,2058.0,26.0,-4.0,
2075.0,2100.0,26.0,-4.0,
2074.0,2136.0,26.0,-4.0,
2057.0,2188.0,26.0,-4.0,
2047.0,2092.0,26.0,-4.0,
2091.0,2098.0,26.0,-4.0,
2067.0,2080.0,26.0,-4.0,
2140.0,2230.0,26.0,-4.0,
2173.0,2150.0,26.0,-4.0,
2110.0,2081.0,26.0,-4.0,
2069.0,2096.0,26.0,-4.0,
2043.0,1917.0,26.0,-4.0,
2002.0,1956.0,26.0,-4.0,
2047.0,2024.0,26.0,-5.0,
2087.0,2093.0,26.0,-5.0,
2049.0,2100.0,26.0,-5.0,
2026.0,2101.0,25.0,-5.0,
2021.0,2100.0,25.0,-5.0,
2091.0,2130.0,26.0,-5.0,
2073.0,2129.0,26.0,-5.0,
2085.0,2210.0,26.0,-5.0,
2164.0,2237.0,26.0,-5.0,
2140.0,2044.0,26.0,-5.0,
2114.0,2016.0,26.0,-5.0,
2095.0,2001.0,26.0,-5.0,
2058.0,2073.0,27.0,-5.0,
2032.0,2079.0,27.0,-4.0,
2039.0,2103.0,27.0,-4.0,
2110.0,2102.0,27.0,-5.0,
2120.0,2113.0,28.0,-5.0,
2105.0,2122.0,28.0,-5.0,
2097.0,2138.0,0,
2095.0,2142.0,28.0,-4.0,
2043.0,2071.0,28.0,-4.0,
2045.0,2103.0,28.0,-5.0,
2061.0,2116.0,29.0,-5.0,
2041.0,2097.0,29.0,-5.0,
2063.0,2093.0,29.0,-5.0,
2072.0,2091.0,29.0,-5.0,
2085.0,2098.0,29.0,-5.0,
2073.0,2098.0,30.0,-5.0,
2071.0,2101.0,30.0,-5.0,
2060.0,2105.0,30.0,-5.0,
2051.0,2100.0,30.0,-5.0,
2052.0,2074.0,30.0,-5.0,
2069.0,2068.0,31.0,-4.0,
2086.0,2110.0,31.0,-4.0,
2101.0,2137.0,31.0,-4.0,
2103.0,2076.0,31.0,-4.0,
2100.0,2075.0,31.0,-4.0,
2082.0,2087.0,31.0,-4.0,
2104.0,2126.0,32.0,-4.0,
2046.0,2117.0,32.0,-4.0,
2008.0,2069.0,32.0,-4.0,
2091.0,2048.0,32.0,-4.0,
2039.0,2096.0,32.0,-4.0,
2108.0,2043.0,32.0,-4.0,
2123.0,2089.0,33.0,-4.0,
2140.0,2155.0,33.0,-4.0,
2060.0,2092.0,33.0,-4.0,
2060.0,2040.0,33.0,-4.0,
2070.0,2059.0,33.0,-4.0,
2104.0,2181.0,33.0,-4.0,
2094.0,2097.0,33.0,-4.0,
2076.0,1962.0,33.0,-4.0,
2058.0,2020.0,33.0,-4.0,
2095.0,2087.0,33.0,-4.0,
2136.0,2091.0,33.0,-4.0,
2094.0,2009.0,33.0,-4.0,
2059.0,2124.0,33.0,-4.0,
2046.0,2134.0,33.0,-4.0,
2047.0,2169.0,33.0,-4.0,
2068.0,2226.0,33.0,-5.0,
2072.0,2172.0,33.0,-5.0,
2042.0,2055.0,33.0,-5.0,
2070.0,2092.0,33.0,-5.0,
2099.0,2125.0,33.0,-5.0,
2098.0,2167.0,33.0,-5.0,
2093.0,2128.0,33.0,-5.0,
2084.0,2090.0,33.0,-5.0,
2095.0,2104.0,33.0,-5.0,
2046.0,2017.0,33.0,-5.0,
2095.0,2051.0,33.0,-5.0,
2079.0,2089.0,33.0,-5.0,
2074.0,2104.0,33.0,-5.0,
2057.0,2124.0,33.0,-5.0,
2045.0,2196.0,33.0,-5.0,
2064.0,2174.0,33.0,-5.0,
2009.0,1924.0,33.0,-5.0,
2009.0,1991.0,33.0,-5.0,
2038.0,2065.0,33.0,-5.0,
2051.0,2066.0,33.0,-5.0,
2170.0,2090.0,33.0,-5.0,
2160.0,2118.0,33.0,-5.0,
2068.0,2095.0,33.0,-5.0,
2093.0,2141.0,32.0,-5.0,
2089.0,2145.0,32.0,-5.0,
2087.0,2148.0,32.0,-5.0,
2082.0,2007.0,32.0,-5.0,
2081.0,2054.0,32.0,-5.0,
2039.0,2076.0,32.0,-4.0,
2113.0,2094.0,32.0,-4.0,
2116.0,2105.0,31.0,-4.0,
2084.0,2122.0,31.0,-4.0,
2050.0,2104.0,31.0,-4.0,
2044.0,2147.0,31.0,-4.0,
2058.0,2113.0,31.0,-4.0,
2082.0,2091.0,31.0,-4.0,
2053.0,2070.0,31.0,-4.0,
2080.0,2088.0,31.0,-4.0,
2071.0,2087.0,31.0,-4.0,
2089.0,2051.0,31.0,-5.0,
2071.0,2076.0,31.0,-5.0,
2050.0,2138.0,31.0,-5.0,
2065.0,2148.0,31.0,-5.0,
2015.0,2074.0,31.0,-5.0,
2036.0,2072.0,31.0,-5.0,
2045.0,2107.0,31.0,-5.0,
2058.0,2090.0,31.0,-5.0,
2072.0,2106.0,31.0,-5.0,
2088.0,2134.0,31.0,-5.0,
2039.0,2088.0,31.0,-5.0,
2024.0,1993.0,31.0,-5.0,
2119.0,2033.0,31.0,-5.0,
2104.0,2064.0,31.0,-5.0,
2147.0,2085.0,31.0,-5.0,
2153.0,2156.0,31.0,-5.0,
2097.0,2198.0,31.0,-5.0,
2039.0,2049.0,30.0,-5.0,
2030.0,2049.0,30.0,-5.0,
2053.0,2083.0,30.0,-5.0,
2078.0,2113.0,30.0,-5.0,
2043.0,2109.0,30.0,-5.0,
2093.0,2122.0,30.0,-5.0,
2093.0,2081.0,30.0,-5.0,
2059.0,2120.0,30.0,-5.0,
2080.0,2130.0,30.0,-5.0,
2109.0,2109.0,30.0,-5.0,
2090.0,2115.0,30.0,-5.0,
2026.0,2098.0,30.0,-5.0,
2022.0,2097.0,30.0,-5.0,
2059.0,2066.0,30.0,-5.0,
2059.0,2107.0,30.0,-5.0,
2079.0,2114.0,30.0,-5.0,
2100.0,2096.0,30.0,-5.0,
2091.0,2090.0,31.0,-5.0,
2068.0,2087.0,31.0,-5.0,
2059.0,2142.0,0,
2074.0,2130.0,31.0,-5.0,
2041.0,2106.0,31.0,-5.0,
2022.0,2124.0,31.0,-5.0,
2068.0,2128.0,31.0,-5.0,
2074.0,2073.0,31.0,-5.0,
2046.0,2040.0,31.0,-5.0,
2106.0,2026.0,31.0,-5.0,
2099.0,2074.0,31.0,-5.0,
2035.0,2092.0,32.0,-5.0,
2067.0,2043.0,32.0,-5.0,
2060.0,2130.0,32.0,-5.0,
2129.0,2123.0,32.0,-5.0,
2125.0,2140.0,32.0,-5.0,
2120.0,2148.0,32.0,-5.0,
2072.0,2065.0,32.0,-5.0,
2010.0,1968.0,32.0,-5.0,
2027.0,2039.0,32.0,-5.0,
1990.0,2047.0,32.0,-5.0,
1971.0,2120.0,32.0,-5.0,
2035.0,2114.0,32.0,-5.0,
2076.0,2096.0,32.0,-5.0,
2130.0,2120.0,32.0,-5.0,
2167.0,2122.0,32.0,-5.0,
2154.0,2077.0,32.0,-5.0,
2079.0,2105.0,32.0,-5.0,
2092.0,2153.0,31.0,-5.0,
2102.0,2226.0,31.0,-5.0,
2030.0,2122.0,31.0,-4.0,
2055.0,1992.0,31.0,-4.0,
2044.0,1981.0,31.0,-4.0,
2037.0,2083.0,31.0,-5.0,
2036.0,2111.0,31.0,-5.0,
2011.0,2071.0,31.0,-5.0,
2026.0,2094.0,31.0,-5.0,
2112.0,2120.0,31.0,-5.0,
2098.0,2117.0,31.0,-5.0,
2092.0,2115.0,31.0,-5.0,
2074.0,2106.0,31.0,-5.0,
2117.0,2132.0,31.0,-5.0,
2103.0,2121.0,31.0,-5.0,
2081.0,2119.0,31.0,-5.0,
2073.0,2118.0,31.0,-5.0,
2074.0,2104.0,31.0,-5.0,
2026.0,2118.0,31.0,-5.0,
2028.0,2099.0,31.0,-5.0,
2030.0,2098.0,31.0,-5.0,
2049.0,2097.0,31.0,-5.0,
2091.0,2081.0,31.0,-5.0,
2136.0,2087.0,32.0,-5.0,
2125.0,2097.0,32.0,-5.0,
2081.0,2090.0,32.0,-5.0,
2040.0,2074.0,32.0,-5.0,
2008.0,2088.0,32.0,-5.0,
2060.0,2075.0,32.0,-5.0,
2039.0,2073.0,32.0,-5.0,
2082.0,2071.0,32.0,-5.0,
2125.0,2127.0,33.0,-5.0,
2126.0,2094.0,33.0,-5.0,
2067.0,2126.0,33.0,-5.0,
2083.0,2159.0,33.0,-5.0,
2034.0,2038.0,33.0,-5.0,
2090.0,2070.0,33.0,-5.0,
2045.0,2073.0,33.0,-5.0,
2043.0,2048.0,34.0,-5.0,
2064.0,2062.0,34.0,-5.0,
2128.0,2101.0,34.0,-5.0,
2090.0,2098.0,34.0,-5.0,
2067.0,2145.0,34.0,-5.0,
2032.0,2109.0,34.0,-5.0,
2019.0,2030.0,35.0,-5.0,
2031.0,2078.0,35.0,-5.0,
2072.0,2122.0,35.0,-5.0,
2113.0,2156.0,35.0,-4.0,
2064.0,2068.0,35.0,-4.0,
2096.0,2051.0,35.0,-4.0,
2122.0,2106.0,35.0,-4.0,
2100.0,2009.0,35.0,-4.0,
2074.0,2151.0,35.0,-5.0,
2096.0,2242.0,35.0,-4.0,
2100.0,2093.0,35.0,-4.0,
2003.0,2011.0,35.0,-4.0,
2030.0,2055.0,35.0,-4.0,
2058.0,2070.0,35.0,-5.0,
2048.0,2062.0,35.0,-5.0,
2059.0,2112.0,35.0,-5.0,
2083.0,2106.0,35.0,-5.0,
2043.0,2102.0,35.0,-5.0,
2033.0,2119.0,35.0,-4.0,
2035.0,2122.0,34.0,-4.0,
2069.0,2116.0,34.0,-4.0,
2076.0,2119.0,34.0,-4.0,
2096.0,2126.0,34.0,-4.0,
2085.0,2128.0,34.0,-4.0,
2081.0,2108.0,34.0,-4.0,
2070.0,2108.0,34.0,-4.0,
2062.0,2101.0,34.0,-5.0,
2046.0,2089.0,34.0,-5.0,
2067.0,2088.0,34.0,-5.0,
2076.0,2084.0,34.0,-5.0,
2089.0,2094.0,34.0,-5.0,
2098.0,2107.0,34.0,-5.0,
2091.0,2122.0,33.0,-5.0,
2051.0,2103.0,33.0,-5.0,
2041.0,2139.0,34.0,-5.0,
2041.0,2015.0,34.0,-5.0,
2050.0,2076.0,34.0,-5.0,
2085.0,2063.0,34.0,-5.0,
2099.0,2113.0,34.0,-5.0,
2099.0,2136.0,34.0,-5.0,
2058.0,2090.0,34.0,-5.0,
2087.0,2062.0,34.0,-5.0,
2087.0,2066.0,34.0,-5.0,
2059.0,2080.0,35.0,-5.0,
2092.0,2106.0,35.0,-5.0,
2060.0,2061.0,35.0,-5.0,
2058.0,2074.0,35.0,-5.0,
2097.0,2076.0,35.0,-5.0,
2081.0,2106.0,35.0,-5.0,
2095.0,2127.0,35.0,-5.0,
2090.0,2167.0,36.0,-5.0,
2052.0,2097.0,36.0,-5.0,
2048.0,2067.0,36.0,-5.0,
2043.0,2102.0,36.0,-5.0,
2054.0,2147.0,36.0,-5.0,
2088.0,2112.0,36.0,-5.0,
2074.0,1955.0,36.0,-5.0,
2089.0,2067.0,36.0,-5.0,
2085.0,2100.0,36.0,-5.0,
2206.0,2144.0,36.0,-5.0,
2083.0,2036.0,36.0,-5.0,
2050.0,2063.0,36.0,-5.0,
2052.0,2133.0,36.0,-5.0,
2094.0,2105.0,36.0,-5.0,
2095.0,2126.0,36.0,-5.0,
2082.0,2083.0,36.0,-4.0,
2090.0,2131.0,36.0,-4.0,
2067.0,2121.0,36.0,-4.0,
2029.0,2054.0,35.0,-4.0,
2005.0,2079.0,35.0,-4.0,
2040.0,2085.0,35.0,-4.0,
2024.0,2054.0,35.0,-4.0,
2069.0,2047.0,35.0,-4.0,
2096.0,2117.0,34.0,-4.0,
2117.0,2138.0,34.0,-4.0,
2100.0,2091.0,34.0,-4.0,
2105.0,2100.0,34.0,-4.0,
2088.0,2119.0,33.0,-4.0,
2063.0,2096.0,33.0,-4.0,
2039.0,2059.0,33.0,-4.0,
2048.0,2100.0,33.0,-4.0,
2034.0,2089.0,32.0,-4.0,
2063.0,2106.0,32.0,-5.0,
2097.0,2116.0,32.0,-5.0,
2101.0,2114.0,32.0,-5.0,
2062.0,2110.0,31.0,-5.0,
2072.0,2120.0,31.0,-5.0,
2052.0,2103.0,31.0,-5.0,
2049.0,2086.0,31.0,-5.0,
2066.0,2082.0,31.0,-5.0,
2107.0,2086.0,0,
2093.0,2089.0,30.0,-5.0,
2085.0,2121.0,30.0,-5.0,
2077.0,2082.0,30.0,-5.0,
2079.0,2099.0,30.0,-5.0,
2030.0,2104.0,30.0,-5.0,
2024.0,2112.0,30.0,-6.0,
2010.0,2110.0,30.0,-6.0,
2004.0,2108.0,30.0,-6.0,
2050.0,2078.0,30.0,-6.0,
2111.0,2088.0,30.0,-6.0,
2128.0,2090.0,30.0,-6.0,
2167.0,2110.0,30.0,-6.0,
2128.0,2081.0,30.0,-6.0,
2057.0,2086.0,30.0,-5.0,
2109.0,2117.0,0,
2061.0,2069.0,30.0,-5.0,
2093.0,2067.0,30.0,-5.0,
2082.0,2062.0,30.0,-5.0,
2104.0,2098.0,30.0,-5.0,
2095.0,2084.0,30.0,-5.0,
2081.0,2107.0,31.0,-5.0,
2115.0,2108.0,31.0,-5.0,
2054.0,2112.0,31.0,-5.0,
2056.0,2119.0,31.0,-5.0,
2065.0,2157.0,31.0,-5.0,
2089.0,2173.0,31.0,-5.0,
2067.0,2132.0,32.0,-5.0,
2081.0,1964.0,32.0,-5.0,
2079.0,2081.0,32.0,-5.0,
2064.0,2058.0,0,
2038.0,2073.0,32.0,-5.0,
2056.0,2098.0,33.0,-5.0,
2049.0,2108.0,33.0,-5.0,
2048.0,2092.0,33.0,-5.0,
2055.0,2094.0,33.0,-5.0,
2063.0,2126.0,33.0,-5.0,
2093.0,2155.0,33.0,-5.0,
2101.0,2087.0,33.0,-5.0,
2088.0,2111.0,34.0,-5.0,
2043.0,2075.0,34.0,-5.0,
2081.0,2125.0,34.0,-5.0,
2046.0,2100.0,34.0,-5.0,
2024.0,2018.0,34.0,-5.0,
2038.0,2079.0,34.0,-5.0,
2066.0,2053.0,34.0,-5.0,
2105.0,2110.0,34.0,-5.0,
2069.0,2095.0,34.0,-5.0,
2085.0,2123.0,34.0,-5.0,
2077.0,2125.0,34.0,-5.0,
2092.0,2114.0,34.0,-5.0,
2057.0,2062.0,34.0,-5.0,
2062.0,2095.0,34.0,-5.0,
2087.0,2130.0,33.0,-5.0,
2094.0,2144.0,33.0,-5.0,
2084.0,2105.0,33.0,-5.0,
2104.0,2155.0,33.0,-5.0,
2053.0,2017.0,33.0,-5.0,
2020.0,2064.0,33.0,-5.0,
2044.0,2126.0,33.0,-5.0,
2072.0,2079.0,33.0,-5.0,
2088.0,2031.0,33.0,-5.0,
2104.0,2086.0,33.0,-5.0,
2080.0,2094.0,33.0,-5.0,
2129.0,2182.0,33.0,-5.0,
2152.0,2191.0,33.0,-5.0,
2019.0,1962.0,33.0,-5.0,
2029.0,2057.0,33.0,-5.0,
2074.0,2020.0,33.0,-5.0,
2079.0,2063.0,33.0,-5.0,
2078.0,2077.0,33.0,-5.0,
2099.0,2180.0,33.0,-5.0,
2063.0,2149.0,33.0,-5.0,
2082.0,2102.0,33.0,-5.0,
2027.0,2105.0,33.0,-5.0,
2061.0,2111.0,33.0,-5.0,
2055.0,2089.0,33.0,-5.0,
2111.0,2075.0,33.0,-5.0,
2103.0,2101.0,33.0,-5.0,
2145.0,2122.0,33.0,-5.0,
2118.0,2111.0,33.0,-5.0,
2070.0,2101.0,33.0,-5.0,
2075.0,2071.0,33.0,-5.0,
2094.0,2093.0,33.0,-5.0,
2055.0,2064.0,33.0,-5.0,
2050.0,2087.0,33.0,-5.0,
2033.0,2070.0,33.0,-5.0,
2053.0,2092.0,33.0,-5.0,
2072.0,2100.0,33.0,-5.0,
2056.0,2090.0,33.0,-5.0,
2070.0,2119.0,33.0,-5.0,
2048.0,2073.0,33.0,-5.0,
2066.0,2102.0,33.0,-5.0,
2070.0,2058.0,33.0,-5.0,
2037.0,2069.0,33.0,-5.0,
2080.0,2109.0,33.0,-5.0,
2071.0,2096.0,33.0,-5.0,
2066.0,2115.0,33.0,-5.0,
2086.0,2102.0,33.0,-5.0,
2097.0,2094.0,33.0,-5.0,
2053.0,2109.0,33.0,-5.0,
2068.0,2142.0,33.0,-5.0,
2083.0,2129.0,33.0,-5.0,
2045.0,2133.0,33.0,-5.0,
2041.0,2053.0,33.0,-5.0,
2031.0,2087.0,33.0,-5.0,
2096.0,2125.0,32.0,-5.0,
2126.0,2098.0,33.0,-5.0,
2096.0,2085.0,33.0,-5.0,
2056.0,2076.0,32.0,-5.0,
2058.0,2068.0,32.0,-5.0,
2074.0,2082.0,33.0,-5.0,
2081.0,2084.0,32.0,-5.0,
2080.0,2104.0,33.0,-5.0,
2086.0,2102.0,32.0,-5.0,
2076.0,2121.0,33.0,-5.0,
2063.0,2115.0,32.0,-5.0,
2084.0,2124.0,32.0,-5.0,
2081.0,2096.0,32.0,-5.0,
2037.0,2058.0,32.0,-5.0,
2036.0,2057.0,33.0,-5.0,
2054.0,2104.0,33.0,-5.0,
2067.0,2072.0,33.0,-5.0,
2076.0,2085.0,33.0,-5.0,
2105.0,2121.0,33.0,-5.0,
2122.0,2112.0,33.0,-5.0,
2076.0,2120.0,33.0,-5.0,
2043.0,2127.0,33.0,-5.0,
2026.0,2072.0,33.0,-5.0,
2061.0,2069.0,33.0,-5.0,
2081.0,2110.0,33.0,-5.0,
2118.0,2097.0,33.0,-5.0,
2123.0,2068.0,33.0,-5.0,
2102.0,2086.0,33.0,-5.0,
2061.0,2063.0,33.0,-5.0,
2056.0,2074.0,33.0,-5.0,
2062.0,2073.0,33.0,-5.0,
2083.0,2097.0,33.0,-5.0,
2083.0,2113.0,33.0,-5.0,
2074.0,2104.0,33.0,-5.0,
2074.0,2107.0,33.0,-5.0,
2083.0,2106.0,33.0,-5.0,
2096.0,2121.0,33.0,-5.0,
2080.0,2118.0,33.0,-5.0,
2068.0,2112.0,33.0,-5.0,
2069.0,2102.0,33.0,-5.0,
2086.0,2105.0,33.0,-5.0,
2078.0,2106.0,33.0,-5.0,
2073.0,2058.0,33.0,-5.0,
2062.0,2100.0,33.0,-5.0,
2082.0,2096.0,33.0,-5.0,
2076.0,2174.0,33.0,-5.0,
2045.0,2096.0,33.0,-5.0,
2025.0,2013.0,33.0,-5.0,
2076.0,2050.0,33.0,-5.0,
2051.0,2050.0,33.0,-5.0,
2069.0,2063.0,33.0,-5.0,
2094.0,2133.0,33.0,-5.0,
2120.0,2119.0,33.0,-5.0,
2117.0,2105.0,33.0,-5.0,
2089.0,2098.0,33.0,-5.0,
2082.0,2128.0,33.0,-5.0,
2084.0,2108.0,33.0,-5.0,
1997.0,2083.0,33.0,-5.0,
2026.0,2028.0,33.0,-5.0,
2066.0,2093.0,33.0,-5.0,
2099.0,2118.0,33.0,-5.0,
2088.0,2078.0,33.0,-5.0,
2090.0,2116.0,33.0,-5.0,
2083.0,2120.0,33.0,-5.0,
2055.0,2114.0,33.0,-5.0,
2032.0,2102.0,33.0,-5.0,
2037.0,2107.0,33.0,-5.0,
2013.0,2097.0,33.0,-5.0,
2089.0,2089.0,33.0,-5.0,
2101.0,2103.0,33.0,-5.0,
2093.0,2098.0,33.0,-5.0,
2094.0,2077.0,33.0,-5.0,
2111.0,2094.0,33.0,-5.0,
2074.0,2089.0,33.0,-5.0,
2042.0,2105.0,33.0,-5.0,
2048.0,2141.0,33.0,-5.0,
2063.0,2122.0,33.0,-5.0,
2061.0,2094.0,33.0,-5.0,
2070.0,2061.0,33.0,-5.0,
2081.0,2084.0,33.0,-5.0,
2118.0,2084.0,33.0,-5.0,
2090.0,2071.0,33.0,-5.0,
2064.0,2089.0,33.0,-5.0,
2058.0,2101.0,33.0,-5.0,
2066.0,2106.0,33.0,-5.0,
2071.0,2095.0,33.0,-5.0,
2058.0,2104.0,33.0,-5.0,
2085.0,2103.0,33.0,-5.0,
2102.0,2116.0,33.0,-5.0,
2081.0,2107.0,33.0,-5.0,
2046.0,2106.0,33.0,-5.0,
2021.0,2086.0,33.0,-5.0,
2030.0,2105.0,33.0,-5.0,
2065.0,2090.0,33.0,-5.0,
2114.0,2140.0,33.0,-5.0,
2112.0,2137.0,33.0,-5.0,
2052.0,2054.0,33.0,-5.0,
2046.0,2092.0,33.0,-5.0,
2020.0,2050.0,33.0,-5.0,
2094.0,2101.0,33.0,-5.0,
2065.0,2028.0,33.0,-5.0,
2125.0,2123.0,33.0,-5.0,
2080.0,2058.0,33.0,-5.0,
2082.0,2058.0,33.0,-5.0,
2060.0,2056.0,33.0,-5.0,
2117.0,2102.0,33.0,-5.0,
2131.0,2104.0,33.0,-5.0,
2097.0,2123.0,33.0,-5.0,
2061.0,2106.0,33.0,-5.0,
2053.0,2116.0,33.0,-5.0,
2048.0,2084.0,33.0,-5.0,
2053.0,2098.0,33.0,-5.0,
2063.0,2115.0,33.0,-5.0,
2081.0,2104.0,33.0,-5.0,
2074.0,2099.0,33.0,-5.0,
2072.0,2098.0,33.0,-5.0,
2069.0,2116.0,33.0,-5.0,
2060.0,2113.0,33.0,-5.0,
2049.0,2101.0,33.0,-5.0,
2049.0,2086.0,33.0,-5.0,
2060.0,2099.0,33.0,-5.0,
2063.0,2099.0,33.0,-5.0,
2071.0,2087.0,33.0,-5.0,
2087.0,2099.0,33.0,-5.0,
2069.0,2104.0,33.0,-5.0,
2055.0,2122.0,33.0,-5.0,
2121.0,2105.0,33.0,-5.0,
2077.0,2125.0,33.0,-5.0,
2053.0,2067.0,33.0,-5.0,
2078.0,2056.0,33.0,-5.0,
2074.0,2069.0,33.0,-5.0,
2069.0,2096.0,33.0,-5.0,
2068.0,2049.0,33.0,-5.0,
2038.0,2069.0,33.0,-5.0,
2042.0,2062.0,33.0,-5.0,
2060.0,2078.0,33.0,-5.0,
2092.0,2124.0,33.0,-5.0,
2131.0,2103.0,33.0,-5.0,
2091.0,2093.0,33.0,-5.0,
2126.0,2068.0,33.0,-5.0,
2106.0,2092.0,33.0,-5.0,
2108.0,2099.0,33.0,-5.0,
2088.0,2097.0,33.0,-5.0,
2069.0,2105.0,33.0,-5.0,
2065.0,2123.0,33.0,-5.0,
2062.0,2116.0,33.0,-5.0,
2057.0,2104.0,33.0,-5.0,
2068.0,2088.0,33.0,-5.0,
2078.0,2099.0,33.0,-5.0,
2062.0,2099.0,33.0,-5.0,
2054.0,2114.0,33.0,-5.0,
2066.0,2120.0,33.0,-5.0,
2061.0,2124.0,33.0,-5.0,
2080.0,2125.0,33.0,-5.0,
2085.0,2162.0,33.0,-5.0,
2065.0,2096.0,33.0,-5.0,
2044.0,2025.0,33.0,-5.0,
2060.0,2038.0,33.0,-5.0,
2095.0,2100.0,33.0,-5.0,
2116.0,2080.0,33.0,-5.0,
2095.0,2073.0,33.0,-5.0,
2051.0,2060.0,33.0,-5.0,
2069.0,2075.0,33.0,-5.0,
2049.0,2080.0,33.0,-5.0,
2097.0,2087.0,33.0,-5.0,
2078.0,2115.0,33.0,-5.0,
2084.0,2117.0,33.0,-5.0,
2077.0,2118.0,33.0,-5.0,
2080.0,2115.0,33.0,-5.0,
2053.0,2103.0,33.0,-5.0,
2073.0,2104.0,33.0,-5.0,
2076.0,2107.0,33.0,-5.0,
2082.0,2105.0,33.0,-5.0,
2103.0,2116.0,33.0,-5.0,
2091.0,2123.0,33.0,-5.0,
2079.0,2093.0,33.0,-5.0,
2080.0,2098.0,33.0,-5.0,
2084.0,2090.0,33.0,-5.0,
2047.0,2061.0,33.0,-5.0,
2044.0,2111.0,33.0,-5.0,
2026.0,2100.0,33.0,-5.0,
2018.0,2107.0,33.0,-5.0,
2038.0,2103.0,33.0,-5.0,
2075.0,2155.0,33.0,-5.0,
2114.0,2165.0,33.0,-5.0,
2107.0,1996.0,33.0,-5.0,
2062.0,2045.0,33.0,-5.0,
2026.0,2013.0,33.0,-5.0,
2058.0,2060.0,33.0,-5.0,
2089.0,2076.0,33.0,-5.0,
2188.0,2096.0,33.0,-5.0,
2143.0,2114.0,33.0,-5.0,
2072.0,2083.0,33.0,-5.0,
2103.0,2074.0,33.0,-5.0,
2084.0,2112.0,33.0,-5.0,
2047.0,2083.0,33.0,-5.0,
2059.0,2130.0,33.0,-5.0,
2055.0,2115.0,33.0,-5.0,
2037.0,2104.0,33.0,-5.0,
2070.0,2103.0,33.0,-5.0,
2067.0,2110.0,33.0,-5.0,
2070.0,2125.0,33.0,-5.0,
2078.0,2123.0,33.0,-5.0,
2053.0,2114.0,33.0,-5.0,
2074.0,2142.0,33.0,-5.0,
2065.0,2092.0,33.0,-5.0,
2032.0,2068.0,33.0,-5.0,
2057.0,2098.0,33.0,-5.0,
2065.0,2107.0,33.0,-5.0,
2068.0,2109.0,33.0,-5.0,
2071.0,2142.0,33.0,-5.0,
2071.0,2118.0,33.0,-5.0,
2073.0,2079.0,33.0,-5.0,
2051.0,2063.0,33.0,-5.0,
2073.0,2078.0,33.0,-5.0,
2092.0,2122.0,33.0,-5.0,
2130.0,2095.0,33.0,-5.0,
2092.0,2052.0,33.0,-5.0,
2035.0,2040.0,33.0,-5.0,
2088.0,2088.0,33.0,-5.0,
2080.0,2105.0,33.0,-5.0,
2070.0,2101.0,33.0,-5.0,
2050.0,2101.0,33.0,-5.0,
2045.0,2069.0,33.0,-5.0,
2068.0,2091.0,33.0,-5.0,
2059.0,2113.0,33.0,-5.0,
2091.0,2125.0,0,
2086.0,2103.0,33.0,-5.0,
2121.0,2124.0,33.0,-5.0,
2086.0,2085.0,33.0,-5.0,
2064.0,2083.0,33.0,-5.0,
2055.0,2107.0,33.0,-5.0,
2053.0,2113.0,33.0,-5.0,
2046.0,2103.0,33.0,-5.0,
2053.0,2054.0,33.0,-5.0,
2088.0,2097.0,33.0,-5.0,
2137.0,2099.0,33.0,-5.0,
2120.0,2117.0,33.0,-5.0,
2084.0,2099.0,33.0,-5.0,
2069.0,2095.0,33.0,-5.0,
2063.0,2045.0,33.0,-5.0,
2078.0,2123.0,33.0,-5.0,
2083.0,2051.0,33.0,-5.0,
2075.0,2094.0,33.0,-5.0,
2097.0,2103.0,33.0,-5.0,
2111.0,2079.0,33.0,-5.0,
2078.0,2095.0,33.0,-5.0,
2029.0,2074.0,33.0,-5.0,
2028.0,2059.0,33.0,-5.0,
1998.0,2067.0,33.0,-5.0,
2026.0,2110.0,34.0,-5.0,
2087.0,2086.0,34.0,-5.0,
2092.0,2071.0,34.0,-5.0,
2088.0,2120.0,34.0,-5.0,
2064.0,2114.0,34.0,-5.0,
2047.0,2089.0,34.0,-5.0,
2073.0,2109.0,33.0,-5.0,
2065.0,2101.0,33.0,-5.0,
2042.0,2069.0,33.0,-5.0,
2039.0,2121.0,33.0,-5.0,
2057.0,2093.0,33.0,-5.0,
2078.0,2121.0,33.0,-5.0,
2118.0,2121.0,33.0,-5.0,
2115.0,2084.0,33.0,-5.0,
2086.0,2101.0,33.0,-5.0,
2110.0,2111.0,33.0,-5.0,
2078.0,2083.0,33.0,-5.0,
2049.0,2131.0,33.0,-5.0,
2074.0,2084.0,33.0,-5.0,
2048.0,2051.0,33.0,-5.0,
2078.0,2045.0,33.0,-5.0,
2087.0,2097.0,33.0,-5.0,
2088.0,2104.0,33.0,-5.0,
2093.0,2105.0,33.0,-5.0,
2092.0,2087.0,33.0,-5.0,
2065.0,2096.0,33.0,-5.0,
2048.0,2094.0,33.0,-5.0,
2043.0,2078.0,33.0,-5.0,
2067.0,2120.0,33.0,-5.0,
2094.0,2137.0,33.0,-5.0,
2121.0,2077.0,33.0,-5.0,
2074.0,2083.0,33.0,-5.0,
2058.0,2108.0,33.0,-5.0,
2087.0,2101.0,33.0,-5.0,
2083.0,2096.0,33.0,-5.0,
2075.0,2106.0,33.0,-5.0,
2050.0,2088.0,33.0,-5.0,
2089.0,2098.0,33.0,-5.0,
2078.0,2117.0,33.0,-5.0,
2073.0,2119.0,33.0,-5.0,
2088.0,2079.0,33.0,-5.0,
2061.0,2106.0,33.0,-5.0,
2052.0,2106.0,33.0,-5.0,
2046.0,2093.0,33.0,-5.0,
2081.0,2104.0,33.0,-5.0,
2068.0,2049.0,33.0,-5.0,
2096.0,2078.0,33.0,-5.0,
2097.0,2124.0,33.0,-5.0,
2088.0,2110.0,33.0,-5.0,
2055.0,2103.0,33.0,-5.0,
2039.0,2102.0,33.0,-5.0,
2012.0,2081.0,33.0,-5.0,
2056.0,2071.0,33.0,-5.0,
2020.0,2037.0,33.0,-5.0,
2117.0,2103.0,33.0,-5.0,
2109.0,2115.0,34.0,-5.0,
2068.0,2072.0,34.0,-5.0,
2118.0,2096.0,34.0,-5.0,
2063.0,2058.0,33.0,-5.0,
2028.0,2095.0,33.0,-5.0,
2061.0,2132.0,33.0,-5.0,
2124.0,2160.0,33.0,-5.0,
2072.0,2037.0,33.0,-5.0,
2104.0,2072.0,33.0,-5.0,
2119.0,2096.0,33.0,-5.0,
2069.0,2104.0,33.0,-5.0,
2060.0,2100.0,33.0,-5.0,
2058.0,2124.0,33.0,-5.0,
2080.0,2102.0,33.0,-5.0,
2050.0,2087.0,33.0,-5.0,
2042.0,2123.0,33.0,-5.0,
2042.0,2096.0,33.0,-5.0,
2098.0,2120.0,33.0,-5.0,
2069.0,2102.0,33.0,-5.0,
2064.0,2097.0,33.0,-5.0,
2081.0,2097.0,33.0,-5.0,
2100.0,2078.0,33.0,-5.0,
2050.0,2088.0,33.0,-5.0,
2052.0,2100.0,33.0,-5.0,
2063.0,2096.0,33.0,-5.0,
2057.0,2094.0,33.0,-5.0,
2075.0,2105.0,33.0,-5.0,
2081.0,2098.0,33.0,-5.0,
2073.0,2101.0,33.0,-5.0,
2059.0,2102.0,33.0,-5.0,
2036.0,2098.0,33.0,-5.0,
2052.0,2100.0,34.0,-5.0,
2039.0,2080.0,34.0,-5.0,
2058.0,2096.0,34.0,-5.0,
2077.0,2122.0,34.0,-5.0,
2090.0,2107.0,34.0,-5.0,
2095.0,2096.0,34.0,-5.0,
2087.0,2096.0,34.0,-5.0,
2081.0,2094.0,34.0,-5.0,
2061.0,2044.0,34.0,-5.0,
2054.0,2093.0,34.0,-5.0,
2064.0,2071.0,34.0,-5.0,
2108.0,2070.0,34.0,-5.0,
2103.0,2085.0,34.0,-5.0,
2119.0,2114.0,34.0,-5.0,
2088.0,2118.0,34.0,-5.0,
2037.0,2131.0,34.0,-5.0,
2062.0,2102.0,34.0,-5.0,
2044.0,2047.0,34.0,-5.0,
2093.0,2087.0,34.0,-5.0,
2131.0,2092.0,34.0,-5.0,
2126.0,2115.0,34.0,-5.0,
2136.0,2182.0,34.0,-5.0,
2096.0,2113.0,34.0,-5.0,
2040.0,2033.0,34.0,-5.0,
2065.0,2107.0,34.0,-5.0,
2046.0,2072.0,34.0,-5.0,
2062.0,2100.0,34.0,-5.0,
2026.0,2064.0,34.0,-5.0,
2051.0,2095.0,34.0,-5.0,
2054.0,2047.0,34.0,-5.0,
2053.0,2111.0,34.0,-5.0,
2061.0,2105.0,34.0,-5.0,
2080.0,2023.0,0,
2063.0,2086.0,34.0,-5.0,
2078.0,2127.0,34.0,-5.0,
2048.0,2111.0,34.0,-5.0,
2017.0,2062.0,34.0,-5.0,
2075.0,2093.0,34.0,-5.0,
2084.0,2111.0,34.0,-5.0,
2091.0,2111.0,33.0,-5.0,
2076.0,2125.0,33.0,-5.0,
2061.0,2105.0,33.0,-5.0,
2062.0,2101.0,33.0,-5.0,
2057.0,2094.0,33.0,-5.0,
2084.0,2100.0,33.0,-5.0,
2100.0,2118.0,33.0,-5.0,
2112.0,2138.0,33.0,-5.0,
2092.0,2123.0,33.0,-5.0,
2053.0,2088.0,33.0,-5.0,
2072.0,2101.0,33.0,-5.0,
2046.0,2097.0,33.0,-5.0,
2036.0,2091.0,33.0,-5.0,
2051.0,2101.0,33.0,-5.0,
2103.0,2092.0,33.0,-5.0,
2055.0,2118.0,33.0,-5.0,
2078.0,2085.0,33.0,-5.0,
2024.0,2047.0,33.0,-5.0,
2070.0,2062.0,33.0,-5.0,
2102.0,2083.0,33.0,-5.0,
2089.0,2107.0,33.0,-5.0,
2070.0,2080.0,33.0,-5.0,
2071.0,2057.0,33.0,-5.0,
2067.0,2056.0,33.0,-5.0,
2076.0,2067.0,33.0,-5.0,
2090.0,2114.0,33.0,-5.0,
2067.0,2099.0,33.0,-5.0,
2106.0,2137.0,33.0,-5.0,
2109.0,2080.0,33.0,-5.0,
2045.0,2071.0,33.0,-5.0,
2019.0,2120.0,33.0,-5.0,
2050.0,2114.0,33.0,-5.0,
2048.0,2081.0,33.0,-5.0,
2069.0,2133.0,33.0,-5.0,
2100.0,2106.0,33.0,-5.0,
2100.0,2120.0,33.0,-5.0,
2068.0,2089.0,33.0,-5.0,
2046.0,2081.0,33.0,-5.0,
2086.0,2079.0,34.0,-5.0,
2051.0,2088.0,34.0,-5.0,
2044.0,2099.0,34.0,-5.0,
2065.0,2105.0,34.0,-5.0,
2114.0,2133.0,34.0,-5.0,
2085.0,2098.0,34.0,-5.0,
2065.0,2099.0,34.0,-5.0,
2076.0,2110.0,34.0,-5.0,
2105.0,2166.0,34.0,-5.0,
2052.0,2134.0,34.0,-5.0,
2032.0,2012.0,34.0,-5.0,
2040.0,2066.0,34.0,-5.0,
2072.0,2049.0,34.0,-5.0,
2103.0,2106.0,34.0,-5.0,
2081.0,2072.0,34.0,-5.0,
2102.0,2118.0,34.0,-5.0,
2086.0,2118.0,34.0,-5.0,
2058.0,2074.0,34.0,-5.0,
2046.0,2084.0,34.0,-5.0,
2049.0,2062.0,34.0,-5.0,
2067.0,2100.0,34.0,-5.0,
2081.0,2102.0,34.0,-5.0,
2070.0,2102.0,34.0,-5.0,
2070.0,2106.0,34.0,-5.0,
2115.0,2178.0,34.0,-5.0,
2091.0,2132.0,34.0,-5.0,
2043.0,2011.0,34.0,-5.0,
2014.0,2066.0,34.0,-5.0,
2027.0,2094.0,34.0,-5.0,
2046.0,2122.0,34.0,-5.0,
2057.0,2066.0,34.0,-5.0,
2063.0,2042.0,34.0,-5.0,
2124.0,2170.0,34.0,-5.0,
2147.0,2198.0,34.0,-5.0,
2109.0,2132.0,34.0,-5.0,
2065.0,2003.0,34.0,-5.0,
2000.0,2070.0,34.0,-5.0,
2055.0,2075.0,34.0,-5.0,
2083.0,2106.0,34.0,-5.0,
2070.0,2135.0,34.0,-5.0,
2044.0,2112.0,34.0,-5.0,
2041.0,2040.0,34.0,-5.0,
2093.0,2102.0,33.0,-5.0,
2082.0,2074.0,33.0,-5.0,
2092.0,2110.0,33.0,-5.0,
2063.0,2058.0,33.0,-5.0,
2058.0,2069.0,33.0,-5.0,
2097.0,2090.0,33.0,-5.0,
2086.0,2109.0,33.0,-5.0,
2076.0,2167.0,33.0,-5.0,
2097.0,2101.0,33.0,-5.0,
2060.0,2037.0,33.0,-5.0,
2042.0,2059.0,33.0,-5.0,
2068.0,2091.0,0,
2035.0,2104.0,33.0,-5.0,
2093.0,2111.0,33.0,-5.0,
2135.0,2074.0,33.0,-5.0,
2070.0,2097.0,33.0,-5.0,
2074.0,2103.0,33.0,-5.0,
2025.0,2075.0,33.0,-5.0,
2043.0,2097.0,34.0,-5.0,
2068.0,2090.0,34.0,-5.0,
2088.0,2109.0,34.0,-5.0,
2150.0,2114.0,34.0,-5.0,
2173.0,2113.0,34.0,-5.0,
2155.0,2116.0,34.0,-5.0,
2124.0,2114.0,34.0,-5.0,
2098.0,2145.0,34.0,-5.0,
2096.0,2150.0,34.0,-5.0,
2009.0,2080.0,34.0,-5.0,
2039.0,2015.0,34.0,-5.0,
2026.0,2061.0,34.0,-5.0,
1959.0,2105.0,34.0,-5.0,
2060.0,2100.0,34.0,-5.0,
2134.0,2088.0,34.0,-5.0,
2072.0,2030.0,34.0,-5.0,
2014.0,1952.0,34.0,-5.0,
2011.0,2170.0,34.0,-5.0,
2038.0,2140.0,34.0,-5.0,
2051.0,2106.0,34.0,-5.0,
2142.0,2127.0,33.0,-5.0,
2106.0,2163.0,33.0,-5.0,
2046.0,2082.0,33.0,-5.0,
2068.0,2101.0,33.0,-5.0,
2069.0,2142.0,33.0,-5.0,
2073.0,2097.0,33.0,-5.0,
2091.0,2097.0,33.0,-5.0,
2022.0,2083.0,33.0,-5.0,
2060.0,2091.0,33.0,-5.0,
2093.0,2106.0,33.0,-5.0,
2080.0,2064.0,33.0,-5.0,
2024.0,2072.0,33.0,-5.0,
2036.0,2079.0,33.0,-5.0,
2113.0,2100.0,33.0,-5.0,
2160.0,2147.0,33.0,-5.0,
2130.0,2077.0,33.0,-5.0,
2079.0,2081.0,33.0,-5.0,
2095.0,2125.0,33.0,-5.0,
2049.0,2076.0,33.0,-5.0,
2070.0,2079.0,33.0,-5.0,
2100.0,1972.0,33.0,-5.0,
2089.0,2054.0,33.0,-5.0,
2083.0,2097.0,33.0,-5.0,
2055.0,2095.0,33.0,-5.0,
2048.0,2049.0,33.0,-5.0,
2014.0,2103.0,33.0,-5.0,
2013.0,2146.0,33.0,-5.0,
2091.0,2162.0,33.0,-5.0,
2004.0,2141.0,33.0,-5.0,
2041.0,2045.0,33.0,-5.0,
2114.0,2135.0,33.0,-5.0,
2068.0,2120.0,33.0,-5.0,
2149.0,2025.0,33.0,-5.0,
