2089.0,2144.0,37.0,-4.0,
2150.0,2106.0,37.0,-4.0,
2085.0,2061.0,37.0,-4.0,
2117.0,2101.0,37.0,-4.0,
2113.0,2134.0,37.0,-4.0,
2054.0,2039.0,37.0,-4.0,
2047.0,2052.0,37.0,-4.0,
2026.0,2052.0,37.0,-4.0,
2069.0,2059.0,0,
2069.0,2054.0,37.0,-4.0,
2094.0,2094.0,38.0,-4.0,
2071.0,2101.0,38.0,-4.0,
2078.0,2107.0,38.0,-4.0,
2060.0,2106.0,37.0,-4.0,
2069.0,2106.0,37.0,-4.0,
2063.0,2077.0,37.0,-4.0,
2043.0,2100.0,37.0,-4.0,
2049.0,2095.0,37.0,-4.0,
2072.0,2105.0,37.0,-4.0,
2081.0,2103.0,37.0,-4.0,
2076.0,2094.0,37.0,-4.0,
2065.0,2090.0,37.0,-4.0,
2078.0,2110.0,37.0,-4.0,
2091.0,2122.0,37.0,-4.0,
2044.0,2076.0,37.0,-4.0,
2057.0,2111.0,37.0,-4.0,
2068.0,2124.0,37.0,-4.0,
2037.0,2045.0,37.0,-4.0,
2078.0,2058.0,37.0,-4.0,
2070.0,2045.0,37.0,-4.0,
2080.0,2067.0,36.0,-4.0,
2073.0,2090.0,36.0,-4.0,
2077.0,2107.0,36.0,-4.0,
2058.0,2131.0,36.0,-4.0,
2050.0,2063.0,36.0,-4.0,
2061.0,2063.0,36.0,-4.0,
2074.0,2125.0,36.0,-4.0,
2080.0,2085.0,36.0,-4.0,
2079.0,2100.0,36.0,-4.0,
2077.0,2084.0,36.0,-4.0,
2044.0,2103.0,36.0,-4.0,
2055.0,2108.0,36.0,-4.0,
2058.0,2098.0,36.0,-4.0,
2052.0,2102.0,36.0,-4.0,
2081.0,2111.0,36.0,-4.0,
2066.0,2113.0,36.0,-4.0,
2039.0,2078.0,36.0,-4.0,
2031.0,2104.0,36.0,-4.0,
2043.0,2088.0,36.0,-4.0,
2107.0,2068.0,36.0,-4.0,
2136.0,2095.0,36.0,-4.0,
2075.0,2083.0,36.0,-5.0,
2086.0,2083.0,36.0,-5.0,
2081.0,2104.0,36.0,-5.0,
2084.0,2107.0,36.0,-5.0,
2082.0,2089.0,36.0,-5.0,
2120.0,2124.0,36.0,-5.0,
2104.0,2120.0,36.0,-5.0,
2037.0,2067.0,36.0,-5.0,
2026.0,2050.0,36.0,-5.0,
2080.0,2092.0,36.0,-5.0,
2095.0,2096.0,36.0,-5.0,
2065.0,2084.0,36.0,-5.0,
2077.0,2110.0,36.0,-5.0,
2077.0,2103.0,36.0,-5.0,
2074.0,2113.0,37.0,-5.0,
2059.0,2087.0,37.0,-5.0,
2030.0,2094.0,37.0,-5.0,
2030.0,2070.0,37.0,-5.0,
2057.0,2099.0,37.0,-5.0,
2056.0,2090.0,37.0,-5.0,
2053.0,2039.0,37.0,-5.0,
2106.0,2104.0,37.0,-5.0,
2095.0,2095.0,37.0,-5.0,
2075.0,2082.0,37.0,-5.0,
2073.0,2103.0,37.0,-5.0,
2055.0,2104.0,37.0,-5.0,
2071.0,2125.0,37.0,-5.0,
2040.0,2104.0,37.0,-5.0,
2060.0,2072.0,37.0,-5.0,
2079.0,2070.0,37.0,-5.0,
2086.0,2092.0,37.0,-5.0,
2106.0,2132.0,37.0,-5.0,
2096.0,2105.0,37.0,-5.0,
2038.0,2065.0,37.0,-5.0,
2025.0,2069.0,37.0,-5.0,
2049.0,2090.0,37.0,-5.0,
2053.0,2088.0,37.0,-5.0,
2077.0,2102.0,37.0,-5.0,
2092.0,2107.0,37.0,-5.0,
2087.0,2105.0,37.0,-5.0,
2067.0,2107.0,38.0,-5.0,
2085.0,2116.0,38.0,-5.0,
2055.0,2095.0,37.0,-5.0,
2047.0,2094.0,37.0,-5.0,
2045.0,2106.0,37.0,-5.0,
2064.0,2120.0,37.0,-5.0,
2065.0,2107.0,37.0,-5.0,
2074.0,2066.0,37.0,-5.0,
2082.0,2063.0,37.0,-5.0,
2073.0,2107.0,37.0,-5.0,
2065.0,2105.0,37.0,-4.0,
2051.0,2089.0,37.0,-5.0,
2039.0,2068.0,37.0,-4.0,
2060.0,2109.0,37.0,-4.0,
2078.0,2132.0,37.0,-4.0,
2056.0,2102.0,37.0,-4.0,
2091.0,2056.0,37.0,-4.0,
2076.0,2099.0,37.0,-4.0,
2060.0,2092.0,37.0,-4.0,
2062.0,2072.0,37.0,-4.0,
2058.0,2100.0,37.0,-4.0,
2065.0,2109.0,37.0,-4.0,
2038.0,2085.0,37.0,-4.0,
2075.0,2083.0,37.0,-4.0,
2140.0,2108.0,37.0,-4.0,
2090.0,2089.0,36.0,-4.0,
2095.0,2101.0,36.0,-4.0,
2082.0,2101.0,36.0,-4.0,
2075.0,2100.0,36.0,-4.0,
2087.0,2094.0,36.0,-4.0,
2067.0,2102.0,36.0,-4.0,
2076.0,2110.0,36.0,-4.0,
2086.0,2093.0,36.0,-5.0,
2101.0,2110.0,36.0,-5.0,
2089.0,2110.0,36.0,-5.0,
2087.0,2110.0,36.0,-5.0,
2062.0,2100.0,36.0,-5.0,
2059.0,2094.0,36.0,-5.0,
2051.0,2083.0,36.0,-5.0,
2058.0,2092.0,36.0,-5.0,
2056.0,2101.0,37.0,-5.0,
2092.0,2115.0,37.0,-5.0,
2085.0,2099.0,37.0,-5.0,
2097.0,2140.0,37.0,-5.0,
2079.0,2149.0,37.0,-5.0,
2056.0,2072.0,37.0,-5.0,
2054.0,2041.0,37.0,-5.0,
2033.0,1993.0,37.0,-5.0,
2005.0,2043.0,37.0,-5.0,
2042.0,2029.0,37.0,-5.0,
2059.0,2080.0,37.0,-5.0,
2087.0,2083.0,37.0,-5.0,
2078.0,2065.0,37.0,-5.0,
2111.0,2079.0,37.0,-5.0,
2092.0,2097.0,37.0,-5.0,
2085.0,2106.0,37.0,-5.0,
2126.0,2119.0,37.0,-5.0,
2076.0,2122.0,37.0,-5.0,
2073.0,2111.0,37.0,-5.0,
2068.0,2100.0,37.0,-5.0,
2082.0,2108.0,37.0,-5.0,
2085.0,2110.0,37.0,-5.0,
2071.0,2113.0,37.0,-5.0,
2043.0,2105.0,37.0,-5.0,
2050.0,2105.0,37.0,-5.0,
2050.0,2105.0,37.0,-5.0,
2054.0,2100.0,37.0,-5.0,
2073.0,2102.0,37.0,-5.0,
2071.0,2103.0,37.0,-5.0,
2087.0,2102.0,37.0,-5.0,
2072.0,2098.0,37.0,-5.0,
2061.0,2092.0,37.0,-5.0,
2061.0,2095.0,37.0,-5.0,
2054.0,2109.0,37.0,-5.0,
2043.0,2120.0,37.0,-5.0,
2133.0,2133.0,37.0,-5.0,
2099.0,2070.0,37.0,-5.0,
2085.0,2122.0,37.0,-5.0,
2066.0,2041.0,37.0,-5.0,
2071.0,2044.0,37.0,-5.0,
2044.0,2042.0,37.0,-5.0,
2043.0,2051.0,37.0,-5.0,
2066.0,2075.0,37.0,-5.0,
2066.0,2082.0,37.0,-5.0,
2084.0,2093.0,37.0,-5.0,
2073.0,2106.0,37.0,-5.0,
2081.0,2105.0,37.0,-5.0,
2081.0,2110.0,37.0,-5.0,
2085.0,2109.0,37.0,-5.0,
2079.0,2126.0,37.0,-5.0,
2067.0,2123.0,37.0,-5.0,
2030.0,2091.0,37.0,-5.0,
2051.0,2107.0,37.0,-5.0,
2056.0,2083.0,37.0,-5.0,
2061.0,2089.0,37.0,-5.0,
2095.0,2122.0,37.0,-5.0,
2107.0,2131.0,37.0,-5.0,
2085.0,2088.0,37.0,-5.0,
2101.0,2108.0,37.0,-5.0,
2046.0,2062.0,37.0,-5.0,
2048.0,2095.0,37.0,-5.0,
2077.0,2038.0,37.0,-5.0,
2066.0,2074.0,37.0,-5.0,
2084.0,2097.0,37.0,-5.0,
2083.0,2122.0,37.0,-5.0,
2089.0,2097.0,37.0,-5.0,
2040.0,2041.0,37.0,-5.0,
2060.0,2090.0,37.0,-5.0,
2045.0,2096.0,37.0,-5.0,
2045.0,2079.0,37.0,-5.0,
2066.0,2098.0,37.0,-5.0,
2106.0,2097.0,37.0,-5.0,
2114.0,2126.0,37.0,-5.0,
2057.0,2108.0,37.0,-5.0,
2072.0,2068.0,37.0,-5.0,
2094.0,2103.0,37.0,-5.0,
2066.0,2113.0,37.0,-5.0,
2056.0,2090.0,37.0,-5.0,
2062.0,2096.0,37.0,-5.0,
2053.0,2076.0,37.0,-5.0,
2098.0,2098.0,0,
2084.0,2099.0,37.0,-5.0,
2070.0,2096.0,37.0,-5.0,
2043.0,2100.0,37.0,-5.0,
2066.0,2112.0,0,
2043.0,2092.0,37.0,-5.0,
2040.0,2076.0,37.0,-5.0,
2049.0,2088.0,37.0,-5.0,
2058.0,2094.0,37.0,-5.0,
2096.0,2101.0,37.0,-5.0,
2080.0,2102.0,37.0,-5.0,
2079.0,2100.0,37.0,-5.0,
2061.0,2117.0,37.0,-5.0,
2048.0,2115.0,37.0,-5.0,
2040.0,2077.0,37.0,-5.0,
2047.0,2106.0,37.0,-5.0,
2102.0,2113.0,37.0,-5.0,
2084.0,2042.0,37.0,-5.0,
2070.0,2054.0,37.0,-5.0,
2069.0,2096.0,37.0,-5.0,
2066.0,2111.0,37.0,-5.0,
2078.0,2135.0,37.0,-5.0,
2046.0,2116.0,37.0,-5.0,
2064.0,2055.0,37.0,-5.0,
2044.0,2086.0,37.0,-5.0,
2057.0,2100.0,37.0,-5.0,
2090.0,2102.0,37.0,-5.0,
2109.0,2109.0,37.0,-5.0,
2092.0,2079.0,37.0,-5.0,
2085.0,2052.0,37.0,-5.0,
2057.0,2064.0,37.0,-5.0,
2064.0,2098.0,37.0,-5.0,
2060.0,2111.0,37.0,-5.0,
2060.0,2116.0,37.0,-5.0,
2076.0,2122.0,37.0,-5.0,
2074.0,2051.0,37.0,-5.0,
2071.0,2080.0,37.0,-5.0,
2093.0,2119.0,37.0,-5.0,
2063.0,2100.0,37.0,-5.0,
2027.0,2068.0,37.0,-5.0,
2031.0,2087.0,37.0,-5.0,
2048.0,2100.0,37.0,-5.0,
2043.0,2106.0,37.0,-5.0,
2069.0,2123.0,37.0,-5.0,
2058.0,2107.0,37.0,-5.0,
2067.0,2082.0,37.0,-5.0,
2095.0,2108.0,37.0,-5.0,
2079.0,2116.0,37.0,-5.0,
2073.0,2142.0,37.0,-5.0,
2052.0,2084.0,37.0,-5.0,
2043.0,2042.0,37.0,-5.0,
2090.0,2086.0,37.0,-5.0,
2079.0,2042.0,37.0,-5.0,
2078.0,2081.0,37.0,-5.0,
2104.0,2098.0,37.0,-5.0,
2118.0,2093.0,37.0,-5.0,
2047.0,2103.0,37.0,-5.0,
2053.0,2125.0,37.0,-5.0,
2087.0,2080.0,37.0,-5.0,
2068.0,2088.0,37.0,-5.0,
2012.0,2076.0,37.0,-5.0,
2096.0,2099.0,37.0,-5.0,
2076.0,2104.0,37.0,-5.0,
2084.0,2105.0,37.0,-5.0,
2080.0,2109.0,37.0,-5.0,
2083.0,2102.0,37.0,-5.0,
2060.0,2104.0,37.0,-5.0,
2083.0,2109.0,37.0,-5.0,
2061.0,2101.0,37.0,-5.0,
2063.0,2106.0,37.0,-5.0,
2095.0,2113.0,37.0,-5.0,
2080.0,2106.0,37.0,-5.0,
2080.0,2094.0,37.0,-5.0,
2070.0,2105.0,37.0,-5.0,
2059.0,2102.0,37.0,-5.0,
2039.0,2098.0,37.0,-5.0,
2050.0,2093.0,37.0,-5.0,
2103.0,2102.0,37.0,-5.0,
2078.0,2140.0,37.0,-5.0,
2084.0,2080.0,37.0,-5.0,
2061.0,2087.0,37.0,-5.0,
2074.0,2042.0,37.0,-5.0,
2061.0,2080.0,37.0,-5.0,
2053.0,2096.0,37.0,-5.0,
2067.0,2131.0,37.0,-5.0,
2056.0,2068.0,37.0,-5.0,
2077.0,2101.0,37.0,-5.0,
2068.0,2054.0,37.0,-5.0,
2085.0,2022.0,37.0,-5.0,
2095.0,2071.0,37.0,-5.0,
2081.0,2096.0,37.0,-5.0,
2074.0,2087.0,37.0,-5.0,
2079.0,2098.0,37.0,-5.0,
2046.0,2096.0,37.0,-5.0,
2061.0,2095.0,37.0,-5.0,
2084.0,2102.0,37.0,-5.0,
2091.0,2108.0,37.0,-5.0,
2083.0,2116.0,37.0,-5.0,
2092.0,2117.0,37.0,-5.0,
2074.0,2129.0,37.0,-5.0,
2058.0,2092.0,37.0,-5.0,
2003.0,2103.0,37.0,-5.0,
2028.0,2078.0,37.0,-5.0,
2072.0,2079.0,37.0,-5.0,
2106.0,2107.0,37.0,-5.0,
2112.0,2141.0,37.0,-5.0,
2091.0,2103.0,37.0,-5.0,
2073.0,2049.0,37.0,-5.0,
2063.0,2091.0,37.0,-5.0,
2062.0,2076.0,37.0,-5.0,
2047.0,2089.0,37.0,-5.0,
2051.0,2096.0,37.0,-5.0,
2044.0,2080.0,37.0,-5.0,
2099.0,2079.0,37.0,-5.0,
2108.0,2094.0,37.0,-5.0,
2084.0,2104.0,37.0,-5.0,
2064.0,2092.0,37.0,-5.0,
2066.0,2101.0,37.0,-5.0,
2053.0,2111.0,37.0,-5.0,
2068.0,2085.0,37.0,-5.0,
2058.0,2111.0,37.0,-5.0,
2090.0,2158.0,37.0,-5.0,
2083.0,2106.0,37.0,-5.0,
2084.0,2028.0,37.0,-5.0,
2054.0,2036.0,37.0,-4.0,
2080.0,2085.0,37.0,-4.0,
2064.0,2100.0,37.0,-4.0,
2023.0,2055.0,37.0,-4.0,
2034.0,2085.0,37.0,-4.0,
2051.0,2116.0,37.0,-4.0,
2077.0,2107.0,0,
2070.0,2079.0,37.0,-4.0,
2112.0,2147.0,37.0,-4.0,
2063.0,2088.0,37.0,-4.0,
2047.0,2035.0,37.0,-4.0,
2054.0,2073.0,38.0,-4.0,
2042.0,2099.0,38.0,-4.0,
2026.0,2098.0,38.0,-5.0,
2023.0,2090.0,38.0,-5.0,
2073.0,2098.0,37.0,-5.0,
2067.0,2129.0,37.0,-5.0,
2108.0,2123.0,37.0,-5.0,
2095.0,2147.0,37.0,-5.0,
2118.0,2065.0,37.0,-5.0,
2078.0,2098.0,37.0,-5.0,
2039.0,2085.0,37.0,-5.0,
2068.0,2090.0,37.0,-5.0,
2087.0,2096.0,37.0,-5.0,
2053.0,2035.0,37.0,-5.0,
2096.0,2074.0,37.0,-5.0,
2074.0,2127.0,37.0,-5.0,
2106.0,2127.0,37.0,-5.0,
2058.0,2079.0,37.0,-5.0,
2060.0,2091.0,37.0,-5.0,
2070.0,2092.0,37.0,-5.0,
2039.0,2058.0,37.0,-5.0,
2027.0,2044.0,37.0,-5.0,
2063.0,2086.0,37.0,-5.0,
2054.0,2119.0,37.0,-5.0,
2074.0,2107.0,37.0,-5.0,
2062.0,2106.0,37.0,-5.0,
2083.0,2123.0,37.0,-5.0,
2067.0,2099.0,37.0,-5.0,
2064.0,2108.0,37.0,-5.0,
2090.0,2136.0,37.0,-5.0,
2105.0,2146.0,37.0,-5.0,
2090.0,2144.0,37.0,-5.0,
2075.0,2062.0,37.0,-5.0,
2051.0,1991.0,37.0,-5.0,
2057.0,1981.0,37.0,-5.0,
2072.0,2049.0,37.0,-5.0,
2044.0,2071.0,37.0,-5.0,
2072.0,2092.0,37.0,-5.0,
2072.0,2106.0,37.0,-5.0,
2073.0,2127.0,37.0,-5.0,
2053.0,2122.0,37.0,-5.0,
2079.0,2097.0,37.0,-5.0,
2103.0,2146.0,37.0,-5.0,
2122.0,2116.0,37.0,-5.0,
2069.0,2076.0,37.0,-5.0,
2044.0,2067.0,37.0,-5.0,
2033.0,2084.0,37.0,-5.0,
2082.0,2099.0,37.0,-5.0,
2073.0,2094.0,37.0,-5.0,
2066.0,2169.0,37.0,-5.0,
2083.0,2066.0,37.0,-5.0,
2077.0,2030.0,37.0,-5.0,
2044.0,2042.0,37.0,-5.0,
2069.0,2088.0,37.0,-5.0,
2035.0,2074.0,37.0,-5.0,
2044.0,2089.0,37.0,-5.0,
2057.0,2108.0,37.0,-5.0,
2087.0,2119.0,37.0,-5.0,
2095.0,2109.0,37.0,-5.0,
2096.0,2138.0,37.0,-5.0,
2074.0,2062.0,37.0,-5.0,
2072.0,2092.0,37.0,-5.0,
2077.0,2125.0,37.0,-5.0,
2066.0,2086.0,37.0,-5.0,
2045.0,2083.0,37.0,-5.0,
2050.0,2080.0,37.0,-5.0,
2077.0,2078.0,37.0,-5.0,
2067.0,2084.0,37.0,-5.0,
2084.0,2085.0,37.0,-5.0,
2080.0,2105.0,37.0,-5.0,
2071.0,2109.0,37.0,-5.0,
2054.0,2069.0,37.0,-5.0,
2070.0,2081.0,37.0,-5.0,
2080.0,2109.0,37.0,-5.0,
2111.0,2138.0,37.0,-5.0,
2106.0,2105.0,37.0,-5.0,
2102.0,2097.0,37.0,-5.0,
2065.0,2071.0,37.0,-5.0,
2046.0,2057.0,37.0,-5.0,
2052.0,2065.0,37.0,-5.0,
2064.0,2054.0,37.0,-5.0,
2090.0,2111.0,38.0,-5.0,
2082.0,2090.0,38.0,-5.0,
2078.0,2113.0,38.0,-5.0,
2065.0,2095.0,38.0,-5.0,
2132.0,2079.0,38.0,-5.0,
2125.0,2121.0,38.0,-5.0,
2095.0,2060.0,38.0,-5.0,
2051.0,2093.0,38.0,-5.0,
2046.0,2118.0,38.0,-5.0,
2036.0,2068.0,38.0,-5.0,
2026.0,2029.0,38.0,-5.0,
2052.0,2073.0,38.0,-5.0,
2044.0,2068.0,38.0,-5.0,
2054.0,2153.0,39.0,-5.0,
2075.0,2147.0,39.0,-5.0,
2032.0,2056.0,39.0,-5.0,
2049.0,2123.0,39.0,-5.0,
2014.0,2025.0,39.0,-5.0,
2055.0,2080.0,39.0,-5.0,
2055.0,2101.0,39.0,-5.0,
2089.0,2139.0,39.0,-5.0,
2056.0,2101.0,39.0,-5.0,
2087.0,2067.0,38.0,-5.0,
2152.0,2143.0,38.0,-5.0,
2150.0,2038.0,38.0,-5.0,
2082.0,2074.0,38.0,-5.0,
2015.0,2092.0,38.0,-5.0,
2087.0,2105.0,38.0,-5.0,
2113.0,2157.0,38.0,-5.0,
2118.0,2116.0,38.0,-5.0,
2112.0,2078.0,38.0,-5.0,
2041.0,2069.0,38.0,-5.0,
2129.0,2089.0,38.0,-5.0,
2075.0,2085.0,38.0,-5.0,
2085.0,2107.0,38.0,-5.0,
2045.0,2104.0,38.0,-5.0,
2035.0,2100.0,38.0,-5.0,
2123.0,2102.0,38.0,-5.0,
2093.0,2093.0,37.0,-5.0,
2087.0,2088.0,37.0,-5.0,
2083.0,2091.0,37.0,-5.0,
2056.0,2130.0,37.0,-5.0,
2046.0,2089.0,37.0,-5.0,
2050.0,2066.0,37.0,-5.0,
2016.0,2065.0,37.0,-5.0,
2054.0,2123.0,37.0,-5.0,
2076.0,2088.0,37.0,-5.0,
2085.0,2086.0,37.0,-5.0,
2067.0,2134.0,37.0,-5.0,
2101.0,2107.0,37.0,-5.0,
2044.0,2111.0,37.0,-5.0,
2045.0,2117.0,0,
2059.0,2064.0,37.0,-5.0,
2042.0,1985.0,37.0,-5.0,
2054.0,2118.0,37.0,-5.0,
2096.0,2130.0,37.0,-5.0,
2076.0,2070.0,37.0,-5.0,
1995.0,2032.0,37.0,-5.0,
2046.0,2071.0,37.0,-5.0,
2061.0,2048.0,0,
2078.0,2088.0,37.0,-5.0,
2063.0,2102.0,37.0,-5.0,
2114.0,2113.0,37.0,-5.0,
2100.0,2110.0,37.0,-4.0,
2078.0,2083.0,37.0,-4.0,
2043.0,2106.0,37.0,-4.0,
2091.0,2199.0,38.0,-4.0,
2048.0,2021.0,38.0,-4.0,
2055.0,2021.0,38.0,-4.0,
2067.0,2081.0,38.0,-4.0,
2114.0,2134.0,38.0,-4.0,
2146.0,2206.0,38.0,-4.0,
2085.0,2094.0,38.0,-4.0,
2116.0,1990.0,39.0,-4.0,
2102.0,2038.0,39.0,-4.0,
2103.0,2104.0,39.0,-4.0,
2073.0,2125.0,39.0,-5.0,
2072.0,2115.0,39.0,-5.0,
2111.0,2098.0,39.0,-5.0,
2097.0,2038.0,39.0,-5.0,
2050.0,2123.0,40.0,-5.0,
2064.0,2121.0,40.0,-5.0,
2093.0,2154.0,40.0,-5.0,
2070.0,2021.0,40.0,-5.0,
2025.0,2056.0,40.0,-5.0,
2042.0,2084.0,40.0,-5.0,
2023.0,2054.0,40.0,-4.0,
2074.0,2130.0,40.0,-4.0,
2081.0,2167.0,40.0,-4.0,
2060.0,2012.0,41.0,-4.0,
2050.0,2077.0,41.0,-4.0,
2104.0,2185.0,41.0,-4.0,
2094.0,2114.0,41.0,-4.0,
2055.0,2013.0,41.0,-4.0,
2014.0,2113.0,41.0,-4.0,
2045.0,2117.0,41.0,-4.0,
2047.0,2082.0,42.0,-4.0,
2010.0,2069.0,42.0,-4.0,
2100.0,2141.0,42.0,-4.0,
2169.0,2154.0,42.0,-4.0,
2014.0,2029.0,42.0,-4.0,
2026.0,2084.0,42.0,-4.0,
2060.0,2138.0,42.0,-4.0,
2086.0,2045.0,42.0,-4.0,
2139.0,2079.0,42.0,-4.0,
2110.0,2070.0,42.0,-4.0,
2098.0,2079.0,43.0,-4.0,
2078.0,2090.0,43.0,-4.0,
2086.0,2124.0,43.0,-4.0,
2085.0,2115.0,43.0,-4.0,
2098.0,2047.0,43.0,-4.0,
2046.0,2076.0,43.0,-4.0,
2039.0,2147.0,43.0,-8.0,
2115.0,2301.0,43.0,-8.0,
2054.0,2019.0,43.0,-6.0,
2046.0,2033.0,43.0,-5.0,
2009.0,2018.0,43.0,-4.0,
2059.0,2082.0,43.0,-4.0,
2048.0,2091.0,43.0,-4.0,
2025.0,2037.0,43.0,-4.0,
1999.0,2057.0,43.0,-4.0,
2095.0,2095.0,43.0,-4.0,
2060.0,2164.0,43.0,0.0,
2089.0,2078.0,44.0,0.0,
2142.0,2106.0,43.0,-2.0,
2150.0,2120.0,44.0,-3.0,
2134.0,2092.0,44.0,-4.0,
2089.0,2063.0,44.0,-4.0,
2074.0,2115.0,44.0,-4.0,
2034.0,2077.0,44.0,-4.0,
2015.0,2147.0,45.0,-4.0,
2036.0,2148.0,45.0,-4.0,
2059.0,2081.0,45.0,-4.0,
2047.0,1977.0,45.0,-4.0,
2047.0,2070.0,45.0,-4.0,
2106.0,2110.0,45.0,-4.0,
2059.0,2059.0,45.0,-4.0,
2071.0,2039.0,45.0,-5.0,
2111.0,2110.0,45.0,-6.0,
2051.0,2181.0,46.0,-7.0,
2036.0,2118.0,46.0,-6.0,
2101.0,2080.0,46.0,-5.0,
2119.0,2113.0,46.0,-5.0,
2079.0,2090.0,46.0,-5.0,
2088.0,2106.0,46.0,-5.0,
2079.0,2118.0,46.0,-5.0,
2033.0,2096.0,46.0,-4.0,
2073.0,2144.0,46.0,-4.0,
2050.0,2167.0,47.0,-2.0,
2035.0,2010.0,47.0,-2.0,
2068.0,2159.0,47.0,-3.0,
2081.0,2158.0,47.0,-4.0,
2090.0,2090.0,47.0,-4.0,
2035.0,1937.0,48.0,-4.0,
2063.0,2038.0,0,
2079.0,2093.0,48.0,-5.0,
2077.0,2148.0,48.0,-4.0,
2038.0,2098.0,48.0,-4.0,
2012.0,2045.0,48.0,-4.0,
2094.0,2133.0,48.0,-4.0,
2154.0,2254.0,48.0,-4.0,
2098.0,2041.0,49.0,-5.0,
1972.0,2008.0,49.0,-5.0,
2078.0,2106.0,49.0,-5.0,
2058.0,1962.0,49.0,-4.0,
2047.0,2091.0,49.0,-4.0,
2100.0,2299.0,49.0,-4.0,
2070.0,2048.0,49.0,-4.0,
2059.0,2012.0,49.0,-4.0,
2089.0,2047.0,49.0,-4.0,
2108.0,2123.0,49.0,-4.0,
2122.0,2225.0,49.0,-4.0,
2065.0,2079.0,49.0,-3.0,
2010.0,2029.0,49.0,-3.0,
2069.0,2163.0,49.0,-4.0,
2061.0,2134.0,50.0,-4.0,
2123.0,2034.0,50.0,-4.0,
2081.0,2042.0,50.0,-4.0,
2127.0,2122.0,51.0,-4.0,
2109.0,2141.0,51.0,-4.0,
2075.0,2154.0,51.0,-4.0,
2039.0,2067.0,51.0,-4.0,
2058.0,2104.0,51.0,-5.0,
2073.0,2101.0,52.0,-6.0,
2143.0,2125.0,52.0,-6.0,
2058.0,2092.0,52.0,-5.0,
2082.0,2077.0,52.0,-5.0,
2082.0,2017.0,52.0,-5.0,
2041.0,2115.0,52.0,-5.0,
2043.0,2005.0,52.0,-5.0,
2099.0,2057.0,52.0,-5.0,
2082.0,2085.0,53.0,-5.0,
2083.0,2128.0,53.0,-4.0,
2100.0,2100.0,53.0,-3.0,
2034.0,2103.0,53.0,-3.0,
2055.0,2071.0,53.0,-4.0,
2066.0,2216.0,53.0,-5.0,
2102.0,2041.0,54.0,-5.0,
2070.0,2143.0,54.0,-5.0,
2060.0,1945.0,54.0,-5.0,
2047.0,2145.0,54.0,-5.0,
2026.0,2051.0,55.0,-5.0,
2130.0,2111.0,55.0,-5.0,
2137.0,2188.0,55.0,-5.0,
2148.0,2233.0,55.0,-5.0,
2048.0,2179.0,55.0,-5.0,
1958.0,1964.0,55.0,-5.0,
2032.0,2006.0,55.0,-5.0,
2070.0,2061.0,56.0,-5.0,
2046.0,2093.0,56.0,-5.0,
2051.0,2067.0,56.0,-5.0,
2034.0,2076.0,56.0,-5.0,
2080.0,2198.0,56.0,-5.0,
2116.0,2128.0,56.0,-5.0,
2124.0,2140.0,56.0,-5.0,
2023.0,2011.0,56.0,-4.0,
2081.0,2068.0,56.0,-4.0,
2088.0,2088.0,56.0,-4.0,
2011.0,2000.0,56.0,-4.0,
2027.0,2021.0,56.0,-4.0,
2031.0,2041.0,56.0,-4.0,
2066.0,2103.0,57.0,-4.0,
2133.0,2142.0,57.0,-4.0,
2072.0,2143.0,57.0,-4.0,
2054.0,2146.0,57.0,-4.0,
2087.0,2148.0,57.0,-4.0,
2058.0,2223.0,57.0,-4.0,
2094.0,2035.0,57.0,-4.0,
2017.0,2077.0,58.0,-5.0,
2090.0,2163.0,58.0,-5.0,
2134.0,2034.0,58.0,-5.0,
1998.0,1957.0,58.0,-5.0,
2034.0,2095.0,58.0,-5.0,
2048.0,2114.0,58.0,-5.0,
2020.0,2066.0,58.0,-5.0,
2080.0,2158.0,58.0,-5.0,
2099.0,2148.0,59.0,-5.0,
2097.0,2100.0,59.0,-5.0,
2103.0,2140.0,59.0,-5.0,
2089.0,1978.0,59.0,-5.0,
2123.0,2214.0,59.0,-5.0,
2078.0,2235.0,60.0,-5.0,
1990.0,2045.0,60.0,-5.0,
2035.0,2102.0,60.0,-5.0,
2111.0,2000.0,60.0,-5.0,
2052.0,2023.0,60.0,-5.0,
2074.0,2089.0,60.0,-5.0,
2159.0,2124.0,60.0,-5.0,
2160.0,2115.0,61.0,-5.0,
2071.0,2168.0,61.0,-5.0,
2058.0,2089.0,61.0,-6.0,
2063.0,2090.0,61.0,-7.0,
1978.0,1956.0,61.0,-6.0,
2038.0,2074.0,61.0,-6.0,
2069.0,2162.0,61.0,-6.0,
2084.0,2102.0,61.0,-6.0,
2123.0,2074.0,61.0,-5.0,
2115.0,2068.0,62.0,-5.0,
2039.0,2172.0,62.0,-5.0,
2062.0,2146.0,62.0,-5.0,
2060.0,2066.0,62.0,-4.0,
2027.0,2208.0,62.0,-3.0,
2076.0,2073.0,62.0,-4.0,
2091.0,2099.0,62.0,-5.0,
2060.0,2035.0,63.0,-5.0,
2082.0,2134.0,63.0,-5.0,
2115.0,2014.0,63.0,-5.0,
2030.0,2141.0,63.0,-5.0,
2032.0,2092.0,63.0,-5.0,
2028.0,2109.0,63.0,-5.0,
2032.0,2091.0,63.0,-5.0,
2064.0,2147.0,64.0,-5.0,
2068.0,2274.0,64.0,-5.0,
2075.0,2045.0,64.0,-5.0,
2147.0,2120.0,64.0,-5.0,
2081.0,2145.0,65.0,-5.0,
2015.0,1986.0,65.0,-5.0,
2065.0,1940.0,65.0,-5.0,
2064.0,2030.0,65.0,-5.0,
2094.0,2081.0,65.0,-5.0,
2093.0,2104.0,65.0,-5.0,
2069.0,2175.0,65.0,-5.0,
2075.0,2092.0,65.0,-5.0,
2128.0,2122.0,65.0,-5.0,
2099.0,2192.0,65.0,-5.0,
2091.0,1939.0,65.0,-5.0,
2044.0,1986.0,65.0,-5.0,
2033.0,2124.0,66.0,-5.0,
2037.0,2180.0,66.0,-5.0,
2112.0,2290.0,66.0,-5.0,
2047.0,2034.0,66.0,-5.0,
2078.0,2028.0,66.0,-5.0,
2106.0,2086.0,66.0,-5.0,
2149.0,2172.0,66.0,-5.0,
2043.0,2078.0,66.0,-5.0,
2031.0,2072.0,66.0,-5.0,
2109.0,2113.0,66.0,-5.0,
2043.0,2055.0,66.0,-6.0,
2137.0,2158.0,66.0,-6.0,
2165.0,2151.0,67.0,-5.0,
2127.0,2003.0,67.0,-5.0,
2077.0,2104.0,67.0,-5.0,
2025.0,2104.0,67.0,-5.0,
2045.0,2111.0,67.0,-5.0,
2011.0,2029.0,67.0,-5.0,
2013.0,2114.0,68.0,-5.0,
2092.0,2085.0,68.0,-5.0,
2081.0,2100.0,68.0,-4.0,
2070.0,2086.0,68.0,-4.0,
2093.0,2164.0,68.0,-5.0,
2019.0,2108.0,68.0,-5.0,
2035.0,2157.0,68.0,-5.0,
2047.0,2072.0,69.0,-5.0,
2022.0,2012.0,69.0,-5.0,
2058.0,2209.0,69.0,-5.0,
2041.0,2034.0,69.0,-5.0,
2115.0,2017.0,69.0,-5.0,
2062.0,2020.0,69.0,-5.0,
2018.0,2089.0,69.0,-5.0,
2077.0,2083.0,69.0,-5.0,
2140.0,2176.0,69.0,-5.0,
2054.0,2174.0,69.0,-5.0,
2006.0,1945.0,69.0,-5.0,
2022.0,2078.0,69.0,-5.0,
2135.0,2078.0,70.0,-5.0,
2139.0,2171.0,70.0,-5.0,
2027.0,2169.0,70.0,-5.0,
2077.0,2130.0,70.0,-5.0,
2170.0,1904.0,70.0,-5.0,
1944.0,2049.0,70.0,-5.0,
2055.0,2053.0,70.0,-5.0,
2093.0,2033.0,70.0,-5.0,
2100.0,2222.0,70.0,-5.0,
2152.0,2331.0,70.0,-5.0,
2011.0,2091.0,70.0,-6.0,
2023.0,1921.0,70.0,-6.0,
2043.0,2134.0,70.0,-5.0,
2048.0,2080.0,70.0,-5.0,
2082.0,2132.0,70.0,-5.0,
2065.0,2158.0,70.0,-5.0,
2118.0,2210.0,71.0,-5.0,
2039.0,1997.0,71.0,-6.0,
2032.0,2004.0,71.0,-6.0,
2186.0,2083.0,71.0,-6.0,
2112.0,2075.0,71.0,-5.0,
2077.0,2179.0,71.0,-5.0,
2042.0,2059.0,71.0,-6.0,
2101.0,2143.0,71.0,-6.0,
2009.0,2106.0,71.0,-6.0,
1997.0,2299.0,72.0,-6.0,
2109.0,2114.0,72.0,-7.0,
2068.0,1952.0,72.0,-6.0,
2074.0,2025.0,72.0,-6.0,
2052.0,2024.0,72.0,-6.0,
2067.0,2006.0,72.0,-6.0,
2031.0,2059.0,72.0,-6.0,
2097.0,2116.0,72.0,-6.0,
2016.0,2130.0,72.0,-6.0,
2089.0,2119.0,72.0,-6.0,
2050.0,2089.0,72.0,-6.0,
2155.0,2199.0,72.0,-5.0,
2081.0,2086.0,72.0,-6.0,
2078.0,2121.0,72.0,-6.0,
2142.0,2133.0,73.0,-6.0,
2118.0,2144.0,73.0,-6.0,
2038.0,1945.0,73.0,-6.0,
2088.0,2061.0,73.0,-6.0,
2062.0,2014.0,73.0,-6.0,
2122.0,2070.0,73.0,-6.0,
2034.0,2063.0,73.0,-6.0,
2022.0,2074.0,73.0,-6.0,
2067.0,2243.0,74.0,-6.0,
2062.0,2015.0,74.0,-6.0,
2109.0,2116.0,73.0,-6.0,
2011.0,1927.0,74.0,-6.0,
2038.0,2100.0,74.0,-6.0,
2047.0,2048.0,74.0,-6.0,
2087.0,2174.0,74.0,-6.0,
2140.0,2226.0,74.0,-6.0,
2096.0,2174.0,74.0,-6.0,
2020.0,2042.0,74.0,-6.0,
2065.0,2040.0,74.0,-6.0,
2072.0,2295.0,74.0,-6.0,
2064.0,2033.0,75.0,-6.0,
2036.0,1959.0,75.0,-6.0,
2072.0,2124.0,75.0,-6.0,
2072.0,2028.0,75.0,-6.0,
2115.0,2115.0,75.0,-6.0,
2100.0,2116.0,75.0,-6.0,
2058.0,2061.0,75.0,-6.0,
2066.0,2077.0,75.0,-6.0,
2041.0,2114.0,75.0,-6.0,
1984.0,2203.0,75.0,-6.0,
2105.0,2033.0,75.0,-6.0,
2029.0,2033.0,75.0,-6.0,
2044.0,2058.0,75.0,-6.0,
2133.0,2303.0,75.0,-6.0,
2105.0,1934.0,75.0,-6.0,
2081.0,2107.0,75.0,-6.0,
2066.0,1933.0,75.0,-6.0,
2028.0,2048.0,75.0,-6.0,
2091.0,2286.0,75.0,-6.0,
2011.0,1985.0,75.0,-6.0,
2106.0,2196.0,76.0,-6.0,
2031.0,1953.0,76.0,-6.0,
2117.0,2090.0,76.0,-6.0,
2076.0,2141.0,76.0,-7.0,
2132.0,1931.0,76.0,-7.0,
2045.0,1983.0,76.0,-7.0,
2069.0,2161.0,76.0,-7.0,
2106.0,2139.0,76.0,-7.0,
1999.0,2152.0,77.0,-7.0,
2143.0,2165.0,77.0,-7.0,
2065.0,1996.0,77.0,-7.0,
2059.0,2242.0,77.0,-7.0,
2031.0,1870.0,78.0,-7.0,
2070.0,1966.0,78.0,-7.0,
2043.0,2199.0,78.0,-6.0,
2087.0,2143.0,78.0,-6.0,
2037.0,2028.0,78.0,-7.0,
2043.0,2097.0,78.0,-7.0,
2110.0,2159.0,78.0,-8.0,
2122.0,2087.0,78.0,-8.0,
2020.0,1955.0,78.0,-7.0,
2162.0,2023.0,78.0,-7.0,
2047.0,2107.0,78.0,-7.0,
2010.0,2150.0,79.0,-8.0,
2101.0,2314.0,78.0,-7.0,
2058.0,2128.0,79.0,-7.0,
2019.0,1994.0,79.0,-7.0,
2169.0,2317.0,79.0,-7.0,
1994.0,2091.0,79.0,-6.0,
2039.0,2097.0,79.0,-6.0,
2082.0,2029.0,79.0,-7.0,
2099.0,2013.0,79.0,-7.0,
1984.0,2125.0,79.0,-7.0,
2044.0,2250.0,79.0,-7.0,
2061.0,1865.0,79.0,-7.0,
2140.0,2158.0,79.0,-7.0,
2135.0,2190.0,79.0,-7.0,
1992.0,2024.0,79.0,-7.0,
2040.0,2135.0,79.0,-7.0,
2032.0,2045.0,79.0,-7.0,
2048.0,2106.0,79.0,-7.0,
2026.0,2087.0,79.0,-7.0,
2106.0,2284.0,79.0,-7.0,
2097.0,2067.0,79.0,-7.0,
2054.0,1957.0,79.0,-7.0,
2081.0,2019.0,80.0,-7.0,
2053.0,2097.0,79.0,-7.0,
2080.0,2203.0,80.0,-7.0,
2168.0,2098.0,80.0,-7.0,
1975.0,2024.0,80.0,-7.0,
2034.0,2109.0,80.0,-7.0,
2111.0,2042.0,80.0,-7.0,
2082.0,2073.0,80.0,-7.0,
2103.0,2296.0,80.0,-7.0,
2115.0,2113.0,80.0,-7.0,
2002.0,2093.0,80.0,-8.0,
2044.0,2007.0,80.0,-8.0,
2112.0,1976.0,80.0,-8.0,
2092.0,2090.0,80.0,-7.0,
2099.0,2100.0,80.0,-8.0,
1990.0,2021.0,80.0,-7.0,
2119.0,2111.0,80.0,-8.0,
2133.0,2271.0,80.0,-8.0,
2163.0,2242.0,80.0,-8.0,
1941.0,2138.0,80.0,-7.0,
2009.0,2088.0,80.0,-7.0,
2024.0,1940.0,80.0,-7.0,
2009.0,2127.0,80.0,-7.0,
2025.0,1974.0,81.0,-7.0,
2134.0,2080.0,81.0,-7.0,
2196.0,2169.0,80.0,-7.0,
1960.0,2318.0,81.0,-7.0,
2036.0,2010.0,81.0,-6.0,
2297.0,1839.0,81.0,-7.0,
2091.0,2052.0,81.0,-7.0,
2063.0,2085.0,81.0,-7.0,
2135.0,2147.0,81.0,-7.0,
2071.0,2227.0,81.0,-7.0,
2066.0,2384.0,81.0,-7.0,
1949.0,1801.0,81.0,-7.0,
1947.0,2082.0,81.0,-7.0,
2077.0,1999.0,81.0,-7.0,
2258.0,1973.0,81.0,-7.0,
2220.0,2059.0,81.0,-7.0,
2068.0,2216.0,81.0,-7.0,
2009.0,2203.0,81.0,-7.0,
2055.0,1912.0,81.0,-7.0,
2001.0,2236.0,81.0,-7.0,
2086.0,2091.0,81.0,-7.0,
2152.0,2049.0,81.0,-7.0,
2156.0,2202.0,82.0,-7.0,
2188.0,2242.0,82.0,-7.0,
1990.0,2022.0,82.0,-7.0,
2005.0,2041.0,82.0,-7.0,
2008.0,2194.0,82.0,-7.0,
2135.0,2216.0,82.0,-7.0,
1998.0,2103.0,82.0,-7.0,
2020.0,2104.0,82.0,-7.0,
2089.0,2028.0,82.0,-7.0,
2027.0,1925.0,82.0,-7.0,
2060.0,2152.0,82.0,-8.0,
2032.0,2202.0,82.0,-7.0,
1996.0,1977.0,82.0,-8.0,
2085.0,1994.0,82.0,-7.0,
2008.0,1982.0,82.0,-7.0,
2160.0,2140.0,82.0,-8.0,
2046.0,2263.0,82.0,-8.0,
2083.0,2080.0,82.0,-8.0,
2140.0,2229.0,83.0,-8.0,
2092.0,1931.0,83.0,-8.0,
2121.0,2236.0,83.0,-8.0,
2008.0,1988.0,83.0,-8.0,
1904.0,2234.0,83.0,-8.0,
2187.0,2220.0,83.0,-8.0,
2190.0,1973.0,83.0,-8.0,
2183.0,2046.0,84.0,-8.0,
2160.0,2110.0,84.0,-8.0,
2103.0,2112.0,84.0,-8.0,
2115.0,2081.0,84.0,-8.0,
2086.0,2160.0,84.0,-8.0,
1966.0,2086.0,84.0,-8.0,
2067.0,2086.0,84.0,-8.0,
2013.0,1908.0,85.0,-8.0,
2140.0,2138.0,85.0,-8.0,
2047.0,2110.0,85.0,-8.0,
2085.0,2299.0,85.0,-8.0,
2024.0,1976.0,85.0,-8.0,
2090.0,1878.0,85.0,-8.0,
2061.0,2032.0,85.0,-8.0,
2066.0,2064.0,85.0,-8.0,
2101.0,2025.0,85.0,-8.0,
2131.0,2118.0,85.0,-8.0,
2081.0,2185.0,85.0,-8.0,
2027.0,2121.0,85.0,-8.0,
2003.0,2103.0,85.0,-8.0,
2182.0,2290.0,85.0,-8.0,
2060.0,1988.0,86.0,-8.0,
2012.0,2097.0,86.0,-8.0,
1869.0,2180.0,85.0,-8.0,
1977.0,2005.0,86.0,-8.0,
2209.0,2055.0,86.0,-8.0,
2200.0,2447.0,86.0,-7.0,
2131.0,2129.0,86.0,-8.0,
2128.0,1843.0,86.0,-8.0,
2010.0,1831.0,86.0,-8.0,
2080.0,2133.0,86.0,-8.0,
2011.0,2168.0,86.0,-8.0,
1946.0,2026.0,86.0,-8.0,
2058.0,2003.0,86.0,-7.0,
2145.0,2091.0,86.0,-7.0,
2176.0,2164.0,86.0,-8.0,
2115.0,2066.0,86.0,-8.0,
1940.0,2466.0,86.0,-7.0,
1997.0,2191.0,86.0,-7.0,
2024.0,2093.0,86.0,-7.0,
2116.0,1813.0,86.0,-7.0,
2016.0,1909.0,86.0,-7.0,
2055.0,2039.0,86.0,-7.0,
2167.0,2038.0,86.0,-7.0,
2076.0,2320.0,86.0,-7.0,
2170.0,2201.0,86.0,-7.0,
2070.0,2033.0,86.0,-7.0,
2033.0,2170.0,86.0,-7.0,
2068.0,2098.0,86.0,-7.0,
2136.0,2098.0,86.0,-8.0,
2015.0,2022.0,86.0,-8.0,
2038.0,2045.0,86.0,-8.0,
2052.0,2091.0,86.0,-8.0,
1968.0,2175.0,86.0,-8.0,
2096.0,2042.0,86.0,-8.0,
2068.0,2285.0,86.0,-8.0,
2003.0,1955.0,86.0,-8.0,
2039.0,1867.0,86.0,-8.0,
2103.0,2079.0,86.0,-8.0,
2140.0,2051.0,86.0,-8.0,
2111.0,2219.0,86.0,-8.0,
2039.0,2225.0,86.0,-8.0,
2119.0,2001.0,86.0,-8.0,
2085.0,2221.0,86.0,-8.0,
2115.0,1957.0,86.0,-8.0,
1990.0,2109.0,86.0,-8.0,
2070.0,2108.0,86.0,-8.0,
2132.0,2188.0,86.0,-8.0,
1931.0,2403.0,86.0,-8.0,
2115.0,1989.0,86.0,-8.0,
2148.0,2060.0,86.0,-8.0,
2063.0,2056.0,86.0,-8.0,
2056.0,2011.0,86.0,-8.0,
2125.0,1916.0,86.0,-8.0,
2022.0,2105.0,0,
2066.0,2192.0,86.0,-8.0,
2004.0,1874.0,86.0,-8.0,
2071.0,2125.0,86.0,-8.0,
1962.0,2088.0,86.0,-8.0,
2205.0,2194.0,86.0,-8.0,
2162.0,2234.0,86.0,-8.0,
2004.0,2050.0,86.0,-8.0,
1999.0,2321.0,86.0,-8.0,
2143.0,1796.0,86.0,-8.0,
2076.0,1905.0,86.0,-8.0,
2106.0,2206.0,86.0,-8.0,
2089.0,2121.0,86.0,-8.0,
2052.0,1987.0,86.0,-8.0,
2142.0,2241.0,86.0,-8.0,
2166.0,2297.0,86.0,-8.0,
1644.0,2344.0,86.0,-8.0,
2096.0,2020.0,86.0,-8.0,
2184.0,1854.0,86.0,-8.0,
2125.0,1896.0,86.0,-8.0,
2113.0,2068.0,86.0,-8.0,
2075.0,2088.0,86.0,-8.0,
2043.0,2325.0,86.0,-8.0,
2082.0,2313.0,86.0,-8.0,
2114.0,1996.0,86.0,-8.0,
2029.0,2108.0,86.0,-8.0,
2111.0,2042.0,86.0,-8.0,
1894.0,2368.0,86.0,-8.0,
1740.0,2386.0,86.0,-8.0,
2134.0,1651.0,86.0,-8.0,
2266.0,1727.0,86.0,-8.0,
2251.0,2030.0,86.0,-8.0,
2131.0,2032.0,86.0,-8.0,
2138.0,2026.0,86.0,-8.0,
2127.0,2207.0,86.0,-8.0,
1956.0,2150.0,86.0,-8.0,
1969.0,2140.0,87.0,-10.0,
2168.0,2160.0,86.0,-8.0,
2046.0,1986.0,87.0,-7.0,
2104.0,2332.0,86.0,-8.0,
1961.0,2058.0,86.0,-8.0,
2034.0,1922.0,86.0,-8.0,
2102.0,2229.0,86.0,-8.0,
2261.0,2192.0,86.0,-8.0,
2005.0,1872.0,87.0,-8.0,
2053.0,1973.0,87.0,-8.0,
2010.0,2179.0,87.0,-6.0,
2099.0,1975.0,87.0,-8.0,
2049.0,2321.0,87.0,-9.0,
2016.0,1987.0,87.0,-8.0,
2238.0,2266.0,87.0,-8.0,
1924.0,2209.0,87.0,-8.0,
1898.0,1961.0,87.0,-8.0,
2248.0,1974.0,88.0,-8.0,
2210.0,2050.0,88.0,-8.0,
2052.0,1986.0,88.0,-8.0,
2139.0,2336.0,88.0,-8.0,
2095.0,2272.0,88.0,-8.0,
2071.0,2070.0,88.0,-8.0,
1984.0,2097.0,88.0,-8.0,
2082.0,1979.0,88.0,-8.0,
2006.0,2012.0,88.0,-8.0,
2081.0,2195.0,88.0,-8.0,
2100.0,2469.0,88.0,-8.0,
1986.0,1795.0,88.0,-8.0,
2067.0,1720.0,88.0,-8.0,
2115.0,1907.0,88.0,-8.0,
2109.0,2128.0,88.0,-7.0,
2118.0,2142.0,88.0,-7.0,
2115.0,2310.0,88.0,-7.0,
2011.0,2043.0,88.0,-7.0,
1984.0,2157.0,88.0,-8.0,
2176.0,2296.0,88.0,-7.0,
2033.0,2140.0,88.0,-7.0,
2031.0,1982.0,88.0,-7.0,
2052.0,1925.0,88.0,-7.0,
2126.0,2112.0,88.0,-7.0,
2091.0,2192.0,88.0,-7.0,
2004.0,1962.0,88.0,-7.0,
2033.0,2037.0,88.0,-7.0,
2123.0,2142.0,88.0,-7.0,
2057.0,2045.0,88.0,-7.0,
2053.0,2216.0,88.0,-8.0,
2122.0,2056.0,88.0,-8.0,
2047.0,2010.0,88.0,-8.0,
2127.0,2124.0,88.0,-8.0,
2021.0,2083.0,88.0,-8.0,
2053.0,2276.0,88.0,-8.0,
2087.0,1991.0,88.0,-8.0,
2065.0,2093.0,88.0,-8.0,
2038.0,1990.0,88.0,-8.0,
2044.0,2079.0,88.0,-8.0,
2099.0,2108.0,88.0,-8.0,
2179.0,2139.0,88.0,-8.0,
2167.0,2151.0,88.0,-8.0,
2000.0,2293.0,88.0,-8.0,
2138.0,1987.0,88.0,-8.0,
1952.0,1831.0,88.0,-8.0,
2011.0,1987.0,88.0,-8.0,
2109.0,2061.0,88.0,-8.0,
2085.0,2076.0,87.0,-8.0,
2109.0,2159.0,87.0,-8.0,
2079.0,2137.0,87.0,-8.0,
2064.0,2115.0,87.0,-8.0,
2091.0,2166.0,87.0,-8.0,
1972.0,2257.0,87.0,-8.0,
2027.0,2070.0,87.0,-8.0,
2037.0,2052.0,87.0,-8.0,
1995.0,2030.0,87.0,-8.0,
2081.0,2095.0,87.0,-8.0,
2100.0,2050.0,87.0,-8.0,
2170.0,2088.0,87.0,-8.0,
2147.0,2055.0,87.0,-8.0,
2126.0,2166.0,87.0,-8.0,
2037.0,2077.0,87.0,-8.0,
2072.0,2163.0,87.0,-8.0,
2075.0,2147.0,87.0,-8.0,
2019.0,2099.0,87.0,-8.0,
2075.0,2030.0,87.0,-8.0,
2088.0,2101.0,88.0,-8.0,
2029.0,2198.0,88.0,-8.0,
2029.0,2000.0,88.0,-8.0,
2102.0,2049.0,88.0,-8.0,
2103.0,2100.0,88.0,-8.0,
2066.0,2149.0,88.0,-8.0,
2071.0,2091.0,88.0,-8.0,
2082.0,2133.0,88.0,-8.0,
2108.0,2109.0,88.0,-8.0,
2095.0,2045.0,88.0,-8.0,
2083.0,2166.0,88.0,-8.0,
2111.0,2136.0,88.0,-8.0,
2042.0,2084.0,88.0,-8.0,
2013.0,2018.0,88.0,-8.0,
2000.0,2074.0,88.0,-8.0,
1992.0,2168.0,88.0,-8.0,
2198.0,2067.0,89.0,-8.0,
2097.0,2064.0,89.0,-8.0,
2102.0,2103.0,89.0,-8.0,
2086.0,2195.0,89.0,-8.0,
2022.0,2127.0,89.0,-8.0,
2113.0,2019.0,89.0,-8.0,
2042.0,1963.0,89.0,-8.0,
2077.0,1998.0,89.0,-8.0,
2078.0,2085.0,89.0,-8.0,
2071.0,2129.0,88.0,-8.0,
2126.0,2080.0,88.0,-8.0,
2068.0,2093.0,88.0,-8.0,
2047.0,2126.0,88.0,-8.0,
2048.0,2051.0,88.0,-7.0,
2067.0,2095.0,88.0,-7.0,
2027.0,2081.0,87.0,-7.0,
2056.0,2147.0,87.0,-7.0,
2058.0,2231.0,87.0,-7.0,
2074.0,2154.0,87.0,-7.0,
2091.0,2055.0,86.0,-7.0,
2066.0,2006.0,86.0,-7.0,
2075.0,2126.0,86.0,-7.0,
2052.0,2061.0,86.0,-7.0,
2087.0,2030.0,86.0,-7.0,
2129.0,2102.0,86.0,-7.0,
2001.0,2018.0,85.0,-7.0,
2059.0,2076.0,85.0,-8.0,
2087.0,2095.0,85.0,-8.0,
2104.0,2114.0,85.0,-8.0,
2080.0,2131.0,85.0,-8.0,
2079.0,2117.0,84.0,-8.0,
2079.0,2166.0,84.0,-8.0,
2069.0,2085.0,84.0,-8.0,
2052.0,2074.0,84.0,-8.0,
2056.0,2089.0,84.0,-8.0,
2066.0,2069.0,83.0,-8.0,
2061.0,2116.0,83.0,-8.0,
2069.0,2120.0,83.0,-8.0,
2057.0,2106.0,83.0,-8.0,
2119.0,2126.0,83.0,-8.0,
2051.0,2157.0,83.0,-8.0,
2038.0,2031.0,83.0,-8.0,
2103.0,2112.0,83.0,-9.0,
2089.0,2112.0,83.0,-9.0,
2061.0,2023.0,83.0,-9.0,
2065.0,2081.0,83.0,-9.0,
2110.0,2161.0,0,
2098.0,2148.0,84.0,-8.0,
2054.0,1997.0,84.0,-8.0,
2040.0,2075.0,84.0,-8.0,
1996.0,2083.0,84.0,-8.0,
2120.0,2167.0,84.0,-8.0,
2139.0,2125.0,84.0,-8.0,
2046.0,2021.0,84.0,-8.0,
2093.0,2020.0,84.0,-8.0,
2066.0,2183.0,84.0,-8.0,
2097.0,2046.0,84.0,-8.0,
2032.0,1987.0,84.0,-8.0,
2067.0,2085.0,84.0,-8.0,
2116.0,2125.0,83.0,-8.0,
2057.0,2110.0,83.0,-8.0,
2010.0,2131.0,83.0,-7.0,
2057.0,2063.0,83.0,-7.0,
2100.0,2051.0,83.0,-7.0,
2110.0,2067.0,83.0,-7.0,
2097.0,2139.0,83.0,-7.0,
2080.0,2091.0,82.0,-7.0,
2057.0,2125.0,82.0,-7.0,
2058.0,2058.0,82.0,-7.0,
2065.0,2126.0,82.0,-7.0,
2044.0,2119.0,82.0,-7.0,
2068.0,2086.0,82.0,-7.0,
2072.0,2113.0,82.0,-7.0,
2136.0,2104.0,82.0,-7.0,
2127.0,2094.0,82.0,-7.0,
2090.0,2100.0,82.0,-7.0,
2078.0,2069.0,82.0,-7.0,
2035.0,2106.0,82.0,-7.0,
2058.0,2057.0,81.0,-7.0,
2050.0,2104.0,81.0,-7.0,
2066.0,2064.0,81.0,-7.0,
2107.0,2096.0,81.0,-8.0,
2117.0,2061.0,81.0,-8.0,
2104.0,2037.0,81.0,-8.0,
2056.0,2191.0,81.0,-8.0,
2071.0,2155.0,81.0,-8.0,
2021.0,2051.0,81.0,-8.0,
2076.0,2142.0,81.0,-8.0,
2064.0,2043.0,81.0,-8.0,
2084.0,2201.0,81.0,-8.0,
2057.0,2075.0,81.0,-8.0,
2073.0,2022.0,82.0,-8.0,
2098.0,2050.0,82.0,-8.0,
2140.0,2075.0,82.0,-8.0,
2006.0,2169.0,82.0,-8.0,
2068.0,2011.0,82.0,-7.0,
2047.0,2142.0,82.0,-7.0,
2123.0,2200.0,82.0,-7.0,
2102.0,2046.0,82.0,-7.0,
2076.0,2052.0,82.0,-7.0,
2091.0,2009.0,82.0,-7.0,
2105.0,2064.0,82.0,-7.0,
2065.0,2058.0,82.0,-7.0,
2047.0,2107.0,82.0,-7.0,
2097.0,2245.0,82.0,-7.0,
2017.0,2074.0,82.0,-7.0,
2093.0,2121.0,81.0,-7.0,
2079.0,2170.0,81.0,-7.0,
2094.0,2075.0,81.0,-7.0,
2088.0,2040.0,81.0,-7.0,
2043.0,2227.0,81.0,-7.0,
2079.0,2103.0,81.0,-7.0,
2043.0,2025.0,81.0,-7.0,
2025.0,2017.0,81.0,-7.0,
2067.0,2058.0,81.0,-7.0,
2032.0,2100.0,81.0,-7.0,
2134.0,2068.0,81.0,-7.0,
2109.0,2038.0,81.0,-7.0,
2058.0,2169.0,81.0,-7.0,
2042.0,2067.0,80.0,-7.0,
2067.0,2117.0,80.0,-7.0,
2044.0,2112.0,80.0,-7.0,
2048.0,2078.0,80.0,-7.0,
2033.0,2099.0,80.0,-7.0,
2094.0,2099.0,79.0,-7.0,
2098.0,2094.0,79.0,-7.0,
2078.0,2116.0,79.0,-7.0,
2069.0,2118.0,79.0,-7.0,
2089.0,2122.0,79.0,-7.0,
2092.0,2129.0,79.0,-7.0,
2059.0,2158.0,79.0,-7.0,
2028.0,2037.0,79.0,-7.0,
2070.0,2047.0,79.0,-7.0,
2074.0,2054.0,79.0,-7.0,
2075.0,2146.0,79.0,-7.0,
2147.0,2130.0,79.0,-7.0,
2067.0,2061.0,79.0,-7.0,
2069.0,2013.0,79.0,-7.0,
2077.0,1990.0,79.0,-7.0,
2026.0,2183.0,79.0,-7.0,
2036.0,2139.0,79.0,-7.0,
2063.0,2186.0,79.0,-7.0,
2072.0,2053.0,79.0,-7.0,
2090.0,2099.0,79.0,-7.0,
2129.0,2080.0,79.0,-7.0,
2105.0,2053.0,79.0,-7.0,
2065.0,2117.0,79.0,-7.0,
2056.0,2062.0,79.0,-7.0,
2076.0,2147.0,79.0,-7.0,
2088.0,2063.0,79.0,-7.0,
2061.0,2131.0,79.0,-7.0,
2085.0,2034.0,79.0,-7.0,
2080.0,2174.0,79.0,-7.0,
2030.0,2047.0,80.0,-7.0,
2074.0,1992.0,80.0,-7.0,
2061.0,2056.0,80.0,-7.0,
2056.0,2151.0,80.0,-6.0,
2068.0,2097.0,80.0,-6.0,
2041.0,1998.0,80.0,-7.0,
2045.0,2050.0,80.0,-7.0,
2092.0,2072.0,80.0,-7.0,
2119.0,2134.0,80.0,-7.0,
2087.0,2113.0,80.0,-7.0,
2090.0,2112.0,80.0,-7.0,
2058.0,2161.0,79.0,-7.0,
2089.0,2142.0,79.0,-7.0,
2044.0,2085.0,80.0,-7.0,
2048.0,2071.0,80.0,-7.0,
2068.0,2118.0,80.0,-7.0,
2073.0,2151.0,80.0,-7.0,
2124.0,2000.0,80.0,-7.0,
2045.0,2091.0,80.0,-7.0,
2123.0,2114.0,80.0,-7.0,
2108.0,2112.0,79.0,-7.0,
2060.0,2091.0,79.0,-7.0,
2083.0,2105.0,79.0,-7.0,
2112.0,2130.0,79.0,-7.0,
2153.0,2093.0,79.0,-7.0,
2090.0,2111.0,79.0,-6.0,
2061.0,2063.0,79.0,-6.0,
2043.0,2134.0,79.0,-6.0,
2035.0,2072.0,79.0,-7.0,
2058.0,2106.0,79.0,-7.0,
2118.0,1996.0,79.0,-7.0,
2109.0,2126.0,79.0,-7.0,
2048.0,2062.0,79.0,-7.0,
2105.0,1993.0,79.0,-7.0,
2110.0,2051.0,79.0,-7.0,
2079.0,2109.0,79.0,-7.0,
2018.0,2113.0,79.0,-7.0,
2032.0,2106.0,78.0,-7.0,
2080.0,2154.0,78.0,-7.0,
2134.0,2145.0,78.0,-7.0,
2083.0,2082.0,78.0,-7.0,
2135.0,2103.0,78.0,-7.0,
2044.0,2050.0,78.0,-7.0,
2062.0,2042.0,78.0,-7.0,
2042.0,2028.0,78.0,-7.0,
2105.0,2051.0,77.0,-7.0,
2082.0,2110.0,77.0,-6.0,
2048.0,2140.0,77.0,-6.0,
2003.0,2117.0,77.0,-6.0,
2060.0,2018.0,77.0,-6.0,
2073.0,2179.0,77.0,-6.0,
2089.0,2124.0,77.0,-6.0,
2079.0,2063.0,76.0,-6.0,
2094.0,2103.0,76.0,-6.0,
2033.0,2144.0,76.0,-6.0,
2059.0,2124.0,76.0,-6.0,
2062.0,2141.0,76.0,-6.0,
2049.0,2107.0,76.0,-6.0,
2063.0,2069.0,76.0,-6.0,
2068.0,2074.0,75.0,-6.0,
2080.0,2071.0,75.0,-6.0,
2069.0,2146.0,75.0,-6.0,
2082.0,2145.0,75.0,-6.0,
2033.0,2117.0,75.0,-6.0,
2007.0,2113.0,75.0,-7.0,
2008.0,2083.0,75.0,-7.0,
1991.0,2073.0,75.0,-7.0,
2065.0,2070.0,75.0,-7.0,
2118.0,2092.0,75.0,-7.0,
2140.0,2060.0,75.0,-7.0,
2194.0,2111.0,75.0,-7.0,
2170.0,2107.0,75.0,-7.0,
2063.0,2082.0,75.0,-7.0,
2117.0,2107.0,75.0,-7.0,
2093.0,2089.0,75.0,-7.0,
2118.0,2093.0,75.0,-7.0,
2086.0,2115.0,76.0,-7.0,
2071.0,2089.0,76.0,-7.0,
2039.0,2105.0,76.0,-6.0,
2064.0,2094.0,76.0,-6.0,
2090.0,2105.0,76.0,-6.0,
2061.0,2079.0,76.0,-6.0,
2035.0,2120.0,76.0,-6.0,
2105.0,2020.0,76.0,-6.0,
2034.0,2005.0,76.0,-6.0,
2055.0,2132.0,76.0,-6.0,
2022.0,2081.0,76.0,-6.0,
2095.0,2146.0,76.0,-6.0,
2142.0,2106.0,76.0,-6.0,
2127.0,2122.0,75.0,-6.0,
2040.0,2080.0,75.0,-6.0,
2056.0,2030.0,75.0,-6.0,
2035.0,2141.0,75.0,-6.0,
2055.0,2162.0,75.0,-6.0,
2086.0,2067.0,75.0,-6.0,
2110.0,2065.0,75.0,-5.0,
2066.0,2032.0,75.0,-5.0,
2049.0,2203.0,75.0,-5.0,
2081.0,2109.0,75.0,-5.0,
2015.0,2104.0,75.0,-5.0,
2046.0,2075.0,75.0,-5.0,
2083.0,2085.0,75.0,-5.0,
2087.0,2119.0,75.0,-6.0,
2125.0,2145.0,75.0,-6.0,
2072.0,2116.0,75.0,-6.0,
2103.0,2123.0,75.0,-6.0,
2079.0,2150.0,75.0,-6.0,
2103.0,2028.0,75.0,-6.0,
2022.0,2043.0,75.0,-6.0,
2050.0,2124.0,75.0,-6.0,
2060.0,2087.0,75.0,-7.0,
2051.0,2037.0,74.0,-7.0,
2075.0,2061.0,74.0,-7.0,
2075.0,2092.0,74.0,-7.0,
2085.0,2097.0,74.0,-7.0,
2089.0,2025.0,74.0,-6.0,
2073.0,2136.0,73.0,-6.0,
2043.0,2121.0,73.0,-6.0,
2046.0,2119.0,73.0,-6.0,
2059.0,2111.0,73.0,-6.0,
2077.0,2079.0,73.0,-6.0,
2087.0,2109.0,73.0,-6.0,
2114.0,2106.0,73.0,-6.0,
2089.0,2078.0,73.0,-6.0,
2084.0,2111.0,73.0,-6.0,
2053.0,2057.0,73.0,-6.0,
2051.0,2058.0,73.0,-6.0,
2054.0,2071.0,73.0,-6.0,
2094.0,2094.0,73.0,-6.0,
2092.0,2153.0,73.0,-6.0,
2086.0,2124.0,73.0,-6.0,
2047.0,2080.0,73.0,-6.0,
2048.0,2147.0,73.0,-6.0,
2053.0,1975.0,73.0,-6.0,
2102.0,1969.0,73.0,-6.0,
2079.0,2093.0,73.0,-6.0,
2068.0,2104.0,73.0,-6.0,
2065.0,2127.0,73.0,-6.0,
2077.0,2012.0,73.0,-6.0,
2096.0,2131.0,73.0,-6.0,
2085.0,2163.0,73.0,-6.0,
2116.0,1926.0,72.0,-6.0,
2081.0,2104.0,72.0,-6.0,
2061.0,2118.0,72.0,-6.0,
2035.0,2128.0,72.0,-6.0,
2123.0,2189.0,71.0,-6.0,
2031.0,2068.0,71.0,-6.0,
2136.0,2095.0,71.0,-6.0,
2047.0,2148.0,71.0,-5.0,
2110.0,2077.0,70.0,-5.0,
2075.0,2067.0,70.0,-5.0,
2044.0,2090.0,70.0,-5.0,
2059.0,2124.0,70.0,-5.0,
2069.0,2120.0,70.0,-5.0,
2054.0,2070.0,70.0,-5.0,
2040.0,2181.0,70.0,-5.0,
2078.0,2151.0,70.0,-5.0,
2098.0,2070.0,70.0,-5.0,
2095.0,2049.0,70.0,-5.0,
2043.0,2089.0,70.0,-5.0,
2024.0,2092.0,70.0,-5.0,
2050.0,2133.0,71.0,-5.0,
2052.0,2119.0,70.0,-6.0,
2095.0,2106.0,70.0,-6.0,
2089.0,2139.0,70.0,-6.0,
2076.0,2087.0,70.0,-6.0,
2070.0,2051.0,70.0,-6.0,
2036.0,2074.0,70.0,-6.0,
2029.0,2065.0,70.0,-6.0,
1998.0,2101.0,70.0,-6.0,
1979.0,2119.0,69.0,-6.0,
2029.0,2099.0,69.0,-6.0,
2030.0,2090.0,69.0,-6.0,
2098.0,2046.0,69.0,-6.0,
2117.0,2019.0,69.0,-6.0,
2264.0,2108.0,69.0,-6.0,
2203.0,2073.0,69.0,-6.0,
2117.0,2108.0,69.0,-6.0,
2093.0,2113.0,69.0,-6.0,
2140.0,2086.0,69.0,-6.0,
2113.0,2080.0,69.0,-6.0,
2103.0,2128.0,69.0,-6.0,
2109.0,2170.0,69.0,-6.0,
2069.0,2077.0,69.0,-6.0,
2042.0,2133.0,69.0,-5.0,
2058.0,2171.0,70.0,-5.0,
2025.0,2076.0,70.0,-5.0,
2011.0,2059.0,70.0,-5.0,
2024.0,2085.0,70.0,-5.0,
2043.0,2127.0,70.0,-5.0,
2110.0,2102.0,70.0,-5.0,
2066.0,2099.0,70.0,-5.0,
2024.0,1972.0,70.0,-5.0,
2056.0,2060.0,69.0,-5.0,
2052.0,2074.0,69.0,-5.0,
2051.0,2135.0,69.0,-6.0,
2070.0,1998.0,69.0,-6.0,
2055.0,2093.0,69.0,-6.0,
2022.0,2075.0,68.0,-5.0,
2078.0,2158.0,68.0,-5.0,
2085.0,2139.0,68.0,-5.0,
2126.0,2119.0,67.0,-5.0,
2106.0,2099.0,67.0,-5.0,
2072.0,2129.0,67.0,-5.0,
2050.0,2066.0,66.0,-5.0,
2066.0,1981.0,66.0,-5.0,
2045.0,2012.0,65.0,-5.0,
2069.0,2139.0,65.0,-5.0,
2130.0,2123.0,65.0,-4.0,
2091.0,2113.0,65.0,-4.0,
2052.0,2141.0,65.0,-4.0,
2049.0,2106.0,65.0,-4.0,
2043.0,2065.0,65.0,-4.0,
2026.0,2163.0,65.0,-4.0,
2062.0,2138.0,65.0,-4.0,
2098.0,2114.0,65.0,-5.0,
2116.0,2159.0,65.0,-5.0,
2120.0,2161.0,65.0,-5.0,
2041.0,2084.0,65.0,-5.0,
2053.0,2064.0,65.0,-5.0,
2136.0,2055.0,66.0,-5.0,
2088.0,2075.0,66.0,-5.0,
2060.0,2092.0,66.0,-5.0,
2048.0,2094.0,66.0,-5.0,
2028.0,2071.0,66.0,-6.0,
2069.0,2094.0,66.0,-6.0,
2087.0,2114.0,66.0,-6.0,
2073.0,2071.0,66.0,-6.0,
2059.0,2099.0,66.0,-6.0,
2070.0,2100.0,66.0,-6.0,
2061.0,2089.0,66.0,-6.0,
2062.0,2072.0,65.0,-6.0,
2026.0,2072.0,65.0,-6.0,
2124.0,2121.0,65.0,-6.0,
2174.0,2043.0,66.0,-6.0,
2124.0,2094.0,66.0,-6.0,
2111.0,2066.0,66.0,-6.0,
2089.0,2052.0,66.0,-6.0,
2062.0,2151.0,66.0,-5.0,
2073.0,2030.0,66.0,-5.0,
2074.0,2111.0,66.0,-5.0,
2045.0,2120.0,66.0,-5.0,
2043.0,2004.0,66.0,-5.0,
2082.0,2107.0,66.0,-5.0,
2144.0,2116.0,66.0,-5.0,
2072.0,2002.0,66.0,-5.0,
2074.0,2155.0,66.0,-5.0,
2054.0,2130.0,66.0,-5.0,
2059.0,2085.0,65.0,-6.0,
2036.0,2130.0,65.0,-6.0,
2082.0,2139.0,65.0,-6.0,
2110.0,2131.0,64.0,-6.0,
2042.0,2067.0,64.0,-6.0,
2077.0,2072.0,63.0,-5.0,
2072.0,2061.0,63.0,-5.0,
2024.0,2089.0,63.0,-5.0,
2049.0,2094.0,62.0,-5.0,
2061.0,2086.0,62.0,-5.0,
2084.0,2139.0,62.0,-4.0,
2050.0,2044.0,62.0,-4.0,
2081.0,2107.0,61.0,-4.0,
2093.0,2121.0,61.0,-4.0,
2067.0,2078.0,61.0,-4.0,
2100.0,2119.0,61.0,-4.0,
2086.0,2160.0,61.0,-4.0,
2105.0,2107.0,61.0,-4.0,
2072.0,2099.0,61.0,-5.0,
2062.0,2048.0,62.0,-5.0,
2092.0,2097.0,62.0,-5.0,
2092.0,2116.0,62.0,-5.0,
2025.0,2077.0,62.0,-5.0,
2080.0,2083.0,62.0,-5.0,
2107.0,2115.0,62.0,-5.0,
2102.0,2066.0,63.0,-5.0,
2127.0,2059.0,63.0,-5.0,
2049.0,2093.0,63.0,-5.0,
2099.0,2096.0,63.0,-5.0,
2070.0,2055.0,63.0,-5.0,
2052.0,2056.0,63.0,-5.0,
2049.0,2138.0,62.0,-5.0,
2057.0,2132.0,62.0,-5.0,
2053.0,2119.0,62.0,-5.0,
2117.0,2103.0,62.0,-5.0,
2061.0,2086.0,62.0,-5.0,
2047.0,2050.0,62.0,-5.0,
2076.0,2082.0,62.0,-5.0,
2073.0,2089.0,62.0,-5.0,
2070.0,2093.0,62.0,-5.0,
2065.0,2109.0,62.0,-5.0,
2076.0,2130.0,62.0,-5.0,
2052.0,2107.0,62.0,-5.0,
2018.0,2089.0,62.0,-5.0,
2041.0,2106.0,62.0,-5.0,
2112.0,2127.0,62.0,-5.0,
2104.0,2115.0,62.0,-5.0,
2126.0,2031.0,62.0,-5.0,
2103.0,2091.0,62.0,-5.0,
2074.0,2076.0,62.0,-5.0,
2086.0,2120.0,62.0,-5.0,
2112.0,2072.0,62.0,-5.0,
2043.0,2030.0,62.0,-5.0,
2057.0,2102.0,62.0,-6.0,
2081.0,2124.0,61.0,-6.0,
2069.0,2042.0,61.0,-6.0,
2090.0,2081.0,61.0,-5.0,
2090.0,2073.0,61.0,-5.0,
2096.0,2093.0,61.0,-5.0,
2103.0,2096.0,61.0,-5.0,
2031.0,2063.0,60.0,-5.0,
2057.0,2132.0,60.0,-5.0,
2056.0,2150.0,60.0,-5.0,
2086.0,2114.0,59.0,-5.0,
2078.0,2040.0,59.0,-4.0,
2092.0,2145.0,59.0,-4.0,
2064.0,2117.0,58.0,-4.0,
2073.0,2134.0,58.0,-4.0,
2069.0,2074.0,58.0,-4.0,
2043.0,2102.0,58.0,-4.0,
2067.0,2127.0,58.0,-4.0,
2051.0,2071.0,58.0,-4.0,
2065.0,2099.0,58.0,-4.0,
2092.0,2070.0,58.0,-4.0,
2076.0,2124.0,58.0,-4.0,
2071.0,2111.0,58.0,-4.0,
2100.0,2073.0,58.0,-4.0,
2078.0,2101.0,58.0,-4.0,
2059.0,2104.0,58.0,-4.0,
2073.0,2102.0,59.0,-4.0,
2045.0,2079.0,59.0,-4.0,
2047.0,2123.0,59.0,-4.0,
2083.0,2085.0,59.0,-4.0,
2110.0,2102.0,59.0,-4.0,
2122.0,2091.0,59.0,-4.0,
2089.0,2080.0,59.0,-5.0,
2036.0,2080.0,59.0,-5.0,
2020.0,2077.0,59.0,-5.0,
2032.0,2094.0,59.0,-5.0,
2079.0,2096.0,59.0,-5.0,
2090.0,2099.0,59.0,-5.0,
2125.0,2101.0,59.0,-5.0,
2104.0,2112.0,59.0,-5.0,
2086.0,2143.0,59.0,-5.0,
2057.0,2105.0,59.0,-5.0,
2039.0,2109.0,59.0,-5.0,
2066.0,2085.0,59.0,-5.0,
2061.0,2105.0,59.0,-5.0,
2085.0,2084.0,59.0,-5.0,
2113.0,1987.0,59.0,-5.0,
2065.0,2083.0,59.0,-5.0,
2082.0,2129.0,59.0,-5.0,
2047.0,2087.0,59.0,-5.0,
2038.0,2037.0,58.0,-5.0,
2051.0,2114.0,58.0,-5.0,
2057.0,2082.0,57.0,-5.0,
2068.0,2098.0,57.0,-5.0,
2095.0,2111.0,56.0,-5.0,
2101.0,2125.0,55.0,-5.0,
2112.0,2103.0,55.0,-4.0,
2088.0,2114.0,54.0,-4.0,
2023.0,2064.0,53.0,-4.0,
2048.0,2075.0,53.0,-4.0,
2070.0,2071.0,52.0,-4.0,
2078.0,2100.0,52.0,-4.0,
2068.0,2074.0,51.0,-4.0,
2073.0,2130.0,51.0,-4.0,
2099.0,2125.0,51.0,-3.0,
2086.0,2097.0,51.0,-3.0,
2075.0,2101.0,50.0,-4.0,
2050.0,2132.0,50.0,-4.0,
2026.0,2137.0,50.0,-4.0,
2057.0,2082.0,50.0,-4.0,
2058.0,2069.0,50.0,-4.0,
2072.0,2043.0,51.0,-4.0,
2070.0,2052.0,51.0,-4.0,
2058.0,2124.0,51.0,-4.0,
2057.0,2137.0,51.0,-4.0,
2055.0,2106.0,51.0,-4.0,
2078.0,2102.0,52.0,-4.0,
2056.0,2111.0,52.0,-4.0,
2056.0,2119.0,52.0,-5.0,
2083.0,2079.0,52.0,-5.0,
2053.0,2069.0,52.0,-5.0,
2087.0,2084.0,52.0,-5.0,
2090.0,2069.0,52.0,-5.0,
2090.0,2118.0,52.0,-5.0,
2126.0,2079.0,52.0,-5.0,
2149.0,2048.0,52.0,-5.0,
2070.0,2062.0,52.0,-5.0,
2028.0,2113.0,52.0,-5.0,
2068.0,2073.0,52.0,-5.0,
2092.0,2115.0,53.0,-5.0,
2104.0,2099.0,53.0,-5.0,
2131.0,2103.0,54.0,-5.0,
2101.0,2095.0,54.0,-5.0,
2056.0,2101.0,54.0,-5.0,
2072.0,2130.0,54.0,-5.0,
2096.0,2187.0,54.0,-5.0,
2052.0,2025.0,54.0,-5.0,
2053.0,2094.0,53.0,-5.0,
2078.0,2004.0,53.0,-5.0,
2081.0,2026.0,53.0,-5.0,
2102.0,2131.0,52.0,-5.0,
2072.0,2105.0,51.0,-5.0,
1995.0,2070.0,50.0,-5.0,
2073.0,2058.0,49.0,-5.0,
2085.0,2143.0,49.0,-5.0,
2090.0,2104.0,48.0,-4.0,
2078.0,2137.0,47.0,-4.0,
2081.0,2059.0,0,
2047.0,2055.0,45.0,-4.0,
2059.0,2124.0,45.0,-3.0,
2085.0,2120.0,44.0,-3.0,
2054.0,2056.0,43.0,-3.0,
2034.0,2118.0,42.0,-3.0,
2044.0,2141.0,42.0,-3.0,
2045.0,2097.0,41.0,-3.0,
2019.0,1988.0,41.0,-3.0,
2059.0,2116.0,41.0,-2.0,
2113.0,2115.0,41.0,-2.0,
2076.0,2106.0,41.0,-2.0,
2073.0,2106.0,41.0,-3.0,
2046.0,2119.0,42.0,-3.0,
2038.0,2124.0,42.0,-3.0,
2047.0,2122.0,43.0,-3.0,
2106.0,2131.0,43.0,-3.0,
2101.0,2099.0,44.0,-4.0,
2101.0,2075.0,44.0,-4.0,
2100.0,2081.0,44.0,-4.0,
2093.0,2095.0,44.0,-4.0,
2071.0,2075.0,45.0,-4.0,
2040.0,2092.0,45.0,-4.0,
2026.0,2105.0,45.0,-5.0,
2026.0,2093.0,45.0,-5.0,
2090.0,2063.0,45.0,-5.0,
2095.0,2098.0,45.0,-5.0,
2123.0,2103.0,45.0,-5.0,
2124.0,2095.0,45.0,-5.0,
2084.0,2076.0,45.0,-5.0,
2083.0,2104.0,45.0,-5.0,
2041.0,2117.0,45.0,-5.0,
2059.0,2107.0,45.0,-5.0,
2068.0,2107.0,45.0,-5.0,
2048.0,2099.0,45.0,-5.0,
2075.0,2106.0,45.0,-5.0,
2066.0,2116.0,45.0,-5.0,
2068.0,2101.0,45.0,-5.0,
2078.0,2059.0,45.0,-5.0,
2054.0,2097.0,45.0,-5.0,
2043.0,2099.0,45.0,-5.0,
2055.0,2084.0,45.0,-5.0,
2045.0,2097.0,45.0,-5.0,
2063.0,2103.0,46.0,-5.0,
2091.0,2095.0,46.0,-5.0,
2087.0,2105.0,46.0,-4.0,
2077.0,2099.0,47.0,-4.0,
2040.0,2093.0,47.0,-4.0,
2042.0,2095.0,47.0,-4.0,
2043.0,2120.0,47.0,-4.0,
2035.0,2087.0,47.0,-4.0,
2087.0,2098.0,47.0,-4.0,
2105.0,2145.0,47.0,-4.0,
2122.0,2118.0,47.0,-4.0,
2099.0,2038.0,47.0,-4.0,
2033.0,1990.0,47.0,-4.0,
2017.0,2106.0,47.0,-4.0,
2129.0,2095.0,0,
2057.0,1987.0,46.0,-4.0,
2002.0,2044.0,46.0,-4.0,
2095.0,2127.0,46.0,-3.0,
2137.0,2104.0,45.0,-3.0,
2080.0,2108.0,45.0,-3.0,
2085.0,2146.0,44.0,-3.0,
2060.0,2076.0,0,
2035.0,2101.0,43.0,-3.0,
2072.0,2136.0,42.0,-3.0,
2069.0,2106.0,41.0,-3.0,
2064.0,2077.0,41.0,-2.0,
2046.0,2099.0,40.0,-2.0,
2089.0,2131.0,40.0,-2.0,
2053.0,2106.0,39.0,-2.0,
2048.0,2118.0,39.0,-2.0,
2056.0,2115.0,39.0,-2.0,
2058.0,2080.0,39.0,-2.0,
2044.0,2066.0,39.0,-2.0,
2114.0,2086.0,39.0,-2.0,
2123.0,2054.0,39.0,-2.0,
2076.0,2151.0,39.0,-3.0,
2091.0,2112.0,40.0,-3.0,
2100.0,2118.0,40.0,-3.0,
2073.0,2082.0,40.0,-3.0,
2040.0,2087.0,40.0,-3.0,
2023.0,2082.0,40.0,-3.0,
2041.0,2071.0,41.0,-4.0,
2036.0,2067.0,41.0,-4.0,
2079.0,2103.0,41.0,-4.0,
2118.0,2087.0,41.0,-4.0,
2108.0,2067.0,41.0,-5.0,
2090.0,2115.0,41.0,-5.0,
2074.0,2104.0,41.0,-5.0,
2079.0,2101.0,40.0,-5.0,
2043.0,2106.0,40.0,-5.0,
2017.0,2091.0,40.0,-5.0,
2039.0,2088.0,40.0,-5.0,
2090.0,2095.0,40.0,-5.0,
2101.0,2108.0,40.0,-5.0,
2114.0,2100.0,40.0,-5.0,
2078.0,2088.0,40.0,-5.0,
2070.0,2075.0,40.0,-5.0,
2021.0,2104.0,40.0,-5.0,
2063.0,2099.0,40.0,-5.0,
2057.0,2094.0,40.0,-5.0,
2050.0,2106.0,39.0,-5.0,
2117.0,2079.0,39.0,-5.0,
2089.0,2129.0,39.0,-5.0,
2107.0,2206.0,39.0,-5.0,
2089.0,2135.0,39.0,-4.0,
2049.0,2071.0,39.0,-4.0,
2034.0,2031.0,39.0,-4.0,
2020.0,2071.0,39.0,-4.0,
2033.0,2019.0,39.0,-4.0,
2079.0,2058.0,39.0,-4.0,
2084.0,2092.0,39.0,-4.0,
2096.0,2109.0,39.0,-4.0,
2097.0,2112.0,39.0,-4.0,
2093.0,2163.0,39.0,-4.0,
2083.0,2163.0,38.0,-4.0,
2047.0,2083.0,38.0,-4.0,
2055.0,2097.0,38.0,-4.0,
2066.0,2092.0,38.0,-4.0,
2077.0,2129.0,38.0,-4.0,
2129.0,2102.0,38.0,-3.0,
2070.0,2026.0,38.0,-3.0,
2109.0,2097.0,38.0,-3.0,
2026.0,2047.0,38.0,-3.0,
2059.0,2065.0,38.0,-3.0,
2048.0,2106.0,38.0,-3.0,
2041.0,2062.0,38.0,-4.0,
2060.0,2100.0,38.0,-4.0,
2072.0,2096.0,37.0,-4.0,
2075.0,2112.0,37.0,-4.0,
2105.0,2130.0,37.0,-4.0,
2100.0,2102.0,37.0,-4.0,
2088.0,2109.0,37.0,-4.0,
2077.0,2096.0,37.0,-4.0,
2046.0,2075.0,37.0,-4.0,
2053.0,2099.0,37.0,-4.0,
2077.0,2088.0,37.0,-4.0,
2088.0,2097.0,37.0,-4.0,
2105.0,2103.0,37.0,-4.0,
2081.0,2090.0,37.0,-4.0,
2068.0,2116.0,0,
2065.0,2097.0,37.0,-5.0,
2070.0,2095.0,37.0,-5.0,
2046.0,2110.0,38.0,-5.0,
2047.0,2101.0,38.0,-5.0,
2046.0,2104.0,38.0,-5.0,
2068.0,2105.0,38.0,-5.0,
2084.0,2104.0,38.0,-5.0,
2086.0,2078.0,38.0,-5.0,
2095.0,2095.0,38.0,-5.0,
2049.0,2090.0,38.0,-5.0,
2047.0,2091.0,38.0,-5.0,
2081.0,2090.0,39.0,-5.0,
2074.0,2097.0,39.0,-5.0,
2087.0,2094.0,39.0,-5.0,
2074.0,2096.0,39.0,-4.0,
2090.0,2091.0,39.0,-4.0,
2080.0,2037.0,39.0,-4.0,
2069.0,2139.0,39.0,-4.0,
2057.0,2143.0,39.0,-4.0,
2050.0,2094.0,40.0,-4.0,
2047.0,2078.0,40.0,-4.0,
2055.0,2080.0,40.0,-4.0,
2080.0,2072.0,40.0,-4.0,
2080.0,2096.0,40.0,-4.0,
2073.0,2126.0,40.0,-4.0,
2078.0,2103.0,40.0,-4.0,
2072.0,2099.0,41.0,-4.0,
2091.0,2111.0,41.0,-4.0,
2069.0,2099.0,41.0,-4.0,
2069.0,2081.0,41.0,-4.0,
2079.0,2062.0,41.0,-4.0,
2073.0,2052.0,41.0,-4.0,
2085.0,2085.0,41.0,-4.0,
2110.0,2092.0,42.0,-4.0,
2137.0,2091.0,42.0,-4.0,
2088.0,2083.0,42.0,-4.0,
2067.0,2094.0,42.0,-4.0,
2072.0,2085.0,42.0,-4.0,
2075.0,2100.0,42.0,-4.0,
2044.0,2066.0,42.0,-4.0,
2086.0,2140.0,42.0,-4.0,
2128.0,2088.0,42.0,-4.0,
2053.0,2096.0,42.0,-4.0,
2068.0,2081.0,42.0,-4.0,
2073.0,2107.0,42.0,-4.0,
2049.0,2143.0,42.0,-4.0,
2070.0,2079.0,42.0,-4.0,
2079.0,2081.0,42.0,-4.0,
2072.0,2065.0,42.0,-4.0,
2069.0,2119.0,41.0,-4.0,
2135.0,2160.0,41.0,-4.0,
2097.0,2095.0,41.0,-4.0,
2117.0,2119.0,41.0,-4.0,
2018.0,2040.0,41.0,-4.0,
2034.0,2035.0,41.0,-4.0,
2051.0,2061.0,40.0,-4.0,
2057.0,2093.0,40.0,-4.0,
2077.0,2105.0,40.0,-4.0,
2100.0,2126.0,39.0,-4.0,
2071.0,2130.0,39.0,-4.0,
2086.0,2127.0,39.0,-4.0,
2051.0,2104.0,39.0,-4.0,
2042.0,2112.0,39.0,-4.0,
2076.0,2101.0,39.0,-4.0,
2125.0,2056.0,38.0,-4.0,
2190.0,2128.0,38.0,-4.0,
2134.0,2128.0,38.0,-4.0,
2108.0,2069.0,38.0,-4.0,
2086.0,2100.0,38.0,-4.0,
2092.0,2094.0,38.0,-4.0,
2075.0,2081.0,38.0,-4.0,
2035.0,2111.0,38.0,-4.0,
2023.0,2097.0,38.0,-4.0,
2036.0,2104.0,38.0,-4.0,
2081.0,2109.0,38.0,-5.0,
2047.0,2102.0,38.0,-5.0,
2056.0,2111.0,38.0,-5.0,
2071.0,2086.0,38.0,-5.0,
2110.0,2084.0,38.0,-5.0,
2097.0,2077.0,38.0,-5.0,
2053.0,2078.0,38.0,-5.0,
2083.0,2084.0,38.0,-5.0,
2079.0,2088.0,38.0,-5.0,
2079.0,2092.0,38.0,-5.0,
2081.0,2093.0,0,
2084.0,2109.0,38.0,-5.0,
2074.0,2114.0,38.0,-5.0,
2060.0,2107.0,38.0,-5.0,
2032.0,2043.0,38.0,-5.0,
2057.0,2092.0,38.0,-5.0,
2040.0,2142.0,38.0,-5.0,
2059.0,2101.0,38.0,-5.0,
2089.0,2071.0,38.0,-5.0,
2077.0,2111.0,38.0,-5.0,
2078.0,2053.0,38.0,-5.0,
2073.0,2073.0,38.0,-5.0,
2059.0,2104.0,38.0,-5.0,
2067.0,2056.0,38.0,-5.0,
2054.0,2096.0,38.0,-4.0,
2062.0,2099.0,38.0,-4.0,
2081.0,2104.0,38.0,-4.0,
2096.0,2135.0,38.0,-4.0,
2103.0,2108.0,38.0,-4.0,
2058.0,2116.0,38.0,-4.0,
2058.0,2102.0,38.0,-4.0,
2052.0,2134.0,38.0,-4.0,
2054.0,2030.0,38.0,-4.0,
2047.0,2072.0,38.0,-4.0,
2051.0,2080.0,38.0,-4.0,
2085.0,2084.0,38.0,-4.0,
2102.0,2094.0,38.0,-4.0,
2124.0,2088.0,38.0,-4.0,
2099.0,2107.0,38.0,-4.0,
2053.0,2114.0,38.0,-4.0,
2059.0,2093.0,38.0,-4.0,
2041.0,2102.0,38.0,-4.0,
2101.0,2104.0,38.0,-4.0,
2053.0,2107.0,38.0,-4.0,
2061.0,2112.0,38.0,-4.0,
2092.0,2071.0,38.0,-4.0,
2135.0,2087.0,38.0,-4.0,
2088.0,2087.0,38.0,-4.0,
2069.0,2102.0,0,
2082.0,2101.0,38.0,-4.0,
2050.0,2097.0,38.0,-4.0,
2041.0,2088.0,38.0,-4.0,
2060.0,2089.0,38.0,-4.0,
2048.0,2097.0,38.0,-4.0,
2077.0,2113.0,38.0,-4.0,
2066.0,2116.0,38.0,-4.0,
2051.0,2092.0,38.0,-4.0,
2084.0,2083.0,38.0,-4.0,
2088.0,2091.0,38.0,-4.0,
2051.0,2096.0,38.0,-4.0,
2051.0,2096.0,38.0,-4.0,
2059.0,2099.0,38.0,-4.0,
2092.0,2106.0,38.0,-4.0,
2089.0,2089.0,39.0,-4.0,
2059.0,2097.0,39.0,-4.0,
2054.0,2080.0,39.0,-4.0,
2050.0,2088.0,39.0,-4.0,
2028.0,2079.0,39.0,-4.0,
2093.0,2089.0,39.0,-4.0,
2085.0,2080.0,39.0,-4.0,
2127.0,2079.0,39.0,-4.0,
2097.0,2089.0,39.0,-4.0,
2104.0,2103.0,39.0,-4.0,
2091.0,2104.0,39.0,-4.0,
2079.0,2097.0,39.0,-4.0,
2064.0,2084.0,39.0,-4.0,
2038.0,2098.0,39.0,-4.0,
2044.0,2104.0,39.0,-4.0,
2065.0,2130.0,39.0,-4.0,
2060.0,2091.0,39.0,-4.0,
2068.0,2056.0,39.0,-4.0,
2086.0,2059.0,39.0,-4.0,
2046.0,2098.0,39.0,-4.0,
1997.0,2091.0,39.0,-4.0,
2054.0,2070.0,39.0,-4.0,
2047.0,2045.0,39.0,-4.0,
2020.0,2075.0,39.0,-4.0,
2071.0,2084.0,39.0,-4.0,
2103.0,2124.0,39.0,-4.0,
2094.0,2146.0,39.0,-4.0,
2101.0,2118.0,39.0,-4.0,
2103.0,2056.0,39.0,-4.0,
2084.0,2049.0,39.0,-4.0,
2062.0,2090.0,38.0,-4.0,
2051.0,2099.0,38.0,-4.0,
2081.0,2106.0,38.0,-4.0,
2109.0,2102.0,38.0,-4.0,
2092.0,2106.0,38.0,-4.0,
2090.0,2117.0,38.0,-4.0,
2093.0,2112.0,38.0,-4.0,
2081.0,2110.0,37.0,-4.0,
2063.0,2106.0,37.0,-4.0,
2075.0,2102.0,37.0,-4.0,
2107.0,2102.0,37.0,-4.0,
2079.0,2113.0,37.0,-4.0,
2052.0,2097.0,37.0,-4.0,
2073.0,2098.0,37.0,-4.0,
2081.0,2111.0,37.0,-4.0,
2080.0,2113.0,37.0,-4.0,
2059.0,2107.0,37.0,-4.0,
2042.0,2088.0,37.0,-4.0,
2059.0,2078.0,37.0,-5.0,
2046.0,2071.0,37.0,-5.0,
2064.0,2082.0,37.0,-5.0,
2077.0,2091.0,37.0,-5.0,
2100.0,2096.0,37.0,-5.0,
2085.0,2102.0,37.0,-5.0,
2072.0,2134.0,37.0,-5.0,
2077.0,2093.0,37.0,-5.0,
2078.0,2095.0,37.0,-5.0,
2062.0,2089.0,37.0,-5.0,
2054.0,2084.0,37.0,-5.0,
2069.0,2100.0,37.0,-5.0,
2067.0,2092.0,37.0,-5.0,
2067.0,2103.0,37.0,-5.0,
2083.0,2095.0,37.0,-5.0,
2098.0,2095.0,37.0,-4.0,
2065.0,2095.0,38.0,-4.0,
2053.0,2094.0,38.0,-4.0,
2062.0,2103.0,38.0,-4.0,
2065.0,2097.0,38.0,-4.0,
2063.0,2072.0,38.0,-4.0,
2066.0,2095.0,38.0,-4.0,
2067.0,2092.0,38.0,-4.0,
2080.0,2079.0,38.0,-4.0,
2116.0,2095.0,38.0,-4.0,
2094.0,2121.0,38.0,-4.0,
2054.0,2093.0,38.0,-4.0,
2079.0,2084.0,38.0,-4.0,
2053.0,2106.0,38.0,-4.0,
2074.0,2050.0,38.0,-4.0,
2098.0,2058.0,39.0,-4.0,
2097.0,2076.0,39.0,-4.0,
2090.0,2074.0,39.0,-4.0,
2071.0,2133.0,39.0,-4.0,
2039.0,2123.0,39.0,-4.0,
2047.0,2118.0,39.0,-4.0,
2015.0,2036.0,39.0,-4.0,
2087.0,2053.0,39.0,-4.0,
2064.0,2070.0,39.0,-4.0,
2051.0,2119.0,39.0,-4.0,
2080.0,2075.0,38.0,-4.0,
2088.0,2134.0,38.0,-4.0,
2047.0,2068.0,38.0,-4.0,
2063.0,2100.0,38.0,-4.0,
2112.0,2146.0,38.0,-4.0,
2078.0,2051.0,38.0,-4.0,
2068.0,2062.0,38.0,-4.0,
2077.0,2082.0,38.0,-4.0,
2115.0,2105.0,38.0,-4.0,
2104.0,2120.0,38.0,-4.0,
2092.0,2132.0,38.0,-4.0,
2062.0,2027.0,38.0,-4.0,
2039.0,2074.0,38.0,-4.0,
2074.0,2111.0,37.0,-4.0,
2076.0,2095.0,37.0,-4.0,
2068.0,2108.0,37.0,-4.0,
2064.0,2116.0,38.0,-4.0,
2055.0,2117.0,37.0,-4.0,
2057.0,2130.0,37.0,-4.0,
2058.0,2126.0,37.0,-4.0,
2033.0,2059.0,37.0,-4.0,
2085.0,2089.0,37.0,-4.0,
2088.0,2099.0,37.0,-4.0,
2053.0,2064.0,37.0,-4.0,
2069.0,2088.0,37.0,-4.0,
2124.0,2102.0,37.0,-4.0,
2107.0,2099.0,37.0,-4.0,
2082.0,2089.0,37.0,-4.0,
2082.0,2092.0,37.0,-4.0,
2037.0,2093.0,37.0,-4.0,
2068.0,2118.0,37.0,-4.0,
2067.0,2105.0,37.0,-5.0,
2069.0,2098.0,37.0,-5.0,
2055.0,2095.0,37.0,-5.0,
2092.0,2096.0,37.0,-4.0,
2098.0,2092.0,37.0,-4.0,
2090.0,2099.0,37.0,-4.0,
2101.0,2096.0,37.0,-4.0,
2035.0,2088.0,38.0,-4.0,
2030.0,2089.0,38.0,-4.0,
2041.0,2091.0,38.0,-4.0,
2059.0,2101.0,38.0,-4.0,
2112.0,2103.0,38.0,-4.0,
2142.0,2114.0,38.0,-4.0,
2085.0,2126.0,38.0,-4.0,
2066.0,2061.0,38.0,-4.0,
2058.0,2061.0,38.0,-4.0,
2084.0,2101.0,0,
2071.0,2121.0,38.0,-4.0,
2028.0,2063.0,38.0,-4.0,
2038.0,2094.0,38.0,-4.0,
2117.0,2114.0,38.0,-4.0,
2098.0,2074.0,38.0,-4.0,
2071.0,2052.0,38.0,-4.0,
2046.0,2050.0,38.0,-4.0,
2055.0,2081.0,38.0,-4.0,
2041.0,2094.0,38.0,-4.0,
2083.0,2078.0,38.0,-4.0,
2073.0,2090.0,38.0,-4.0,
2091.0,2109.0,38.0,-4.0,
2107.0,2124.0,38.0,-4.0,
2090.0,2123.0,38.0,-4.0,
2065.0,2166.0,38.0,-4.0,
2076.0,2138.0,38.0,-4.0,
2057.0,2097.0,38.0,-4.0,
2035.0,2099.0,38.0,-4.0,
2056.0,2123.0,38.0,-4.0,
2097.0,2115.0,38.0,-4.0,
2105.0,2041.0,38.0,-4.0,
2056.0,2057.0,38.0,-4.0,
2070.0,2094.0,38.0,-4.0,
2090.0,2096.0,38.0,-4.0,
2082.0,2080.0,38.0,-4.0,
2040.0,2095.0,38.0,-4.0,
2054.0,2096.0,38.0,-4.0,
2063.0,2098.0,37.0,-4.0,
2070.0,2103.0,37.0,-4.0,
2077.0,2105.0,37.0,-4.0,
2136.0,2105.0,37.0,-5.0,
2111.0,2107.0,37.0,-5.0,
2080.0,2108.0,37.0,-5.0,
2082.0,2072.0,37.0,-5.0,
2049.0,2116.0,37.0,-5.0,
2043.0,2076.0,37.0,-5.0,
2072.0,2076.0,37.0,-5.0,
2073.0,2096.0,37.0,-5.0,
2071.0,2105.0,37.0,-5.0,
2056.0,2103.0,38.0,-5.0,
2052.0,2094.0,38.0,-5.0,
2040.0,2091.0,38.0,-5.0,
2038.0,2091.0,38.0,-5.0,
2076.0,2089.0,38.0,-5.0,
2097.0,2085.0,38.0,-5.0,
2108.0,2095.0,38.0,-5.0,
2106.0,2096.0,38.0,-5.0,
2084.0,2094.0,38.0,-5.0,
2085.0,2095.0,38.0,-5.0,
2054.0,2081.0,38.0,-5.0,
2072.0,2074.0,38.0,-5.0,
2085.0,2080.0,38.0,-5.0,
2081.0,2084.0,38.0,-5.0,
2064.0,2081.0,38.0,-4.0,
2078.0,2090.0,38.0,-4.0,
2070.0,2091.0,38.0,-4.0,
2087.0,2102.0,38.0,-4.0,
2080.0,2099.0,38.0,-4.0,
2062.0,2105.0,38.0,-4.0,
2069.0,2094.0,38.0,-4.0,
2067.0,2076.0,38.0,-4.0,
2046.0,2085.0,38.0,-4.0,
2057.0,2078.0,38.0,-4.0,
2056.0,2092.0,38.0,-4.0,
2043.0,2108.0,38.0,-4.0,
2072.0,2121.0,38.0,-4.0,
2072.0,2104.0,38.0,-4.0,
2066.0,2101.0,38.0,-4.0,
2136.0,2104.0,38.0,-4.0,
2074.0,2066.0,38.0,-4.0,
2057.0,2067.0,38.0,-4.0,
2109.0,2084.0,38.0,-4.0,
2078.0,2081.0,38.0,-4.0,
2094.0,2094.0,38.0,-4.0,
2076.0,2096.0,38.0,-5.0,
2088.0,2100.0,38.0,-5.0,
2060.0,2106.0,38.0,-5.0,
2058.0,2113.0,38.0,-4.0,
2063.0,2104.0,38.0,-5.0,
2039.0,2108.0,38.0,-5.0,
2056.0,2184.0,38.0,-4.0,
2074.0,2073.0,38.0,-4.0,
2062.0,2103.0,38.0,-4.0,
2058.0,2053.0,38.0,-4.0,
2074.0,2119.0,38.0,-4.0,
2052.0,2063.0,38.0,-4.0,
2045.0,2081.0,38.0,-4.0,
2076.0,2078.0,38.0,-4.0,
2025.0,2050.0,38.0,-4.0,
2038.0,2097.0,38.0,-4.0,
2064.0,2093.0,38.0,-4.0,
2056.0,2073.0,38.0,-4.0,
2070.0,2090.0,38.0,-4.0,
2171.0,2082.0,37.0,-4.0,
2124.0,2074.0,37.0,-4.0,
2081.0,2105.0,37.0,-4.0,
2071.0,2108.0,37.0,-4.0,
2066.0,2104.0,37.0,-4.0,
2080.0,2113.0,37.0,-4.0,
2082.0,2117.0,36.0,-4.0,
2096.0,2118.0,36.0,-4.0,
2070.0,2115.0,36.0,-4.0,
2073.0,2108.0,36.0,-4.0,
2052.0,2103.0,36.0,-4.0,
2049.0,2100.0,36.0,-4.0,
2049.0,2099.0,36.0,-5.0,
2074.0,2103.0,37.0,-5.0,
2067.0,2109.0,37.0,-5.0,
2077.0,2113.0,37.0,-5.0,
2080.0,2097.0,37.0,-5.0,
2082.0,2076.0,37.0,-5.0,
2077.0,2085.0,37.0,-5.0,
2043.0,2092.0,37.0,-5.0,
2055.0,2090.0,37.0,-5.0,
2054.0,2089.0,37.0,-5.0,
2069.0,2090.0,37.0,-5.0,
2072.0,2099.0,37.0,-5.0,
2064.0,2079.0,37.0,-5.0,
2092.0,2071.0,37.0,-5.0,
2063.0,2075.0,37.0,-5.0,
2064.0,2088.0,37.0,-5.0,
2087.0,2103.0,37.0,-5.0,
2047.0,2073.0,37.0,-5.0,
2101.0,2064.0,37.0,-5.0,
2133.0,2117.0,37.0,-5.0,
2103.0,2085.0,37.0,-5.0,
2063.0,2067.0,38.0,-5.0,
2064.0,2079.0,38.0,-5.0,
2080.0,2081.0,38.0,-5.0,
2079.0,2092.0,38.0,-4.0,
2062.0,2102.0,38.0,-4.0,
2053.0,2086.0,38.0,-4.0,
2044.0,2098.0,38.0,-4.0,
2086.0,2095.0,38.0,-4.0,
2084.0,2095.0,38.0,-4.0,
2075.0,2098.0,38.0,-4.0,
2087.0,2103.0,38.0,-4.0,
2081.0,2105.0,38.0,-4.0,
2069.0,2103.0,38.0,-4.0,
2068.0,2103.0,38.0,-4.0,
2068.0,2113.0,38.0,-4.0,
2067.0,2101.0,38.0,-4.0,
2091.0,2082.0,38.0,-4.0,
2075.0,2111.0,38.0,-4.0,
2081.0,2118.0,38.0,-4.0,
2050.0,2108.0,38.0,-4.0,
2056.0,2099.0,38.0,-4.0,
2044.0,2093.0,38.0,-4.0,
2073.0,2085.0,38.0,-4.0,
2080.0,2088.0,38.0,-4.0,
2109.0,2087.0,38.0,-4.0,
2084.0,2095.0,38.0,-4.0,
2111.0,2094.0,38.0,-4.0,
2108.0,2098.0,38.0,-4.0,
2087.0,2086.0,38.0,-4.0,
2068.0,2084.0,38.0,-4.0,
2065.0,2087.0,38.0,-4.0,
2064.0,2085.0,38.0,-4.0,
2077.0,2089.0,38.0,-4.0,
2084.0,2093.0,38.0,-5.0,
2096.0,2099.0,38.0,-5.0,
2076.0,2096.0,38.0,-5.0,
2055.0,2115.0,38.0,-5.0,
2046.0,2090.0,38.0,-5.0,
2031.0,2083.0,38.0,-5.0,
2056.0,2125.0,38.0,-5.0,
2047.0,2126.0,38.0,-5.0,
2110.0,2075.0,38.0,-5.0,
2102.0,2056.0,38.0,-5.0,
2100.0,2069.0,38.0,-5.0,
2089.0,2094.0,38.0,-5.0,
2092.0,2086.0,38.0,-5.0,
2066.0,2091.0,38.0,-5.0,
2045.0,2102.0,38.0,-5.0,
2049.0,2091.0,38.0,-5.0,
2061.0,2105.0,38.0,-5.0,
2100.0,2089.0,38.0,-5.0,
2118.0,2114.0,38.0,-5.0,
2098.0,2111.0,38.0,-5.0,
2100.0,2111.0,38.0,-5.0,
2056.0,2092.0,38.0,-5.0,
2071.0,2088.0,38.0,-5.0,
2056.0,2100.0,38.0,-5.0,
2065.0,2096.0,38.0,-5.0,
2075.0,2105.0,38.0,-5.0,
2070.0,2126.0,38.0,-4.0,
2043.0,2114.0,38.0,-4.0,
2038.0,2087.0,38.0,-5.0,
2054.0,2075.0,38.0,-4.0,
2071.0,2092.0,38.0,-4.0,
2077.0,2124.0,38.0,-4.0,
2072.0,2121.0,37.0,-4.0,
2071.0,2080.0,37.0,-4.0,
2067.0,2050.0,37.0,-4.0,
2067.0,2077.0,37.0,-4.0,
2082.0,2089.0,37.0,-4.0,
2080.0,2052.0,37.0,-4.0,
2091.0,2096.0,37.0,-4.0,
2060.0,2120.0,37.0,-4.0,
2060.0,2075.0,37.0,-5.0,
2059.0,2088.0,36.0,-5.0,
2050.0,2100.0,36.0,-5.0,
2057.0,2085.0,36.0,-5.0,
2063.0,2090.0,36.0,-5.0,
2091.0,2115.0,36.0,-5.0,
2074.0,2115.0,36.0,-4.0,
2081.0,2111.0,36.0,-4.0,
2074.0,2108.0,36.0,-4.0,
2056.0,2089.0,36.0,-4.0,
2035.0,2093.0,36.0,-4.0,
2052.0,2093.0,36.0,-4.0,
2058.0,2101.0,36.0,-4.0,
2100.0,2103.0,36.0,-4.0,
2092.0,2100.0,36.0,-5.0,
2071.0,2098.0,36.0,-5.0,
2066.0,2090.0,36.0,-5.0,
2082.0,2112.0,36.0,-5.0,
2053.0,2101.0,36.0,-5.0,
2037.0,2066.0,36.0,-5.0,
2050.0,2089.0,36.0,-5.0,
2111.0,2115.0,36.0,-5.0,
2134.0,2097.0,37.0,-5.0,
2086.0,2062.0,37.0,-5.0,
2082.0,2098.0,37.0,-5.0,
2082.0,2127.0,37.0,-5.0,
2043.0,2073.0,37.0,-5.0,
2027.0,2064.0,37.0,-5.0,
2038.0,2021.0,37.0,-5.0,
2045.0,2058.0,37.0,-5.0,
2080.0,2074.0,37.0,-5.0,
2094.0,2092.0,37.0,-5.0,
2116.0,2102.0,37.0,-5.0,
2092.0,2107.0,37.0,-5.0,
2087.0,2104.0,37.0,-5.0,
2058.0,2108.0,37.0,-4.0,
2043.0,2109.0,37.0,-4.0,
2047.0,2096.0,37.0,-4.0,
2077.0,2095.0,37.0,-4.0,
2074.0,2099.0,37.0,-4.0,
2067.0,2106.0,37.0,-4.0,
2088.0,2110.0,37.0,-4.0,
2095.0,2102.0,37.0,-4.0,
2082.0,2103.0,37.0,-4.0,
2045.0,2102.0,37.0,-5.0,
2056.0,2103.0,37.0,-5.0,
2053.0,2089.0,37.0,-5.0,
2064.0,2092.0,38.0,-5.0,
2085.0,2097.0,38.0,-5.0,
2082.0,2096.0,38.0,-5.0,
2073.0,2093.0,38.0,-5.0,
2085.0,2091.0,38.0,-5.0,
2059.0,2097.0,38.0,-5.0,
2056.0,2088.0,38.0,-5.0,
2065.0,2089.0,38.0,-5.0,
2059.0,2093.0,38.0,-5.0,
2088.0,2100.0,38.0,-5.0,
2083.0,2098.0,38.0,-5.0,
2083.0,2097.0,38.0,-5.0,
2098.0,2101.0,38.0,-5.0,
2054.0,2100.0,38.0,-5.0,
2097.0,2092.0,38.0,-5.0,
2078.0,2089.0,38.0,-5.0,
2057.0,2090.0,38.0,-5.0,
2059.0,2089.0,38.0,-5.0,
2089.0,2099.0,38.0,-5.0,
2071.0,2103.0,38.0,-5.0,
2086.0,2101.0,38.0,-5.0,
2098.0,2093.0,38.0,-5.0,
2075.0,2087.0,38.0,-5.0,
2039.0,2066.0,38.0,-5.0,
2078.0,2095.0,38.0,-5.0,
2074.0,2095.0,38.0,-5.0,
2066.0,2091.0,38.0,-5.0,
2068.0,2097.0,38.0,-5.0,
2073.0,2107.0,38.0,-5.0,
2055.0,2076.0,38.0,-5.0,
2068.0,2090.0,38.0,-5.0,
2087.0,2100.0,38.0,-5.0,
2060.0,2100.0,38.0,-5.0,
2074.0,2088.0,37.0,-5.0,
2062.0,2110.0,37.0,-5.0,
2089.0,2115.0,37.0,-5.0,
2079.0,2053.0,37.0,-5.0,
2097.0,2106.0,0,
2068.0,2052.0,37.0,-5.0,
2063.0,2074.0,37.0,-5.0,
2065.0,2100.0,37.0,-5.0,
2046.0,2071.0,37.0,-5.0,
2046.0,2089.0,37.0,-5.0,
2023.0,2090.0,37.0,-5.0,
2060.0,2109.0,37.0,-5.0,
2069.0,2107.0,37.0,-5.0,
2074.0,2115.0,37.0,-5.0,
2106.0,2129.0,37.0,-5.0,
2076.0,2112.0,37.0,-5.0,
2046.0,2067.0,37.0,-5.0,
2058.0,2087.0,37.0,-5.0,
2067.0,2073.0,37.0,-5.0,
2061.0,2081.0,37.0,-5.0,
2084.0,2103.0,37.0,-5.0,
2085.0,2096.0,37.0,-5.0,
2096.0,2101.0,37.0,-5.0,
2085.0,2095.0,37.0,-5.0,
2067.0,2087.0,37.0,-5.0,
2042.0,2085.0,37.0,-5.0,
2035.0,2083.0,36.0,-5.0,
2044.0,2103.0,36.0,-5.0,
2039.0,2114.0,36.0,-5.0,
2114.0,2115.0,36.0,-5.0,
2107.0,2056.0,36.0,-5.0,
2085.0,2071.0,36.0,-5.0,
2088.0,2116.0,36.0,-5.0,
2101.0,2088.0,36.0,-5.0,
2076.0,2059.0,36.0,-5.0,
2065.0,2057.0,36.0,-5.0,
2066.0,2084.0,36.0,-5.0,
2068.0,2106.0,36.0,-5.0,
2117.0,2125.0,36.0,-5.0,
2107.0,2089.0,36.0,-5.0,
2072.0,2092.0,36.0,-5.0,
2069.0,2103.0,36.0,-5.0,
2078.0,2111.0,36.0,-5.0,
2031.0,2095.0,36.0,-5.0,
2025.0,2091.0,36.0,-5.0,
2083.0,2085.0,36.0,-5.0,
2071.0,2100.0,36.0,-5.0,
2082.0,2102.0,36.0,-5.0,
2084.0,2108.0,36.0,-5.0,
2081.0,2103.0,36.0,-5.0,
2073.0,2104.0,36.0,-5.0,
2061.0,2109.0,36.0,-5.0,
2037.0,2082.0,37.0,-5.0,
2041.0,2089.0,37.0,-5.0,
2072.0,2083.0,37.0,-5.0,
2145.0,2101.0,37.0,-5.0,
2133.0,2079.0,37.0,-5.0,
2099.0,2083.0,37.0,-5.0,
2101.0,2093.0,37.0,-5.0,
2092.0,2097.0,37.0,-5.0,
2057.0,2103.0,37.0,-5.0,
2058.0,2086.0,37.0,-5.0,
2051.0,2085.0,37.0,-5.0,
2057.0,2097.0,37.0,-5.0,
2069.0,2104.0,37.0,-5.0,
2074.0,2099.0,37.0,-5.0,
2102.0,2128.0,37.0,-5.0,
2091.0,2138.0,37.0,-5.0,
2052.0,2056.0,37.0,-5.0,
2076.0,2073.0,37.0,-5.0,
2051.0,2067.0,37.0,-5.0,
2051.0,2057.0,37.0,-5.0,
2074.0,2085.0,37.0,-5.0,
2093.0,2108.0,37.0,-5.0,
2109.0,2149.0,37.0,-5.0,
2046.0,2030.0,37.0,-5.0,
2053.0,2037.0,37.0,-5.0,
2042.0,2073.0,37.0,-5.0,
2051.0,2099.0,37.0,-5.0,
2048.0,2110.0,37.0,-5.0,
2042.0,2104.0,37.0,-5.0,
2088.0,2097.0,37.0,-5.0,
2088.0,2098.0,0,
2142.0,2111.0,37.0,-5.0,
2108.0,2119.0,37.0,-4.0,
2094.0,2115.0,37.0,-4.0,
2061.0,2092.0,37.0,-5.0,
2044.0,2099.0,37.0,-5.0,
2054.0,2091.0,37.0,-5.0,
2051.0,2070.0,37.0,-5.0,
2109.0,2094.0,37.0,-5.0,
2108.0,2095.0,37.0,-5.0,
2084.0,2091.0,37.0,-5.0,
2084.0,2105.0,37.0,-5.0,
2071.0,2104.0,37.0,-5.0,
2068.0,2110.0,37.0,-5.0,
2041.0,2052.0,37.0,-5.0,
1992.0,2112.0,37.0,-5.0,
2065.0,2138.0,37.0,-5.0,
2085.0,2047.0,37.0,-5.0,
2068.0,2072.0,37.0,-5.0,
2089.0,2087.0,37.0,-5.0,
2062.0,2076.0,37.0,-5.0,
2058.0,2093.0,37.0,-5.0,
2095.0,2093.0,37.0,-5.0,
2078.0,2103.0,37.0,-5.0,
2071.0,2108.0,37.0,-5.0,
2069.0,2087.0,37.0,-5.0,
2056.0,2104.0,37.0,-5.0,
2067.0,2080.0,37.0,-5.0,
2068.0,2098.0,37.0,-5.0,
2074.0,2088.0,37.0,-5.0,
2087.0,2091.0,37.0,-5.0,
2063.0,2093.0,37.0,-5.0,
2057.0,2092.0,37.0,-5.0,
2075.0,2097.0,37.0,-5.0,
2095.0,2114.0,37.0,-5.0,
2081.0,2103.0,37.0,-5.0,
2092.0,2074.0,37.0,-5.0,
2072.0,2083.0,37.0,-5.0,
2058.0,2083.0,37.0,-5.0,
2057.0,2082.0,37.0,-5.0,
2051.0,2089.0,37.0,-5.0,
2048.0,2096.0,37.0,-5.0,
2056.0,2102.0,37.0,-5.0,
2101.0,2102.0,37.0,-5.0,
2089.0,2101.0,37.0,-5.0,
2115.0,2102.0,37.0,-5.0,
2093.0,2050.0,37.0,-5.0,
2096.0,2085.0,37.0,-5.0,
2063.0,2093.0,37.0,-5.0,
2052.0,2096.0,37.0,-5.0,
2053.0,2072.0,37.0,-5.0,
2071.0,2098.0,37.0,-5.0,
2068.0,2125.0,37.0,-5.0,
2092.0,2071.0,37.0,-5.0,
2127.0,2099.0,37.0,-5.0,
2091.0,2092.0,37.0,-5.0,
2080.0,2094.0,37.0,-5.0,
2082.0,2092.0,37.0,-5.0,
2068.0,2101.0,37.0,-5.0,
2080.0,2118.0,37.0,-5.0,
2066.0,2111.0,37.0,-5.0,
2072.0,2076.0,37.0,-5.0,
2056.0,2103.0,37.0,-5.0,
2058.0,2090.0,37.0,-5.0,
2065.0,2092.0,37.0,-5.0,
2089.0,2067.0,37.0,-5.0,
2042.0,2121.0,37.0,-5.0,
2058.0,2127.0,37.0,-5.0,
2082.0,2043.0,37.0,-5.0,
2093.0,2047.0,37.0,-5.0,
2113.0,2074.0,37.0,-5.0,
2103.0,2084.0,37.0,-5.0,
2104.0,2122.0,37.0,-5.0,
2080.0,2088.0,37.0,-5.0,
2026.0,2101.0,37.0,-5.0,
2074.0,2152.0,37.0,-5.0,
2019.0,1998.0,37.0,-5.0,
2043.0,2075.0,37.0,-5.0,
2057.0,2060.0,37.0,-5.0,
2085.0,2107.0,37.0,-5.0,
2086.0,2092.0,37.0,-5.0,
2091.0,2102.0,37.0,-5.0,
2075.0,2117.0,37.0,-4.0,
2062.0,2112.0,37.0,-5.0,
2058.0,2103.0,37.0,-4.0,
2071.0,2130.0,37.0,-5.0,
2082.0,2125.0,37.0,-4.0,
2122.0,2087.0,36.0,-5.0,
2097.0,2083.0,37.0,-5.0,
2090.0,2103.0,37.0,-5.0,
2098.0,2102.0,37.0,-5.0,
2057.0,2102.0,37.0,-5.0,
2068.0,2082.0,37.0,-5.0,
2056.0,2086.0,37.0,-5.0,
2072.0,2093.0,37.0,-5.0,
2098.0,2102.0,37.0,-5.0,
2080.0,2112.0,37.0,-5.0,
2083.0,2092.0,37.0,-5.0,
2077.0,2092.0,37.0,-5.0,
2081.0,2093.0,37.0,-5.0,
2077.0,2083.0,37.0,-5.0,
2030.0,2079.0,37.0,-5.0,
2045.0,2098.0,37.0,-5.0,
2056.0,2093.0,37.0,-5.0,
2098.0,2115.0,37.0,-5.0,
2106.0,2133.0,37.0,-5.0,
2072.0,2123.0,37.0,-5.0,
2042.0,2051.0,37.0,-5.0,
2043.0,2117.0,37.0,-5.0,
2074.0,2061.0,37.0,-5.0,
2065.0,2060.0,37.0,-5.0,
2055.0,2066.0,37.0,-5.0,
2061.0,2051.0,37.0,-5.0,
2060.0,2072.0,37.0,-5.0,
2063.0,2076.0,37.0,-5.0,
2096.0,2103.0,37.0,-5.0,
2102.0,2087.0,37.0,-5.0,
2087.0,2101.0,37.0,-5.0,
2041.0,2117.0,37.0,-5.0,
2051.0,2138.0,37.0,-5.0,
2057.0,2150.0,37.0,-5.0,
2061.0,2158.0,37.0,-5.0,
2057.0,2100.0,37.0,-5.0,
2093.0,2012.0,37.0,-5.0,
2041.0,2031.0,37.0,-5.0,
2057.0,2090.0,37.0,-5.0,
2080.0,2115.0,37.0,-5.0,
2059.0,2154.0,37.0,-5.0,
2046.0,2139.0,37.0,-5.0,
2062.0,2084.0,37.0,-5.0,
2130.0,2026.0,37.0,-5.0,
2114.0,1999.0,37.0,-5.0,
2136.0,2093.0,37.0,-5.0,
2129.0,2108.0,37.0,-5.0,
2125.0,2142.0,37.0,-5.0,
2039.0,2096.0,37.0,-5.0,
2003.0,2031.0,37.0,-5.0,
2046.0,2096.0,37.0,-5.0,
2100.0,2093.0,37.0,-5.0,
2060.0,2091.0,36.0,-5.0,
2076.0,2139.0,36.0,-5.0,
2060.0,2108.0,36.0,-5.0,
2043.0,2097.0,36.0,-5.0,
2012.0,2135.0,36.0,-5.0,
2069.0,2062.0,36.0,-5.0,
2128.0,2072.0,36.0,-5.0,
2114.0,2122.0,36.0,-5.0,
2098.0,2226.0,35.0,-5.0,
2039.0,2085.0,35.0,-5.0,
2020.0,2056.0,35.0,-5.0,
2106.0,2089.0,35.0,-5.0,
2096.0,2072.0,36.0,-5.0,
2067.0,2079.0,36.0,-5.0,
2069.0,2114.0,36.0,-5.0,
2085.0,2123.0,36.0,-5.0,
2050.0,2099.0,36.0,-5.0,
2041.0,2092.0,36.0,-5.0,
2108.0,2098.0,36.0,-5.0,
2103.0,2061.0,36.0,-5.0,
2080.0,2074.0,36.0,-5.0,
2048.0,2089.0,36.0,-5.0,
2044.0,2059.0,36.0,-5.0,
2033.0,2083.0,36.0,-5.0,
2056.0,2133.0,36.0,-5.0,
2046.0,2152.0,37.0,-5.0,
2031.0,2097.0,37.0,-5.0,
2060.0,2081.0,37.0,-5.0,
2088.0,2101.0,37.0,-5.0,
2086.0,2009.0,37.0,-5.0,
2067.0,2089.0,37.0,-5.0,
2075.0,2130.0,37.0,-5.0,
2085.0,2171.0,37.0,-5.0,
2108.0,2117.0,38.0,-5.0,
2091.0,2080.0,38.0,-5.0,
1994.0,2018.0,38.0,-5.0,
1979.0,1962.0,38.0,-5.0,
2045.0,2076.0,38.0,-4.0,
2003.0,2117.0,38.0,-4.0,
2078.0,2073.0,38.0,-4.0,
2107.0,2145.0,38.0,-4.0,
2025.0,2114.0,39.0,-4.0,
2099.0,2052.0,39.0,-4.0,
2199.0,2042.0,39.0,-4.0,
2208.0,2132.0,39.0,-4.0,
2319.0,2182.0,39.0,-4.0,
2117.0,2027.0,39.0,-4.0,
2072.0,2111.0,39.0,-4.0,
2008.0,2063.0,39.0,-4.0,
2013.0,2031.0,39.0,-4.0,
2080.0,2118.0,39.0,-4.0,
1976.0,2150.0,39.0,-4.0,
2023.0,2136.0,39.0,-4.0,
2026.0,2109.0,39.0,-4.0,
2220.0,2136.0,39.0,-4.0,
2189.0,2126.0,39.0,-4.0,
2054.0,2069.0,39.0,-4.0,
2078.0,2208.0,40.0,-4.0,
2035.0,2051.0,40.0,-4.0,
1985.0,1922.0,40.0,-4.0,
2063.0,2053.0,40.0,-4.0,
2078.0,2078.0,40.0,-4.0,
2078.0,2112.0,40.0,-5.0,
2055.0,2120.0,40.0,-5.0,
2036.0,2134.0,40.0,-5.0,
2041.0,2129.0,40.0,-5.0,
2028.0,2083.0,40.0,-5.0,
2087.0,2121.0,41.0,-5.0,
2081.0,2114.0,41.0,-5.0,
2039.0,2118.0,41.0,-5.0,
2092.0,2171.0,41.0,-5.0,
2132.0,2062.0,41.0,-5.0,
2108.0,2124.0,41.0,-5.0,
2092.0,2072.0,42.0,-5.0,
2078.0,2056.0,42.0,-5.0,
2079.0,2135.0,42.0,-5.0,
2068.0,2102.0,42.0,-5.0,
2044.0,2007.0,42.0,-5.0,
2059.0,2134.0,42.0,-5.0,
2077.0,2090.0,43.0,-5.0,
2085.0,2084.0,43.0,-5.0,
2078.0,2117.0,43.0,-5.0,
2085.0,2050.0,43.0,-5.0,
2027.0,2074.0,43.0,-5.0,
1999.0,2099.0,43.0,-5.0,
2073.0,2037.0,43.0,-5.0,
2024.0,2116.0,43.0,-5.0,
2040.0,2118.0,44.0,-4.0,
2048.0,2067.0,44.0,-4.0,
2077.0,2081.0,44.0,-4.0,
2154.0,2024.0,44.0,-4.0,
2073.0,2061.0,44.0,-4.0,
2009.0,2057.0,44.0,-4.0,
2016.0,2033.0,44.0,-4.0,
2119.0,2106.0,45.0,-4.0,
2142.0,2130.0,45.0,-4.0,
2168.0,2070.0,45.0,-4.0,
2140.0,2220.0,45.0,-4.0,
2061.0,2217.0,45.0,-4.0,
2057.0,2071.0,46.0,-4.0,
2071.0,2055.0,46.0,-4.0,
1999.0,2077.0,46.0,-4.0,
2077.0,2193.0,0,
2085.0,2028.0,46.0,-4.0,
2087.0,2086.0,46.0,-4.0,
2102.0,2047.0,47.0,-4.0,
2127.0,2056.0,47.0,-4.0,
2104.0,2068.0,47.0,-4.0,
2067.0,2136.0,47.0,-4.0,
2070.0,2154.0,47.0,-4.0,
2046.0,2100.0,48.0,-4.0,
2024.0,2093.0,48.0,-4.0,
2058.0,2146.0,48.0,-4.0,
2086.0,2109.0,48.0,-4.0,
2048.0,2091.0,49.0,-4.0,
2028.0,2067.0,49.0,-4.0,
2077.0,2059.0,49.0,-4.0,
2080.0,2087.0,49.0,-4.0,
2082.0,2088.0,50.0,-4.0,
2105.0,2126.0,50.0,-4.0,
2084.0,2091.0,50.0,-4.0,
2040.0,2210.0,50.0,-4.0,
2078.0,2085.0,50.0,-4.0,
2071.0,2086.0,50.0,-4.0,
2108.0,2121.0,51.0,-4.0,
2038.0,2017.0,51.0,-5.0,
2041.0,1926.0,51.0,-5.0,
2007.0,2056.0,51.0,-5.0,
2086.0,2089.0,51.0,-5.0,
2078.0,1999.0,51.0,-5.0,
2052.0,2086.0,51.0,-5.0,
2027.0,2084.0,51.0,-5.0,
2074.0,2179.0,51.0,-5.0,
2151.0,2155.0,50.0,-5.0,
2031.0,1978.0,50.0,-5.0,
2126.0,2049.0,50.0,-4.0,
2090.0,2132.0,50.0,-4.0,
2088.0,2135.0,50.0,-4.0,
2119.0,2100.0,50.0,-4.0,
2080.0,2066.0,50.0,-4.0,
2109.0,2122.0,50.0,-4.0,
2140.0,2214.0,50.0,-4.0,
2106.0,2108.0,50.0,-4.0,
2043.0,2070.0,50.0,-4.0,
2067.0,2042.0,50.0,-4.0,
2080.0,2242.0,50.0,-4.0,
2073.0,2066.0,50.0,-4.0,
1997.0,2092.0,50.0,-4.0,
2047.0,2120.0,51.0,-5.0,
2092.0,2059.0,51.0,-5.0,
2030.0,1988.0,51.0,-5.0,
2071.0,2103.0,52.0,-5.0,
2105.0,2185.0,52.0,-5.0,
2053.0,2071.0,52.0,-5.0,
2054.0,2093.0,53.0,-5.0,
2044.0,2046.0,53.0,-5.0,
2064.0,2134.0,54.0,-5.0,
2118.0,2089.0,54.0,-4.0,
2116.0,2041.0,54.0,-4.0,
2098.0,2082.0,55.0,-4.0,
2062.0,2101.0,55.0,-4.0,
2068.0,2072.0,55.0,-5.0,
2070.0,2098.0,55.0,-5.0,
2064.0,2129.0,55.0,-5.0,
2052.0,2091.0,55.0,-5.0,
2079.0,2109.0,56.0,-5.0,
2133.0,2201.0,56.0,-5.0,
2077.0,2079.0,56.0,-5.0,
2028.0,2013.0,56.0,-5.0,
2080.0,2114.0,57.0,-5.0,
2056.0,2013.0,57.0,-5.0,
2003.0,2031.0,57.0,-5.0,
2050.0,2036.0,57.0,-5.0,
2066.0,2035.0,57.0,-5.0,
2045.0,2152.0,57.0,-5.0,
2108.0,2137.0,57.0,-5.0,
2155.0,2063.0,58.0,-5.0,
2073.0,2038.0,58.0,-5.0,
2082.0,2086.0,58.0,-5.0,
2101.0,2066.0,57.0,-5.0,
2089.0,2153.0,57.0,-5.0,
2070.0,2108.0,58.0,-5.0,
2068.0,2095.0,58.0,-5.0,
2075.0,2097.0,58.0,-5.0,
2062.0,2120.0,58.0,-5.0,
2071.0,2210.0,58.0,-5.0,
2024.0,1918.0,58.0,-5.0,
2105.0,2046.0,58.0,-5.0,
2109.0,2089.0,58.0,-5.0,
2140.0,2168.0,58.0,-5.0,
2108.0,2194.0,58.0,-5.0,
2059.0,2084.0,58.0,-5.0,
2034.0,2041.0,58.0,-5.0,
2075.0,2140.0,58.0,-5.0,
2069.0,2084.0,58.0,-5.0,
2013.0,2143.0,59.0,-5.0,
1999.0,2077.0,59.0,-5.0,
2046.0,2098.0,59.0,-5.0,
2115.0,2107.0,59.0,-5.0,
2076.0,2070.0,60.0,-5.0,
2045.0,2147.0,60.0,-5.0,
2053.0,2103.0,60.0,-5.0,
2079.0,2005.0,60.0,-5.0,
2094.0,2046.0,60.0,-5.0,
2096.0,2118.0,61.0,-5.0,
2071.0,2111.0,61.0,-5.0,
2013.0,2150.0,61.0,-5.0,
2036.0,2135.0,61.0,-5.0,
2065.0,2106.0,61.0,-5.0,
2072.0,2071.0,61.0,-5.0,
2101.0,2057.0,61.0,-5.0,
2169.0,2038.0,62.0,-5.0,
2115.0,2107.0,62.0,-5.0,
2080.0,2099.0,62.0,-5.0,
2061.0,2089.0,62.0,-5.0,
2045.0,2089.0,62.0,-5.0,
2039.0,2130.0,62.0,-5.0,
2105.0,2174.0,62.0,-5.0,
2056.0,2022.0,62.0,-5.0,
2084.0,1944.0,62.0,-5.0,
2147.0,2155.0,63.0,-5.0,
2099.0,2076.0,62.0,-5.0,
2080.0,2146.0,63.0,-5.0,
2037.0,2070.0,63.0,-5.0,
2035.0,2027.0,63.0,-5.0,
2078.0,2112.0,63.0,-5.0,
2019.0,2032.0,63.0,-5.0,
2058.0,2129.0,63.0,-5.0,
2104.0,2074.0,63.0,-5.0,
2087.0,2126.0,63.0,-5.0,
2052.0,2208.0,63.0,-5.0,
2063.0,2068.0,63.0,-5.0,
2086.0,2109.0,63.0,-5.0,
2051.0,1994.0,63.0,-5.0,
2109.0,2091.0,63.0,-5.0,
2086.0,2098.0,0,
2031.0,2120.0,63.0,-5.0,
2083.0,2065.0,63.0,-5.0,
2100.0,2183.0,63.0,-5.0,
2048.0,1983.0,64.0,-5.0,
2037.0,2060.0,64.0,-5.0,
2084.0,2140.0,64.0,-5.0,
2085.0,2201.0,64.0,-5.0,
2120.0,2110.0,64.0,-5.0,
2110.0,2040.0,64.0,-5.0,
2048.0,2113.0,64.0,-5.0,
2058.0,2105.0,64.0,-5.0,
2033.0,2175.0,64.0,-5.0,
2073.0,2136.0,65.0,-5.0,
2048.0,2053.0,65.0,-5.0,
2064.0,2100.0,65.0,-5.0,
2068.0,2124.0,65.0,-5.0,
2057.0,2146.0,65.0,-5.0,
2108.0,1957.0,65.0,-5.0,
2076.0,2006.0,66.0,-5.0,
2112.0,2088.0,66.0,-5.0,
2089.0,2131.0,66.0,-5.0,
2080.0,2118.0,66.0,-5.0,
2028.0,2207.0,67.0,-5.0,
2128.0,1998.0,67.0,-5.0,
2051.0,1951.0,67.0,-5.0,
2080.0,2114.0,67.0,-5.0,
1998.0,2060.0,67.0,-5.0,
2170.0,2064.0,67.0,-5.0,
2062.0,2151.0,67.0,-5.0,
2139.0,2230.0,67.0,-5.0,
2096.0,2344.0,68.0,-5.0,
2052.0,2002.0,68.0,-5.0,
1971.0,1812.0,68.0,-5.0,
2094.0,2040.0,68.0,-5.0,
2093.0,2013.0,68.0,-5.0,
2121.0,2089.0,68.0,-5.0,
2086.0,2113.0,68.0,-5.0,
2132.0,2253.0,68.0,-5.0,
2033.0,2110.0,68.0,-5.0,
2050.0,2137.0,68.0,-5.0,
2042.0,2045.0,69.0,-5.0,
2100.0,2179.0,69.0,-5.0,
2091.0,2076.0,69.0,-5.0,
2044.0,2138.0,69.0,-5.0,
2068.0,2048.0,69.0,-5.0,
2085.0,2191.0,69.0,-5.0,
2025.0,2067.0,69.0,-5.0,
2021.0,2022.0,69.0,-5.0,
2090.0,2021.0,70.0,-6.0,
2062.0,2111.0,70.0,-6.0,
2068.0,2029.0,70.0,-6.0,
2049.0,2075.0,70.0,-5.0,
2043.0,2120.0,70.0,-6.0,
2164.0,2168.0,70.0,-6.0,
2060.0,2134.0,70.0,-5.0,
2100.0,2322.0,71.0,-5.0,
2022.0,2022.0,71.0,-5.0,
2032.0,1990.0,71.0,-5.0,
2058.0,2042.0,71.0,-5.0,
2080.0,2076.0,71.0,-5.0,
2111.0,2119.0,71.0,-5.0,
2084.0,2120.0,71.0,-5.0,
2119.0,2231.0,72.0,-5.0,
2088.0,2090.0,72.0,-5.0,
2011.0,2067.0,72.0,-6.0,
2028.0,2033.0,72.0,-6.0,
2056.0,2021.0,72.0,-6.0,
2098.0,2078.0,72.0,-6.0,
2065.0,2160.0,72.0,-6.0,
2177.0,2104.0,72.0,-6.0,
2098.0,2155.0,72.0,-6.0,
2063.0,2224.0,72.0,-6.0,
2074.0,2063.0,72.0,-6.0,
1954.0,1889.0,72.0,-6.0,
2050.0,2089.0,72.0,-6.0,
2060.0,2080.0,73.0,-6.0,
2063.0,2128.0,73.0,-6.0,
2185.0,2125.0,73.0,-6.0,
2047.0,2100.0,73.0,-6.0,
2045.0,1967.0,73.0,-6.0,
2106.0,2178.0,73.0,-6.0,
2042.0,2056.0,73.0,-6.0,
2029.0,2332.0,73.0,-6.0,
2005.0,1870.0,73.0,-6.0,
2093.0,2031.0,73.0,-6.0,
2064.0,2056.0,73.0,-6.0,
2101.0,2135.0,73.0,-6.0,
2147.0,2153.0,73.0,-6.0,
2086.0,2124.0,74.0,-6.0,
2145.0,2282.0,74.0,-6.0,
2019.0,2100.0,74.0,-6.0,
1979.0,2063.0,74.0,-6.0,
2079.0,2064.0,74.0,-6.0,
2104.0,1994.0,74.0,-6.0,
1904.0,1997.0,74.0,-6.0,
2055.0,2159.0,74.0,-6.0,
2075.0,2133.0,74.0,-6.0,
2059.0,2010.0,74.0,-6.0,
2191.0,2193.0,74.0,-7.0,
2128.0,2164.0,75.0,-7.0,
2015.0,2011.0,75.0,-6.0,
2092.0,2138.0,75.0,-6.0,
2082.0,2065.0,75.0,-6.0,
2022.0,2115.0,75.0,-6.0,
2127.0,2187.0,75.0,-7.0,
2116.0,2189.0,75.0,-7.0,
2078.0,2078.0,76.0,-6.0,
2043.0,2053.0,76.0,-7.0,
2093.0,2025.0,76.0,-6.0,
2112.0,2140.0,76.0,-6.0,
2027.0,2169.0,76.0,-7.0,
2115.0,2057.0,76.0,-7.0,
1994.0,1974.0,76.0,-7.0,
2076.0,2107.0,76.0,-7.0,
2060.0,2101.0,77.0,-7.0,
2065.0,2079.0,77.0,-7.0,
2049.0,2232.0,77.0,-7.0,
2100.0,2055.0,77.0,-6.0,
1993.0,2181.0,77.0,-7.0,
2060.0,2214.0,77.0,-7.0,
2062.0,2032.0,77.0,-7.0,
2083.0,1992.0,77.0,-7.0,
2047.0,2063.0,77.0,-6.0,
2080.0,2093.0,77.0,-6.0,
2110.0,2024.0,78.0,-7.0,
2084.0,1974.0,78.0,-6.0,
2144.0,2205.0,78.0,-7.0,
2019.0,2152.0,78.0,-7.0,
2124.0,2294.0,78.0,-6.0,
2038.0,1962.0,78.0,-6.0,
2047.0,1986.0,78.0,-6.0,
2079.0,2013.0,78.0,-6.0,
2120.0,2387.0,79.0,-6.0,
2058.0,2034.0,79.0,-7.0,
2122.0,1869.0,79.0,-6.0,
2022.0,1994.0,79.0,-7.0,
2013.0,2305.0,79.0,-7.0,
2159.0,2146.0,79.0,-7.0,
2116.0,1996.0,79.0,-7.0,
2117.0,2100.0,79.0,-7.0,
2121.0,2022.0,80.0,-7.0,
2044.0,2129.0,80.0,-7.0,
2071.0,2147.0,80.0,-7.0,
2147.0,2573.0,80.0,-7.0,
1953.0,1903.0,80.0,-7.0,
2014.0,1891.0,80.0,-7.0,
2056.0,1970.0,80.0,-7.0,
2087.0,2150.0,80.0,-7.0,
2136.0,1926.0,81.0,-7.0,
2012.0,2126.0,81.0,-7.0,
2105.0,2260.0,81.0,-7.0,
2049.0,2022.0,81.0,-7.0,
2120.0,2276.0,81.0,-7.0,
2091.0,2029.0,81.0,-7.0,
2066.0,2131.0,81.0,-7.0,
2052.0,2330.0,81.0,-7.0,
2114.0,1941.0,82.0,-7.0,
2165.0,1981.0,82.0,-7.0,
2101.0,2080.0,82.0,-7.0,
2059.0,2062.0,82.0,-7.0,
1892.0,2133.0,82.0,-7.0,
2044.0,2090.0,82.0,-6.0,
2046.0,2238.0,82.0,-7.0,
2052.0,1966.0,82.0,-7.0,
2088.0,2021.0,82.0,-7.0,
2128.0,2054.0,82.0,-6.0,
2126.0,1928.0,82.0,-7.0,
2115.0,2234.0,82.0,-7.0,
2078.0,2070.0,82.0,-7.0,
2073.0,2183.0,82.0,-7.0,
2037.0,2248.0,82.0,-7.0,
2046.0,2051.0,82.0,-7.0,
2048.0,2166.0,82.0,-7.0,
2080.0,2018.0,82.0,-7.0,
2092.0,2043.0,82.0,-7.0,
2051.0,2036.0,82.0,-7.0,
2044.0,2164.0,82.0,-7.0,
2168.0,1964.0,83.0,-7.0,
1946.0,2055.0,83.0,-7.0,
1986.0,2202.0,83.0,-7.0,
2105.0,1975.0,83.0,-7.0,
2134.0,2057.0,83.0,-7.0,
2091.0,2176.0,83.0,-7.0,
2204.0,2334.0,83.0,-7.0,
1905.0,2290.0,83.0,-7.0,
2093.0,2180.0,83.0,-7.0,
2072.0,2034.0,83.0,-7.0,
1955.0,1821.0,83.0,-7.0,
2100.0,1993.0,83.0,-7.0,
2124.0,2023.0,83.0,-7.0,
2075.0,2306.0,83.0,-7.0,
2173.0,2462.0,83.0,-7.0,
1974.0,2016.0,83.0,-7.0,
2149.0,1734.0,83.0,-7.0,
2126.0,2033.0,83.0,-7.0,
2073.0,2044.0,83.0,-7.0,
2090.0,2058.0,83.0,-7.0,
2040.0,2031.0,83.0,-7.0,
2071.0,2130.0,83.0,-7.0,
2104.0,2103.0,83.0,-7.0,
2059.0,2085.0,84.0,-7.0,
2114.0,2379.0,84.0,-7.0,
2048.0,2338.0,84.0,-7.0,
1966.0,1941.0,84.0,-7.0,
2110.0,2063.0,84.0,-7.0,
2129.0,2005.0,84.0,-7.0,
2049.0,1983.0,0,
2048.0,1978.0,84.0,-7.0,
2092.0,2107.0,85.0,-7.0,
2148.0,2147.0,85.0,-7.0,
2047.0,2027.0,85.0,-7.0,
2050.0,2092.0,85.0,-8.0,
2051.0,2242.0,85.0,-8.0,
2074.0,2212.0,85.0,-7.0,
2120.0,2278.0,85.0,-8.0,
2104.0,2743.0,85.0,-7.0,
1914.0,1694.0,85.0,-7.0,
2130.0,1665.0,85.0,-7.0,
2086.0,1943.0,85.0,-7.0,
2110.0,2019.0,85.0,-7.0,
2153.0,2135.0,85.0,-7.0,
2026.0,2128.0,85.0,-7.0,
2079.0,2114.0,85.0,-7.0,
2095.0,2084.0,85.0,-7.0,
2086.0,2181.0,85.0,-7.0,
2016.0,2007.0,85.0,-7.0,
2034.0,2061.0,85.0,-7.0,
2046.0,2273.0,85.0,-7.0,
2209.0,2334.0,85.0,-7.0,
2008.0,1985.0,85.0,-7.0,
1983.0,1694.0,85.0,-7.0,
2195.0,2026.0,85.0,-7.0,
1975.0,2174.0,86.0,-7.0,
1979.0,2190.0,86.0,-7.0,
2127.0,1965.0,85.0,-7.0,
2128.0,2143.0,85.0,-7.0,
2126.0,2315.0,85.0,-7.0,
2113.0,1929.0,86.0,-7.0,
2079.0,2118.0,86.0,-7.0,
2010.0,2190.0,86.0,-7.0,
2214.0,2317.0,86.0,-7.0,
2022.0,1875.0,86.0,-7.0,
1986.0,1831.0,86.0,-7.0,
2190.0,1918.0,86.0,-7.0,
2012.0,2343.0,86.0,-7.0,
1948.0,2497.0,86.0,-7.0,
2092.0,1773.0,86.0,-7.0,
2149.0,2006.0,86.0,-7.0,
2078.0,2040.0,86.0,-7.0,
1988.0,2309.0,86.0,-7.0,
2052.0,2482.0,86.0,-7.0,
2111.0,1831.0,86.0,-7.0,
2027.0,1602.0,86.0,-7.0,
2160.0,1767.0,86.0,-8.0,
2052.0,2184.0,86.0,-8.0,
2131.0,2154.0,86.0,-8.0,
2095.0,2197.0,86.0,-8.0,
2065.0,2361.0,86.0,-8.0,
1931.0,2215.0,86.0,-8.0,
2063.0,2363.0,86.0,-8.0,
2061.0,2003.0,86.0,-8.0,
2060.0,1940.0,86.0,-8.0,
2087.0,2010.0,86.0,-8.0,
2116.0,2116.0,86.0,-8.0,
2046.0,2083.0,86.0,-8.0,
2083.0,2122.0,86.0,-8.0,
1936.0,2033.0,86.0,-8.0,
2066.0,2089.0,86.0,-8.0,
2050.0,2097.0,86.0,-8.0,
2171.0,2040.0,86.0,-8.0,
2094.0,1974.0,86.0,-8.0,
2094.0,1971.0,86.0,-8.0,
2091.0,2206.0,86.0,-8.0,
2103.0,2404.0,86.0,-8.0,
2024.0,2108.0,86.0,-8.0,
2076.0,2077.0,86.0,-8.0,
1976.0,1973.0,86.0,-8.0,
2006.0,1949.0,86.0,-8.0,
1997.0,1824.0,86.0,-8.0,
2080.0,2236.0,86.0,-8.0,
2146.0,2313.0,86.0,-8.0,
1985.0,2162.0,86.0,-8.0,
2241.0,2002.0,86.0,-8.0,
2142.0,2098.0,86.0,-8.0,
1981.0,2095.0,86.0,-7.0,
1978.0,2046.0,86.0,-8.0,
2164.0,1816.0,86.0,-8.0,
2178.0,2008.0,87.0,-8.0,
2116.0,2141.0,87.0,-8.0,
2143.0,2390.0,87.0,-8.0,
2026.0,1957.0,87.0,-8.0,
2020.0,2108.0,87.0,-8.0,
1769.0,2438.0,87.0,-8.0,
2054.0,1889.0,87.0,-7.0,
2254.0,2018.0,87.0,-8.0,
2174.0,1953.0,87.0,-7.0,
2128.0,2059.0,87.0,-8.0,
2123.0,2200.0,86.0,-8.0,
2072.0,2413.0,86.0,-8.0,
2056.0,2586.0,86.0,-7.0,
1942.0,1533.0,86.0,-8.0,
2142.0,1913.0,86.0,-7.0,
2081.0,2093.0,86.0,-7.0,
2023.0,2242.0,86.0,-7.0,
2067.0,2045.0,86.0,-7.0,
2043.0,1854.0,86.0,-7.0,
2187.0,2208.0,86.0,-7.0,
2039.0,1917.0,86.0,-7.0,
1870.0,2346.0,86.0,-7.0,
1957.0,2298.0,86.0,-7.0,
2164.0,1912.0,86.0,-7.0,
2128.0,2174.0,86.0,-8.0,
2093.0,2038.0,86.0,-7.0,
2071.0,2375.0,86.0,-7.0,
2153.0,2273.0,86.0,-7.0,
2093.0,1992.0,86.0,-7.0,
1849.0,2117.0,86.0,-7.0,
1972.0,1938.0,86.0,-7.0,
2214.0,1810.0,86.0,-7.0,
2112.0,1985.0,86.0,-7.0,
2105.0,2130.0,86.0,-7.0,
1896.0,2198.0,86.0,-7.0,
2194.0,2166.0,86.0,-7.0,
2195.0,2168.0,86.0,-7.0,
1879.0,2170.0,86.0,-8.0,
2213.0,2311.0,86.0,-8.0,
2159.0,1844.0,86.0,-7.0,
2051.0,1699.0,86.0,-8.0,
2069.0,2048.0,86.0,-8.0,
2168.0,2156.0,86.0,-8.0,
2040.0,2092.0,86.0,-8.0,
2036.0,2071.0,86.0,-8.0,
2056.0,2169.0,87.0,-8.0,
2011.0,2191.0,87.0,-8.0,
1987.0,2053.0,87.0,-8.0,
2027.0,1937.0,87.0,-8.0,
2193.0,2135.0,87.0,-8.0,
2119.0,2326.0,87.0,-8.0,
1930.0,1827.0,87.0,-8.0,
1942.0,2351.0,87.0,-8.0,
1966.0,2128.0,87.0,-8.0,
2041.0,2196.0,87.0,-8.0,
2152.0,1869.0,87.0,-8.0,
2284.0,1985.0,87.0,-8.0,
2127.0,2029.0,87.0,-8.0,
2184.0,1659.0,87.0,-8.0,
2056.0,2597.0,87.0,-8.0,
2109.0,2379.0,87.0,-8.0,
1955.0,2359.0,87.0,-8.0,
2079.0,2237.0,87.0,-8.0,
2087.0,1884.0,87.0,-8.0,
2022.0,1880.0,87.0,-8.0,
2046.0,2140.0,87.0,-8.0,
1974.0,2235.0,87.0,-8.0,
2160.0,1847.0,87.0,-8.0,
2102.0,2074.0,87.0,-8.0,
1864.0,2154.0,87.0,-8.0,
1961.0,2381.0,87.0,-8.0,
2109.0,2052.0,87.0,-8.0,
2156.0,1935.0,87.0,-8.0,
2210.0,1966.0,87.0,-8.0,
2124.0,2016.0,87.0,-8.0,
2098.0,1944.0,87.0,-8.0,
2125.0,2218.0,87.0,-8.0,
2102.0,2254.0,87.0,-8.0,
2014.0,2005.0,87.0,-8.0,
2070.0,2098.0,87.0,-8.0,
2065.0,2210.0,87.0,-8.0,
2101.0,2235.0,88.0,-8.0,
1923.0,1851.0,88.0,-8.0,
2061.0,1988.0,88.0,-8.0,
2036.0,2141.0,88.0,-8.0,
2043.0,2081.0,88.0,-8.0,
1884.0,2181.0,88.0,-8.0,
2112.0,2292.0,88.0,-8.0,
2255.0,2264.0,88.0,-8.0,
1991.0,1934.0,88.0,-8.0,
2097.0,1798.0,88.0,-8.0,
2112.0,1996.0,88.0,-8.0,
2105.0,1909.0,88.0,-8.0,
1867.0,2236.0,88.0,-8.0,
2097.0,2092.0,88.0,-8.0,
2221.0,2135.0,88.0,-8.0,
2129.0,2142.0,88.0,-8.0,
2044.0,2059.0,88.0,-8.0,
2104.0,2256.0,88.0,-8.0,
1931.0,2516.0,88.0,-8.0,
2064.0,1906.0,88.0,-8.0,
2194.0,1775.0,88.0,-8.0,
2103.0,2045.0,88.0,-8.0,
2144.0,2086.0,88.0,-8.0,
2043.0,1979.0,88.0,-8.0,
2026.0,2079.0,88.0,-8.0,
2036.0,2341.0,88.0,-8.0,
1995.0,1921.0,88.0,-8.0,
2149.0,1667.0,88.0,-8.0,
2269.0,2790.0,88.0,-8.0,
2005.0,2286.0,88.0,-8.0,
1930.0,1630.0,88.0,-8.0,
2060.0,1677.0,88.0,-8.0,
1935.0,2006.0,88.0,-8.0,
2005.0,2049.0,88.0,-8.0,
2127.0,2293.0,88.0,-8.0,
2083.0,2218.0,88.0,-8.0,
2096.0,2395.0,88.0,-8.0,
1963.0,2314.0,88.0,-8.0,
2108.0,2029.0,88.0,-8.0,
2211.0,1925.0,88.0,-8.0,
2118.0,2180.0,88.0,-8.0,
2057.0,2061.0,88.0,-8.0,
2093.0,2085.0,88.0,-8.0,
2053.0,2213.0,88.0,-8.0,
2079.0,2202.0,88.0,-8.0,
1974.0,1808.0,88.0,-7.0,
2044.0,2216.0,88.0,-7.0,
2108.0,1924.0,88.0,-7.0,
2110.0,2002.0,88.0,-8.0,
2072.0,2210.0,88.0,-8.0,
2098.0,2632.0,88.0,-8.0,
1829.0,1746.0,88.0,-8.0,
2119.0,1873.0,88.0,-8.0,
2160.0,1958.0,88.0,-8.0,
2163.0,2024.0,88.0,-8.0,
2127.0,2127.0,88.0,-8.0,
2075.0,2112.0,88.0,-8.0,
2032.0,2142.0,88.0,-8.0,
2059.0,2170.0,88.0,-8.0,
2082.0,2048.0,88.0,-8.0,
2012.0,2079.0,88.0,-8.0,
1993.0,2240.0,88.0,-8.0,
2032.0,2078.0,88.0,-8.0,
2128.0,1882.0,88.0,-8.0,
2122.0,1921.0,88.0,-8.0,
2083.0,1835.0,88.0,-8.0,
2021.0,2146.0,88.0,-8.0,
2072.0,2489.0,88.0,-8.0,
1947.0,2342.0,88.0,-8.0,
2001.0,2217.0,88.0,-8.0,
2164.0,1989.0,88.0,-8.0,
2084.0,2003.0,88.0,-8.0,
2121.0,2210.0,88.0,-8.0,
2092.0,2114.0,88.0,-8.0,
2079.0,2013.0,88.0,-8.0,
2058.0,2226.0,88.0,-8.0,
1981.0,2080.0,88.0,-8.0,
2033.0,2051.0,88.0,-8.0,
2149.0,2123.0,88.0,-8.0,
2094.0,1977.0,88.0,-8.0,
2128.0,2095.0,88.0,-8.0,
2200.0,2367.0,88.0,-8.0,
1929.0,1750.0,88.0,-8.0,
2066.0,2039.0,88.0,-8.0,
2084.0,1950.0,88.0,-8.0,
2029.0,2161.0,88.0,-8.0,
2039.0,2139.0,88.0,-8.0,
2102.0,2182.0,88.0,-8.0,
2051.0,2007.0,89.0,-8.0,
2132.0,2186.0,89.0,-8.0,
2068.0,2097.0,89.0,-8.0,
2087.0,2140.0,89.0,-8.0,
2071.0,2066.0,89.0,-8.0,
2004.0,2254.0,89.0,-8.0,
2114.0,1589.0,89.0,-8.0,
2112.0,2154.0,89.0,-8.0,
2088.0,2012.0,89.0,-8.0,
2045.0,2130.0,89.0,-8.0,
2124.0,2427.0,89.0,-8.0,
2068.0,2065.0,89.0,-8.0,
2058.0,2246.0,88.0,-8.0,
2021.0,2186.0,88.0,-8.0,
2108.0,2029.0,88.0,-8.0,
1973.0,2096.0,88.0,-8.0,
1999.0,2053.0,88.0,-8.0,
2110.0,2117.0,88.0,-8.0,
2070.0,2110.0,88.0,-8.0,
2078.0,2025.0,88.0,-8.0,
2131.0,2061.0,88.0,-8.0,
2101.0,2109.0,88.0,-8.0,
2091.0,2120.0,88.0,-8.0,
2025.0,2089.0,88.0,-8.0,
2013.0,2068.0,88.0,-8.0,
2130.0,2011.0,88.0,-8.0,
2128.0,2220.0,88.0,-8.0,
2074.0,2097.0,0,
2008.0,2025.0,88.0,-8.0,
2079.0,2181.0,88.0,-8.0,
2074.0,2151.0,88.0,-8.0,
2042.0,2002.0,88.0,-8.0,
2155.0,2123.0,88.0,-8.0,
2039.0,2117.0,88.0,-8.0,
2063.0,2144.0,88.0,-8.0,
2120.0,1995.0,88.0,-8.0,
2142.0,2066.0,88.0,-8.0,
2188.0,1798.0,88.0,-8.0,
2130.0,2273.0,88.0,-8.0,
1984.0,2053.0,88.0,-8.0,
2005.0,1919.0,88.0,-8.0,
2082.0,2281.0,88.0,-8.0,
2054.0,2104.0,87.0,-8.0,
2020.0,2114.0,87.0,-8.0,
2084.0,2211.0,87.0,-8.0,
2085.0,2103.0,87.0,-8.0,
2086.0,2053.0,87.0,-8.0,
2079.0,2198.0,87.0,-8.0,
2066.0,2054.0,87.0,-8.0,
2068.0,2170.0,87.0,-8.0,
2027.0,2124.0,87.0,-8.0,
2105.0,2047.0,87.0,-8.0,
2124.0,2045.0,87.0,-8.0,
2075.0,2076.0,87.0,-8.0,
2072.0,2068.0,86.0,-8.0,
2078.0,2089.0,86.0,-8.0,
2044.0,1987.0,86.0,-8.0,
1886.0,2168.0,86.0,-8.0,
1936.0,2017.0,86.0,-8.0,
1957.0,2093.0,86.0,-8.0,
2073.0,2076.0,86.0,-8.0,
2221.0,2112.0,86.0,-8.0,
2261.0,2094.0,86.0,-8.0,
2140.0,2070.0,86.0,-8.0,
2119.0,2194.0,86.0,-8.0,
2113.0,2123.0,86.0,-8.0,
2196.0,2056.0,87.0,-8.0,
2025.0,1887.0,87.0,-8.0,
2098.0,2075.0,87.0,-8.0,
2065.0,2030.0,87.0,-7.0,
2125.0,2064.0,87.0,-7.0,
2092.0,2126.0,87.0,-7.0,
2061.0,2171.0,86.0,-7.0,
2037.0,1889.0,86.0,-7.0,
2037.0,1784.0,86.0,-7.0,
2051.0,2421.0,86.0,-7.0,
2036.0,2388.0,86.0,-7.0,
2075.0,2135.0,86.0,-7.0,
2097.0,2097.0,85.0,-7.0,
2101.0,2200.0,85.0,-7.0,
2016.0,2095.0,85.0,-7.0,
2117.0,2119.0,85.0,-7.0,
2053.0,2142.0,85.0,-7.0,
2016.0,2068.0,85.0,-7.0,
2040.0,2135.0,85.0,-7.0,
2046.0,2145.0,85.0,-7.0,
2028.0,2138.0,85.0,-7.0,
2047.0,2017.0,85.0,-7.0,
2106.0,1994.0,85.0,-7.0,
2098.0,2086.0,85.0,-7.0,
2081.0,2088.0,85.0,-7.0,
2085.0,2088.0,84.0,-7.0,
2020.0,1993.0,84.0,-7.0,
2105.0,2203.0,84.0,-7.0,
2074.0,2254.0,84.0,-8.0,
2025.0,1843.0,84.0,-8.0,
2101.0,1708.0,84.0,-8.0,
2090.0,2329.0,84.0,-8.0,
2077.0,2251.0,84.0,-8.0,
2085.0,2087.0,84.0,-8.0,
2052.0,2118.0,83.0,-8.0,
2092.0,1980.0,83.0,-8.0,
2034.0,2163.0,83.0,-8.0,
2089.0,2110.0,83.0,-8.0,
2070.0,2087.0,83.0,-8.0,
2085.0,2061.0,83.0,-8.0,
2044.0,2135.0,83.0,-8.0,
2080.0,2148.0,83.0,-7.0,
2053.0,2145.0,83.0,-7.0,
1975.0,2062.0,83.0,-7.0,
2083.0,2135.0,83.0,-7.0,
2055.0,2098.0,83.0,-7.0,
2034.0,2071.0,83.0,-7.0,
2140.0,1950.0,83.0,-7.0,
2158.0,2009.0,83.0,-7.0,
2026.0,2212.0,83.0,-7.0,
2153.0,2178.0,83.0,-7.0,
2095.0,1988.0,83.0,-7.0,
2063.0,2035.0,83.0,-7.0,
2004.0,2052.0,82.0,-7.0,
2046.0,2113.0,82.0,-7.0,
2130.0,2060.0,82.0,-7.0,
2146.0,2115.0,82.0,-7.0,
2089.0,2147.0,82.0,-7.0,
2122.0,2098.0,82.0,-7.0,
2017.0,2141.0,81.0,-7.0,
2038.0,2062.0,81.0,-7.0,
2048.0,1995.0,81.0,-7.0,
1983.0,2243.0,81.0,-7.0,
1966.0,2139.0,81.0,-7.0,
2022.0,2068.0,81.0,-7.0,
2035.0,2100.0,81.0,-7.0,
2092.0,2215.0,81.0,-7.0,
2084.0,2156.0,81.0,-7.0,
2157.0,2150.0,81.0,-7.0,
2090.0,2121.0,81.0,-7.0,
2075.0,2060.0,81.0,-7.0,
2026.0,2084.0,81.0,-7.0,
2032.0,2044.0,81.0,-7.0,
2099.0,2060.0,81.0,-7.0,
2065.0,2095.0,80.0,-7.0,
2042.0,1993.0,80.0,-7.0,
2237.0,2125.0,80.0,-7.0,
2127.0,2108.0,80.0,-7.0,
2140.0,2143.0,80.0,-7.0,
2129.0,2112.0,80.0,-7.0,
2076.0,2075.0,80.0,-7.0,
2076.0,2066.0,80.0,-7.0,
2068.0,2062.0,80.0,-7.0,
2107.0,2121.0,80.0,-7.0,
2084.0,2007.0,80.0,-7.0,
2122.0,2135.0,80.0,-7.0,
2048.0,2060.0,80.0,-7.0,
2043.0,2136.0,80.0,-7.0,
1965.0,2020.0,80.0,-7.0,
2015.0,2142.0,81.0,-7.0,
2061.0,2085.0,81.0,-7.0,
2138.0,2110.0,81.0,-7.0,
2100.0,1900.0,81.0,-7.0,
2087.0,2045.0,81.0,-7.0,
2119.0,2127.0,81.0,-7.0,
2092.0,2171.0,81.0,-7.0,
2065.0,2090.0,80.0,-7.0,
2036.0,2125.0,80.0,-7.0,
2133.0,2128.0,80.0,-7.0,
2056.0,2107.0,80.0,-7.0,
2072.0,2048.0,80.0,-6.0,
2118.0,2075.0,80.0,-6.0,
2046.0,1968.0,79.0,-6.0,
2103.0,2124.0,79.0,-6.0,
2149.0,1997.0,79.0,-6.0,
2060.0,2096.0,79.0,-6.0,
2044.0,1918.0,79.0,-6.0,
2050.0,2409.0,79.0,-6.0,
2047.0,2297.0,79.0,-6.0,
2066.0,2138.0,78.0,-6.0,
2045.0,2148.0,79.0,-6.0,
2059.0,2158.0,79.0,-6.0,
2039.0,2096.0,79.0,-6.0,
2079.0,2103.0,78.0,-6.0,
2069.0,2140.0,79.0,-6.0,
2051.0,2084.0,79.0,-6.0,
2040.0,2049.0,79.0,-6.0,
2082.0,2031.0,78.0,-6.0,
2072.0,2104.0,78.0,-7.0,
2057.0,2097.0,78.0,-7.0,
2079.0,2044.0,78.0,-7.0,
2083.0,2015.0,78.0,-7.0,
2079.0,2109.0,78.0,-7.0,
2065.0,2089.0,77.0,-7.0,
2074.0,2063.0,77.0,-7.0,
2009.0,2092.0,77.0,-7.0,
2084.0,2074.0,77.0,-7.0,
2133.0,2071.0,77.0,-7.0,
2095.0,2027.0,77.0,-7.0,
2138.0,2153.0,77.0,-7.0,
2103.0,2091.0,77.0,-6.0,
2114.0,2140.0,77.0,-6.0,
2089.0,2082.0,0,
2077.0,2152.0,77.0,-6.0,
2067.0,2011.0,77.0,-6.0,
2078.0,2056.0,77.0,-6.0,
2067.0,2081.0,77.0,-6.0,
2106.0,2122.0,77.0,-6.0,
2092.0,2135.0,77.0,-6.0,
2061.0,2078.0,77.0,-6.0,
2091.0,2127.0,77.0,-6.0,
2069.0,2112.0,77.0,-7.0,
2016.0,1966.0,77.0,-7.0,
2091.0,2139.0,77.0,-7.0,
2111.0,2102.0,77.0,-7.0,
2044.0,2020.0,76.0,-7.0,
2045.0,1998.0,76.0,-7.0,
2066.0,2124.0,75.0,-7.0,
2063.0,2099.0,75.0,-6.0,
2015.0,2069.0,74.0,-6.0,
2037.0,2118.0,73.0,-6.0,
2052.0,2189.0,73.0,-5.0,
2084.0,2025.0,72.0,-5.0,
2122.0,2093.0,72.0,-5.0,
2158.0,1944.0,71.0,-4.0,
2049.0,2199.0,71.0,-4.0,
2093.0,2079.0,71.0,-4.0,
2080.0,2059.0,71.0,-4.0,
2080.0,2296.0,71.0,-4.0,
2076.0,2256.0,71.0,-5.0,
2074.0,2115.0,71.0,-5.0,
2031.0,1978.0,71.0,-5.0,
2053.0,2036.0,71.0,-5.0,
2067.0,2091.0,71.0,-5.0,
2070.0,2076.0,71.0,-5.0,
2046.0,2118.0,71.0,-5.0,
2042.0,2102.0,71.0,-6.0,
2063.0,2108.0,71.0,-6.0,
2055.0,2075.0,70.0,-6.0,
2043.0,2030.0,70.0,-6.0,
2063.0,2104.0,70.0,-6.0,
2099.0,2144.0,70.0,-6.0,
2059.0,2092.0,70.0,-7.0,
2032.0,2059.0,70.0,-7.0,
2085.0,2068.0,70.0,-7.0,
2072.0,2078.0,69.0,-7.0,
2090.0,2099.0,69.0,-7.0,
2039.0,2084.0,69.0,-7.0,
2077.0,2091.0,69.0,-7.0,
2126.0,2082.0,69.0,-7.0,
2144.0,2080.0,69.0,-7.0,
2122.0,2045.0,69.0,-7.0,
2042.0,2091.0,69.0,-7.0,
2092.0,2064.0,69.0,-7.0,
2052.0,2065.0,70.0,-7.0,
2040.0,2168.0,70.0,-6.0,
2092.0,2112.0,70.0,-6.0,
2116.0,2106.0,70.0,-6.0,
2153.0,2099.0,70.0,-6.0,
2160.0,2057.0,71.0,-6.0,
2135.0,2036.0,71.0,-6.0,
2094.0,2085.0,71.0,-6.0,
2070.0,2149.0,71.0,-6.0,
1996.0,2174.0,71.0,-6.0,
2060.0,2134.0,71.0,-6.0,
1993.0,2012.0,72.0,-6.0,
2037.0,2014.0,71.0,-6.0,
2129.0,2047.0,71.0,-6.0,
2092.0,2175.0,71.0,-6.0,
2065.0,2061.0,70.0,-6.0,
2070.0,2016.0,70.0,-6.0,
2037.0,2109.0,69.0,-6.0,
2066.0,1971.0,68.0,-5.0,
2040.0,2067.0,67.0,-5.0,
2075.0,2379.0,66.0,-5.0,
2011.0,2115.0,66.0,-5.0,
2059.0,2121.0,65.0,-4.0,
2107.0,2166.0,64.0,-4.0,
2110.0,2173.0,64.0,-3.0,
2063.0,2080.0,63.0,-3.0,
2054.0,2097.0,63.0,-3.0,
2006.0,2064.0,63.0,-3.0,
2017.0,1997.0,63.0,-3.0,
2043.0,2110.0,63.0,-3.0,
2099.0,2135.0,63.0,-3.0,
2102.0,2145.0,63.0,-3.0,
2143.0,2126.0,63.0,-4.0,
2106.0,2054.0,63.0,-4.0,
2087.0,2036.0,63.0,-4.0,
2099.0,2068.0,63.0,-4.0,
2063.0,2059.0,63.0,-4.0,
2070.0,2102.0,64.0,-4.0,
2056.0,2084.0,64.0,-4.0,
2091.0,2172.0,64.0,-5.0,
2104.0,2061.0,64.0,-5.0,
2088.0,2123.0,64.0,-5.0,
2074.0,2101.0,64.0,-5.0,
2050.0,2098.0,64.0,-5.0,
2048.0,2082.0,64.0,-5.0,
2036.0,2085.0,64.0,-6.0,
2054.0,2038.0,64.0,-6.0,
2124.0,2125.0,64.0,-6.0,
2123.0,2064.0,64.0,-6.0,
2125.0,2034.0,64.0,-6.0,
2082.0,2081.0,64.0,-6.0,
2041.0,2105.0,65.0,-6.0,
2050.0,2072.0,65.0,-6.0,
2051.0,2141.0,65.0,-6.0,
2068.0,2153.0,65.0,-6.0,
2091.0,2113.0,65.0,-6.0,
2102.0,2074.0,65.0,-6.0,
2125.0,2037.0,65.0,-6.0,
2074.0,2135.0,65.0,-6.0,
2072.0,2122.0,65.0,-6.0,
2073.0,2108.0,65.0,-6.0,
2065.0,2115.0,65.0,-5.0,
2048.0,2043.0,66.0,-5.0,
2029.0,2067.0,66.0,-6.0,
2079.0,2185.0,66.0,-6.0,
2066.0,2183.0,65.0,-6.0,
2078.0,1867.0,65.0,-6.0,
2083.0,2031.0,65.0,-6.0,
2064.0,1974.0,64.0,-6.0,
2093.0,2042.0,64.0,-6.0,
2057.0,2079.0,63.0,-6.0,
2055.0,2271.0,62.0,-6.0,
2062.0,2250.0,61.0,-6.0,
2097.0,2011.0,60.0,-5.0,
2073.0,2112.0,59.0,-5.0,
2089.0,2085.0,58.0,-4.0,
2079.0,2081.0,57.0,-4.0,
2133.0,2198.0,56.0,-3.0,
2051.0,2113.0,55.0,-3.0,
2061.0,2102.0,54.0,-3.0,
2098.0,2106.0,54.0,-2.0,
2113.0,2083.0,54.0,-2.0,
2091.0,1997.0,54.0,-2.0,
2105.0,2155.0,54.0,-2.0,
2099.0,2118.0,55.0,-3.0,
2057.0,2097.0,55.0,-3.0,
2021.0,2131.0,55.0,-3.0,
2022.0,2138.0,55.0,-3.0,
2058.0,2101.0,56.0,-3.0,
2056.0,2057.0,56.0,-3.0,
2123.0,2044.0,56.0,-4.0,
2078.0,2099.0,57.0,-4.0,
2054.0,2123.0,57.0,-4.0,
2078.0,2082.0,57.0,-4.0,
2101.0,2027.0,57.0,-5.0,
2091.0,2011.0,57.0,-5.0,
2064.0,2110.0,57.0,-5.0,
2055.0,2015.0,57.0,-5.0,
2007.0,2139.0,58.0,-6.0,
2027.0,2125.0,58.0,-6.0,
2070.0,2103.0,58.0,-6.0,
2114.0,2089.0,58.0,-6.0,
2123.0,2094.0,58.0,-6.0,
2111.0,2083.0,58.0,-6.0,
2099.0,2089.0,58.0,-6.0,
2085.0,2094.0,58.0,-6.0,
2081.0,2096.0,58.0,-5.0,
2060.0,2092.0,58.0,-5.0,
2071.0,2091.0,58.0,-5.0,
2103.0,2137.0,58.0,-5.0,
2076.0,2048.0,58.0,-5.0,
2074.0,2085.0,58.0,-5.0,
2042.0,2102.0,58.0,-5.0,
2045.0,2116.0,58.0,-5.0,
2062.0,2107.0,58.0,-5.0,
2054.0,2107.0,59.0,-5.0,
2040.0,2081.0,59.0,-5.0,
2149.0,2099.0,59.0,-5.0,
2117.0,2133.0,60.0,-5.0,
2108.0,2137.0,60.0,-5.0,
2007.0,2009.0,59.0,-5.0,
2020.0,2050.0,59.0,-5.0,
2080.0,2050.0,59.0,-5.0,
2089.0,2045.0,59.0,-5.0,
2058.0,1998.0,58.0,-5.0,
2132.0,2134.0,58.0,-5.0,
2116.0,2136.0,57.0,-5.0,
2095.0,2088.0,56.0,-5.0,
2046.0,2097.0,56.0,-5.0,
2061.0,2057.0,55.0,-5.0,
2053.0,2174.0,54.0,-4.0,
2051.0,2184.0,54.0,-4.0,
2066.0,2090.0,53.0,-4.0,
2011.0,2168.0,53.0,-3.0,
2084.0,2067.0,52.0,-3.0,
2071.0,2066.0,52.0,-3.0,
2049.0,2093.0,51.0,-3.0,
2041.0,2080.0,51.0,-3.0,
2034.0,2107.0,50.0,-3.0,
2080.0,2103.0,50.0,-3.0,
2089.0,2073.0,50.0,-3.0,
2097.0,2098.0,50.0,-3.0,
2099.0,2058.0,50.0,-3.0,
2112.0,2009.0,50.0,-3.0,
2094.0,2129.0,50.0,-3.0,
2122.0,2088.0,50.0,-3.0,
2089.0,2166.0,51.0,-3.0,
2047.0,2154.0,51.0,-3.0,
2053.0,2121.0,51.0,-3.0,
2040.0,2135.0,51.0,-3.0,
2034.0,2099.0,52.0,-3.0,
2097.0,2099.0,52.0,-4.0,
2090.0,2075.0,52.0,-4.0,
2073.0,2083.0,52.0,-4.0,
2091.0,2092.0,52.0,-4.0,
2090.0,2085.0,52.0,-5.0,
2065.0,2076.0,53.0,-5.0,
2077.0,2049.0,53.0,-5.0,
2071.0,2071.0,53.0,-5.0,
2090.0,2068.0,53.0,-5.0,
2097.0,2062.0,53.0,-5.0,
2075.0,2075.0,53.0,-5.0,
2075.0,2116.0,53.0,-5.0,
2058.0,2124.0,53.0,-5.0,
2067.0,2088.0,53.0,-5.0,
2121.0,2088.0,53.0,-5.0,
2073.0,2086.0,53.0,-5.0,
2041.0,2095.0,53.0,-5.0,
2066.0,2085.0,53.0,-5.0,
2055.0,2091.0,53.0,-5.0,
2093.0,2096.0,53.0,-5.0,
2120.0,2102.0,53.0,-5.0,
2082.0,2120.0,53.0,-5.0,
2085.0,2153.0,54.0,-5.0,
2057.0,2068.0,54.0,-5.0,
2041.0,2088.0,54.0,-5.0,
2047.0,2104.0,54.0,-5.0,
2057.0,2016.0,54.0,-5.0,
2089.0,2074.0,53.0,-5.0,
2059.0,2091.0,53.0,-5.0,
2061.0,2057.0,0,
2018.0,2064.0,53.0,-5.0,
2070.0,2077.0,52.0,-5.0,
2121.0,2138.0,51.0,-5.0,
2102.0,2138.0,50.0,-5.0,
2067.0,2036.0,49.0,-5.0,
2073.0,1989.0,49.0,-5.0,
2121.0,2041.0,48.0,-5.0,
2098.0,2125.0,47.0,-4.0,
2122.0,2144.0,46.0,-4.0,
2072.0,2144.0,45.0,-3.0,
2017.0,2082.0,45.0,-3.0,
2065.0,1996.0,44.0,-3.0,
2029.0,2171.0,43.0,-2.0,
2033.0,2156.0,43.0,-2.0,
2057.0,2162.0,42.0,-2.0,
2084.0,2118.0,42.0,-2.0,
2126.0,2130.0,42.0,-2.0,
2117.0,2134.0,43.0,-2.0,
2068.0,2106.0,43.0,-2.0,
2080.0,2092.0,44.0,-2.0,
2110.0,2115.0,44.0,-2.0,
2100.0,2131.0,45.0,-2.0,
2087.0,2101.0,45.0,-2.0,
2091.0,2068.0,46.0,-3.0,
2068.0,2013.0,46.0,-3.0,
2055.0,2120.0,47.0,-3.0,
2044.0,2104.0,47.0,-3.0,
2028.0,2087.0,47.0,-4.0,
2061.0,2081.0,48.0,-4.0,
2019.0,2104.0,48.0,-4.0,
2086.0,2070.0,48.0,-4.0,
2083.0,2079.0,48.0,-5.0,
2066.0,2072.0,48.0,-5.0,
2060.0,2095.0,48.0,-5.0,
2072.0,2115.0,48.0,-5.0,
2048.0,2077.0,48.0,-5.0,
2082.0,2118.0,48.0,-5.0,
2092.0,2082.0,48.0,-5.0,
2061.0,2078.0,48.0,-5.0,
2068.0,2103.0,48.0,-5.0,
2088.0,2118.0,48.0,-5.0,
2082.0,2138.0,48.0,-5.0,
2082.0,2116.0,48.0,-5.0,
2076.0,2086.0,48.0,-4.0,
2055.0,2078.0,48.0,-4.0,
2035.0,2074.0,48.0,-4.0,
2027.0,2065.0,48.0,-4.0,
2048.0,2081.0,48.0,-4.0,
2066.0,2063.0,48.0,-4.0,
2086.0,2056.0,48.0,-4.0,
2142.0,2067.0,48.0,-4.0,
2087.0,2123.0,48.0,-4.0,
2089.0,1997.0,48.0,-4.0,
2056.0,2162.0,49.0,-4.0,
2055.0,2116.0,49.0,-4.0,
2076.0,2047.0,49.0,-4.0,
2058.0,2111.0,49.0,-4.0,
2074.0,2116.0,49.0,-4.0,
2091.0,2087.0,49.0,-4.0,
2067.0,2115.0,50.0,-4.0,
2076.0,2136.0,50.0,-4.0,
2055.0,2101.0,50.0,-3.0,
2032.0,2076.0,50.0,-3.0,
2071.0,2125.0,50.0,-3.0,
2051.0,2114.0,50.0,-3.0,
2091.0,2109.0,51.0,-3.0,
2107.0,2024.0,51.0,-3.0,
2091.0,2026.0,51.0,-3.0,
2101.0,2072.0,51.0,-3.0,
2061.0,2203.0,51.0,-3.0,
2064.0,2105.0,51.0,-3.0,
2036.0,2059.0,51.0,-3.0,
2058.0,2013.0,51.0,-3.0,
2115.0,2062.0,51.0,-3.0,
2051.0,2102.0,51.0,-3.0,
2084.0,2072.0,51.0,-3.0,
2080.0,2096.0,51.0,-3.0,
2079.0,2106.0,50.0,-3.0,
2061.0,2109.0,50.0,-3.0,
2049.0,2118.0,50.0,-3.0,
2048.0,2119.0,50.0,-3.0,
2021.0,2089.0,49.0,-3.0,
2063.0,2108.0,49.0,-3.0,
2120.0,2092.0,49.0,-3.0,
2089.0,2071.0,49.0,-3.0,
2088.0,2080.0,49.0,-3.0,
2066.0,2063.0,48.0,-3.0,
2108.0,2023.0,48.0,-3.0,
2031.0,2143.0,48.0,-3.0,
1982.0,2156.0,48.0,-3.0,
2021.0,2133.0,47.0,-3.0,
2092.0,2059.0,47.0,-3.0,
2121.0,2099.0,47.0,-3.0,
2140.0,2154.0,46.0,-3.0,
2142.0,2182.0,46.0,-3.0,
2112.0,2213.0,46.0,-3.0,
2051.0,2034.0,46.0,-3.0,
2003.0,1950.0,45.0,-4.0,
2027.0,2040.0,45.0,-4.0,
2076.0,2129.0,45.0,-4.0,
2083.0,2053.0,45.0,-4.0,
2139.0,2089.0,44.0,-4.0,
2110.0,2117.0,44.0,-4.0,
2091.0,2084.0,44.0,-4.0,
2038.0,2093.0,43.0,-4.0,
2061.0,2126.0,43.0,-4.0,
2049.0,2125.0,43.0,-4.0,
2058.0,2123.0,42.0,-4.0,
2058.0,2040.0,42.0,-4.0,
2060.0,2088.0,42.0,-4.0,
2071.0,2126.0,41.0,-4.0,
2052.0,2028.0,41.0,-4.0,
2044.0,2093.0,41.0,-4.0,
2053.0,2097.0,41.0,-4.0,
2054.0,2100.0,41.0,-4.0,
2057.0,2109.0,41.0,-4.0,
2054.0,2111.0,41.0,-4.0,
2051.0,2083.0,40.0,-4.0,
2071.0,2109.0,40.0,-4.0,
2075.0,2102.0,40.0,-4.0,
2085.0,2087.0,40.0,-4.0,
2093.0,2098.0,40.0,-4.0,
2084.0,2062.0,40.0,-4.0,
2060.0,2079.0,40.0,-4.0,
2059.0,2058.0,40.0,-4.0,
2095.0,2063.0,40.0,-4.0,
2059.0,2142.0,40.0,-4.0,
2071.0,2112.0,40.0,-4.0,
2098.0,2075.0,40.0,-4.0,
2106.0,2156.0,41.0,-4.0,
2084.0,2124.0,41.0,-4.0,
2072.0,2107.0,41.0,-4.0,
2066.0,2107.0,41.0,-4.0,
2050.0,2080.0,41.0,-4.0,
2073.0,2051.0,41.0,-4.0,
2071.0,2085.0,41.0,-4.0,
2083.0,2103.0,42.0,-4.0,
2103.0,2092.0,42.0,-4.0,
2080.0,2077.0,42.0,-4.0,
2066.0,2083.0,42.0,-4.0,
2075.0,2083.0,43.0,-4.0,
2048.0,2096.0,43.0,-4.0,
2048.0,2087.0,43.0,-4.0,
2050.0,2088.0,43.0,-4.0,
2065.0,2099.0,43.0,-4.0,
2083.0,2093.0,44.0,-4.0,
2084.0,2100.0,44.0,-4.0,
2101.0,2090.0,44.0,-4.0,
2083.0,2088.0,44.0,-4.0,
2070.0,2101.0,44.0,-4.0,
2044.0,2067.0,45.0,-4.0,
2057.0,2068.0,45.0,-4.0,
2073.0,2090.0,45.0,-4.0,
2068.0,2054.0,45.0,-4.0,
2072.0,2124.0,45.0,-4.0,
2068.0,2189.0,45.0,-4.0,
2080.0,2096.0,45.0,-4.0,
2109.0,2045.0,45.0,-4.0,
2054.0,2148.0,45.0,-4.0,
2073.0,2102.0,46.0,-4.0,
2051.0,2081.0,46.0,-4.0,
2104.0,2067.0,46.0,-4.0,
2093.0,2155.0,46.0,-3.0,
2064.0,2066.0,46.0,-3.0,
2093.0,2070.0,46.0,-3.0,
2062.0,2185.0,46.0,-3.0,
2085.0,2047.0,46.0,-4.0,
2078.0,2073.0,46.0,-4.0,
2039.0,2058.0,46.0,-4.0,
2080.0,2049.0,46.0,-4.0,
2071.0,2094.0,46.0,-4.0,
2060.0,2147.0,46.0,-4.0,
2127.0,2152.0,45.0,-4.0,
2053.0,2048.0,45.0,-4.0,
2081.0,2046.0,45.0,-3.0,
2097.0,2056.0,45.0,0.0,
2008.0,2124.0,45.0,0.0,
2029.0,2032.0,44.0,-2.0,
2058.0,2065.0,44.0,-3.0,
2075.0,2008.0,44.0,-3.0,
2097.0,2159.0,44.0,-3.0,
2062.0,2123.0,43.0,-3.0,
2087.0,2096.0,43.0,-3.0,
2043.0,2082.0,43.0,-3.0,
2065.0,2110.0,42.0,-3.0,
2055.0,2068.0,42.0,-7.0,
2038.0,2144.0,41.0,-6.0,
2047.0,2112.0,41.0,-5.0,
2076.0,2114.0,41.0,-3.0,
2082.0,2112.0,41.0,-3.0,
2077.0,2111.0,41.0,-3.0,
2094.0,2116.0,40.0,-3.0,
2080.0,2101.0,40.0,-3.0,
2056.0,2109.0,40.0,-3.0,
2053.0,2115.0,40.0,-4.0,
2053.0,2081.0,40.0,-4.0,
2058.0,2091.0,40.0,-4.0,
2068.0,2098.0,40.0,-4.0,
2079.0,2098.0,40.0,-4.0,
2079.0,2099.0,40.0,-4.0,
2070.0,2092.0,40.0,-4.0,
2075.0,2090.0,40.0,-4.0,
2058.0,2091.0,40.0,-4.0,
2065.0,2089.0,40.0,-4.0,
2059.0,2087.0,40.0,-4.0,
2090.0,2093.0,40.0,-4.0,
2088.0,2097.0,40.0,-4.0,
2075.0,2105.0,40.0,-4.0,
2075.0,2099.0,40.0,-4.0,
2079.0,2079.0,40.0,-4.0,
2096.0,2074.0,40.0,-4.0,
2075.0,2061.0,40.0,-4.0,
2058.0,2122.0,40.0,-4.0,
2065.0,2108.0,40.0,-4.0,
2079.0,2105.0,40.0,-4.0,
2082.0,2094.0,40.0,-4.0,
2102.0,2107.0,40.0,-4.0,
2068.0,2102.0,40.0,-4.0,
2094.0,2093.0,41.0,-4.0,
2070.0,2082.0,41.0,-4.0,
2046.0,2097.0,41.0,-4.0,
2092.0,2092.0,41.0,-4.0,
2048.0,2103.0,41.0,-4.0,
2074.0,2103.0,41.0,-4.0,
2085.0,2074.0,42.0,-4.0,
2073.0,2099.0,42.0,-4.0,
2079.0,2018.0,42.0,-4.0,
2072.0,2098.0,42.0,-4.0,
2063.0,2155.0,42.0,-4.0,
2053.0,2071.0,42.0,-4.0,
2044.0,2114.0,43.0,-4.0,
2050.0,2094.0,43.0,-4.0,
2067.0,2102.0,43.0,-4.0,
2085.0,2100.0,43.0,-4.0,
2080.0,2070.0,43.0,-4.0,
2062.0,2094.0,43.0,-4.0,
2126.0,2115.0,43.0,-4.0,
2096.0,2115.0,43.0,-4.0,
2081.0,2052.0,43.0,-4.0,
2045.0,2066.0,43.0,-4.0,
2051.0,2120.0,43.0,-4.0,
2038.0,2105.0,43.0,-4.0,
2049.0,2090.0,43.0,-4.0,
2087.0,2085.0,43.0,-4.0,
2163.0,2081.0,43.0,-4.0,
2113.0,2100.0,43.0,-4.0,
2082.0,2105.0,43.0,-4.0,
2060.0,2063.0,43.0,-4.0,
2081.0,2090.0,43.0,-3.0,
2079.0,2106.0,43.0,-3.0,
2105.0,2085.0,43.0,-3.0,
2101.0,2108.0,43.0,-3.0,
2078.0,2063.0,43.0,-4.0,
2064.0,2085.0,43.0,-4.0,
2071.0,2105.0,42.0,-4.0,
2060.0,2114.0,42.0,-4.0,
2063.0,2163.0,42.0,-4.0,
2049.0,1969.0,41.0,-4.0,
2068.0,2055.0,41.0,-4.0,
2054.0,2097.0,41.0,-4.0,
2076.0,2134.0,41.0,-4.0,
2039.0,2112.0,40.0,-4.0,
2029.0,2098.0,40.0,-4.0,
2032.0,2081.0,40.0,-4.0,
2020.0,2062.0,39.0,-4.0,
2027.0,2078.0,39.0,-4.0,
2064.0,2112.0,39.0,-4.0,
2122.0,2074.0,39.0,-4.0,
2108.0,2120.0,39.0,-4.0,
2155.0,2099.0,38.0,-3.0,
2134.0,2156.0,38.0,-3.0,
2118.0,2126.0,38.0,-3.0,
2050.0,2058.0,38.0,-3.0,
2055.0,2129.0,38.0,-3.0,
2063.0,2097.0,38.0,-3.0,
2032.0,2056.0,38.0,-3.0,
2027.0,2098.0,38.0,-3.0,
2059.0,2121.0,38.0,-3.0,
2040.0,2115.0,38.0,-3.0,
2071.0,2110.0,38.0,-3.0,
2101.0,2127.0,39.0,-4.0,
2059.0,2105.0,39.0,-4.0,
2051.0,2112.0,39.0,-4.0,
2073.0,2065.0,39.0,-4.0,
2108.0,2089.0,39.0,-4.0,
2077.0,2096.0,39.0,-4.0,
2076.0,2098.0,39.0,-4.0,
2085.0,2105.0,39.0,-4.0,
2066.0,2102.0,39.0,-4.0,
2052.0,2093.0,39.0,-4.0,
2086.0,2088.0,39.0,-4.0,
2064.0,2095.0,39.0,-4.0,
2062.0,2092.0,39.0,-4.0,
2066.0,2088.0,39.0,-4.0,
2071.0,2090.0,39.0,-4.0,
2075.0,2087.0,39.0,-4.0,
2079.0,2083.0,39.0,-4.0,
2104.0,2079.0,39.0,-4.0,
2046.0,2076.0,39.0,-4.0,
2061.0,2083.0,39.0,-4.0,
2064.0,2096.0,39.0,-4.0,
2070.0,2095.0,39.0,-4.0,
2084.0,2093.0,39.0,-4.0,
2075.0,2092.0,39.0,-4.0,
2079.0,2106.0,39.0,-4.0,
2063.0,2093.0,39.0,-4.0,
2044.0,2091.0,40.0,-4.0,
2067.0,2088.0,40.0,-4.0,
2060.0,2077.0,40.0,-4.0,
2077.0,2086.0,40.0,-4.0,
2089.0,2089.0,40.0,-4.0,
2101.0,2101.0,40.0,-4.0,
2096.0,2120.0,41.0,-4.0,
2111.0,2092.0,41.0,-4.0,
2081.0,2092.0,41.0,-4.0,
2058.0,2097.0,41.0,-4.0,
2047.0,2094.0,41.0,-4.0,
2035.0,2083.0,41.0,-4.0,
2048.0,2090.0,41.0,-4.0,
2083.0,2095.0,41.0,-4.0,
2087.0,2096.0,41.0,-4.0,
2098.0,2134.0,41.0,-4.0,
2078.0,2131.0,41.0,-4.0,
2063.0,2100.0,41.0,-4.0,
2029.0,2054.0,42.0,-4.0,
2064.0,2038.0,42.0,-4.0,
2038.0,2096.0,42.0,-4.0,
2062.0,2090.0,42.0,-4.0,
2086.0,2157.0,42.0,-4.0,
2082.0,2107.0,42.0,-4.0,
2080.0,2088.0,42.0,-4.0,
2058.0,2083.0,42.0,-4.0,
2034.0,2107.0,42.0,-4.0,
2021.0,2082.0,42.0,-4.0,
2047.0,2073.0,41.0,-4.0,
2049.0,2074.0,41.0,-4.0,
2057.0,2108.0,41.0,-4.0,
2119.0,2157.0,41.0,-4.0,
2097.0,2178.0,41.0,-4.0,
2078.0,2129.0,41.0,-4.0,
2041.0,2036.0,41.0,-4.0,
2008.0,2042.0,41.0,-4.0,
2023.0,2042.0,41.0,-4.0,
2108.0,2039.0,41.0,-4.0,
2070.0,2072.0,41.0,-4.0,
2083.0,2092.0,40.0,-4.0,
2108.0,2115.0,40.0,-4.0,
2109.0,2121.0,40.0,-4.0,
2112.0,2080.0,40.0,-4.0,
2091.0,2166.0,39.0,-4.0,
2085.0,2057.0,39.0,-4.0,
2048.0,2077.0,39.0,-4.0,
2036.0,2106.0,39.0,-4.0,
2077.0,2106.0,39.0,-3.0,
2075.0,2110.0,38.0,-3.0,
2073.0,2113.0,38.0,-3.0,
2080.0,2109.0,38.0,-3.0,
2085.0,2088.0,38.0,-3.0,
2085.0,2129.0,38.0,-3.0,
2057.0,2099.0,38.0,-3.0,
2044.0,2085.0,38.0,-4.0,
2065.0,2082.0,38.0,-4.0,
2089.0,2094.0,38.0,-4.0,
2095.0,2099.0,38.0,-4.0,
2133.0,2103.0,38.0,-4.0,
2113.0,2088.0,38.0,-4.0,
2089.0,2110.0,38.0,-4.0,
2067.0,2105.0,38.0,-4.0,
2055.0,2091.0,38.0,-4.0,
2064.0,2098.0,38.0,-4.0,
2051.0,2087.0,38.0,-4.0,
2073.0,2075.0,39.0,-4.0,
2093.0,2097.0,39.0,-4.0,
2071.0,2109.0,39.0,-4.0,
2084.0,2094.0,39.0,-4.0,
2073.0,2097.0,39.0,-4.0,
2054.0,2085.0,39.0,-4.0,
2048.0,2088.0,39.0,-4.0,
2064.0,2087.0,39.0,-4.0,
2064.0,2086.0,39.0,-4.0,
2074.0,2086.0,39.0,-4.0,
2094.0,2092.0,39.0,-4.0,
2081.0,2087.0,40.0,-4.0,
2080.0,2082.0,40.0,-4.0,
2072.0,2094.0,40.0,-4.0,
2047.0,2110.0,40.0,-4.0,
2040.0,2081.0,40.0,-4.0,
2036.0,2080.0,40.0,-4.0,
2052.0,2082.0,40.0,-4.0,
2090.0,2102.0,40.0,-4.0,
2102.0,2102.0,41.0,-4.0,
2092.0,2116.0,41.0,-4.0,
2070.0,2098.0,41.0,-4.0,
2094.0,2088.0,41.0,-4.0,
2076.0,2148.0,41.0,-4.0,
2028.0,2071.0,41.0,-4.0,
2014.0,2080.0,41.0,-4.0,
2026.0,2037.0,41.0,-4.0,
2051.0,2025.0,41.0,-4.0,
2054.0,2063.0,41.0,-4.0,
2114.0,2063.0,41.0,-4.0,
2164.0,2123.0,41.0,-4.0,
2132.0,2096.0,41.0,-4.0,
2069.0,2089.0,41.0,-4.0,
2067.0,2099.0,41.0,-4.0,
2086.0,2100.0,41.0,-4.0,
2060.0,2099.0,41.0,-4.0,
2087.0,2114.0,40.0,-4.0,
2091.0,2112.0,40.0,-4.0,
2082.0,2124.0,40.0,-4.0,
2063.0,2120.0,40.0,-4.0,
2017.0,2113.0,40.0,-4.0,
2037.0,2107.0,40.0,-4.0,
2043.0,2109.0,40.0,-4.0,
2039.0,2102.0,40.0,-4.0,
2077.0,2080.0,40.0,-4.0,
2083.0,2099.0,40.0,-4.0,
2107.0,2140.0,40.0,-4.0,
2109.0,2049.0,40.0,-4.0,
2084.0,2074.0,40.0,-4.0,
2060.0,2094.0,40.0,-4.0,
2099.0,2096.0,39.0,-4.0,
2089.0,2058.0,39.0,-4.0,
2055.0,2084.0,39.0,-4.0,
2094.0,2092.0,39.0,-4.0,
2078.0,2103.0,39.0,-4.0,
2078.0,2067.0,39.0,-4.0,
2084.0,2083.0,39.0,-4.0,
2068.0,2091.0,39.0,-4.0,
2047.0,2095.0,39.0,-4.0,
2046.0,2086.0,39.0,-4.0,
2036.0,2093.0,39.0,-4.0,
2042.0,2096.0,39.0,-4.0,
2068.0,2100.0,39.0,-4.0,
2086.0,2100.0,39.0,-4.0,
2126.0,2101.0,39.0,-4.0,
2104.0,2102.0,39.0,-4.0,
2076.0,2107.0,39.0,-4.0,
2069.0,2082.0,39.0,-4.0,
2054.0,2098.0,40.0,-4.0,
2068.0,2088.0,40.0,-4.0,
2077.0,2085.0,40.0,-4.0,
2076.0,2113.0,40.0,-4.0,
2071.0,2085.0,40.0,-4.0,
2059.0,2086.0,40.0,-4.0,
2039.0,2077.0,40.0,-4.0,
2114.0,2080.0,40.0,-4.0,
2083.0,2088.0,40.0,-4.0,
2056.0,2060.0,40.0,-4.0,
2070.0,2106.0,40.0,-4.0,
2105.0,2113.0,40.0,-4.0,
2075.0,2086.0,40.0,-4.0,
2074.0,2070.0,40.0,-4.0,
2043.0,2094.0,40.0,-4.0,
2043.0,2099.0,40.0,-4.0,
2042.0,2095.0,40.0,-4.0,
2073.0,2100.0,40.0,-4.0,
2067.0,2086.0,40.0,-4.0,
2047.0,2109.0,40.0,-4.0,
2065.0,2117.0,40.0,-4.0,
2076.0,2114.0,40.0,-4.0,
2099.0,2110.0,40.0,-4.0,
2052.0,2115.0,40.0,-4.0,
2040.0,2144.0,40.0,-4.0,
2048.0,2158.0,40.0,-4.0,
2024.0,2055.0,40.0,-4.0,
2054.0,2074.0,40.0,-4.0,
2105.0,2040.0,40.0,-4.0,
2102.0,2043.0,40.0,-4.0,
2083.0,2092.0,40.0,-4.0,
2149.0,2030.0,40.0,-4.0,
2108.0,2103.0,40.0,-4.0,
2073.0,2077.0,40.0,-4.0,
2069.0,2087.0,40.0,-4.0,
2047.0,2099.0,40.0,-4.0,
2044.0,2089.0,40.0,-4.0,
2075.0,2099.0,40.0,-4.0,
2093.0,2104.0,40.0,-4.0,
2085.0,2114.0,40.0,-4.0,
2086.0,2113.0,40.0,-4.0,
2068.0,2108.0,40.0,-4.0,
2055.0,2106.0,40.0,-4.0,
2062.0,2099.0,40.0,-4.0,
2067.0,2099.0,40.0,-4.0,
2072.0,2104.0,40.0,-4.0,
2077.0,2104.0,40.0,-4.0,
2084.0,2106.0,40.0,-4.0,
2096.0,2102.0,40.0,-4.0,
2085.0,2092.0,40.0,-4.0,
2073.0,2096.0,40.0,-4.0,
2050.0,2085.0,39.0,-4.0,
2030.0,2124.0,39.0,-4.0,
2031.0,2085.0,40.0,-4.0,
2057.0,2097.0,40.0,-4.0,
2083.0,2104.0,40.0,-4.0,
2110.0,2094.0,40.0,-4.0,
2110.0,2097.0,40.0,-4.0,
2111.0,2059.0,40.0,-4.0,
2068.0,2069.0,40.0,-4.0,
2055.0,2099.0,40.0,-4.0,
2045.0,2112.0,40.0,-4.0,
2085.0,2118.0,40.0,-4.0,
2068.0,2066.0,40.0,-4.0,
2070.0,2077.0,40.0,-4.0,
2082.0,2090.0,40.0,-4.0,
2077.0,2098.0,40.0,-4.0,
2079.0,2104.0,40.0,-4.0,
2057.0,2096.0,40.0,-4.0,
2031.0,2114.0,40.0,-4.0,
2069.0,2084.0,40.0,-4.0,
2064.0,2089.0,40.0,-4.0,
2085.0,2096.0,40.0,-4.0,
2086.0,2098.0,40.0,-4.0,
2084.0,2104.0,40.0,-4.0,
2089.0,2094.0,40.0,-4.0,
2069.0,2094.0,40.0,-4.0,
2046.0,2092.0,40.0,-4.0,
2050.0,2095.0,40.0,-4.0,
2043.0,2091.0,40.0,-4.0,
2080.0,2095.0,40.0,-4.0,
2114.0,2092.0,40.0,-4.0,
2077.0,2091.0,40.0,-4.0,
2089.0,2104.0,40.0,-4.0,
2060.0,2122.0,40.0,-4.0,
2064.0,2133.0,40.0,-4.0,
2069.0,2073.0,40.0,-4.0,
2088.0,2068.0,40.0,-4.0,
2081.0,2072.0,40.0,-4.0,
2106.0,2080.0,40.0,-4.0,
2110.0,2082.0,41.0,-4.0,
2103.0,2084.0,40.0,-4.0,
2124.0,2104.0,40.0,-4.0,
2090.0,2102.0,40.0,-4.0,
2057.0,2088.0,40.0,-4.0,
2052.0,2090.0,40.0,-4.0,
2048.0,2092.0,40.0,-4.0,
2050.0,2095.0,40.0,-4.0,
2065.0,2099.0,40.0,-4.0,
2071.0,2100.0,40.0,-4.0,
2077.0,2099.0,40.0,-4.0,
2051.0,2128.0,40.0,-4.0,
2036.0,2089.0,40.0,-4.0,
2052.0,2092.0,40.0,-4.0,
2049.0,2100.0,40.0,-4.0,
2051.0,2135.0,40.0,-4.0,
2105.0,2146.0,40.0,-4.0,
2099.0,2059.0,40.0,-4.0,
2050.0,2113.0,40.0,-4.0,
2053.0,2065.0,40.0,-4.0,
2055.0,2006.0,40.0,-4.0,
2077.0,2088.0,40.0,-4.0,
2047.0,2112.0,40.0,-4.0,
2057.0,2069.0,40.0,-4.0,
2142.0,2050.0,40.0,-4.0,
2114.0,2056.0,39.0,-4.0,
2109.0,2097.0,39.0,-4.0,
2102.0,2102.0,39.0,-4.0,
2126.0,2119.0,39.0,-4.0,
2091.0,2115.0,39.0,-4.0,
2058.0,2103.0,39.0,-4.0,
2058.0,2108.0,39.0,-4.0,
2057.0,2103.0,39.0,-4.0,
2064.0,2104.0,39.0,-4.0,
2064.0,2110.0,39.0,-4.0,
2069.0,2109.0,39.0,-4.0,
2088.0,2110.0,39.0,-4.0,
2080.0,2070.0,39.0,-4.0,
2078.0,2104.0,39.0,-4.0,
2070.0,2106.0,39.0,-4.0,
2037.0,2097.0,39.0,-4.0,
2045.0,2089.0,39.0,-4.0,
2057.0,2087.0,39.0,-4.0,
2064.0,2093.0,39.0,-4.0,
2066.0,2106.0,39.0,-4.0,
2060.0,2077.0,39.0,-4.0,
2063.0,2100.0,39.0,-4.0,
2068.0,2071.0,39.0,-4.0,
2078.0,2088.0,39.0,-4.0,
2110.0,2104.0,39.0,-4.0,
2065.0,2051.0,39.0,-4.0,
2080.0,2049.0,39.0,-4.0,
2040.0,2107.0,39.0,-4.0,
2072.0,2095.0,39.0,-4.0,
2076.0,2103.0,39.0,-4.0,
2077.0,2105.0,39.0,-4.0,
2080.0,2080.0,39.0,-4.0,
2065.0,2093.0,39.0,-4.0,
2063.0,2090.0,40.0,-4.0,
2054.0,2096.0,40.0,-4.0,
2068.0,2100.0,40.0,-4.0,
2091.0,2105.0,40.0,-4.0,
2090.0,2099.0,40.0,-4.0,
2078.0,2101.0,40.0,-4.0,
2084.0,2094.0,40.0,-4.0,
2064.0,2097.0,40.0,-4.0,
2058.0,2091.0,40.0,-4.0,
2056.0,2092.0,40.0,-4.0,
2061.0,2093.0,40.0,-4.0,
2067.0,2095.0,40.0,-4.0,
2095.0,2101.0,40.0,-4.0,
2092.0,2105.0,40.0,-4.0,
2079.0,2115.0,40.0,-4.0,
2048.0,2079.0,41.0,-4.0,
2038.0,2076.0,41.0,-4.0,
2027.0,2084.0,41.0,-4.0,
2047.0,2111.0,41.0,-4.0,
2129.0,2088.0,41.0,-4.0,
2082.0,2092.0,41.0,-4.0,
2099.0,2067.0,41.0,-4.0,
2096.0,2077.0,41.0,-4.0,
2118.0,2090.0,41.0,-4.0,
2110.0,2077.0,40.0,-4.0,
2062.0,2091.0,40.0,-4.0,
2067.0,2095.0,40.0,-4.0,
2059.0,2108.0,40.0,-4.0,
2070.0,2095.0,40.0,-4.0,
2084.0,2101.0,40.0,-4.0,
2095.0,2118.0,40.0,-4.0,
2086.0,2115.0,40.0,-4.0,
2059.0,2084.0,40.0,-4.0,
2048.0,2106.0,40.0,-4.0,
2062.0,2089.0,40.0,-4.0,
2026.0,2098.0,40.0,-4.0,
2052.0,2104.0,40.0,-4.0,
2053.0,2099.0,40.0,-4.0,
2052.0,2116.0,40.0,-4.0,
2078.0,2178.0,40.0,-4.0,
2061.0,2067.0,40.0,-4.0,
2060.0,2065.0,40.0,-4.0,
2060.0,2039.0,40.0,-4.0,
2045.0,2086.0,40.0,-4.0,
2069.0,2133.0,40.0,-4.0,
2098.0,2079.0,40.0,-4.0,
2081.0,2094.0,40.0,-4.0,
2090.0,2086.0,40.0,-4.0,
2114.0,2043.0,40.0,-4.0,
2117.0,2140.0,40.0,-4.0,
2081.0,2109.0,40.0,-4.0,
2090.0,2092.0,39.0,-4.0,
2050.0,2102.0,39.0,-4.0,
2046.0,2103.0,39.0,-4.0,
2085.0,2092.0,39.0,-4.0,
2083.0,2097.0,39.0,-4.0,
2095.0,2105.0,39.0,-4.0,
2083.0,2121.0,39.0,-4.0,
2075.0,2124.0,39.0,-4.0,
2050.0,2095.0,39.0,-4.0,
2048.0,2123.0,39.0,-4.0,
2023.0,2050.0,39.0,-4.0,
2043.0,2088.0,39.0,-4.0,
2103.0,2102.0,39.0,-4.0,
2085.0,2106.0,39.0,-4.0,
2076.0,2127.0,39.0,-4.0,
2091.0,2109.0,39.0,-4.0,
2098.0,2039.0,39.0,-4.0,
2074.0,2093.0,39.0,-4.0,
2046.0,2080.0,39.0,-4.0,
2048.0,2080.0,39.0,-4.0,
2054.0,2090.0,39.0,-4.0,
2063.0,2049.0,39.0,-4.0,
2068.0,2113.0,39.0,-4.0,
2104.0,2120.0,39.0,-4.0,
2126.0,2099.0,39.0,-4.0,
2114.0,2096.0,39.0,-4.0,
2076.0,2086.0,39.0,-4.0,
2063.0,2088.0,39.0,-4.0,
2060.0,2090.0,39.0,-4.0,
2067.0,2085.0,39.0,-4.0,
2064.0,2097.0,39.0,-4.0,
2080.0,2115.0,39.0,-4.0,
2073.0,2106.0,39.0,-4.0,
2056.0,2097.0,39.0,-4.0,
2072.0,2100.0,39.0,-4.0,
2056.0,2107.0,39.0,-4.0,
2052.0,2102.0,39.0,-4.0,
2046.0,2096.0,39.0,-4.0,
2067.0,2080.0,39.0,-4.0,
2058.0,2067.0,39.0,-4.0,
2091.0,2104.0,39.0,-4.0,
2087.0,2117.0,39.0,-4.0,
2092.0,2070.0,39.0,-4.0,
2075.0,2076.0,39.0,-4.0,
2057.0,2055.0,39.0,-4.0,
2106.0,2077.0,40.0,-4.0,
2068.0,2067.0,40.0,-4.0,
2065.0,2088.0,40.0,-4.0,
2081.0,2101.0,40.0,-4.0,
2095.0,2122.0,40.0,-4.0,
2091.0,2115.0,40.0,-4.0,
2064.0,2118.0,40.0,-4.0,
2049.0,2069.0,40.0,-4.0,
2056.0,2099.0,40.0,-4.0,
2043.0,2105.0,40.0,-4.0,
2060.0,2074.0,40.0,-4.0,
2058.0,2095.0,40.0,-4.0,
2048.0,2124.0,40.0,-4.0,
2116.0,2145.0,40.0,-4.0,
2080.0,2125.0,40.0,-4.0,
2081.0,2087.0,40.0,-4.0,
2066.0,2057.0,40.0,-4.0,
2010.0,2046.0,40.0,-4.0,
2029.0,2083.0,40.0,-4.0,
2050.0,2121.0,40.0,-4.0,
2071.0,2129.0,40.0,-4.0,
2088.0,2123.0,40.0,-4.0,
2100.0,2107.0,40.0,-4.0,
2141.0,2069.0,40.0,-4.0,
2070.0,2071.0,40.0,-4.0,
2059.0,2069.0,40.0,-4.0,
2064.0,2064.0,40.0,-4.0,
2061.0,2089.0,40.0,-4.0,
2060.0,2079.0,40.0,-4.0,
2079.0,2107.0,40.0,-4.0,
2096.0,2102.0,39.0,-4.0,
2098.0,2053.0,39.0,-4.0,
2063.0,2139.0,39.0,-4.0,
2074.0,2150.0,39.0,-4.0,
2047.0,2120.0,39.0,-4.0,
2057.0,2098.0,39.0,-4.0,
2026.0,2067.0,39.0,-4.0,
2039.0,2030.0,39.0,-4.0,
2096.0,2112.0,39.0,-4.0,
2111.0,2078.0,39.0,-4.0,
2076.0,2093.0,39.0,-4.0,
2057.0,2100.0,39.0,-4.0,
2056.0,2102.0,39.0,-4.0,
2100.0,2112.0,39.0,-4.0,
2120.0,2123.0,39.0,-4.0,
2095.0,2028.0,39.0,-4.0,
2071.0,2006.0,39.0,-4.0,
2089.0,2100.0,39.0,-4.0,
2073.0,2116.0,39.0,-4.0,
2068.0,2086.0,39.0,-4.0,
2087.0,2105.0,39.0,-4.0,
2081.0,2108.0,39.0,-4.0,
2079.0,2147.0,39.0,-4.0,
2085.0,2144.0,39.0,-4.0,
2039.0,2028.0,39.0,-4.0,
2021.0,2102.0,39.0,-4.0,
2069.0,2127.0,39.0,-4.0,
2112.0,2108.0,39.0,-4.0,
2090.0,2089.0,39.0,-4.0,
2055.0,2112.0,39.0,-4.0,
2047.0,2104.0,39.0,-4.0,
2065.0,2120.0,39.0,-4.0,
2053.0,2154.0,39.0,-4.0,
2054.0,2087.0,39.0,-4.0,
2090.0,2089.0,39.0,-4.0,
2108.0,2056.0,39.0,-4.0,
2100.0,2086.0,39.0,-4.0,
2068.0,2102.0,39.0,-4.0,
2039.0,2119.0,39.0,-4.0,
2032.0,2070.0,39.0,-4.0,
2048.0,2081.0,39.0,-4.0,
2124.0,2154.0,39.0,-4.0,
2087.0,2056.0,39.0,-4.0,
2052.0,2071.0,39.0,-4.0,
2123.0,2158.0,39.0,-4.0,
2067.0,2080.0,39.0,-4.0,
2048.0,2050.0,39.0,-4.0,
2033.0,2058.0,39.0,-4.0,
2065.0,2069.0,39.0,-4.0,
2100.0,2057.0,40.0,-4.0,
2000.0,2056.0,40.0,-4.0,
2088.0,2102.0,40.0,-4.0,
2061.0,2130.0,40.0,-4.0,
2108.0,2101.0,0,
2050.0,2140.0,40.0,-4.0,
2046.0,2069.0,40.0,-4.0,
2023.0,2075.0,40.0,-4.0,
2084.0,2119.0,40.0,-4.0,
2030.0,2009.0,40.0,-4.0,
2027.0,2142.0,40.0,-4.0,
2025.0,2153.0,39.0,-4.0,
2055.0,2117.0,39.0,-3.0,
2095.0,2085.0,39.0,-3.0,
2157.0,2093.0,39.0,-3.0,
2137.0,2109.0,39.0,-3.0,
2062.0,2094.0,39.0,-3.0,
2069.0,2157.0,39.0,-3.0,
2050.0,2053.0,39.0,-3.0,
2039.0,2072.0,39.0,-3.0,
2103.0,2101.0,39.0,-3.0,
2101.0,2119.0,39.0,-3.0,
2071.0,2080.0,39.0,-3.0,
2067.0,2059.0,39.0,-3.0,
2071.0,2091.0,39.0,-3.0,
2078.0,2091.0,39.0,-3.0,
2062.0,2100.0,39.0,-4.0,
2082.0,2117.0,39.0,-4.0,
2086.0,2092.0,39.0,-4.0,
2051.0,2114.0,40.0,-4.0,
2029.0,2122.0,40.0,-4.0,
2025.0,2096.0,40.0,-4.0,
2085.0,2075.0,40.0,-4.0,
2089.0,2073.0,40.0,-4.0,
2037.0,2152.0,40.0,-4.0,
2064.0,2131.0,40.0,-4.0,
2088.0,2133.0,41.0,-4.0,
2076.0,2063.0,41.0,-4.0,
2084.0,2009.0,41.0,-4.0,
2103.0,2053.0,41.0,-4.0,
2096.0,2099.0,41.0,-4.0,
2078.0,2100.0,41.0,-4.0,
2081.0,2110.0,42.0,-4.0,
2017.0,2121.0,42.0,-4.0,
2016.0,2135.0,42.0,-4.0,
2046.0,2167.0,42.0,-4.0,
2087.0,2086.0,42.0,-4.0,
2109.0,2127.0,42.0,-4.0,
2114.0,2077.0,42.0,-4.0,
2057.0,2055.0,43.0,-4.0,
2107.0,2082.0,43.0,-4.0,
2057.0,2017.0,43.0,-4.0,
2066.0,2020.0,43.0,-4.0,
2074.0,2076.0,43.0,-4.0,
2034.0,2095.0,43.0,-4.0,
2050.0,2104.0,43.0,-4.0,
2087.0,2134.0,44.0,-4.0,
2111.0,2101.0,44.0,-3.0,
2045.0,2082.0,44.0,-3.0,
2111.0,2099.0,44.0,-3.0,
2102.0,2067.0,44.0,-3.0,
2089.0,2152.0,44.0,-3.0,
2050.0,2071.0,0,
2015.0,2054.0,44.0,-3.0,
2070.0,2168.0,44.0,-3.0,
2093.0,2019.0,44.0,-3.0,
2092.0,1957.0,44.0,-3.0,
2079.0,2090.0,44.0,-3.0,
2054.0,2118.0,45.0,-3.0,
2046.0,2116.0,45.0,-3.0,
2094.0,2115.0,45.0,-3.0,
2052.0,2210.0,45.0,-3.0,
2062.0,2128.0,45.0,-3.0,
2034.0,2048.0,45.0,-4.0,
2068.0,2047.0,45.0,-4.0,
2069.0,2099.0,45.0,-4.0,
2092.0,2094.0,45.0,-4.0,
2057.0,2115.0,45.0,-4.0,
2048.0,2123.0,45.0,-4.0,
2085.0,2074.0,45.0,-4.0,
2099.0,2117.0,45.0,-4.0,
2117.0,2168.0,45.0,-4.0,
2065.0,2072.0,45.0,-4.0,
2088.0,2098.0,45.0,-4.0,
2040.0,2020.0,45.0,-4.0,
2061.0,2040.0,45.0,-4.0,
2056.0,2080.0,46.0,-4.0,
2040.0,2087.0,46.0,-4.0,
2048.0,2132.0,46.0,-5.0,
2061.0,2147.0,46.0,-5.0,
2061.0,2041.0,46.0,-5.0,
2093.0,2072.0,46.0,-5.0,
2083.0,2134.0,46.0,-5.0,
2083.0,2162.0,47.0,-5.0,
2039.0,2161.0,47.0,-5.0,
2052.0,2052.0,47.0,-5.0,
2018.0,2013.0,47.0,-4.0,
2073.0,2052.0,47.0,-4.0,
2066.0,2030.0,0,
2069.0,2160.0,47.0,-4.0,
2086.0,2103.0,48.0,-4.0,
2083.0,2073.0,48.0,-4.0,
2020.0,2075.0,48.0,-4.0,
2066.0,2084.0,48.0,-4.0,
2051.0,1997.0,48.0,-4.0,
2065.0,2114.0,48.0,-4.0,
2094.0,2059.0,48.0,-4.0,
2114.0,2137.0,48.0,-4.0,
2085.0,2146.0,48.0,-4.0,
2075.0,2087.0,48.0,-4.0,
2056.0,2119.0,48.0,-4.0,
2037.0,2155.0,49.0,-4.0,
2039.0,2113.0,49.0,-4.0,
2066.0,2078.0,49.0,-4.0,
2037.0,2070.0,49.0,-4.0,
2094.0,2129.0,49.0,-4.0,
2069.0,2172.0,49.0,-4.0,
2086.0,2122.0,50.0,-4.0,
2104.0,2137.0,50.0,-4.0,
2014.0,1970.0,50.0,-4.0,
2064.0,2124.0,50.0,-4.0,
2031.0,2112.0,50.0,-4.0,
2060.0,2063.0,50.0,-4.0,
2072.0,2005.0,51.0,-4.0,
2094.0,2032.0,51.0,-4.0,
2090.0,2073.0,51.0,-4.0,
2117.0,2125.0,51.0,-4.0,
2063.0,2130.0,51.0,-4.0,
2062.0,2111.0,51.0,-4.0,
2052.0,2133.0,51.0,-4.0,
2049.0,2021.0,51.0,-4.0,
2054.0,2097.0,52.0,-4.0,
2078.0,2126.0,52.0,-4.0,
2097.0,2205.0,52.0,-4.0,
2087.0,2126.0,52.0,-4.0,
2115.0,2046.0,52.0,-4.0,
2001.0,2106.0,52.0,-4.0,
2155.0,2125.0,52.0,-4.0,
2060.0,2040.0,52.0,-4.0,
2037.0,2008.0,53.0,-4.0,
2011.0,2022.0,53.0,-4.0,
2080.0,2140.0,53.0,-4.0,
2095.0,2153.0,53.0,-4.0,
2077.0,2115.0,53.0,-4.0,
2069.0,2064.0,53.0,-4.0,
2093.0,2133.0,53.0,-4.0,
2082.0,2075.0,53.0,-4.0,
2017.0,2036.0,54.0,-4.0,
2016.0,2037.0,54.0,-4.0,
2043.0,2092.0,54.0,-4.0,
2080.0,2054.0,54.0,-4.0,
2020.0,2036.0,54.0,-4.0,
2102.0,2115.0,54.0,-4.0,
2092.0,2218.0,54.0,-4.0,
2113.0,2039.0,54.0,-4.0,
2015.0,2074.0,54.0,-4.0,
2057.0,2131.0,54.0,-4.0,
2094.0,2191.0,54.0,-4.0,
2046.0,2154.0,54.0,-4.0,
2061.0,1917.0,54.0,-4.0,
2106.0,2130.0,54.0,-4.0,
2060.0,1971.0,54.0,-4.0,
2131.0,2095.0,54.0,-4.0,
2093.0,2137.0,54.0,-4.0,
2001.0,2016.0,54.0,-4.0,
2032.0,2121.0,54.0,-4.0,
2078.0,2111.0,54.0,-4.0,
2069.0,2093.0,54.0,-4.0,
2083.0,2099.0,54.0,-4.0,
2115.0,2087.0,54.0,-4.0,
2113.0,2154.0,54.0,-4.0,
2078.0,2182.0,54.0,-4.0,
2093.0,2132.0,54.0,-4.0,
2007.0,2029.0,55.0,-4.0,
2031.0,2081.0,55.0,-4.0,
2040.0,2172.0,55.0,-4.0,
2051.0,2103.0,55.0,-4.0,
2097.0,2042.0,55.0,-4.0,
2064.0,2043.0,55.0,-4.0,
2051.0,2106.0,55.0,-5.0,
2130.0,2153.0,56.0,-5.0,
2082.0,2010.0,56.0,-5.0,
2046.0,2071.0,56.0,-5.0,
2072.0,2057.0,56.0,-5.0,
2062.0,2121.0,56.0,-5.0,
2060.0,2086.0,56.0,-5.0,
2072.0,2047.0,56.0,-5.0,
2112.0,2186.0,57.0,-5.0,
2076.0,2170.0,57.0,-5.0,
2035.0,2063.0,57.0,-5.0,
2060.0,2099.0,57.0,-5.0,
2099.0,2093.0,57.0,-5.0,
2068.0,2066.0,57.0,-5.0,
2040.0,2070.0,58.0,-5.0,
2082.0,2061.0,58.0,-5.0,
2089.0,2185.0,58.0,-5.0,
2106.0,2111.0,58.0,-5.0,
2074.0,2103.0,58.0,-5.0,
2074.0,2061.0,58.0,-5.0,
2076.0,2116.0,59.0,-5.0,
2052.0,2093.0,59.0,-5.0,
2074.0,2022.0,59.0,-5.0,
2067.0,2158.0,59.0,-5.0,
2045.0,2057.0,59.0,-5.0,
2102.0,2152.0,59.0,-5.0,
2082.0,1977.0,60.0,-5.0,
2039.0,2034.0,60.0,-5.0,
2123.0,2139.0,60.0,-5.0,
2065.0,2119.0,60.0,-5.0,
2024.0,2086.0,60.0,-5.0,
2079.0,2046.0,61.0,-5.0,
2057.0,2117.0,61.0,-5.0,
2106.0,2199.0,61.0,-5.0,
2097.0,2076.0,61.0,-5.0,
2066.0,2042.0,61.0,-5.0,
2091.0,2100.0,61.0,-5.0,
2071.0,2061.0,61.0,-5.0,
2086.0,2149.0,61.0,-5.0,
2099.0,2182.0,61.0,-5.0,
2047.0,2016.0,61.0,-5.0,
2065.0,2050.0,62.0,-5.0,
2087.0,2114.0,62.0,-5.0,
2029.0,2062.0,62.0,-5.0,
2090.0,2126.0,62.0,-5.0,
2055.0,2210.0,62.0,-5.0,
2047.0,2179.0,62.0,-5.0,
2032.0,2086.0,63.0,-4.0,
2020.0,1999.0,63.0,-4.0,
2110.0,2153.0,63.0,-4.0,
2028.0,2113.0,63.0,-4.0,
2079.0,2065.0,63.0,-4.0,
2117.0,2011.0,63.0,-5.0,
2132.0,2074.0,63.0,-5.0,
2080.0,2053.0,63.0,-5.0,
2088.0,2097.0,63.0,-5.0,
2068.0,2138.0,63.0,-5.0,
2125.0,2120.0,63.0,-5.0,
2096.0,2118.0,64.0,-5.0,
2016.0,2099.0,64.0,-5.0,
2068.0,2113.0,64.0,-5.0,
2061.0,2102.0,64.0,-5.0,
2040.0,2039.0,64.0,-5.0,
2030.0,2120.0,65.0,-5.0,
2006.0,2080.0,65.0,-5.0,
2065.0,2209.0,65.0,-5.0,
2043.0,2152.0,65.0,-5.0,
2127.0,2066.0,65.0,-5.0,
2107.0,1929.0,65.0,-5.0,
2142.0,2178.0,65.0,-5.0,
2069.0,2164.0,66.0,-5.0,
2066.0,1980.0,66.0,-5.0,
2096.0,2071.0,66.0,-5.0,
2070.0,2007.0,66.0,-5.0,
2056.0,2149.0,66.0,-5.0,
2009.0,2103.0,66.0,-5.0,
2054.0,2075.0,66.0,-5.0,
2071.0,2111.0,66.0,-5.0,
2071.0,2069.0,66.0,-5.0,
2136.0,2106.0,66.0,-5.0,
2001.0,2084.0,66.0,-5.0,
2058.0,2130.0,66.0,-5.0,
2046.0,2077.0,66.0,-5.0,
2056.0,2066.0,66.0,-5.0,
2138.0,2139.0,66.0,-5.0,
2028.0,2119.0,0,
2061.0,2056.0,66.0,-5.0,
2055.0,2061.0,66.0,-5.0,
2063.0,2124.0,66.0,-5.0,
2123.0,2139.0,66.0,-5.0,
2040.0,2049.0,66.0,-5.0,
2042.0,2013.0,66.0,-5.0,
2109.0,2096.0,66.0,-5.0,
2087.0,2227.0,66.0,-5.0,
2100.0,1960.0,67.0,-5.0,
2066.0,2040.0,67.0,-5.0,
2082.0,2134.0,67.0,-5.0,
2080.0,2118.0,67.0,-5.0,
2043.0,2159.0,67.0,-5.0,
2056.0,2112.0,67.0,-5.0,
2041.0,2052.0,67.0,-5.0,
2036.0,2005.0,67.0,-5.0,
2109.0,2055.0,67.0,-5.0,
2067.0,2118.0,67.0,-5.0,
2126.0,2116.0,67.0,-5.0,
2142.0,2170.0,67.0,-5.0,
2052.0,2096.0,67.0,-5.0,
2099.0,2053.0,67.0,-5.0,
2052.0,2103.0,67.0,-5.0,
2024.0,2219.0,68.0,-5.0,
2111.0,2084.0,68.0,-5.0,
2085.0,2108.0,68.0,-5.0,
2051.0,2062.0,68.0,-5.0,
2084.0,2094.0,68.0,-5.0,
