2096.0,2120.0,53.0,0.0,
2099.0,2126.0,53.0,0.0,
2079.0,2129.0,53.0,0.0,
2090.0,2114.0,53.0,0.0,
2092.0,2119.0,53.0,0.0,
2096.0,2111.0,53.0,0.0,
2087.0,2113.0,53.0,0.0,
2081.0,2114.0,53.0,0.0,
2078.0,2102.0,53.0,0.0,
2076.0,2099.0,53.0,0.0,
2062.0,2106.0,53.0,0.0,
2063.0,2107.0,53.0,0.0,
2084.0,2113.0,53.0,0.0,
2086.0,2122.0,53.0,0.0,
2091.0,2125.0,53.0,0.0,
2093.0,2107.0,53.0,0.0,
2082.0,2101.0,53.0,0.0,
2081.0,2102.0,53.0,0.0,
2081.0,2097.0,53.0,0.0,
2071.0,2101.0,53.0,0.0,
2061.0,2108.0,53.0,0.0,
2077.0,2124.0,53.0,0.0,
2085.0,2116.0,53.0,0.0,
2089.0,2119.0,53.0,0.0,
2092.0,2112.0,53.0,0.0,
2094.0,2114.0,53.0,0.0,
2092.0,2109.0,53.0,0.0,
2084.0,2101.0,53.0,0.0,
2076.0,2106.0,53.0,0.0,
2084.0,2113.0,53.0,0.0,
2093.0,2123.0,53.0,0.0,
2088.0,2114.0,53.0,0.0,
2114.0,2105.0,53.0,0.0,
2082.0,2109.0,53.0,0.0,
2095.0,2103.0,53.0,0.0,
2066.0,2104.0,53.0,0.0,
2069.0,2104.0,53.0,0.0,
2069.0,2112.0,53.0,0.0,
2074.0,2124.0,53.0,0.0,
2073.0,2116.0,53.0,0.0,
2083.0,2116.0,53.0,0.0,
2087.0,2117.0,53.0,0.0,
2088.0,2148.0,53.0,0.0,
2080.0,2102.0,53.0,0.0,
2065.0,2108.0,53.0,0.0,
2061.0,2102.0,53.0,0.0,
2063.0,2102.0,53.0,0.0,
2073.0,2119.0,53.0,0.0,
2083.0,2114.0,53.0,0.0,
2092.0,2114.0,53.0,0.0,
2106.0,2119.0,53.0,0.0,
2086.0,2100.0,53.0,0.0,
2081.0,2083.0,53.0,0.0,
2073.0,2097.0,53.0,0.0,
2075.0,2101.0,53.0,0.0,
2087.0,2109.0,53.0,0.0,
2072.0,2110.0,53.0,0.0,
2098.0,2105.0,53.0,0.0,
2104.0,2102.0,53.0,0.0,
2110.0,2099.0,53.0,0.0,
2099.0,2104.0,53.0,0.0,
2079.0,2106.0,53.0,0.0,
2089.0,2110.0,53.0,0.0,
2079.0,2107.0,53.0,0.0,
2081.0,2099.0,53.0,0.0,
2089.0,2124.0,53.0,0.0,
2100.0,2114.0,53.0,0.0,
2100.0,2107.0,53.0,0.0,
2100.0,2104.0,53.0,0.0,
2087.0,2104.0,53.0,0.0,
2070.0,2096.0,53.0,0.0,
2079.0,2118.0,53.0,0.0,
2066.0,2109.0,53.0,0.0,
2079.0,2113.0,53.0,0.0,
2116.0,2114.0,53.0,0.0,
2085.0,2116.0,53.0,0.0,
2086.0,2122.0,53.0,0.0,
2106.0,2109.0,53.0,0.0,
2079.0,2102.0,53.0,0.0,
2050.0,2097.0,53.0,0.0,
2058.0,2103.0,53.0,0.0,
2069.0,2111.0,53.0,0.0,
2081.0,2122.0,53.0,0.0,
2089.0,2117.0,53.0,0.0,
2100.0,2114.0,53.0,0.0,
2085.0,2111.0,53.0,0.0,
2081.0,2120.0,53.0,0.0,
2066.0,2070.0,53.0,0.0,
2075.0,2104.0,53.0,0.0,
2077.0,2096.0,53.0,0.0,
2081.0,2101.0,53.0,0.0,
2091.0,2141.0,53.0,0.0,
2115.0,2110.0,53.0,0.0,
2114.0,2103.0,53.0,0.0,
2126.0,2108.0,53.0,0.0,
2092.0,2106.0,53.0,0.0,
2078.0,2110.0,53.0,0.0,
2082.0,2109.0,53.0,0.0,
2091.0,2123.0,53.0,0.0,
2078.0,2118.0,53.0,0.0,
2084.0,2117.0,53.0,0.0,
2082.0,2120.0,53.0,0.0,
2100.0,2115.0,53.0,0.0,
2107.0,2118.0,53.0,0.0,
2075.0,2105.0,0,
2062.0,2103.0,53.0,0.0,
2060.0,2100.0,53.0,0.0,
2056.0,2110.0,53.0,0.0,
2083.0,2117.0,53.0,0.0,
2077.0,2125.0,53.0,0.0,
2088.0,2121.0,53.0,0.0,
2082.0,2097.0,53.0,0.0,
2082.0,2100.0,53.0,0.0,
2060.0,2104.0,53.0,0.0,
2074.0,2088.0,53.0,0.0,
2071.0,2101.0,53.0,0.0,
2069.0,2112.0,53.0,0.0,
2078.0,2102.0,53.0,0.0,
2089.0,2104.0,53.0,0.0,
2101.0,2106.0,53.0,0.0,
2111.0,2109.0,53.0,0.0,
2065.0,2109.0,53.0,0.0,
2083.0,2108.0,53.0,0.0,
2062.0,2114.0,53.0,0.0,
2066.0,2113.0,53.0,0.0,
2080.0,2108.0,53.0,0.0,
2090.0,2105.0,53.0,0.0,
2089.0,2110.0,53.0,0.0,
2092.0,2125.0,53.0,0.0,
2097.0,2112.0,53.0,0.0,
2073.0,2098.0,53.0,0.0,
2072.0,2104.0,53.0,0.0,
2080.0,2104.0,53.0,0.0,
2094.0,2100.0,53.0,0.0,
2094.0,2110.0,53.0,0.0,
2097.0,2105.0,53.0,0.0,
2103.0,2108.0,53.0,0.0,
2093.0,2105.0,53.0,0.0,
2093.0,2107.0,53.0,0.0,
2090.0,2098.0,53.0,0.0,
2079.0,2101.0,53.0,0.0,
2081.0,2098.0,53.0,0.0,
2074.0,2096.0,53.0,0.0,
2097.0,2108.0,53.0,0.0,
2101.0,2110.0,53.0,0.0,
2094.0,2111.0,53.0,0.0,
2114.0,2114.0,53.0,0.0,
2111.0,2118.0,53.0,0.0,
2085.0,2108.0,53.0,0.0,
2057.0,2100.0,53.0,0.0,
2067.0,2107.0,53.0,0.0,
2067.0,2106.0,53.0,0.0,
2093.0,2113.0,53.0,0.0,
2079.0,2113.0,53.0,0.0,
2090.0,2110.0,53.0,0.0,
2087.0,2111.0,53.0,0.0,
2085.0,2101.0,53.0,0.0,
2092.0,2103.0,53.0,0.0,
2079.0,2107.0,53.0,0.0,
2084.0,2115.0,53.0,0.0,
2087.0,2113.0,53.0,0.0,
2084.0,2109.0,53.0,0.0,
2102.0,2112.0,53.0,0.0,
2082.0,2114.0,53.0,0.0,
2091.0,2093.0,53.0,0.0,
2086.0,2103.0,53.0,0.0,
2060.0,2102.0,53.0,0.0,
2073.0,2111.0,53.0,0.0,
2075.0,2112.0,53.0,0.0,
2082.0,2116.0,53.0,0.0,
2089.0,2117.0,53.0,0.0,
2104.0,2111.0,53.0,0.0,
2100.0,2101.0,53.0,0.0,
2094.0,2100.0,53.0,0.0,
2068.0,2101.0,53.0,0.0,
2070.0,2099.0,53.0,0.0,
2074.0,2105.0,53.0,0.0,
2084.0,2112.0,53.0,0.0,
2087.0,2115.0,0,
2083.0,2127.0,53.0,0.0,
2087.0,2118.0,53.0,0.0,
2087.0,2108.0,53.0,0.0,
2075.0,2111.0,53.0,0.0,
2068.0,2122.0,53.0,0.0,
2072.0,2107.0,53.0,0.0,
2079.0,2106.0,53.0,0.0,
2075.0,2110.0,53.0,0.0,
2082.0,2117.0,53.0,0.0,
2088.0,2109.0,53.0,0.0,
2069.0,2112.0,53.0,0.0,
2087.0,2109.0,53.0,0.0,
2084.0,2109.0,53.0,0.0,
2086.0,2102.0,53.0,0.0,
2070.0,2109.0,53.0,0.0,
2062.0,2115.0,53.0,0.0,
2092.0,2125.0,53.0,0.0,
2088.0,2125.0,53.0,0.0,
2085.0,2111.0,53.0,0.0,
2093.0,2102.0,53.0,0.0,
2095.0,2103.0,53.0,0.0,
2076.0,2103.0,53.0,0.0,
2082.0,2108.0,53.0,0.0,
2068.0,2111.0,53.0,0.0,
2073.0,2111.0,53.0,0.0,
2080.0,2114.0,53.0,0.0,
2093.0,2115.0,53.0,0.0,
2083.0,2119.0,53.0,0.0,
2088.0,2109.0,53.0,0.0,
2078.0,2114.0,53.0,0.0,
2075.0,2089.0,53.0,0.0,
2052.0,2103.0,53.0,0.0,
2054.0,2102.0,53.0,0.0,
2075.0,2103.0,53.0,0.0,
2087.0,2107.0,53.0,0.0,
2097.0,2106.0,53.0,0.0,
2090.0,2108.0,53.0,0.0,
2096.0,2102.0,53.0,0.0,
2079.0,2098.0,53.0,0.0,
2070.0,2097.0,53.0,0.0,
2066.0,2111.0,53.0,0.0,
2082.0,2110.0,53.0,0.0,
2082.0,2114.0,53.0,0.0,
2092.0,2123.0,53.0,0.0,
2104.0,2117.0,53.0,0.0,
2091.0,2107.0,53.0,0.0,
2083.0,2112.0,53.0,0.0,
2075.0,2107.0,53.0,0.0,
2081.0,2101.0,53.0,0.0,
2065.0,2134.0,53.0,0.0,
2086.0,2123.0,53.0,0.0,
2094.0,2114.0,53.0,0.0,
2096.0,2123.0,53.0,0.0,
2088.0,2116.0,53.0,0.0,
2088.0,2109.0,53.0,0.0,
2107.0,2102.0,53.0,0.0,
2085.0,2058.0,53.0,0.0,
2070.0,2108.0,53.0,0.0,
2072.0,2109.0,53.0,0.0,
2076.0,2114.0,53.0,0.0,
2086.0,2117.0,53.0,0.0,
2090.0,2112.0,53.0,0.0,
2092.0,2113.0,53.0,0.0,
2087.0,2113.0,53.0,0.0,
2088.0,2110.0,53.0,0.0,
2072.0,2102.0,53.0,0.0,
2070.0,2102.0,53.0,0.0,
2059.0,2111.0,53.0,0.0,
2082.0,2110.0,53.0,0.0,
2109.0,2111.0,53.0,0.0,
2100.0,2097.0,53.0,0.0,
2099.0,2104.0,53.0,0.0,
2105.0,2102.0,53.0,0.0,
2066.0,2094.0,53.0,0.0,
2081.0,2096.0,53.0,0.0,
2067.0,2107.0,53.0,0.0,
2077.0,2107.0,53.0,0.0,
2073.0,2117.0,53.0,0.0,
2088.0,2104.0,53.0,0.0,
2092.0,2111.0,53.0,0.0,
2087.0,2094.0,53.0,0.0,
2084.0,2094.0,53.0,0.0,
2070.0,2100.0,53.0,0.0,
2068.0,2097.0,53.0,0.0,
2071.0,2092.0,53.0,0.0,
2074.0,2103.0,53.0,0.0,
2084.0,2110.0,53.0,0.0,
2095.0,2109.0,53.0,0.0,
2091.0,2105.0,53.0,0.0,
2094.0,2114.0,53.0,0.0,
2110.0,2089.0,53.0,0.0,
2085.0,2104.0,53.0,0.0,
2075.0,2106.0,53.0,0.0,
2062.0,2115.0,53.0,0.0,
2076.0,2119.0,53.0,0.0,
2086.0,2116.0,53.0,0.0,
2090.0,2109.0,53.0,0.0,
2105.0,2106.0,53.0,0.0,
2097.0,2105.0,53.0,0.0,
2072.0,2105.0,53.0,0.0,
2058.0,2100.0,53.0,0.0,
2068.0,2114.0,53.0,0.0,
2094.0,2116.0,53.0,0.0,
2087.0,2100.0,53.0,0.0,
2095.0,2118.0,53.0,0.0,
2092.0,2117.0,53.0,0.0,
2088.0,2113.0,53.0,0.0,
2074.0,2104.0,53.0,0.0,
2075.0,2098.0,53.0,0.0,
2082.0,2092.0,53.0,0.0,
2069.0,2077.0,53.0,0.0,
2054.0,2086.0,53.0,0.0,
2086.0,2100.0,53.0,0.0,
2093.0,2105.0,53.0,0.0,
2076.0,2128.0,53.0,0.0,
2053.0,2150.0,53.0,0.0,
2097.0,2182.0,53.0,0.0,
2079.0,2150.0,53.0,0.0,
2036.0,2125.0,53.0,0.0,
2084.0,2120.0,53.0,0.0,
2097.0,2116.0,53.0,0.0,
2084.0,2125.0,53.0,0.0,
2078.0,2186.0,53.0,0.0,
2127.0,2174.0,53.0,0.0,
2055.0,2049.0,53.0,0.0,
2147.0,2103.0,53.0,0.0,
2100.0,1979.0,54.0,0.0,
2106.0,2030.0,54.0,0.0,
2029.0,2082.0,54.0,0.0,
2055.0,2007.0,54.0,0.0,
2055.0,2037.0,54.0,0.0,
2130.0,2066.0,54.0,0.0,
2199.0,2099.0,54.0,0.0,
2143.0,2156.0,54.0,0.0,
2103.0,2183.0,54.0,0.0,
2077.0,2136.0,55.0,-1.0,
2100.0,2006.0,55.0,-1.0,
2088.0,2066.0,55.0,-1.0,
2077.0,2091.0,55.0,-1.0,
2110.0,2123.0,55.0,-1.0,
2072.0,2100.0,56.0,-1.0,
2084.0,2101.0,56.0,-1.0,
2078.0,2100.0,56.0,-1.0,
2045.0,2252.0,56.0,-1.0,
2073.0,2255.0,56.0,-1.0,
2035.0,2086.0,56.0,-1.0,
2044.0,2188.0,56.0,-1.0,
2052.0,2287.0,56.0,-1.0,
2153.0,2362.0,56.0,0.0,
2082.0,2217.0,56.0,0.0,
2067.0,1951.0,56.0,0.0,
2033.0,1588.0,56.0,0.0,
2060.0,1902.0,56.0,0.0,
2045.0,2091.0,56.0,0.0,
2127.0,2180.0,56.0,0.0,
2090.0,2121.0,56.0,0.0,
2113.0,2078.0,56.0,0.0,
2129.0,2101.0,56.0,0.0,
2082.0,2039.0,55.0,0.0,
2090.0,2114.0,55.0,0.0,
2098.0,2169.0,55.0,0.0,
2052.0,2093.0,55.0,0.0,
2078.0,2156.0,55.0,0.0,
2037.0,2095.0,55.0,0.0,
2028.0,2055.0,55.0,0.0,
2059.0,2087.0,55.0,0.0,
2165.0,2186.0,55.0,0.0,
2140.0,2142.0,55.0,0.0,
2137.0,2111.0,55.0,0.0,
2136.0,2248.0,55.0,0.0,
2044.0,2367.0,55.0,0.0,
2006.0,2333.0,54.0,0.0,
2172.0,2320.0,54.0,0.0,
2113.0,1770.0,54.0,0.0,
2095.0,1542.0,54.0,0.0,
2114.0,2000.0,53.0,0.0,
2140.0,2136.0,53.0,0.0,
2097.0,2035.0,53.0,0.0,
2103.0,2077.0,53.0,-1.0,
2087.0,2127.0,53.0,-1.0,
2098.0,2191.0,53.0,-1.0,
2066.0,2220.0,53.0,-1.0,
2007.0,2033.0,53.0,-1.0,
2109.0,2077.0,53.0,-1.0,
2189.0,2248.0,52.0,0.0,
2124.0,2362.0,52.0,0.0,
2096.0,2329.0,52.0,0.0,
2067.0,2121.0,52.0,0.0,
2045.0,2078.0,52.0,0.0,
2058.0,1884.0,52.0,0.0,
2049.0,2038.0,52.0,0.0,
2095.0,1890.0,51.0,0.0,
2111.0,2138.0,51.0,0.0,
2168.0,2133.0,51.0,0.0,
2088.0,2191.0,51.0,0.0,
2108.0,2356.0,51.0,0.0,
2079.0,2075.0,51.0,0.0,
2037.0,2018.0,51.0,0.0,
2055.0,2127.0,51.0,0.0,
2030.0,2017.0,50.0,0.0,
2041.0,1805.0,50.0,0.0,
2058.0,2094.0,50.0,0.0,
2006.0,2225.0,50.0,0.0,
2006.0,2165.0,50.0,0.0,
2019.0,2139.0,50.0,0.0,
2092.0,1998.0,50.0,0.0,
2110.0,2118.0,50.0,0.0,
2149.0,2247.0,49.0,0.0,
2158.0,2273.0,49.0,1.0,
2131.0,2105.0,49.0,1.0,
2135.0,2018.0,49.0,0.0,
2101.0,1974.0,49.0,0.0,
2104.0,2047.0,49.0,0.0,
2101.0,2222.0,49.0,0.0,
2056.0,2317.0,49.0,1.0,
2057.0,2397.0,49.0,1.0,
2119.0,2076.0,48.0,0.0,
2102.0,1733.0,48.0,0.0,
2083.0,1749.0,48.0,0.0,
2142.0,2037.0,48.0,0.0,
2115.0,2196.0,48.0,1.0,
2077.0,2246.0,48.0,1.0,
2140.0,2242.0,48.0,1.0,
2120.0,2091.0,48.0,1.0,
2128.0,2107.0,47.0,2.0,
2090.0,2168.0,47.0,2.0,
2065.0,2015.0,47.0,2.0,
2062.0,2069.0,47.0,2.0,
2100.0,2181.0,47.0,2.0,
2051.0,2251.0,47.0,3.0,
2017.0,2397.0,46.0,3.0,
1997.0,2292.0,46.0,3.0,
2108.0,2353.0,46.0,3.0,
2136.0,2030.0,45.0,3.0,
2084.0,1809.0,45.0,3.0,
2075.0,1789.0,44.0,3.0,
2116.0,1851.0,44.0,3.0,
2075.0,2020.0,43.0,3.0,
2095.0,2118.0,43.0,3.0,
2120.0,2129.0,42.0,3.0,
2069.0,2078.0,42.0,3.0,
2095.0,2357.0,41.0,3.0,
2060.0,2274.0,41.0,3.0,
2103.0,2142.0,40.0,4.0,
2106.0,1997.0,40.0,4.0,
2091.0,2016.0,40.0,4.0,
2053.0,2154.0,39.0,4.0,
2087.0,2300.0,39.0,4.0,
2085.0,2209.0,38.0,4.0,
2027.0,1939.0,38.0,4.0,
2034.0,1860.0,38.0,4.0,
2080.0,2130.0,37.0,4.0,
2105.0,2125.0,37.0,4.0,
2070.0,1986.0,37.0,4.0,
2102.0,2039.0,37.0,4.0,
2123.0,2204.0,36.0,4.0,
2091.0,2201.0,36.0,4.0,
2085.0,2222.0,36.0,3.0,
2048.0,2157.0,36.0,3.0,
2042.0,2100.0,36.0,3.0,
1997.0,2221.0,36.0,3.0,
2046.0,2258.0,36.0,3.0,
2116.0,2214.0,35.0,4.0,
2148.0,2118.0,35.0,4.0,
2109.0,2037.0,35.0,4.0,
2053.0,2044.0,35.0,4.0,
2089.0,2101.0,35.0,4.0,
2080.0,2210.0,34.0,4.0,
2066.0,2219.0,34.0,4.0,
2107.0,2186.0,34.0,4.0,
2086.0,1906.0,34.0,4.0,
2085.0,1869.0,33.0,5.0,
2100.0,1945.0,33.0,5.0,
2097.0,2099.0,33.0,5.0,
2055.0,2120.0,32.0,5.0,
2109.0,2172.0,32.0,5.0,
2142.0,2206.0,32.0,5.0,
2097.0,2268.0,31.0,5.0,
2121.0,2240.0,31.0,5.0,
2137.0,2200.0,31.0,5.0,
2032.0,2025.0,30.0,5.0,
2058.0,2097.0,30.0,5.0,
2099.0,2126.0,30.0,5.0,
2073.0,2109.0,29.0,5.0,
2075.0,1639.0,29.0,5.0,
2154.0,2021.0,29.0,5.0,
2127.0,2192.0,29.0,5.0,
2124.0,2174.0,29.0,5.0,
2053.0,2064.0,28.0,5.0,
2054.0,1972.0,28.0,5.0,
2105.0,2032.0,28.0,5.0,
2052.0,2081.0,28.0,5.0,
1997.0,2104.0,28.0,5.0,
2086.0,2222.0,28.0,5.0,
2061.0,2229.0,28.0,5.0,
2112.0,2199.0,27.0,5.0,
2076.0,2335.0,27.0,5.0,
2087.0,2299.0,27.0,5.0,
2104.0,2073.0,27.0,5.0,
2091.0,1769.0,27.0,5.0,
2130.0,1965.0,27.0,5.0,
2069.0,2131.0,27.0,5.0,
2118.0,2307.0,27.0,5.0,
2028.0,2531.0,27.0,5.0,
2101.0,2354.0,27.0,5.0,
2052.0,1825.0,27.0,5.0,
2034.0,1775.0,27.0,5.0,
2089.0,1787.0,27.0,5.0,
2050.0,1736.0,27.0,5.0,
2065.0,2151.0,28.0,4.0,
2069.0,2353.0,28.0,4.0,
2085.0,2333.0,28.0,4.0,
2073.0,2155.0,28.0,4.0,
2103.0,1882.0,29.0,4.0,
2113.0,2096.0,29.0,4.0,
2071.0,2096.0,0,
2138.0,2136.0,29.0,4.0,
2065.0,2297.0,29.0,4.0,
2088.0,2311.0,29.0,4.0,
2053.0,2111.0,29.0,4.0,
2072.0,1601.0,29.0,4.0,
2090.0,1983.0,28.0,4.0,
2116.0,2126.0,28.0,5.0,
2163.0,2224.0,28.0,5.0,
2024.0,2244.0,27.0,5.0,
1988.0,2199.0,27.0,5.0,
2111.0,2289.0,26.0,5.0,
2099.0,2157.0,25.0,5.0,
2085.0,2004.0,25.0,5.0,
2108.0,2020.0,24.0,5.0,
2040.0,2123.0,23.0,5.0,
1995.0,2066.0,23.0,6.0,
2032.0,2123.0,22.0,6.0,
2119.0,2131.0,22.0,6.0,
2096.0,2214.0,21.0,6.0,
2159.0,2286.0,21.0,6.0,
2135.0,2210.0,20.0,6.0,
2133.0,2159.0,0,
2135.0,1904.0,20.0,6.0,
2087.0,1927.0,20.0,6.0,
2082.0,2109.0,20.0,6.0,
2041.0,2048.0,19.0,6.0,
2064.0,2132.0,19.0,6.0,
2059.0,2126.0,19.0,7.0,
2009.0,2018.0,19.0,7.0,
2030.0,2058.0,19.0,7.0,
2140.0,2061.0,20.0,7.0,
2119.0,2171.0,20.0,7.0,
2119.0,2171.0,20.0,7.0,
2127.0,2450.0,20.0,7.0,
2110.0,2319.0,20.0,7.0,
2112.0,2185.0,20.0,7.0,
2113.0,1920.0,20.0,7.0,
1920.0,1794.0,20.0,7.0,
1997.0,1921.0,20.0,7.0,
2110.0,2113.0,20.0,7.0,
2151.0,2274.0,20.0,7.0,
2122.0,2324.0,20.0,7.0,
2119.0,2394.0,20.0,7.0,
2001.0,2161.0,20.0,7.0,
2065.0,1884.0,19.0,7.0,
2025.0,1878.0,19.0,7.0,
2054.0,2061.0,19.0,7.0,
2069.0,2261.0,19.0,7.0,
2168.0,2174.0,18.0,7.0,
2129.0,2078.0,18.0,8.0,
2105.0,2034.0,18.0,8.0,
2062.0,1840.0,18.0,8.0,
2023.0,1722.0,18.0,8.0,
2055.0,2027.0,17.0,8.0,
2114.0,2105.0,17.0,8.0,
2079.0,1760.0,17.0,8.0,
2192.0,2135.0,17.0,7.0,
2142.0,2296.0,17.0,7.0,
2088.0,2210.0,17.0,7.0,
1928.0,2310.0,17.0,7.0,
1973.0,2221.0,17.0,7.0,
2010.0,2382.0,17.0,7.0,
2213.0,2263.0,17.0,7.0,
2164.0,2201.0,17.0,7.0,
2039.0,1811.0,17.0,7.0,
2120.0,1902.0,16.0,7.0,
2047.0,2064.0,16.0,7.0,
2015.0,2218.0,16.0,7.0,
2005.0,2269.0,16.0,7.0,
2202.0,2248.0,16.0,8.0,
2087.0,2028.0,16.0,8.0,
1980.0,2075.0,16.0,8.0,
2128.0,2136.0,15.0,8.0,
2179.0,2136.0,15.0,8.0,
2120.0,2290.0,15.0,8.0,
2113.0,2126.0,15.0,8.0,
2074.0,2041.0,15.0,8.0,
2155.0,1959.0,15.0,8.0,
2052.0,2184.0,15.0,8.0,
2080.0,2278.0,14.0,8.0,
2142.0,2110.0,14.0,8.0,
2065.0,2015.0,14.0,8.0,
2137.0,1477.0,14.0,8.0,
1954.0,1939.0,14.0,8.0,
1949.0,2129.0,14.0,8.0,
1931.0,2118.0,13.0,8.0,
2232.0,2242.0,13.0,8.0,
2146.0,2098.0,13.0,8.0,
2074.0,2090.0,12.0,8.0,
2092.0,2179.0,12.0,8.0,
1958.0,2127.0,12.0,8.0,
1928.0,2226.0,11.0,8.0,
1956.0,2245.0,11.0,8.0,
2147.0,2092.0,11.0,9.0,
2289.0,2208.0,11.0,9.0,
2167.0,2226.0,10.0,9.0,
2200.0,1970.0,10.0,9.0,
2062.0,1839.0,10.0,9.0,
2065.0,2240.0,10.0,9.0,
2012.0,2352.0,10.0,9.0,
2063.0,2405.0,10.0,9.0,
1954.0,1966.0,10.0,9.0,
2171.0,1753.0,10.0,9.0,
2216.0,1934.0,10.0,9.0,
2093.0,2157.0,10.0,9.0,
2054.0,2149.0,10.0,9.0,
1999.0,1980.0,10.0,9.0,
2065.0,2018.0,10.0,9.0,
1981.0,2044.0,10.0,9.0,
1958.0,2219.0,10.0,9.0,
2056.0,2105.0,10.0,9.0,
2373.0,2235.0,9.0,9.0,
2143.0,2262.0,9.0,9.0,
2032.0,2241.0,9.0,9.0,
2133.0,2274.0,8.0,9.0,
2093.0,2179.0,8.0,9.0,
1903.0,2070.0,7.0,9.0,
2036.0,2144.0,7.0,9.0,
2179.0,2111.0,6.0,9.0,
2168.0,2076.0,6.0,9.0,
2094.0,2060.0,6.0,9.0,
2078.0,2110.0,5.0,9.0,
2157.0,2128.0,5.0,9.0,
2129.0,2056.0,5.0,9.0,
1905.0,1793.0,4.0,9.0,
1794.0,1837.0,4.0,9.0,
2257.0,2384.0,4.0,9.0,
2125.0,2636.0,4.0,9.0,
2033.0,2520.0,3.0,9.0,
2109.0,2282.0,3.0,9.0,
2213.0,1661.0,3.0,9.0,
2189.0,1852.0,3.0,10.0,
2064.0,1636.0,3.0,10.0,
1920.0,1904.0,3.0,10.0,
1850.0,2001.0,4.0,10.0,
2072.0,2196.0,4.0,10.0,
2299.0,2616.0,4.0,10.0,
2199.0,2496.0,4.0,10.0,
2006.0,2196.0,4.0,10.0,
2070.0,1685.0,4.0,10.0,
2015.0,1786.0,4.0,10.0,
2068.0,2049.0,5.0,9.0,
2038.0,2008.0,5.0,9.0,
2035.0,2059.0,5.0,9.0,
2037.0,2244.0,5.0,9.0,
2241.0,2347.0,5.0,9.0,
2299.0,2415.0,5.0,9.0,
2173.0,2265.0,5.0,9.0,
2127.0,1892.0,5.0,9.0,
1953.0,1802.0,5.0,9.0,
1692.0,2215.0,5.0,9.0,
2139.0,2211.0,5.0,9.0,
2234.0,2530.0,5.0,9.0,
2092.0,2223.0,5.0,9.0,
2233.0,2170.0,5.0,9.0,
2286.0,2040.0,5.0,9.0,
2035.0,1864.0,5.0,9.0,
1873.0,1744.0,5.0,9.0,
2092.0,2201.0,5.0,9.0,
2144.0,2103.0,4.0,9.0,
2107.0,2243.0,4.0,9.0,
2184.0,2328.0,4.0,9.0,
2063.0,2308.0,4.0,9.0,
2081.0,2316.0,4.0,9.0,
2118.0,1987.0,4.0,9.0,
2118.0,1860.0,4.0,9.0,
2042.0,1914.0,4.0,9.0,
2011.0,2098.0,4.0,9.0,
2004.0,2123.0,3.0,9.0,
2028.0,2215.0,3.0,9.0,
2096.0,2118.0,3.0,9.0,
2014.0,2040.0,3.0,9.0,
2094.0,2118.0,2.0,9.0,
2091.0,2099.0,2.0,9.0,
2123.0,2249.0,2.0,9.0,
1974.0,2052.0,1.0,9.0,
1952.0,2084.0,1.0,9.0,
2023.0,2074.0,1.0,9.0,
2031.0,2424.0,0.0,10.0,
2222.0,2417.0,0.0,10.0,
2194.0,2685.0,0.0,10.0,
2071.0,2534.0,0.0,10.0,
2191.0,1593.0,0.0,9.0,
1944.0,1562.0,0.0,9.0,
1873.0,1254.0,0.0,9.0,
2352.0,1636.0,-1.0,9.0,
2179.0,2395.0,-1.0,9.0,
2084.0,2053.0,-1.0,9.0,
2159.0,1757.0,-1.0,9.0,
2288.0,1941.0,-1.0,9.0,
2162.0,2546.0,-1.0,9.0,
2138.0,2443.0,-1.0,9.0,
1977.0,1987.0,-1.0,9.0,
1814.0,1881.0,-1.0,9.0,
1908.0,2032.0,-1.0,9.0,
2026.0,2370.0,-1.0,9.0,
2162.0,2540.0,0.0,9.0,
2171.0,2422.0,0.0,9.0,
2171.0,1996.0,0.0,9.0,
2156.0,1847.0,0.0,9.0,
2010.0,2016.0,0.0,9.0,
1962.0,2053.0,0.0,9.0,
1975.0,2022.0,0.0,9.0,
1944.0,1946.0,0.0,9.0,
2215.0,2149.0,0.0,9.0,
2150.0,2388.0,0.0,9.0,
2120.0,2417.0,1.0,9.0,
2220.0,2433.0,1.0,9.0,
2080.0,2278.0,1.0,9.0,
2053.0,1800.0,1.0,9.0,
2091.0,1870.0,1.0,9.0,
1926.0,1841.0,1.0,9.0,
2053.0,1899.0,1.0,9.0,
2204.0,2121.0,0.0,9.0,
2178.0,2235.0,0.0,9.0,
2286.0,2256.0,0.0,9.0,
2206.0,2379.0,0.0,10.0,
1978.0,2346.0,0.0,9.0,
1879.0,1842.0,0.0,9.0,
1841.0,1942.0,0.0,9.0,
2083.0,2226.0,-1.0,9.0,
2009.0,2309.0,-1.0,9.0,
2114.0,2122.0,-1.0,9.0,
1989.0,2119.0,-2.0,9.0,
1998.0,2420.0,-2.0,9.0,
2257.0,1935.0,-2.0,9.0,
2022.0,1592.0,-2.0,9.0,
2214.0,1775.0,-2.0,9.0,
2228.0,1997.0,-2.0,9.0,
2152.0,1880.0,-2.0,9.0,
2017.0,1858.0,-2.0,9.0,
2065.0,2147.0,-1.0,9.0,
2255.0,2147.0,-1.0,9.0,
2040.0,2009.0,-1.0,9.0,
1902.0,2043.0,-1.0,9.0,
2237.0,2507.0,0.0,9.0,
2051.0,2260.0,0.0,9.0,
2057.0,2323.0,0.0,9.0,
1886.0,2290.0,0.0,9.0,
1947.0,1940.0,0.0,9.0,
1972.0,1991.0,0,
1994.0,2002.0,0.0,9.0,
2133.0,2216.0,0.0,9.0,
2255.0,2333.0,0.0,9.0,
1903.0,2139.0,0.0,9.0,
2304.0,2158.0,0.0,9.0,
2317.0,2424.0,0.0,9.0,
2207.0,2237.0,0.0,9.0,
2211.0,1605.0,0.0,9.0,
2025.0,1728.0,-1.0,9.0,
2081.0,2041.0,-1.0,9.0,
2097.0,2191.0,-1.0,9.0,
1948.0,2271.0,-1.0,9.0,
1994.0,2373.0,-1.0,9.0,
2008.0,2294.0,-1.0,9.0,
2039.0,1839.0,-1.0,9.0,
2141.0,1996.0,-1.0,9.0,
2031.0,2219.0,-1.0,9.0,
2025.0,1841.0,-1.0,9.0,
1969.0,2191.0,-1.0,9.0,
2064.0,2352.0,-1.0,9.0,
2246.0,2424.0,-1.0,9.0,
2255.0,2311.0,-1.0,9.0,
2067.0,1918.0,0.0,9.0,
2227.0,1517.0,0.0,9.0,
2177.0,1811.0,0.0,9.0,
2143.0,2046.0,0.0,9.0,
2009.0,2187.0,0.0,9.0,
1897.0,2083.0,0.0,9.0,
2053.0,2246.0,0.0,9.0,
2224.0,2348.0,0.0,9.0,
2091.0,2310.0,0.0,9.0,
2204.0,2450.0,0.0,9.0,
2072.0,1832.0,0.0,9.0,
1986.0,2093.0,0.0,10.0,
1968.0,1834.0,0.0,10.0,
2080.0,2218.0,0.0,9.0,
2111.0,2397.0,0.0,9.0,
2110.0,2536.0,0.0,9.0,
2032.0,2111.0,0.0,9.0,
2089.0,1484.0,0.0,9.0,
2160.0,1555.0,-1.0,10.0,
1988.0,2244.0,-1.0,10.0,
1961.0,2371.0,-1.0,9.0,
2007.0,2305.0,-1.0,9.0,
2040.0,2178.0,-1.0,9.0,
2197.0,2234.0,-1.0,10.0,
2039.0,1883.0,-2.0,10.0,
1735.0,1596.0,-2.0,10.0,
2360.0,2050.0,-2.0,10.0,
2167.0,2292.0,-2.0,10.0,
2023.0,2432.0,-2.0,10.0,
2057.0,2270.0,-2.0,9.0,
2172.0,1821.0,-2.0,9.0,
2172.0,1835.0,-2.0,9.0,
2012.0,1910.0,-2.0,10.0,
2109.0,2185.0,-2.0,10.0,
2060.0,2114.0,-2.0,10.0,
2199.0,2234.0,-2.0,10.0,
1854.0,2309.0,-2.0,10.0,
1894.0,2287.0,-3.0,10.0,
2236.0,2457.0,-3.0,10.0,
2170.0,1851.0,-3.0,10.0,
2242.0,1904.0,-3.0,10.0,
2089.0,2190.0,-3.0,10.0,
1992.0,2163.0,-3.0,10.0,
2002.0,1939.0,-3.0,10.0,
1956.0,2022.0,-3.0,10.0,
2189.0,1931.0,-3.0,10.0,
2280.0,1916.0,-3.0,10.0,
2035.0,1947.0,-3.0,10.0,
2091.0,2201.0,-3.0,10.0,
2016.0,2197.0,-4.0,10.0,
2030.0,2377.0,-4.0,10.0,
2068.0,2520.0,-4.0,10.0,
2135.0,2465.0,-4.0,10.0,
2207.0,1691.0,-4.0,10.0,
2073.0,1940.0,-4.0,10.0,
2086.0,2172.0,-4.0,10.0,
2164.0,1807.0,-4.0,10.0,
1933.0,2151.0,-4.0,9.0,
2185.0,2414.0,-4.0,9.0,
2110.0,2577.0,-4.0,9.0,
1809.0,2672.0,-4.0,9.0,
2024.0,2326.0,-5.0,9.0,
1911.0,1660.0,-5.0,9.0,
2187.0,1769.0,-5.0,9.0,
2135.0,1804.0,-5.0,9.0,
2137.0,1777.0,-4.0,9.0,
2106.0,1880.0,-4.0,9.0,
2021.0,2144.0,-4.0,9.0,
2102.0,2024.0,-4.0,9.0,
2185.0,2126.0,-3.0,9.0,
2160.0,1785.0,-3.0,9.0,
2188.0,2225.0,-3.0,9.0,
2068.0,2147.0,-3.0,9.0,
2063.0,1987.0,-2.0,9.0,
2123.0,2106.0,-2.0,9.0,
1986.0,2164.0,-2.0,9.0,
1996.0,2367.0,-2.0,9.0,
2069.0,2182.0,-2.0,9.0,
2009.0,2239.0,-2.0,9.0,
1984.0,1974.0,-2.0,9.0,
2109.0,2159.0,-2.0,9.0,
2122.0,2196.0,-2.0,9.0,
1996.0,2086.0,-2.0,9.0,
2132.0,2506.0,-2.0,9.0,
2218.0,2390.0,-3.0,9.0,
2192.0,2317.0,-3.0,9.0,
2109.0,1856.0,-3.0,9.0,
2205.0,1955.0,-3.0,9.0,
2107.0,2071.0,-3.0,9.0,
2009.0,2123.0,-3.0,9.0,
1860.0,1962.0,-3.0,9.0,
1993.0,2023.0,-3.0,9.0,
1708.0,1932.0,-3.0,9.0,
2133.0,2281.0,-3.0,8.0,
2356.0,2283.0,-3.0,8.0,
2156.0,2150.0,-3.0,9.0,
2201.0,2090.0,-3.0,9.0,
2209.0,2285.0,-3.0,9.0,
2128.0,2340.0,-3.0,9.0,
1967.0,1881.0,-3.0,9.0,
1994.0,1730.0,-3.0,9.0,
2039.0,2022.0,-3.0,9.0,
1675.0,2328.0,-3.0,9.0,
2229.0,2431.0,-3.0,9.0,
2230.0,2227.0,-3.0,9.0,
2170.0,1979.0,-3.0,9.0,
2212.0,2040.0,-3.0,9.0,
2155.0,1895.0,-3.0,10.0,
2008.0,1828.0,-3.0,10.0,
1961.0,1668.0,-3.0,9.0,
2050.0,1867.0,-3.0,9.0,
1925.0,2053.0,-3.0,9.0,
2205.0,1952.0,-3.0,9.0,
2242.0,2218.0,-3.0,9.0,
2197.0,2410.0,-3.0,8.0,
2226.0,2463.0,-3.0,8.0,
2004.0,2296.0,-3.0,8.0,
2018.0,2154.0,-3.0,8.0,
2035.0,1975.0,-2.0,8.0,
1900.0,2129.0,-2.0,8.0,
1904.0,2255.0,-2.0,8.0,
1898.0,2120.0,-2.0,8.0,
2191.0,1955.0,-2.0,9.0,
2328.0,1770.0,-2.0,9.0,
2173.0,2090.0,-2.0,9.0,
2237.0,2275.0,-2.0,9.0,
2211.0,2275.0,-2.0,9.0,
2029.0,2003.0,-2.0,9.0,
2064.0,2140.0,-2.0,9.0,
2019.0,2069.0,-2.0,9.0,
1946.0,2048.0,-2.0,9.0,
2086.0,2182.0,-2.0,9.0,
2137.0,2186.0,-2.0,9.0,
2208.0,2364.0,-2.0,9.0,
2062.0,2028.0,-2.0,9.0,
2035.0,2049.0,-3.0,9.0,
2026.0,2045.0,-3.0,9.0,
1957.0,2137.0,-3.0,10.0,
1988.0,2300.0,-4.0,10.0,
2055.0,2221.0,-4.0,9.0,
2119.0,2083.0,-4.0,9.0,
2161.0,2158.0,-4.0,9.0,
2059.0,2058.0,-4.0,9.0,
2072.0,2179.0,-4.0,9.0,
1828.0,1962.0,-4.0,9.0,
1912.0,1954.0,-4.0,9.0,
2214.0,2251.0,-5.0,9.0,
2078.0,2486.0,-4.0,9.0,
2381.0,2329.0,-4.0,9.0,
2262.0,1459.0,-4.0,9.0,
2052.0,1799.0,-4.0,10.0,
2052.0,1904.0,-4.0,10.0,
2071.0,2215.0,-4.0,10.0,
2011.0,2133.0,0,
1938.0,2016.0,-4.0,10.0,
2071.0,1990.0,-4.0,10.0,
2084.0,2249.0,-3.0,10.0,
1975.0,2263.0,-3.0,10.0,
2008.0,2042.0,-3.0,10.0,
2052.0,2215.0,-3.0,10.0,
2091.0,2432.0,-3.0,10.0,
2081.0,2191.0,-3.0,10.0,
2006.0,2152.0,-3.0,10.0,
2367.0,2420.0,-4.0,10.0,
2182.0,2319.0,-4.0,9.0,
2086.0,1937.0,-4.0,9.0,
2124.0,1619.0,-4.0,9.0,
2116.0,1620.0,-5.0,9.0,
2048.0,2032.0,-5.0,9.0,
2036.0,2097.0,-5.0,9.0,
2073.0,2171.0,-5.0,9.0,
2067.0,2314.0,-5.0,9.0,
2210.0,2001.0,-5.0,9.0,
2102.0,2170.0,-5.0,9.0,
2078.0,2249.0,-5.0,9.0,
2117.0,2215.0,-5.0,9.0,
2049.0,2105.0,-5.0,9.0,
1906.0,1986.0,-5.0,9.0,
1905.0,2171.0,-5.0,9.0,
2133.0,2190.0,-5.0,9.0,
2112.0,2173.0,-5.0,9.0,
2156.0,2142.0,-5.0,9.0,
2155.0,2012.0,-5.0,9.0,
2171.0,1916.0,-4.0,9.0,
1918.0,2188.0,-4.0,9.0,
1969.0,2224.0,-4.0,9.0,
2066.0,2023.0,-4.0,9.0,
2178.0,2186.0,-4.0,9.0,
2075.0,2084.0,-4.0,9.0,
2024.0,2175.0,-4.0,9.0,
2075.0,1908.0,-4.0,9.0,
2113.0,2141.0,-4.0,9.0,
2123.0,2292.0,-4.0,9.0,
2142.0,2451.0,-4.0,9.0,
2117.0,2048.0,-4.0,9.0,
2015.0,1732.0,-4.0,9.0,
2128.0,2052.0,-4.0,9.0,
2077.0,2072.0,-4.0,9.0,
1938.0,2147.0,-4.0,9.0,
2026.0,2106.0,-4.0,9.0,
2109.0,2130.0,-4.0,9.0,
2051.0,2098.0,-4.0,9.0,
2089.0,2160.0,-4.0,9.0,
2167.0,2331.0,-4.0,9.0,
2161.0,2015.0,-4.0,9.0,
2052.0,2016.0,-4.0,9.0,
2081.0,2053.0,-4.0,9.0,
2062.0,2075.0,-4.0,9.0,
2068.0,2111.0,-4.0,9.0,
2067.0,2098.0,-4.0,9.0,
2052.0,2044.0,-4.0,9.0,
1977.0,2138.0,-4.0,9.0,
2091.0,2322.0,-4.0,9.0,
2127.0,2407.0,-4.0,9.0,
2006.0,2264.0,-4.0,9.0,
2058.0,1950.0,-4.0,9.0,
2099.0,1758.0,-4.0,9.0,
2056.0,1899.0,-4.0,9.0,
2054.0,1968.0,-4.0,9.0,
2109.0,2111.0,-4.0,9.0,
2239.0,2041.0,-4.0,9.0,
2140.0,2115.0,-4.0,9.0,
2046.0,2107.0,-4.0,9.0,
2177.0,2201.0,-4.0,9.0,
2103.0,2200.0,-4.0,9.0,
2001.0,2121.0,-4.0,9.0,
2062.0,2201.0,-4.0,9.0,
2087.0,2203.0,-4.0,9.0,
2080.0,2121.0,-3.0,9.0,
2148.0,1969.0,-3.0,9.0,
2153.0,2210.0,-3.0,9.0,
2050.0,2101.0,-3.0,9.0,
2068.0,2296.0,-3.0,9.0,
2035.0,2490.0,-3.0,9.0,
2065.0,2484.0,-3.0,9.0,
1988.0,1788.0,-3.0,9.0,
1999.0,1726.0,-3.0,9.0,
2039.0,1864.0,-3.0,9.0,
2075.0,2040.0,-2.0,9.0,
2215.0,2067.0,-2.0,9.0,
2104.0,2053.0,-3.0,9.0,
2049.0,1998.0,-3.0,9.0,
2060.0,2105.0,-3.0,9.0,
2014.0,2136.0,-3.0,9.0,
2117.0,2194.0,-3.0,9.0,
2061.0,2519.0,-3.0,9.0,
2168.0,2405.0,-3.0,9.0,
2116.0,2011.0,-3.0,9.0,
2065.0,1794.0,-3.0,9.0,
2046.0,2003.0,-3.0,9.0,
2044.0,2012.0,-3.0,9.0,
2113.0,2023.0,-2.0,9.0,
1957.0,2080.0,-2.0,9.0,
2088.0,2173.0,-2.0,9.0,
2117.0,2135.0,-2.0,9.0,
2040.0,2144.0,-1.0,9.0,
2125.0,2130.0,-1.0,9.0,
2186.0,2158.0,-1.0,9.0,
2124.0,2179.0,0.0,9.0,
2064.0,2123.0,0.0,9.0,
1987.0,2135.0,0.0,10.0,
2107.0,2199.0,0.0,10.0,
2104.0,2241.0,0.0,10.0,
2218.0,2141.0,0.0,10.0,
2095.0,2263.0,1.0,10.0,
1999.0,2107.0,1.0,10.0,
2077.0,2218.0,1.0,10.0,
2108.0,2333.0,2.0,10.0,
2078.0,2049.0,2.0,10.0,
2068.0,2010.0,2.0,10.0,
2187.0,1554.0,2.0,9.0,
2199.0,1741.0,2.0,9.0,
2057.0,2094.0,3.0,9.0,
2083.0,2142.0,3.0,10.0,
2117.0,2337.0,3.0,10.0,
2124.0,2255.0,3.0,10.0,
2088.0,2395.0,3.0,10.0,
2089.0,1853.0,3.0,10.0,
2048.0,1661.0,4.0,9.0,
2035.0,2015.0,3.0,9.0,
2040.0,2153.0,3.0,9.0,
2068.0,2276.0,3.0,9.0,
2025.0,1887.0,3.0,9.0,
2048.0,2260.0,3.0,9.0,
1981.0,2014.0,3.0,9.0,
2039.0,2243.0,3.0,9.0,
2043.0,1995.0,3.0,9.0,
2079.0,2140.0,3.0,9.0,
2088.0,2343.0,3.0,9.0,
2099.0,2221.0,3.0,9.0,
2100.0,2087.0,3.0,9.0,
2100.0,2040.0,2.0,10.0,
2075.0,2164.0,2.0,10.0,
2050.0,2115.0,2.0,10.0,
2119.0,2212.0,1.0,10.0,
2117.0,2287.0,1.0,10.0,
2081.0,2160.0,1.0,10.0,
2092.0,1964.0,0.0,10.0,
2097.0,2095.0,0.0,10.0,
2065.0,2199.0,0.0,10.0,
2077.0,2161.0,-1.0,10.0,
2057.0,1962.0,-1.0,10.0,
2054.0,1991.0,-2.0,10.0,
2070.0,2014.0,-2.0,10.0,
2084.0,2066.0,-2.0,10.0,
2092.0,2085.0,-3.0,10.0,
2232.0,2128.0,-3.0,10.0,
2165.0,2131.0,-3.0,10.0,
2115.0,2291.0,-3.0,10.0,
2069.0,2382.0,-3.0,10.0,
2031.0,2389.0,-3.0,10.0,
2075.0,2230.0,-2.0,10.0,
2110.0,1838.0,-1.0,9.0,
2038.0,1831.0,-1.0,10.0,
2071.0,1832.0,0.0,9.0,
2111.0,2017.0,0.0,9.0,
2112.0,2010.0,2.0,9.0,
2090.0,2089.0,3.0,9.0,
2064.0,2082.0,5.0,9.0,
2084.0,2184.0,6.0,9.0,
2102.0,2201.0,8.0,9.0,
2129.0,2211.0,9.0,9.0,
2129.0,2076.0,10.0,10.0,
2092.0,2118.0,12.0,10.0,
2078.0,2053.0,13.0,10.0,
2074.0,2173.0,13.0,10.0,
2094.0,2363.0,14.0,10.0,
2078.0,2323.0,14.0,10.0,
2108.0,2318.0,15.0,10.0,
2118.0,2082.0,15.0,10.0,
2087.0,1884.0,15.0,10.0,
2086.0,1620.0,14.0,10.0,
2082.0,1837.0,14.0,10.0,
2025.0,2070.0,13.0,10.0,
2048.0,2262.0,12.0,9.0,
2058.0,2181.0,11.0,9.0,
2083.0,2155.0,10.0,9.0,
2053.0,2165.0,9.0,8.0,
2027.0,2130.0,8.0,8.0,
2055.0,2065.0,7.0,8.0,
2061.0,2159.0,6.0,8.0,
2087.0,2137.0,4.0,8.0,
2131.0,2133.0,3.0,8.0,
2100.0,2095.0,2.0,8.0,
2111.0,2109.0,1.0,8.0,
2093.0,2150.0,0.0,8.0,
2068.0,2205.0,0.0,9.0,
2060.0,2172.0,-1.0,9.0,
2050.0,2130.0,-1.0,10.0,
2108.0,2048.0,-2.0,10.0,
2062.0,2097.0,-3.0,10.0,
2123.0,2089.0,-3.0,10.0,
2119.0,2162.0,-3.0,9.0,
2059.0,2087.0,-3.0,9.0,
2015.0,2199.0,-3.0,9.0,
2056.0,2102.0,-4.0,9.0,
2096.0,2068.0,-4.0,9.0,
2139.0,2190.0,-5.0,9.0,
2096.0,1994.0,-5.0,9.0,
1940.0,1919.0,-5.0,9.0,
2094.0,2191.0,-5.0,9.0,
2166.0,2106.0,-4.0,8.0,
2084.0,1963.0,-3.0,8.0,
2174.0,2214.0,-2.0,9.0,
2104.0,2465.0,-1.0,9.0,
2109.0,2300.0,0.0,8.0,
2039.0,1664.0,2.0,8.0,
2111.0,2010.0,4.0,8.0,
2141.0,2114.0,7.0,8.0,
2156.0,2026.0,9.0,8.0,
2068.0,1959.0,12.0,8.0,
2006.0,1994.0,17.0,9.0,
2072.0,2244.0,19.0,8.0,
2048.0,2219.0,21.0,8.0,
2106.0,2238.0,23.0,8.0,
2031.0,2130.0,25.0,8.0,
2061.0,2221.0,0,
2075.0,2261.0,26.0,8.0,
2015.0,1685.0,27.0,8.0,
2019.0,2111.0,28.0,8.0,
2030.0,2020.0,29.0,8.0,
2080.0,2134.0,29.0,8.0,
2101.0,2120.0,29.0,8.0,
2121.0,2135.0,29.0,8.0,
2080.0,2081.0,29.0,8.0,
2058.0,2132.0,28.0,8.0,
2046.0,2158.0,27.0,8.0,
2041.0,2146.0,26.0,8.0,
2045.0,2153.0,25.0,8.0,
2114.0,2159.0,24.0,8.0,
2133.0,2068.0,22.0,8.0,
2219.0,2141.0,21.0,8.0,
2173.0,2186.0,19.0,8.0,
2122.0,2188.0,18.0,8.0,
2064.0,2189.0,16.0,8.0,
2044.0,2215.0,15.0,8.0,
2045.0,2228.0,13.0,8.0,
2043.0,2108.0,12.0,8.0,
2057.0,1967.0,10.0,8.0,
2036.0,1982.0,9.0,8.0,
2178.0,2075.0,7.0,8.0,
2163.0,2070.0,6.0,8.0,
2096.0,2129.0,5.0,8.0,
2125.0,2137.0,5.0,8.0,
2103.0,2106.0,4.0,8.0,
2140.0,2134.0,3.0,8.0,
2089.0,2008.0,2.0,9.0,
2051.0,2156.0,2.0,9.0,
2021.0,2098.0,1.0,8.0,
2040.0,2188.0,1.0,8.0,
2044.0,2039.0,1.0,8.0,
2045.0,2095.0,1.0,8.0,
2052.0,2100.0,1.0,8.0,
2014.0,2131.0,0.0,9.0,
2028.0,2093.0,0.0,8.0,
2102.0,2119.0,1.0,8.0,
2083.0,2083.0,2.0,8.0,
2130.0,2320.0,3.0,8.0,
2062.0,2079.0,4.0,8.0,
2075.0,1991.0,5.0,8.0,
2099.0,2033.0,7.0,8.0,
2088.0,2076.0,9.0,8.0,
2069.0,2239.0,10.0,8.0,
2103.0,2218.0,13.0,8.0,
2123.0,2158.0,15.0,8.0,
2081.0,2080.0,18.0,7.0,
2049.0,2339.0,20.0,7.0,
2052.0,1894.0,23.0,7.0,
2070.0,2011.0,25.0,7.0,
2067.0,1974.0,27.0,7.0,
2083.0,2075.0,29.0,6.0,
2070.0,2015.0,31.0,6.0,
2069.0,2109.0,32.0,5.0,
2057.0,2078.0,34.0,5.0,
2057.0,2042.0,35.0,5.0,
2123.0,2040.0,35.0,4.0,
2099.0,1942.0,36.0,4.0,
2083.0,2103.0,37.0,4.0,
2071.0,2185.0,37.0,4.0,
2097.0,2128.0,37.0,3.0,
2097.0,2150.0,37.0,3.0,
2103.0,2182.0,36.0,3.0,
2136.0,2202.0,36.0,3.0,
2089.0,2219.0,35.0,3.0,
2132.0,2271.0,35.0,3.0,
2079.0,2263.0,34.0,3.0,
2077.0,1711.0,33.0,3.0,
2107.0,2008.0,32.0,3.0,
2099.0,2118.0,31.0,3.0,
2052.0,2163.0,30.0,3.0,
2121.0,2216.0,28.0,4.0,
2086.0,2211.0,27.0,4.0,
2120.0,2135.0,26.0,4.0,
2146.0,1915.0,24.0,4.0,
2129.0,2053.0,23.0,5.0,
2155.0,2145.0,0,
2027.0,2012.0,21.0,5.0,
2007.0,2029.0,20.0,6.0,
2064.0,2071.0,18.0,6.0,
2098.0,2117.0,17.0,6.0,
2064.0,2163.0,17.0,6.0,
2070.0,2224.0,16.0,7.0,
2058.0,2206.0,15.0,7.0,
2060.0,1957.0,14.0,7.0,
2074.0,2034.0,13.0,7.0,
2082.0,2156.0,12.0,8.0,
2046.0,2149.0,12.0,8.0,
2051.0,2134.0,12.0,8.0,
2090.0,2154.0,12.0,8.0,
2020.0,2196.0,11.0,9.0,
2088.0,2237.0,11.0,9.0,
2089.0,1891.0,11.0,9.0,
2095.0,2081.0,11.0,9.0,
2115.0,2288.0,11.0,9.0,
2066.0,1819.0,12.0,9.0,
2049.0,1786.0,12.0,9.0,
2055.0,2177.0,13.0,8.0,
2096.0,2254.0,14.0,8.0,
2091.0,2076.0,14.0,9.0,
2072.0,1991.0,15.0,8.0,
2026.0,2064.0,16.0,7.0,
2021.0,2247.0,17.0,7.0,
2071.0,2245.0,18.0,7.0,
2082.0,2273.0,20.0,6.0,
2030.0,2321.0,21.0,6.0,
2040.0,2220.0,22.0,6.0,
2104.0,1867.0,23.0,5.0,
2233.0,2025.0,24.0,5.0,
2126.0,2339.0,25.0,4.0,
2108.0,2682.0,27.0,4.0,
2070.0,2549.0,28.0,3.0,
2082.0,1774.0,29.0,3.0,
2102.0,1393.0,30.0,3.0,
2070.0,1333.0,31.0,2.0,
2117.0,1867.0,32.0,2.0,
2133.0,2052.0,33.0,2.0,
2108.0,2151.0,34.0,2.0,
2102.0,2112.0,34.0,2.0,
2092.0,2244.0,35.0,2.0,
2128.0,2340.0,35.0,2.0,
2090.0,2192.0,35.0,2.0,
2066.0,2106.0,36.0,2.0,
2049.0,2139.0,36.0,2.0,
2044.0,2145.0,36.0,2.0,
2043.0,2192.0,36.0,2.0,
2048.0,2244.0,36.0,3.0,
2067.0,2186.0,35.0,3.0,
2073.0,2164.0,35.0,3.0,
2071.0,2145.0,35.0,3.0,
2081.0,2099.0,35.0,3.0,
2079.0,2160.0,34.0,3.0,
2070.0,2226.0,34.0,3.0,
2085.0,2174.0,33.0,3.0,
2081.0,2161.0,33.0,4.0,
2077.0,2131.0,32.0,4.0,
2065.0,2105.0,31.0,4.0,
2058.0,2054.0,31.0,4.0,
2073.0,2069.0,30.0,4.0,
2096.0,2118.0,30.0,4.0,
2111.0,2200.0,29.0,4.0,
2082.0,1960.0,29.0,5.0,
2101.0,2049.0,28.0,5.0,
2099.0,2078.0,27.0,5.0,
2181.0,2012.0,27.0,5.0,
1963.0,2079.0,26.0,5.0,
2059.0,2158.0,26.0,5.0,
2070.0,2163.0,25.0,6.0,
2101.0,2264.0,25.0,6.0,
2118.0,2212.0,24.0,6.0,
2067.0,2227.0,24.0,6.0,
2113.0,1779.0,23.0,7.0,
2073.0,1891.0,23.0,7.0,
2086.0,1937.0,23.0,7.0,
2089.0,2065.0,23.0,6.0,
2127.0,2176.0,23.0,7.0,
2102.0,2120.0,23.0,7.0,
2087.0,2045.0,23.0,7.0,
2071.0,2126.0,23.0,7.0,
2055.0,2145.0,24.0,7.0,
2047.0,2411.0,24.0,7.0,
2020.0,2481.0,25.0,7.0,
2011.0,2367.0,26.0,6.0,
2022.0,2124.0,27.0,6.0,
2055.0,1687.0,27.0,6.0,
2209.0,1943.0,28.0,6.0,
2100.0,1984.0,29.0,5.0,
2125.0,1995.0,30.0,5.0,
2077.0,2141.0,31.0,5.0,
2047.0,2271.0,31.0,5.0,
2018.0,2027.0,32.0,5.0,
2032.0,1940.0,33.0,4.0,
2084.0,2064.0,34.0,4.0,
2111.0,2130.0,35.0,4.0,
2107.0,2071.0,35.0,4.0,
2134.0,2022.0,36.0,4.0,
2109.0,2201.0,36.0,3.0,
2105.0,2233.0,37.0,2.0,
2047.0,2178.0,38.0,2.0,
2025.0,2084.0,38.0,3.0,
2097.0,2091.0,38.0,2.0,
2154.0,2215.0,39.0,2.0,
2129.0,2150.0,39.0,2.0,
2111.0,2251.0,39.0,2.0,
2114.0,2141.0,40.0,2.0,
2104.0,1865.0,40.0,2.0,
2099.0,2123.0,40.0,2.0,
2072.0,2300.0,40.0,3.0,
2070.0,2476.0,40.0,3.0,
2060.0,2004.0,40.0,2.0,
2040.0,1983.0,40.0,2.0,
2148.0,2090.0,40.0,2.0,
2076.0,1786.0,40.0,2.0,
2065.0,1811.0,40.0,2.0,
2047.0,1967.0,39.0,3.0,
2035.0,2035.0,38.0,3.0,
2084.0,2178.0,38.0,3.0,
2065.0,2194.0,37.0,3.0,
2091.0,2156.0,37.0,4.0,
2113.0,2204.0,36.0,4.0,
2082.0,2267.0,35.0,4.0,
2082.0,2229.0,35.0,4.0,
2055.0,2168.0,34.0,5.0,
2067.0,2167.0,33.0,5.0,
2076.0,2171.0,33.0,5.0,
2064.0,2012.0,33.0,5.0,
2197.0,2082.0,33.0,5.0,
2055.0,2060.0,32.0,5.0,
2062.0,2140.0,32.0,5.0,
2096.0,2138.0,33.0,5.0,
2101.0,2121.0,33.0,5.0,
2084.0,2158.0,33.0,6.0,
2063.0,2210.0,33.0,6.0,
2062.0,2191.0,33.0,4.0,
2099.0,2099.0,35.0,4.0,
2068.0,1972.0,36.0,4.0,
2062.0,2047.0,36.0,4.0,
2086.0,2159.0,37.0,4.0,
2142.0,2214.0,38.0,4.0,
2131.0,2179.0,39.0,4.0,
2136.0,2161.0,40.0,3.0,
2060.0,1685.0,41.0,3.0,
2099.0,2042.0,42.0,3.0,
2083.0,2121.0,43.0,3.0,
2065.0,2260.0,44.0,3.0,
2078.0,2336.0,45.0,2.0,
2092.0,2054.0,46.0,2.0,
2091.0,2004.0,47.0,2.0,
2095.0,2156.0,47.0,1.0,
2091.0,2082.0,48.0,1.0,
2066.0,2053.0,48.0,1.0,
2069.0,2116.0,49.0,1.0,
2064.0,2070.0,49.0,1.0,
2052.0,2066.0,50.0,1.0,
2071.0,2112.0,50.0,1.0,
2084.0,2118.0,50.0,1.0,
2087.0,2149.0,50.0,0.0,
2129.0,2117.0,51.0,0.0,
2095.0,2101.0,51.0,0.0,
2049.0,2153.0,51.0,0.0,
2100.0,2012.0,51.0,0.0,
2061.0,2173.0,51.0,0.0,
2075.0,2145.0,51.0,0.0,
2058.0,2145.0,51.0,0.0,
2121.0,2150.0,50.0,0.0,
2103.0,2114.0,50.0,0.0,
2099.0,2120.0,50.0,0.0,
2129.0,2039.0,50.0,1.0,
2095.0,2122.0,50.0,1.0,
2030.0,2025.0,50.0,1.0,
2082.0,2100.0,49.0,1.0,
2065.0,2095.0,49.0,1.0,
2092.0,2143.0,49.0,1.0,
2071.0,2053.0,49.0,1.0,
2100.0,2246.0,48.0,1.0,
2111.0,2014.0,48.0,2.0,
2076.0,2084.0,48.0,2.0,
2075.0,2115.0,47.0,2.0,
2095.0,2129.0,47.0,2.0,
2100.0,2310.0,47.0,2.0,
2074.0,2146.0,46.0,2.0,
2087.0,2113.0,46.0,2.0,
2103.0,1845.0,46.0,3.0,
2074.0,1838.0,46.0,3.0,
2102.0,2068.0,46.0,3.0,
2094.0,2188.0,46.0,3.0,
2105.0,2136.0,46.0,3.0,
2083.0,2120.0,46.0,3.0,
2090.0,2173.0,46.0,3.0,
2089.0,2180.0,46.0,2.0,
2053.0,2074.0,46.0,2.0,
2093.0,2113.0,46.0,2.0,
2114.0,2168.0,47.0,2.0,
2072.0,2153.0,47.0,2.0,
2066.0,2070.0,47.0,2.0,
2077.0,2147.0,47.0,2.0,
2080.0,2153.0,47.0,2.0,
2075.0,2149.0,47.0,2.0,
2093.0,2002.0,47.0,2.0,
2084.0,2069.0,47.0,2.0,
2097.0,2145.0,47.0,2.0,
2081.0,2092.0,47.0,2.0,
2101.0,2143.0,47.0,2.0,
2073.0,2110.0,47.0,2.0,
2026.0,2099.0,47.0,2.0,
2101.0,2097.0,47.0,2.0,
2057.0,2083.0,47.0,1.0,
2081.0,2122.0,47.0,1.0,
2093.0,2123.0,47.0,1.0,
2081.0,2136.0,47.0,1.0,
2149.0,2168.0,47.0,1.0,
2055.0,2049.0,47.0,1.0,
2068.0,2098.0,47.0,1.0,
2082.0,2103.0,48.0,1.0,
2070.0,2113.0,48.0,1.0,
2084.0,2119.0,48.0,0.0,
2108.0,2114.0,48.0,0.0,
2102.0,2100.0,48.0,0.0,
2076.0,2078.0,48.0,0.0,
2080.0,2036.0,49.0,0.0,
2065.0,2174.0,49.0,1.0,
2111.0,2105.0,49.0,1.0,
2085.0,2098.0,50.0,1.0,
2087.0,2164.0,50.0,1.0,
2086.0,2032.0,50.0,1.0,
2052.0,2069.0,50.0,1.0,
2081.0,2101.0,50.0,1.0,
2070.0,2118.0,51.0,1.0,
2079.0,2101.0,51.0,1.0,
2089.0,2102.0,51.0,1.0,
2068.0,2108.0,52.0,1.0,
2081.0,2103.0,52.0,1.0,
2095.0,2126.0,52.0,1.0,
2089.0,2123.0,52.0,2.0,
2086.0,2126.0,52.0,2.0,
2093.0,2149.0,53.0,1.0,
2068.0,2120.0,53.0,1.0,
2092.0,2087.0,53.0,1.0,
2036.0,2081.0,53.0,1.0,
2048.0,2147.0,53.0,2.0,
2062.0,2130.0,53.0,1.0,
2079.0,2084.0,54.0,1.0,
2082.0,2114.0,53.0,1.0,
2092.0,2149.0,54.0,1.0,
2091.0,2108.0,54.0,1.0,
2097.0,2025.0,54.0,1.0,
2081.0,2096.0,54.0,1.0,
2080.0,2128.0,54.0,1.0,
2080.0,2098.0,54.0,1.0,
2062.0,2167.0,54.0,1.0,
2088.0,2155.0,55.0,1.0,
2045.0,2142.0,55.0,1.0,
2111.0,2118.0,55.0,0.0,
2099.0,2086.0,55.0,0.0,
2093.0,2090.0,55.0,1.0,
2088.0,2104.0,55.0,1.0,
2087.0,2131.0,55.0,0.0,
2079.0,2101.0,55.0,0.0,
2064.0,2091.0,55.0,1.0,
2066.0,2091.0,55.0,0.0,
2079.0,2111.0,55.0,0.0,
2123.0,2154.0,55.0,0.0,
2105.0,2146.0,55.0,0.0,
2075.0,2145.0,55.0,0.0,
2062.0,2116.0,55.0,0.0,
2045.0,2111.0,55.0,0.0,
2069.0,2106.0,55.0,0.0,
2065.0,2106.0,55.0,0.0,
2079.0,2107.0,55.0,0.0,
2096.0,2143.0,55.0,0.0,
2095.0,2177.0,55.0,0.0,
2132.0,2048.0,55.0,0.0,
2070.0,2096.0,55.0,0.0,
2045.0,2153.0,55.0,0.0,
2096.0,2100.0,55.0,0.0,
2067.0,2041.0,55.0,0.0,
2049.0,2055.0,55.0,0.0,
2070.0,2142.0,55.0,0.0,
2084.0,2106.0,55.0,0.0,
2080.0,2087.0,55.0,0.0,
2123.0,2046.0,54.0,0.0,
2092.0,2094.0,54.0,0.0,
2089.0,2114.0,54.0,0.0,
2090.0,2115.0,54.0,0.0,
2080.0,2073.0,54.0,0.0,
2079.0,2119.0,54.0,0.0,
2087.0,2117.0,54.0,0.0,
2098.0,2160.0,54.0,0.0,
2093.0,2171.0,53.0,0.0,
2129.0,2044.0,53.0,0.0,
2057.0,2095.0,53.0,0.0,
2077.0,2074.0,53.0,0.0,
2088.0,2102.0,53.0,0.0,
2110.0,2127.0,53.0,0.0,
2066.0,2122.0,53.0,0.0,
2103.0,2144.0,53.0,0.0,
2094.0,2132.0,53.0,0.0,
2099.0,2114.0,53.0,0.0,
2089.0,2117.0,53.0,0.0,
2072.0,2110.0,53.0,0.0,
2081.0,2112.0,53.0,0.0,
2073.0,2165.0,53.0,0.0,
2092.0,2114.0,52.0,0.0,
2051.0,2101.0,52.0,0.0,
2094.0,2105.0,52.0,0.0,
2076.0,2096.0,52.0,0.0,
2089.0,2084.0,52.0,0.0,
2067.0,2133.0,52.0,0.0,
2070.0,2115.0,52.0,0.0,
2072.0,2094.0,52.0,0.0,
2078.0,2102.0,52.0,0.0,
2087.0,2119.0,52.0,0.0,
2075.0,2118.0,52.0,0.0,
2098.0,2142.0,52.0,0.0,
2101.0,2107.0,52.0,0.0,
2089.0,2089.0,52.0,0.0,
2066.0,2092.0,52.0,0.0,
2070.0,2113.0,52.0,0.0,
2080.0,2145.0,52.0,0.0,
2083.0,2122.0,52.0,0.0,
2078.0,2108.0,52.0,0.0,
2069.0,2103.0,52.0,0.0,
2076.0,2116.0,52.0,0.0,
2108.0,2102.0,52.0,0.0,
2088.0,2108.0,52.0,0.0,
2094.0,2115.0,52.0,0.0,
2065.0,2105.0,52.0,0.0,
2085.0,2142.0,52.0,0.0,
2101.0,2124.0,53.0,0.0,
2104.0,2088.0,53.0,0.0,
2093.0,2099.0,53.0,0.0,
2081.0,2107.0,53.0,0.0,
2103.0,2128.0,53.0,0.0,
2126.0,2163.0,53.0,0.0,
2077.0,2052.0,53.0,0.0,
2067.0,2018.0,53.0,0.0,
2062.0,2093.0,53.0,0.0,
2089.0,2091.0,53.0,0.0,
2076.0,2112.0,54.0,0.0,
2097.0,2113.0,54.0,0.0,
2097.0,2144.0,54.0,0.0,
2085.0,2097.0,54.0,0.0,
2102.0,2140.0,54.0,0.0,
2093.0,2111.0,54.0,0.0,
2076.0,2106.0,54.0,0.0,
2075.0,2048.0,54.0,0.0,
2059.0,2132.0,54.0,0.0,
2113.0,2110.0,54.0,0.0,
2092.0,2123.0,54.0,0.0,
2084.0,2119.0,54.0,0.0,
2093.0,2114.0,54.0,0.0,
2070.0,2115.0,54.0,0.0,
2076.0,2138.0,54.0,0.0,
2077.0,2129.0,54.0,0.0,
2114.0,2046.0,54.0,0.0,
2079.0,2139.0,54.0,0.0,
2077.0,2113.0,54.0,0.0,
2084.0,2145.0,54.0,0.0,
2084.0,2049.0,54.0,0.0,
2067.0,2091.0,54.0,0.0,
2052.0,2100.0,54.0,0.0,
2078.0,2112.0,54.0,0.0,
2080.0,2117.0,54.0,0.0,
2076.0,2111.0,54.0,0.0,
2085.0,2127.0,54.0,0.0,
2083.0,2107.0,54.0,0.0,
2078.0,2122.0,54.0,0.0,
2083.0,2125.0,54.0,0.0,
2095.0,2112.0,54.0,0.0,
2071.0,2122.0,54.0,0.0,
2078.0,2113.0,54.0,0.0,
2075.0,2116.0,54.0,0.0,
2086.0,2120.0,54.0,0.0,
2081.0,2105.0,54.0,0.0,
2078.0,2105.0,54.0,0.0,
2085.0,2111.0,54.0,0.0,
2082.0,2098.0,54.0,0.0,
2093.0,2184.0,54.0,0.0,
2110.0,2142.0,54.0,0.0,
2086.0,2098.0,54.0,0.0,
2055.0,2073.0,54.0,0.0,
2082.0,2099.0,54.0,0.0,
2115.0,2125.0,54.0,0.0,
2094.0,2106.0,54.0,0.0,
2104.0,2115.0,54.0,0.0,
2078.0,2095.0,54.0,0.0,
2087.0,2106.0,54.0,0.0,
2073.0,2122.0,54.0,0.0,
2096.0,2102.0,54.0,0.0,
2058.0,2098.0,54.0,0.0,
2082.0,2121.0,54.0,0.0,
2083.0,2113.0,54.0,0.0,
2067.0,2116.0,54.0,0.0,
2081.0,2086.0,54.0,0.0,
2095.0,2104.0,54.0,0.0,
2068.0,2098.0,54.0,0.0,
2085.0,2127.0,54.0,0.0,
2080.0,2105.0,54.0,0.0,
2059.0,2102.0,54.0,0.0,
2077.0,2106.0,54.0,0.0,
2097.0,2132.0,54.0,0.0,
2062.0,2089.0,54.0,0.0,
2095.0,2099.0,54.0,0.0,
2082.0,2105.0,54.0,0.0,
2096.0,2143.0,54.0,0.0,
2074.0,1995.0,55.0,0.0,
2020.0,2148.0,54.0,0.0,
2088.0,2178.0,54.0,0.0,
2109.0,2066.0,54.0,0.0,
2090.0,2124.0,54.0,0.0,
2094.0,2078.0,54.0,0.0,
2100.0,2110.0,54.0,0.0,
2075.0,2108.0,54.0,0.0,
2081.0,2096.0,54.0,0.0,
2083.0,2109.0,54.0,0.0,
2087.0,2144.0,54.0,0.0,
2067.0,2110.0,54.0,0.0,
2072.0,2127.0,54.0,0.0,
2094.0,2126.0,54.0,0.0,
2090.0,2126.0,53.0,0.0,
2084.0,2079.0,53.0,0.0,
2071.0,2089.0,53.0,0.0,
2085.0,2093.0,53.0,0.0,
2092.0,2105.0,53.0,0.0,
2084.0,2129.0,53.0,0.0,
2088.0,2110.0,53.0,0.0,
2090.0,2127.0,53.0,0.0,
2081.0,2116.0,53.0,0.0,
2095.0,2117.0,53.0,0.0,
2104.0,2107.0,53.0,0.0,
2085.0,2132.0,52.0,0.0,
2081.0,2058.0,52.0,0.0,
2074.0,2118.0,52.0,0.0,
2082.0,2126.0,52.0,0.0,
2082.0,2123.0,52.0,0.0,
2120.0,2118.0,52.0,0.0,
2105.0,2115.0,52.0,0.0,
2088.0,2114.0,52.0,0.0,
2090.0,2105.0,52.0,0.0,
2074.0,2105.0,52.0,0.0,
2085.0,2111.0,52.0,0.0,
2087.0,2133.0,52.0,0.0,
2087.0,2124.0,52.0,0.0,
2095.0,2145.0,53.0,0.0,
2085.0,2100.0,53.0,0.0,
2070.0,2117.0,53.0,0.0,
2082.0,2109.0,53.0,0.0,
2085.0,2100.0,53.0,0.0,
2069.0,2095.0,53.0,0.0,
2075.0,2091.0,53.0,0.0,
2069.0,2111.0,53.0,0.0,
2084.0,2107.0,54.0,0.0,
2085.0,2107.0,54.0,0.0,
2106.0,2100.0,54.0,0.0,
2076.0,2099.0,54.0,0.0,
2087.0,2120.0,54.0,0.0,
2084.0,2101.0,54.0,0.0,
2070.0,2136.0,54.0,0.0,
2062.0,2067.0,54.0,0.0,
2080.0,2096.0,54.0,0.0,
2083.0,2121.0,55.0,0.0,
2059.0,2114.0,55.0,0.0,
2073.0,2102.0,55.0,0.0,
2085.0,2115.0,55.0,0.0,
2070.0,2099.0,55.0,0.0,
2084.0,2103.0,55.0,0.0,
2114.0,2108.0,55.0,0.0,
2085.0,2120.0,55.0,0.0,
2103.0,2127.0,55.0,0.0,
2100.0,2159.0,55.0,0.0,
2114.0,2140.0,55.0,0.0,
2068.0,2087.0,55.0,0.0,
2088.0,2108.0,55.0,0.0,
2075.0,2112.0,55.0,0.0,
2082.0,2083.0,55.0,0.0,
2076.0,2138.0,0,
2077.0,2131.0,55.0,0.0,
2095.0,2100.0,54.0,0.0,
2094.0,2081.0,54.0,0.0,
2082.0,2102.0,54.0,0.0,
2088.0,2108.0,54.0,0.0,
2103.0,2113.0,54.0,0.0,
2091.0,2103.0,54.0,0.0,
2076.0,2106.0,54.0,0.0,
2075.0,2110.0,54.0,0.0,
2094.0,2120.0,54.0,0.0,
2047.0,2106.0,54.0,0.0,
2113.0,2118.0,54.0,0.0,
2105.0,2113.0,54.0,0.0,
2088.0,2135.0,54.0,0.0,
2085.0,2104.0,54.0,0.0,
2072.0,2105.0,54.0,0.0,
2093.0,2111.0,54.0,0.0,
2088.0,2111.0,54.0,0.0,
2077.0,2117.0,54.0,0.0,
2100.0,2117.0,54.0,0.0,
2103.0,2109.0,54.0,0.0,
2084.0,2110.0,54.0,0.0,
2088.0,2105.0,54.0,0.0,
2065.0,2128.0,54.0,0.0,
2087.0,2133.0,54.0,0.0,
2089.0,2061.0,54.0,0.0,
2077.0,2112.0,54.0,0.0,
2079.0,2121.0,54.0,0.0,
2079.0,2113.0,54.0,0.0,
2104.0,2101.0,54.0,0.0,
2072.0,2118.0,54.0,0.0,
2087.0,2108.0,54.0,0.0,
2079.0,2104.0,54.0,0.0,
2063.0,2095.0,55.0,0.0,
2060.0,2107.0,55.0,0.0,
2065.0,2099.0,55.0,0.0,
2075.0,2116.0,55.0,0.0,
2083.0,2106.0,55.0,0.0,
2089.0,2110.0,55.0,0.0,
2091.0,2110.0,55.0,0.0,
2100.0,2114.0,55.0,0.0,
2104.0,2080.0,55.0,0.0,
2078.0,2098.0,55.0,0.0,
2072.0,2109.0,55.0,0.0,
2073.0,2113.0,55.0,0.0,
2062.0,2147.0,55.0,0.0,
2144.0,2119.0,55.0,0.0,
2090.0,2107.0,55.0,0.0,
2072.0,2130.0,55.0,0.0,
2085.0,2128.0,55.0,0.0,
2117.0,2039.0,55.0,0.0,
2058.0,2127.0,55.0,0.0,
2084.0,2132.0,54.0,0.0,
2059.0,2047.0,54.0,0.0,
2087.0,2096.0,54.0,0.0,
2081.0,2117.0,54.0,0.0,
2096.0,2116.0,54.0,0.0,
2085.0,2138.0,54.0,0.0,
2068.0,2114.0,54.0,0.0,
2065.0,2095.0,53.0,0.0,
2055.0,2099.0,53.0,1.0,
2056.0,2125.0,53.0,0.0,
2067.0,2117.0,53.0,0.0,
2099.0,2157.0,53.0,0.0,
2102.0,2171.0,53.0,0.0,
2095.0,2048.0,52.0,0.0,
2081.0,2101.0,52.0,0.0,
2084.0,2103.0,52.0,0.0,
2077.0,2102.0,52.0,0.0,
2086.0,2109.0,52.0,0.0,
2095.0,2118.0,52.0,0.0,
2103.0,2119.0,52.0,0.0,
2106.0,2121.0,52.0,0.0,
2100.0,2125.0,52.0,0.0,
2113.0,2124.0,52.0,0.0,
2099.0,2092.0,52.0,0.0,
2091.0,2104.0,52.0,0.0,
2100.0,2102.0,52.0,0.0,
2066.0,2116.0,52.0,0.0,
2079.0,2117.0,52.0,0.0,
2088.0,2114.0,52.0,0.0,
2109.0,2113.0,52.0,0.0,
2101.0,2111.0,52.0,0.0,
2098.0,2118.0,52.0,0.0,
2075.0,2110.0,52.0,0.0,
2072.0,2096.0,53.0,0.0,
2083.0,2097.0,53.0,0.0,
2079.0,2110.0,53.0,0.0,
2094.0,2112.0,53.0,0.0,
2089.0,2119.0,53.0,0.0,
2094.0,2117.0,53.0,0.0,
2093.0,2116.0,53.0,0.0,
2088.0,2100.0,53.0,0.0,
2079.0,2090.0,54.0,0.0,
2051.0,2102.0,54.0,0.0,
2075.0,2140.0,54.0,0.0,
2093.0,2140.0,54.0,0.0,
2107.0,2112.0,54.0,0.0,
2101.0,2124.0,54.0,0.0,
2084.0,2107.0,54.0,0.0,
2097.0,2098.0,54.0,0.0,
2081.0,2100.0,54.0,0.0,
2087.0,2089.0,54.0,0.0,
2078.0,2102.0,54.0,0.0,
2089.0,2109.0,54.0,0.0,
2090.0,2117.0,55.0,0.0,
2090.0,2102.0,55.0,0.0,
2106.0,2113.0,55.0,0.0,
2093.0,2102.0,55.0,0.0,
2071.0,2105.0,55.0,0.0,
2079.0,2100.0,55.0,0.0,
2086.0,2097.0,55.0,0.0,
2062.0,2110.0,55.0,0.0,
2078.0,2114.0,55.0,0.0,
2091.0,2135.0,55.0,0.0,
2099.0,2122.0,55.0,0.0,
2091.0,2099.0,55.0,0.0,
2080.0,2118.0,55.0,0.0,
2083.0,2133.0,55.0,0.0,
2085.0,2107.0,55.0,0.0,
2095.0,2084.0,55.0,0.0,
2077.0,2101.0,55.0,0.0,
2075.0,2127.0,55.0,0.0,
2088.0,2135.0,55.0,0.0,
2080.0,2066.0,55.0,0.0,
2058.0,2093.0,55.0,0.0,
2095.0,2104.0,55.0,0.0,
2095.0,2113.0,55.0,0.0,
2060.0,2114.0,55.0,0.0,
2088.0,2109.0,55.0,0.0,
2087.0,2121.0,55.0,0.0,
2072.0,2127.0,54.0,0.0,
2086.0,2125.0,54.0,0.0,
2068.0,2126.0,54.0,0.0,
2091.0,2121.0,54.0,0.0,
2111.0,2141.0,54.0,0.0,
2105.0,2098.0,54.0,0.0,
2063.0,2121.0,54.0,0.0,
2070.0,2119.0,54.0,0.0,
2078.0,2089.0,54.0,0.0,
2082.0,2123.0,54.0,0.0,
2080.0,2114.0,54.0,0.0,
2069.0,2127.0,54.0,0.0,
2108.0,2104.0,54.0,0.0,
2104.0,2085.0,54.0,0.0,
2074.0,2078.0,54.0,0.0,
2066.0,2115.0,54.0,0.0,
2056.0,2099.0,54.0,0.0,
2072.0,2089.0,54.0,0.0,
2083.0,2131.0,54.0,0.0,
2075.0,2134.0,54.0,0.0,
2103.0,2155.0,54.0,0.0,
2089.0,2096.0,54.0,0.0,
2081.0,2091.0,53.0,0.0,
2071.0,2096.0,53.0,0.0,
2111.0,2097.0,53.0,0.0,
2066.0,2116.0,53.0,0.0,
2076.0,2113.0,53.0,0.0,
2084.0,2114.0,53.0,0.0,
2090.0,2118.0,53.0,0.0,
2116.0,2085.0,53.0,0.0,
2086.0,2115.0,53.0,0.0,
2065.0,2086.0,53.0,0.0,
2070.0,2098.0,53.0,0.0,
2072.0,2107.0,53.0,0.0,
2081.0,2107.0,53.0,0.0,
2072.0,2126.0,53.0,0.0,
2095.0,2103.0,53.0,0.0,
2091.0,2117.0,53.0,0.0,
2097.0,2116.0,53.0,0.0,
2105.0,2142.0,53.0,0.0,
2093.0,2145.0,53.0,0.0,
2094.0,2115.0,53.0,0.0,
2066.0,2076.0,53.0,0.0,
2077.0,2085.0,54.0,0.0,
2068.0,2133.0,54.0,0.0,
2085.0,2102.0,54.0,0.0,
2106.0,2137.0,54.0,0.0,
2111.0,2086.0,54.0,0.0,
2079.0,2105.0,54.0,0.0,
2085.0,2112.0,54.0,0.0,
2085.0,2098.0,54.0,0.0,
2067.0,2103.0,54.0,0.0,
2063.0,2120.0,54.0,0.0,
2072.0,2123.0,54.0,0.0,
2100.0,2126.0,54.0,0.0,
2096.0,2122.0,54.0,0.0,
2097.0,2116.0,54.0,0.0,
2085.0,2109.0,54.0,0.0,
2068.0,2092.0,54.0,0.0,
2088.0,2106.0,54.0,0.0,
2075.0,2113.0,54.0,0.0,
2085.0,2108.0,54.0,0.0,
2096.0,2121.0,54.0,0.0,
2104.0,2119.0,54.0,0.0,
2096.0,2116.0,54.0,0.0,
2099.0,2107.0,54.0,0.0,
2080.0,2101.0,54.0,0.0,
2073.0,2101.0,54.0,0.0,
2063.0,2118.0,54.0,0.0,
2067.0,2114.0,54.0,0.0,
2084.0,2068.0,54.0,0.0,
2077.0,2114.0,54.0,0.0,
2077.0,2114.0,54.0,0.0,
2100.0,2128.0,54.0,0.0,
2095.0,2100.0,54.0,0.0,
2075.0,2095.0,55.0,0.0,
2072.0,2095.0,54.0,0.0,
2049.0,2084.0,54.0,0.0,
2082.0,2117.0,54.0,0.0,
2073.0,2098.0,54.0,0.0,
2099.0,2114.0,54.0,0.0,
2073.0,2121.0,54.0,0.0,
2097.0,2090.0,54.0,0.0,
2107.0,2106.0,54.0,0.0,
2075.0,2104.0,54.0,0.0,
2080.0,2110.0,54.0,0.0,
2073.0,2104.0,54.0,0.0,
2082.0,2113.0,54.0,0.0,
2083.0,2088.0,54.0,0.0,
2088.0,2107.0,54.0,0.0,
2088.0,2111.0,54.0,0.0,
2098.0,2118.0,54.0,0.0,
2076.0,2124.0,54.0,0.0,
2074.0,2110.0,54.0,0.0,
2070.0,2108.0,54.0,0.0,
2069.0,2123.0,53.0,0.0,
2070.0,2118.0,53.0,0.0,
2076.0,2115.0,53.0,0.0,
2087.0,2116.0,53.0,0.0,
2096.0,2112.0,54.0,0.0,
2093.0,2101.0,54.0,0.0,
2105.0,2111.0,53.0,0.0,
2077.0,2105.0,54.0,0.0,
2087.0,2102.0,54.0,0.0,
2071.0,2113.0,54.0,0.0,
2072.0,2114.0,54.0,0.0,
2081.0,2116.0,54.0,0.0,
2082.0,2118.0,54.0,0.0,
2090.0,2101.0,54.0,0.0,
2081.0,2118.0,54.0,0.0,
2058.0,2112.0,54.0,0.0,
2074.0,2093.0,54.0,0.0,
2070.0,2100.0,54.0,0.0,
2085.0,2116.0,54.0,0.0,
2072.0,2121.0,54.0,0.0,
2090.0,2115.0,54.0,0.0,
2091.0,2120.0,54.0,0.0,
2089.0,2112.0,54.0,0.0,
2083.0,2119.0,54.0,0.0,
2089.0,2106.0,54.0,0.0,
2060.0,2097.0,54.0,0.0,
2070.0,2084.0,54.0,0.0,
2085.0,2110.0,55.0,0.0,
2109.0,2120.0,55.0,0.0,
2112.0,2125.0,55.0,0.0,
2127.0,2103.0,55.0,0.0,
2114.0,2099.0,55.0,0.0,
2096.0,2088.0,55.0,0.0,
2092.0,2111.0,55.0,0.0,
2061.0,2098.0,55.0,0.0,
2081.0,2100.0,55.0,0.0,
2092.0,2115.0,55.0,0.0,
2077.0,2110.0,55.0,0.0,
2104.0,2116.0,55.0,0.0,
2098.0,2118.0,54.0,0.0,
2092.0,2119.0,54.0,0.0,
2081.0,2110.0,54.0,0.0,
2075.0,2114.0,54.0,0.0,
2071.0,2113.0,54.0,0.0,
2063.0,2116.0,54.0,0.0,
2081.0,2112.0,54.0,0.0,
2079.0,2128.0,54.0,0.0,
2076.0,2140.0,54.0,0.0,
2094.0,2087.0,54.0,0.0,
2094.0,2120.0,54.0,0.0,
2082.0,2119.0,54.0,0.0,
2074.0,2049.0,54.0,0.0,
2062.0,2120.0,54.0,0.0,
2078.0,2143.0,54.0,0.0,
2069.0,2078.0,54.0,0.0,
2082.0,2085.0,54.0,0.0,
2082.0,2084.0,54.0,0.0,
2088.0,2122.0,54.0,0.0,
2086.0,2124.0,54.0,0.0,
2085.0,2052.0,54.0,0.0,
2076.0,2101.0,53.0,0.0,
2073.0,2101.0,53.0,0.0,
2076.0,2118.0,53.0,0.0,
2094.0,2124.0,53.0,0.0,
2096.0,2108.0,53.0,0.0,
2107.0,2111.0,53.0,0.0,
2097.0,2104.0,53.0,0.0,
2077.0,2107.0,53.0,0.0,
2092.0,2111.0,53.0,0.0,
2071.0,2127.0,53.0,0.0,
2078.0,2115.0,53.0,0.0,
2079.0,2120.0,53.0,0.0,
2085.0,2120.0,53.0,0.0,
2092.0,2118.0,53.0,0.0,
2096.0,2106.0,53.0,0.0,
2085.0,2104.0,53.0,0.0,
2072.0,2107.0,53.0,0.0,
2062.0,2102.0,53.0,0.0,
2079.0,2112.0,53.0,0.0,
2082.0,2117.0,53.0,0.0,
2101.0,2129.0,53.0,0.0,
2098.0,2123.0,53.0,0.0,
2095.0,2111.0,53.0,0.0,
2102.0,2110.0,53.0,0.0,
2078.0,2105.0,53.0,0.0,
2087.0,2100.0,54.0,0.0,
2074.0,2100.0,54.0,0.0,
2081.0,2118.0,54.0,0.0,
2076.0,2105.0,54.0,0.0,
2079.0,2119.0,54.0,0.0,
2094.0,2109.0,54.0,0.0,
2097.0,2126.0,54.0,0.0,
2094.0,2116.0,54.0,0.0,
2092.0,2125.0,54.0,0.0,
2070.0,2078.0,54.0,0.0,
2066.0,2101.0,54.0,0.0,
2070.0,2117.0,54.0,0.0,
2080.0,2121.0,54.0,0.0,
2082.0,2100.0,54.0,0.0,
2078.0,2116.0,54.0,0.0,
2071.0,2113.0,54.0,0.0,
2078.0,2099.0,54.0,0.0,
2060.0,2101.0,54.0,0.0,
2081.0,2106.0,54.0,0.0,
2068.0,2114.0,54.0,0.0,
2064.0,2110.0,54.0,0.0,
2076.0,2107.0,54.0,0.0,
2085.0,2125.0,54.0,0.0,
2088.0,2108.0,54.0,0.0,
2083.0,2076.0,54.0,0.0,
2096.0,2088.0,54.0,0.0,
2074.0,2098.0,54.0,0.0,
2101.0,2107.0,54.0,0.0,
2083.0,2113.0,54.0,0.0,
2102.0,2110.0,54.0,0.0,
2084.0,2120.0,54.0,0.0,
2103.0,2124.0,54.0,0.0,
2101.0,2122.0,54.0,0.0,
2104.0,2124.0,54.0,0.0,
2093.0,2116.0,54.0,0.0,
2067.0,2101.0,54.0,0.0,
2053.0,2059.0,54.0,0.0,
2082.0,2108.0,54.0,0.0,
2089.0,2106.0,54.0,0.0,
2089.0,2111.0,54.0,0.0,
2081.0,2112.0,54.0,0.0,
2101.0,2104.0,54.0,0.0,
2094.0,2106.0,54.0,0.0,
2081.0,2124.0,54.0,0.0,
2080.0,2099.0,54.0,0.0,
2061.0,2109.0,54.0,0.0,
2066.0,2101.0,54.0,0.0,
2086.0,2115.0,54.0,0.0,
2073.0,2110.0,54.0,0.0,
2086.0,2113.0,54.0,0.0,
2083.0,2115.0,54.0,0.0,
2075.0,2086.0,54.0,0.0,
2057.0,2116.0,54.0,0.0,
2048.0,2113.0,54.0,0.0,
2075.0,2099.0,54.0,0.0,
2047.0,2117.0,54.0,0.0,
2015.0,2113.0,54.0,0.0,
2119.0,2138.0,54.0,0.0,
2143.0,2187.0,54.0,0.0,
2087.0,2130.0,54.0,0.0,
2083.0,2042.0,54.0,0.0,
2126.0,2027.0,54.0,0.0,
2102.0,2014.0,54.0,0.0,
2089.0,2088.0,54.0,0.0,
2075.0,2152.0,54.0,0.0,
2077.0,2165.0,54.0,0.0,
2047.0,2153.0,54.0,0.0,
2056.0,2089.0,54.0,0.0,
2138.0,2100.0,54.0,0.0,
2073.0,2107.0,54.0,0.0,
2047.0,2048.0,54.0,0.0,
2052.0,2086.0,54.0,0.0,
2030.0,2080.0,54.0,0.0,
2028.0,2096.0,54.0,0.0,
2115.0,2164.0,54.0,0.0,
2201.0,2263.0,54.0,0.0,
2092.0,2252.0,54.0,0.0,
2072.0,2207.0,54.0,0.0,
2115.0,2026.0,54.0,0.0,
2095.0,1943.0,54.0,0.0,
2113.0,1981.0,54.0,0.0,
2097.0,1992.0,54.0,0.0,
2046.0,1978.0,54.0,0.0,
2085.0,1998.0,54.0,0.0,
2151.0,2163.0,54.0,0.0,
2079.0,2256.0,54.0,0.0,
2042.0,2304.0,54.0,0.0,
2045.0,2181.0,54.0,0.0,
2064.0,2071.0,54.0,-1.0,
2122.0,2428.0,54.0,-1.0,
2102.0,2502.0,54.0,-1.0,
2110.0,2389.0,54.0,-1.0,
2119.0,2143.0,54.0,0.0,
2091.0,1923.0,54.0,0.0,
2063.0,1815.0,54.0,0.0,
2040.0,1812.0,54.0,0.0,
1983.0,1896.0,54.0,0.0,
2058.0,1907.0,54.0,0.0,
2069.0,1948.0,54.0,0.0,
2096.0,2074.0,54.0,0.0,
2069.0,2083.0,54.0,0.0,
2094.0,2098.0,54.0,0.0,
2080.0,2195.0,54.0,0.0,
2111.0,2200.0,54.0,0.0,
2071.0,2234.0,54.0,0.0,
2090.0,2439.0,54.0,0.0,
2098.0,2447.0,54.0,0.0,
2106.0,1946.0,54.0,0.0,
2072.0,1867.0,54.0,0.0,
2087.0,1893.0,54.0,-1.0,
2109.0,1824.0,54.0,0.0,
2098.0,2130.0,54.0,0.0,
2021.0,2252.0,54.0,0.0,
2091.0,2303.0,54.0,0.0,
2084.0,2138.0,54.0,0.0,
2118.0,1827.0,55.0,0.0,
2111.0,1800.0,55.0,0.0,
2090.0,2169.0,55.0,0.0,
2122.0,2314.0,55.0,0.0,
2051.0,2166.0,55.0,0.0,
2023.0,2105.0,55.0,0.0,
2117.0,2227.0,55.0,0.0,
2079.0,2498.0,55.0,0.0,
2045.0,2383.0,55.0,0.0,
2072.0,2199.0,55.0,0.0,
2049.0,1972.0,55.0,0.0,
2141.0,1675.0,54.0,0.0,
2173.0,1766.0,54.0,0.0,
2150.0,2290.0,54.0,0.0,
2139.0,2474.0,54.0,0.0,
2160.0,2244.0,55.0,0.0,
2091.0,1854.0,55.0,0.0,
2087.0,1761.0,55.0,0.0,
2122.0,2044.0,55.0,0.0,
2093.0,2253.0,54.0,0.0,
2075.0,2235.0,54.0,0.0,
2123.0,2189.0,55.0,0.0,
2060.0,1945.0,55.0,-1.0,
2047.0,1965.0,55.0,-1.0,
2026.0,2388.0,54.0,-1.0,
2056.0,2584.0,54.0,0.0,
2061.0,2360.0,54.0,0.0,
2077.0,1883.0,54.0,0.0,
2093.0,1759.0,54.0,-1.0,
2048.0,1719.0,54.0,0.0,
2125.0,2012.0,53.0,0.0,
2162.0,2182.0,53.0,-1.0,
2071.0,2160.0,53.0,0.0,
2063.0,2204.0,52.0,0.0,
2095.0,2147.0,52.0,0.0,
2097.0,2110.0,52.0,0.0,
2096.0,2235.0,52.0,0.0,
2036.0,2066.0,52.0,0.0,
2095.0,2188.0,51.0,0.0,
2070.0,2140.0,51.0,0.0,
2044.0,2215.0,50.0,0.0,
2047.0,2134.0,50.0,1.0,
2038.0,2181.0,49.0,1.0,
2061.0,2285.0,49.0,1.0,
2039.0,2221.0,48.0,2.0,
2046.0,1931.0,48.0,2.0,
2073.0,1923.0,48.0,2.0,
2092.0,2096.0,47.0,2.0,
2191.0,2241.0,46.0,2.0,
2163.0,2145.0,46.0,3.0,
2152.0,1953.0,45.0,3.0,
2126.0,1636.0,44.0,3.0,
2064.0,1992.0,44.0,3.0,
2107.0,2309.0,43.0,3.0,
2102.0,2313.0,43.0,3.0,
2063.0,2077.0,42.0,3.0,
2070.0,2163.0,41.0,3.0,
2082.0,2227.0,41.0,4.0,
2108.0,2204.0,41.0,3.0,
2164.0,2237.0,40.0,3.0,
2111.0,2132.0,40.0,4.0,
2101.0,2041.0,39.0,4.0,
2050.0,1856.0,39.0,4.0,
2064.0,2124.0,39.0,4.0,
2089.0,2254.0,39.0,4.0,
2115.0,2085.0,38.0,4.0,
2140.0,1923.0,38.0,4.0,
2120.0,1873.0,38.0,4.0,
2057.0,1862.0,38.0,4.0,
2087.0,2108.0,38.0,4.0,
2084.0,2211.0,38.0,4.0,
2096.0,2341.0,37.0,4.0,
2071.0,2203.0,37.0,3.0,
2075.0,2096.0,37.0,3.0,
2024.0,2062.0,37.0,3.0,
2047.0,2150.0,37.0,4.0,
2098.0,2213.0,37.0,4.0,
2075.0,2142.0,37.0,4.0,
2071.0,2155.0,36.0,4.0,
2044.0,2060.0,36.0,4.0,
2022.0,1946.0,36.0,4.0,
2062.0,2195.0,37.0,4.0,
2051.0,2120.0,37.0,4.0,
2039.0,1993.0,37.0,4.0,
2064.0,2132.0,36.0,4.0,
2052.0,2195.0,37.0,4.0,
2080.0,2192.0,37.0,4.0,
2212.0,2235.0,37.0,4.0,
2126.0,2186.0,37.0,4.0,
2108.0,2145.0,37.0,4.0,
2087.0,2037.0,38.0,4.0,
2117.0,2182.0,38.0,4.0,
2103.0,2196.0,38.0,4.0,
2154.0,2201.0,39.0,4.0,
2096.0,1941.0,39.0,4.0,
2087.0,1815.0,40.0,4.0,
2069.0,1986.0,40.0,4.0,
2036.0,2045.0,40.0,4.0,
2156.0,2172.0,41.0,4.0,
2079.0,2127.0,41.0,4.0,
2076.0,2092.0,41.0,4.0,
2138.0,2131.0,41.0,4.0,
2107.0,2131.0,41.0,4.0,
2091.0,2147.0,41.0,5.0,
2042.0,2189.0,41.0,5.0,
2108.0,2193.0,41.0,5.0,
2092.0,2095.0,40.0,5.0,
2108.0,2107.0,40.0,5.0,
2117.0,2158.0,40.0,5.0,
2062.0,2172.0,39.0,6.0,
2041.0,2234.0,38.0,6.0,
2026.0,2188.0,38.0,6.0,
1983.0,2083.0,37.0,6.0,
2018.0,2016.0,36.0,6.0,
2031.0,2054.0,35.0,6.0,
2055.0,2032.0,34.0,7.0,
2036.0,2015.0,33.0,7.0,
2048.0,2049.0,32.0,7.0,
2027.0,2090.0,31.0,7.0,
2263.0,2088.0,30.0,8.0,
2105.0,2105.0,29.0,8.0,
2031.0,1974.0,27.0,7.0,
2129.0,2144.0,26.0,7.0,
2149.0,2307.0,26.0,7.0,
2076.0,2170.0,25.0,8.0,
2107.0,2160.0,25.0,7.0,
2108.0,2081.0,24.0,7.0,
2181.0,2009.0,24.0,7.0,
2083.0,1982.0,24.0,6.0,
2095.0,1915.0,24.0,6.0,
2069.0,2269.0,24.0,5.0,
2094.0,2321.0,25.0,5.0,
2091.0,2286.0,25.0,6.0,
2093.0,2239.0,25.0,5.0,
2136.0,1849.0,25.0,5.0,
2053.0,1797.0,25.0,5.0,
2130.0,2119.0,26.0,4.0,
2087.0,2124.0,26.0,4.0,
2052.0,2103.0,27.0,4.0,
2021.0,2165.0,27.0,4.0,
2135.0,2322.0,28.0,4.0,
2056.0,1966.0,29.0,4.0,
2099.0,1844.0,29.0,4.0,
2096.0,2145.0,30.0,4.0,
2076.0,2279.0,31.0,4.0,
2072.0,2266.0,32.0,4.0,
2089.0,2160.0,32.0,4.0,
2146.0,2110.0,32.0,4.0,
2094.0,2094.0,33.0,4.0,
2042.0,2372.0,33.0,4.0,
2082.0,2338.0,33.0,5.0,
2106.0,2232.0,32.0,5.0,
2081.0,1857.0,32.0,5.0,
2090.0,1854.0,31.0,4.0,
2093.0,2035.0,31.0,4.0,
2065.0,2102.0,30.0,4.0,
2052.0,2114.0,29.0,5.0,
2026.0,2151.0,28.0,5.0,
2109.0,2218.0,27.0,5.0,
2102.0,2118.0,26.0,5.0,
2060.0,2134.0,24.0,5.0,
2044.0,2097.0,23.0,6.0,
2034.0,2105.0,21.0,6.0,
2093.0,2132.0,19.0,6.0,
2067.0,2108.0,18.0,6.0,
2122.0,2097.0,17.0,7.0,
2131.0,2061.0,15.0,7.0,
2135.0,2124.0,14.0,8.0,
2131.0,2165.0,13.0,8.0,
2055.0,2116.0,12.0,8.0,
2024.0,2056.0,11.0,8.0,
2049.0,2065.0,10.0,8.0,
2161.0,2211.0,9.0,9.0,
2165.0,2270.0,9.0,9.0,
2037.0,2067.0,9.0,9.0,
2064.0,1962.0,8.0,9.0,
2078.0,2013.0,8.0,9.0,
2022.0,1967.0,9.0,9.0,
2236.0,2258.0,9.0,9.0,
2196.0,2096.0,10.0,9.0,
2071.0,2190.0,11.0,9.0,
2014.0,2249.0,12.0,9.0,
1999.0,2217.0,13.0,9.0,
1998.0,2118.0,14.0,9.0,
2019.0,1907.0,16.0,8.0,
2106.0,1855.0,17.0,8.0,
2035.0,2010.0,18.0,8.0,
2164.0,2265.0,20.0,8.0,
2287.0,2379.0,21.0,8.0,
2175.0,2389.0,22.0,8.0,
2022.0,2482.0,24.0,8.0,
2027.0,1681.0,25.0,8.0,
2060.0,1829.0,26.0,8.0,
2166.0,1879.0,26.0,7.0,
2094.0,1891.0,27.0,7.0,
2073.0,2037.0,27.0,7.0,
2110.0,2238.0,28.0,7.0,
2162.0,2338.0,28.0,7.0,
2039.0,2222.0,28.0,7.0,
1983.0,1959.0,28.0,7.0,
2096.0,2196.0,27.0,7.0,
2111.0,2225.0,27.0,7.0,
2103.0,2016.0,26.0,7.0,
2169.0,2094.0,25.0,7.0,
2026.0,2151.0,25.0,7.0,
2022.0,1970.0,23.0,7.0,
1963.0,2031.0,22.0,7.0,
2125.0,2153.0,21.0,8.0,
2109.0,2111.0,19.0,8.0,
2110.0,2193.0,18.0,8.0,
2119.0,2162.0,16.0,8.0,
2041.0,2138.0,15.0,8.0,
1976.0,2100.0,13.0,8.0,
2085.0,1994.0,12.0,8.0,
2057.0,2145.0,10.0,9.0,
2106.0,2162.0,9.0,9.0,
1961.0,2200.0,8.0,9.0,
1892.0,2153.0,7.0,8.0,
2234.0,2260.0,6.0,8.0,
2293.0,2177.0,6.0,8.0,
2164.0,1895.0,5.0,8.0,
1991.0,1975.0,5.0,9.0,
1974.0,2068.0,5.0,9.0,
2000.0,2138.0,5.0,9.0,
2007.0,2142.0,5.0,9.0,
2218.0,2279.0,6.0,9.0,
2233.0,2178.0,7.0,9.0,
2206.0,2038.0,8.0,9.0,
2102.0,2284.0,9.0,9.0,
2162.0,2495.0,10.0,9.0,
2184.0,2057.0,11.0,9.0,
2200.0,1810.0,12.0,9.0,
1970.0,1925.0,13.0,9.0,
2006.0,1981.0,14.0,8.0,
2067.0,2073.0,15.0,8.0,
2071.0,2039.0,16.0,8.0,
2163.0,2522.0,17.0,8.0,
2244.0,2622.0,18.0,8.0,
2047.0,2032.0,18.0,7.0,
1991.0,1562.0,18.0,7.0,
1965.0,1315.0,19.0,7.0,
2129.0,1938.0,19.0,7.0,
2063.0,2076.0,19.0,7.0,
2174.0,2375.0,19.0,7.0,
2038.0,2219.0,18.0,7.0,
2060.0,2301.0,18.0,7.0,
2095.0,2185.0,17.0,7.0,
2124.0,2131.0,17.0,7.0,
1997.0,2108.0,16.0,7.0,
1916.0,2247.0,16.0,7.0,
2069.0,2199.0,15.0,7.0,
2127.0,2204.0,14.0,7.0,
2114.0,2131.0,14.0,7.0,
2105.0,1978.0,13.0,7.0,
2168.0,2127.0,12.0,8.0,
2132.0,1989.0,11.0,8.0,
2024.0,2231.0,10.0,8.0,
2028.0,2367.0,10.0,8.0,
2110.0,1911.0,9.0,8.0,
2014.0,2040.0,8.0,8.0,
2056.0,2039.0,7.0,8.0,
2181.0,2189.0,6.0,8.0,
2126.0,2095.0,5.0,8.0,
2097.0,2266.0,5.0,8.0,
1864.0,2013.0,4.0,9.0,
1786.0,2128.0,4.0,9.0,
2244.0,2206.0,3.0,9.0,
2338.0,2015.0,3.0,9.0,
2142.0,2000.0,3.0,9.0,
2150.0,2138.0,3.0,9.0,
2141.0,2105.0,3.0,9.0,
2147.0,1914.0,3.0,9.0,
2001.0,2084.0,3.0,9.0,
1956.0,2279.0,3.0,9.0,
2084.0,2362.0,3.0,9.0,
2046.0,1954.0,4.0,9.0,
1986.0,1801.0,4.0,9.0,
2186.0,1994.0,4.0,9.0,
2065.0,1991.0,5.0,9.0,
2225.0,2033.0,5.0,9.0,
2172.0,2088.0,6.0,9.0,
2134.0,2085.0,6.0,9.0,
2041.0,2076.0,7.0,9.0,
1868.0,2191.0,7.0,9.0,
2033.0,2236.0,7.0,9.0,
2107.0,2321.0,8.0,9.0,
2204.0,2178.0,8.0,9.0,
2114.0,2132.0,8.0,9.0,
2154.0,2313.0,9.0,9.0,
2260.0,2471.0,9.0,9.0,
2023.0,1868.0,9.0,9.0,
1889.0,1947.0,9.0,9.0,
2106.0,1912.0,9.0,9.0,
2032.0,2174.0,9.0,9.0,
2130.0,2486.0,9.0,9.0,
2181.0,2151.0,9.0,9.0,
2217.0,1617.0,8.0,9.0,
2076.0,2068.0,8.0,9.0,
2075.0,2264.0,8.0,9.0,
1941.0,1432.0,7.0,9.0,
1987.0,1986.0,7.0,9.0,
1978.0,2126.0,7.0,9.0,
2037.0,2419.0,6.0,9.0,
2109.0,2178.0,6.0,9.0,
2203.0,2081.0,6.0,9.0,
2149.0,1966.0,5.0,9.0,
2103.0,2063.0,5.0,9.0,
1926.0,2214.0,5.0,9.0,
1879.0,2211.0,4.0,9.0,
2331.0,2120.0,4.0,9.0,
2024.0,2093.0,3.0,9.0,
2099.0,2134.0,3.0,9.0,
2117.0,2259.0,3.0,9.0,
1996.0,2202.0,2.0,9.0,
2071.0,2004.0,2.0,9.0,
2064.0,2194.0,2.0,9.0,
2005.0,2212.0,2.0,9.0,
2217.0,2227.0,2.0,9.0,
2141.0,2214.0,2.0,9.0,
2136.0,2006.0,2.0,9.0,
2020.0,2112.0,2.0,9.0,
1866.0,1995.0,2.0,9.0,
1968.0,1976.0,2.0,9.0,
2198.0,2105.0,2.0,9.0,
2258.0,2109.0,2.0,9.0,
2284.0,2176.0,2.0,9.0,
2117.0,2142.0,2.0,9.0,
2169.0,1899.0,2.0,9.0,
2037.0,2123.0,3.0,9.0,
2079.0,2276.0,3.0,9.0,
1775.0,1875.0,3.0,9.0,
1985.0,2196.0,3.0,9.0,
2156.0,2144.0,4.0,9.0,
2101.0,2242.0,4.0,9.0,
2119.0,2081.0,4.0,9.0,
2130.0,2343.0,4.0,9.0,
2276.0,2266.0,4.0,9.0,
2184.0,2046.0,4.0,9.0,
2118.0,1846.0,4.0,9.0,
2112.0,2096.0,4.0,9.0,
2104.0,2241.0,4.0,9.0,
2109.0,2347.0,4.0,9.0,
2188.0,1944.0,4.0,9.0,
2093.0,1704.0,4.0,9.0,
2001.0,1586.0,4.0,9.0,
1978.0,1537.0,4.0,9.0,
1998.0,1913.0,4.0,9.0,
2085.0,2371.0,3.0,9.0,
2063.0,2321.0,3.0,9.0,
1923.0,2530.0,3.0,9.0,
2114.0,2647.0,2.0,9.0,
1912.0,2321.0,2.0,9.0,
2173.0,2084.0,2.0,9.0,
2017.0,1838.0,1.0,9.0,
2186.0,2181.0,1.0,8.0,
2126.0,2261.0,1.0,8.0,
1989.0,2124.0,0.0,8.0,
1987.0,2146.0,0.0,8.0,
2096.0,1775.0,0.0,8.0,
1894.0,2056.0,0.0,8.0,
2217.0,2186.0,0.0,8.0,
2057.0,2441.0,0.0,8.0,
2100.0,2692.0,0.0,8.0,
2259.0,2589.0,0.0,8.0,
2340.0,1762.0,0.0,9.0,
2229.0,1401.0,0.0,9.0,
2095.0,1689.0,0.0,9.0,
1968.0,1955.0,0.0,9.0,
2046.0,2009.0,0.0,9.0,
1912.0,2194.0,0.0,9.0,
2018.0,2088.0,0.0,9.0,
2227.0,2185.0,0.0,9.0,
2129.0,2191.0,0.0,9.0,
2315.0,1887.0,0.0,9.0,
2070.0,2113.0,0.0,9.0,
1998.0,2153.0,0.0,9.0,
2022.0,2217.0,0.0,9.0,
2065.0,2075.0,0.0,10.0,
1947.0,2074.0,0.0,10.0,
2139.0,2267.0,0.0,10.0,
2087.0,2470.0,0.0,10.0,
2138.0,2209.0,0.0,10.0,
2244.0,2273.0,0.0,10.0,
2221.0,2325.0,0.0,10.0,
2138.0,1864.0,0.0,10.0,
2011.0,1865.0,0.0,10.0,
1865.0,2030.0,0.0,10.0,
1931.0,2198.0,0.0,10.0,
1985.0,2301.0,-1.0,10.0,
2047.0,2358.0,-1.0,10.0,
2180.0,2091.0,-1.0,10.0,
2208.0,2179.0,-1.0,10.0,
2091.0,2243.0,-1.0,10.0,
2010.0,1539.0,-1.0,10.0,
2067.0,1854.0,-1.0,10.0,
2182.0,2210.0,-1.0,10.0,
2048.0,2062.0,-1.0,10.0,
2091.0,2195.0,-1.0,10.0,
2163.0,2018.0,-1.0,10.0,
2098.0,2043.0,-2.0,10.0,
2035.0,1773.0,-2.0,10.0,
2057.0,2069.0,-2.0,9.0,
2156.0,1987.0,-2.0,9.0,
2092.0,2296.0,-2.0,9.0,
2015.0,2417.0,-2.0,9.0,
1996.0,2487.0,-2.0,9.0,
1998.0,1763.0,-2.0,9.0,
2167.0,1789.0,-2.0,9.0,
2203.0,1852.0,-2.0,9.0,
2027.0,2177.0,-2.0,10.0,
2037.0,2240.0,-2.0,10.0,
2076.0,2336.0,-2.0,10.0,
2030.0,2371.0,-2.0,10.0,
2164.0,2236.0,-3.0,10.0,
2030.0,2156.0,-2.0,10.0,
2000.0,2195.0,-3.0,10.0,
2125.0,2151.0,-3.0,10.0,
1950.0,1880.0,-3.0,10.0,
2239.0,2188.0,-3.0,10.0,
2056.0,2346.0,-3.0,10.0,
2015.0,2447.0,-3.0,10.0,
2133.0,2325.0,-3.0,10.0,
1812.0,1728.0,-3.0,10.0,
1906.0,1839.0,-3.0,10.0,
2409.0,1991.0,-2.0,10.0,
2147.0,1961.0,-2.0,10.0,
2219.0,2036.0,-2.0,10.0,
2281.0,2078.0,-1.0,10.0,
2037.0,2095.0,-1.0,10.0,
2036.0,2172.0,0,
1937.0,2268.0,-1.0,10.0,
2215.0,2198.0,-1.0,10.0,
2177.0,2088.0,0.0,9.0,
2075.0,2039.0,0.0,9.0,
2106.0,1975.0,0.0,9.0,
2092.0,2197.0,-1.0,10.0,
2104.0,2165.0,-1.0,10.0,
2004.0,1991.0,-1.0,9.0,
2138.0,2100.0,-1.0,9.0,
2022.0,2215.0,-1.0,9.0,
2197.0,2411.0,-1.0,9.0,
2294.0,2452.0,-1.0,9.0,
2020.0,2186.0,-1.0,9.0,
1898.0,2030.0,-2.0,9.0,
2129.0,1994.0,-2.0,9.0,
2193.0,1808.0,-2.0,8.0,
1925.0,1542.0,-2.0,8.0,
1841.0,1833.0,-3.0,8.0,
1879.0,2569.0,-3.0,9.0,
2016.0,2805.0,-4.0,9.0,
2032.0,2345.0,-4.0,9.0,
2250.0,2259.0,-4.0,9.0,
2061.0,1182.0,-4.0,9.0,
2082.0,2004.0,-4.0,9.0,
2017.0,2160.0,-4.0,9.0,
2126.0,2038.0,-4.0,9.0,
2069.0,1846.0,-4.0,9.0,
1876.0,2206.0,-4.0,10.0,
2271.0,2456.0,-5.0,10.0,
2376.0,2325.0,-4.0,9.0,
2168.0,1876.0,-4.0,10.0,
2182.0,1971.0,-4.0,10.0,
2190.0,1727.0,-4.0,10.0,
2057.0,2099.0,-4.0,10.0,
2000.0,2352.0,-4.0,10.0,
2123.0,2365.0,-4.0,10.0,
2133.0,2227.0,-3.0,10.0,
1948.0,1745.0,-3.0,9.0,
2012.0,1986.0,-2.0,9.0,
1783.0,2268.0,-2.0,10.0,
2069.0,2282.0,-1.0,10.0,
2384.0,2248.0,-1.0,10.0,
2314.0,2324.0,-1.0,10.0,
2266.0,2192.0,-1.0,10.0,
2183.0,2234.0,-1.0,10.0,
2047.0,2179.0,-1.0,10.0,
2027.0,2036.0,-1.0,10.0,
1867.0,1915.0,-2.0,10.0,
1672.0,1845.0,-2.0,11.0,
2087.0,2238.0,-2.0,11.0,
2203.0,2396.0,-3.0,11.0,
2298.0,2488.0,-3.0,10.0,
2421.0,2087.0,-4.0,10.0,
2215.0,1987.0,-4.0,10.0,
2224.0,1582.0,-4.0,10.0,
2064.0,1960.0,-5.0,10.0,
2041.0,2151.0,-5.0,10.0,
1926.0,1890.0,-6.0,10.0,
1661.0,2111.0,-6.0,10.0,
1955.0,2236.0,-5.0,10.0,
2314.0,2044.0,-5.0,10.0,
2218.0,2327.0,-4.0,10.0,
2122.0,2038.0,-4.0,10.0,
2142.0,2313.0,-4.0,10.0,
2082.0,2292.0,-5.0,10.0,
1842.0,1707.0,-5.0,11.0,
1930.0,2029.0,-5.0,11.0,
1602.0,2001.0,-5.0,11.0,
1907.0,2324.0,-6.0,11.0,
2233.0,2003.0,-6.0,10.0,
2404.0,1914.0,-7.0,10.0,
2350.0,2178.0,-7.0,10.0,
2303.0,2262.0,-8.0,10.0,
2419.0,2040.0,-8.0,10.0,
2204.0,2031.0,-7.0,10.0,
1827.0,1975.0,-7.0,10.0,
1833.0,2069.0,-7.0,10.0,
2271.0,2236.0,-6.0,10.0,
1980.0,2075.0,-6.0,10.0,
2025.0,1997.0,-6.0,11.0,
2125.0,2259.0,-6.0,11.0,
2177.0,2441.0,-6.0,12.0,
2256.0,2307.0,-6.0,11.0,
1820.0,2126.0,-6.0,11.0,
2054.0,1906.0,-5.0,11.0,
1892.0,2014.0,-5.0,11.0,
1797.0,2002.0,-5.0,11.0,
2009.0,2036.0,-5.0,11.0,
2090.0,2382.0,-5.0,11.0,
2301.0,2166.0,-5.0,11.0,
2458.0,2330.0,-5.0,11.0,
2152.0,1907.0,-5.0,10.0,
1919.0,1798.0,-5.0,11.0,
1929.0,1922.0,-6.0,11.0,
2313.0,2169.0,-6.0,11.0,
1927.0,2182.0,-6.0,11.0,
2127.0,2401.0,-6.0,11.0,
2333.0,2586.0,-6.0,11.0,
2378.0,2171.0,-6.0,11.0,
2145.0,1794.0,-6.0,11.0,
2052.0,1782.0,-6.0,11.0,
1985.0,1899.0,-6.0,11.0,
1978.0,2091.0,-6.0,11.0,
1947.0,2165.0,-6.0,11.0,
1858.0,2188.0,-6.0,11.0,
1748.0,1877.0,-6.0,11.0,
2171.0,2122.0,-6.0,10.0,
2255.0,2201.0,-6.0,10.0,
2094.0,2128.0,-6.0,11.0,
2074.0,2211.0,-6.0,11.0,
2042.0,2274.0,-6.0,11.0,
2274.0,2212.0,-6.0,10.0,
2206.0,2140.0,0,
2029.0,2121.0,-6.0,10.0,
1905.0,2090.0,-6.0,10.0,
1682.0,2079.0,-7.0,11.0,
2120.0,2280.0,-7.0,11.0,
2421.0,1919.0,-7.0,11.0,
2249.0,1893.0,-7.0,11.0,
2275.0,2305.0,-7.0,10.0,
2205.0,2468.0,-7.0,10.0,
2237.0,2411.0,-7.0,10.0,
1945.0,2111.0,-8.0,10.0,
2020.0,1956.0,-8.0,10.0,
2001.0,1829.0,-8.0,10.0,
1755.0,1474.0,-8.0,10.0,
1822.0,1661.0,-8.0,10.0,
2211.0,2209.0,-7.0,9.0,
2474.0,2408.0,-7.0,9.0,
2220.0,2102.0,-7.0,9.0,
2216.0,2286.0,-7.0,9.0,
2074.0,2337.0,-7.0,10.0,
1981.0,2472.0,-7.0,9.0,
1684.0,2181.0,-7.0,9.0,
1925.0,2072.0,-7.0,9.0,
2246.0,2166.0,-7.0,9.0,
2257.0,1522.0,-7.0,10.0,
2395.0,1684.0,-7.0,10.0,
2094.0,2006.0,-6.0,10.0,
2086.0,2042.0,-6.0,10.0,
2000.0,1977.0,-6.0,10.0,
1899.0,2074.0,-6.0,11.0,
1619.0,2129.0,-7.0,10.0,
1653.0,2147.0,-6.0,10.0,
2178.0,2318.0,-6.0,10.0,
2430.0,2337.0,-6.0,10.0,
2281.0,2586.0,-7.0,10.0,
2339.0,2270.0,-7.0,10.0,
2427.0,2260.0,-7.0,10.0,
2281.0,2048.0,-7.0,10.0,
2264.0,2339.0,-7.0,10.0,
1803.0,1909.0,-7.0,10.0,
1775.0,1812.0,-7.0,10.0,
1540.0,1930.0,-7.0,10.0,
1786.0,2323.0,-7.0,10.0,
2281.0,2054.0,-7.0,10.0,
2255.0,2154.0,-7.0,10.0,
2463.0,2385.0,-7.0,10.0,
2373.0,2339.0,-7.0,10.0,
2223.0,2149.0,-6.0,10.0,
2181.0,1974.0,-6.0,10.0,
2160.0,2435.0,-6.0,10.0,
1747.0,1952.0,-6.0,10.0,
1527.0,1397.0,-6.0,10.0,
1455.0,1873.0,-6.0,10.0,
1893.0,1834.0,-5.0,10.0,
2484.0,1960.0,-5.0,10.0,
2755.0,1985.0,-5.0,9.0,
2483.0,2059.0,-5.0,9.0,
2303.0,2608.0,-5.0,9.0,
2147.0,2632.0,-5.0,9.0,
1957.0,2311.0,-6.0,10.0,
1561.0,2129.0,-6.0,10.0,
2004.0,2005.0,-6.0,10.0,
1901.0,2385.0,-7.0,10.0,
2242.0,1824.0,-7.0,10.0,
2327.0,2028.0,-7.0,9.0,
2280.0,2319.0,-7.0,9.0,
2312.0,2316.0,-7.0,9.0,
2019.0,1912.0,-8.0,9.0,
1862.0,1373.0,-8.0,9.0,
2047.0,1976.0,-8.0,9.0,
1955.0,1779.0,-8.0,9.0,
1546.0,2013.0,-8.0,9.0,
1391.0,2123.0,-8.0,9.0,
2003.0,2059.0,-8.0,10.0,
2484.0,2556.0,-9.0,11.0,
2547.0,2327.0,-9.0,11.0,
2400.0,2198.0,-9.0,11.0,
2395.0,2032.0,-9.0,11.0,
2227.0,2187.0,-9.0,11.0,
1980.0,1891.0,-9.0,11.0,
2103.0,2230.0,-9.0,11.0,
1600.0,2006.0,-9.0,11.0,
2109.0,2336.0,-9.0,11.0,
1974.0,2210.0,-9.0,11.0,
1931.0,2330.0,-8.0,11.0,
2271.0,2277.0,-8.0,11.0,
2339.0,2145.0,-9.0,11.0,
2059.0,2167.0,-9.0,11.0,
2162.0,2054.0,-9.0,12.0,
2033.0,1890.0,-9.0,12.0,
2061.0,1925.0,-9.0,11.0,
1722.0,2117.0,-9.0,11.0,
1612.0,1798.0,-9.0,11.0,
1696.0,2233.0,-9.0,11.0,
2388.0,2339.0,-10.0,11.0,
2434.0,2414.0,-10.0,11.0,
2520.0,2298.0,-10.0,11.0,
2340.0,2196.0,-10.0,11.0,
2026.0,1795.0,-9.0,11.0,
2332.0,1832.0,-9.0,11.0,
1755.0,1909.0,-9.0,11.0,
1881.0,2192.0,-9.0,11.0,
1823.0,2143.0,-9.0,11.0,
1880.0,2142.0,-9.0,11.0,
2232.0,1849.0,-9.0,11.0,
2213.0,2090.0,-9.0,11.0,
2669.0,2293.0,-8.0,11.0,
2366.0,2411.0,-8.0,10.0,
2130.0,2021.0,-8.0,10.0,
1580.0,1851.0,-8.0,10.0,
1896.0,1997.0,-7.0,10.0,
1820.0,1730.0,-7.0,10.0,
2166.0,2219.0,-7.0,9.0,
2410.0,2382.0,-7.0,9.0,
2208.0,1886.0,-7.0,9.0,
2178.0,2042.0,-7.0,9.0,
2349.0,2294.0,-7.0,9.0,
2258.0,2216.0,-7.0,9.0,
2075.0,2132.0,-7.0,9.0,
1812.0,1427.0,-7.0,9.0,
2022.0,2194.0,-7.0,9.0,
1598.0,2177.0,-7.0,9.0,
1967.0,2283.0,-7.0,9.0,
2009.0,1884.0,-7.0,9.0,
2151.0,2248.0,-7.0,9.0,
2281.0,2398.0,-8.0,9.0,
2242.0,2387.0,-8.0,10.0,
2065.0,2232.0,-8.0,10.0,
1996.0,1897.0,-9.0,10.0,
1925.0,1907.0,-9.0,10.0,
1437.0,1749.0,-10.0,10.0,
1470.0,2096.0,-10.0,9.0,
2249.0,2301.0,-10.0,9.0,
2787.0,2674.0,-11.0,9.0,
2592.0,2342.0,-11.0,10.0,
2506.0,2000.0,-11.0,10.0,
2329.0,1817.0,-11.0,10.0,
2214.0,2022.0,-11.0,10.0,
2131.0,2211.0,-11.0,10.0,
1906.0,2158.0,-10.0,10.0,
1687.0,1972.0,-10.0,11.0,
1584.0,1843.0,-10.0,11.0,
2144.0,1859.0,-10.0,11.0,
1822.0,2409.0,-10.0,11.0,
2375.0,2498.0,-9.0,10.0,
2296.0,1863.0,-8.0,10.0,
2370.0,2422.0,-7.0,10.0,
2144.0,1843.0,-7.0,10.0,
2057.0,1868.0,-7.0,10.0,
1944.0,2096.0,-7.0,11.0,
1581.0,1859.0,-7.0,11.0,
1657.0,1958.0,-7.0,11.0,
2187.0,2037.0,-7.0,11.0,
2109.0,2170.0,-7.0,11.0,
2391.0,1990.0,-7.0,12.0,
2452.0,2538.0,-8.0,12.0,
2499.0,2784.0,-9.0,12.0,
2332.0,1938.0,-9.0,12.0,
2078.0,1648.0,-10.0,11.0,
1995.0,1980.0,-9.0,11.0,
1917.0,2134.0,-9.0,10.0,
2035.0,2366.0,-9.0,10.0,
2054.0,2272.0,-9.0,10.0,
2024.0,2197.0,-9.0,10.0,
2106.0,2249.0,-8.0,10.0,
2038.0,2100.0,-8.0,10.0,
1998.0,1981.0,-8.0,10.0,
1840.0,1984.0,-8.0,10.0,
2026.0,2115.0,-8.0,10.0,
1599.0,2041.0,-8.0,10.0,
2086.0,2357.0,-9.0,10.0,
2275.0,2115.0,-9.0,10.0,
2198.0,2000.0,-9.0,10.0,
1936.0,1606.0,-10.0,10.0,
1895.0,1692.0,-10.0,10.0,
1989.0,2234.0,-10.0,10.0,
2468.0,2643.0,-11.0,10.0,
2572.0,2212.0,-11.0,11.0,
2371.0,1847.0,-11.0,11.0,
2234.0,1970.0,-11.0,11.0,
2181.0,2264.0,-11.0,11.0,
2099.0,2656.0,-11.0,11.0,
1795.0,2053.0,-11.0,11.0,
1573.0,1886.0,-11.0,12.0,
1566.0,1648.0,-11.0,11.0,
1837.0,2125.0,-11.0,11.0,
1862.0,2422.0,-10.0,11.0,
2550.0,2630.0,-10.0,11.0,
2442.0,2208.0,-10.0,10.0,
2452.0,2213.0,-10.0,10.0,
2405.0,2236.0,-10.0,10.0,
2015.0,1871.0,-9.0,10.0,
1875.0,1596.0,-9.0,10.0,
2284.0,2017.0,-9.0,10.0,
2216.0,2281.0,-9.0,10.0,
2028.0,2173.0,-8.0,10.0,
2144.0,2286.0,-8.0,10.0,
2252.0,2276.0,-8.0,10.0,
1980.0,2196.0,-8.0,10.0,
1957.0,2111.0,-8.0,10.0,
2043.0,2063.0,-8.0,10.0,
1861.0,2152.0,-8.0,10.0,
1939.0,2179.0,-8.0,10.0,
1850.0,2091.0,-8.0,10.0,
2009.0,2051.0,-8.0,10.0,
2002.0,1952.0,-9.0,10.0,
2294.0,2048.0,-9.0,10.0,
2274.0,2192.0,-9.0,10.0,
2254.0,1931.0,-10.0,10.0,
2035.0,1714.0,-10.0,11.0,
1881.0,1923.0,-10.0,11.0,
2170.0,2309.0,-10.0,11.0,
2393.0,2672.0,-10.0,11.0,
2194.0,2401.0,-10.0,11.0,
1828.0,1579.0,-10.0,11.0,
1749.0,1744.0,-10.0,12.0,
1973.0,2123.0,-10.0,12.0,
2298.0,2062.0,-10.0,12.0,
2387.0,1960.0,-9.0,11.0,
2382.0,2464.0,-9.0,11.0,
2056.0,2178.0,-8.0,11.0,
1965.0,2349.0,-8.0,11.0,
1616.0,2059.0,-8.0,11.0,
1996.0,1992.0,-7.0,11.0,
2285.0,1953.0,-7.0,11.0,
2315.0,2440.0,-7.0,10.0,
2180.0,2475.0,-7.0,10.0,
2277.0,2124.0,-7.0,10.0,
2224.0,2052.0,-7.0,10.0,
2091.0,2039.0,-7.0,11.0,
2025.0,2145.0,-7.0,11.0,
1778.0,2056.0,-7.0,11.0,
1479.0,2014.0,-7.0,11.0,
2040.0,2099.0,-7.0,10.0,
2288.0,2173.0,-7.0,10.0,
2475.0,2300.0,-7.0,10.0,
2347.0,2208.0,-7.0,10.0,
2234.0,1858.0,-7.0,10.0,
1957.0,1784.0,-7.0,10.0,
1726.0,2031.0,-7.0,10.0,
1900.0,2142.0,-8.0,10.0,
2041.0,1938.0,-8.0,10.0,
2025.0,2320.0,-8.0,10.0,
2230.0,2602.0,-8.0,10.0,
2373.0,2455.0,-9.0,11.0,
2268.0,2350.0,-9.0,11.0,
2074.0,1385.0,-9.0,11.0,
2052.0,1413.0,-9.0,11.0,
1691.0,1518.0,-10.0,11.0,
2088.0,2318.0,0,
2005.0,2060.0,-10.0,11.0,
1859.0,2339.0,-11.0,11.0,
2085.0,2289.0,-11.0,11.0,
2373.0,2453.0,-11.0,11.0,
2343.0,2411.0,-11.0,11.0,
2090.0,2416.0,-11.0,11.0,
2027.0,2307.0,-11.0,11.0,
1821.0,1983.0,-11.0,11.0,
1966.0,1555.0,-10.0,11.0,
2186.0,1651.0,-10.0,11.0,
2154.0,2088.0,-10.0,11.0,
2089.0,2173.0,-10.0,10.0,
2091.0,2065.0,-9.0,10.0,
2040.0,2109.0,-9.0,10.0,
2141.0,2135.0,-9.0,10.0,
2035.0,2113.0,-9.0,10.0,
2204.0,2109.0,-9.0,10.0,
2240.0,2578.0,-9.0,10.0,
1942.0,2187.0,-9.0,10.0,
2015.0,2157.0,-9.0,10.0,
2262.0,2137.0,-9.0,10.0,
2189.0,1922.0,-9.0,10.0,
2054.0,2192.0,-9.0,10.0,
2097.0,2154.0,-9.0,10.0,
2171.0,2035.0,-9.0,10.0,
2201.0,2062.0,-9.0,10.0,
2056.0,1975.0,-9.0,10.0,
1896.0,2212.0,-9.0,10.0,
1992.0,2026.0,-9.0,11.0,
2016.0,2101.0,-9.0,11.0,
2015.0,2249.0,-9.0,11.0,
1951.0,2185.0,-9.0,11.0,
2212.0,2210.0,-9.0,11.0,
2124.0,2139.0,-9.0,11.0,
1993.0,2284.0,-9.0,11.0,
2018.0,2163.0,-9.0,11.0,
2137.0,1691.0,-9.0,11.0,
2182.0,1689.0,-10.0,11.0,
1934.0,1942.0,-10.0,11.0,
1985.0,1999.0,-10.0,11.0,
1930.0,2275.0,-10.0,11.0,
2287.0,2260.0,-10.0,11.0,
2173.0,2294.0,-10.0,10.0,
1970.0,2280.0,-10.0,10.0,
2050.0,1751.0,-10.0,10.0,
2068.0,1886.0,-10.0,11.0,
2075.0,2144.0,-11.0,11.0,
2325.0,2289.0,-11.0,11.0,
1969.0,2252.0,-11.0,11.0,
2042.0,2251.0,-11.0,11.0,
2203.0,2032.0,-11.0,11.0,
2156.0,1991.0,-11.0,11.0,
2039.0,1996.0,-12.0,11.0,
2119.0,1985.0,-12.0,11.0,
1980.0,2133.0,-12.0,11.0,
2031.0,2234.0,-12.0,11.0,
2147.0,2334.0,-12.0,11.0,
2217.0,2314.0,-12.0,11.0,
2081.0,2231.0,-12.0,11.0,
1853.0,1956.0,-12.0,11.0,
1938.0,1923.0,0,
2280.0,2300.0,-12.0,11.0,
2243.0,2007.0,-12.0,11.0,
2174.0,2027.0,-11.0,11.0,
2155.0,2115.0,-11.0,11.0,
2110.0,2210.0,-11.0,11.0,
2099.0,2013.0,-11.0,11.0,
1957.0,2132.0,-11.0,11.0,
1950.0,2111.0,-11.0,11.0,
2137.0,2210.0,-10.0,11.0,
2156.0,2088.0,-10.0,11.0,
2122.0,2043.0,-10.0,10.0,
2115.0,1995.0,-10.0,10.0,
1914.0,1943.0,-9.0,10.0,
1881.0,1989.0,-9.0,10.0,
1840.0,2132.0,-9.0,10.0,
2080.0,2234.0,-9.0,10.0,
2177.0,2575.0,-9.0,10.0,
2315.0,2532.0,-9.0,10.0,
2126.0,1810.0,-9.0,10.0,
2167.0,2115.0,-9.0,10.0,
2079.0,1730.0,-9.0,10.0,
2095.0,1869.0,-9.0,10.0,
2094.0,1914.0,-8.0,10.0,
2126.0,1958.0,-8.0,10.0,
2178.0,2120.0,-8.0,10.0,
2003.0,2004.0,-8.0,10.0,
2083.0,2230.0,-8.0,10.0,
2042.0,2246.0,-8.0,10.0,
2160.0,2293.0,-8.0,10.0,
2078.0,2217.0,-8.0,10.0,
2088.0,2376.0,-8.0,10.0,
1982.0,2301.0,-8.0,10.0,
1820.0,2255.0,-8.0,10.0,
2002.0,1945.0,-8.0,10.0,
2143.0,1804.0,-7.0,10.0,
2252.0,1981.0,-7.0,10.0,
2121.0,2229.0,-7.0,10.0,
2123.0,2202.0,-7.0,10.0,
1990.0,2177.0,-7.0,10.0,
1996.0,2148.0,-7.0,10.0,
2183.0,2113.0,-7.0,10.0,
2163.0,1966.0,-7.0,10.0,
1997.0,1928.0,-7.0,10.0,
2079.0,2114.0,-7.0,10.0,
2119.0,2114.0,-7.0,10.0,
2143.0,2224.0,-6.0,10.0,
2000.0,2221.0,-6.0,10.0,
2109.0,2172.0,-6.0,10.0,
2191.0,2060.0,-6.0,10.0,
2185.0,2038.0,-6.0,10.0,
2028.0,2119.0,-6.0,10.0,
2179.0,2128.0,-6.0,10.0,
2126.0,2169.0,-6.0,10.0,
2192.0,2145.0,-6.0,10.0,
2068.0,2136.0,-6.0,10.0,
1962.0,2129.0,-5.0,10.0,
2091.0,2075.0,-5.0,10.0,
2042.0,2234.0,-5.0,10.0,
2045.0,2109.0,-4.0,10.0,
2111.0,1748.0,-4.0,10.0,
1975.0,1921.0,-4.0,10.0,
1903.0,2022.0,-4.0,10.0,
2132.0,2196.0,-3.0,10.0,
2089.0,2524.0,-3.0,10.0,
2042.0,2537.0,-3.0,10.0,
2074.0,2185.0,-3.0,11.0,
2060.0,1837.0,-3.0,11.0,
2149.0,2000.0,-2.0,11.0,
2210.0,2123.0,-2.0,11.0,
2062.0,1884.0,-2.0,11.0,
2077.0,2002.0,-2.0,11.0,
2058.0,1908.0,-2.0,11.0,
2038.0,2018.0,-2.0,11.0,
2123.0,2126.0,-1.0,11.0,
2202.0,2271.0,-1.0,11.0,
2175.0,2329.0,-1.0,11.0,
2019.0,2108.0,-1.0,11.0,
2015.0,1939.0,0.0,11.0,
2146.0,2017.0,0.0,11.0,
2161.0,2203.0,0.0,10.0,
1978.0,2252.0,0.0,10.0,
2086.0,2258.0,0.0,10.0,
2067.0,2111.0,0.0,10.0,
2093.0,2022.0,0.0,10.0,
2033.0,1978.0,0.0,10.0,
1993.0,2188.0,0.0,10.0,
2111.0,2045.0,0.0,10.0,
2142.0,2156.0,-1.0,10.0,
2094.0,2117.0,-1.0,10.0,
2137.0,2235.0,-1.0,10.0,
2142.0,2253.0,-2.0,10.0,
2107.0,2076.0,-2.0,10.0,
2040.0,2109.0,-2.0,10.0,
2162.0,2178.0,-3.0,10.0,
2071.0,1963.0,-3.0,10.0,
2029.0,2054.0,-3.0,10.0,
1982.0,1999.0,-3.0,10.0,
2046.0,2232.0,-3.0,10.0,
1992.0,2354.0,-4.0,10.0,
1881.0,2248.0,-4.0,10.0,
1859.0,1281.0,-4.0,10.0,
2042.0,1902.0,-4.0,11.0,
2194.0,2155.0,-4.0,11.0,
2264.0,2109.0,-4.0,11.0,
2230.0,2078.0,-4.0,11.0,
2133.0,2082.0,-4.0,11.0,
2054.0,2107.0,-4.0,11.0,
2109.0,2234.0,-4.0,11.0,
2152.0,2180.0,-3.0,11.0,
2112.0,2091.0,-3.0,11.0,
2072.0,2166.0,-2.0,11.0,
2072.0,2242.0,-2.0,11.0,
2091.0,2316.0,-1.0,12.0,
2093.0,2232.0,-1.0,12.0,
2088.0,2182.0,0.0,12.0,
2088.0,2206.0,0.0,12.0,
2151.0,2177.0,1.0,12.0,
2136.0,2327.0,1.0,12.0,
2031.0,2276.0,2.0,12.0,
2002.0,2058.0,3.0,12.0,
2006.0,1883.0,3.0,12.0,
1971.0,1830.0,4.0,12.0,
2025.0,1999.0,4.0,12.0,
2094.0,2064.0,4.0,12.0,
2055.0,2053.0,4.0,12.0,
2131.0,2139.0,4.0,12.0,
2143.0,2124.0,4.0,12.0,
2190.0,2150.0,3.0,12.0,
2115.0,1867.0,3.0,12.0,
2150.0,1985.0,2.0,12.0,
2127.0,2033.0,2.0,12.0,
2082.0,2212.0,1.0,12.0,
2062.0,2185.0,0.0,12.0,
2077.0,2278.0,0.0,12.0,
2033.0,2141.0,0.0,12.0,
2022.0,1937.0,-1.0,12.0,
2092.0,2042.0,-1.0,11.0,
2125.0,2226.0,-2.0,11.0,
2117.0,2119.0,-3.0,11.0,
2036.0,2097.0,-3.0,11.0,
2008.0,1889.0,-4.0,11.0,
2072.0,2069.0,-4.0,11.0,
1904.0,2062.0,-5.0,11.0,
1992.0,2278.0,-5.0,11.0,
2056.0,2414.0,-5.0,11.0,
2220.0,2391.0,-6.0,11.0,
2274.0,2195.0,-6.0,10.0,
2259.0,1578.0,-6.0,10.0,
2089.0,1761.0,-6.0,10.0,
2130.0,1958.0,-6.0,10.0,
2020.0,2017.0,-6.0,10.0,
2025.0,2040.0,-5.0,9.0,
2077.0,2136.0,-4.0,9.0,
2056.0,2243.0,-4.0,9.0,
2103.0,2544.0,-3.0,9.0,
2109.0,2456.0,-1.0,9.0,
2114.0,2210.0,0.0,9.0,
2097.0,2030.0,1.0,9.0,
2059.0,1803.0,3.0,9.0,
2082.0,1899.0,5.0,9.0,
2077.0,1909.0,7.0,9.0,
2051.0,2069.0,8.0,9.0,
2050.0,2108.0,10.0,9.0,
2061.0,2279.0,11.0,10.0,
2064.0,2234.0,13.0,10.0,
2102.0,2194.0,14.0,10.0,
2074.0,2124.0,15.0,10.0,
2073.0,2047.0,15.0,10.0,
2053.0,2117.0,16.0,10.0,
2056.0,2101.0,16.0,10.0,
2064.0,2147.0,15.0,11.0,
2056.0,2093.0,15.0,11.0,
2106.0,2100.0,14.0,11.0,
2101.0,2132.0,14.0,11.0,
2122.0,2164.0,13.0,11.0,
2109.0,2116.0,11.0,11.0,
2133.0,2118.0,10.0,11.0,
2121.0,2101.0,9.0,11.0,
2078.0,2110.0,8.0,11.0,
2064.0,2082.0,6.0,11.0,
2071.0,2093.0,5.0,10.0,
2085.0,2130.0,4.0,10.0,
2127.0,2209.0,2.0,10.0,
2086.0,2187.0,1.0,10.0,
2088.0,2033.0,0.0,10.0,
2053.0,1982.0,0.0,10.0,
2057.0,2064.0,-1.0,10.0,
2055.0,2087.0,-2.0,10.0,
2062.0,2089.0,-3.0,10.0,
2066.0,2226.0,-3.0,11.0,
2069.0,2127.0,-4.0,11.0,
2062.0,2129.0,-5.0,11.0,
2057.0,2137.0,-5.0,11.0,
2056.0,2139.0,-6.0,11.0,
2043.0,2117.0,-6.0,11.0,
2210.0,2058.0,-7.0,11.0,
2200.0,2232.0,-6.0,10.0,
2173.0,2212.0,-6.0,11.0,
2041.0,2235.0,-7.0,11.0,
2016.0,2111.0,-6.0,11.0,
2061.0,1613.0,-6.0,11.0,
2061.0,1757.0,-6.0,11.0,
2108.0,1870.0,-5.0,11.0,
2075.0,1805.0,-3.0,11.0,
2166.0,2339.0,-2.0,11.0,
2134.0,2267.0,-1.0,12.0,
2031.0,2106.0,0.0,12.0,
2121.0,2166.0,1.0,12.0,
2109.0,2222.0,4.0,11.0,
2090.0,2354.0,6.0,11.0,
2044.0,2333.0,9.0,11.0,
2087.0,2526.0,11.0,12.0,
2016.0,2213.0,13.0,12.0,
2002.0,1925.0,15.0,12.0,
2050.0,1753.0,17.0,11.0,
2077.0,2121.0,19.0,11.0,
2117.0,2419.0,20.0,11.0,
2100.0,2425.0,21.0,11.0,
2086.0,2072.0,22.0,10.0,
2105.0,1505.0,23.0,10.0,
2045.0,1829.0,23.0,10.0,
2071.0,2015.0,24.0,9.0,
2041.0,2277.0,24.0,9.0,
2081.0,2359.0,24.0,9.0,
2149.0,2125.0,23.0,9.0,
2162.0,2292.0,22.0,9.0,
2114.0,1871.0,22.0,8.0,
2123.0,2047.0,21.0,8.0,
2089.0,2356.0,21.0,8.0,
2154.0,2282.0,20.0,7.0,
2083.0,2198.0,19.0,8.0,
2026.0,2065.0,18.0,8.0,
2023.0,2013.0,17.0,8.0,
2107.0,2141.0,16.0,8.0,
2088.0,2272.0,15.0,8.0,
2046.0,2305.0,14.0,8.0,
2106.0,1571.0,13.0,8.0,
2135.0,1734.0,12.0,8.0,
2105.0,2177.0,11.0,9.0,
2058.0,2165.0,9.0,9.0,
2037.0,2140.0,8.0,9.0,
2013.0,2148.0,8.0,10.0,
2093.0,2170.0,7.0,10.0,
2112.0,2081.0,6.0,10.0,
2154.0,2048.0,5.0,10.0,
2161.0,2126.0,5.0,10.0,
2102.0,2185.0,4.0,11.0,
2103.0,2201.0,3.0,11.0,
2075.0,2203.0,3.0,11.0,
2036.0,2177.0,2.0,11.0,
2044.0,2126.0,2.0,11.0,
2068.0,2209.0,2.0,11.0,
2079.0,2289.0,2.0,11.0,
2065.0,2422.0,2.0,11.0,
2110.0,2014.0,1.0,11.0,
2089.0,2125.0,1.0,11.0,
2146.0,1987.0,1.0,11.0,
2162.0,1842.0,2.0,11.0,
2096.0,1855.0,2.0,11.0,
2073.0,2180.0,2.0,11.0,
2063.0,2128.0,3.0,11.0,
2023.0,2009.0,4.0,11.0,
2016.0,2003.0,5.0,11.0,
1959.0,1787.0,6.0,11.0,
2076.0,1966.0,7.0,11.0,
2148.0,2244.0,8.0,11.0,
2145.0,2273.0,10.0,10.0,
2182.0,2336.0,12.0,10.0,
2205.0,2389.0,13.0,10.0,
2113.0,2192.0,15.0,10.0,
2089.0,2061.0,16.0,10.0,
2069.0,1809.0,18.0,10.0,
2105.0,2221.0,20.0,9.0,
2049.0,2166.0,22.0,8.0,
2081.0,2109.0,23.0,8.0,
2083.0,2196.0,25.0,8.0,
2056.0,2034.0,25.0,8.0,
2065.0,1698.0,26.0,8.0,
2047.0,1678.0,27.0,7.0,
2057.0,2048.0,27.0,7.0,
2047.0,2380.0,28.0,6.0,
2089.0,2464.0,28.0,6.0,
2046.0,2027.0,27.0,6.0,
2046.0,1946.0,27.0,5.0,
2060.0,1999.0,26.0,5.0,
2057.0,2186.0,26.0,5.0,
2067.0,2261.0,25.0,5.0,
2099.0,2205.0,24.0,4.0,
2092.0,2028.0,23.0,5.0,
2126.0,2112.0,22.0,5.0,
2091.0,2097.0,21.0,5.0,
2096.0,2223.0,20.0,5.0,
2091.0,2143.0,19.0,6.0,
2084.0,2108.0,18.0,6.0,
2103.0,2158.0,17.0,6.0,
2106.0,2203.0,16.0,7.0,
2104.0,2221.0,15.0,7.0,
2087.0,2206.0,14.0,8.0,
2092.0,2192.0,13.0,8.0,
2090.0,2209.0,13.0,8.0,
2072.0,2024.0,12.0,8.0,
2084.0,1939.0,12.0,7.0,
2084.0,2111.0,12.0,8.0,
2076.0,2082.0,11.0,9.0,
2097.0,2051.0,10.0,9.0,
2086.0,1945.0,10.0,9.0,
2110.0,2134.0,9.0,9.0,
2098.0,2269.0,9.0,9.0,
2073.0,2320.0,9.0,10.0,
2098.0,2240.0,9.0,10.0,
2109.0,2184.0,9.0,9.0,
2081.0,1720.0,8.0,10.0,
2084.0,2128.0,8.0,10.0,
2058.0,2355.0,8.0,10.0,
2045.0,2237.0,8.0,9.0,
2068.0,1903.0,8.0,9.0,
2053.0,1811.0,9.0,9.0,
2090.0,2202.0,0,
2112.0,2196.0,9.0,9.0,
2109.0,1996.0,9.0,10.0,
2092.0,1935.0,10.0,10.0,
2065.0,2162.0,10.0,9.0,
2058.0,2147.0,11.0,8.0,
2055.0,1980.0,12.0,9.0,
2161.0,2146.0,12.0,9.0,
2112.0,2163.0,12.0,9.0,
2097.0,2019.0,13.0,9.0,
2061.0,1867.0,14.0,9.0,
2100.0,2262.0,15.0,9.0,
2092.0,2121.0,15.0,9.0,
2087.0,2113.0,16.0,9.0,
2090.0,2098.0,17.0,10.0,
2046.0,2198.0,18.0,10.0,
2072.0,2165.0,18.0,10.0,
2083.0,2159.0,20.0,9.0,
2056.0,2154.0,21.0,8.0,
2090.0,2461.0,22.0,8.0,
2129.0,2833.0,23.0,8.0,
2088.0,2702.0,23.0,8.0,
2115.0,1654.0,24.0,8.0,
2009.0,906.0,25.0,8.0,
2010.0,1760.0,25.0,8.0,
2119.0,2203.0,26.0,8.0,
2087.0,2242.0,26.0,8.0,
2151.0,2111.0,27.0,7.0,
2158.0,2185.0,27.0,8.0,
2120.0,2296.0,27.0,8.0,
2094.0,1908.0,28.0,7.0,
2072.0,2056.0,28.0,6.0,
2089.0,2249.0,28.0,5.0,
2070.0,2124.0,28.0,5.0,
2051.0,2068.0,28.0,6.0,
2052.0,2083.0,28.0,6.0,
2058.0,2202.0,27.0,6.0,
2089.0,2179.0,0,
2051.0,2152.0,27.0,6.0,
2085.0,2192.0,26.0,5.0,
2092.0,2196.0,26.0,5.0,
2050.0,2129.0,26.0,6.0,
2069.0,2097.0,25.0,6.0,
2108.0,2205.0,24.0,6.0,
2097.0,1855.0,23.0,6.0,
2100.0,1841.0,23.0,6.0,
2101.0,2076.0,22.0,6.0,
2103.0,2228.0,21.0,6.0,
2093.0,2188.0,20.0,6.0,
2073.0,2252.0,20.0,6.0,
2066.0,2194.0,19.0,7.0,
2071.0,2005.0,19.0,6.0,
2100.0,2118.0,18.0,7.0,
2089.0,2168.0,18.0,7.0,
2085.0,2113.0,18.0,7.0,
2069.0,2182.0,18.0,7.0,
2093.0,2177.0,17.0,8.0,
2121.0,2106.0,17.0,8.0,
2058.0,2039.0,18.0,7.0,
2068.0,1997.0,18.0,7.0,
2074.0,2310.0,18.0,8.0,
2068.0,1872.0,18.0,9.0,
2034.0,1880.0,18.0,9.0,
2082.0,2099.0,18.0,8.0,
2108.0,2177.0,19.0,8.0,
2092.0,2394.0,20.0,7.0,
2103.0,2481.0,21.0,7.0,
2122.0,2075.0,22.0,7.0,
2082.0,1856.0,22.0,8.0,
2120.0,1638.0,22.0,7.0,
2097.0,2114.0,23.0,7.0,
2054.0,2375.0,24.0,7.0,
2099.0,2283.0,25.0,6.0,
2070.0,2202.0,26.0,6.0,
2089.0,1978.0,26.0,6.0,
2104.0,1680.0,27.0,7.0,
2052.0,1959.0,27.0,7.0,
2079.0,2150.0,28.0,6.0,
2073.0,2522.0,28.0,5.0,
2071.0,2300.0,29.0,5.0,
2089.0,2049.0,30.0,5.0,
2088.0,2064.0,30.0,5.0,
2071.0,2148.0,30.0,6.0,
2078.0,2173.0,31.0,5.0,
2129.0,2171.0,31.0,5.0,
2165.0,2320.0,32.0,5.0,
2092.0,1889.0,32.0,5.0,
2082.0,2253.0,32.0,5.0,
2075.0,2153.0,32.0,5.0,
2103.0,1954.0,32.0,5.0,
2071.0,1792.0,32.0,4.0,
2067.0,2074.0,32.0,4.0,
2080.0,2242.0,32.0,4.0,
2091.0,1834.0,32.0,5.0,
2100.0,2057.0,32.0,5.0,
2111.0,2032.0,31.0,4.0,
2065.0,2131.0,31.0,4.0,
2081.0,2261.0,31.0,4.0,
2069.0,2294.0,31.0,4.0,
2063.0,2144.0,31.0,4.0,
2096.0,2194.0,0,
2109.0,2149.0,30.0,5.0,
2096.0,2103.0,29.0,5.0,
2072.0,2185.0,29.0,5.0,
2061.0,2112.0,29.0,5.0,
2095.0,2156.0,29.0,5.0,
2075.0,2102.0,29.0,5.0,
2086.0,2088.0,28.0,5.0,
2099.0,2103.0,28.0,6.0,
2094.0,2186.0,27.0,6.0,
2071.0,2147.0,27.0,5.0,
2071.0,2059.0,28.0,6.0,
2098.0,2101.0,28.0,6.0,
2117.0,2259.0,28.0,6.0,
2087.0,2368.0,28.0,6.0,
2061.0,2210.0,28.0,6.0,
2042.0,1934.0,28.0,5.0,
2072.0,1848.0,29.0,5.0,
2065.0,2006.0,29.0,5.0,
2077.0,2076.0,29.0,5.0,
2087.0,1968.0,30.0,5.0,
2066.0,2176.0,30.0,5.0,
2125.0,2311.0,31.0,5.0,
2124.0,2377.0,31.0,5.0,
2142.0,2408.0,32.0,5.0,
2119.0,1616.0,32.0,5.0,
2140.0,1980.0,33.0,6.0,
2151.0,1931.0,33.0,6.0,
2089.0,1792.0,33.0,5.0,
2061.0,2168.0,34.0,5.0,
2049.0,2179.0,34.0,4.0,
2053.0,1753.0,35.0,4.0,
2084.0,2141.0,36.0,4.0,
2051.0,2457.0,36.0,4.0,
2103.0,2454.0,36.0,4.0,
2152.0,2045.0,36.0,4.0,
2061.0,1919.0,37.0,4.0,
2058.0,1759.0,37.0,4.0,
2084.0,2282.0,37.0,3.0,
2046.0,2373.0,37.0,3.0,
2061.0,2307.0,37.0,3.0,
2143.0,2173.0,37.0,4.0,
2105.0,2260.0,37.0,4.0,
2097.0,2045.0,37.0,4.0,
2047.0,1588.0,37.0,3.0,
2089.0,1918.0,37.0,3.0,
2084.0,2227.0,37.0,3.0,
2090.0,2340.0,37.0,3.0,
2065.0,2090.0,36.0,3.0,
2091.0,1594.0,36.0,4.0,
2016.0,2084.0,36.0,4.0,
2039.0,2214.0,35.0,5.0,
2123.0,2260.0,35.0,4.0,
2120.0,2238.0,35.0,4.0,
2086.0,2167.0,35.0,4.0,
2086.0,2282.0,34.0,4.0,
2107.0,2228.0,35.0,4.0,
2086.0,2134.0,34.0,5.0,
2125.0,2085.0,34.0,5.0,
2106.0,2099.0,34.0,5.0,
2107.0,2245.0,35.0,5.0,
2090.0,2262.0,35.0,4.0,
2069.0,2143.0,35.0,4.0,
2075.0,1976.0,36.0,4.0,
2077.0,2178.0,36.0,4.0,
2062.0,2432.0,37.0,4.0,
2062.0,2342.0,37.0,4.0,
2062.0,1902.0,38.0,4.0,
2069.0,1559.0,38.0,4.0,
2075.0,1782.0,39.0,3.0,
2087.0,2105.0,39.0,3.0,
2096.0,2138.0,39.0,3.0,
2111.0,2129.0,40.0,3.0,
2087.0,2073.0,40.0,3.0,
2087.0,2142.0,40.0,3.0,
2128.0,2179.0,41.0,3.0,
2096.0,2242.0,41.0,4.0,
2078.0,2204.0,41.0,3.0,
2075.0,2318.0,41.0,3.0,
2057.0,2162.0,42.0,3.0,
2077.0,2076.0,42.0,3.0,
2078.0,1941.0,42.0,3.0,
2096.0,1874.0,42.0,3.0,
2116.0,1956.0,42.0,3.0,
2133.0,2247.0,43.0,3.0,
2119.0,2250.0,42.0,3.0,
2114.0,2055.0,42.0,3.0,
2083.0,2171.0,43.0,3.0,
2047.0,1687.0,43.0,3.0,
2114.0,2024.0,43.0,2.0,
2063.0,2165.0,43.0,2.0,
2093.0,2280.0,43.0,2.0,
2089.0,2391.0,43.0,3.0,
2064.0,2375.0,43.0,3.0,
2085.0,2072.0,43.0,3.0,
2076.0,1830.0,0,
2127.0,1926.0,43.0,3.0,
2163.0,2071.0,43.0,3.0,
2133.0,2123.0,43.0,3.0,
2117.0,2262.0,43.0,3.0,
2109.0,2346.0,42.0,4.0,
2094.0,1884.0,42.0,3.0,
2095.0,2244.0,43.0,3.0,
2090.0,2489.0,43.0,3.0,
2075.0,2148.0,43.0,2.0,
2091.0,1898.0,43.0,3.0,
2094.0,1693.0,43.0,3.0,
2091.0,2027.0,42.0,3.0,
2081.0,2134.0,42.0,3.0,
2071.0,2199.0,42.0,3.0,
2020.0,2009.0,42.0,3.0,
2040.0,2088.0,43.0,3.0,
2071.0,2189.0,43.0,3.0,
2055.0,2134.0,43.0,3.0,
2079.0,2165.0,43.0,4.0,
2102.0,2191.0,42.0,4.0,
2130.0,2278.0,43.0,3.0,
2146.0,2287.0,44.0,2.0,
2101.0,1994.0,43.0,3.0,
2095.0,2164.0,43.0,3.0,
2105.0,2205.0,43.0,3.0,
2077.0,1828.0,43.0,3.0,
2070.0,1967.0,43.0,3.0,
2099.0,1931.0,43.0,3.0,
2073.0,1942.0,43.0,3.0,
2032.0,1954.0,43.0,3.0,
2069.0,2317.0,44.0,3.0,
2089.0,2298.0,43.0,3.0,
2104.0,2359.0,43.0,3.0,
2091.0,2334.0,44.0,3.0,
2051.0,1747.0,44.0,2.0,
2059.0,1910.0,44.0,2.0,
2069.0,2131.0,44.0,2.0,
2131.0,1939.0,45.0,1.0,
2081.0,2275.0,45.0,1.0,
2154.0,2292.0,45.0,2.0,
2217.0,2333.0,45.0,2.0,
2109.0,2065.0,45.0,2.0,
2063.0,1851.0,45.0,1.0,
2079.0,2307.0,45.0,1.0,
2096.0,2191.0,45.0,1.0,
2058.0,2073.0,45.0,1.0,
2088.0,2067.0,45.0,1.0,
2086.0,2047.0,45.0,2.0,
2071.0,1955.0,45.0,2.0,
2038.0,2053.0,45.0,1.0,
2105.0,2102.0,45.0,1.0,
2091.0,2119.0,45.0,1.0,
2130.0,2122.0,45.0,1.0,
2121.0,2243.0,46.0,0.0,
2093.0,2111.0,46.0,1.0,
2070.0,2125.0,45.0,1.0,
2075.0,2220.0,45.0,1.0,
2083.0,2091.0,45.0,1.0,
2080.0,2042.0,45.0,1.0,
2074.0,2139.0,45.0,2.0,
2055.0,2150.0,45.0,2.0,
2068.0,2140.0,45.0,2.0,
2078.0,2063.0,45.0,2.0,
2087.0,2134.0,45.0,3.0,
2094.0,2412.0,45.0,2.0,
2104.0,2482.0,45.0,2.0,
2062.0,1861.0,45.0,2.0,
2052.0,1759.0,45.0,2.0,
2054.0,1921.0,45.0,2.0,
2084.0,2081.0,45.0,2.0,
2074.0,2136.0,45.0,2.0,
2075.0,1933.0,45.0,2.0,
2107.0,2000.0,45.0,1.0,
2080.0,2128.0,46.0,1.0,
2074.0,2097.0,46.0,2.0,
2077.0,2118.0,46.0,2.0,
2077.0,2162.0,46.0,2.0,
2102.0,2250.0,46.0,2.0,
2097.0,2337.0,47.0,2.0,
2092.0,2308.0,47.0,1.0,
2090.0,2259.0,47.0,1.0,
2079.0,2108.0,47.0,1.0,
2076.0,2181.0,48.0,2.0,
2060.0,1782.0,48.0,2.0,
2057.0,1929.0,48.0,1.0,
2048.0,2031.0,48.0,1.0,
2105.0,1996.0,49.0,1.0,
2101.0,2061.0,49.0,1.0,
2070.0,2028.0,49.0,1.0,
2099.0,2170.0,49.0,1.0,
2100.0,2129.0,49.0,1.0,
2103.0,2271.0,49.0,1.0,
2086.0,2148.0,49.0,1.0,
2078.0,2151.0,49.0,1.0,
2054.0,2022.0,49.0,1.0,
2064.0,2086.0,49.0,1.0,
2094.0,2169.0,49.0,1.0,
2137.0,2132.0,49.0,1.0,
2094.0,2235.0,49.0,2.0,
2092.0,2313.0,49.0,2.0,
2080.0,2118.0,48.0,2.0,
2056.0,2221.0,48.0,2.0,
2076.0,2048.0,48.0,2.0,
2080.0,2039.0,48.0,2.0,
2072.0,2025.0,48.0,2.0,
2074.0,1893.0,48.0,2.0,
2078.0,2067.0,48.0,2.0,
2088.0,2086.0,48.0,2.0,
2098.0,2148.0,48.0,2.0,
2073.0,2145.0,48.0,2.0,
2075.0,1914.0,48.0,2.0,
2095.0,2019.0,48.0,1.0,
2097.0,2156.0,48.0,1.0,
2110.0,2205.0,48.0,1.0,
2120.0,2249.0,48.0,1.0,
2128.0,2208.0,48.0,1.0,
2098.0,2152.0,48.0,1.0,
2092.0,2198.0,48.0,1.0,
2100.0,2192.0,49.0,1.0,
2101.0,2113.0,49.0,1.0,
2084.0,2012.0,49.0,1.0,
2081.0,2109.0,49.0,1.0,
2099.0,2204.0,49.0,1.0,
2108.0,2247.0,49.0,1.0,
2095.0,2032.0,49.0,1.0,
2089.0,1917.0,49.0,0.0,
2066.0,2050.0,49.0,1.0,
2072.0,2080.0,50.0,1.0,
2098.0,2126.0,50.0,1.0,
2086.0,2154.0,50.0,1.0,
2117.0,2054.0,50.0,0.0,
2115.0,2084.0,50.0,0.0,
2060.0,2048.0,50.0,0.0,
2046.0,2204.0,50.0,0.0,
2094.0,2124.0,50.0,0.0,
2070.0,2021.0,50.0,1.0,
2067.0,2074.0,50.0,0.0,
2087.0,2170.0,50.0,0.0,
2091.0,2262.0,50.0,1.0,
2109.0,2264.0,50.0,1.0,
2108.0,2093.0,50.0,1.0,
2100.0,2190.0,51.0,1.0,
2074.0,1875.0,51.0,1.0,
2062.0,1712.0,51.0,1.0,
2052.0,2072.0,51.0,1.0,
2102.0,2163.0,51.0,1.0,
2084.0,2208.0,51.0,1.0,
2078.0,2426.0,51.0,1.0,
2097.0,2127.0,51.0,1.0,
2049.0,2016.0,51.0,0.0,
2103.0,2070.0,51.0,0.0,
2059.0,2023.0,52.0,0.0,
2060.0,2094.0,52.0,0.0,
2092.0,2124.0,52.0,0.0,
2065.0,2122.0,52.0,0.0,
2097.0,2170.0,0,
2095.0,2111.0,52.0,0.0,
2080.0,2141.0,52.0,0.0,
2106.0,2157.0,52.0,1.0,
2109.0,2111.0,52.0,1.0,
2072.0,2097.0,52.0,1.0,
2077.0,2211.0,52.0,1.0,
2070.0,2088.0,52.0,1.0,
2083.0,2119.0,52.0,1.0,
2091.0,2117.0,53.0,1.0,
2092.0,2141.0,53.0,1.0,
2086.0,1982.0,53.0,1.0,
2092.0,2048.0,53.0,1.0,
2092.0,2097.0,53.0,1.0,
2068.0,2141.0,53.0,1.0,
2084.0,2119.0,53.0,1.0,
2071.0,2132.0,54.0,1.0,
2071.0,2084.0,54.0,1.0,
2075.0,2134.0,54.0,1.0,
2100.0,2165.0,54.0,1.0,
2115.0,2137.0,54.0,0.0,
2099.0,2106.0,55.0,1.0,
2073.0,2051.0,55.0,0.0,
2047.0,2097.0,55.0,0.0,
2070.0,2127.0,55.0,0.0,
2081.0,2165.0,55.0,0.0,
2087.0,2119.0,55.0,0.0,
2093.0,2094.0,56.0,0.0,
2082.0,2126.0,56.0,0.0,
2102.0,2083.0,56.0,0.0,
2105.0,2123.0,56.0,0.0,
2099.0,2166.0,56.0,0.0,
2080.0,2161.0,56.0,0.0,
2047.0,2093.0,56.0,0.0,
2087.0,2151.0,57.0,0.0,
2075.0,2145.0,57.0,0.0,
2112.0,2130.0,57.0,0.0,
2082.0,2004.0,57.0,0.0,
2079.0,2118.0,57.0,0.0,
2083.0,2139.0,57.0,0.0,
2092.0,2010.0,57.0,0.0,
2100.0,1996.0,57.0,0.0,
2105.0,2041.0,57.0,0.0,
2076.0,2050.0,57.0,0.0,
2068.0,2112.0,58.0,0.0,
2093.0,2275.0,58.0,0.0,
2130.0,2394.0,58.0,0.0,
2105.0,2229.0,58.0,0.0,
2080.0,2121.0,58.0,0.0,
2088.0,1544.0,58.0,0.0,
2090.0,1903.0,57.0,0.0,
2077.0,2110.0,57.0,0.0,
2075.0,2174.0,57.0,0.0,
2107.0,2236.0,57.0,0.0,
2088.0,2194.0,57.0,0.0,
2114.0,2138.0,57.0,0.0,
2103.0,2076.0,57.0,0.0,
2053.0,2142.0,57.0,0.0,
2093.0,2156.0,56.0,0.0,
2064.0,2170.0,56.0,0.0,
2070.0,2115.0,56.0,0.0,
2092.0,2065.0,56.0,0.0,
2092.0,2131.0,56.0,0.0,
2094.0,2209.0,56.0,0.0,
2074.0,2155.0,56.0,0.0,
2094.0,2172.0,56.0,0.0,
2079.0,2114.0,56.0,0.0,
2083.0,2090.0,56.0,0.0,
2087.0,2141.0,56.0,0.0,
2099.0,2130.0,55.0,0.0,
2066.0,2108.0,55.0,0.0,
2076.0,2141.0,55.0,0.0,
2079.0,2092.0,55.0,0.0,
2086.0,2099.0,55.0,0.0,
2096.0,2103.0,55.0,0.0,
2077.0,2095.0,55.0,0.0,
2078.0,2100.0,55.0,0.0,
2085.0,2103.0,55.0,0.0,
2078.0,2099.0,55.0,0.0,
2100.0,2109.0,55.0,0.0,
2111.0,2130.0,55.0,0.0,
2102.0,2122.0,55.0,0.0,
2095.0,2105.0,55.0,0.0,
2092.0,2103.0,55.0,-1.0,
2071.0,2138.0,56.0,-1.0,
2081.0,2088.0,56.0,-1.0,
2065.0,2076.0,56.0,-1.0,
2068.0,2081.0,56.0,-1.0,
2085.0,2111.0,56.0,-1.0,
2104.0,2162.0,56.0,-1.0,
2080.0,2142.0,56.0,-1.0,
2097.0,2000.0,57.0,-1.0,
2079.0,2065.0,57.0,-1.0,
2067.0,2089.0,57.0,-1.0,
2083.0,2117.0,57.0,-1.0,
2094.0,2153.0,58.0,-1.0,
2100.0,2159.0,58.0,-1.0,
2113.0,2166.0,58.0,-1.0,
2123.0,2030.0,58.0,-1.0,
2092.0,2041.0,58.0,0.0,
2101.0,2108.0,59.0,0.0,
2100.0,2156.0,59.0,0.0,
2093.0,2191.0,59.0,-1.0,
2085.0,2206.0,59.0,-1.0,
2101.0,2157.0,59.0,-1.0,
2083.0,1988.0,59.0,-1.0,
2106.0,2045.0,59.0,-1.0,
2087.0,2070.0,60.0,-1.0,
2116.0,2148.0,60.0,-1.0,
2125.0,2039.0,60.0,-1.0,
2051.0,2027.0,60.0,-1.0,
2074.0,2070.0,60.0,-1.0,
2072.0,2102.0,60.0,-1.0,
2055.0,2090.0,60.0,-1.0,
2082.0,2145.0,60.0,-1.0,
2098.0,2170.0,60.0,-1.0,
2099.0,2206.0,60.0,-1.0,
2097.0,2183.0,60.0,-1.0,
2105.0,2155.0,60.0,-1.0,
2057.0,2105.0,60.0,-1.0,
2067.0,2101.0,60.0,0.0,
2070.0,2067.0,60.0,0.0,
2087.0,2096.0,60.0,-1.0,
2091.0,2112.0,60.0,-1.0,
2090.0,2117.0,60.0,-1.0,
2095.0,2121.0,60.0,-1.0,
2100.0,2142.0,60.0,-1.0,
2091.0,2139.0,59.0,-1.0,
2067.0,2035.0,59.0,-1.0,
2061.0,2110.0,59.0,-1.0,
2096.0,2135.0,59.0,-1.0,
2094.0,2113.0,59.0,-1.0,
2078.0,2164.0,59.0,-1.0,
2098.0,2134.0,59.0,-1.0,
2089.0,2121.0,59.0,-1.0,
2082.0,2111.0,59.0,-1.0,
2085.0,2150.0,59.0,-2.0,
2076.0,2136.0,59.0,-1.0,
2077.0,2128.0,59.0,-1.0,
2087.0,2056.0,59.0,-1.0,
2096.0,2046.0,59.0,-1.0,
2074.0,2124.0,59.0,-1.0,
2115.0,2082.0,59.0,-1.0,
2086.0,2137.0,59.0,-1.0,
2087.0,2140.0,59.0,-1.0,
2085.0,2106.0,60.0,-1.0,
2080.0,2090.0,60.0,-1.0,
2057.0,2025.0,60.0,-1.0,
2068.0,2086.0,60.0,-1.0,
2085.0,2097.0,60.0,-1.0,
2085.0,2136.0,60.0,-1.0,
2084.0,2144.0,60.0,-1.0,
2067.0,2118.0,61.0,-1.0,
2071.0,2108.0,61.0,-1.0,
2101.0,2089.0,61.0,-2.0,
2087.0,2030.0,61.0,-1.0,
2099.0,2181.0,61.0,-1.0,
2099.0,2109.0,61.0,-1.0,
2070.0,2093.0,61.0,-1.0,
2085.0,2164.0,61.0,-1.0,
2127.0,2138.0,61.0,-1.0,
2135.0,2184.0,61.0,-1.0,
2060.0,2074.0,61.0,-1.0,
2067.0,2135.0,61.0,-1.0,
2078.0,2064.0,61.0,-1.0,
2056.0,2022.0,61.0,-1.0,
2082.0,2098.0,61.0,-1.0,
2082.0,2177.0,61.0,-1.0,
2101.0,2090.0,61.0,0.0,
2091.0,2034.0,61.0,0.0,
2082.0,2085.0,61.0,-1.0,
2086.0,2172.0,61.0,-1.0,
2086.0,2135.0,61.0,-1.0,
2078.0,1969.0,61.0,-1.0,
2082.0,2159.0,61.0,-1.0,
2075.0,2200.0,61.0,-1.0,
2081.0,2172.0,61.0,-1.0,
2089.0,2137.0,60.0,-1.0,
2086.0,2105.0,60.0,-1.0,
2081.0,2098.0,60.0,-1.0,
2079.0,2109.0,60.0,-1.0,
2080.0,2112.0,60.0,-1.0,
2078.0,2120.0,60.0,-1.0,
2083.0,2144.0,60.0,-1.0,
2102.0,2156.0,59.0,-1.0,
2092.0,2068.0,59.0,-1.0,
2088.0,2107.0,59.0,-1.0,
2090.0,2158.0,59.0,-1.0,
2054.0,2117.0,59.0,-1.0,
2071.0,2085.0,59.0,-1.0,
2071.0,2078.0,59.0,-1.0,
2078.0,2092.0,59.0,-1.0,
2068.0,2080.0,59.0,-1.0,
2098.0,2068.0,59.0,-1.0,
2084.0,2112.0,59.0,-1.0,
2101.0,2117.0,59.0,-1.0,
2071.0,2116.0,59.0,-1.0,
2083.0,2112.0,59.0,-1.0,
2083.0,2116.0,59.0,-1.0,
2080.0,2120.0,59.0,-1.0,
2084.0,2117.0,59.0,-1.0,
2086.0,2130.0,59.0,-1.0,
2109.0,2167.0,59.0,-1.0,
2101.0,2147.0,59.0,-1.0,
2094.0,2066.0,60.0,-1.0,
2089.0,2037.0,60.0,-1.0,
2097.0,2080.0,60.0,-1.0,
2094.0,2124.0,60.0,-1.0,
2077.0,2116.0,60.0,-1.0,
2083.0,2198.0,60.0,-1.0,
2101.0,2087.0,60.0,-1.0,
2091.0,2039.0,60.0,-1.0,
2084.0,2089.0,60.0,-1.0,
2103.0,2128.0,61.0,-1.0,
2088.0,2116.0,61.0,-1.0,
2093.0,2058.0,61.0,-1.0,
2087.0,2153.0,61.0,-1.0,
2060.0,2079.0,61.0,-1.0,
2089.0,2136.0,61.0,-1.0,
2089.0,2144.0,61.0,-1.0,
2087.0,2081.0,61.0,-1.0,
2092.0,2163.0,61.0,-1.0,
2073.0,2127.0,61.0,-1.0,
2053.0,2036.0,61.0,-1.0,
2068.0,2048.0,61.0,-1.0,
2081.0,2118.0,61.0,-1.0,
2087.0,2106.0,61.0,-1.0,
2096.0,2112.0,60.0,-1.0,
2117.0,2147.0,60.0,-1.0,
2104.0,2119.0,60.0,-1.0,
2106.0,2176.0,60.0,-1.0,
2097.0,2142.0,60.0,-1.0,
2074.0,2054.0,60.0,-1.0,
2075.0,2078.0,60.0,-1.0,
2080.0,2098.0,60.0,-1.0,
2090.0,2074.0,60.0,-1.0,
2065.0,2098.0,60.0,-1.0,
2095.0,2107.0,60.0,-1.0,
2075.0,2124.0,59.0,0.0,
2080.0,2138.0,59.0,0.0,
2085.0,2119.0,59.0,0.0,
2079.0,2104.0,59.0,-1.0,
2069.0,2112.0,59.0,-1.0,
2083.0,2117.0,59.0,-1.0,
2093.0,2128.0,59.0,-1.0,
2093.0,2127.0,59.0,-1.0,
2097.0,2127.0,59.0,-1.0,
2103.0,2120.0,59.0,-1.0,
2112.0,2119.0,59.0,-2.0,
2069.0,2102.0,59.0,-2.0,
2075.0,2102.0,59.0,-1.0,
2082.0,2091.0,59.0,-1.0,
2063.0,2115.0,59.0,-1.0,
2079.0,2143.0,59.0,-1.0,
2087.0,2090.0,59.0,-1.0,
2083.0,2085.0,59.0,-1.0,
2078.0,2098.0,59.0,-1.0,
2081.0,2108.0,59.0,-1.0,
2081.0,2126.0,59.0,-1.0,
2066.0,2137.0,59.0,-1.0,
2059.0,2093.0,59.0,-1.0,
2073.0,2086.0,59.0,-1.0,
2078.0,2136.0,59.0,-1.0,
2072.0,2113.0,60.0,-1.0,
2100.0,2071.0,60.0,-1.0,
2089.0,2188.0,60.0,-1.0,
2083.0,2086.0,60.0,-1.0,
2052.0,2033.0,60.0,-1.0,
2064.0,2097.0,60.0,-1.0,
2076.0,2137.0,60.0,-1.0,
2104.0,2141.0,60.0,-1.0,
2127.0,2141.0,60.0,-1.0,
2121.0,2122.0,60.0,-1.0,
2050.0,2046.0,60.0,-1.0,
2079.0,2093.0,60.0,-1.0,
2063.0,2035.0,60.0,-1.0,
2081.0,2089.0,60.0,-1.0,
2079.0,2108.0,60.0,-1.0,
2091.0,2121.0,60.0,-1.0,
2045.0,2113.0,60.0,-1.0,
2100.0,2135.0,60.0,-1.0,
2091.0,2126.0,60.0,-1.0,
2089.0,2151.0,60.0,-1.0,
2115.0,2160.0,60.0,-1.0,
2080.0,2051.0,60.0,-1.0,
2060.0,2060.0,59.0,0.0,
2064.0,2110.0,59.0,0.0,
2082.0,2068.0,59.0,-1.0,
2059.0,2126.0,59.0,-1.0,
2066.0,2178.0,59.0,-1.0,
2088.0,2141.0,59.0,-1.0,
2099.0,2101.0,59.0,-1.0,
2093.0,2076.0,59.0,-1.0,
2098.0,2039.0,59.0,-1.0,
2090.0,2140.0,59.0,-1.0,
2082.0,2162.0,59.0,-2.0,
2073.0,2162.0,59.0,-2.0,
2089.0,2143.0,59.0,-1.0,
2092.0,2113.0,59.0,-1.0,
2073.0,2036.0,59.0,-1.0,
2099.0,2069.0,59.0,-1.0,
2077.0,2082.0,58.0,-1.0,
2067.0,2116.0,58.0,-1.0,
2085.0,2086.0,58.0,-1.0,
2078.0,2128.0,59.0,-1.0,
2096.0,2102.0,59.0,-1.0,
2105.0,2124.0,0,
2103.0,2105.0,59.0,-1.0,
2086.0,2091.0,59.0,-1.0,
2065.0,2112.0,59.0,-1.0,
2068.0,2083.0,59.0,-1.0,
2086.0,2097.0,59.0,-1.0,
2089.0,2085.0,59.0,-1.0,
2083.0,2091.0,59.0,-1.0,
2094.0,2100.0,59.0,-1.0,
2102.0,2115.0,59.0,-1.0,
2101.0,2115.0,59.0,-1.0,
2094.0,2134.0,59.0,-1.0,
2083.0,2142.0,59.0,-1.0,
2082.0,2155.0,59.0,-1.0,
2076.0,2144.0,59.0,-1.0,
2065.0,2126.0,60.0,-1.0,
2088.0,2122.0,60.0,-1.0,
2114.0,2111.0,60.0,-1.0,
2102.0,2110.0,60.0,-1.0,
2085.0,2091.0,60.0,-1.0,
2083.0,2182.0,60.0,-1.0,
2079.0,2062.0,60.0,-1.0,
2071.0,2058.0,60.0,-1.0,
2091.0,2131.0,60.0,-1.0,
2112.0,2062.0,60.0,-1.0,
2073.0,2066.0,60.0,-1.0,
2084.0,2059.0,60.0,-1.0,
2130.0,2060.0,60.0,-1.0,
2071.0,2132.0,60.0,-1.0,
2086.0,2060.0,60.0,-1.0,
2079.0,2071.0,60.0,-1.0,
2066.0,2097.0,60.0,-1.0,
2080.0,2108.0,60.0,-1.0,
2082.0,2128.0,60.0,-1.0,
2091.0,2134.0,60.0,-1.0,
2112.0,2135.0,60.0,-1.0,
2105.0,2138.0,60.0,-1.0,
2087.0,2140.0,60.0,-1.0,
2081.0,2123.0,60.0,-1.0,
2082.0,2120.0,60.0,-1.0,
2081.0,2122.0,60.0,-1.0,
2069.0,2097.0,60.0,-1.0,
2066.0,2120.0,59.0,-1.0,
2074.0,2128.0,59.0,-1.0,
2091.0,2115.0,59.0,-1.0,
2109.0,2118.0,59.0,-1.0,
2125.0,2101.0,59.0,-1.0,
2102.0,2118.0,59.0,-1.0,
2082.0,2109.0,59.0,-1.0,
2073.0,2121.0,59.0,-1.0,
2065.0,2114.0,59.0,-1.0,
2078.0,2076.0,59.0,-1.0,
2090.0,2146.0,59.0,-1.0,
2118.0,2097.0,59.0,-1.0,
2099.0,2133.0,59.0,-1.0,
2100.0,2087.0,59.0,-1.0,
2087.0,2023.0,59.0,-1.0,
2078.0,2068.0,59.0,-1.0,
2076.0,2100.0,59.0,-1.0,
2090.0,2133.0,59.0,-1.0,
2089.0,2112.0,59.0,-1.0,
2085.0,2117.0,59.0,-1.0,
2094.0,2103.0,59.0,-1.0,
2086.0,2103.0,59.0,-1.0,
2089.0,2101.0,59.0,-1.0,
2074.0,2132.0,59.0,-1.0,
2088.0,2139.0,59.0,-1.0,
2081.0,2147.0,59.0,-1.0,
2069.0,2130.0,59.0,-1.0,
2087.0,2135.0,59.0,-1.0,
2099.0,2163.0,59.0,-1.0,
2095.0,2107.0,59.0,-1.0,
2087.0,2099.0,59.0,-1.0,
2126.0,2076.0,59.0,-1.0,
2083.0,2113.0,59.0,-1.0,
2056.0,2122.0,59.0,-1.0,
2068.0,2003.0,59.0,-1.0,
2075.0,2021.0,59.0,-1.0,
2064.0,2116.0,59.0,-1.0,
2104.0,2121.0,59.0,-1.0,
2104.0,2083.0,59.0,-1.0,
2081.0,2098.0,59.0,-1.0,
2071.0,2139.0,59.0,-1.0,
2099.0,2136.0,59.0,-1.0,
2066.0,2067.0,59.0,-1.0,
2065.0,2113.0,59.0,-1.0,
2087.0,2140.0,59.0,-1.0,
2095.0,2122.0,59.0,-1.0,
2094.0,2123.0,59.0,-1.0,
2106.0,2121.0,59.0,-1.0,
2082.0,2112.0,59.0,-1.0,
2086.0,2132.0,58.0,-1.0,
2107.0,2172.0,58.0,-1.0,
2100.0,2055.0,58.0,-1.0,
2081.0,2096.0,58.0,-1.0,
2077.0,2133.0,58.0,-1.0,
2092.0,2126.0,58.0,-1.0,
2110.0,2122.0,58.0,-1.0,
2104.0,2248.0,58.0,-1.0,
2077.0,2080.0,58.0,-1.0,
2066.0,1991.0,58.0,-1.0,
2045.0,2014.0,58.0,-1.0,
2070.0,2173.0,58.0,-1.0,
2115.0,2153.0,58.0,-1.0,
2075.0,1997.0,58.0,-1.0,
2083.0,2066.0,58.0,-1.0,
2090.0,2135.0,58.0,-1.0,
2097.0,2079.0,58.0,-1.0,
2075.0,2095.0,58.0,-1.0,
2074.0,2123.0,58.0,-1.0,
2079.0,2128.0,58.0,-1.0,
2086.0,2112.0,58.0,-1.0,
2092.0,2129.0,58.0,-1.0,
2088.0,2123.0,58.0,-1.0,
2094.0,2123.0,58.0,-1.0,
2091.0,2116.0,58.0,0.0,
2084.0,2109.0,58.0,0.0,
2089.0,2119.0,58.0,0.0,
2073.0,2117.0,58.0,-1.0,
2070.0,2110.0,58.0,-1.0,
2076.0,2129.0,58.0,-1.0,
2084.0,2122.0,58.0,-1.0,
2087.0,2119.0,58.0,-1.0,
2088.0,2114.0,58.0,-1.0,
2101.0,2116.0,58.0,-1.0,
2096.0,2073.0,58.0,-2.0,
2088.0,2089.0,58.0,-2.0,
2063.0,2101.0,58.0,-1.0,
2074.0,2109.0,58.0,-1.0,
2068.0,2138.0,58.0,-1.0,
2081.0,2095.0,59.0,-1.0,
2080.0,2130.0,59.0,-1.0,
2099.0,2090.0,59.0,-1.0,
2095.0,2139.0,59.0,-1.0,
2109.0,2111.0,59.0,-1.0,
2083.0,2039.0,59.0,-1.0,
2061.0,2078.0,59.0,-1.0,
2069.0,2113.0,59.0,-1.0,
2074.0,2112.0,59.0,-1.0,
2069.0,2099.0,59.0,-1.0,
2091.0,2115.0,59.0,-1.0,
2080.0,2109.0,59.0,-1.0,
2089.0,2145.0,59.0,-1.0,
2085.0,2143.0,59.0,-1.0,
2049.0,2049.0,59.0,-1.0,
2071.0,2119.0,59.0,-1.0,
2088.0,2202.0,59.0,-1.0,
2087.0,2110.0,59.0,-1.0,
2084.0,2047.0,59.0,-1.0,
2085.0,2093.0,59.0,-1.0,
2086.0,2098.0,59.0,-1.0,
2072.0,2106.0,59.0,-1.0,
2070.0,2121.0,59.0,-1.0,
2081.0,2120.0,59.0,-1.0,
2094.0,2166.0,59.0,-1.0,
2106.0,2114.0,59.0,-1.0,
2114.0,2119.0,59.0,-1.0,
2104.0,2078.0,59.0,-1.0,
2088.0,2123.0,59.0,-1.0,
2090.0,2111.0,59.0,-1.0,
2082.0,2130.0,59.0,-1.0,
2094.0,2099.0,59.0,-1.0,
2070.0,2173.0,59.0,-1.0,
2096.0,2085.0,59.0,-1.0,
2100.0,2087.0,59.0,-1.0,
2074.0,2130.0,59.0,-1.0,
2098.0,2121.0,59.0,-1.0,
2099.0,2119.0,59.0,-1.0,
2100.0,2125.0,59.0,-1.0,
2061.0,2070.0,59.0,-1.0,
2075.0,2098.0,59.0,-1.0,
2092.0,2113.0,59.0,-1.0,
2064.0,2148.0,59.0,-1.0,
2081.0,2137.0,59.0,-1.0,
2066.0,2105.0,59.0,-1.0,
2083.0,2130.0,59.0,-1.0,
2076.0,2096.0,59.0,-1.0,
2078.0,2094.0,59.0,-1.0,
2086.0,2093.0,59.0,-1.0,
2080.0,2104.0,59.0,-1.0,
2068.0,2121.0,59.0,-1.0,
2095.0,2125.0,59.0,-1.0,
2093.0,2112.0,59.0,-1.0,
2094.0,2119.0,59.0,-1.0,
2092.0,2117.0,58.0,-1.0,
2092.0,2114.0,58.0,-1.0,
2080.0,2140.0,58.0,-1.0,
2096.0,2119.0,58.0,-1.0,
2072.0,2090.0,59.0,-1.0,
2074.0,2070.0,59.0,-1.0,
2084.0,2074.0,59.0,-1.0,
2087.0,2127.0,59.0,-1.0,
2129.0,2142.0,59.0,-1.0,
2108.0,2107.0,59.0,-1.0,
2093.0,2158.0,59.0,-1.0,
2090.0,2049.0,59.0,-1.0,
2061.0,2056.0,59.0,-1.0,
2076.0,2071.0,59.0,-1.0,
2066.0,2173.0,0,
2090.0,2073.0,59.0,-1.0,
2069.0,2081.0,59.0,-1.0,
2085.0,2156.0,59.0,-1.0,
2092.0,2085.0,59.0,-1.0,
2051.0,2058.0,59.0,-1.0,
2058.0,2083.0,59.0,-1.0,
2058.0,2090.0,59.0,-1.0,
2065.0,2131.0,59.0,-1.0,
2076.0,2127.0,59.0,-1.0,
2104.0,2138.0,59.0,-1.0,
2099.0,2127.0,59.0,-1.0,
2107.0,2132.0,59.0,-1.0,
2089.0,2141.0,59.0,-1.0,
2096.0,2130.0,59.0,-1.0,
2099.0,2131.0,59.0,-1.0,
2066.0,2101.0,59.0,-1.0,
2089.0,2121.0,59.0,-1.0,
2095.0,2131.0,59.0,-1.0,
2083.0,2033.0,59.0,-1.0,
2085.0,2139.0,59.0,-1.0,
2104.0,2101.0,59.0,-1.0,
2091.0,2118.0,59.0,-1.0,
2089.0,2119.0,59.0,-1.0,
2061.0,2065.0,59.0,-1.0,
2067.0,2099.0,59.0,-1.0,
2082.0,2117.0,59.0,-1.0,
2085.0,2108.0,58.0,-1.0,
2085.0,2145.0,58.0,-1.0,
2102.0,2142.0,58.0,-1.0,
2106.0,2088.0,58.0,-1.0,
2085.0,2126.0,58.0,-1.0,
2062.0,2144.0,58.0,-1.0,
2068.0,2061.0,58.0,-1.0,
2055.0,2116.0,58.0,-1.0,
2077.0,2123.0,58.0,-1.0,
2094.0,2137.0,58.0,-1.0,
2107.0,2142.0,58.0,-1.0,
2090.0,2090.0,58.0,-1.0,
2093.0,2094.0,59.0,-1.0,
2098.0,2115.0,59.0,-1.0,
2097.0,2141.0,59.0,-1.0,
2079.0,2143.0,59.0,-1.0,
2071.0,2063.0,59.0,-1.0,
2089.0,2107.0,59.0,-1.0,
2094.0,2129.0,59.0,-1.0,
2092.0,2097.0,59.0,-1.0,
2097.0,2145.0,59.0,-1.0,
2092.0,2101.0,59.0,-1.0,
2081.0,2089.0,59.0,-1.0,
2043.0,2115.0,59.0,-1.0,
2082.0,2133.0,59.0,-1.0,
2086.0,2135.0,59.0,-1.0,
2098.0,2122.0,59.0,-1.0,
2077.0,2078.0,59.0,-1.0,
2077.0,2107.0,59.0,-1.0,
2089.0,2112.0,59.0,0.0,
2099.0,2126.0,59.0,0.0,
2070.0,2116.0,59.0,-1.0,
2061.0,2108.0,59.0,-1.0,
2045.0,2101.0,59.0,-1.0,
2066.0,2116.0,59.0,-1.0,
2094.0,2193.0,59.0,-1.0,
2077.0,2069.0,59.0,-1.0,
2101.0,2052.0,59.0,-1.0,
2087.0,2101.0,59.0,-1.0,
2090.0,2135.0,59.0,-1.0,
2064.0,2083.0,59.0,-1.0,
2057.0,2101.0,59.0,-1.0,
2075.0,2102.0,59.0,-1.0,
2097.0,2127.0,59.0,-1.0,
2096.0,2134.0,59.0,-1.0,
2099.0,2123.0,59.0,-1.0,
2095.0,2114.0,59.0,-1.0,
2085.0,2118.0,59.0,-1.0,
2108.0,2138.0,59.0,-1.0,
2085.0,2118.0,59.0,-1.0,
2074.0,2106.0,59.0,-1.0,
2070.0,2120.0,59.0,-1.0,
2090.0,2120.0,59.0,-1.0,
2103.0,2107.0,59.0,-1.0,
2094.0,2110.0,59.0,-1.0,
2089.0,2150.0,59.0,-1.0,
2111.0,2096.0,59.0,-1.0,
2077.0,2115.0,59.0,-1.0,
2091.0,2079.0,59.0,-1.0,
2072.0,2089.0,59.0,-1.0,
2064.0,2069.0,59.0,-1.0,
2092.0,2107.0,59.0,-1.0,
2094.0,2047.0,59.0,-1.0,
2080.0,2128.0,59.0,-1.0,
2127.0,2179.0,59.0,-1.0,
2097.0,2083.0,59.0,-1.0,
2074.0,2075.0,59.0,-1.0,
2091.0,2155.0,59.0,-1.0,
2080.0,2087.0,59.0,-1.0,
2086.0,2118.0,59.0,-1.0,
2066.0,2059.0,59.0,-1.0,
2100.0,2141.0,59.0,-1.0,
2100.0,2106.0,59.0,-1.0,
2071.0,2067.0,59.0,-1.0,
2067.0,2090.0,59.0,-1.0,
2071.0,2109.0,59.0,-1.0,
2076.0,2116.0,59.0,-1.0,
2069.0,2100.0,59.0,-1.0,
2066.0,2120.0,59.0,-1.0,
2096.0,2129.0,59.0,-1.0,
2090.0,2130.0,59.0,-1.0,
2089.0,2138.0,59.0,-1.0,
2087.0,2115.0,59.0,-1.0,
2084.0,2107.0,59.0,-1.0,
2076.0,2137.0,59.0,-1.0,
2086.0,2150.0,59.0,-1.0,
2105.0,2111.0,59.0,-1.0,
2096.0,2101.0,59.0,-1.0,
2095.0,2137.0,59.0,-1.0,
2110.0,2142.0,59.0,-1.0,
2107.0,2117.0,59.0,-1.0,
2073.0,2046.0,59.0,-1.0,
2073.0,2101.0,59.0,-1.0,
2087.0,2125.0,59.0,-1.0,
2090.0,2107.0,59.0,-1.0,
2068.0,2097.0,59.0,-1.0,
2089.0,2114.0,59.0,-1.0,
2094.0,2122.0,59.0,-1.0,
2100.0,2099.0,59.0,-1.0,
2087.0,2067.0,59.0,-1.0,
2062.0,2098.0,59.0,-1.0,
2081.0,2112.0,59.0,-1.0,
2097.0,2093.0,59.0,-1.0,
2090.0,2152.0,59.0,-1.0,
2087.0,2069.0,59.0,-1.0,
2095.0,2103.0,59.0,-1.0,
2102.0,2128.0,59.0,-1.0,
2113.0,2094.0,59.0,-1.0,
2088.0,2150.0,59.0,-1.0,
2087.0,2139.0,59.0,-1.0,
2078.0,2126.0,59.0,-1.0,
2054.0,2081.0,59.0,-1.0,
2067.0,2050.0,59.0,-1.0,
2093.0,2041.0,59.0,-1.0,
2085.0,2073.0,59.0,-1.0,
2073.0,2097.0,59.0,-1.0,
2097.0,2111.0,59.0,-1.0,
2092.0,2114.0,59.0,-1.0,
2072.0,2108.0,59.0,-1.0,
2075.0,2134.0,59.0,-1.0,
2087.0,2127.0,59.0,-1.0,
2064.0,2095.0,59.0,-1.0,
2099.0,2103.0,59.0,-1.0,
2096.0,2106.0,59.0,-1.0,
2096.0,2138.0,59.0,-1.0,
2106.0,2119.0,59.0,-1.0,
2086.0,2095.0,59.0,-1.0,
2086.0,2117.0,59.0,-1.0,
2075.0,2110.0,59.0,-1.0,
2088.0,2093.0,59.0,-1.0,
2079.0,2135.0,59.0,-1.0,
2091.0,2123.0,59.0,-1.0,
2083.0,2130.0,59.0,-1.0,
2086.0,2107.0,59.0,-1.0,
2100.0,2101.0,59.0,-1.0,
2071.0,2103.0,59.0,-1.0,
2084.0,2107.0,59.0,-1.0,
2069.0,2110.0,59.0,-1.0,
2062.0,2115.0,59.0,-1.0,
2086.0,2122.0,59.0,-1.0,
2107.0,2115.0,59.0,-1.0,
2094.0,2090.0,59.0,-1.0,
2102.0,2099.0,59.0,-1.0,
2111.0,2095.0,59.0,-1.0,
2090.0,2107.0,59.0,-1.0,
2067.0,2156.0,59.0,-1.0,
2075.0,2140.0,59.0,-1.0,
2106.0,2046.0,59.0,-1.0,
2104.0,2131.0,59.0,-1.0,
2108.0,2164.0,59.0,-1.0,
2110.0,2081.0,59.0,-1.0,
2079.0,2058.0,59.0,-1.0,
2096.0,2152.0,59.0,-1.0,
2112.0,2157.0,59.0,-1.0,
2076.0,2084.0,59.0,-1.0,
2061.0,2093.0,59.0,-1.0,
2067.0,2044.0,59.0,-1.0,
2072.0,2132.0,59.0,-1.0,
2083.0,2109.0,59.0,-1.0,
2101.0,2119.0,59.0,-1.0,
2090.0,2111.0,59.0,-1.0,
2073.0,2117.0,59.0,-1.0,
2082.0,2126.0,59.0,-1.0,
2085.0,2099.0,59.0,-1.0,
2080.0,2118.0,59.0,-1.0,
2076.0,2128.0,59.0,-1.0,
2079.0,2125.0,59.0,-1.0,
2109.0,2130.0,59.0,-1.0,
2114.0,2114.0,59.0,-1.0,
2093.0,2115.0,59.0,-1.0,
2091.0,2114.0,59.0,-1.0,
2073.0,2118.0,59.0,-1.0,
2077.0,2122.0,59.0,-1.0,
2072.0,2113.0,59.0,-1.0,
2090.0,2115.0,59.0,-1.0,
2085.0,2123.0,59.0,-1.0,
2093.0,2125.0,59.0,-1.0,
2094.0,2116.0,59.0,-1.0,
2076.0,2111.0,59.0,-1.0,
2073.0,2118.0,59.0,-1.0,
2083.0,2091.0,59.0,-1.0,
2072.0,2112.0,59.0,-1.0,
2064.0,2117.0,59.0,-1.0,
2081.0,2109.0,59.0,-1.0,
2100.0,2112.0,59.0,-1.0,
2100.0,2110.0,59.0,-1.0,
2078.0,2140.0,59.0,-1.0,
2102.0,2169.0,59.0,-1.0,
2076.0,2023.0,59.0,-1.0,
2062.0,2050.0,59.0,-1.0,
2094.0,2109.0,59.0,-1.0,
2081.0,2168.0,60.0,-1.0,
2101.0,2161.0,60.0,-1.0,
2087.0,2011.0,60.0,-1.0,
2073.0,2070.0,60.0,-1.0,
2080.0,2131.0,60.0,-1.0,
2097.0,2126.0,60.0,-1.0,
2065.0,2046.0,60.0,-1.0,
2056.0,2088.0,59.0,-1.0,
2080.0,2110.0,59.0,-1.0,
2096.0,2125.0,59.0,-1.0,
2094.0,2130.0,59.0,-1.0,
2102.0,2128.0,59.0,-1.0,
2090.0,2113.0,59.0,-1.0,
2107.0,2118.0,59.0,-1.0,
2087.0,2109.0,59.0,-1.0,
2089.0,2115.0,59.0,-1.0,
2072.0,2119.0,59.0,-1.0,
2085.0,2147.0,59.0,-1.0,
2104.0,2122.0,59.0,-1.0,
2102.0,2123.0,59.0,-1.0,
2090.0,2104.0,59.0,-1.0,
2087.0,2138.0,59.0,-1.0,
2082.0,2125.0,59.0,-1.0,
2114.0,2055.0,59.0,-1.0,
2099.0,2128.0,59.0,-1.0,
2073.0,2078.0,59.0,-1.0,
2068.0,2005.0,59.0,-1.0,
2076.0,2072.0,59.0,-1.0,
2099.0,2107.0,59.0,-1.0,
2093.0,2107.0,59.0,-1.0,
2093.0,2106.0,59.0,-1.0,
2071.0,2114.0,59.0,-1.0,
2086.0,2118.0,59.0,-1.0,
2093.0,2149.0,59.0,-1.0,
2081.0,2149.0,59.0,-1.0,
2072.0,2117.0,59.0,-1.0,
2093.0,2122.0,59.0,-1.0,
2096.0,2121.0,59.0,-1.0,
2102.0,2136.0,59.0,-1.0,
2098.0,2114.0,59.0,-1.0,
2076.0,2099.0,59.0,-1.0,
2086.0,2086.0,59.0,-1.0,
2078.0,2096.0,59.0,-1.0,
2050.0,2113.0,59.0,-1.0,
2078.0,2179.0,59.0,-1.0,
2095.0,2107.0,59.0,-1.0,
2076.0,2123.0,59.0,-1.0,
2070.0,2042.0,59.0,-1.0,
2069.0,2089.0,59.0,-1.0,
2078.0,2110.0,59.0,-1.0,
2072.0,2102.0,59.0,-1.0,
2072.0,2091.0,59.0,-1.0,
2093.0,2126.0,59.0,-1.0,
2076.0,2071.0,59.0,-1.0,
2088.0,2125.0,59.0,-1.0,
2093.0,2081.0,59.0,-1.0,
2087.0,2116.0,59.0,-1.0,
2088.0,2122.0,59.0,-1.0,
2093.0,2125.0,59.0,-1.0,
2071.0,2102.0,59.0,-1.0,
2089.0,2117.0,59.0,-1.0,
2090.0,2140.0,59.0,-1.0,
2092.0,2105.0,59.0,-1.0,
2099.0,2115.0,59.0,-1.0,
2083.0,2122.0,59.0,-1.0,
2090.0,2112.0,59.0,-1.0,
2080.0,2128.0,0,
2087.0,2134.0,59.0,-1.0,
2085.0,2080.0,59.0,-1.0,
2063.0,2125.0,59.0,-1.0,
2094.0,2087.0,59.0,-1.0,
2110.0,2213.0,59.0,-1.0,
2124.0,1982.0,59.0,-1.0,
2061.0,2087.0,59.0,-1.0,
2106.0,2056.0,59.0,-1.0,
2072.0,2086.0,59.0,-1.0,
2065.0,2105.0,59.0,-1.0,
2078.0,2124.0,59.0,-1.0,
2083.0,2128.0,59.0,-1.0,
2101.0,2116.0,59.0,-1.0,
2089.0,2129.0,59.0,-1.0,
2097.0,2115.0,59.0,-1.0,
2102.0,2124.0,60.0,-1.0,
2082.0,2115.0,59.0,-1.0,
2097.0,2116.0,60.0,-1.0,
2075.0,2126.0,59.0,-1.0,
2095.0,2121.0,59.0,-1.0,
2084.0,2109.0,59.0,-1.0,
2096.0,2115.0,59.0,-1.0,
2100.0,2121.0,59.0,-1.0,
2090.0,2121.0,59.0,-1.0,
2090.0,2115.0,59.0,-1.0,
2076.0,2112.0,59.0,-1.0,
2059.0,2119.0,59.0,-1.0,
2078.0,2094.0,59.0,-1.0,
2106.0,2116.0,59.0,-1.0,
2080.0,2088.0,59.0,-1.0,
2086.0,2119.0,59.0,-1.0,
2102.0,2106.0,59.0,-1.0,
2074.0,2048.0,59.0,-1.0,
2081.0,2108.0,59.0,-1.0,
2083.0,2072.0,59.0,-1.0,
2070.0,2131.0,59.0,-1.0,
2085.0,2036.0,59.0,-1.0,
2067.0,2127.0,59.0,-1.0,
2084.0,2099.0,59.0,-1.0,
2090.0,2141.0,59.0,-1.0,
2099.0,2148.0,59.0,-1.0,
2098.0,2028.0,59.0,-1.0,
2076.0,2096.0,59.0,-1.0,
2109.0,2121.0,59.0,-1.0,
2088.0,2084.0,59.0,-1.0,
2079.0,2117.0,59.0,-1.0,
2093.0,2163.0,59.0,-1.0,
2083.0,2152.0,59.0,-1.0,
2085.0,2051.0,59.0,-1.0,
2093.0,2113.0,59.0,-1.0,
2092.0,2120.0,59.0,-1.0,
2084.0,2077.0,59.0,-1.0,
2067.0,2100.0,59.0,-1.0,
2091.0,2108.0,59.0,-1.0,
2097.0,2130.0,59.0,-1.0,
2108.0,2136.0,59.0,-1.0,
2092.0,2131.0,59.0,-1.0,
2098.0,2103.0,59.0,-1.0,
2092.0,2148.0,59.0,-1.0,
2096.0,2125.0,59.0,-1.0,
2068.0,2086.0,59.0,-1.0,
2066.0,2057.0,59.0,-1.0,
2088.0,2085.0,59.0,-1.0,
2101.0,2108.0,59.0,-1.0,
2069.0,2131.0,59.0,-1.0,
2085.0,2121.0,59.0,-1.0,
2109.0,2141.0,59.0,-1.0,
2090.0,2097.0,59.0,-1.0,
2082.0,2091.0,59.0,-1.0,
2065.0,2096.0,59.0,-1.0,
2062.0,2108.0,59.0,-1.0,
2070.0,2119.0,59.0,-1.0,
2095.0,2110.0,59.0,-1.0,
2106.0,2121.0,59.0,-1.0,
2094.0,2109.0,59.0,-1.0,
2071.0,2122.0,59.0,-1.0,
2091.0,2117.0,59.0,-1.0,
2081.0,2109.0,59.0,-1.0,
2065.0,2063.0,59.0,-1.0,
2077.0,2132.0,59.0,-1.0,
2056.0,2113.0,59.0,-1.0,
2072.0,2128.0,59.0,-1.0,
2087.0,2139.0,59.0,-1.0,
2089.0,2112.0,59.0,-1.0,
2100.0,2160.0,59.0,-1.0,
2100.0,2148.0,59.0,-1.0,
2075.0,2094.0,59.0,-1.0,
2081.0,2017.0,59.0,-1.0,
2065.0,2072.0,59.0,-1.0,
2073.0,2111.0,59.0,-1.0,
2085.0,2110.0,59.0,-1.0,
2083.0,2108.0,59.0,-1.0,
2090.0,2115.0,59.0,-1.0,
2094.0,2138.0,59.0,-1.0,
2075.0,2108.0,59.0,-1.0,
2107.0,2101.0,59.0,-1.0,
2079.0,2119.0,59.0,-1.0,
2098.0,2126.0,59.0,-1.0,
2073.0,2151.0,59.0,-1.0,
2085.0,2098.0,59.0,-1.0,
2090.0,2095.0,59.0,-1.0,
2091.0,2116.0,59.0,-1.0,
2108.0,2109.0,59.0,-1.0,
2100.0,2125.0,59.0,-1.0,
2062.0,2147.0,59.0,-1.0,
2066.0,2064.0,59.0,-1.0,
2072.0,2086.0,59.0,-1.0,
2083.0,2094.0,59.0,-1.0,
2095.0,2117.0,59.0,-1.0,
2080.0,2139.0,59.0,-1.0,
2097.0,2119.0,59.0,-1.0,
2083.0,2089.0,59.0,-1.0,
2071.0,2088.0,59.0,-1.0,
2085.0,2094.0,59.0,-1.0,
2087.0,2104.0,59.0,-1.0,
2088.0,2142.0,59.0,-1.0,
2092.0,2154.0,59.0,-1.0,
2084.0,2099.0,59.0,-1.0,
2099.0,2084.0,59.0,-1.0,
2096.0,2102.0,59.0,-1.0,
2085.0,2124.0,59.0,-1.0,
2090.0,2101.0,59.0,-1.0,
2085.0,2124.0,59.0,-1.0,
2074.0,2100.0,59.0,-1.0,
2078.0,2114.0,59.0,-1.0,
2081.0,2117.0,59.0,-1.0,
2109.0,2110.0,59.0,-1.0,
2119.0,2125.0,59.0,-1.0,
2096.0,2119.0,59.0,-1.0,
2076.0,2096.0,59.0,-1.0,
2067.0,2105.0,59.0,-1.0,
2075.0,2113.0,59.0,-1.0,
2076.0,2107.0,59.0,-1.0,
2090.0,2112.0,59.0,-1.0,
2089.0,2121.0,59.0,-1.0,
2108.0,2111.0,59.0,-1.0,
2094.0,2167.0,59.0,-1.0,
2088.0,2118.0,59.0,-1.0,
2076.0,2064.0,59.0,-1.0,
2080.0,2153.0,59.0,-1.0,
2092.0,2188.0,59.0,-1.0,
2098.0,1997.0,59.0,-1.0,
2090.0,2051.0,59.0,-1.0,
2087.0,2106.0,59.0,-1.0,
2072.0,2099.0,59.0,-1.0,
2105.0,2131.0,59.0,-1.0,
2097.0,2161.0,59.0,-1.0,
2099.0,2047.0,59.0,-1.0,
2075.0,2112.0,59.0,-1.0,
2090.0,2121.0,59.0,-1.0,
2067.0,2131.0,59.0,-1.0,
2076.0,2125.0,59.0,-1.0,
2095.0,2110.0,59.0,-1.0,
2135.0,2161.0,59.0,-1.0,
2098.0,2098.0,59.0,-1.0,
2074.0,2072.0,59.0,-1.0,
2075.0,2094.0,59.0,-1.0,
2074.0,2117.0,59.0,-1.0,
2059.0,2109.0,59.0,-1.0,
2077.0,2121.0,59.0,-1.0,
2084.0,2120.0,59.0,-1.0,
2090.0,2110.0,59.0,-1.0,
2089.0,2120.0,59.0,-1.0,
2091.0,2127.0,59.0,-1.0,
2082.0,2120.0,59.0,-1.0,
2086.0,2073.0,59.0,-1.0,
2084.0,2108.0,59.0,-1.0,
2085.0,2115.0,59.0,-1.0,
2083.0,2119.0,59.0,-1.0,
2079.0,2112.0,59.0,-1.0,
2093.0,2106.0,59.0,-1.0,
2094.0,2140.0,59.0,-1.0,
2088.0,2112.0,59.0,-1.0,
2079.0,2076.0,59.0,-1.0,
2068.0,2093.0,59.0,-1.0,
2076.0,2108.0,0,
2070.0,2107.0,59.0,-1.0,
2086.0,2127.0,59.0,-1.0,
2111.0,2162.0,59.0,-1.0,
2103.0,2129.0,59.0,-1.0,
2077.0,2022.0,59.0,-1.0,
2086.0,2063.0,59.0,-1.0,
2076.0,2089.0,59.0,-1.0,
2081.0,2104.0,59.0,-1.0,
2069.0,2113.0,59.0,-1.0,
2085.0,2106.0,59.0,-1.0,
2098.0,2133.0,59.0,-1.0,
2076.0,2101.0,59.0,-1.0,
2091.0,2076.0,59.0,-1.0,
2081.0,2100.0,59.0,-1.0,
2082.0,2103.0,59.0,-1.0,
2094.0,2123.0,59.0,-1.0,
2088.0,2143.0,59.0,-1.0,
2083.0,2100.0,59.0,-1.0,
2088.0,2111.0,59.0,-1.0,
2092.0,2123.0,59.0,-1.0,
2090.0,2083.0,59.0,-1.0,
2094.0,2084.0,59.0,-1.0,
2089.0,2113.0,59.0,-1.0,
2090.0,2108.0,59.0,-1.0,
2082.0,2112.0,59.0,-1.0,
2072.0,2110.0,59.0,-1.0,
2082.0,2130.0,59.0,-1.0,
2096.0,2159.0,59.0,-1.0,
2107.0,2091.0,59.0,-1.0,
2094.0,2104.0,59.0,-1.0,
2093.0,2114.0,59.0,-1.0,
2083.0,2105.0,59.0,-1.0,
2082.0,2105.0,59.0,-1.0,
2044.0,2113.0,59.0,-1.0,
2085.0,2159.0,59.0,-1.0,
2086.0,2120.0,59.0,-1.0,
2066.0,2078.0,59.0,-1.0,
2090.0,2136.0,59.0,-1.0,
2099.0,2073.0,59.0,-1.0,
2111.0,2115.0,59.0,-1.0,
2095.0,2073.0,59.0,-1.0,
2098.0,2093.0,59.0,-1.0,
2089.0,2116.0,59.0,-1.0,
2095.0,2107.0,59.0,-1.0,
2089.0,2088.0,59.0,-1.0,
2094.0,2118.0,59.0,-1.0,
2098.0,2110.0,59.0,-1.0,
2094.0,2110.0,59.0,-1.0,
2085.0,2100.0,59.0,-1.0,
2061.0,2091.0,59.0,-1.0,
2091.0,2095.0,59.0,-1.0,
2093.0,2118.0,59.0,-1.0,
2080.0,2113.0,59.0,-1.0,
2106.0,2156.0,59.0,-1.0,
2088.0,2065.0,59.0,-1.0,
2085.0,2123.0,59.0,-1.0,
2088.0,2105.0,59.0,-1.0,
2085.0,2102.0,59.0,-1.0,
2077.0,2102.0,59.0,-1.0,
2068.0,2103.0,59.0,-1.0,
2078.0,2110.0,59.0,-1.0,
2076.0,2141.0,59.0,-1.0,
2090.0,2125.0,59.0,-1.0,
2095.0,2101.0,59.0,-1.0,
2083.0,2138.0,59.0,-1.0,
2094.0,2087.0,59.0,-1.0,
2076.0,2136.0,59.0,-1.0,
2077.0,2126.0,59.0,-1.0,
2084.0,2037.0,59.0,-1.0,
2091.0,2114.0,59.0,-1.0,
2097.0,2137.0,59.0,-1.0,
2094.0,2104.0,59.0,-1.0,
2076.0,2076.0,59.0,-1.0,
2108.0,2117.0,59.0,-1.0,
2114.0,2124.0,59.0,-1.0,
2083.0,2110.0,59.0,-1.0,
2068.0,2129.0,59.0,-1.0,
2083.0,2032.0,59.0,-1.0,
2092.0,2150.0,59.0,-1.0,
2104.0,2106.0,59.0,-1.0,
2079.0,2094.0,59.0,-1.0,
2106.0,2148.0,59.0,-1.0,
2104.0,2073.0,59.0,-1.0,
2071.0,2070.0,59.0,-1.0,
2081.0,2096.0,59.0,-1.0,
2087.0,2103.0,59.0,-1.0,
2079.0,2106.0,59.0,-1.0,
2067.0,2137.0,59.0,-1.0,
2090.0,2140.0,59.0,-1.0,
2105.0,2156.0,59.0,-1.0,
2096.0,2101.0,59.0,-1.0,
2076.0,2101.0,59.0,-1.0,
2076.0,2114.0,59.0,-1.0,
2095.0,2130.0,59.0,-1.0,
2099.0,2103.0,59.0,-1.0,
2093.0,2087.0,59.0,-1.0,
2080.0,2114.0,59.0,-1.0,
2078.0,2136.0,59.0,-1.0,
2086.0,2106.0,59.0,-1.0,
2086.0,2113.0,59.0,-1.0,
2087.0,2094.0,59.0,-1.0,
2068.0,2098.0,59.0,-1.0,
2081.0,2085.0,59.0,-1.0,
2070.0,2146.0,59.0,-1.0,
2061.0,2149.0,59.0,-1.0,
2096.0,2057.0,59.0,-1.0,
2085.0,2098.0,59.0,-1.0,
2083.0,2099.0,59.0,-1.0,
2074.0,2103.0,59.0,-1.0,
2081.0,2101.0,59.0,-1.0,
2075.0,2104.0,59.0,-1.0,
2074.0,2109.0,59.0,-1.0,
2067.0,2120.0,59.0,-1.0,
2076.0,2132.0,59.0,-1.0,
2076.0,2087.0,59.0,-1.0,
2082.0,2151.0,59.0,-1.0,
2103.0,2097.0,59.0,-1.0,
2100.0,2118.0,59.0,-1.0,
2063.0,2086.0,59.0,-1.0,
2064.0,2044.0,59.0,-1.0,
2060.0,2108.0,59.0,-1.0,
2079.0,2095.0,59.0,-1.0,
2075.0,2120.0,59.0,-1.0,
2083.0,2122.0,59.0,-1.0,
2099.0,2121.0,59.0,-1.0,
2106.0,2132.0,59.0,-1.0,
2085.0,2105.0,59.0,-1.0,
2079.0,2122.0,59.0,-1.0,
2069.0,2126.0,59.0,-1.0,
2066.0,2111.0,59.0,-1.0,
2081.0,2140.0,59.0,-1.0,
2084.0,2120.0,59.0,-1.0,
2096.0,2130.0,59.0,-1.0,
2108.0,2149.0,59.0,-1.0,
2087.0,2057.0,59.0,-1.0,
2086.0,2124.0,59.0,-1.0,
2082.0,2093.0,59.0,-1.0,
2090.0,2101.0,59.0,-1.0,
2081.0,2097.0,59.0,-1.0,
2085.0,2125.0,59.0,-1.0,
2095.0,2100.0,59.0,-1.0,
2095.0,2082.0,59.0,-1.0,
2090.0,2095.0,59.0,-1.0,
2099.0,2102.0,59.0,-1.0,
2085.0,2109.0,59.0,-1.0,
2073.0,2133.0,59.0,-1.0,
2100.0,2124.0,59.0,-1.0,
2075.0,2061.0,59.0,-1.0,
2081.0,2116.0,59.0,-1.0,
2084.0,2110.0,59.0,-1.0,
2090.0,2118.0,59.0,-1.0,
2109.0,2145.0,59.0,-1.0,
2087.0,2101.0,59.0,-1.0,
2067.0,2094.0,59.0,-1.0,
2070.0,2108.0,59.0,-1.0,
2073.0,2118.0,59.0,-1.0,
2066.0,2126.0,59.0,-1.0,
2085.0,2090.0,59.0,-1.0,
2068.0,2110.0,59.0,-1.0,
2070.0,2128.0,59.0,-1.0,
2087.0,2124.0,59.0,-1.0,
2108.0,2101.0,59.0,-1.0,
2096.0,2083.0,59.0,-1.0,
2081.0,2087.0,59.0,-1.0,
2074.0,2114.0,59.0,-1.0,
2074.0,2124.0,59.0,-1.0,
2111.0,2113.0,59.0,-1.0,
2092.0,2123.0,59.0,-1.0,
2082.0,2158.0,59.0,-1.0,
2078.0,2062.0,59.0,-1.0,
2087.0,2080.0,59.0,-1.0,
2086.0,2100.0,59.0,-1.0,
2087.0,2118.0,59.0,-1.0,
2085.0,2095.0,59.0,-1.0,
2078.0,2105.0,59.0,-1.0,
2102.0,2118.0,59.0,-1.0,
2093.0,2105.0,59.0,-1.0,
2099.0,2111.0,59.0,-1.0,
2096.0,2119.0,59.0,-1.0,
2085.0,2089.0,59.0,-1.0,
2086.0,2092.0,59.0,-1.0,
2066.0,2106.0,59.0,-1.0,
2081.0,2177.0,59.0,-1.0,
2090.0,2018.0,59.0,-1.0,
2083.0,2090.0,59.0,-1.0,
2102.0,2128.0,59.0,-1.0,
2097.0,2160.0,59.0,-1.0,
2075.0,2066.0,59.0,-1.0,
2085.0,2116.0,59.0,-1.0,
2070.0,2108.0,59.0,-1.0,
2060.0,2054.0,59.0,-1.0,
2062.0,2104.0,59.0,-1.0,
2068.0,2133.0,59.0,-1.0,
2093.0,2095.0,59.0,-1.0,
2090.0,2107.0,59.0,-1.0,
2087.0,2118.0,59.0,-1.0,
2091.0,2116.0,59.0,-1.0,
2084.0,2113.0,59.0,-1.0,
2073.0,2119.0,59.0,-1.0,
2067.0,2125.0,59.0,-1.0,
2071.0,2122.0,59.0,-1.0,
2087.0,2132.0,59.0,-1.0,
2102.0,2108.0,59.0,-1.0,
2103.0,2110.0,59.0,-1.0,
2094.0,2120.0,59.0,-1.0,
2087.0,2128.0,59.0,-1.0,
2082.0,2160.0,59.0,-1.0,
2058.0,2059.0,59.0,-1.0,
2091.0,2098.0,59.0,-1.0,
2099.0,2125.0,59.0,-1.0,
2115.0,2167.0,59.0,-1.0,
2081.0,2083.0,59.0,-1.0,
2095.0,2093.0,59.0,-1.0,
2094.0,2077.0,59.0,-1.0,
2074.0,2085.0,59.0,-1.0,
2077.0,2097.0,59.0,-1.0,
2083.0,2101.0,59.0,-1.0,
2080.0,2110.0,59.0,-1.0,
2105.0,2119.0,59.0,-1.0,
2081.0,2118.0,59.0,-1.0,
2080.0,2117.0,59.0,-1.0,
2095.0,2115.0,59.0,-1.0,
2077.0,2118.0,59.0,-1.0,
2083.0,2108.0,59.0,-1.0,
2065.0,2116.0,59.0,-1.0,
2083.0,2109.0,59.0,-1.0,
2076.0,2112.0,59.0,-1.0,
2072.0,2116.0,59.0,-1.0,
2086.0,2116.0,59.0,-1.0,
2095.0,2117.0,59.0,-1.0,
2116.0,2117.0,59.0,-1.0,
2115.0,2113.0,59.0,-1.0,
2087.0,2173.0,59.0,-1.0,
2092.0,2088.0,59.0,-1.0,
2085.0,2133.0,59.0,-1.0,
2091.0,2124.0,59.0,-1.0,
2093.0,2110.0,59.0,-1.0,
2078.0,2106.0,59.0,-1.0,
2084.0,2104.0,59.0,-1.0,
2085.0,2106.0,59.0,-1.0,
2093.0,2104.0,59.0,-1.0,
2075.0,2064.0,59.0,-1.0,
2094.0,2094.0,59.0,-1.0,
2114.0,2114.0,59.0,-1.0,
2090.0,2123.0,59.0,-1.0,
2100.0,2124.0,59.0,-1.0,
2091.0,2124.0,59.0,-1.0,
2095.0,2129.0,59.0,-1.0,
2093.0,2065.0,59.0,-1.0,
2075.0,2110.0,59.0,-1.0,
2068.0,2120.0,59.0,-1.0,
2068.0,2099.0,59.0,-1.0,
2091.0,2122.0,59.0,-1.0,
2094.0,2165.0,59.0,-1.0,
2081.0,2045.0,59.0,-1.0,
2096.0,2136.0,59.0,-1.0,
2107.0,2120.0,59.0,-1.0,
2101.0,2087.0,59.0,-1.0,
2069.0,2078.0,59.0,-1.0,
2072.0,2100.0,59.0,-1.0,
2066.0,2103.0,59.0,-1.0,
2082.0,2113.0,59.0,-1.0,
2093.0,2130.0,59.0,-1.0,
2104.0,2097.0,59.0,-1.0,
2082.0,2111.0,59.0,-1.0,
2086.0,2108.0,59.0,-1.0,
2074.0,2113.0,59.0,-1.0,
2071.0,2130.0,59.0,-1.0,
2059.0,2114.0,59.0,-1.0,
2086.0,2132.0,59.0,-1.0,
2096.0,2123.0,59.0,-1.0,
2079.0,2126.0,59.0,-1.0,
2087.0,2128.0,59.0,-1.0,
2097.0,2126.0,59.0,-1.0,
2082.0,2115.0,59.0,-1.0,
2080.0,2115.0,59.0,-1.0,
2068.0,2088.0,59.0,-1.0,
2036.0,2105.0,59.0,-1.0,
2083.0,2148.0,59.0,-1.0,
2066.0,2142.0,59.0,-1.0,
2078.0,2164.0,59.0,-1.0,
2070.0,2160.0,59.0,-1.0,
2051.0,2103.0,59.0,-1.0,
2113.0,2148.0,59.0,-1.0,
2043.0,2081.0,59.0,-1.0,
2089.0,2052.0,59.0,-1.0,
2112.0,2068.0,59.0,-1.0,
2053.0,2058.0,59.0,-1.0,
2132.0,2078.0,59.0,-1.0,
2167.0,2104.0,59.0,-1.0,
2109.0,2100.0,59.0,-1.0,
2076.0,2063.0,59.0,-1.0,
2069.0,2053.0,59.0,-1.0,
2104.0,2041.0,59.0,-1.0,
2119.0,2076.0,59.0,-1.0,
2105.0,2100.0,59.0,-1.0,
2058.0,2168.0,59.0,-1.0,
2113.0,2176.0,59.0,-1.0,
2053.0,2155.0,59.0,-1.0,
2116.0,2244.0,59.0,-1.0,
2053.0,2230.0,59.0,-2.0,
2158.0,2250.0,59.0,-2.0,
2073.0,2159.0,59.0,-2.0,
1997.0,1986.0,59.0,-2.0,
2107.0,1929.0,59.0,-2.0,
2180.0,2054.0,59.0,-2.0,
2156.0,2141.0,59.0,-2.0,
2097.0,2101.0,59.0,-2.0,
2087.0,2086.0,59.0,-2.0,
2024.0,2094.0,59.0,-2.0,
2084.0,2135.0,59.0,-2.0,
2093.0,2183.0,59.0,-2.0,
2043.0,2149.0,59.0,-2.0,
2092.0,2110.0,59.0,-2.0,
2105.0,2022.0,59.0,-3.0,
2051.0,1945.0,59.0,-3.0,
2063.0,2066.0,59.0,-3.0,
2101.0,2242.0,59.0,-3.0,
2143.0,2398.0,60.0,-3.0,
2131.0,2251.0,60.0,-3.0,
2154.0,2229.0,60.0,-3.0,
2109.0,2139.0,60.0,-2.0,
2079.0,1799.0,60.0,-2.0,
2026.0,1846.0,60.0,-2.0,
2011.0,1994.0,60.0,-2.0,
2009.0,2077.0,60.0,-2.0,
2028.0,2174.0,60.0,-2.0,
2049.0,2103.0,60.0,-2.0,
2076.0,2179.0,60.0,-1.0,
2108.0,2098.0,0,
2126.0,2289.0,60.0,-1.0,
2123.0,2522.0,60.0,-1.0,
2136.0,2541.0,60.0,-1.0,
2111.0,2197.0,60.0,-1.0,
