2083.0,2098.0,20.0,-6.0,
2087.0,2101.0,20.0,-6.0,
2091.0,2099.0,20.0,-6.0,
2082.0,2080.0,20.0,-6.0,
2080.0,2086.0,20.0,-6.0,
2080.0,2125.0,20.0,-6.0,
2059.0,2074.0,19.0,-6.0,
2063.0,2072.0,20.0,-6.0,
2064.0,2077.0,20.0,-6.0,
2063.0,2088.0,19.0,-6.0,
2057.0,2077.0,19.0,-6.0,
2066.0,2078.0,20.0,-6.0,
2065.0,2076.0,20.0,-6.0,
2061.0,2072.0,20.0,-6.0,
2070.0,2076.0,20.0,-6.0,
2071.0,2076.0,20.0,-6.0,
2067.0,2089.0,20.0,-6.0,
2058.0,2078.0,20.0,-6.0,
2069.0,2085.0,20.0,-6.0,
2067.0,2086.0,20.0,-6.0,
2071.0,2077.0,20.0,-6.0,
2080.0,2091.0,21.0,-6.0,
2071.0,2083.0,21.0,-6.0,
2067.0,2080.0,21.0,-6.0,
2054.0,2077.0,21.0,-6.0,
2064.0,2077.0,21.0,-6.0,
2071.0,2082.0,21.0,-6.0,
2064.0,2088.0,21.0,-6.0,
2068.0,2098.0,21.0,-6.0,
2080.0,2092.0,21.0,-6.0,
2072.0,2087.0,21.0,-6.0,
2059.0,2077.0,21.0,-6.0,
2061.0,2077.0,21.0,-6.0,
2054.0,2079.0,21.0,-6.0,
2053.0,2080.0,21.0,-6.0,
2054.0,2080.0,21.0,-6.0,
2066.0,2091.0,20.0,-6.0,
2067.0,2081.0,20.0,-6.0,
2065.0,2082.0,20.0,-6.0,
2058.0,2085.0,20.0,-6.0,
2062.0,2083.0,20.0,-6.0,
2073.0,2077.0,20.0,-6.0,
2058.0,2079.0,20.0,-6.0,
2069.0,2078.0,20.0,-6.0,
2064.0,2077.0,20.0,-6.0,
2063.0,2089.0,20.0,-6.0,
2070.0,2093.0,20.0,-6.0,
2075.0,2090.0,20.0,-6.0,
2072.0,2089.0,20.0,-6.0,
2078.0,2097.0,20.0,-6.0,
2066.0,2077.0,20.0,-6.0,
2071.0,2077.0,20.0,-6.0,
2062.0,2075.0,20.0,-6.0,
2065.0,2080.0,20.0,-6.0,
2069.0,2081.0,20.0,-6.0,
2072.0,2089.0,20.0,-6.0,
2067.0,2091.0,20.0,-6.0,
2067.0,2082.0,20.0,-6.0,
2070.0,2082.0,20.0,-6.0,
2070.0,2081.0,20.0,-6.0,
2065.0,2075.0,20.0,-6.0,
2066.0,2085.0,20.0,-6.0,
2073.0,2088.0,20.0,-6.0,
2067.0,2092.0,20.0,-6.0,
2063.0,2084.0,21.0,-6.0,
2073.0,2084.0,21.0,-6.0,
2078.0,2089.0,21.0,-6.0,
2068.0,2082.0,21.0,-6.0,
2082.0,2081.0,20.0,-6.0,
2072.0,2084.0,20.0,-6.0,
2058.0,2082.0,20.0,-6.0,
2056.0,2083.0,20.0,-6.0,
2071.0,2087.0,20.0,-6.0,
2074.0,2084.0,20.0,-6.0,
2066.0,2072.0,20.0,-6.0,
2076.0,2093.0,20.0,-6.0,
2072.0,2078.0,20.0,-6.0,
2073.0,2079.0,20.0,-6.0,
2078.0,2078.0,20.0,-6.0,
2066.0,2080.0,20.0,-6.0,
2072.0,2084.0,20.0,-6.0,
2071.0,2093.0,20.0,-6.0,
2077.0,2092.0,20.0,-6.0,
2066.0,2082.0,20.0,-6.0,
2071.0,2078.0,20.0,-6.0,
2077.0,2080.0,20.0,-6.0,
2070.0,2080.0,20.0,-6.0,
2069.0,2080.0,20.0,-6.0,
2064.0,2082.0,20.0,-6.0,
2059.0,2082.0,20.0,-6.0,
2071.0,2089.0,20.0,-6.0,
2064.0,2090.0,20.0,-6.0,
2071.0,2085.0,20.0,-6.0,
2079.0,2083.0,20.0,-6.0,
2086.0,2090.0,20.0,-6.0,
2068.0,2093.0,20.0,-6.0,
2059.0,2080.0,20.0,-6.0,
2060.0,2077.0,20.0,-6.0,
2071.0,2087.0,20.0,-6.0,
2073.0,2088.0,20.0,-6.0,
2071.0,2092.0,20.0,-6.0,
2076.0,2093.0,20.0,-6.0,
2073.0,2091.0,20.0,-6.0,
2072.0,2082.0,20.0,-6.0,
2072.0,2080.0,20.0,-6.0,
2071.0,2077.0,20.0,-6.0,
2066.0,2076.0,20.0,-6.0,
2073.0,2088.0,20.0,-6.0,
2076.0,2096.0,20.0,-6.0,
2065.0,2082.0,20.0,-6.0,
2082.0,2087.0,20.0,-6.0,
2072.0,2078.0,20.0,-6.0,
2068.0,2091.0,20.0,-6.0,
2069.0,2079.0,20.0,-6.0,
2069.0,2078.0,20.0,-6.0,
2064.0,2083.0,20.0,-6.0,
2065.0,2084.0,20.0,-6.0,
2067.0,2087.0,20.0,-6.0,
2072.0,2084.0,20.0,-6.0,
2074.0,2084.0,20.0,-6.0,
2067.0,2090.0,20.0,-6.0,
2074.0,2083.0,20.0,-6.0,
2072.0,2082.0,20.0,-6.0,
2068.0,2076.0,20.0,-6.0,
2080.0,2079.0,20.0,-6.0,
2076.0,2086.0,20.0,-6.0,
2062.0,2084.0,20.0,-6.0,
2074.0,2090.0,20.0,-6.0,
2082.0,2091.0,20.0,-6.0,
2066.0,2082.0,20.0,-6.0,
2073.0,2080.0,20.0,-6.0,
2036.0,2077.0,0,
2073.0,2076.0,20.0,-6.0,
2068.0,2076.0,20.0,-6.0,
2074.0,2083.0,20.0,-6.0,
2065.0,2093.0,20.0,-6.0,
2072.0,2090.0,20.0,-6.0,
2077.0,2089.0,20.0,-6.0,
2070.0,2075.0,20.0,-6.0,
2070.0,2085.0,20.0,-6.0,
2066.0,2081.0,20.0,-6.0,
2070.0,2088.0,20.0,-6.0,
2066.0,2077.0,20.0,-6.0,
2061.0,2080.0,20.0,-6.0,
2066.0,2087.0,20.0,-6.0,
2066.0,2091.0,20.0,-6.0,
2067.0,2092.0,20.0,-6.0,
2077.0,2087.0,20.0,-6.0,
2072.0,2094.0,20.0,-6.0,
2072.0,2079.0,20.0,-6.0,
2070.0,2076.0,20.0,-6.0,
2066.0,2081.0,20.0,-6.0,
2065.0,2084.0,20.0,-6.0,
2068.0,2084.0,20.0,-6.0,
2071.0,2090.0,20.0,-6.0,
2075.0,2084.0,20.0,-6.0,
2075.0,2082.0,20.0,-6.0,
2070.0,2081.0,20.0,-6.0,
2064.0,2077.0,20.0,-6.0,
2063.0,2079.0,20.0,-6.0,
2059.0,2080.0,20.0,-6.0,
2066.0,2089.0,20.0,-6.0,
2057.0,2081.0,20.0,-6.0,
2064.0,2086.0,20.0,-6.0,
2067.0,2090.0,20.0,-6.0,
2073.0,2083.0,20.0,-6.0,
2064.0,2086.0,20.0,-6.0,
2070.0,2080.0,20.0,-6.0,
2059.0,2077.0,20.0,-6.0,
2059.0,2075.0,20.0,-6.0,
2068.0,2079.0,20.0,-6.0,
2063.0,2081.0,20.0,-6.0,
2070.0,2088.0,20.0,-6.0,
2075.0,2087.0,20.0,-6.0,
2077.0,2083.0,20.0,-6.0,
2069.0,2076.0,20.0,-6.0,
2077.0,2073.0,20.0,-6.0,
2074.0,2075.0,21.0,-6.0,
2062.0,2077.0,21.0,-6.0,
2063.0,2082.0,20.0,-6.0,
2064.0,2090.0,20.0,-6.0,
2063.0,2097.0,20.0,-6.0,
2072.0,2084.0,20.0,-6.0,
2073.0,2080.0,20.0,-6.0,
2053.0,2079.0,20.0,-6.0,
2065.0,2080.0,20.0,-6.0,
2058.0,2080.0,20.0,-6.0,
2067.0,2081.0,20.0,-6.0,
2068.0,2083.0,20.0,-6.0,
2066.0,2072.0,20.0,-6.0,
2065.0,2084.0,20.0,-6.0,
2071.0,2094.0,20.0,-6.0,
2064.0,2090.0,20.0,-6.0,
2071.0,2088.0,20.0,-6.0,
2067.0,2090.0,20.0,-6.0,
2064.0,2076.0,20.0,-6.0,
2054.0,2083.0,20.0,-6.0,
2061.0,2089.0,20.0,-6.0,
2067.0,2085.0,20.0,-6.0,
2071.0,2090.0,20.0,-6.0,
2072.0,2091.0,20.0,-6.0,
2068.0,2087.0,20.0,-6.0,
2069.0,2079.0,20.0,-6.0,
2067.0,2078.0,0,
2066.0,2070.0,20.0,-6.0,
2078.0,2073.0,20.0,-6.0,
2075.0,2085.0,20.0,-6.0,
2084.0,2095.0,20.0,-6.0,
2063.0,2085.0,20.0,-6.0,
2063.0,2087.0,20.0,-6.0,
2077.0,2086.0,20.0,-6.0,
2074.0,2078.0,20.0,-6.0,
2062.0,2077.0,20.0,-6.0,
2069.0,2079.0,20.0,-6.0,
2060.0,2079.0,20.0,-6.0,
2064.0,2077.0,20.0,-6.0,
2064.0,2085.0,20.0,-6.0,
2068.0,2083.0,20.0,-6.0,
2072.0,2079.0,20.0,-6.0,
2075.0,2083.0,20.0,-6.0,
2078.0,2081.0,20.0,-6.0,
2075.0,2077.0,20.0,-6.0,
2074.0,2077.0,20.0,-6.0,
2067.0,2073.0,20.0,-6.0,
2069.0,2079.0,20.0,-6.0,
2064.0,2085.0,20.0,-6.0,
2065.0,2089.0,20.0,-6.0,
2072.0,2093.0,20.0,-6.0,
2067.0,2087.0,21.0,-6.0,
2062.0,2074.0,21.0,-6.0,
2065.0,2077.0,21.0,-6.0,
2087.0,2076.0,21.0,-6.0,
2060.0,2079.0,21.0,-6.0,
2059.0,2081.0,21.0,-6.0,
2063.0,2082.0,20.0,-6.0,
2070.0,2079.0,20.0,-6.0,
2066.0,2088.0,20.0,-6.0,
2072.0,2084.0,20.0,-6.0,
2073.0,2085.0,20.0,-6.0,
2068.0,2084.0,20.0,-6.0,
2062.0,2083.0,20.0,-6.0,
2065.0,2079.0,20.0,-6.0,
2063.0,2081.0,20.0,-6.0,
2060.0,2087.0,20.0,-6.0,
2063.0,2090.0,20.0,-6.0,
2062.0,2088.0,20.0,-6.0,
2074.0,2094.0,20.0,-6.0,
2067.0,2083.0,20.0,-6.0,
2069.0,2085.0,20.0,-6.0,
2070.0,2078.0,20.0,-6.0,
2065.0,2078.0,20.0,-6.0,
2069.0,2082.0,20.0,-6.0,
2076.0,2091.0,20.0,-6.0,
2072.0,2076.0,20.0,-6.0,
2069.0,2083.0,20.0,-6.0,
2064.0,2084.0,20.0,-6.0,
2075.0,2075.0,20.0,-6.0,
2083.0,2081.0,20.0,-6.0,
2073.0,2078.0,20.0,-6.0,
2072.0,2093.0,21.0,-6.0,
2065.0,2084.0,21.0,-6.0,
2068.0,2087.0,21.0,-6.0,
2073.0,2085.0,20.0,-6.0,
2078.0,2089.0,20.0,-6.0,
2073.0,2086.0,20.0,-6.0,
2076.0,2083.0,20.0,-6.0,
2067.0,2081.0,20.0,-6.0,
2070.0,2077.0,20.0,-6.0,
2078.0,2079.0,20.0,-6.0,
2067.0,2078.0,20.0,-6.0,
2056.0,2082.0,20.0,-6.0,
2078.0,2086.0,20.0,-6.0,
2073.0,2096.0,20.0,-6.0,
2070.0,2081.0,20.0,-6.0,
2066.0,2086.0,20.0,-6.0,
2060.0,2076.0,20.0,-6.0,
2062.0,2076.0,20.0,-6.0,
2067.0,2068.0,20.0,-6.0,
2061.0,2082.0,20.0,-6.0,
2066.0,2091.0,20.0,-6.0,
2073.0,2089.0,20.0,-6.0,
2062.0,2089.0,20.0,-6.0,
2076.0,2085.0,20.0,-6.0,
2068.0,2081.0,20.0,-6.0,
2065.0,2081.0,20.0,-6.0,
2074.0,2086.0,20.0,-6.0,
2062.0,2077.0,20.0,-6.0,
2052.0,2078.0,20.0,-6.0,
2069.0,2084.0,20.0,-6.0,
2064.0,2087.0,20.0,-6.0,
2066.0,2088.0,20.0,-6.0,
2069.0,2090.0,20.0,-6.0,
2071.0,2082.0,20.0,-6.0,
2078.0,2080.0,20.0,-6.0,
2070.0,2070.0,20.0,-6.0,
2068.0,2078.0,20.0,-6.0,
2079.0,2084.0,20.0,-6.0,
2070.0,2080.0,20.0,-6.0,
2081.0,2087.0,20.0,-6.0,
2076.0,2084.0,21.0,-6.0,
2072.0,2085.0,21.0,-6.0,
2066.0,2079.0,21.0,-6.0,
2068.0,2087.0,21.0,-6.0,
2068.0,2078.0,21.0,-6.0,
2075.0,2079.0,21.0,-6.0,
2065.0,2083.0,21.0,-6.0,
2059.0,2089.0,21.0,-6.0,
2073.0,2087.0,21.0,-6.0,
2065.0,2083.0,20.0,-6.0,
2070.0,2091.0,20.0,-6.0,
2071.0,2086.0,20.0,-6.0,
2087.0,2084.0,20.0,-6.0,
2069.0,2083.0,20.0,-6.0,
2068.0,2072.0,20.0,-6.0,
2064.0,2079.0,20.0,-6.0,
2066.0,2077.0,20.0,-6.0,
2070.0,2084.0,20.0,-6.0,
2069.0,2087.0,20.0,-6.0,
2072.0,2084.0,20.0,-6.0,
2071.0,2073.0,20.0,-6.0,
2061.0,2075.0,20.0,-6.0,
2068.0,2079.0,20.0,-6.0,
2066.0,2075.0,20.0,-6.0,
2077.0,2085.0,20.0,-6.0,
2076.0,2085.0,20.0,-6.0,
2065.0,2087.0,20.0,-6.0,
2058.0,2091.0,20.0,-6.0,
2065.0,2090.0,20.0,-6.0,
2071.0,2083.0,20.0,-6.0,
2066.0,2087.0,20.0,-6.0,
2073.0,2080.0,20.0,-6.0,
2067.0,2092.0,20.0,-6.0,
2065.0,2077.0,20.0,-6.0,
2067.0,2089.0,20.0,-6.0,
2069.0,2088.0,20.0,-6.0,
2069.0,2087.0,20.0,-6.0,
2069.0,2088.0,20.0,-6.0,
2072.0,2099.0,20.0,-6.0,
2067.0,2084.0,21.0,-6.0,
2064.0,2081.0,21.0,-6.0,
2061.0,2080.0,21.0,-6.0,
2062.0,2084.0,21.0,-6.0,
2072.0,2084.0,21.0,-6.0,
2076.0,2086.0,21.0,-6.0,
2068.0,2091.0,21.0,-6.0,
2077.0,2087.0,21.0,-6.0,
2078.0,2084.0,0,
2077.0,2081.0,21.0,-6.0,
2069.0,2076.0,21.0,-6.0,
2074.0,2079.0,21.0,-6.0,
2070.0,2085.0,21.0,-6.0,
2062.0,2087.0,21.0,-6.0,
2069.0,2084.0,21.0,-6.0,
2078.0,2084.0,21.0,-6.0,
2074.0,2080.0,21.0,-6.0,
2077.0,2081.0,21.0,-6.0,
2075.0,2086.0,21.0,-6.0,
2085.0,2084.0,21.0,-6.0,
2062.0,2082.0,21.0,-6.0,
2077.0,2082.0,21.0,-6.0,
2069.0,2085.0,21.0,-6.0,
2075.0,2088.0,20.0,-6.0,
2072.0,2089.0,20.0,-6.0,
2069.0,2089.0,20.0,-6.0,
2078.0,2095.0,20.0,-6.0,
2074.0,2084.0,20.0,-6.0,
2072.0,2068.0,20.0,-6.0,
2069.0,2072.0,20.0,-6.0,
2065.0,2076.0,20.0,-6.0,
2066.0,2084.0,20.0,-6.0,
2063.0,2082.0,20.0,-6.0,
2071.0,2086.0,20.0,-6.0,
2071.0,2087.0,20.0,-6.0,
2066.0,2083.0,20.0,-6.0,
2054.0,2083.0,20.0,-6.0,
2061.0,2082.0,20.0,-6.0,
2065.0,2076.0,20.0,-6.0,
2060.0,2084.0,20.0,-6.0,
2066.0,2086.0,20.0,-6.0,
2057.0,2086.0,20.0,-6.0,
2068.0,2086.0,20.0,-6.0,
2061.0,2085.0,20.0,-6.0,
2069.0,2083.0,20.0,-6.0,
2071.0,2083.0,20.0,-6.0,
2068.0,2073.0,20.0,-6.0,
2064.0,2078.0,20.0,-6.0,
2069.0,2083.0,20.0,-6.0,
2070.0,2085.0,20.0,-6.0,
2071.0,2086.0,20.0,-6.0,
2067.0,2090.0,20.0,-6.0,
2078.0,2096.0,20.0,-6.0,
2076.0,2087.0,20.0,-6.0,
2080.0,2082.0,20.0,-6.0,
2067.0,2082.0,20.0,-6.0,
2068.0,2075.0,20.0,-6.0,
2072.0,2085.0,20.0,-6.0,
2076.0,2092.0,20.0,-6.0,
2066.0,2083.0,20.0,-6.0,
2078.0,2087.0,21.0,-6.0,
2075.0,2086.0,21.0,-6.0,
2077.0,2084.0,21.0,-6.0,
2070.0,2077.0,21.0,-6.0,
2069.0,2076.0,21.0,-6.0,
2077.0,2075.0,21.0,-6.0,
2066.0,2078.0,21.0,-6.0,
2066.0,2084.0,21.0,-6.0,
2072.0,2089.0,21.0,-6.0,
2073.0,2090.0,21.0,-6.0,
2067.0,2084.0,21.0,-6.0,
2079.0,2080.0,21.0,-6.0,
2083.0,2080.0,21.0,-6.0,
2074.0,2086.0,20.0,-6.0,
2064.0,2079.0,20.0,-6.0,
2066.0,2074.0,20.0,-6.0,
2068.0,2084.0,20.0,-6.0,
2076.0,2104.0,20.0,-6.0,
2077.0,2100.0,20.0,-6.0,
2070.0,2092.0,20.0,-6.0,
2069.0,2087.0,20.0,-6.0,
2074.0,2083.0,20.0,-6.0,
2066.0,2078.0,20.0,-6.0,
2069.0,2122.0,20.0,-6.0,
2060.0,2081.0,20.0,-6.0,
2070.0,2082.0,20.0,-6.0,
2069.0,2082.0,20.0,-6.0,
2064.0,2090.0,20.0,-6.0,
2071.0,2082.0,20.0,-6.0,
2084.0,2083.0,20.0,-6.0,
2074.0,2080.0,20.0,-6.0,
2079.0,2074.0,20.0,-6.0,
2066.0,2074.0,20.0,-6.0,
2059.0,2091.0,20.0,-6.0,
2073.0,2076.0,20.0,-6.0,
2075.0,2086.0,20.0,-6.0,
2077.0,2084.0,20.0,-6.0,
2076.0,2091.0,20.0,-6.0,
2072.0,2089.0,20.0,-6.0,
2067.0,2079.0,20.0,-6.0,
2073.0,2074.0,20.0,-6.0,
2067.0,2076.0,20.0,-6.0,
2067.0,2080.0,20.0,-6.0,
2068.0,2090.0,20.0,-6.0,
2074.0,2089.0,20.0,-6.0,
2073.0,2085.0,20.0,-6.0,
2081.0,2079.0,20.0,-6.0,
2078.0,2076.0,20.0,-6.0,
2063.0,2075.0,20.0,-6.0,
2069.0,2079.0,20.0,-6.0,
2061.0,2098.0,20.0,-6.0,
2056.0,2088.0,20.0,-6.0,
2069.0,2086.0,21.0,-6.0,
2070.0,2126.0,20.0,-6.0,
2061.0,2089.0,20.0,-6.0,
2068.0,2086.0,20.0,-6.0,
2070.0,2083.0,20.0,-6.0,
2072.0,2087.0,20.0,-6.0,
2068.0,2075.0,21.0,-6.0,
2066.0,2077.0,21.0,-6.0,
2067.0,2080.0,21.0,-6.0,
2071.0,2080.0,21.0,-6.0,
2063.0,2088.0,21.0,-6.0,
2062.0,2084.0,21.0,-6.0,
2089.0,2088.0,21.0,-6.0,
2072.0,2102.0,21.0,-6.0,
2064.0,2121.0,21.0,-6.0,
2070.0,2137.0,21.0,-6.0,
2070.0,2095.0,21.0,-6.0,
2070.0,2052.0,21.0,-6.0,
2076.0,2058.0,20.0,-6.0,
2066.0,2031.0,20.0,-6.0,
2079.0,2061.0,20.0,-6.0,
2083.0,2048.0,20.0,-6.0,
2071.0,2045.0,20.0,-6.0,
2072.0,2025.0,20.0,-6.0,
2079.0,2022.0,20.0,-6.0,
2073.0,2022.0,20.0,-6.0,
2064.0,2188.0,20.0,-6.0,
2056.0,2177.0,20.0,-6.0,
2053.0,2118.0,20.0,-6.0,
2066.0,2107.0,20.0,-6.0,
2064.0,2098.0,20.0,-6.0,
2072.0,2098.0,20.0,-6.0,
2082.0,2096.0,20.0,-6.0,
2069.0,2084.0,20.0,-6.0,
2068.0,2082.0,20.0,-6.0,
2057.0,2087.0,20.0,-6.0,
2047.0,2128.0,20.0,-6.0,
2066.0,2123.0,20.0,-6.0,
2071.0,2089.0,20.0,-6.0,
2064.0,2074.0,21.0,-6.0,
2063.0,2068.0,21.0,-6.0,
2058.0,2009.0,21.0,-6.0,
2067.0,2005.0,21.0,-6.0,
2062.0,1973.0,21.0,-6.0,
2062.0,2186.0,21.0,-6.0,
2076.0,2151.0,21.0,-6.0,
2061.0,2090.0,21.0,-6.0,
2066.0,2057.0,21.0,-6.0,
2073.0,2072.0,21.0,-6.0,
2080.0,2192.0,21.0,-6.0,
2087.0,2121.0,21.0,-6.0,
2098.0,2088.0,21.0,-6.0,
2082.0,2049.0,21.0,-6.0,
2064.0,2056.0,21.0,-6.0,
2055.0,2066.0,21.0,-6.0,
2066.0,2074.0,21.0,-6.0,
2075.0,2042.0,21.0,-6.0,
2082.0,2036.0,21.0,-6.0,
2085.0,2136.0,21.0,-6.0,
2071.0,2136.0,21.0,-6.0,
2078.0,2120.0,21.0,-6.0,
2060.0,2090.0,21.0,-6.0,
2063.0,2117.0,21.0,-6.0,
2073.0,2091.0,21.0,-6.0,
2083.0,2085.0,20.0,-6.0,
2082.0,2040.0,20.0,-6.0,
2074.0,2082.0,20.0,-6.0,
2063.0,2073.0,20.0,-6.0,
2064.0,2067.0,20.0,-6.0,
2077.0,2072.0,20.0,-6.0,
2074.0,2078.0,20.0,-6.0,
2080.0,2088.0,20.0,-6.0,
2078.0,2099.0,20.0,-6.0,
2071.0,2069.0,20.0,-6.0,
2060.0,2076.0,20.0,-6.0,
2080.0,2084.0,20.0,-6.0,
2090.0,2082.0,20.0,-6.0,
2091.0,2092.0,20.0,-6.0,
2038.0,2078.0,20.0,-6.0,
2033.0,2074.0,0,
2068.0,2106.0,20.0,-6.0,
2064.0,2127.0,20.0,-6.0,
2057.0,2105.0,20.0,-6.0,
2062.0,2077.0,20.0,-6.0,
2076.0,2091.0,20.0,-6.0,
2074.0,2078.0,20.0,-6.0,
2078.0,2082.0,20.0,-6.0,
2078.0,2025.0,20.0,-6.0,
2081.0,2072.0,20.0,-6.0,
2087.0,2094.0,20.0,-6.0,
2115.0,2169.0,20.0,-6.0,
2104.0,2090.0,20.0,-6.0,
2087.0,2024.0,20.0,-6.0,
2108.0,2117.0,20.0,-6.0,
2023.0,2102.0,20.0,-6.0,
2012.0,2072.0,20.0,-6.0,
2041.0,2040.0,20.0,-6.0,
2062.0,2032.0,20.0,-6.0,
2056.0,2088.0,20.0,-6.0,
2068.0,2061.0,20.0,-6.0,
2068.0,2032.0,20.0,-6.0,
2082.0,2028.0,21.0,-6.0,
2081.0,2200.0,21.0,-6.0,
2078.0,2165.0,21.0,-6.0,
2074.0,2090.0,21.0,-6.0,
2068.0,2024.0,21.0,-6.0,
2065.0,2049.0,21.0,-6.0,
2067.0,2224.0,21.0,-6.0,
2071.0,2264.0,21.0,-6.0,
2074.0,2135.0,20.0,-6.0,
2075.0,2029.0,20.0,-6.0,
2072.0,2044.0,20.0,-6.0,
2081.0,2097.0,20.0,-6.0,
2080.0,2070.0,20.0,-6.0,
2068.0,2069.0,20.0,-6.0,
2072.0,2061.0,20.0,-6.0,
2072.0,2084.0,20.0,-6.0,
2056.0,2071.0,20.0,-6.0,
2063.0,2031.0,20.0,-6.0,
2081.0,2003.0,20.0,-6.0,
2084.0,1950.0,21.0,-6.0,
2078.0,2058.0,20.0,-6.0,
2086.0,2068.0,20.0,-6.0,
2077.0,2063.0,20.0,-6.0,
2037.0,2076.0,20.0,-6.0,
2054.0,2098.0,20.0,-6.0,
2050.0,2116.0,20.0,-6.0,
2067.0,2183.0,20.0,-6.0,
2073.0,2166.0,20.0,-6.0,
2084.0,2094.0,20.0,-6.0,
2083.0,2068.0,20.0,-6.0,
2095.0,2081.0,20.0,-6.0,
2095.0,2049.0,20.0,-6.0,
2094.0,2065.0,20.0,-6.0,
2105.0,2063.0,20.0,-6.0,
2102.0,2052.0,21.0,-6.0,
2100.0,2042.0,21.0,-6.0,
2101.0,2016.0,21.0,-6.0,
2007.0,2202.0,21.0,-6.0,
1997.0,2145.0,21.0,-6.0,
2045.0,2242.0,21.0,-6.0,
1991.0,2132.0,21.0,-6.0,
2014.0,2000.0,21.0,-6.0,
2054.0,1995.0,20.0,-6.0,
2084.0,2096.0,20.0,-6.0,
2053.0,2006.0,20.0,-5.0,
2036.0,2079.0,20.0,-5.0,
2092.0,2234.0,20.0,-5.0,
2121.0,2133.0,20.0,-5.0,
2100.0,2011.0,20.0,-5.0,
2084.0,2034.0,20.0,-5.0,
2038.0,2063.0,20.0,-5.0,
2027.0,2158.0,20.0,-5.0,
2052.0,2150.0,20.0,-5.0,
2051.0,2092.0,20.0,-5.0,
2067.0,2142.0,20.0,-5.0,
2064.0,2153.0,20.0,-5.0,
2084.0,2020.0,20.0,-5.0,
2076.0,1857.0,20.0,-5.0,
2075.0,1913.0,20.0,-5.0,
2101.0,2195.0,0,
2080.0,2251.0,20.0,-5.0,
2083.0,2054.0,20.0,-5.0,
2087.0,2057.0,20.0,-5.0,
2088.0,2049.0,20.0,-5.0,
2077.0,2056.0,20.0,-5.0,
2092.0,2064.0,20.0,-5.0,
2083.0,2076.0,20.0,-5.0,
2072.0,2072.0,20.0,-5.0,
2074.0,2070.0,20.0,-6.0,
2075.0,2076.0,20.0,-6.0,
2061.0,2082.0,20.0,-6.0,
2062.0,2105.0,20.0,-6.0,
2069.0,2105.0,20.0,-6.0,
2075.0,2104.0,20.0,-6.0,
2080.0,2086.0,21.0,-6.0,
2069.0,2078.0,21.0,-6.0,
2092.0,2078.0,21.0,-6.0,
2080.0,2052.0,21.0,-6.0,
2055.0,2052.0,21.0,-6.0,
2088.0,2075.0,21.0,-6.0,
2121.0,2095.0,21.0,-7.0,
2100.0,2134.0,21.0,-7.0,
2043.0,2047.0,21.0,-7.0,
2050.0,2127.0,21.0,-7.0,
2044.0,2107.0,21.0,-8.0,
2034.0,2017.0,21.0,-8.0,
2048.0,2224.0,20.0,-8.0,
2072.0,2097.0,20.0,-8.0,
2113.0,2100.0,20.0,-8.0,
2051.0,2108.0,20.0,-8.0,
2044.0,2054.0,20.0,-8.0,
2069.0,2067.0,19.0,-8.0,
2001.0,1931.0,19.0,-8.0,
2010.0,2188.0,19.0,-8.0,
2039.0,2196.0,19.0,-8.0,
2045.0,1996.0,19.0,-8.0,
2075.0,1891.0,19.0,-8.0,
2079.0,1964.0,19.0,-8.0,
2124.0,2170.0,19.0,-7.0,
2061.0,2087.0,19.0,-7.0,
2092.0,2293.0,19.0,-7.0,
2058.0,2115.0,19.0,-7.0,
2074.0,2084.0,19.0,-7.0,
2117.0,2153.0,19.0,-6.0,
2084.0,2024.0,19.0,-6.0,
2007.0,2022.0,20.0,-6.0,
2049.0,2082.0,20.0,-6.0,
2046.0,2043.0,20.0,-6.0,
2057.0,2147.0,20.0,-6.0,
2060.0,2138.0,20.0,-6.0,
2066.0,2082.0,20.0,-6.0,
2079.0,1902.0,21.0,-6.0,
2099.0,2065.0,21.0,-6.0,
2066.0,2134.0,20.0,-6.0,
2076.0,2169.0,20.0,-6.0,
2069.0,2148.0,20.0,-6.0,
2063.0,2121.0,20.0,-6.0,
2074.0,2071.0,20.0,-6.0,
2094.0,2176.0,20.0,-4.0,
2104.0,2129.0,20.0,-5.0,
2112.0,2032.0,20.0,-6.0,
2057.0,1991.0,20.0,-6.0,
2063.0,2047.0,20.0,-6.0,
2049.0,2090.0,19.0,-7.0,
2054.0,2073.0,19.0,-7.0,
2061.0,2035.0,19.0,-7.0,
2084.0,2111.0,19.0,-7.0,
2066.0,2057.0,19.0,-8.0,
2085.0,2077.0,19.0,-9.0,
2089.0,2123.0,19.0,-8.0,
2070.0,2121.0,18.0,-8.0,
2073.0,2082.0,19.0,-9.0,
2086.0,2000.0,19.0,-9.0,
2087.0,2042.0,19.0,-10.0,
2075.0,2040.0,19.0,-10.0,
2039.0,2086.0,19.0,-10.0,
2064.0,2174.0,19.0,-11.0,
2050.0,2124.0,19.0,-11.0,
2048.0,2071.0,18.0,-12.0,
2065.0,2009.0,18.0,-12.0,
2071.0,2081.0,18.0,-12.0,
2069.0,2152.0,18.0,-11.0,
2043.0,2052.0,18.0,-11.0,
2051.0,2132.0,18.0,-11.0,
2037.0,2163.0,18.0,-11.0,
2077.0,2131.0,18.0,-12.0,
2050.0,2196.0,18.0,-12.0,
2076.0,2194.0,17.0,-12.0,
2072.0,2181.0,17.0,-11.0,
2080.0,2000.0,17.0,-11.0,
2128.0,1898.0,0,
2056.0,1946.0,17.0,-11.0,
2074.0,1977.0,17.0,-11.0,
2060.0,2088.0,17.0,-11.0,
2068.0,2103.0,17.0,-11.0,
2055.0,2152.0,17.0,-12.0,
2088.0,2090.0,17.0,-12.0,
2083.0,2052.0,17.0,-12.0,
2118.0,2101.0,17.0,-13.0,
2074.0,2074.0,17.0,-13.0,
2057.0,2099.0,17.0,-13.0,
2073.0,2126.0,17.0,-13.0,
2072.0,2069.0,17.0,-13.0,
2050.0,2050.0,17.0,-13.0,
2081.0,1971.0,17.0,-13.0,
2097.0,2070.0,17.0,-13.0,
2111.0,2040.0,18.0,-13.0,
2111.0,2118.0,18.0,-13.0,
2061.0,2008.0,18.0,-13.0,
2041.0,1964.0,18.0,-13.0,
2023.0,2013.0,18.0,-13.0,
2023.0,2138.0,18.0,-13.0,
2022.0,2273.0,18.0,-13.0,
2015.0,2290.0,19.0,-13.0,
2080.0,2232.0,19.0,-13.0,
2067.0,2027.0,19.0,-13.0,
2092.0,2060.0,19.0,-13.0,
2091.0,2063.0,19.0,-13.0,
2064.0,2069.0,19.0,-13.0,
2074.0,2045.0,19.0,-12.0,
2075.0,2070.0,19.0,-12.0,
2079.0,2142.0,19.0,-12.0,
2096.0,2115.0,19.0,-12.0,
2073.0,2070.0,19.0,-12.0,
2086.0,2081.0,19.0,-13.0,
2069.0,2015.0,19.0,-14.0,
2014.0,1947.0,19.0,-14.0,
2030.0,1979.0,19.0,-14.0,
2051.0,2149.0,19.0,-14.0,
2082.0,2225.0,19.0,-15.0,
2086.0,2071.0,19.0,-15.0,
2068.0,2051.0,19.0,-16.0,
2093.0,2063.0,19.0,-16.0,
2087.0,2127.0,19.0,-15.0,
2066.0,2154.0,19.0,-15.0,
2072.0,2117.0,19.0,-14.0,
2071.0,2112.0,19.0,-14.0,
2085.0,2131.0,20.0,-15.0,
2062.0,2049.0,20.0,-15.0,
2031.0,2030.0,20.0,-15.0,
2051.0,1891.0,20.0,-15.0,
2107.0,1966.0,20.0,-15.0,
2096.0,2037.0,20.0,-15.0,
2063.0,2072.0,20.0,-15.0,
2049.0,2207.0,21.0,-15.0,
2100.0,2073.0,21.0,-15.0,
2110.0,2133.0,21.0,-15.0,
2087.0,2134.0,21.0,-15.0,
2098.0,2095.0,21.0,-15.0,
2043.0,2136.0,21.0,-15.0,
2034.0,2075.0,21.0,-15.0,
2029.0,2104.0,22.0,-15.0,
1985.0,2074.0,22.0,-15.0,
2031.0,2118.0,22.0,-14.0,
2079.0,2160.0,21.0,-13.0,
2067.0,2002.0,22.0,-13.0,
2098.0,1991.0,22.0,-13.0,
2123.0,2198.0,22.0,-14.0,
2091.0,2062.0,22.0,-15.0,
2073.0,2041.0,21.0,-15.0,
2078.0,2080.0,21.0,-15.0,
2049.0,1999.0,21.0,-16.0,
2093.0,2117.0,21.0,-16.0,
2060.0,2136.0,21.0,-17.0,
2045.0,2092.0,21.0,-17.0,
2044.0,2150.0,21.0,-18.0,
2070.0,2067.0,21.0,-18.0,
2065.0,2111.0,21.0,-17.0,
2082.0,2206.0,21.0,-17.0,
2067.0,2225.0,21.0,-17.0,
2060.0,1944.0,21.0,-17.0,
2086.0,1982.0,21.0,-17.0,
2059.0,2025.0,21.0,-17.0,
2054.0,2131.0,21.0,-17.0,
2074.0,2062.0,21.0,-18.0,
2063.0,2022.0,21.0,-18.0,
2090.0,1984.0,21.0,-18.0,
2071.0,2057.0,21.0,-18.0,
2068.0,2223.0,21.0,-18.0,
2057.0,2155.0,21.0,-19.0,
2080.0,2120.0,21.0,-19.0,
2070.0,2041.0,21.0,-19.0,
2078.0,2012.0,21.0,-19.0,
2053.0,2030.0,21.0,-19.0,
2052.0,2069.0,21.0,-19.0,
2074.0,2163.0,21.0,-20.0,
2090.0,2046.0,21.0,-20.0,
2083.0,2020.0,21.0,-20.0,
2059.0,2106.0,21.0,-20.0,
2066.0,2138.0,21.0,-20.0,
2090.0,2090.0,21.0,-20.0,
2066.0,2130.0,21.0,-21.0,
2071.0,2208.0,21.0,-21.0,
2016.0,2138.0,21.0,-21.0,
2043.0,2058.0,21.0,-21.0,
2017.0,1932.0,21.0,-21.0,
2085.0,1911.0,21.0,-21.0,
2070.0,1888.0,21.0,-21.0,
2056.0,2124.0,21.0,-21.0,
2027.0,2125.0,21.0,-21.0,
2068.0,2279.0,21.0,-21.0,
2093.0,2307.0,21.0,-21.0,
2099.0,2060.0,21.0,-21.0,
2102.0,2006.0,21.0,-21.0,
2101.0,1999.0,21.0,-21.0,
2082.0,2076.0,21.0,-21.0,
2067.0,2047.0,21.0,-21.0,
2067.0,2014.0,21.0,-21.0,
2071.0,1973.0,21.0,-21.0,
2072.0,2089.0,22.0,-21.0,
2086.0,2202.0,22.0,-21.0,
2091.0,2249.0,22.0,-21.0,
2091.0,2230.0,22.0,-21.0,
2100.0,2044.0,22.0,-21.0,
2099.0,1808.0,22.0,-21.0,
2064.0,1952.0,22.0,-21.0,
2012.0,2203.0,22.0,-21.0,
2016.0,2239.0,22.0,-22.0,
2020.0,1979.0,22.0,-22.0,
2036.0,2101.0,22.0,-21.0,
2030.0,2062.0,22.0,-21.0,
2062.0,2160.0,22.0,-21.0,
2079.0,2057.0,22.0,-21.0,
2069.0,1968.0,22.0,-21.0,
2079.0,2203.0,22.0,-21.0,
2068.0,2076.0,22.0,-21.0,
2102.0,2039.0,22.0,-21.0,
2072.0,2031.0,22.0,-21.0,
2077.0,2171.0,22.0,-21.0,
2086.0,2103.0,22.0,-21.0,
2063.0,2059.0,22.0,-21.0,
2053.0,2056.0,22.0,-21.0,
2063.0,2082.0,22.0,-21.0,
2076.0,2060.0,22.0,-21.0,
2058.0,2220.0,22.0,-22.0,
2038.0,2150.0,22.0,-22.0,
2101.0,2039.0,22.0,-22.0,
2088.0,2000.0,22.0,-22.0,
2087.0,1899.0,22.0,-22.0,
2102.0,2232.0,22.0,-22.0,
2073.0,2178.0,22.0,-23.0,
2070.0,2077.0,22.0,-23.0,
2022.0,1965.0,22.0,-23.0,
2081.0,1989.0,22.0,-23.0,
2117.0,2124.0,22.0,-23.0,
2087.0,2101.0,21.0,-24.0,
2049.0,2117.0,21.0,-24.0,
2055.0,2028.0,21.0,-24.0,
2086.0,2070.0,21.0,-24.0,
2036.0,1961.0,21.0,-24.0,
2088.0,2019.0,21.0,-25.0,
2041.0,2124.0,20.0,-25.0,
2065.0,2106.0,20.0,-25.0,
2042.0,2203.0,20.0,-25.0,
2070.0,2149.0,20.0,-25.0,
2050.0,2152.0,20.0,-26.0,
2087.0,2144.0,20.0,-26.0,
2091.0,2089.0,20.0,-26.0,
2114.0,2047.0,20.0,-26.0,
2085.0,1998.0,20.0,-26.0,
2002.0,2007.0,20.0,-26.0,
2018.0,2264.0,21.0,-26.0,
2038.0,2266.0,21.0,-26.0,
2089.0,1976.0,21.0,-26.0,
2100.0,1902.0,21.0,-27.0,
2106.0,2265.0,21.0,-27.0,
2068.0,1929.0,21.0,-27.0,
2074.0,2105.0,21.0,-27.0,
2018.0,2106.0,22.0,-27.0,
2074.0,2185.0,22.0,-27.0,
2041.0,2142.0,22.0,-26.0,
2072.0,1985.0,22.0,-26.0,
2094.0,1955.0,22.0,-26.0,
2110.0,2059.0,22.0,-26.0,
2086.0,2272.0,23.0,-26.0,
2059.0,2017.0,23.0,-26.0,
2077.0,1935.0,23.0,-26.0,
2076.0,2170.0,23.0,-26.0,
2078.0,2154.0,23.0,-26.0,
2070.0,2275.0,23.0,-26.0,
2080.0,2100.0,23.0,-26.0,
2067.0,2009.0,23.0,-26.0,
2065.0,2071.0,23.0,-26.0,
2013.0,2106.0,23.0,-26.0,
2050.0,2095.0,23.0,-27.0,
2095.0,2141.0,23.0,-27.0,
2121.0,2146.0,23.0,-27.0,
2054.0,1996.0,23.0,-27.0,
2093.0,1980.0,23.0,-28.0,
2053.0,2099.0,23.0,-28.0,
2042.0,2034.0,23.0,-28.0,
2051.0,2161.0,23.0,-29.0,
2071.0,2040.0,23.0,-29.0,
2052.0,2106.0,23.0,-29.0,
2043.0,2233.0,23.0,-29.0,
2024.0,2248.0,22.0,-29.0,
2032.0,2010.0,22.0,-29.0,
2072.0,2201.0,22.0,-29.0,
2047.0,1982.0,22.0,-29.0,
2097.0,2042.0,22.0,-29.0,
2101.0,2151.0,21.0,-29.0,
2130.0,1959.0,21.0,-29.0,
2074.0,1987.0,21.0,-29.0,
2056.0,1896.0,21.0,-30.0,
2073.0,2075.0,21.0,-30.0,
2021.0,2078.0,21.0,-30.0,
2069.0,1994.0,21.0,-30.0,
2092.0,2343.0,21.0,-30.0,
2066.0,2081.0,21.0,-30.0,
2076.0,2159.0,21.0,-30.0,
2067.0,2048.0,21.0,-30.0,
2027.0,1939.0,21.0,-30.0,
2093.0,2011.0,21.0,-31.0,
2086.0,2244.0,21.0,-31.0,
2076.0,2213.0,21.0,-31.0,
2078.0,2142.0,22.0,-31.0,
2060.0,2015.0,22.0,-31.0,
2074.0,2275.0,22.0,-31.0,
2116.0,2081.0,22.0,-32.0,
2067.0,2211.0,22.0,-32.0,
2059.0,2083.0,22.0,-32.0,
2052.0,1925.0,22.0,-32.0,
2041.0,1940.0,22.0,-32.0,
2075.0,2077.0,22.0,-32.0,
2074.0,2165.0,22.0,-33.0,
2050.0,1993.0,22.0,-33.0,
2028.0,2070.0,21.0,-33.0,
2025.0,2103.0,21.0,-33.0,
2096.0,2119.0,21.0,-33.0,
2063.0,2102.0,21.0,-33.0,
2110.0,2158.0,21.0,-33.0,
2117.0,2106.0,21.0,-33.0,
2086.0,1988.0,21.0,-33.0,
2027.0,2001.0,21.0,-33.0,
2070.0,2266.0,21.0,-33.0,
2018.0,2164.0,21.0,-33.0,
2076.0,1984.0,22.0,-33.0,
2114.0,1936.0,22.0,-33.0,
2065.0,2089.0,22.0,-33.0,
2054.0,2000.0,22.0,-33.0,
2078.0,2226.0,22.0,-33.0,
2011.0,2040.0,22.0,-34.0,
2063.0,2145.0,22.0,-34.0,
2027.0,2297.0,22.0,-34.0,
2098.0,2306.0,22.0,-34.0,
2126.0,2031.0,22.0,-34.0,
2076.0,1903.0,22.0,-34.0,
2036.0,2069.0,22.0,-34.0,
2040.0,1984.0,22.0,-34.0,
2054.0,2063.0,23.0,-34.0,
2055.0,2101.0,23.0,-34.0,
2072.0,2015.0,23.0,-34.0,
2091.0,2081.0,23.0,-34.0,
2060.0,2147.0,23.0,-35.0,
2061.0,2055.0,23.0,-35.0,
2087.0,2236.0,23.0,-35.0,
2138.0,2022.0,23.0,-35.0,
2062.0,2070.0,23.0,-35.0,
2085.0,2048.0,23.0,-36.0,
2110.0,2110.0,23.0,-36.0,
2070.0,2008.0,23.0,-36.0,
2090.0,2153.0,23.0,-36.0,
2042.0,2037.0,23.0,-36.0,
2015.0,1990.0,23.0,-37.0,
2065.0,2062.0,23.0,-37.0,
2052.0,2140.0,23.0,-37.0,
2014.0,1874.0,23.0,-37.0,
2043.0,1920.0,23.0,-37.0,
2072.0,2192.0,22.0,-38.0,
2012.0,2194.0,22.0,-38.0,
2051.0,2097.0,22.0,-38.0,
2128.0,2230.0,22.0,-38.0,
2122.0,2289.0,22.0,-39.0,
2117.0,2173.0,22.0,-39.0,
2030.0,2077.0,22.0,-39.0,
2048.0,1969.0,22.0,-39.0,
2092.0,1952.0,22.0,-39.0,
2097.0,2022.0,22.0,-40.0,
2112.0,2173.0,22.0,-40.0,
2095.0,1845.0,22.0,-40.0,
1970.0,1892.0,22.0,-40.0,
2022.0,2470.0,22.0,-40.0,
2072.0,2165.0,22.0,-40.0,
2086.0,2036.0,22.0,-40.0,
2053.0,2059.0,22.0,-40.0,
2081.0,2054.0,22.0,-40.0,
2081.0,1942.0,22.0,-40.0,
2170.0,2022.0,21.0,-39.0,
2062.0,2260.0,21.0,-39.0,
1997.0,2267.0,21.0,-39.0,
1972.0,2127.0,21.0,-39.0,
2034.0,2253.0,21.0,-39.0,
2094.0,2182.0,21.0,-39.0,
2136.0,1937.0,22.0,-39.0,
2049.0,1942.0,22.0,-40.0,
2047.0,1773.0,22.0,-40.0,
2092.0,2195.0,22.0,-40.0,
2034.0,1987.0,23.0,-40.0,
2073.0,2062.0,23.0,-40.0,
2006.0,1966.0,23.0,-40.0,
2071.0,2379.0,23.0,-40.0,
2076.0,2063.0,24.0,-40.0,
2088.0,2099.0,24.0,-40.0,
2110.0,2063.0,0,
2103.0,2111.0,24.0,-40.0,
2112.0,2280.0,24.0,-40.0,
2104.0,2045.0,24.0,-40.0,
2082.0,1992.0,23.0,-40.0,
2007.0,1835.0,23.0,-40.0,
2092.0,2203.0,23.0,-40.0,
2065.0,2172.0,23.0,-40.0,
2068.0,2175.0,23.0,-40.0,
2058.0,2021.0,23.0,-41.0,
2011.0,1918.0,23.0,-41.0,
2065.0,2121.0,22.0,-41.0,
2064.0,2181.0,22.0,-41.0,
2068.0,2077.0,22.0,-41.0,
2054.0,2063.0,22.0,-42.0,
2072.0,2066.0,22.0,-42.0,
2086.0,2145.0,22.0,-43.0,
2099.0,1994.0,22.0,-43.0,
2085.0,2014.0,22.0,-43.0,
2109.0,2054.0,22.0,-44.0,
2074.0,2202.0,0,
2047.0,2057.0,22.0,-44.0,
2102.0,2053.0,22.0,-44.0,
2017.0,2009.0,22.0,-45.0,
2068.0,2030.0,22.0,-45.0,
2061.0,2287.0,22.0,-45.0,
2020.0,2024.0,22.0,-45.0,
2028.0,1834.0,22.0,-45.0,
2074.0,1951.0,22.0,-45.0,
2086.0,2250.0,22.0,-45.0,
2120.0,2417.0,22.0,-46.0,
2114.0,2189.0,22.0,-46.0,
2110.0,1997.0,22.0,-46.0,
2089.0,2086.0,22.0,-46.0,
2049.0,2228.0,22.0,-46.0,
2099.0,2098.0,22.0,-46.0,
2054.0,1982.0,22.0,-46.0,
2053.0,1842.0,22.0,-46.0,
2075.0,1795.0,22.0,-45.0,
2064.0,2030.0,22.0,-45.0,
1997.0,2057.0,22.0,-45.0,
2087.0,2371.0,23.0,-45.0,
2056.0,1915.0,23.0,-45.0,
2102.0,2287.0,23.0,-45.0,
2095.0,2273.0,23.0,-44.0,
2018.0,1946.0,23.0,-44.0,
2010.0,2058.0,23.0,-44.0,
2044.0,2206.0,23.0,-44.0,
2096.0,2112.0,23.0,-44.0,
2075.0,2076.0,23.0,-44.0,
2065.0,1966.0,23.0,-44.0,
2097.0,2034.0,23.0,-44.0,
2077.0,1898.0,23.0,-44.0,
2087.0,2415.0,23.0,-44.0,
2090.0,2284.0,23.0,-44.0,
2035.0,1881.0,23.0,-44.0,
2065.0,1885.0,23.0,-44.0,
2029.0,1988.0,23.0,-44.0,
2031.0,2152.0,22.0,-44.0,
2069.0,2118.0,22.0,-44.0,
2051.0,2033.0,22.0,-44.0,
2116.0,2067.0,22.0,-45.0,
2108.0,2033.0,22.0,-45.0,
2116.0,2076.0,22.0,-45.0,
2067.0,2049.0,22.0,-45.0,
2013.0,2137.0,22.0,-45.0,
2028.0,2244.0,22.0,-45.0,
2057.0,2134.0,22.0,-45.0,
2072.0,1884.0,22.0,-45.0,
2092.0,1940.0,22.0,-45.0,
2120.0,2097.0,22.0,-46.0,
2079.0,2225.0,21.0,-46.0,
2105.0,2024.0,22.0,-46.0,
2132.0,1915.0,21.0,-46.0,
2052.0,2090.0,21.0,-46.0,
2039.0,2041.0,21.0,-46.0,
2018.0,2159.0,21.0,-46.0,
2122.0,2205.0,21.0,-46.0,
2068.0,2063.0,21.0,-46.0,
2041.0,2224.0,21.0,-46.0,
1989.0,2175.0,21.0,-46.0,
2062.0,2079.0,21.0,-45.0,
2029.0,2113.0,21.0,-45.0,
2033.0,2233.0,21.0,-45.0,
2013.0,1996.0,21.0,-45.0,
2061.0,2038.0,21.0,-45.0,
2070.0,2163.0,21.0,-44.0,
2155.0,2159.0,21.0,-44.0,
2058.0,1969.0,21.0,-44.0,
2074.0,2035.0,21.0,-44.0,
2088.0,1965.0,21.0,-44.0,
2068.0,1957.0,22.0,-44.0,
2087.0,1940.0,22.0,-44.0,
2053.0,2109.0,22.0,-44.0,
2118.0,1964.0,22.0,-44.0,
2069.0,2102.0,22.0,-44.0,
2012.0,2082.0,22.0,-44.0,
2103.0,2101.0,22.0,-44.0,
2132.0,2049.0,22.0,-44.0,
2047.0,2035.0,22.0,-45.0,
2115.0,2291.0,22.0,-45.0,
2060.0,2010.0,22.0,-45.0,
1985.0,1999.0,22.0,-45.0,
2045.0,2097.0,0,
2084.0,2052.0,22.0,-45.0,
2075.0,2189.0,22.0,-46.0,
2057.0,2088.0,22.0,-46.0,
2073.0,2041.0,22.0,-46.0,
2092.0,2034.0,22.0,-46.0,
2028.0,1939.0,22.0,-46.0,
2061.0,2271.0,22.0,-47.0,
2084.0,2088.0,22.0,-47.0,
2068.0,2423.0,22.0,-47.0,
2088.0,2099.0,22.0,-47.0,
2057.0,1704.0,22.0,-47.0,
2036.0,2003.0,22.0,-47.0,
2101.0,2159.0,22.0,-47.0,
2115.0,2121.0,22.0,-47.0,
2144.0,2167.0,22.0,-48.0,
2144.0,2107.0,22.0,-48.0,
1945.0,2050.0,22.0,-48.0,
1914.0,1927.0,22.0,-48.0,
2050.0,2032.0,22.0,-48.0,
2105.0,2143.0,22.0,-48.0,
2118.0,2251.0,22.0,-48.0,
2024.0,2171.0,22.0,-48.0,
2051.0,2052.0,22.0,-48.0,
2079.0,2076.0,22.0,-48.0,
2039.0,1970.0,22.0,-47.0,
2046.0,1985.0,22.0,-47.0,
2073.0,2062.0,22.0,-47.0,
2051.0,2042.0,22.0,-47.0,
2084.0,1921.0,22.0,-47.0,
2110.0,1967.0,22.0,-47.0,
2078.0,2273.0,22.0,-47.0,
2106.0,2406.0,22.0,-47.0,
2083.0,2127.0,22.0,-47.0,
2010.0,2002.0,22.0,-47.0,
2091.0,1993.0,22.0,-47.0,
2066.0,1976.0,22.0,-47.0,
2112.0,2000.0,22.0,-47.0,
2144.0,2046.0,22.0,-47.0,
2108.0,2164.0,22.0,-47.0,
2037.0,2080.0,22.0,-47.0,
1977.0,2238.0,22.0,-48.0,
2027.0,2000.0,22.0,-48.0,
2081.0,2091.0,22.0,-48.0,
2006.0,2098.0,21.0,-48.0,
2036.0,1966.0,21.0,-48.0,
2108.0,2141.0,21.0,-48.0,
2181.0,2232.0,21.0,-48.0,
2186.0,2211.0,21.0,-48.0,
2071.0,2048.0,21.0,-48.0,
1880.0,1940.0,21.0,-49.0,
1993.0,1901.0,21.0,-49.0,
2067.0,2097.0,21.0,-49.0,
2038.0,2107.0,21.0,-49.0,
2045.0,1966.0,21.0,-49.0,
2071.0,2362.0,20.0,-49.0,
2130.0,2086.0,21.0,-49.0,
2136.0,2055.0,21.0,-49.0,
2032.0,2175.0,21.0,-49.0,
2040.0,1879.0,21.0,-49.0,
2122.0,1907.0,21.0,-49.0,
2131.0,2078.0,21.0,-49.0,
2140.0,2323.0,21.0,-49.0,
1964.0,1958.0,21.0,-49.0,
2102.0,1948.0,21.0,-48.0,
2101.0,2120.0,22.0,-49.0,
2036.0,2302.0,21.0,-49.0,
2010.0,2015.0,21.0,-49.0,
2031.0,1673.0,21.0,-49.0,
2032.0,2144.0,21.0,-49.0,
2105.0,2588.0,21.0,-49.0,
2069.0,2031.0,21.0,-49.0,
2138.0,2022.0,21.0,-49.0,
2035.0,2089.0,21.0,-50.0,
2023.0,2215.0,21.0,-50.0,
2116.0,2024.0,21.0,-50.0,
2089.0,2142.0,21.0,-50.0,
2066.0,1980.0,21.0,-50.0,
2065.0,1875.0,21.0,-50.0,
2060.0,2073.0,21.0,-50.0,
2133.0,2335.0,21.0,-50.0,
2069.0,2194.0,21.0,-50.0,
2008.0,1999.0,21.0,-50.0,
2033.0,1945.0,21.0,-50.0,
2093.0,2049.0,21.0,-50.0,
2021.0,1825.0,21.0,-50.0,
2058.0,2166.0,21.0,-50.0,
2070.0,2082.0,22.0,-50.0,
2124.0,2265.0,21.0,-50.0,
2083.0,2056.0,21.0,-50.0,
2068.0,1989.0,21.0,-51.0,
2076.0,2036.0,21.0,-50.0,
2112.0,2339.0,21.0,-51.0,
2063.0,2009.0,21.0,-51.0,
2016.0,2232.0,21.0,-51.0,
2063.0,2209.0,21.0,-51.0,
2043.0,2187.0,21.0,-51.0,
2078.0,2160.0,21.0,-51.0,
2119.0,2047.0,21.0,-51.0,
2099.0,2199.0,21.0,-51.0,
2063.0,2227.0,21.0,-51.0,
2088.0,1944.0,21.0,-51.0,
2136.0,1970.0,21.0,-51.0,
2145.0,1944.0,21.0,-51.0,
1899.0,1968.0,21.0,-51.0,
2004.0,1969.0,21.0,-51.0,
2082.0,2055.0,21.0,-50.0,
2035.0,2152.0,21.0,-50.0,
2079.0,2322.0,21.0,-51.0,
2117.0,2096.0,21.0,-51.0,
2044.0,1949.0,21.0,-51.0,
2051.0,2114.0,21.0,-51.0,
2098.0,1873.0,21.0,-51.0,
2053.0,1817.0,21.0,-51.0,
2087.0,1838.0,21.0,-51.0,
2049.0,2414.0,21.0,-51.0,
2003.0,2413.0,21.0,-51.0,
2052.0,1992.0,21.0,-51.0,
2073.0,2048.0,21.0,-51.0,
2110.0,2069.0,21.0,-51.0,
2141.0,2156.0,21.0,-51.0,
2031.0,1948.0,21.0,-51.0,
2047.0,2059.0,21.0,-51.0,
2115.0,2320.0,0,
2103.0,2287.0,21.0,-51.0,
2125.0,1968.0,21.0,-51.0,
2005.0,2110.0,21.0,-51.0,
2011.0,1944.0,21.0,-51.0,
2113.0,1979.0,21.0,-51.0,
2227.0,2418.0,21.0,-51.0,
2049.0,2173.0,21.0,-51.0,
1941.0,2138.0,21.0,-51.0,
1900.0,2018.0,21.0,-51.0,
2078.0,1966.0,21.0,-51.0,
2058.0,2065.0,21.0,-51.0,
2019.0,2161.0,21.0,-51.0,
2091.0,1848.0,21.0,-51.0,
2071.0,1865.0,20.0,-52.0,
2143.0,2116.0,21.0,-51.0,
2134.0,1954.0,21.0,-51.0,
2066.0,2400.0,21.0,-51.0,
2011.0,2112.0,21.0,-51.0,
2029.0,1821.0,21.0,-51.0,
2016.0,1893.0,21.0,-51.0,
2075.0,2168.0,21.0,-51.0,
2132.0,2278.0,22.0,-51.0,
2153.0,2285.0,22.0,-51.0,
2148.0,2065.0,22.0,-51.0,
2085.0,1884.0,22.0,-51.0,
2029.0,2074.0,22.0,-52.0,
2025.0,2254.0,22.0,-52.0,
2085.0,2015.0,22.0,-52.0,
2075.0,2042.0,22.0,-52.0,
1996.0,2161.0,22.0,-52.0,
1984.0,2024.0,22.0,-52.0,
2115.0,2170.0,22.0,-52.0,
2144.0,2215.0,22.0,-52.0,
1920.0,2289.0,22.0,-52.0,
2007.0,1924.0,22.0,-52.0,
2125.0,2054.0,22.0,-52.0,
2070.0,2191.0,22.0,-51.0,
2087.0,2101.0,22.0,-51.0,
2122.0,2238.0,22.0,-51.0,
2030.0,2108.0,21.0,-51.0,
2039.0,1984.0,21.0,-51.0,
2184.0,1911.0,21.0,-51.0,
2245.0,2135.0,21.0,-51.0,
2063.0,2118.0,21.0,-51.0,
1960.0,2220.0,21.0,-51.0,
1861.0,2059.0,21.0,-51.0,
2030.0,1744.0,21.0,-51.0,
2106.0,1694.0,21.0,-51.0,
2117.0,2282.0,21.0,-51.0,
2192.0,2330.0,21.0,-51.0,
2081.0,2144.0,21.0,-51.0,
2013.0,2179.0,21.0,-51.0,
1932.0,1816.0,21.0,-51.0,
2028.0,2123.0,21.0,-51.0,
2058.0,2337.0,21.0,-51.0,
2081.0,2143.0,20.0,-51.0,
2054.0,2068.0,20.0,-51.0,
2096.0,1860.0,20.0,-51.0,
2136.0,1963.0,20.0,-51.0,
2090.0,2146.0,20.0,-51.0,
2111.0,2046.0,20.0,-51.0,
2131.0,2093.0,20.0,-51.0,
2093.0,2071.0,20.0,-51.0,
1996.0,1989.0,20.0,-51.0,
2115.0,1897.0,20.0,-51.0,
2128.0,2056.0,20.0,-52.0,
1997.0,2292.0,20.0,-52.0,
1967.0,2129.0,20.0,-52.0,
2084.0,2106.0,20.0,-52.0,
2029.0,2136.0,20.0,-52.0,
2133.0,2188.0,21.0,-52.0,
2134.0,1849.0,21.0,-52.0,
2085.0,2111.0,21.0,-52.0,
1975.0,2220.0,21.0,-52.0,
2144.0,2172.0,21.0,-52.0,
2007.0,2105.0,21.0,-52.0,
2039.0,2077.0,21.0,-52.0,
2060.0,2117.0,21.0,-52.0,
2051.0,2195.0,21.0,-52.0,
2045.0,1994.0,22.0,-52.0,
2137.0,1873.0,21.0,-52.0,
2109.0,1579.0,21.0,-52.0,
2117.0,2337.0,21.0,-52.0,
1983.0,2443.0,21.0,-52.0,
2102.0,2137.0,22.0,-52.0,
1987.0,2022.0,21.0,-52.0,
2049.0,1964.0,21.0,-52.0,
2118.0,1967.0,21.0,-52.0,
2078.0,2087.0,22.0,-52.0,
2078.0,1970.0,21.0,-52.0,
2064.0,2088.0,21.0,-52.0,
2091.0,2055.0,21.0,-52.0,
2090.0,2003.0,21.0,-53.0,
2103.0,2239.0,21.0,-53.0,
2047.0,2364.0,21.0,-53.0,
2114.0,2110.0,21.0,-53.0,
1974.0,2061.0,21.0,-53.0,
2133.0,2333.0,21.0,-53.0,
2124.0,2384.0,21.0,-53.0,
2040.0,1984.0,21.0,-53.0,
2100.0,1849.0,21.0,-53.0,
2066.0,1987.0,21.0,-53.0,
2024.0,1913.0,21.0,-53.0,
2083.0,1944.0,21.0,-53.0,
2164.0,2172.0,21.0,-53.0,
2165.0,2040.0,21.0,-53.0,
2039.0,2000.0,21.0,-53.0,
2062.0,2203.0,21.0,-53.0,
1936.0,2224.0,21.0,-53.0,
1914.0,2172.0,21.0,-53.0,
2020.0,2036.0,21.0,-53.0,
2092.0,2187.0,21.0,-53.0,
2144.0,2079.0,21.0,-53.0,
2125.0,1895.0,21.0,-53.0,
2096.0,2032.0,21.0,-53.0,
2217.0,2129.0,21.0,-53.0,
1888.0,2155.0,20.0,-53.0,
1957.0,2055.0,20.0,-53.0,
2103.0,2043.0,20.0,-53.0,
2146.0,2137.0,20.0,-53.0,
2144.0,2409.0,20.0,-53.0,
2057.0,2021.0,20.0,-53.0,
1918.0,2002.0,20.0,-53.0,
2051.0,1976.0,20.0,-53.0,
2104.0,2193.0,20.0,-53.0,
2094.0,1949.0,20.0,-53.0,
2037.0,2051.0,20.0,-53.0,
1949.0,2245.0,20.0,-53.0,
1980.0,1965.0,19.0,-53.0,
2066.0,1862.0,19.0,-53.0,
2101.0,1819.0,19.0,-53.0,
2020.0,1866.0,19.0,-53.0,
2103.0,2123.0,19.0,-53.0,
2126.0,2188.0,19.0,-54.0,
2053.0,2086.0,19.0,-54.0,
2044.0,2191.0,19.0,-53.0,
2081.0,1875.0,19.0,-53.0,
2128.0,2458.0,20.0,-53.0,
2107.0,2411.0,20.0,-52.0,
2065.0,2131.0,20.0,-52.0,
2039.0,2152.0,20.0,-52.0,
2077.0,2010.0,20.0,-53.0,
2104.0,1994.0,20.0,-53.0,
2086.0,1728.0,20.0,-52.0,
2065.0,1901.0,20.0,-52.0,
2069.0,2238.0,20.0,-53.0,
2080.0,2174.0,20.0,-53.0,
2077.0,2185.0,20.0,-54.0,
2067.0,2058.0,20.0,-54.0,
2129.0,2083.0,20.0,-54.0,
2152.0,2222.0,20.0,-54.0,
2106.0,2168.0,20.0,-54.0,
2068.0,1936.0,20.0,-54.0,
1960.0,1811.0,20.0,-54.0,
2040.0,1846.0,19.0,-55.0,
2063.0,1929.0,19.0,-55.0,
2212.0,2396.0,19.0,-55.0,
1871.0,2041.0,19.0,-55.0,
1980.0,2209.0,20.0,-55.0,
2076.0,2229.0,20.0,-55.0,
2181.0,1610.0,20.0,-55.0,
2035.0,2061.0,20.0,-55.0,
2154.0,2570.0,20.0,-55.0,
2082.0,1880.0,20.0,-55.0,
2025.0,2266.0,20.0,-54.0,
1979.0,1857.0,20.0,-54.0,
1998.0,1551.0,21.0,-54.0,
2127.0,2372.0,21.0,-54.0,
2059.0,2047.0,21.0,-54.0,
2123.0,2169.0,21.0,-54.0,
2032.0,2348.0,21.0,-54.0,
2106.0,2100.0,21.0,-54.0,
1994.0,1958.0,21.0,-54.0,
2101.0,2245.0,21.0,-54.0,
2120.0,2118.0,21.0,-54.0,
2006.0,2012.0,21.0,-54.0,
2124.0,2125.0,21.0,-54.0,
2208.0,2171.0,21.0,-54.0,
2192.0,1716.0,21.0,-54.0,
1870.0,1868.0,20.0,-54.0,
1935.0,2147.0,20.0,-54.0,
1956.0,2204.0,20.0,-54.0,
2085.0,2186.0,20.0,-54.0,
2061.0,1849.0,20.0,-54.0,
2081.0,1845.0,20.0,-54.0,
2098.0,2407.0,20.0,-54.0,
2067.0,2073.0,20.0,-54.0,
2060.0,2019.0,20.0,-54.0,
2109.0,2164.0,20.0,-54.0,
2089.0,2056.0,20.0,-54.0,
2110.0,2039.0,20.0,-54.0,
2057.0,2092.0,20.0,-54.0,
2167.0,2172.0,20.0,-54.0,
2113.0,1977.0,20.0,-54.0,
1993.0,2093.0,20.0,-54.0,
2045.0,2110.0,20.0,-54.0,
2115.0,2188.0,20.0,-54.0,
2056.0,2091.0,20.0,-54.0,
2065.0,2100.0,20.0,-54.0,
2046.0,1949.0,20.0,-54.0,
2096.0,2261.0,20.0,-54.0,
2154.0,2066.0,20.0,-54.0,
2112.0,1948.0,20.0,-54.0,
2081.0,2169.0,20.0,-54.0,
2011.0,2132.0,20.0,-54.0,
2022.0,2001.0,20.0,-54.0,
1903.0,2142.0,20.0,-54.0,
1977.0,2217.0,20.0,-54.0,
1957.0,1879.0,20.0,-54.0,
2121.0,1861.0,20.0,-54.0,
2186.0,2167.0,20.0,-54.0,
2205.0,1906.0,20.0,-54.0,
2084.0,2005.0,20.0,-54.0,
2052.0,2521.0,20.0,-54.0,
2141.0,2264.0,20.0,-54.0,
1984.0,2145.0,20.0,-54.0,
1797.0,1753.0,20.0,-54.0,
2025.0,2080.0,20.0,-54.0,
2105.0,2358.0,20.0,-54.0,
2073.0,2017.0,20.0,-54.0,
2112.0,1891.0,20.0,-54.0,
2176.0,2033.0,20.0,-54.0,
2055.0,2067.0,20.0,-54.0,
2041.0,2085.0,20.0,-54.0,
2057.0,2310.0,20.0,-54.0,
2057.0,2031.0,20.0,-54.0,
2043.0,1954.0,20.0,-54.0,
2126.0,2176.0,20.0,-54.0,
2198.0,2142.0,20.0,-54.0,
2075.0,1734.0,21.0,-54.0,
1914.0,1975.0,21.0,-55.0,
2124.0,2167.0,21.0,-55.0,
2071.0,2278.0,21.0,-55.0,
2071.0,1929.0,20.0,-55.0,
2073.0,2008.0,20.0,-55.0,
2085.0,2382.0,20.0,-55.0,
2046.0,2066.0,20.0,-55.0,
2072.0,2349.0,20.0,-55.0,
2026.0,2141.0,20.0,-55.0,
2106.0,1869.0,20.0,-55.0,
2206.0,2073.0,20.0,-55.0,
2097.0,2035.0,20.0,-55.0,
1912.0,1977.0,20.0,-55.0,
1974.0,2056.0,20.0,-55.0,
2033.0,1890.0,20.0,-55.0,
2019.0,2130.0,20.0,-55.0,
2095.0,2329.0,20.0,-55.0,
2162.0,1878.0,20.0,-55.0,
2172.0,1765.0,20.0,-55.0,
2059.0,2074.0,20.0,-55.0,
2079.0,2447.0,20.0,-55.0,
2013.0,2307.0,20.0,-55.0,
2031.0,2032.0,20.0,-55.0,
2093.0,2114.0,20.0,-55.0,
2129.0,2120.0,20.0,-55.0,
2079.0,2330.0,20.0,-55.0,
2042.0,2195.0,20.0,-55.0,
2152.0,1978.0,20.0,-55.0,
2239.0,1967.0,20.0,-55.0,
1969.0,1858.0,20.0,-55.0,
1932.0,1963.0,20.0,-55.0,
2056.0,2210.0,20.0,-55.0,
2020.0,2026.0,20.0,-55.0,
2091.0,1990.0,20.0,-55.0,
2069.0,2355.0,20.0,-55.0,
2012.0,2040.0,20.0,-55.0,
2005.0,1645.0,20.0,-55.0,
2158.0,2142.0,20.0,-55.0,
2010.0,2164.0,20.0,-55.0,
2101.0,2031.0,20.0,-55.0,
2223.0,2426.0,20.0,-55.0,
1979.0,1889.0,20.0,-55.0,
1911.0,2059.0,20.0,-55.0,
2043.0,1979.0,20.0,-55.0,
2058.0,2129.0,20.0,-55.0,
2109.0,2045.0,20.0,-55.0,
2124.0,2116.0,20.0,-55.0,
2042.0,2355.0,20.0,-55.0,
1971.0,2326.0,20.0,-55.0,
2111.0,2166.0,20.0,-55.0,
2144.0,2131.0,20.0,-55.0,
2170.0,1968.0,20.0,-55.0,
2147.0,2130.0,20.0,-55.0,
2110.0,1932.0,20.0,-55.0,
1989.0,1722.0,20.0,-55.0,
1978.0,1773.0,20.0,-55.0,
1921.0,2490.0,20.0,-55.0,
2057.0,2203.0,20.0,-55.0,
2056.0,2173.0,20.0,-55.0,
2059.0,2265.0,20.0,-55.0,
2041.0,2145.0,20.0,-55.0,
2096.0,1993.0,20.0,-55.0,
2113.0,1850.0,20.0,-55.0,
2205.0,2038.0,19.0,-55.0,
2193.0,2028.0,19.0,-55.0,
2169.0,2046.0,19.0,-56.0,
1919.0,1874.0,19.0,-56.0,
2071.0,2372.0,19.0,-56.0,
2008.0,2136.0,19.0,-57.0,
2158.0,2153.0,18.0,-57.0,
1974.0,2100.0,19.0,-57.0,
1887.0,1971.0,19.0,-58.0,
2084.0,2224.0,18.0,-58.0,
2100.0,2203.0,19.0,-58.0,
2028.0,1722.0,19.0,-57.0,
2057.0,2008.0,18.0,-56.0,
2110.0,2277.0,19.0,-56.0,
2179.0,2013.0,19.0,-56.0,
2124.0,2047.0,18.0,-55.0,
2065.0,2242.0,0,
2095.0,1942.0,19.0,-54.0,
2174.0,2004.0,19.0,-53.0,
2017.0,2347.0,19.0,-53.0,
2006.0,2113.0,19.0,-53.0,
2011.0,1934.0,19.0,-54.0,
2020.0,1822.0,19.0,-55.0,
2026.0,2178.0,19.0,-55.0,
1977.0,2290.0,19.0,-55.0,
2086.0,1763.0,19.0,-56.0,
2072.0,2199.0,19.0,-56.0,
2132.0,2381.0,19.0,-56.0,
2094.0,2137.0,19.0,-56.0,
2138.0,2261.0,19.0,-56.0,
2154.0,2001.0,19.0,-56.0,
2101.0,2075.0,19.0,-56.0,
2015.0,2110.0,19.0,-56.0,
2027.0,1665.0,19.0,-56.0,
2005.0,1356.0,20.0,-56.0,
2045.0,2357.0,20.0,-56.0,
2073.0,2534.0,20.0,-56.0,
2097.0,1977.0,20.0,-56.0,
2113.0,2250.0,20.0,-56.0,
2166.0,2370.0,20.0,-56.0,
2024.0,2030.0,20.0,-55.0,
2054.0,2096.0,19.0,-55.0,
2080.0,2027.0,19.0,-55.0,
2089.0,1966.0,19.0,-55.0,
2115.0,2006.0,19.0,-55.0,
2059.0,2195.0,19.0,-55.0,
2115.0,2172.0,19.0,-56.0,
2070.0,2085.0,19.0,-56.0,
2104.0,2151.0,19.0,-56.0,
2119.0,2014.0,19.0,-56.0,
2008.0,1880.0,19.0,-56.0,
2049.0,1860.0,19.0,-56.0,
1916.0,1842.0,19.0,-56.0,
2052.0,2442.0,19.0,-56.0,
2064.0,2264.0,19.0,-56.0,
2081.0,2157.0,19.0,-56.0,
2102.0,2009.0,19.0,-57.0,
2150.0,1955.0,19.0,-57.0,
2053.0,2172.0,19.0,-57.0,
2053.0,2177.0,19.0,-57.0,
2038.0,2071.0,19.0,-57.0,
2068.0,2070.0,19.0,-57.0,
2110.0,1994.0,19.0,-57.0,
1965.0,1962.0,19.0,-57.0,
2094.0,2106.0,19.0,-57.0,
2042.0,2120.0,19.0,-57.0,
2041.0,2010.0,19.0,-56.0,
2053.0,2087.0,19.0,-56.0,
2073.0,2062.0,19.0,-56.0,
2134.0,2054.0,19.0,-56.0,
2078.0,2038.0,19.0,-56.0,
2056.0,2002.0,19.0,-56.0,
1991.0,1969.0,19.0,-56.0,
2034.0,1998.0,19.0,-56.0,
2081.0,2146.0,19.0,-56.0,
2058.0,2586.0,19.0,-56.0,
2091.0,2064.0,20.0,-56.0,
2030.0,2083.0,20.0,-55.0,
2103.0,2134.0,20.0,-55.0,
2143.0,2079.0,20.0,-55.0,
2086.0,2022.0,20.0,-55.0,
2076.0,2028.0,20.0,-55.0,
2049.0,2125.0,20.0,-55.0,
2096.0,2072.0,20.0,-55.0,
2077.0,1966.0,20.0,-55.0,
1997.0,2073.0,20.0,-55.0,
2066.0,2163.0,20.0,-55.0,
2081.0,1987.0,20.0,-55.0,
2105.0,1940.0,20.0,-55.0,
2078.0,2105.0,20.0,-55.0,
2076.0,2295.0,20.0,-55.0,
2105.0,2125.0,20.0,-55.0,
2087.0,2143.0,20.0,-55.0,
2029.0,1902.0,20.0,-55.0,
2067.0,2105.0,20.0,-55.0,
2101.0,2185.0,20.0,-55.0,
2092.0,2116.0,20.0,-56.0,
2057.0,1997.0,20.0,-56.0,
2055.0,2091.0,20.0,-56.0,
2158.0,2013.0,20.0,-56.0,
2020.0,1859.0,20.0,-56.0,
2045.0,2072.0,20.0,-56.0,
2046.0,2226.0,20.0,-56.0,
2140.0,2130.0,20.0,-56.0,
2014.0,2015.0,20.0,-56.0,
2035.0,2055.0,21.0,-56.0,
2026.0,2249.0,20.0,-56.0,
2096.0,2065.0,21.0,-56.0,
2006.0,2068.0,20.0,-56.0,
2069.0,2065.0,20.0,-56.0,
2068.0,2254.0,20.0,-56.0,
2112.0,1872.0,20.0,-56.0,
2045.0,1883.0,20.0,-56.0,
2054.0,2188.0,20.0,-55.0,
2088.0,1959.0,20.0,-55.0,
2134.0,2466.0,20.0,-55.0,
2072.0,2214.0,20.0,-55.0,
2062.0,1939.0,20.0,-55.0,
2047.0,1911.0,20.0,-54.0,
2069.0,2118.0,20.0,-54.0,
2024.0,2170.0,20.0,-54.0,
2091.0,1997.0,20.0,-54.0,
2103.0,1978.0,20.0,-54.0,
2053.0,2087.0,20.0,-54.0,
2040.0,2236.0,20.0,-54.0,
2095.0,2224.0,20.0,-54.0,
2104.0,2224.0,20.0,-54.0,
2073.0,2013.0,20.0,-54.0,
2101.0,1866.0,20.0,-54.0,
2072.0,2006.0,20.0,-54.0,
2001.0,2223.0,20.0,-54.0,
2036.0,2104.0,20.0,-54.0,
2048.0,1898.0,20.0,-54.0,
2070.0,2191.0,20.0,-54.0,
2073.0,2219.0,20.0,-54.0,
2063.0,2020.0,20.0,-54.0,
2081.0,2110.0,20.0,-54.0,
2080.0,2080.0,20.0,-54.0,
2101.0,2010.0,20.0,-54.0,
2062.0,2036.0,20.0,-54.0,
2058.0,2182.0,20.0,-54.0,
2077.0,2096.0,20.0,-55.0,
2103.0,2104.0,20.0,-55.0,
2086.0,2128.0,20.0,-55.0,
2033.0,1987.0,20.0,-55.0,
2077.0,1988.0,20.0,-55.0,
2091.0,1877.0,20.0,-55.0,
2084.0,2112.0,20.0,-55.0,
2034.0,2204.0,20.0,-55.0,
2086.0,2027.0,20.0,-55.0,
2060.0,2070.0,20.0,-55.0,
2070.0,2199.0,20.0,-55.0,
2021.0,2005.0,20.0,-55.0,
2075.0,2002.0,20.0,-55.0,
2110.0,2026.0,20.0,-55.0,
2115.0,2117.0,20.0,-55.0,
2044.0,2027.0,20.0,-55.0,
2048.0,2140.0,20.0,-55.0,
2070.0,2231.0,20.0,-55.0,
2084.0,2153.0,20.0,-55.0,
2053.0,2066.0,20.0,-55.0,
2021.0,2064.0,20.0,-55.0,
2060.0,2185.0,20.0,-55.0,
2059.0,2035.0,20.0,-55.0,
2058.0,1885.0,20.0,-54.0,
2070.0,2046.0,19.0,-54.0,
2090.0,2298.0,19.0,-54.0,
2080.0,2042.0,19.0,-54.0,
2066.0,2066.0,20.0,-54.0,
2077.0,2168.0,20.0,-54.0,
2067.0,2066.0,20.0,-54.0,
2092.0,2066.0,20.0,-54.0,
2118.0,2118.0,20.0,-54.0,
2057.0,2001.0,20.0,-54.0,
2012.0,1954.0,20.0,-54.0,
2067.0,2080.0,20.0,-54.0,
2143.0,2125.0,20.0,-54.0,
2137.0,2191.0,20.0,-54.0,
1959.0,2052.0,20.0,-54.0,
1989.0,2136.0,20.0,-54.0,
2058.0,2274.0,20.0,-54.0,
2058.0,1930.0,20.0,-54.0,
2075.0,1898.0,20.0,-53.0,
2029.0,2046.0,19.0,-53.0,
2080.0,2037.0,19.0,-53.0,
2096.0,2184.0,19.0,-53.0,
2127.0,2281.0,18.0,-53.0,
2043.0,2147.0,18.0,-53.0,
2092.0,2044.0,18.0,-53.0,
2094.0,2169.0,18.0,-53.0,
2090.0,1960.0,18.0,-53.0,
2089.0,1902.0,18.0,-52.0,
2066.0,1922.0,18.0,-52.0,
2081.0,2307.0,18.0,-52.0,
2073.0,2017.0,19.0,-52.0,
2108.0,2233.0,19.0,-52.0,
2102.0,2123.0,19.0,-52.0,
2108.0,1934.0,19.0,-52.0,
2081.0,2052.0,19.0,-53.0,
2104.0,2094.0,19.0,-53.0,
2011.0,2177.0,20.0,-53.0,
2049.0,2164.0,20.0,-53.0,
2080.0,2142.0,20.0,-53.0,
2108.0,2004.0,20.0,-53.0,
1994.0,1908.0,20.0,-52.0,
2019.0,2107.0,19.0,-52.0,
2035.0,2179.0,19.0,-52.0,
2038.0,2303.0,19.0,-52.0,
2049.0,1937.0,19.0,-51.0,
2072.0,2031.0,18.0,-51.0,
2104.0,2128.0,18.0,-51.0,
2104.0,2114.0,18.0,-50.0,
2102.0,2064.0,17.0,-50.0,
2107.0,1949.0,17.0,-49.0,
2081.0,1937.0,17.0,-49.0,
2001.0,2196.0,17.0,-48.0,
2048.0,2116.0,17.0,-48.0,
2027.0,2095.0,17.0,-48.0,
2061.0,2190.0,17.0,-47.0,
2071.0,2057.0,17.0,-47.0,
2068.0,2040.0,17.0,-47.0,
2096.0,2188.0,18.0,-47.0,
2070.0,2034.0,0,
2078.0,2112.0,18.0,-47.0,
2077.0,1971.0,18.0,-47.0,
2065.0,2074.0,18.0,-48.0,
2062.0,2078.0,18.0,-48.0,
2073.0,2080.0,19.0,-48.0,
2078.0,2059.0,19.0,-48.0,
2069.0,2068.0,19.0,-48.0,
2087.0,2077.0,19.0,-49.0,
2051.0,2052.0,19.0,-49.0,
2068.0,2209.0,19.0,-49.0,
2063.0,2058.0,19.0,-49.0,
2061.0,2125.0,19.0,-49.0,
2073.0,2030.0,19.0,-50.0,
2061.0,1924.0,18.0,-50.0,
2063.0,2000.0,18.0,-50.0,
2064.0,2342.0,18.0,-50.0,
2066.0,2125.0,18.0,-50.0,
2052.0,2050.0,18.0,-51.0,
2063.0,2129.0,18.0,-51.0,
2060.0,2110.0,19.0,-51.0,
2081.0,2092.0,19.0,-51.0,
2105.0,1994.0,19.0,-52.0,
2107.0,1914.0,19.0,-52.0,
2083.0,2035.0,19.0,-52.0,
2064.0,2254.0,19.0,-52.0,
2014.0,2158.0,20.0,-53.0,
2066.0,2222.0,20.0,-53.0,
2093.0,1949.0,20.0,-53.0,
2049.0,2059.0,20.0,-53.0,
2062.0,2148.0,20.0,-53.0,
2056.0,2190.0,20.0,-53.0,
2071.0,2093.0,20.0,-53.0,
2046.0,2106.0,20.0,-53.0,
2092.0,2024.0,0,
2094.0,1922.0,20.0,-52.0,
2095.0,1894.0,19.0,-52.0,
2083.0,2164.0,19.0,-51.0,
2076.0,2237.0,19.0,-50.0,
2048.0,2319.0,19.0,-49.0,
2014.0,2143.0,18.0,-48.0,
2004.0,2001.0,18.0,-48.0,
2051.0,2093.0,18.0,-47.0,
2083.0,2014.0,18.0,-46.0,
2077.0,2034.0,18.0,-45.0,
2066.0,2030.0,18.0,-45.0,
2060.0,1926.0,18.0,-44.0,
2069.0,1921.0,18.0,-44.0,
2100.0,2217.0,19.0,-43.0,
2092.0,2248.0,19.0,-43.0,
2060.0,2019.0,19.0,-43.0,
2038.0,2219.0,19.0,-43.0,
2077.0,2102.0,19.0,-43.0,
2079.0,2081.0,20.0,-43.0,
2072.0,2044.0,20.0,-43.0,
2075.0,2022.0,20.0,-43.0,
2057.0,2030.0,20.0,-43.0,
2063.0,2105.0,20.0,-44.0,
2063.0,2085.0,20.0,-44.0,
2064.0,2137.0,20.0,-44.0,
2067.0,2077.0,20.0,-45.0,
2083.0,2082.0,20.0,-45.0,
2073.0,2119.0,20.0,-45.0,
2055.0,2073.0,20.0,-45.0,
2050.0,2107.0,19.0,-46.0,
2060.0,2121.0,19.0,-46.0,
2066.0,2060.0,19.0,-46.0,
2082.0,2049.0,19.0,-46.0,
2105.0,2063.0,19.0,-47.0,
2089.0,2035.0,19.0,-47.0,
2069.0,2077.0,18.0,-47.0,
2052.0,2047.0,18.0,-47.0,
2040.0,1997.0,18.0,-48.0,
2037.0,1976.0,18.0,-48.0,
2063.0,2081.0,18.0,-48.0,
2066.0,2276.0,18.0,-48.0,
2087.0,2220.0,18.0,-49.0,
2082.0,2192.0,18.0,-49.0,
2076.0,1969.0,18.0,-50.0,
2081.0,2085.0,18.0,-50.0,
2074.0,2016.0,19.0,-51.0,
2058.0,2028.0,19.0,-51.0,
2080.0,2314.0,19.0,-51.0,
2083.0,2135.0,19.0,-52.0,
2058.0,2066.0,20.0,-52.0,
2086.0,1951.0,20.0,-52.0,
2075.0,1924.0,20.0,-52.0,
2063.0,1980.0,21.0,-52.0,
2074.0,2169.0,21.0,-52.0,
2093.0,2089.0,21.0,-52.0,
2064.0,2044.0,21.0,-52.0,
2067.0,1971.0,22.0,-52.0,
2053.0,2065.0,22.0,-52.0,
2066.0,2154.0,21.0,-52.0,
2058.0,2145.0,21.0,-51.0,
2048.0,2033.0,21.0,-51.0,
2054.0,2156.0,21.0,-50.0,
2069.0,2116.0,20.0,-49.0,
2064.0,2049.0,20.0,-49.0,
2065.0,2097.0,20.0,-48.0,
2082.0,2194.0,19.0,-47.0,
2088.0,2090.0,19.0,-46.0,
2097.0,2043.0,19.0,-46.0,
2084.0,2005.0,18.0,-45.0,
2063.0,2258.0,18.0,-44.0,
2057.0,2116.0,18.0,-44.0,
2075.0,2049.0,18.0,-44.0,
2063.0,2000.0,18.0,-43.0,
2049.0,1971.0,19.0,-43.0,
2043.0,2008.0,19.0,-43.0,
2060.0,1982.0,19.0,-43.0,
2065.0,2039.0,19.0,-43.0,
2059.0,2266.0,19.0,-43.0,
2090.0,2136.0,20.0,-43.0,
2078.0,2018.0,20.0,-43.0,
2089.0,2182.0,20.0,-43.0,
2060.0,2098.0,20.0,-43.0,
2073.0,2088.0,20.0,-43.0,
2048.0,2057.0,20.0,-43.0,
2051.0,2038.0,20.0,-43.0,
2067.0,1957.0,19.0,-42.0,
2077.0,1904.0,19.0,-42.0,
2080.0,2104.0,19.0,-42.0,
2080.0,2215.0,19.0,-42.0,
2064.0,2184.0,19.0,-42.0,
2066.0,2161.0,18.0,-42.0,
2099.0,2178.0,18.0,-42.0,
2082.0,1984.0,18.0,-41.0,
2093.0,2220.0,18.0,-41.0,
2076.0,2075.0,18.0,-41.0,
2093.0,1939.0,18.0,-41.0,
2042.0,2054.0,18.0,-40.0,
2037.0,2092.0,18.0,-40.0,
2059.0,2120.0,18.0,-40.0,
2100.0,1938.0,18.0,-39.0,
2086.0,1877.0,18.0,-39.0,
2099.0,2122.0,18.0,-38.0,
2084.0,2351.0,18.0,-38.0,
2049.0,2130.0,18.0,-38.0,
2023.0,2091.0,18.0,-37.0,
2031.0,2131.0,18.0,-37.0,
2042.0,1988.0,18.0,-36.0,
2054.0,2062.0,18.0,-36.0,
2070.0,2260.0,18.0,-36.0,
2063.0,2044.0,18.0,-35.0,
2076.0,2113.0,18.0,-35.0,
2073.0,2104.0,18.0,-35.0,
2069.0,2065.0,18.0,-35.0,
2090.0,2072.0,18.0,-35.0,
2081.0,1994.0,17.0,-34.0,
2048.0,1973.0,17.0,-34.0,
2063.0,2125.0,17.0,-34.0,
2095.0,2048.0,17.0,-34.0,
2091.0,2033.0,17.0,-34.0,
2104.0,2070.0,17.0,-34.0,
2106.0,1986.0,17.0,-34.0,
2094.0,2006.0,17.0,-35.0,
2099.0,2391.0,17.0,-35.0,
2059.0,2250.0,17.0,-35.0,
2051.0,2023.0,17.0,-35.0,
2036.0,2029.0,17.0,-34.0,
2044.0,2058.0,16.0,-34.0,
2042.0,2029.0,16.0,-34.0,
2049.0,2042.0,16.0,-34.0,
2064.0,2128.0,16.0,-34.0,
2062.0,2151.0,16.0,-34.0,
2071.0,2132.0,16.0,-33.0,
2075.0,2086.0,16.0,-33.0,
2063.0,2084.0,16.0,-33.0,
2068.0,2091.0,16.0,-33.0,
2084.0,2098.0,16.0,-33.0,
2069.0,2092.0,16.0,-33.0,
2066.0,2055.0,17.0,-33.0,
2074.0,2091.0,17.0,-33.0,
2062.0,1986.0,17.0,-33.0,
2083.0,2045.0,17.0,-33.0,
2074.0,2090.0,18.0,-33.0,
2067.0,2115.0,18.0,-33.0,
2049.0,2056.0,18.0,-33.0,
2062.0,1970.0,18.0,-33.0,
2074.0,1996.0,18.0,-33.0,
2038.0,2093.0,19.0,-33.0,
2054.0,2098.0,19.0,-33.0,
2079.0,2255.0,19.0,-33.0,
2089.0,2242.0,19.0,-33.0,
2099.0,1984.0,20.0,-33.0,
2086.0,2148.0,20.0,-33.0,
2077.0,2120.0,20.0,-32.0,
2096.0,2055.0,20.0,-32.0,
2057.0,1922.0,20.0,-32.0,
2057.0,1851.0,20.0,-32.0,
2059.0,1992.0,20.0,-32.0,
2054.0,2058.0,20.0,-32.0,
2067.0,2197.0,20.0,-31.0,
2069.0,1981.0,20.0,-31.0,
2062.0,2410.0,20.0,-31.0,
2084.0,2350.0,21.0,-31.0,
2091.0,2167.0,20.0,-31.0,
2075.0,2086.0,21.0,-31.0,
2078.0,2148.0,20.0,-31.0,
2071.0,2126.0,20.0,-31.0,
2070.0,2049.0,20.0,-31.0,
2058.0,2043.0,20.0,-32.0,
2049.0,2051.0,20.0,-32.0,
2073.0,1969.0,20.0,-32.0,
2026.0,1986.0,20.0,-32.0,
2081.0,2095.0,20.0,-33.0,
2079.0,2078.0,19.0,-33.0,
2077.0,2096.0,19.0,-33.0,
2088.0,2117.0,19.0,-33.0,
2066.0,2096.0,19.0,-33.0,
2062.0,1969.0,18.0,-34.0,
2066.0,2054.0,18.0,-34.0,
2058.0,2055.0,18.0,-34.0,
2048.0,2047.0,17.0,-34.0,
2053.0,2075.0,17.0,-34.0,
2077.0,2162.0,17.0,-34.0,
2063.0,2121.0,17.0,-34.0,
2067.0,2082.0,17.0,-34.0,
2084.0,2066.0,17.0,-33.0,
2067.0,2045.0,16.0,-33.0,
2054.0,2091.0,16.0,-33.0,
2063.0,2019.0,16.0,-33.0,
2074.0,2136.0,16.0,-33.0,
2061.0,2150.0,16.0,-33.0,
2059.0,2058.0,16.0,-33.0,
2068.0,2037.0,16.0,-33.0,
2083.0,2129.0,16.0,-32.0,
2080.0,1999.0,16.0,-32.0,
2083.0,2052.0,16.0,-32.0,
2082.0,2102.0,16.0,-32.0,
2090.0,2227.0,17.0,-32.0,
2089.0,2151.0,17.0,-32.0,
2070.0,2117.0,17.0,-32.0,
2071.0,2132.0,17.0,-32.0,
2070.0,2034.0,17.0,-32.0,
2059.0,2110.0,17.0,-32.0,
2042.0,2018.0,17.0,-31.0,
2031.0,2100.0,17.0,-31.0,
2038.0,2040.0,18.0,-31.0,
2050.0,2043.0,18.0,-31.0,
2062.0,2031.0,18.0,-31.0,
2077.0,2241.0,18.0,-30.0,
2068.0,1957.0,18.0,-30.0,
2068.0,1878.0,18.0,-30.0,
2093.0,1992.0,18.0,-30.0,
2085.0,2326.0,18.0,-30.0,
2081.0,2333.0,18.0,-29.0,
2074.0,2090.0,18.0,-29.0,
2099.0,2086.0,18.0,-29.0,
2067.0,1978.0,18.0,-29.0,
2072.0,2129.0,18.0,-29.0,
2088.0,2097.0,18.0,-29.0,
2069.0,2068.0,18.0,-29.0,
2066.0,2152.0,18.0,-29.0,
2069.0,2068.0,18.0,-29.0,
2071.0,2078.0,18.0,-29.0,
2070.0,2064.0,18.0,-29.0,
2070.0,1992.0,18.0,-29.0,
2091.0,2043.0,18.0,-29.0,
2076.0,2037.0,17.0,-29.0,
2086.0,2161.0,17.0,-29.0,
2099.0,2036.0,17.0,-29.0,
2085.0,2163.0,17.0,-29.0,
2074.0,2235.0,17.0,-29.0,
2057.0,2077.0,17.0,-29.0,
2049.0,2089.0,16.0,-29.0,
2047.0,2091.0,16.0,-29.0,
2065.0,2021.0,16.0,-29.0,
2061.0,2030.0,16.0,-29.0,
2086.0,2053.0,15.0,-29.0,
2074.0,2089.0,15.0,-29.0,
2083.0,2099.0,15.0,-29.0,
2088.0,2035.0,15.0,-29.0,
2062.0,2017.0,15.0,-28.0,
2073.0,2093.0,15.0,-28.0,
2086.0,2096.0,15.0,-28.0,
2064.0,2010.0,15.0,-28.0,
2062.0,1928.0,15.0,-28.0,
2059.0,2076.0,15.0,-28.0,
2074.0,2349.0,15.0,-28.0,
2051.0,2156.0,15.0,-28.0,
2068.0,1995.0,15.0,-28.0,
2073.0,1931.0,15.0,-28.0,
2073.0,2130.0,15.0,-28.0,
2084.0,2150.0,15.0,-28.0,
2091.0,2077.0,15.0,-28.0,
2089.0,2269.0,15.0,-28.0,
2062.0,2201.0,15.0,-28.0,
2020.0,2080.0,16.0,-28.0,
1999.0,1940.0,16.0,-27.0,
2014.0,1967.0,16.0,-27.0,
2069.0,1938.0,16.0,-27.0,
2073.0,2222.0,16.0,-27.0,
2083.0,2139.0,16.0,-26.0,
2099.0,2086.0,16.0,-26.0,
2083.0,2090.0,17.0,-26.0,
2084.0,2043.0,17.0,-26.0,
2076.0,2104.0,17.0,-26.0,
2097.0,2146.0,17.0,-25.0,
2065.0,2019.0,17.0,-25.0,
2045.0,2005.0,17.0,-25.0,
2075.0,2116.0,17.0,-25.0,
2062.0,2175.0,17.0,-25.0,
2055.0,2001.0,17.0,-25.0,
2056.0,2078.0,17.0,-25.0,
2056.0,2021.0,17.0,-25.0,
2052.0,2002.0,17.0,-25.0,
2045.0,1855.0,17.0,-26.0,
2090.0,2279.0,17.0,-26.0,
2080.0,2234.0,17.0,-26.0,
2102.0,2055.0,17.0,-26.0,
2076.0,2011.0,17.0,-26.0,
2076.0,1946.0,17.0,-26.0,
2077.0,2098.0,17.0,-26.0,
2061.0,1990.0,17.0,-26.0,
2079.0,2242.0,17.0,-26.0,
2066.0,2251.0,17.0,-26.0,
2058.0,2144.0,17.0,-26.0,
2050.0,2186.0,17.0,-26.0,
2029.0,2059.0,16.0,-26.0,
2078.0,1901.0,16.0,-25.0,
2088.0,2001.0,16.0,-25.0,
2076.0,2192.0,16.0,-24.0,
2089.0,2192.0,16.0,-24.0,
2072.0,2072.0,16.0,-24.0,
2089.0,2069.0,15.0,-24.0,
2079.0,2032.0,15.0,-23.0,
2074.0,2059.0,15.0,-23.0,
2078.0,2065.0,15.0,-23.0,
2070.0,2038.0,15.0,-23.0,
2086.0,2029.0,15.0,-23.0,
2083.0,2092.0,15.0,-23.0,
2077.0,2072.0,15.0,-23.0,
2059.0,2066.0,15.0,-23.0,
2069.0,1943.0,15.0,-23.0,
2064.0,2215.0,15.0,-23.0,
2018.0,2109.0,15.0,-23.0,
2033.0,2096.0,15.0,-23.0,
2061.0,2077.0,15.0,-23.0,
2076.0,2091.0,15.0,-23.0,
2074.0,2096.0,15.0,-23.0,
2059.0,2125.0,15.0,-23.0,
2059.0,2071.0,15.0,-23.0,
2067.0,1967.0,15.0,-23.0,
2063.0,1996.0,15.0,-23.0,
2066.0,2096.0,15.0,-23.0,
2095.0,2134.0,15.0,-23.0,
2118.0,2097.0,15.0,-23.0,
2096.0,2190.0,15.0,-22.0,
2069.0,2074.0,15.0,-23.0,
2044.0,2035.0,15.0,-23.0,
2022.0,2036.0,15.0,-23.0,
2025.0,2060.0,15.0,-23.0,
2019.0,2034.0,15.0,-23.0,
2056.0,1973.0,15.0,-23.0,
2089.0,2081.0,16.0,-23.0,
2085.0,2110.0,16.0,-22.0,
2076.0,2102.0,16.0,-22.0,
2111.0,2217.0,16.0,-22.0,
2073.0,2128.0,16.0,-22.0,
2084.0,2099.0,16.0,-22.0,
2064.0,1999.0,16.0,-22.0,
2068.0,2217.0,16.0,-22.0,
2055.0,1991.0,16.0,-22.0,
2071.0,1993.0,16.0,-22.0,
2091.0,2175.0,16.0,-22.0,
2085.0,2136.0,16.0,-21.0,
2090.0,2059.0,17.0,-21.0,
2074.0,1939.0,17.0,-21.0,
2069.0,2276.0,17.0,-21.0,
2069.0,2225.0,17.0,-20.0,
2076.0,2077.0,17.0,-20.0,
2086.0,2127.0,17.0,-20.0,
2096.0,2046.0,17.0,-20.0,
2079.0,2048.0,17.0,-19.0,
2075.0,2089.0,17.0,-19.0,
2081.0,2080.0,17.0,-19.0,
2064.0,2049.0,17.0,-19.0,
2061.0,1996.0,17.0,-19.0,
2070.0,2007.0,17.0,-19.0,
2064.0,2084.0,17.0,-19.0,
2068.0,2095.0,17.0,-19.0,
2076.0,2106.0,17.0,-19.0,
2053.0,2076.0,17.0,-19.0,
2056.0,1991.0,16.0,-19.0,
2082.0,2019.0,16.0,-19.0,
2061.0,2044.0,16.0,-20.0,
2073.0,2084.0,16.0,-20.0,
2056.0,2070.0,15.0,-20.0,
2046.0,2117.0,15.0,-20.0,
2028.0,2124.0,15.0,-20.0,
2061.0,2185.0,15.0,-20.0,
2086.0,2086.0,14.0,-20.0,
2076.0,2066.0,14.0,-20.0,
2064.0,2039.0,14.0,-20.0,
2001.0,2013.0,14.0,-20.0,
2033.0,2114.0,14.0,-20.0,
2040.0,2088.0,13.0,-20.0,
2090.0,2079.0,13.0,-20.0,
2094.0,2144.0,13.0,-20.0,
2140.0,2039.0,13.0,-20.0,
2135.0,1991.0,14.0,-20.0,
2077.0,1989.0,14.0,-20.0,
2054.0,2165.0,14.0,-20.0,
2058.0,2037.0,14.0,-20.0,
2037.0,2155.0,14.0,-20.0,
2024.0,2290.0,14.0,-20.0,
2060.0,2059.0,14.0,-20.0,
2031.0,2024.0,15.0,-20.0,
2023.0,2186.0,15.0,-20.0,
2029.0,1991.0,15.0,-20.0,
2070.0,1933.0,15.0,-20.0,
2063.0,2028.0,15.0,-20.0,
2089.0,2099.0,15.0,-20.0,
2080.0,1961.0,16.0,-20.0,
2083.0,1901.0,16.0,-21.0,
2108.0,2513.0,16.0,-21.0,
2122.0,2297.0,16.0,-21.0,
2083.0,2078.0,16.0,-21.0,
2106.0,1995.0,16.0,-20.0,
2096.0,1992.0,16.0,-20.0,
2095.0,2045.0,16.0,-20.0,
2088.0,1922.0,16.0,-20.0,
2052.0,2032.0,16.0,-19.0,
2075.0,1993.0,16.0,-19.0,
2078.0,2250.0,16.0,-18.0,
2087.0,2434.0,16.0,-18.0,
2073.0,2130.0,16.0,-17.0,
2054.0,1874.0,16.0,-17.0,
2048.0,1974.0,16.0,-17.0,
2078.0,2059.0,16.0,-17.0,
2066.0,2215.0,16.0,-16.0,
2060.0,2237.0,16.0,-16.0,
2050.0,2092.0,16.0,-16.0,
2053.0,2002.0,16.0,-16.0,
2056.0,2014.0,16.0,-16.0,
2063.0,2041.0,16.0,-16.0,
2054.0,2050.0,15.0,-16.0,
2060.0,2060.0,15.0,-16.0,
2061.0,2051.0,15.0,-16.0,
2044.0,2069.0,15.0,-16.0,
2078.0,2063.0,15.0,-16.0,
2114.0,2064.0,15.0,-16.0,
2109.0,2056.0,14.0,-16.0,
2076.0,2071.0,14.0,-16.0,
2047.0,2076.0,14.0,-15.0,
2052.0,2087.0,14.0,-15.0,
2058.0,2103.0,14.0,-15.0,
2042.0,2070.0,14.0,-15.0,
2040.0,2071.0,13.0,-15.0,
2028.0,2075.0,13.0,-15.0,
1994.0,2081.0,13.0,-15.0,
2058.0,2091.0,14.0,-15.0,
2093.0,2106.0,14.0,-15.0,
2075.0,2107.0,14.0,-15.0,
2061.0,2060.0,14.0,-15.0,
2082.0,2033.0,14.0,-15.0,
2065.0,2059.0,14.0,-15.0,
2059.0,2137.0,14.0,-15.0,
2059.0,2142.0,14.0,-15.0,
2063.0,2158.0,15.0,-15.0,
2074.0,2148.0,15.0,-15.0,
2094.0,2029.0,15.0,-15.0,
2073.0,1980.0,15.0,-15.0,
2093.0,2002.0,15.0,-15.0,
2075.0,1952.0,16.0,-16.0,
2068.0,2152.0,16.0,-16.0,
2090.0,2171.0,16.0,-16.0,
2068.0,2114.0,16.0,-16.0,
2069.0,1944.0,16.0,-16.0,
2083.0,2025.0,17.0,-16.0,
2079.0,2024.0,17.0,-17.0,
2088.0,2263.0,17.0,-17.0,
2077.0,2097.0,17.0,-17.0,
2084.0,1993.0,17.0,-17.0,
2056.0,1928.0,17.0,-17.0,
2074.0,2134.0,17.0,-17.0,
2079.0,2239.0,17.0,-17.0,
2068.0,2174.0,17.0,-17.0,
2071.0,2326.0,17.0,-17.0,
2061.0,2183.0,17.0,-17.0,
2075.0,2082.0,17.0,-17.0,
2082.0,2021.0,17.0,-17.0,
2080.0,2032.0,16.0,-17.0,
2076.0,2044.0,16.0,-17.0,
2075.0,2028.0,16.0,-16.0,
2059.0,2051.0,16.0,-16.0,
2051.0,2053.0,16.0,-16.0,
2069.0,2057.0,16.0,-16.0,
2082.0,2007.0,16.0,-16.0,
2084.0,1973.0,16.0,-16.0,
2075.0,2066.0,16.0,-16.0,
2068.0,2101.0,16.0,-16.0,
2058.0,2027.0,16.0,-16.0,
2073.0,2045.0,16.0,-16.0,
2063.0,2095.0,16.0,-16.0,
2015.0,2172.0,16.0,-16.0,
2053.0,2096.0,16.0,-16.0,
2049.0,2054.0,15.0,-16.0,
2071.0,1997.0,15.0,-16.0,
2103.0,2163.0,15.0,-16.0,
2091.0,2086.0,15.0,-16.0,
2081.0,2112.0,15.0,-16.0,
2053.0,2105.0,15.0,-15.0,
2018.0,2083.0,15.0,-15.0,
2036.0,2093.0,15.0,-15.0,
2044.0,2108.0,14.0,-15.0,
2050.0,2120.0,14.0,-15.0,
2050.0,2105.0,14.0,-14.0,
2066.0,2070.0,14.0,-14.0,
2076.0,2053.0,14.0,-14.0,
2090.0,2002.0,14.0,-14.0,
2080.0,1917.0,14.0,-14.0,
2073.0,2046.0,14.0,-14.0,
2080.0,2259.0,14.0,-14.0,
2070.0,2170.0,14.0,-14.0,
2064.0,2104.0,14.0,-14.0,
2087.0,2161.0,15.0,-13.0,
2082.0,2184.0,15.0,-14.0,
2109.0,1972.0,15.0,-14.0,
2096.0,1956.0,15.0,-14.0,
2073.0,1945.0,15.0,-14.0,
2057.0,2231.0,15.0,-13.0,
2058.0,2065.0,15.0,-14.0,
2077.0,2154.0,16.0,-14.0,
2095.0,2096.0,16.0,-14.0,
2091.0,2178.0,16.0,-13.0,
2081.0,2117.0,16.0,-13.0,
2084.0,1995.0,16.0,-13.0,
2077.0,1999.0,16.0,-13.0,
2094.0,1995.0,16.0,-13.0,
2098.0,2057.0,16.0,-13.0,
2022.0,2046.0,17.0,-14.0,
2012.0,2101.0,17.0,-14.0,
2022.0,2082.0,17.0,-13.0,
2034.0,2057.0,17.0,-13.0,
2059.0,2083.0,17.0,-13.0,
2067.0,2143.0,16.0,-14.0,
2069.0,2105.0,16.0,-14.0,
2079.0,2106.0,17.0,-14.0,
2062.0,2072.0,17.0,-14.0,
2111.0,2097.0,17.0,-14.0,
2089.0,2032.0,16.0,-14.0,
2089.0,1979.0,16.0,-14.0,
2092.0,2087.0,16.0,-14.0,
2065.0,2072.0,16.0,-15.0,
2087.0,2125.0,15.0,-14.0,
2083.0,2079.0,16.0,-14.0,
2078.0,2091.0,15.0,-14.0,
2072.0,2097.0,15.0,-14.0,
2070.0,2090.0,15.0,-14.0,
2054.0,2078.0,15.0,-14.0,
2068.0,2092.0,15.0,-14.0,
2063.0,2098.0,15.0,-14.0,
2074.0,2100.0,15.0,-14.0,
2073.0,2098.0,15.0,-14.0,
2086.0,2058.0,15.0,-14.0,
2076.0,2010.0,15.0,-14.0,
2061.0,1994.0,15.0,-13.0,
2060.0,2103.0,15.0,-13.0,
2042.0,2232.0,16.0,-13.0,
2067.0,2154.0,16.0,-14.0,
2067.0,2057.0,16.0,-13.0,
2065.0,2003.0,16.0,-13.0,
2087.0,1966.0,16.0,-13.0,
2072.0,2087.0,16.0,-13.0,
2065.0,2116.0,15.0,-13.0,
2063.0,2118.0,15.0,-13.0,
2055.0,2056.0,15.0,-13.0,
2053.0,2015.0,15.0,-13.0,
2063.0,2129.0,15.0,-13.0,
2071.0,2203.0,15.0,-12.0,
2068.0,2136.0,15.0,-12.0,
2080.0,2195.0,15.0,-12.0,
2083.0,2180.0,15.0,-12.0,
2059.0,2101.0,15.0,-11.0,
2058.0,2102.0,15.0,-11.0,
2070.0,2055.0,15.0,-11.0,
2062.0,2065.0,15.0,-11.0,
2080.0,1978.0,16.0,-10.0,
2082.0,1928.0,16.0,-10.0,
2092.0,2117.0,16.0,-10.0,
2078.0,2154.0,16.0,-10.0,
2077.0,2144.0,16.0,-10.0,
2082.0,2068.0,16.0,-10.0,
2078.0,2056.0,16.0,-10.0,
2077.0,1901.0,16.0,-10.0,
2066.0,1944.0,16.0,-10.0,
2059.0,2107.0,17.0,-10.0,
2078.0,2236.0,17.0,-10.0,
2061.0,2138.0,17.0,-10.0,
2062.0,2078.0,17.0,-10.0,
2094.0,2056.0,17.0,-10.0,
2106.0,2097.0,17.0,-10.0,
2047.0,2046.0,17.0,-10.0,
2051.0,2065.0,17.0,-10.0,
2076.0,2079.0,16.0,-10.0,
2064.0,2082.0,16.0,-10.0,
2071.0,2081.0,16.0,-10.0,
2068.0,2085.0,16.0,-10.0,
2078.0,2089.0,16.0,-10.0,
2076.0,2076.0,16.0,-10.0,
2052.0,2083.0,16.0,-11.0,
2053.0,2086.0,16.0,-11.0,
2054.0,2074.0,16.0,-11.0,
2039.0,2086.0,16.0,-12.0,
2035.0,2085.0,16.0,-12.0,
2050.0,2088.0,16.0,-12.0,
2079.0,2083.0,16.0,-12.0,
2083.0,2089.0,16.0,-13.0,
2068.0,2089.0,16.0,-13.0,
2071.0,2072.0,16.0,-13.0,
2068.0,2076.0,16.0,-13.0,
2070.0,2066.0,16.0,-13.0,
2058.0,2071.0,16.0,-13.0,
2071.0,2048.0,16.0,-13.0,
2078.0,2158.0,16.0,-14.0,
2091.0,2051.0,16.0,-14.0,
2089.0,2004.0,16.0,-14.0,
2100.0,2299.0,16.0,-14.0,
2079.0,1993.0,16.0,-14.0,
2080.0,2065.0,16.0,-14.0,
2091.0,2091.0,16.0,-14.0,
2076.0,2347.0,16.0,-14.0,
2070.0,2183.0,15.0,-14.0,
2052.0,1985.0,15.0,-14.0,
2040.0,1956.0,15.0,-13.0,
2053.0,2043.0,15.0,-13.0,
2066.0,2242.0,15.0,-13.0,
2088.0,2196.0,15.0,-13.0,
2098.0,1959.0,15.0,-13.0,
2075.0,2149.0,14.0,-12.0,
2061.0,2137.0,14.0,-12.0,
2058.0,2073.0,14.0,-11.0,
2052.0,1995.0,13.0,-11.0,
2060.0,2029.0,13.0,-11.0,
2072.0,2037.0,13.0,-10.0,
2087.0,2052.0,13.0,-10.0,
2076.0,2069.0,13.0,-10.0,
2086.0,2049.0,13.0,-9.0,
2059.0,2028.0,13.0,-9.0,
2047.0,2033.0,14.0,-9.0,
2084.0,2148.0,14.0,-9.0,
2074.0,2127.0,14.0,-9.0,
2077.0,2124.0,15.0,-9.0,
2070.0,2136.0,15.0,-9.0,
2065.0,2082.0,15.0,-9.0,
2087.0,2087.0,15.0,-9.0,
2094.0,2042.0,16.0,-9.0,
2088.0,2005.0,16.0,-9.0,
2058.0,2023.0,16.0,-9.0,
2041.0,2224.0,16.0,-9.0,
2030.0,2108.0,17.0,-9.0,
2076.0,2180.0,17.0,-9.0,
2080.0,2057.0,17.0,-9.0,
2064.0,2090.0,17.0,-9.0,
2078.0,2073.0,18.0,-9.0,
2068.0,2063.0,18.0,-9.0,
2080.0,2044.0,18.0,-10.0,
2105.0,2044.0,18.0,-10.0,
2074.0,2115.0,18.0,-10.0,
2078.0,2054.0,18.0,-10.0,
2062.0,2029.0,18.0,-10.0,
2094.0,2151.0,18.0,-10.0,
2069.0,2103.0,18.0,-10.0,
2069.0,2073.0,18.0,-10.0,
2110.0,2113.0,18.0,-10.0,
2104.0,2099.0,17.0,-10.0,
2109.0,2086.0,17.0,-10.0,
2063.0,2098.0,17.0,-11.0,
2024.0,2097.0,17.0,-11.0,
2025.0,2097.0,17.0,-11.0,
2029.0,2087.0,17.0,-11.0,
2057.0,2082.0,17.0,-11.0,
2047.0,2071.0,17.0,-11.0,
2051.0,2072.0,17.0,-11.0,
2062.0,2069.0,17.0,-11.0,
2099.0,2079.0,17.0,-11.0,
2094.0,2075.0,17.0,-11.0,
2085.0,2088.0,17.0,-11.0,
2076.0,2087.0,17.0,-11.0,
2081.0,2084.0,16.0,-11.0,
2057.0,2088.0,16.0,-12.0,
2048.0,2096.0,16.0,-12.0,
2073.0,2098.0,16.0,-12.0,
2073.0,2044.0,16.0,-12.0,
2074.0,2101.0,16.0,-12.0,
2064.0,2108.0,16.0,-12.0,
2063.0,2169.0,16.0,-12.0,
2073.0,1968.0,15.0,-12.0,
2070.0,2052.0,15.0,-12.0,
2074.0,2086.0,15.0,-12.0,
2071.0,2079.0,15.0,-12.0,
2068.0,2078.0,15.0,-12.0,
2069.0,2083.0,15.0,-12.0,
2073.0,2084.0,15.0,-12.0,
2067.0,2103.0,15.0,-12.0,
2089.0,2103.0,15.0,-12.0,
2076.0,2088.0,15.0,-12.0,
2062.0,2078.0,15.0,-12.0,
2067.0,2094.0,15.0,-12.0,
2066.0,2077.0,15.0,-11.0,
2071.0,2083.0,15.0,-11.0,
2060.0,2089.0,15.0,-11.0,
2063.0,2104.0,15.0,-12.0,
2060.0,2113.0,15.0,-11.0,
2074.0,2062.0,15.0,-11.0,
2072.0,2047.0,14.0,-11.0,
2067.0,2078.0,14.0,-11.0,
2073.0,2081.0,15.0,-11.0,
2085.0,2084.0,15.0,-11.0,
2074.0,2083.0,15.0,-10.0,
2071.0,2082.0,15.0,-10.0,
2063.0,2042.0,15.0,-10.0,
2067.0,2029.0,15.0,-10.0,
2076.0,1979.0,15.0,-9.0,
2087.0,2230.0,15.0,-8.0,
2080.0,2202.0,16.0,-8.0,
2075.0,2146.0,16.0,-7.0,
2068.0,2101.0,17.0,-7.0,
2076.0,2092.0,17.0,-6.0,
2066.0,2084.0,17.0,-6.0,
2076.0,2082.0,18.0,-5.0,
2083.0,2087.0,19.0,-4.0,
2064.0,2072.0,18.0,-4.0,
2061.0,2063.0,18.0,-4.0,
2064.0,2074.0,19.0,-4.0,
2059.0,2069.0,19.0,-4.0,
2063.0,2069.0,18.0,-4.0,
2059.0,2069.0,18.0,-4.0,
2068.0,2075.0,18.0,-4.0,
2061.0,2077.0,18.0,-4.0,
2069.0,2087.0,17.0,-5.0,
2069.0,2050.0,16.0,-5.0,
2075.0,2084.0,17.0,-6.0,
2078.0,2077.0,17.0,-6.0,
2083.0,2083.0,17.0,-7.0,
2066.0,2071.0,17.0,-7.0,
2068.0,2077.0,17.0,-8.0,
2026.0,2072.0,17.0,-8.0,
2066.0,2074.0,17.0,-8.0,
2071.0,2085.0,17.0,-8.0,
2074.0,2091.0,17.0,-8.0,
2063.0,2090.0,17.0,-8.0,
2071.0,2086.0,17.0,-8.0,
2068.0,2081.0,17.0,-8.0,
2068.0,2081.0,17.0,-8.0,
2066.0,2074.0,17.0,-7.0,
2072.0,2078.0,17.0,-7.0,
2077.0,2095.0,17.0,-7.0,
2074.0,2090.0,17.0,-6.0,
2075.0,2087.0,17.0,-6.0,
2063.0,2086.0,17.0,-6.0,
2070.0,2086.0,17.0,-6.0,
2073.0,2089.0,17.0,-6.0,
2068.0,2079.0,17.0,-6.0,
2059.0,2073.0,17.0,-6.0,
2064.0,2076.0,17.0,-6.0,
2059.0,2077.0,17.0,-6.0,
2061.0,2080.0,17.0,-6.0,
2066.0,2079.0,17.0,-6.0,
2071.0,2085.0,17.0,-7.0,
2071.0,2089.0,17.0,-7.0,
2071.0,2084.0,17.0,-7.0,
2066.0,2083.0,17.0,-7.0,
2072.0,2078.0,17.0,-7.0,
2068.0,2078.0,17.0,-7.0,
2064.0,2085.0,17.0,-8.0,
2070.0,2089.0,17.0,-8.0,
2073.0,2104.0,17.0,-8.0,
2072.0,2123.0,17.0,-8.0,
2055.0,2117.0,17.0,-7.0,
2065.0,2081.0,17.0,-7.0,
2064.0,2033.0,17.0,-7.0,
2064.0,2070.0,17.0,-7.0,
2080.0,2081.0,17.0,-7.0,
2067.0,2050.0,17.0,-7.0,
2069.0,2059.0,17.0,-6.0,
2068.0,2088.0,18.0,-6.0,
2072.0,2101.0,18.0,-6.0,
2077.0,2101.0,18.0,-6.0,
2072.0,2081.0,18.0,-7.0,
2071.0,2054.0,18.0,-7.0,
2071.0,2036.0,18.0,-7.0,
2071.0,1985.0,18.0,-7.0,
2063.0,1918.0,18.0,-7.0,
2077.0,2119.0,18.0,-7.0,
2071.0,2360.0,18.0,-7.0,
2078.0,2218.0,18.0,-7.0,
2076.0,2156.0,18.0,-7.0,
2080.0,2055.0,18.0,-6.0,
2073.0,2022.0,18.0,-6.0,
2067.0,2021.0,18.0,-6.0,
2059.0,2036.0,18.0,-7.0,
2075.0,2026.0,19.0,-7.0,
2076.0,2086.0,19.0,-7.0,
2063.0,2110.0,19.0,-8.0,
2058.0,2166.0,19.0,-7.0,
2075.0,2071.0,19.0,-7.0,
2070.0,2048.0,19.0,-7.0,
2081.0,2109.0,19.0,-7.0,
2077.0,2129.0,19.0,-7.0,
2071.0,2082.0,19.0,-7.0,
2072.0,2034.0,19.0,-6.0,
2070.0,2045.0,20.0,-6.0,
2070.0,2061.0,20.0,-6.0,
2065.0,2086.0,20.0,-5.0,
2074.0,2089.0,20.0,-6.0,
2073.0,2064.0,21.0,-6.0,
2063.0,2076.0,21.0,-6.0,
2065.0,2075.0,21.0,-6.0,
2060.0,2077.0,21.0,-6.0,
2086.0,2079.0,21.0,-6.0,
2073.0,2085.0,21.0,-6.0,
2071.0,2094.0,21.0,-6.0,
2082.0,2090.0,21.0,-6.0,
2069.0,2086.0,21.0,-6.0,
2077.0,2085.0,22.0,-6.0,
2063.0,2087.0,22.0,-6.0,
2068.0,2084.0,22.0,-6.0,
2065.0,2083.0,22.0,-6.0,
2065.0,2089.0,22.0,-6.0,
2071.0,2087.0,22.0,-6.0,
2068.0,2089.0,22.0,-6.0,
2064.0,2093.0,22.0,-6.0,
2075.0,2089.0,21.0,-6.0,
2078.0,2088.0,21.0,-6.0,
2074.0,2087.0,21.0,-6.0,
2062.0,2087.0,21.0,-6.0,
2062.0,2081.0,21.0,-6.0,
2057.0,2083.0,21.0,-6.0,
2063.0,2082.0,20.0,-6.0,
2064.0,2096.0,20.0,-6.0,
2067.0,2091.0,20.0,-7.0,
2073.0,2092.0,20.0,-7.0,
2071.0,2087.0,19.0,-7.0,
2071.0,2086.0,19.0,-7.0,
2070.0,2080.0,19.0,-7.0,
2071.0,2078.0,19.0,-7.0,
2057.0,2078.0,19.0,-7.0,
2075.0,2085.0,19.0,-7.0,
2073.0,2083.0,18.0,-7.0,
2069.0,2086.0,18.0,-7.0,
2073.0,2089.0,18.0,-7.0,
2075.0,2068.0,18.0,-7.0,
2071.0,2071.0,18.0,-7.0,
2061.0,2100.0,18.0,-7.0,
2074.0,2158.0,18.0,-7.0,
2056.0,2110.0,18.0,-7.0,
2068.0,2052.0,18.0,-7.0,
2068.0,2035.0,18.0,-7.0,
2068.0,2056.0,18.0,-7.0,
2074.0,2058.0,18.0,-7.0,
2073.0,2044.0,18.0,-7.0,
2070.0,2042.0,18.0,-7.0,
2073.0,2188.0,18.0,-7.0,
2061.0,2111.0,18.0,-7.0,
2067.0,2105.0,18.0,-7.0,
2063.0,2097.0,18.0,-7.0,
2063.0,2101.0,18.0,-7.0,
2062.0,2093.0,18.0,-7.0,
2062.0,2096.0,18.0,-7.0,
2070.0,2059.0,18.0,-7.0,
2062.0,2036.0,18.0,-7.0,
2059.0,2012.0,18.0,-7.0,
2059.0,2105.0,18.0,-7.0,
2063.0,2191.0,18.0,-7.0,
2068.0,2106.0,18.0,-7.0,
2062.0,2089.0,18.0,-7.0,
2062.0,2091.0,18.0,-7.0,
2070.0,2081.0,18.0,-7.0,
2066.0,2079.0,18.0,-6.0,
2078.0,2077.0,18.0,-6.0,
2074.0,2082.0,18.0,-6.0,
2072.0,2069.0,19.0,-6.0,
2068.0,2077.0,19.0,-7.0,
2072.0,2078.0,19.0,-7.0,
2065.0,2078.0,19.0,-6.0,
2078.0,2087.0,19.0,-6.0,
2076.0,2084.0,19.0,-6.0,
2074.0,2094.0,19.0,-6.0,
2065.0,2131.0,19.0,-6.0,
2066.0,2135.0,19.0,-6.0,
2068.0,2070.0,19.0,-6.0,
2068.0,1895.0,19.0,-6.0,
2062.0,1971.0,19.0,-6.0,
2072.0,2134.0,19.0,-6.0,
2064.0,2126.0,19.0,-6.0,
2071.0,2107.0,19.0,-6.0,
2070.0,2093.0,19.0,-6.0,
2076.0,2092.0,19.0,-6.0,
2071.0,2073.0,19.0,-6.0,
2076.0,2082.0,19.0,-6.0,
2057.0,2085.0,19.0,-6.0,
2060.0,2101.0,19.0,-6.0,
2059.0,2116.0,19.0,-6.0,
2068.0,2106.0,19.0,-6.0,
2077.0,2092.0,19.0,-6.0,
2065.0,2077.0,19.0,-6.0,
2073.0,2114.0,19.0,-6.0,
2076.0,2076.0,19.0,-6.0,
2066.0,2016.0,19.0,-6.0,
2066.0,2044.0,19.0,-6.0,
2074.0,2031.0,19.0,-6.0,
2079.0,2149.0,19.0,-6.0,
2074.0,2108.0,20.0,-6.0,
2068.0,2088.0,20.0,-6.0,
2066.0,2099.0,20.0,-6.0,
2083.0,2079.0,20.0,-6.0,
2074.0,2097.0,20.0,-6.0,
2066.0,2085.0,20.0,-6.0,
2060.0,2087.0,20.0,-6.0,
2076.0,2087.0,20.0,-6.0,
2075.0,2084.0,20.0,-6.0,
2065.0,2068.0,20.0,-6.0,
2069.0,2043.0,20.0,-6.0,
2073.0,2053.0,20.0,-6.0,
2073.0,2098.0,20.0,-6.0,
2074.0,2151.0,20.0,-6.0,
2062.0,2073.0,20.0,-6.0,
2063.0,2084.0,20.0,-6.0,
2063.0,2081.0,20.0,-6.0,
2058.0,2094.0,20.0,-6.0,
2067.0,2089.0,20.0,-6.0,
2076.0,2061.0,20.0,-6.0,
2085.0,2008.0,20.0,-6.0,
2071.0,2004.0,20.0,-7.0,
2079.0,2227.0,20.0,-6.0,
2066.0,2111.0,20.0,-7.0,
2078.0,2087.0,20.0,-7.0,
2065.0,2086.0,20.0,-7.0,
2073.0,2089.0,20.0,-6.0,
2064.0,2077.0,20.0,-6.0,
2068.0,2074.0,20.0,-6.0,
2078.0,2104.0,20.0,-6.0,
2109.0,2074.0,20.0,-6.0,
2070.0,2067.0,20.0,-6.0,
2069.0,2073.0,20.0,-6.0,
2079.0,2083.0,20.0,-6.0,
2078.0,2087.0,20.0,-6.0,
2065.0,2110.0,20.0,-6.0,
2066.0,2093.0,20.0,-6.0,
2072.0,2071.0,20.0,-6.0,
2072.0,2035.0,20.0,-6.0,
2067.0,2063.0,20.0,-6.0,
2072.0,2076.0,20.0,-6.0,
2067.0,2073.0,20.0,-6.0,
2065.0,2076.0,20.0,-6.0,
2069.0,2080.0,20.0,-6.0,
2070.0,2081.0,20.0,-6.0,
2066.0,2084.0,20.0,-6.0,
2067.0,2093.0,20.0,-6.0,
2067.0,2084.0,20.0,-7.0,
2069.0,2082.0,20.0,-7.0,
2066.0,2075.0,20.0,-7.0,
2064.0,2081.0,20.0,-7.0,
2064.0,2084.0,20.0,-7.0,
2070.0,2088.0,20.0,-7.0,
2072.0,2100.0,20.0,-7.0,
2064.0,2103.0,20.0,-7.0,
2079.0,2121.0,20.0,-7.0,
2070.0,2148.0,20.0,-7.0,
2074.0,2101.0,20.0,-7.0,
2077.0,2059.0,20.0,-7.0,
2072.0,1994.0,20.0,-7.0,
2066.0,2043.0,20.0,-6.0,
2060.0,2099.0,20.0,-6.0,
2060.0,2103.0,20.0,-6.0,
2067.0,2036.0,20.0,-6.0,
2071.0,1999.0,20.0,-7.0,
2067.0,1994.0,20.0,-6.0,
2075.0,2189.0,20.0,-6.0,
2059.0,2192.0,20.0,-6.0,
2061.0,2100.0,20.0,-6.0,
2066.0,2082.0,20.0,-6.0,
2054.0,2063.0,20.0,-6.0,
2062.0,2093.0,20.0,-6.0,
2072.0,2095.0,20.0,-6.0,
2065.0,2085.0,20.0,-6.0,
2065.0,2085.0,20.0,-6.0,
2065.0,2083.0,20.0,-6.0,
2068.0,2075.0,20.0,-6.0,
2073.0,2073.0,20.0,-6.0,
2072.0,2082.0,20.0,-6.0,
2084.0,2103.0,20.0,-6.0,
2075.0,2115.0,20.0,-6.0,
2060.0,2106.0,20.0,-6.0,
2069.0,2076.0,20.0,-6.0,
2071.0,2036.0,20.0,-6.0,
2070.0,2068.0,20.0,-6.0,
2053.0,2021.0,20.0,-6.0,
2063.0,1975.0,20.0,-6.0,
2074.0,1964.0,20.0,-6.0,
2071.0,2299.0,20.0,-6.0,
2067.0,2183.0,20.0,-6.0,
2060.0,2138.0,20.0,-6.0,
2073.0,2114.0,20.0,-6.0,
2080.0,2107.0,20.0,-6.0,
2060.0,2068.0,20.0,-6.0,
2064.0,2068.0,20.0,-6.0,
2061.0,2081.0,20.0,-6.0,
2063.0,2100.0,20.0,-6.0,
2059.0,2086.0,20.0,-6.0,
2067.0,2070.0,20.0,-6.0,
2064.0,2064.0,20.0,-6.0,
2069.0,2070.0,20.0,-6.0,
2078.0,2074.0,20.0,-6.0,
2070.0,2069.0,20.0,-6.0,
2072.0,2071.0,20.0,-6.0,
2064.0,2070.0,20.0,-6.0,
2071.0,2076.0,20.0,-6.0,
2064.0,2079.0,20.0,-6.0,
2072.0,2081.0,20.0,-6.0,
2070.0,2085.0,20.0,-6.0,
2069.0,2087.0,20.0,-6.0,
2070.0,2088.0,20.0,-6.0,
2070.0,2085.0,20.0,-6.0,
2055.0,2081.0,20.0,-6.0,
2063.0,2071.0,20.0,-6.0,
2067.0,2079.0,20.0,-6.0,
2063.0,2079.0,20.0,-6.0,
2074.0,2126.0,20.0,-6.0,
2068.0,2092.0,20.0,-6.0,
2103.0,2062.0,20.0,-6.0,
2070.0,2108.0,20.0,-6.0,
2071.0,2118.0,20.0,-6.0,
2087.0,2104.0,20.0,-6.0,
2079.0,2023.0,20.0,-6.0,
2068.0,2035.0,20.0,-6.0,
2075.0,2077.0,20.0,-6.0,
2058.0,2073.0,20.0,-6.0,
2059.0,2071.0,20.0,-6.0,
2083.0,2079.0,20.0,-6.0,
2063.0,2126.0,20.0,-6.0,
2073.0,2119.0,20.0,-6.0,
2066.0,2100.0,20.0,-6.0,
2073.0,2039.0,20.0,-6.0,
2062.0,2052.0,20.0,-6.0,
2067.0,2029.0,20.0,-6.0,
2067.0,2109.0,20.0,-6.0,
2065.0,2054.0,20.0,-6.0,
2069.0,2019.0,20.0,-6.0,
2080.0,2176.0,20.0,-6.0,
2084.0,2181.0,20.0,-6.0,
2062.0,2082.0,20.0,-6.0,
2065.0,2091.0,20.0,-6.0,
2064.0,2091.0,20.0,-6.0,
2061.0,2077.0,20.0,-6.0,
2066.0,2066.0,20.0,-6.0,
2069.0,2044.0,20.0,-6.0,
2058.0,2001.0,20.0,-6.0,
2062.0,2061.0,20.0,-6.0,
2068.0,2210.0,20.0,-6.0,
2065.0,2133.0,20.0,-6.0,
2069.0,2067.0,20.0,-6.0,
2064.0,2063.0,20.0,-6.0,
2065.0,2082.0,20.0,-6.0,
2062.0,2090.0,20.0,-6.0,
2066.0,2054.0,20.0,-6.0,
2074.0,2062.0,20.0,-6.0,
2068.0,2075.0,20.0,-6.0,
2071.0,2077.0,20.0,-6.0,
2074.0,2074.0,20.0,-6.0,
2064.0,2092.0,20.0,-6.0,
2072.0,2093.0,20.0,-6.0,
2068.0,2097.0,20.0,-6.0,
2064.0,2071.0,20.0,-6.0,
2062.0,2083.0,20.0,-6.0,
2076.0,2072.0,20.0,-6.0,
2072.0,2038.0,20.0,-6.0,
2073.0,2065.0,20.0,-6.0,
2076.0,2074.0,20.0,-6.0,
2068.0,2075.0,20.0,-6.0,
2060.0,2075.0,20.0,-6.0,
2065.0,2083.0,20.0,-6.0,
2079.0,2098.0,20.0,-6.0,
2070.0,2099.0,20.0,-6.0,
2068.0,2091.0,20.0,-6.0,
2081.0,2089.0,20.0,-6.0,
2075.0,2090.0,20.0,-6.0,
2072.0,2084.0,20.0,-6.0,
2069.0,2084.0,20.0,-6.0,
2063.0,2079.0,20.0,-6.0,
2074.0,2083.0,20.0,-6.0,
2068.0,2089.0,20.0,-6.0,
2066.0,2078.0,20.0,-6.0,
2061.0,2098.0,20.0,-6.0,
2077.0,2087.0,20.0,-6.0,
2082.0,2091.0,20.0,-6.0,
2068.0,2083.0,20.0,-6.0,
2068.0,2078.0,20.0,-6.0,
2063.0,2079.0,20.0,-6.0,
2071.0,2080.0,20.0,-6.0,
2075.0,2081.0,20.0,-6.0,
2076.0,2084.0,20.0,-6.0,
2076.0,2100.0,20.0,-6.0,
2069.0,2089.0,20.0,-6.0,
2075.0,2087.0,20.0,-6.0,
2071.0,2081.0,20.0,-6.0,
2072.0,2075.0,19.0,-6.0,
2069.0,2089.0,20.0,-6.0,
2071.0,2069.0,19.0,-6.0,
2058.0,2054.0,19.0,-6.0,
2070.0,2006.0,19.0,-6.0,
2070.0,2199.0,19.0,-6.0,
2082.0,2094.0,19.0,-6.0,
2089.0,2182.0,20.0,-6.0,
2076.0,2067.0,20.0,-6.0,
2066.0,2034.0,0,
2070.0,2048.0,20.0,-6.0,
2067.0,2166.0,20.0,-6.0,
2069.0,2098.0,20.0,-6.0,
2066.0,2089.0,20.0,-6.0,
2078.0,2099.0,20.0,-6.0,
2083.0,2103.0,20.0,-6.0,
2070.0,2018.0,20.0,-6.0,
2066.0,2047.0,20.0,-6.0,
2075.0,2074.0,20.0,-6.0,
2077.0,2140.0,20.0,-6.0,
2068.0,2073.0,20.0,-6.0,
2070.0,2037.0,20.0,-6.0,
2054.0,2070.0,20.0,-6.0,
2067.0,2085.0,20.0,-6.0,
2069.0,2082.0,20.0,-6.0,
2081.0,2074.0,20.0,-6.0,
2069.0,2060.0,20.0,-6.0,
2068.0,2060.0,20.0,-6.0,
2080.0,2079.0,20.0,-6.0,
2060.0,2095.0,20.0,-6.0,
2065.0,2139.0,20.0,-6.0,
2069.0,2133.0,20.0,-6.0,
2067.0,2077.0,20.0,-6.0,
2076.0,2008.0,20.0,-6.0,
2075.0,2070.0,20.0,-6.0,
2075.0,2061.0,20.0,-6.0,
2064.0,2072.0,20.0,-6.0,
2070.0,2089.0,20.0,-6.0,
2066.0,2081.0,20.0,-6.0,
2070.0,2077.0,20.0,-6.0,
2072.0,2099.0,20.0,-6.0,
2074.0,2106.0,20.0,-6.0,
2073.0,2096.0,20.0,-6.0,
2074.0,2076.0,20.0,-6.0,
2074.0,2085.0,20.0,-6.0,
2085.0,2090.0,20.0,-7.0,
2060.0,2089.0,20.0,-7.0,
2065.0,2097.0,20.0,-7.0,
2078.0,2101.0,20.0,-7.0,
2072.0,2090.0,20.0,-7.0,
2068.0,2091.0,20.0,-7.0,
2070.0,2085.0,20.0,-7.0,
2073.0,2088.0,20.0,-7.0,
2072.0,2080.0,20.0,-6.0,
2075.0,2087.0,20.0,-6.0,
2096.0,2081.0,20.0,-6.0,
2060.0,2083.0,20.0,-6.0,
2070.0,2088.0,20.0,-6.0,
2066.0,2093.0,20.0,-6.0,
2074.0,2101.0,20.0,-6.0,
2073.0,2099.0,20.0,-6.0,
2079.0,2102.0,20.0,-6.0,
2070.0,2075.0,20.0,-6.0,
2063.0,2050.0,20.0,-6.0,
2071.0,2083.0,20.0,-6.0,
2059.0,2080.0,20.0,-6.0,
2059.0,2026.0,20.0,-6.0,
2068.0,2010.0,20.0,-6.0,
2061.0,2010.0,20.0,-6.0,
2076.0,2248.0,20.0,-6.0,
2071.0,2092.0,20.0,-6.0,
2064.0,2017.0,20.0,-6.0,
2063.0,2079.0,20.0,-6.0,
2052.0,2167.0,19.0,-6.0,
2062.0,2164.0,20.0,-6.0,
2062.0,2096.0,20.0,-6.0,
2060.0,2109.0,20.0,-6.0,
2074.0,2099.0,20.0,-6.0,
2078.0,2089.0,20.0,-6.0,
2067.0,2083.0,20.0,-6.0,
2074.0,2060.0,20.0,-6.0,
2054.0,2059.0,20.0,-6.0,
2055.0,2093.0,20.0,-6.0,
2073.0,2090.0,20.0,-6.0,
2072.0,2054.0,20.0,-6.0,
2067.0,2075.0,20.0,-6.0,
2068.0,2075.0,20.0,-6.0,
2061.0,2043.0,20.0,-6.0,
2072.0,2070.0,20.0,-6.0,
2070.0,2093.0,20.0,-6.0,
2070.0,2092.0,20.0,-6.0,
2071.0,2083.0,20.0,-6.0,
2072.0,2042.0,20.0,-6.0,
2071.0,2060.0,20.0,-6.0,
2071.0,2069.0,20.0,-6.0,
2067.0,2090.0,20.0,-6.0,
2066.0,2089.0,20.0,-6.0,
2064.0,2099.0,20.0,-6.0,
2067.0,2103.0,20.0,-6.0,
2074.0,2095.0,20.0,-6.0,
2071.0,2077.0,20.0,-6.0,
2071.0,2098.0,20.0,-6.0,
2068.0,2122.0,20.0,-6.0,
2066.0,2079.0,20.0,-6.0,
2073.0,2067.0,20.0,-6.0,
2071.0,2106.0,20.0,-6.0,
2084.0,2095.0,20.0,-6.0,
2067.0,2043.0,20.0,-6.0,
2070.0,2056.0,20.0,-6.0,
2071.0,2067.0,19.0,-6.0,
2073.0,2070.0,19.0,-6.0,
2067.0,2097.0,19.0,-6.0,
2067.0,2094.0,20.0,-6.0,
2061.0,2093.0,20.0,-6.0,
2065.0,2094.0,20.0,-6.0,
2065.0,2093.0,20.0,-6.0,
2063.0,2094.0,20.0,-6.0,
2066.0,2086.0,20.0,-6.0,
2069.0,2091.0,20.0,-6.0,
2073.0,2096.0,20.0,-6.0,
2057.0,2092.0,20.0,-6.0,
2048.0,2091.0,20.0,-6.0,
2065.0,2095.0,20.0,-6.0,
2063.0,2097.0,20.0,-6.0,
2062.0,2088.0,20.0,-6.0,
2078.0,2090.0,20.0,-6.0,
2078.0,2080.0,20.0,-6.0,
2060.0,2071.0,20.0,-6.0,
2050.0,2077.0,20.0,-6.0,
2055.0,2056.0,20.0,-6.0,
2068.0,2058.0,20.0,-6.0,
2070.0,2016.0,20.0,-6.0,
2075.0,2197.0,20.0,-6.0,
2064.0,2147.0,20.0,-6.0,
2069.0,2096.0,20.0,-6.0,
2078.0,2092.0,20.0,-6.0,
2069.0,2049.0,20.0,-6.0,
2067.0,2058.0,20.0,-6.0,
2077.0,2183.0,20.0,-6.0,
2078.0,2110.0,20.0,-6.0,
2068.0,2109.0,20.0,-6.0,
2070.0,2069.0,20.0,-6.0,
2073.0,2040.0,20.0,-6.0,
2090.0,2054.0,20.0,-6.0,
2082.0,2115.0,20.0,-6.0,
2072.0,2128.0,20.0,-6.0,
2064.0,2096.0,20.0,-6.0,
2066.0,2100.0,20.0,-6.0,
2062.0,2088.0,20.0,-6.0,
2069.0,2097.0,20.0,-6.0,
2073.0,2084.0,20.0,-6.0,
2085.0,2130.0,20.0,-6.0,
2070.0,2021.0,20.0,-6.0,
2062.0,2011.0,20.0,-6.0,
2062.0,2046.0,20.0,-6.0,
2059.0,2073.0,20.0,-6.0,
2058.0,2077.0,20.0,-6.0,
2080.0,2094.0,20.0,-6.0,
2081.0,2097.0,20.0,-6.0,
2067.0,2091.0,20.0,-6.0,
2065.0,2085.0,20.0,-6.0,
2073.0,2048.0,20.0,-6.0,
2069.0,2057.0,20.0,-6.0,
2067.0,2049.0,20.0,-6.0,
2078.0,2138.0,20.0,-6.0,
2085.0,2066.0,20.0,-6.0,
2077.0,2042.0,20.0,-6.0,
2076.0,2252.0,20.0,-6.0,
2088.0,2158.0,20.0,-6.0,
2074.0,2116.0,20.0,-6.0,
2070.0,2102.0,20.0,-6.0,
2075.0,2090.0,20.0,-6.0,
2070.0,2095.0,20.0,-6.0,
2070.0,2102.0,20.0,-6.0,
2057.0,2082.0,20.0,-6.0,
2068.0,2071.0,20.0,-6.0,
2066.0,2065.0,20.0,-6.0,
2066.0,2072.0,20.0,-6.0,
2073.0,2070.0,20.0,-6.0,
2063.0,2075.0,20.0,-6.0,
2056.0,2070.0,20.0,-6.0,
2067.0,2048.0,20.0,-6.0,
2059.0,2069.0,20.0,-6.0,
2057.0,2083.0,20.0,-6.0,
2062.0,2092.0,19.0,-6.0,
2083.0,2096.0,19.0,-6.0,
2074.0,2097.0,19.0,-6.0,
2079.0,2096.0,19.0,-6.0,
2066.0,2089.0,19.0,-6.0,
2080.0,2044.0,19.0,-6.0,
2072.0,2068.0,19.0,-6.0,
2069.0,2084.0,19.0,-6.0,
2063.0,2088.0,19.0,-6.0,
2066.0,2092.0,19.0,-6.0,
2075.0,2095.0,19.0,-6.0,
2066.0,2107.0,19.0,-6.0,
2075.0,2111.0,20.0,-6.0,
2071.0,2105.0,19.0,-6.0,
2072.0,2066.0,20.0,-6.0,
2068.0,2034.0,20.0,-6.0,
2069.0,2068.0,20.0,-6.0,
2065.0,2079.0,20.0,-6.0,
2065.0,2087.0,20.0,-6.0,
2070.0,2086.0,20.0,-6.0,
2076.0,2096.0,20.0,-6.0,
2070.0,2090.0,20.0,-6.0,
2069.0,2083.0,20.0,-6.0,
2070.0,2077.0,20.0,-6.0,
2066.0,2073.0,20.0,-6.0,
2060.0,2069.0,20.0,-6.0,
2073.0,2112.0,20.0,-6.0,
2057.0,2104.0,20.0,-6.0,
2052.0,2076.0,20.0,-6.0,
2071.0,2078.0,20.0,-6.0,
2069.0,2080.0,20.0,-6.0,
2062.0,2108.0,20.0,-6.0,
2066.0,2068.0,20.0,-6.0,
2092.0,2119.0,20.0,-6.0,
2063.0,2059.0,20.0,-6.0,
2074.0,2092.0,20.0,-6.0,
2070.0,2072.0,20.0,-6.0,
2070.0,2079.0,20.0,-6.0,
2075.0,2081.0,20.0,-6.0,
2077.0,2077.0,20.0,-6.0,
2073.0,2074.0,20.0,-6.0,
2069.0,2068.0,20.0,-6.0,
2067.0,2065.0,20.0,-6.0,
2056.0,2080.0,20.0,-6.0,
2060.0,2084.0,20.0,-6.0,
2069.0,2090.0,20.0,-6.0,
2075.0,2093.0,20.0,-6.0,
2077.0,2091.0,20.0,-6.0,
2076.0,2088.0,20.0,-6.0,
2073.0,2083.0,20.0,-6.0,
2072.0,2083.0,20.0,-6.0,
2072.0,2081.0,20.0,-6.0,
2073.0,2088.0,20.0,-6.0,
2065.0,2089.0,20.0,-6.0,
2069.0,2090.0,20.0,-6.0,
2068.0,2094.0,20.0,-6.0,
2071.0,2094.0,20.0,-6.0,
2074.0,2079.0,20.0,-6.0,
2071.0,2093.0,20.0,-6.0,
2075.0,2101.0,20.0,-6.0,
2070.0,2091.0,20.0,-6.0,
2061.0,2045.0,20.0,-6.0,
2067.0,2080.0,20.0,-6.0,
2062.0,2040.0,20.0,-6.0,
2072.0,2023.0,20.0,-6.0,
2072.0,2023.0,20.0,-6.0,
2059.0,2231.0,0,
2056.0,2207.0,19.0,-6.0,
2056.0,2133.0,19.0,-6.0,
2062.0,2071.0,19.0,-6.0,
2057.0,2085.0,19.0,-6.0,
2047.0,2124.0,19.0,-6.0,
2074.0,2055.0,19.0,-6.0,
2050.0,1959.0,19.0,-6.0,
2067.0,2020.0,19.0,-6.0,
2062.0,2133.0,19.0,-6.0,
2063.0,2086.0,20.0,-6.0,
2071.0,2068.0,20.0,-6.0,
2067.0,2075.0,20.0,-6.0,
2064.0,2074.0,20.0,-6.0,
2065.0,2080.0,20.0,-6.0,
2068.0,2076.0,20.0,-6.0,
2058.0,2083.0,20.0,-6.0,
2072.0,2087.0,20.0,-6.0,
2085.0,2085.0,20.0,-6.0,
2092.0,2087.0,20.0,-6.0,
2081.0,2084.0,20.0,-6.0,
2061.0,2078.0,20.0,-6.0,
2067.0,2048.0,20.0,-6.0,
2076.0,2037.0,20.0,-6.0,
2070.0,2088.0,20.0,-6.0,
2062.0,2146.0,20.0,-6.0,
2063.0,2102.0,20.0,-6.0,
2065.0,2093.0,20.0,-6.0,
2067.0,2084.0,20.0,-6.0,
2069.0,2082.0,20.0,-6.0,
2057.0,2072.0,20.0,-6.0,
2073.0,2058.0,20.0,-6.0,
2081.0,2045.0,20.0,-6.0,
2067.0,2103.0,20.0,-6.0,
2062.0,2014.0,20.0,-6.0,
2067.0,2075.0,20.0,-6.0,
2084.0,2234.0,20.0,-6.0,
2080.0,2119.0,20.0,-6.0,
2065.0,2095.0,20.0,-6.0,
2071.0,2100.0,20.0,-6.0,
2071.0,2104.0,19.0,-6.0,
2063.0,2094.0,20.0,-6.0,
2071.0,2046.0,20.0,-6.0,
2072.0,2040.0,19.0,-6.0,
2074.0,2070.0,20.0,-6.0,
2079.0,2079.0,20.0,-6.0,
2071.0,2089.0,20.0,-6.0,
2063.0,2067.0,20.0,-6.0,
2066.0,2070.0,20.0,-6.0,
2065.0,2079.0,20.0,-6.0,
2053.0,2056.0,20.0,-6.0,
2063.0,2083.0,20.0,-6.0,
2064.0,2091.0,20.0,-6.0,
2075.0,2081.0,20.0,-6.0,
2079.0,2086.0,20.0,-6.0,
2068.0,2083.0,20.0,-6.0,
2050.0,2081.0,20.0,-6.0,
2065.0,2081.0,20.0,-6.0,
2064.0,2086.0,20.0,-6.0,
2066.0,2079.0,20.0,-6.0,
2061.0,2088.0,20.0,-6.0,
2065.0,2094.0,20.0,-6.0,
2065.0,2090.0,20.0,-6.0,
2072.0,2095.0,20.0,-6.0,
2067.0,2084.0,20.0,-6.0,
2069.0,2092.0,20.0,-6.0,
2065.0,2076.0,20.0,-6.0,
2054.0,2078.0,20.0,-6.0,
2057.0,2081.0,20.0,-6.0,
2069.0,2085.0,20.0,-6.0,
2075.0,2094.0,20.0,-6.0,
2073.0,2092.0,20.0,-6.0,
2074.0,2074.0,20.0,-6.0,
2070.0,2085.0,20.0,-6.0,
2119.0,2078.0,20.0,-6.0,
2063.0,2081.0,20.0,-6.0,
2071.0,2082.0,20.0,-6.0,
2066.0,2079.0,20.0,-6.0,
2056.0,2086.0,20.0,-6.0,
2073.0,2090.0,20.0,-6.0,
2064.0,2082.0,20.0,-6.0,
2063.0,2083.0,20.0,-6.0,
2067.0,2083.0,20.0,-6.0,
2053.0,2085.0,20.0,-6.0,
2066.0,2087.0,20.0,-6.0,
2056.0,2079.0,20.0,-6.0,
2062.0,2103.0,20.0,-6.0,
2060.0,2091.0,20.0,-6.0,
2062.0,2084.0,20.0,-6.0,
2066.0,2084.0,20.0,-6.0,
2065.0,2080.0,20.0,-6.0,
2065.0,2080.0,19.0,-6.0,
2061.0,2078.0,19.0,-6.0,
2064.0,2085.0,19.0,-6.0,
2066.0,2084.0,19.0,-6.0,
2059.0,2080.0,19.0,-6.0,
2081.0,2088.0,19.0,-6.0,
2074.0,2087.0,20.0,-6.0,
2072.0,2094.0,20.0,-6.0,
2070.0,2077.0,20.0,-6.0,
2073.0,2083.0,20.0,-6.0,
2066.0,2078.0,20.0,-6.0,
2069.0,2079.0,20.0,-6.0,
2068.0,2080.0,20.0,-6.0,
2066.0,2083.0,20.0,-6.0,
2065.0,2087.0,20.0,-6.0,
2070.0,2088.0,20.0,-6.0,
2071.0,2078.0,20.0,-6.0,
2064.0,2085.0,20.0,-6.0,
2071.0,2085.0,20.0,-6.0,
2070.0,2087.0,20.0,-6.0,
2070.0,2079.0,20.0,-6.0,
2066.0,2078.0,20.0,-6.0,
2069.0,2084.0,20.0,-6.0,
2070.0,2084.0,20.0,-6.0,
2068.0,2083.0,20.0,-6.0,
2077.0,2092.0,20.0,-6.0,
2073.0,2099.0,20.0,-6.0,
2066.0,2088.0,20.0,-6.0,
2069.0,2077.0,20.0,-6.0,
2073.0,2077.0,20.0,-6.0,
2062.0,2079.0,20.0,-6.0,
2061.0,2091.0,20.0,-6.0,
2073.0,2118.0,20.0,-6.0,
2063.0,2064.0,20.0,-6.0,
2054.0,2072.0,20.0,-6.0,
2065.0,2081.0,20.0,-6.0,
2073.0,2077.0,0,
2072.0,2083.0,20.0,-6.0,
2075.0,2082.0,20.0,-6.0,
2065.0,2077.0,20.0,-6.0,
2056.0,2077.0,20.0,-6.0,
2065.0,2091.0,20.0,-6.0,
2067.0,2088.0,20.0,-6.0,
2069.0,2088.0,20.0,-6.0,
2076.0,2098.0,20.0,-6.0,
2075.0,2097.0,20.0,-6.0,
2076.0,2083.0,20.0,-6.0,
2069.0,2079.0,20.0,-6.0,
2062.0,2081.0,20.0,-6.0,
2068.0,2083.0,20.0,-6.0,
2072.0,2088.0,20.0,-6.0,
2071.0,2088.0,20.0,-6.0,
2075.0,2087.0,20.0,-6.0,
2069.0,2088.0,20.0,-6.0,
2075.0,2086.0,20.0,-6.0,
2066.0,2080.0,20.0,-6.0,
2068.0,2079.0,20.0,-6.0,
2070.0,2080.0,20.0,-6.0,
2064.0,2080.0,20.0,-6.0,
2067.0,2090.0,20.0,-6.0,
2062.0,2085.0,20.0,-6.0,
2072.0,2087.0,20.0,-6.0,
2070.0,2092.0,20.0,-6.0,
2052.0,2080.0,20.0,-6.0,
2073.0,2083.0,20.0,-6.0,
2065.0,2076.0,20.0,-6.0,
2052.0,2076.0,20.0,-6.0,
2060.0,2082.0,20.0,-6.0,
2065.0,2082.0,20.0,-6.0,
2067.0,2090.0,20.0,-6.0,
2070.0,2089.0,20.0,-6.0,
2070.0,2094.0,20.0,-6.0,
2065.0,2080.0,20.0,-6.0,
2065.0,2073.0,20.0,-6.0,
2076.0,2073.0,20.0,-6.0,
2059.0,2073.0,20.0,-6.0,
2065.0,2082.0,20.0,-6.0,
2073.0,2081.0,20.0,-6.0,
2062.0,2081.0,20.0,-6.0,
2064.0,2081.0,20.0,-6.0,
2072.0,2081.0,20.0,-6.0,
2061.0,2088.0,20.0,-6.0,
2069.0,2083.0,20.0,-6.0,
2077.0,2085.0,20.0,-6.0,
2068.0,2077.0,20.0,-6.0,
2075.0,2078.0,20.0,-6.0,
2064.0,2086.0,20.0,-6.0,
2069.0,2090.0,20.0,-6.0,
2077.0,2091.0,20.0,-6.0,
2079.0,2086.0,20.0,-6.0,
2083.0,2090.0,20.0,-6.0,
2070.0,2076.0,20.0,-6.0,
2069.0,2074.0,20.0,-6.0,
2066.0,2064.0,20.0,-6.0,
2070.0,2076.0,20.0,-6.0,
2067.0,2085.0,20.0,-6.0,
2066.0,2085.0,20.0,-6.0,
2072.0,2088.0,20.0,-6.0,
2074.0,2086.0,20.0,-6.0,
2077.0,2077.0,20.0,-6.0,
2071.0,2077.0,20.0,-6.0,
2064.0,2077.0,20.0,-6.0,
2075.0,2077.0,20.0,-6.0,
2079.0,2079.0,20.0,-6.0,
2067.0,2083.0,20.0,-6.0,
2076.0,2086.0,20.0,-6.0,
2075.0,2086.0,20.0,-6.0,
2073.0,2086.0,20.0,-6.0,
2075.0,2093.0,20.0,-6.0,
2075.0,2072.0,20.0,-6.0,
2060.0,2060.0,20.0,-6.0,
2055.0,2062.0,20.0,-6.0,
2067.0,2099.0,20.0,-6.0,
2070.0,2095.0,20.0,-6.0,
2073.0,2095.0,20.0,-6.0,
2077.0,2087.0,20.0,-6.0,
2066.0,2092.0,20.0,-6.0,
2058.0,2081.0,20.0,-6.0,
2063.0,2083.0,20.0,-6.0,
2058.0,2079.0,20.0,-6.0,
2064.0,2080.0,20.0,-6.0,
2057.0,2073.0,20.0,-6.0,
2067.0,2084.0,20.0,-6.0,
2061.0,2093.0,20.0,-6.0,
2069.0,2083.0,20.0,-6.0,
2062.0,2095.0,20.0,-6.0,
2067.0,2094.0,20.0,-6.0,
2067.0,2097.0,20.0,-6.0,
2063.0,2084.0,20.0,-6.0,
2065.0,2049.0,20.0,-6.0,
2055.0,2091.0,20.0,-6.0,
2077.0,2111.0,20.0,-6.0,
2071.0,2094.0,20.0,-6.0,
2070.0,2069.0,20.0,-6.0,
2058.0,2046.0,20.0,-6.0,
2069.0,2078.0,20.0,-6.0,
2064.0,2082.0,20.0,-6.0,
2076.0,2083.0,20.0,-6.0,
2063.0,2079.0,20.0,-6.0,
2059.0,2082.0,20.0,-6.0,
2061.0,2085.0,20.0,-6.0,
2067.0,2123.0,20.0,-6.0,
2074.0,2096.0,20.0,-6.0,
2079.0,2087.0,20.0,-6.0,
2065.0,2085.0,20.0,-6.0,
2074.0,2083.0,20.0,-6.0,
2069.0,2084.0,20.0,-6.0,
2072.0,2078.0,20.0,-6.0,
2066.0,2084.0,20.0,-6.0,
2062.0,2092.0,20.0,-6.0,
2069.0,2090.0,20.0,-6.0,
2085.0,2093.0,20.0,-6.0,
2058.0,2088.0,20.0,-6.0,
2067.0,2087.0,20.0,-6.0,
2078.0,2087.0,20.0,-6.0,
2072.0,2087.0,20.0,-6.0,
2071.0,2076.0,20.0,-6.0,
2067.0,2081.0,20.0,-6.0,
2066.0,2089.0,20.0,-6.0,
2072.0,2083.0,20.0,-6.0,
2071.0,2085.0,20.0,-6.0,
2073.0,2085.0,20.0,-6.0,
2070.0,2082.0,20.0,-6.0,
2065.0,2081.0,20.0,-6.0,
2063.0,2077.0,20.0,-6.0,
2062.0,2088.0,20.0,-6.0,
2066.0,2082.0,20.0,-6.0,
2067.0,2088.0,20.0,-6.0,
2069.0,2091.0,20.0,-6.0,
2075.0,2085.0,20.0,-6.0,
2072.0,2087.0,20.0,-6.0,
2075.0,2084.0,20.0,-6.0,
2072.0,2080.0,20.0,-6.0,
2066.0,2068.0,20.0,-6.0,
2067.0,2083.0,20.0,-6.0,
2059.0,2094.0,20.0,-6.0,
2065.0,2083.0,20.0,-6.0,
2067.0,2089.0,20.0,-6.0,
2061.0,2092.0,20.0,-6.0,
2068.0,2089.0,20.0,-6.0,
2072.0,2085.0,20.0,-6.0,
2069.0,2084.0,20.0,-6.0,
2062.0,2081.0,20.0,-6.0,
2060.0,2080.0,20.0,-6.0,
2065.0,2082.0,20.0,-6.0,
2065.0,2088.0,20.0,-6.0,
2071.0,2078.0,20.0,-6.0,
2064.0,2088.0,20.0,-6.0,
2070.0,2099.0,20.0,-6.0,
2072.0,2100.0,20.0,-6.0,
2066.0,2078.0,20.0,-6.0,
2066.0,2068.0,20.0,-6.0,
2061.0,2064.0,20.0,-6.0,
2070.0,2089.0,20.0,-6.0,
2063.0,2121.0,20.0,-6.0,
2065.0,2129.0,20.0,-6.0,
2073.0,2100.0,20.0,-6.0,
2071.0,2050.0,20.0,-6.0,
2074.0,2070.0,20.0,-6.0,
2070.0,2087.0,20.0,-6.0,
2071.0,2090.0,20.0,-6.0,
2078.0,2054.0,20.0,-6.0,
2068.0,2057.0,20.0,-6.0,
2062.0,2076.0,20.0,-6.0,
2066.0,2086.0,20.0,-6.0,
2070.0,2089.0,20.0,-6.0,
2075.0,2090.0,20.0,-6.0,
2073.0,2098.0,20.0,-6.0,
2072.0,2086.0,20.0,-6.0,
2069.0,2078.0,20.0,-6.0,
2068.0,2081.0,20.0,-6.0,
2063.0,2084.0,20.0,-6.0,
2067.0,2088.0,20.0,-6.0,
2071.0,2089.0,20.0,-6.0,
2031.0,2099.0,20.0,-6.0,
2078.0,2093.0,20.0,-6.0,
2083.0,2088.0,20.0,-6.0,
2063.0,2089.0,20.0,-6.0,
2066.0,2084.0,20.0,-6.0,
2058.0,2078.0,20.0,-6.0,
2068.0,2088.0,20.0,-6.0,
2065.0,2090.0,20.0,-6.0,
2059.0,2089.0,20.0,-6.0,
2065.0,2071.0,20.0,-6.0,
2060.0,2080.0,20.0,-6.0,
2066.0,2080.0,20.0,-6.0,
2071.0,2082.0,20.0,-6.0,
2072.0,2077.0,20.0,-6.0,
2068.0,2098.0,20.0,-6.0,
2066.0,2092.0,20.0,-6.0,
2074.0,2083.0,20.0,-6.0,
2070.0,2086.0,20.0,-6.0,
2068.0,2085.0,20.0,-6.0,
2071.0,2086.0,20.0,-6.0,
2072.0,2076.0,20.0,-6.0,
2061.0,2071.0,20.0,-6.0,
2065.0,2075.0,20.0,-6.0,
2063.0,2089.0,20.0,-6.0,
2055.0,2082.0,20.0,-6.0,
2072.0,2086.0,20.0,-6.0,
2073.0,2088.0,20.0,-6.0,
2053.0,2093.0,20.0,-6.0,
2071.0,2084.0,20.0,-6.0,
2069.0,2086.0,20.0,-6.0,
2082.0,2056.0,20.0,-6.0,
2069.0,2034.0,0,
2068.0,2001.0,20.0,-6.0,
2068.0,2104.0,20.0,-6.0,
2073.0,2278.0,20.0,-6.0,
2068.0,2166.0,20.0,-6.0,
2083.0,2095.0,20.0,-6.0,
2078.0,2002.0,20.0,-6.0,
2074.0,2036.0,20.0,-6.0,
2072.0,2072.0,20.0,-6.0,
2068.0,2027.0,20.0,-6.0,
2060.0,2063.0,20.0,-6.0,
2062.0,2074.0,20.0,-6.0,
2070.0,2077.0,20.0,-6.0,
2070.0,2078.0,20.0,-6.0,
2074.0,2074.0,20.0,-6.0,
2071.0,2080.0,20.0,-6.0,
2067.0,2080.0,0,
2069.0,2097.0,20.0,-6.0,
2068.0,2086.0,20.0,-6.0,
2067.0,2084.0,20.0,-6.0,
2062.0,2090.0,20.0,-6.0,
2061.0,2094.0,20.0,-6.0,
2060.0,2078.0,20.0,-6.0,
2073.0,2101.0,20.0,-6.0,
2068.0,2096.0,20.0,-6.0,
2071.0,2090.0,20.0,-6.0,
2070.0,2089.0,20.0,-6.0,
2075.0,2084.0,20.0,-6.0,
2077.0,2086.0,20.0,-6.0,
2067.0,2080.0,20.0,-6.0,
2063.0,2086.0,20.0,-6.0,
2068.0,2083.0,20.0,-6.0,
2069.0,2084.0,20.0,-6.0,
2073.0,2083.0,20.0,-6.0,
2071.0,2107.0,20.0,-6.0,
2067.0,2096.0,20.0,-6.0,
2076.0,2088.0,20.0,-6.0,
2071.0,2084.0,20.0,-6.0,
2060.0,2082.0,20.0,-6.0,
2068.0,2076.0,20.0,-6.0,
2076.0,2082.0,20.0,-6.0,
2072.0,2085.0,20.0,-6.0,
2074.0,2086.0,20.0,-6.0,
2063.0,2083.0,20.0,-6.0,
2061.0,2082.0,20.0,-6.0,
2068.0,2079.0,20.0,-6.0,
2066.0,2072.0,20.0,-6.0,
2066.0,2078.0,20.0,-6.0,
2054.0,2089.0,20.0,-6.0,
2066.0,2089.0,20.0,-6.0,
2068.0,2088.0,0,
2074.0,2091.0,20.0,-6.0,
2068.0,2081.0,20.0,-6.0,
2071.0,2081.0,20.0,-6.0,
2077.0,2085.0,20.0,-6.0,
2065.0,2077.0,20.0,-6.0,
2065.0,2078.0,20.0,-6.0,
2064.0,2080.0,20.0,-6.0,
2061.0,2095.0,20.0,-6.0,
2067.0,2103.0,20.0,-6.0,
2074.0,2096.0,20.0,-6.0,
2072.0,2095.0,0,
2070.0,2084.0,20.0,-6.0,
2075.0,2092.0,20.0,-6.0,
2071.0,2074.0,20.0,-6.0,
2071.0,2078.0,20.0,-6.0,
2073.0,2088.0,20.0,-6.0,
2072.0,2090.0,20.0,-6.0,
2071.0,2084.0,20.0,-6.0,
2075.0,2088.0,20.0,-6.0,
2078.0,2089.0,20.0,-6.0,
2074.0,2083.0,20.0,-6.0,
2070.0,2079.0,20.0,-6.0,
2072.0,2087.0,20.0,-6.0,
2060.0,2098.0,20.0,-6.0,
2063.0,2103.0,20.0,-6.0,
2066.0,2085.0,20.0,-6.0,
2068.0,2045.0,20.0,-6.0,
2078.0,2076.0,20.0,-6.0,
2079.0,2081.0,20.0,-6.0,
2080.0,2089.0,20.0,-6.0,
2079.0,2081.0,20.0,-6.0,
2063.0,2078.0,20.0,-6.0,
2053.0,2067.0,20.0,-6.0,
2066.0,2091.0,20.0,-6.0,
2064.0,2117.0,20.0,-6.0,
2071.0,2114.0,20.0,-6.0,
2071.0,2076.0,20.0,-6.0,
2066.0,2045.0,20.0,-6.0,
2076.0,2077.0,20.0,-6.0,
2065.0,2080.0,20.0,-6.0,
2073.0,2074.0,20.0,-6.0,
2069.0,2085.0,20.0,-6.0,
2073.0,2086.0,20.0,-6.0,
2067.0,2075.0,20.0,-6.0,
2065.0,2049.0,20.0,-6.0,
2073.0,2046.0,20.0,-6.0,
2076.0,2030.0,20.0,-6.0,
2074.0,2142.0,20.0,-6.0,
2073.0,2198.0,20.0,-6.0,
2071.0,2112.0,20.0,-6.0,
2063.0,2093.0,20.0,-6.0,
2068.0,2093.0,20.0,-6.0,
2069.0,2091.0,20.0,-6.0,
2074.0,2090.0,20.0,-6.0,
2070.0,2086.0,20.0,-6.0,
2074.0,2085.0,20.0,-6.0,
2066.0,2078.0,20.0,-6.0,
2067.0,2075.0,20.0,-6.0,
2068.0,2066.0,20.0,-6.0,
2068.0,2069.0,20.0,-6.0,
2062.0,2082.0,21.0,-6.0,
2062.0,2080.0,21.0,-6.0,
2061.0,2091.0,21.0,-6.0,
2062.0,2080.0,21.0,-6.0,
2064.0,2076.0,21.0,-6.0,
2061.0,2081.0,21.0,-6.0,
2064.0,2098.0,21.0,-6.0,
2083.0,2105.0,21.0,-6.0,
2072.0,2109.0,20.0,-6.0,
2106.0,2048.0,20.0,-6.0,
2062.0,2052.0,20.0,-6.0,
2079.0,2071.0,20.0,-6.0,
2082.0,2086.0,20.0,-6.0,
2087.0,2068.0,20.0,-6.0,
2079.0,2065.0,20.0,-6.0,
2074.0,2081.0,20.0,-6.0,
2073.0,2076.0,20.0,-6.0,
2071.0,2073.0,20.0,-6.0,
2052.0,2078.0,20.0,-6.0,
2070.0,2087.0,20.0,-6.0,
2064.0,2088.0,20.0,-6.0,
2076.0,2096.0,20.0,-6.0,
2071.0,2102.0,20.0,-6.0,
2072.0,2080.0,20.0,-6.0,
2066.0,2070.0,20.0,-6.0,
2060.0,2077.0,20.0,-6.0,
2118.0,2080.0,20.0,-6.0,
2068.0,2091.0,20.0,-6.0,
2063.0,2091.0,20.0,-6.0,
2069.0,2092.0,20.0,-6.0,
2073.0,2086.0,20.0,-6.0,
2066.0,2081.0,20.0,-6.0,
2081.0,2079.0,20.0,-6.0,
2072.0,2075.0,20.0,-6.0,
2068.0,2081.0,20.0,-6.0,
2063.0,2091.0,20.0,-6.0,
2060.0,2078.0,20.0,-6.0,
2066.0,2089.0,20.0,-6.0,
2071.0,2083.0,20.0,-6.0,
2070.0,2082.0,20.0,-6.0,
2063.0,2086.0,20.0,-6.0,
2075.0,2082.0,20.0,-6.0,
2065.0,2073.0,20.0,-6.0,
2066.0,2070.0,20.0,-6.0,
2058.0,2077.0,20.0,-6.0,
2068.0,2099.0,20.0,-6.0,
2073.0,2091.0,20.0,-6.0,
2069.0,2096.0,20.0,-6.0,
2084.0,2106.0,20.0,-6.0,
2068.0,2083.0,20.0,-6.0,
2083.0,2079.0,20.0,-6.0,
2070.0,2079.0,20.0,-6.0,
2072.0,2067.0,20.0,-6.0,
2065.0,2083.0,20.0,-6.0,
2074.0,2087.0,20.0,-6.0,
2073.0,2087.0,20.0,-6.0,
2075.0,2082.0,20.0,-6.0,
2072.0,2103.0,20.0,-6.0,
2074.0,2085.0,20.0,-6.0,
2072.0,2076.0,20.0,-6.0,
2065.0,2080.0,20.0,-6.0,
2072.0,2075.0,20.0,-6.0,
2060.0,2076.0,20.0,-6.0,
2068.0,2082.0,20.0,-6.0,
2065.0,2079.0,20.0,-6.0,
2068.0,2084.0,20.0,-6.0,
2072.0,2084.0,20.0,-6.0,
2083.0,2087.0,20.0,-6.0,
2066.0,2080.0,20.0,-6.0,
2069.0,2077.0,20.0,-6.0,
2060.0,2081.0,20.0,-6.0,
2072.0,2074.0,20.0,-6.0,
2062.0,2085.0,20.0,-6.0,
2074.0,2085.0,20.0,-6.0,
2072.0,2093.0,20.0,-6.0,
2065.0,2091.0,20.0,-6.0,
2075.0,2085.0,20.0,-6.0,
2070.0,2080.0,20.0,-6.0,
2071.0,2074.0,20.0,-6.0,
2064.0,2079.0,20.0,-6.0,
2071.0,2069.0,20.0,-6.0,
2060.0,2079.0,20.0,-6.0,
2069.0,2074.0,20.0,-6.0,
2077.0,2098.0,20.0,-6.0,
2069.0,2089.0,20.0,-6.0,
2067.0,2086.0,20.0,-6.0,
2061.0,2085.0,20.0,-6.0,
2075.0,2080.0,20.0,-6.0,
2067.0,2089.0,20.0,-6.0,
2061.0,2096.0,20.0,-6.0,
2063.0,2086.0,20.0,-6.0,
2064.0,2071.0,20.0,-6.0,
2059.0,2088.0,20.0,-6.0,
2072.0,2090.0,20.0,-6.0,
2070.0,2112.0,20.0,-6.0,
2072.0,2107.0,20.0,-6.0,
2083.0,2082.0,20.0,-6.0,
2069.0,2038.0,20.0,-6.0,
2073.0,2070.0,20.0,-6.0,
2067.0,2089.0,20.0,-6.0,
2075.0,2097.0,20.0,-6.0,
2072.0,2056.0,20.0,-6.0,
2070.0,2060.0,20.0,-6.0,
2079.0,2082.0,20.0,-6.0,
2076.0,2095.0,20.0,-6.0,
2068.0,2086.0,20.0,-6.0,
2070.0,2087.0,20.0,-6.0,
2065.0,2083.0,20.0,-6.0,
2061.0,2086.0,20.0,-6.0,
2101.0,2088.0,20.0,-6.0,
2070.0,2091.0,20.0,-6.0,
2076.0,2086.0,20.0,-6.0,
2068.0,2088.0,20.0,-6.0,
2074.0,2085.0,20.0,-6.0,
2066.0,2079.0,20.0,-6.0,
2064.0,2079.0,20.0,-6.0,
2057.0,2078.0,20.0,-6.0,
2062.0,2079.0,0,
2062.0,2072.0,20.0,-6.0,
2074.0,2087.0,20.0,-6.0,
2073.0,2086.0,20.0,-6.0,
2076.0,2095.0,20.0,-6.0,
2070.0,2090.0,20.0,-6.0,
2070.0,2081.0,20.0,-6.0,
2063.0,2078.0,20.0,-6.0,
2064.0,2083.0,20.0,-6.0,
2074.0,2091.0,20.0,-6.0,
2065.0,2086.0,20.0,-6.0,
2062.0,2089.0,20.0,-6.0,
2063.0,2087.0,20.0,-6.0,
2078.0,2092.0,20.0,-6.0,
2075.0,2084.0,20.0,-6.0,
2080.0,2091.0,20.0,-6.0,
2072.0,2088.0,20.0,-6.0,
2060.0,2079.0,20.0,-6.0,
2059.0,2082.0,20.0,-6.0,
2057.0,2082.0,20.0,-6.0,
2070.0,2096.0,20.0,-6.0,
2073.0,2086.0,20.0,-6.0,
2078.0,2088.0,20.0,-6.0,
2061.0,2094.0,20.0,-6.0,
2064.0,2080.0,20.0,-6.0,
2071.0,2078.0,20.0,-6.0,
2065.0,2078.0,20.0,-6.0,
2064.0,2081.0,20.0,-6.0,
2070.0,2087.0,20.0,-6.0,
2079.0,2088.0,0,
2065.0,2090.0,20.0,-6.0,
2063.0,2082.0,20.0,-6.0,
2074.0,2077.0,20.0,-6.0,
2077.0,2079.0,20.0,-6.0,
2075.0,2078.0,20.0,-6.0,
2062.0,2081.0,20.0,-6.0,
2071.0,2083.0,20.0,-6.0,
2073.0,2084.0,20.0,-6.0,
2078.0,2084.0,20.0,-6.0,
2071.0,2082.0,20.0,-6.0,
2075.0,2085.0,20.0,-6.0,
2076.0,2111.0,20.0,-6.0,
2076.0,2092.0,20.0,-6.0,
2067.0,2086.0,20.0,-6.0,
2061.0,2076.0,20.0,-6.0,
2064.0,2085.0,20.0,-6.0,
2068.0,2091.0,20.0,-6.0,
2067.0,2092.0,20.0,-6.0,
2074.0,2089.0,20.0,-6.0,
2066.0,2082.0,20.0,-6.0,
2066.0,2084.0,20.0,-6.0,
2071.0,2083.0,20.0,-6.0,
2044.0,2074.0,0,
2068.0,2076.0,20.0,-6.0,
2067.0,2083.0,20.0,-6.0,
2070.0,2090.0,20.0,-6.0,
2067.0,2087.0,20.0,-6.0,
2067.0,2093.0,20.0,-6.0,
2072.0,2079.0,20.0,-6.0,
2091.0,2089.0,20.0,-6.0,
2075.0,2085.0,20.0,-6.0,
2068.0,2082.0,20.0,-6.0,
2066.0,2090.0,20.0,-6.0,
2066.0,2080.0,20.0,-6.0,
2066.0,2072.0,20.0,-6.0,
2066.0,2087.0,20.0,-6.0,
2066.0,2091.0,20.0,-6.0,
2071.0,2083.0,20.0,-6.0,
2072.0,2090.0,20.0,-6.0,
2067.0,2078.0,20.0,-6.0,
2062.0,2074.0,20.0,-6.0,
2061.0,2080.0,20.0,-6.0,
2070.0,2077.0,20.0,-6.0,
2064.0,2086.0,20.0,-6.0,
2067.0,2085.0,20.0,-6.0,
2076.0,2099.0,20.0,-6.0,
2065.0,2083.0,20.0,-6.0,
2072.0,2086.0,20.0,-6.0,
2074.0,2086.0,20.0,-6.0,
2067.0,2078.0,20.0,-6.0,
2067.0,2085.0,20.0,-6.0,
2066.0,2086.0,20.0,-6.0,
2064.0,2091.0,20.0,-6.0,
2061.0,2080.0,20.0,-6.0,
2082.0,2090.0,20.0,-6.0,
2071.0,2088.0,20.0,-6.0,
2071.0,2090.0,20.0,-6.0,
2068.0,2087.0,20.0,-6.0,
2066.0,2085.0,20.0,-6.0,
2065.0,2083.0,20.0,-6.0,
2067.0,2089.0,20.0,-6.0,
2067.0,2085.0,20.0,-6.0,
2075.0,2094.0,20.0,-6.0,
2071.0,2088.0,20.0,-6.0,
2087.0,2091.0,20.0,-6.0,
2077.0,2084.0,20.0,-6.0,
2067.0,2080.0,20.0,-6.0,
2063.0,2079.0,20.0,-6.0,
2062.0,2077.0,20.0,-6.0,
2064.0,2081.0,20.0,-6.0,
2064.0,2091.0,20.0,-6.0,
2073.0,2088.0,20.0,-6.0,
2071.0,2084.0,20.0,-6.0,
2072.0,2084.0,20.0,-6.0,
2073.0,2078.0,20.0,-6.0,
2070.0,2080.0,20.0,-6.0,
2077.0,2084.0,20.0,-6.0,
2075.0,2079.0,20.0,-6.0,
2067.0,2084.0,20.0,-6.0,
2068.0,2083.0,20.0,-6.0,
2069.0,2085.0,20.0,-6.0,
2078.0,2087.0,20.0,-6.0,
2074.0,2085.0,20.0,-6.0,
2076.0,2086.0,20.0,-6.0,
2058.0,2083.0,20.0,-6.0,
2060.0,2082.0,20.0,-6.0,
2067.0,2084.0,20.0,-6.0,
2061.0,2086.0,20.0,-6.0,
2068.0,2092.0,20.0,-6.0,
2072.0,2095.0,20.0,-6.0,
2079.0,2100.0,20.0,-6.0,
2076.0,2091.0,20.0,-6.0,
2073.0,2084.0,20.0,-6.0,
2073.0,2084.0,20.0,-6.0,
2067.0,2076.0,20.0,-6.0,
2047.0,2081.0,20.0,-6.0,
2061.0,2086.0,20.0,-6.0,
2063.0,2079.0,20.0,-6.0,
2062.0,2089.0,20.0,-6.0,
2061.0,2086.0,20.0,-6.0,
2065.0,2084.0,20.0,-6.0,
2075.0,2082.0,20.0,-6.0,
2071.0,2082.0,20.0,-6.0,
2071.0,2088.0,20.0,-6.0,
2065.0,2079.0,20.0,-6.0,
2058.0,2092.0,20.0,-6.0,
2066.0,2083.0,20.0,-6.0,
2063.0,2091.0,20.0,-6.0,
2069.0,2099.0,20.0,-6.0,
2070.0,2095.0,20.0,-6.0,
2069.0,2082.0,20.0,-6.0,
2062.0,2088.0,20.0,-6.0,
2061.0,2081.0,20.0,-6.0,
2056.0,2079.0,20.0,-6.0,
2066.0,2081.0,20.0,-6.0,
2064.0,2082.0,20.0,-6.0,
2069.0,2086.0,20.0,-6.0,
2064.0,2081.0,20.0,-6.0,
2077.0,2084.0,20.0,-6.0,
2071.0,2080.0,20.0,-6.0,
2080.0,2078.0,20.0,-6.0,
2071.0,2082.0,20.0,-6.0,
2076.0,2081.0,20.0,-6.0,
2074.0,2089.0,20.0,-6.0,
2064.0,2084.0,20.0,-6.0,
2063.0,2078.0,20.0,-6.0,
2066.0,2084.0,20.0,-6.0,
2080.0,2102.0,20.0,-6.0,
2074.0,2085.0,20.0,-6.0,
2081.0,2086.0,20.0,-6.0,
2072.0,2081.0,20.0,-6.0,
2064.0,2080.0,20.0,-6.0,
2060.0,2084.0,20.0,-6.0,
2067.0,2083.0,20.0,-6.0,
2068.0,2085.0,20.0,-6.0,
2074.0,2086.0,20.0,-6.0,
2095.0,2092.0,20.0,-6.0,
2079.0,2086.0,20.0,-6.0,
2075.0,2081.0,20.0,-6.0,
2069.0,2085.0,20.0,-6.0,
2068.0,2079.0,20.0,-6.0,
2069.0,2081.0,20.0,-6.0,
2078.0,2073.0,20.0,-6.0,
2080.0,2095.0,20.0,-6.0,
2071.0,2090.0,20.0,-6.0,
2070.0,2095.0,20.0,-6.0,
2071.0,2085.0,20.0,-6.0,
2085.0,2086.0,20.0,-6.0,
2070.0,2080.0,20.0,-6.0,
2073.0,2078.0,20.0,-6.0,
2062.0,2079.0,20.0,-6.0,
2065.0,2082.0,20.0,-6.0,
2062.0,2090.0,20.0,-6.0,
2062.0,2082.0,20.0,-6.0,
2072.0,2089.0,20.0,-6.0,
2065.0,2082.0,20.0,-6.0,
2072.0,2085.0,20.0,-6.0,
2066.0,2080.0,21.0,-6.0,
2055.0,2077.0,21.0,-6.0,
2068.0,2085.0,21.0,-6.0,
2060.0,2084.0,21.0,-6.0,
2070.0,2086.0,21.0,-6.0,
2069.0,2095.0,21.0,-6.0,
2074.0,2100.0,21.0,-6.0,
2079.0,2082.0,21.0,-6.0,
2062.0,2082.0,21.0,-6.0,
2059.0,2073.0,21.0,-6.0,
2062.0,2076.0,21.0,-6.0,
2068.0,2075.0,21.0,-6.0,
2062.0,2078.0,20.0,-6.0,
2063.0,2080.0,20.0,-6.0,
2070.0,2083.0,20.0,-6.0,
2067.0,2086.0,20.0,-6.0,
2081.0,2086.0,20.0,-6.0,
2065.0,2087.0,20.0,-6.0,
2079.0,2085.0,20.0,-6.0,
2070.0,2076.0,20.0,-6.0,
2072.0,2079.0,20.0,-6.0,
2064.0,2085.0,20.0,-6.0,
2067.0,2089.0,20.0,-6.0,
2069.0,2092.0,20.0,-6.0,
2065.0,2092.0,20.0,-6.0,
2084.0,2093.0,20.0,-6.0,
2065.0,2083.0,20.0,-6.0,
2062.0,2084.0,20.0,-6.0,
2063.0,2080.0,20.0,-6.0,
2061.0,2075.0,20.0,-6.0,
2062.0,2080.0,20.0,-6.0,
2063.0,2092.0,20.0,-6.0,
2050.0,2085.0,20.0,-6.0,
2061.0,2086.0,20.0,-6.0,
2066.0,2080.0,19.0,-6.0,
2065.0,2077.0,19.0,-6.0,
2066.0,2093.0,19.0,-6.0,
2062.0,2082.0,19.0,-6.0,
2066.0,2086.0,19.0,-6.0,
2052.0,2082.0,19.0,-6.0,
2066.0,2087.0,19.0,-6.0,
2068.0,2087.0,19.0,-6.0,
2065.0,2088.0,19.0,-6.0,
2071.0,2090.0,19.0,-6.0,
2068.0,2087.0,19.0,-6.0,
2063.0,2084.0,20.0,-6.0,
2061.0,2081.0,20.0,-6.0,
2059.0,2083.0,20.0,-6.0,
2060.0,2083.0,20.0,-6.0,
2063.0,2090.0,20.0,-6.0,
2068.0,2093.0,20.0,-6.0,
2069.0,2091.0,20.0,-6.0,
2067.0,2082.0,20.0,-6.0,
2066.0,2085.0,20.0,-6.0,
2067.0,2081.0,20.0,-6.0,
2067.0,2078.0,20.0,-6.0,
2068.0,2079.0,20.0,-6.0,
2066.0,2089.0,20.0,-6.0,
2069.0,2084.0,20.0,-6.0,
2068.0,2090.0,20.0,-6.0,
2070.0,2087.0,21.0,-6.0,
2075.0,2083.0,20.0,-6.0,
2077.0,2081.0,20.0,-6.0,
2065.0,2085.0,20.0,-6.0,
2061.0,2085.0,20.0,-6.0,
2061.0,2084.0,20.0,-6.0,
2053.0,2082.0,20.0,-6.0,
2071.0,2091.0,20.0,-6.0,
2069.0,2088.0,20.0,-6.0,
2065.0,2092.0,20.0,-6.0,
2065.0,2090.0,20.0,-6.0,
2077.0,2089.0,20.0,-6.0,
2064.0,2080.0,20.0,-6.0,
2059.0,2076.0,20.0,-6.0,
2054.0,2080.0,20.0,-6.0,
2062.0,2080.0,20.0,-6.0,
2063.0,2085.0,20.0,-6.0,
2066.0,2087.0,20.0,-6.0,
2075.0,2082.0,20.0,-6.0,
2040.0,2081.0,20.0,-6.0,
2068.0,2076.0,20.0,-6.0,
2062.0,2082.0,20.0,-6.0,
2068.0,2077.0,20.0,-6.0,
2071.0,2075.0,20.0,-6.0,
2065.0,2086.0,20.0,-6.0,
2070.0,2091.0,20.0,-6.0,
2069.0,2086.0,20.0,-6.0,
2072.0,2089.0,20.0,-6.0,
2073.0,2089.0,20.0,-6.0,
2071.0,2092.0,20.0,-6.0,
2077.0,2087.0,20.0,-6.0,
2065.0,2084.0,20.0,-6.0,
2061.0,2085.0,20.0,-6.0,
2063.0,2084.0,20.0,-6.0,
2069.0,2092.0,20.0,-6.0,
2074.0,2088.0,20.0,-6.0,
2067.0,2091.0,20.0,-6.0,
2084.0,2091.0,20.0,-6.0,
2068.0,2084.0,20.0,-6.0,
2077.0,2078.0,20.0,-6.0,
2070.0,2081.0,20.0,-6.0,
2078.0,2078.0,20.0,-6.0,
2069.0,2086.0,20.0,-6.0,
2067.0,2082.0,20.0,-6.0,
2072.0,2099.0,20.0,-6.0,
2065.0,2094.0,20.0,-6.0,
2067.0,2092.0,20.0,-6.0,
2072.0,2083.0,20.0,-6.0,
2071.0,2083.0,20.0,-6.0,
2065.0,2071.0,20.0,-6.0,
2068.0,2081.0,20.0,-6.0,
2068.0,2084.0,20.0,-6.0,
2059.0,2090.0,20.0,-6.0,
2070.0,2095.0,20.0,-6.0,
2064.0,2089.0,20.0,-6.0,
2069.0,2089.0,20.0,-6.0,
2063.0,2087.0,20.0,-6.0,
2075.0,2086.0,20.0,-6.0,
2066.0,2069.0,20.0,-6.0,
2061.0,2078.0,20.0,-6.0,
2064.0,2078.0,20.0,-6.0,
2067.0,2081.0,20.0,-6.0,
2068.0,2088.0,20.0,-6.0,
2071.0,2095.0,20.0,-6.0,
2077.0,2086.0,20.0,-6.0,
2077.0,2085.0,20.0,-6.0,
2076.0,2083.0,20.0,-6.0,
2068.0,2081.0,20.0,-6.0,
2069.0,2079.0,20.0,-6.0,
2070.0,2086.0,20.0,-6.0,
2081.0,2099.0,20.0,-6.0,
2070.0,2090.0,20.0,-6.0,
2075.0,2087.0,20.0,-6.0,
2069.0,2085.0,20.0,-6.0,
2072.0,2085.0,20.0,-6.0,
2072.0,2080.0,20.0,-6.0,
2069.0,2079.0,20.0,-6.0,
2064.0,2078.0,20.0,-6.0,
2060.0,2080.0,20.0,-6.0,
2068.0,2084.0,20.0,-6.0,
2064.0,2087.0,20.0,-6.0,
2067.0,2088.0,20.0,-6.0,
2069.0,2086.0,20.0,-6.0,
2082.0,2085.0,20.0,-6.0,
2063.0,2077.0,20.0,-6.0,
2062.0,2073.0,20.0,-6.0,
2066.0,2076.0,20.0,-6.0,
2060.0,2084.0,20.0,-6.0,
2071.0,2088.0,20.0,-6.0,
2074.0,2085.0,20.0,-6.0,
2070.0,2099.0,20.0,-6.0,
2071.0,2087.0,20.0,-6.0,
2069.0,2083.0,20.0,-6.0,
2065.0,2082.0,20.0,-6.0,
2066.0,2076.0,20.0,-6.0,
2062.0,2078.0,20.0,-6.0,
2052.0,2081.0,20.0,-6.0,
2062.0,2079.0,20.0,-6.0,
2069.0,2092.0,20.0,-6.0,
2069.0,2088.0,20.0,-6.0,
2069.0,2088.0,20.0,-6.0,
2070.0,2088.0,20.0,-6.0,
2068.0,2082.0,20.0,-6.0,
2068.0,2088.0,20.0,-6.0,
2059.0,2084.0,20.0,-6.0,
2062.0,2086.0,20.0,-6.0,
2063.0,2089.0,20.0,-6.0,
2064.0,2087.0,20.0,-6.0,
2071.0,2095.0,20.0,-6.0,
2077.0,2093.0,20.0,-6.0,
2069.0,2094.0,20.0,-6.0,
2065.0,2079.0,20.0,-6.0,
2067.0,2072.0,20.0,-6.0,
2065.0,2085.0,20.0,-6.0,
2069.0,2086.0,20.0,-6.0,
2067.0,2091.0,20.0,-6.0,
2073.0,2090.0,20.0,-6.0,
2068.0,2087.0,20.0,-6.0,
2076.0,2090.0,20.0,-6.0,
2067.0,2081.0,20.0,-6.0,
2071.0,2087.0,20.0,-6.0,
2064.0,2079.0,20.0,-6.0,
2066.0,2087.0,20.0,-6.0,
2077.0,2087.0,20.0,-6.0,
2069.0,2085.0,20.0,-6.0,
2065.0,2086.0,20.0,-6.0,
2061.0,2090.0,20.0,-6.0,
2070.0,2082.0,20.0,-6.0,
2054.0,2073.0,20.0,-6.0,
2062.0,2077.0,20.0,-6.0,
2064.0,2085.0,20.0,-6.0,
2053.0,2077.0,20.0,-6.0,
2054.0,2089.0,20.0,-6.0,
2067.0,2090.0,20.0,-6.0,
2071.0,2100.0,20.0,-6.0,
2070.0,2077.0,20.0,-6.0,
2080.0,2077.0,20.0,-6.0,
2067.0,2080.0,20.0,-6.0,
2070.0,2080.0,20.0,-6.0,
2064.0,2077.0,20.0,-6.0,
2085.0,2079.0,20.0,-6.0,
2073.0,2074.0,20.0,-6.0,
2069.0,2076.0,20.0,-6.0,
2063.0,2093.0,20.0,-6.0,
2070.0,2083.0,20.0,-6.0,
2073.0,2081.0,20.0,-6.0,
2071.0,2076.0,20.0,-6.0,
2071.0,2070.0,20.0,-6.0,
2071.0,2077.0,20.0,-6.0,
2068.0,2076.0,20.0,-6.0,
2064.0,2086.0,20.0,-6.0,
2069.0,2086.0,20.0,-6.0,
2064.0,2087.0,20.0,-6.0,
2069.0,2089.0,20.0,-6.0,
2074.0,2084.0,20.0,-6.0,
2065.0,2086.0,20.0,-6.0,
2080.0,2102.0,20.0,-6.0,
2068.0,2081.0,20.0,-6.0,
2064.0,2078.0,20.0,-6.0,
2057.0,2079.0,20.0,-6.0,
2066.0,2076.0,20.0,-6.0,
2072.0,2087.0,20.0,-6.0,
2070.0,2077.0,20.0,-6.0,
2073.0,2085.0,20.0,-6.0,
2068.0,2077.0,20.0,-6.0,
2073.0,2078.0,20.0,-6.0,
2065.0,2075.0,20.0,-6.0,
2068.0,2084.0,20.0,-6.0,
2072.0,2085.0,20.0,-6.0,
2078.0,2094.0,20.0,-6.0,
2059.0,2085.0,20.0,-6.0,
2070.0,2094.0,20.0,-6.0,
2066.0,2085.0,20.0,-6.0,
2066.0,2083.0,20.0,-6.0,
2075.0,2081.0,20.0,-6.0,
2067.0,2083.0,20.0,-6.0,
2059.0,2084.0,20.0,-6.0,
2060.0,2078.0,20.0,-6.0,
2062.0,2083.0,20.0,-6.0,
2067.0,2085.0,20.0,-6.0,
2069.0,2082.0,20.0,-6.0,
2069.0,2083.0,20.0,-6.0,
2073.0,2087.0,20.0,-6.0,
2060.0,2074.0,20.0,-6.0,
2065.0,2079.0,20.0,-6.0,
2063.0,2076.0,20.0,-6.0,
2063.0,2084.0,20.0,-6.0,
2072.0,2098.0,20.0,-6.0,
2075.0,2097.0,20.0,-6.0,
2084.0,2105.0,20.0,-6.0,
2083.0,2071.0,20.0,-6.0,
2086.0,2073.0,20.0,-6.0,
2078.0,2075.0,20.0,-6.0,
2072.0,2067.0,20.0,-6.0,
2073.0,2083.0,20.0,-6.0,
2074.0,2086.0,20.0,-6.0,
2072.0,2085.0,20.0,-6.0,
2065.0,2079.0,20.0,-6.0,
2069.0,2082.0,20.0,-6.0,
2058.0,2080.0,20.0,-6.0,
2070.0,2086.0,20.0,-6.0,
2067.0,2081.0,20.0,-6.0,
2079.0,2080.0,20.0,-6.0,
2067.0,2071.0,20.0,-6.0,
2061.0,2078.0,20.0,-6.0,
2066.0,2078.0,20.0,-6.0,
2069.0,2086.0,20.0,-6.0,
2065.0,2085.0,20.0,-6.0,
2070.0,2087.0,20.0,-6.0,
2072.0,2080.0,20.0,-6.0,
2061.0,2070.0,20.0,-6.0,
2065.0,2070.0,20.0,-6.0,
2066.0,2070.0,20.0,-6.0,
2050.0,2079.0,20.0,-6.0,
2072.0,2085.0,20.0,-6.0,
2077.0,2093.0,20.0,-6.0,
2072.0,2086.0,20.0,-6.0,
2066.0,2082.0,20.0,-6.0,
2062.0,2078.0,20.0,-6.0,
2066.0,2080.0,20.0,-6.0,
2073.0,2077.0,20.0,-6.0,
2074.0,2076.0,20.0,-6.0,
2071.0,2077.0,20.0,-6.0,
2071.0,2080.0,20.0,-6.0,
2071.0,2090.0,20.0,-6.0,
2073.0,2091.0,20.0,-6.0,
2072.0,2091.0,20.0,-6.0,
2081.0,2078.0,20.0,-6.0,
2072.0,2076.0,20.0,-6.0,
2073.0,2071.0,20.0,-6.0,
2065.0,2070.0,20.0,-6.0,
2069.0,2087.0,20.0,-6.0,
2070.0,2109.0,20.0,-6.0,
2067.0,2108.0,20.0,-6.0,
2067.0,2112.0,20.0,-6.0,
2070.0,2079.0,20.0,-6.0,
2066.0,2036.0,20.0,-6.0,
2064.0,2068.0,20.0,-6.0,
2068.0,2079.0,20.0,-6.0,
2070.0,2105.0,20.0,-6.0,
2057.0,2073.0,20.0,-6.0,
2066.0,2082.0,20.0,-6.0,
2064.0,2100.0,20.0,-6.0,
2062.0,2094.0,20.0,-6.0,
2075.0,2084.0,20.0,-6.0,
2063.0,2068.0,20.0,-6.0,
2057.0,2109.0,20.0,-6.0,
2061.0,2111.0,20.0,-6.0,
2076.0,2058.0,20.0,-6.0,
2068.0,2034.0,20.0,-6.0,
2065.0,2042.0,20.0,-6.0,
2061.0,2075.0,20.0,-6.0,
2067.0,2083.0,20.0,-6.0,
2076.0,2045.0,20.0,-6.0,
2077.0,2051.0,20.0,-6.0,
2068.0,2005.0,20.0,-6.0,
2066.0,2181.0,20.0,-6.0,
2070.0,2176.0,20.0,-6.0,
2068.0,2127.0,20.0,-6.0,
2071.0,2097.0,20.0,-6.0,
2077.0,2110.0,20.0,-6.0,
2065.0,2082.0,20.0,-6.0,
2068.0,2090.0,20.0,-6.0,
2069.0,2082.0,20.0,-6.0,
2072.0,2078.0,20.0,-6.0,
2064.0,2074.0,20.0,-6.0,
2062.0,2076.0,20.0,-6.0,
2070.0,2080.0,20.0,-6.0,
2067.0,2079.0,20.0,-6.0,
2066.0,2075.0,21.0,-6.0,
2062.0,2075.0,20.0,-6.0,
2081.0,2077.0,20.0,-6.0,
2072.0,2093.0,21.0,-6.0,
2073.0,2113.0,20.0,-6.0,
2071.0,2102.0,20.0,-6.0,
2071.0,2074.0,21.0,-6.0,
2060.0,2034.0,20.0,-6.0,
2059.0,2056.0,20.0,-6.0,
2075.0,2068.0,20.0,-6.0,
2070.0,2066.0,20.0,-6.0,
2077.0,2073.0,20.0,-6.0,
2087.0,2070.0,20.0,-6.0,
2073.0,2084.0,20.0,-6.0,
2073.0,2089.0,20.0,-6.0,
2064.0,2081.0,20.0,-6.0,
2066.0,2084.0,20.0,-6.0,
2081.0,2070.0,20.0,-6.0,
2076.0,2087.0,20.0,-6.0,
2075.0,2095.0,20.0,-6.0,
2064.0,2090.0,20.0,-6.0,
2065.0,2092.0,20.0,-6.0,
2075.0,2092.0,20.0,-6.0,
2069.0,2072.0,20.0,-6.0,
2065.0,2080.0,20.0,-6.0,
2071.0,2082.0,20.0,-6.0,
2059.0,2049.0,20.0,-6.0,
2068.0,2038.0,20.0,-6.0,
2070.0,2031.0,20.0,-6.0,
2077.0,2090.0,20.0,-6.0,
2074.0,2241.0,20.0,-6.0,
2072.0,2127.0,20.0,-6.0,
2065.0,2074.0,20.0,-6.0,
2064.0,2089.0,20.0,-6.0,
2065.0,2098.0,20.0,-6.0,
2060.0,2083.0,20.0,-6.0,
2070.0,2099.0,20.0,-6.0,
2073.0,2120.0,20.0,-6.0,
2076.0,2091.0,20.0,-6.0,
2076.0,2021.0,20.0,-6.0,
2067.0,1993.0,20.0,-6.0,
2064.0,2015.0,20.0,-6.0,
2069.0,2072.0,20.0,-6.0,
2060.0,2120.0,20.0,-6.0,
2067.0,2123.0,20.0,-6.0,
2081.0,2127.0,20.0,-6.0,
2064.0,2100.0,20.0,-6.0,
2067.0,2055.0,20.0,-6.0,
2070.0,2039.0,20.0,-6.0,
2072.0,2069.0,20.0,-6.0,
2064.0,2048.0,20.0,-6.0,
2075.0,2083.0,20.0,-6.0,
2067.0,2064.0,20.0,-6.0,
2070.0,2122.0,20.0,-6.0,
2076.0,2100.0,20.0,-6.0,
2080.0,2090.0,20.0,-6.0,
2069.0,2092.0,20.0,-6.0,
2068.0,2095.0,20.0,-6.0,
2069.0,2108.0,20.0,-6.0,
2050.0,2091.0,20.0,-6.0,
2059.0,2115.0,20.0,-6.0,
2058.0,2085.0,20.0,-6.0,
2055.0,2086.0,20.0,-6.0,
2064.0,2092.0,20.0,-6.0,
2069.0,2089.0,20.0,-6.0,
2080.0,2092.0,20.0,-6.0,
2059.0,2091.0,20.0,-6.0,
2059.0,2070.0,20.0,-6.0,
2061.0,2053.0,20.0,-6.0,
2058.0,2061.0,20.0,-6.0,
2064.0,2039.0,20.0,-6.0,
2080.0,2068.0,20.0,-6.0,
2073.0,2054.0,20.0,-6.0,
2084.0,2079.0,20.0,-6.0,
2083.0,2170.0,20.0,-6.0,
2083.0,2198.0,20.0,-6.0,
2073.0,2070.0,20.0,-6.0,
2083.0,1976.0,20.0,-6.0,
2059.0,1936.0,20.0,-6.0,
2068.0,2035.0,20.0,-6.0,
2063.0,2180.0,20.0,-6.0,
2054.0,2133.0,20.0,-6.0,
2064.0,2118.0,20.0,-6.0,
2064.0,2112.0,20.0,-6.0,
2074.0,2103.0,20.0,-6.0,
2074.0,2067.0,20.0,-6.0,
2059.0,2066.0,20.0,-6.0,
2055.0,2094.0,20.0,-6.0,
2072.0,2148.0,20.0,-6.0,
2070.0,2121.0,20.0,-6.0,
2076.0,2110.0,20.0,-6.0,
2077.0,2093.0,20.0,-6.0,
2078.0,2051.0,20.0,-6.0,
2067.0,2084.0,20.0,-6.0,
2073.0,2033.0,20.0,-6.0,
2072.0,2043.0,20.0,-6.0,
2065.0,2043.0,20.0,-6.0,
2071.0,2081.0,20.0,-6.0,
2079.0,2078.0,20.0,-6.0,
2073.0,2070.0,20.0,-6.0,
2071.0,2065.0,20.0,-6.0,
2060.0,2073.0,20.0,-6.0,
2066.0,2056.0,20.0,-6.0,
2074.0,2045.0,20.0,-6.0,
2082.0,2090.0,20.0,-6.0,
2060.0,2079.0,20.0,-6.0,
2083.0,2081.0,20.0,-6.0,
2089.0,2102.0,20.0,-6.0,
2091.0,2140.0,20.0,-6.0,
2057.0,2055.0,20.0,-6.0,
2046.0,2076.0,20.0,-6.0,
2039.0,2029.0,20.0,-6.0,
2026.0,2049.0,20.0,-6.0,
2071.0,2200.0,20.0,-6.0,
2082.0,2098.0,20.0,-6.0,
2061.0,2128.0,20.0,-6.0,
2086.0,2094.0,20.0,-6.0,
2035.0,2055.0,20.0,-6.0,
2068.0,2056.0,20.0,-6.0,
2080.0,2077.0,21.0,-6.0,
2057.0,2001.0,21.0,-6.0,
2062.0,1840.0,21.0,-6.0,
2068.0,1853.0,21.0,-6.0,
2058.0,2273.0,21.0,-6.0,
2049.0,2455.0,21.0,-6.0,
2030.0,2192.0,20.0,-6.0,
2055.0,2152.0,20.0,-6.0,
2045.0,2021.0,20.0,-6.0,
2069.0,2068.0,20.0,-6.0,
2074.0,2207.0,20.0,-6.0,
2077.0,2186.0,20.0,-6.0,
2080.0,2047.0,20.0,-6.0,
2053.0,2011.0,20.0,-6.0,
2070.0,2034.0,20.0,-6.0,
2066.0,1994.0,20.0,-6.0,
2079.0,2047.0,20.0,-6.0,
2093.0,2132.0,20.0,-6.0,
2095.0,2130.0,20.0,-7.0,
2076.0,2088.0,20.0,-7.0,
2055.0,2026.0,20.0,-7.0,
2084.0,2041.0,20.0,-7.0,
2060.0,1988.0,20.0,-7.0,
2074.0,2161.0,20.0,-6.0,
2087.0,2202.0,20.0,-6.0,
2073.0,2157.0,21.0,-6.0,
2084.0,2057.0,21.0,-6.0,
2087.0,2074.0,21.0,-6.0,
2084.0,1991.0,21.0,-6.0,
2104.0,2065.0,21.0,-6.0,
2125.0,1963.0,21.0,-6.0,
2070.0,2006.0,21.0,-6.0,
2071.0,2034.0,21.0,-6.0,
2061.0,2061.0,21.0,-6.0,
2026.0,2157.0,21.0,-6.0,
2052.0,2247.0,21.0,-6.0,
2027.0,2044.0,21.0,-6.0,
2026.0,2070.0,21.0,-6.0,
2056.0,2167.0,21.0,-6.0,
2085.0,2104.0,21.0,-6.0,
2094.0,2026.0,21.0,-6.0,
2068.0,2153.0,21.0,-6.0,
2045.0,2069.0,21.0,-6.0,
2037.0,1964.0,21.0,-6.0,
2041.0,2018.0,21.0,-6.0,
2073.0,2120.0,21.0,-6.0,
2063.0,2068.0,21.0,-6.0,
2080.0,2094.0,21.0,-6.0,
2076.0,2225.0,21.0,-6.0,
2039.0,2116.0,21.0,-6.0,
2071.0,2097.0,21.0,-6.0,
2062.0,2045.0,21.0,-6.0,
2041.0,2005.0,0,
2075.0,1968.0,21.0,-6.0,
2086.0,2093.0,21.0,-6.0,
2064.0,2108.0,21.0,-6.0,
2095.0,2153.0,21.0,-6.0,
2102.0,2070.0,21.0,-6.0,
2110.0,2071.0,21.0,-6.0,
2072.0,2061.0,21.0,-6.0,
2043.0,2072.0,21.0,-6.0,
2049.0,2097.0,21.0,-6.0,
2041.0,2107.0,21.0,-6.0,
2034.0,2116.0,21.0,-6.0,
2027.0,2134.0,21.0,-6.0,
2050.0,2102.0,21.0,-6.0,
2075.0,2059.0,21.0,-6.0,
2077.0,2037.0,21.0,-6.0,
2081.0,2065.0,21.0,-6.0,
2074.0,2131.0,21.0,-7.0,
2081.0,2058.0,21.0,-7.0,
2087.0,2014.0,21.0,-7.0,
2060.0,2035.0,21.0,-7.0,
2077.0,2051.0,21.0,-7.0,
2077.0,2100.0,21.0,-8.0,
2078.0,2077.0,21.0,-8.0,
2068.0,2204.0,21.0,-8.0,
2067.0,2141.0,21.0,-7.0,
2081.0,2036.0,21.0,-8.0,
2072.0,2003.0,21.0,-7.0,
2066.0,2070.0,21.0,-7.0,
2068.0,2143.0,21.0,-7.0,
2069.0,2145.0,21.0,-7.0,
2059.0,2075.0,21.0,-7.0,
2032.0,1928.0,21.0,-7.0,
2081.0,1926.0,20.0,-7.0,
2090.0,2217.0,21.0,-7.0,
2067.0,2100.0,20.0,-7.0,
2092.0,2319.0,21.0,-7.0,
2037.0,2264.0,20.0,-7.0,
2065.0,2070.0,20.0,-7.0,
2072.0,1952.0,21.0,-7.0,
2046.0,2023.0,21.0,-6.0,
2051.0,2061.0,21.0,-6.0,
2043.0,2022.0,21.0,-6.0,
2047.0,2021.0,22.0,-6.0,
2065.0,2212.0,22.0,-6.0,
2073.0,2158.0,22.0,-5.0,
2090.0,1982.0,22.0,-6.0,
2147.0,1975.0,22.0,-6.0,
2092.0,2061.0,22.0,-6.0,
2099.0,2189.0,22.0,-6.0,
2110.0,2095.0,22.0,-6.0,
2061.0,2016.0,0,
2041.0,2025.0,21.0,-7.0,
2058.0,2058.0,21.0,-7.0,
2061.0,2055.0,21.0,-7.0,
2078.0,2174.0,21.0,-8.0,
2045.0,2126.0,21.0,-8.0,
2048.0,2086.0,21.0,-8.0,
2065.0,2087.0,21.0,-8.0,
2054.0,2094.0,21.0,-8.0,
2048.0,2080.0,21.0,-8.0,
2073.0,2101.0,21.0,-8.0,
2086.0,2025.0,21.0,-8.0,
2096.0,2057.0,21.0,-9.0,
2090.0,2145.0,21.0,-9.0,
2058.0,2095.0,20.0,-9.0,
2085.0,2050.0,20.0,-9.0,
2095.0,1985.0,20.0,-9.0,
2091.0,2052.0,20.0,-8.0,
2052.0,2076.0,20.0,-9.0,
2033.0,2205.0,20.0,-10.0,
2044.0,2182.0,20.0,-10.0,
2061.0,2141.0,20.0,-10.0,
2025.0,2094.0,20.0,-11.0,
2036.0,2017.0,20.0,-10.0,
2060.0,2012.0,20.0,-11.0,
2074.0,2029.0,20.0,-11.0,
2068.0,2027.0,20.0,-12.0,
2078.0,1975.0,20.0,-13.0,
2097.0,1959.0,19.0,-12.0,
2089.0,2061.0,19.0,-12.0,
2084.0,2215.0,19.0,-12.0,
2056.0,2247.0,19.0,-12.0,
2071.0,2216.0,19.0,-12.0,
2105.0,2061.0,19.0,-12.0,
2059.0,1981.0,19.0,-12.0,
2076.0,1966.0,19.0,-12.0,
2087.0,2119.0,19.0,-12.0,
2083.0,2157.0,19.0,-13.0,
2077.0,2068.0,19.0,-13.0,
2074.0,2127.0,19.0,-13.0,
2055.0,2068.0,19.0,-13.0,
2061.0,2109.0,19.0,-13.0,
2086.0,2091.0,19.0,-13.0,
2064.0,2084.0,19.0,-13.0,
2078.0,2058.0,19.0,-13.0,
2072.0,2021.0,20.0,-13.0,
2031.0,1940.0,20.0,-13.0,
2020.0,2061.0,20.0,-13.0,
2042.0,2282.0,20.0,-13.0,
2083.0,2241.0,20.0,-13.0,
2071.0,2147.0,20.0,-14.0,
2114.0,2002.0,20.0,-14.0,
2102.0,1878.0,21.0,-14.0,
2113.0,2072.0,21.0,-14.0,
2045.0,2175.0,21.0,-14.0,
2028.0,2116.0,21.0,-14.0,
2048.0,2032.0,21.0,-14.0,
2098.0,2025.0,21.0,-14.0,
2093.0,2098.0,21.0,-14.0,
2080.0,2180.0,22.0,-14.0,
2072.0,2069.0,22.0,-14.0,
2053.0,2073.0,22.0,-14.0,
2073.0,2034.0,22.0,-14.0,
2059.0,2054.0,22.0,-15.0,
2041.0,2088.0,22.0,-15.0,
2034.0,1931.0,22.0,-15.0,
2036.0,2088.0,22.0,-15.0,
2072.0,2066.0,22.0,-15.0,
2066.0,2032.0,22.0,-15.0,
2076.0,2019.0,22.0,-15.0,
2072.0,2099.0,22.0,-15.0,
2077.0,2102.0,23.0,-15.0,
2086.0,2106.0,23.0,-15.0,
2094.0,2207.0,23.0,-15.0,
2076.0,2105.0,23.0,-15.0,
2045.0,2171.0,23.0,-15.0,
2089.0,2104.0,23.0,-16.0,
2067.0,2157.0,23.0,-16.0,
2075.0,2212.0,23.0,-16.0,
2046.0,2099.0,23.0,-16.0,
2049.0,2230.0,23.0,-16.0,
2060.0,2153.0,23.0,-16.0,
2043.0,2137.0,23.0,-16.0,
2051.0,2113.0,23.0,-17.0,
2092.0,1833.0,23.0,-17.0,
2082.0,1847.0,23.0,-17.0,
2112.0,1981.0,23.0,-17.0,
2087.0,2250.0,23.0,-17.0,
2024.0,2098.0,23.0,-17.0,
2051.0,2073.0,23.0,-17.0,
2081.0,2026.0,23.0,-17.0,
2090.0,2003.0,23.0,-18.0,
2045.0,2098.0,23.0,-18.0,
2086.0,2087.0,23.0,-18.0,
2089.0,2111.0,23.0,-18.0,
2053.0,2068.0,23.0,-18.0,
2070.0,2072.0,23.0,-18.0,
2005.0,2122.0,23.0,-18.0,
2038.0,2180.0,23.0,-19.0,
2037.0,2106.0,23.0,-19.0,
2063.0,2085.0,23.0,-19.0,
2085.0,2038.0,22.0,-19.0,
2099.0,1999.0,0,
2086.0,1997.0,22.0,-19.0,
2068.0,2145.0,22.0,-19.0,
2067.0,2032.0,22.0,-19.0,
2108.0,2147.0,22.0,-20.0,
2072.0,2115.0,22.0,-20.0,
2094.0,2144.0,22.0,-20.0,
2066.0,2083.0,22.0,-20.0,
2064.0,2094.0,22.0,-21.0,
2067.0,2057.0,22.0,-21.0,
2074.0,1965.0,22.0,-21.0,
2058.0,2107.0,22.0,-21.0,
2080.0,2108.0,22.0,-21.0,
2107.0,2240.0,22.0,-22.0,
2069.0,2182.0,23.0,-22.0,
2068.0,2007.0,23.0,-22.0,
2071.0,1986.0,23.0,-22.0,
2025.0,2195.0,23.0,-22.0,
2005.0,2111.0,23.0,-23.0,
2027.0,2074.0,23.0,-23.0,
2090.0,2018.0,23.0,-23.0,
2101.0,2108.0,23.0,-23.0,
2048.0,1981.0,23.0,-23.0,
2038.0,2167.0,23.0,-23.0,
2038.0,2109.0,23.0,-23.0,
2104.0,2078.0,23.0,-23.0,
2085.0,2122.0,23.0,-23.0,
2104.0,2259.0,23.0,-23.0,
2062.0,2179.0,23.0,-23.0,
2051.0,2034.0,23.0,-23.0,
2066.0,1868.0,23.0,-23.0,
2063.0,2143.0,24.0,-23.0,
2064.0,2046.0,24.0,-23.0,
2079.0,2122.0,24.0,-23.0,
2045.0,2077.0,24.0,-23.0,
2085.0,2145.0,24.0,-23.0,
2116.0,1954.0,24.0,-22.0,
2092.0,2034.0,24.0,-22.0,
2042.0,2014.0,25.0,-22.0,
2011.0,2147.0,25.0,-22.0,
2057.0,2058.0,25.0,-23.0,
2068.0,1997.0,25.0,-23.0,
2055.0,2211.0,25.0,-23.0,
2082.0,2321.0,25.0,-23.0,
2074.0,2082.0,25.0,-23.0,
2063.0,2077.0,24.0,-24.0,
2034.0,1927.0,24.0,-24.0,
2035.0,1886.0,24.0,-24.0,
2095.0,2283.0,24.0,-25.0,
2112.0,2212.0,24.0,-25.0,
2125.0,2105.0,24.0,-25.0,
2089.0,2014.0,24.0,-25.0,
2089.0,2060.0,23.0,-26.0,
2046.0,2173.0,23.0,-26.0,
2012.0,2068.0,23.0,-26.0,
2031.0,1976.0,23.0,-26.0,
2041.0,2078.0,23.0,-26.0,
2043.0,1976.0,23.0,-26.0,
2078.0,2000.0,22.0,-26.0,
2064.0,1963.0,22.0,-26.0,
2097.0,2154.0,22.0,-26.0,
2107.0,2083.0,22.0,-27.0,
2109.0,1989.0,22.0,-27.0,
2027.0,2158.0,22.0,-27.0,
2031.0,2213.0,22.0,-27.0,
2087.0,2090.0,21.0,-27.0,
2077.0,2155.0,21.0,-27.0,
2053.0,1976.0,21.0,-27.0,
2078.0,2059.0,22.0,-28.0,
2071.0,2311.0,22.0,-28.0,
2080.0,2320.0,22.0,-28.0,
2051.0,2088.0,22.0,-28.0,
2066.0,2025.0,22.0,-29.0,
2091.0,2092.0,22.0,-29.0,
2051.0,2010.0,22.0,-29.0,
2058.0,2055.0,22.0,-29.0,
2084.0,2119.0,22.0,-30.0,
2032.0,2176.0,22.0,-30.0,
2104.0,1906.0,22.0,-30.0,
2027.0,1886.0,22.0,-30.0,
2089.0,1844.0,23.0,-30.0,
2076.0,2059.0,23.0,-30.0,
2041.0,2130.0,23.0,-30.0,
2034.0,2240.0,23.0,-29.0,
2076.0,2191.0,23.0,-29.0,
2093.0,2113.0,23.0,-29.0,
2077.0,2295.0,23.0,-29.0,
2095.0,2104.0,23.0,-29.0,
2061.0,1900.0,23.0,-29.0,
2071.0,1866.0,23.0,-29.0,
2091.0,2087.0,23.0,-28.0,
2098.0,2223.0,23.0,-28.0,
2032.0,1982.0,23.0,-28.0,
2055.0,2054.0,23.0,-28.0,
2065.0,1965.0,24.0,-28.0,
2080.0,2082.0,24.0,-28.0,
2089.0,2119.0,24.0,-29.0,
2046.0,1922.0,24.0,-29.0,
2035.0,1875.0,24.0,-29.0,
2077.0,2460.0,24.0,-30.0,
2078.0,2375.0,24.0,-30.0,
2082.0,2190.0,24.0,-31.0,
2104.0,2020.0,24.0,-31.0,
2080.0,2001.0,0,
2046.0,2176.0,24.0,-32.0,
2071.0,2113.0,24.0,-32.0,
2109.0,2067.0,23.0,-33.0,
1987.0,2077.0,23.0,-33.0,
2017.0,2064.0,23.0,-33.0,
2061.0,1946.0,23.0,-34.0,
2098.0,1975.0,23.0,-34.0,
2067.0,1972.0,22.0,-34.0,
2052.0,2058.0,22.0,-34.0,
2030.0,2060.0,22.0,-34.0,
2047.0,2037.0,22.0,-34.0,
2058.0,2331.0,22.0,-34.0,
2100.0,2078.0,21.0,-34.0,
2094.0,2133.0,21.0,-34.0,
2053.0,2072.0,21.0,-34.0,
2073.0,2137.0,21.0,-34.0,
2036.0,2158.0,21.0,-34.0,
2006.0,1915.0,21.0,-34.0,
2053.0,2034.0,21.0,-34.0,
2086.0,2190.0,22.0,-34.0,
2112.0,2037.0,22.0,-34.0,
2112.0,2000.0,22.0,-34.0,
2018.0,1967.0,22.0,-34.0,
2055.0,2044.0,22.0,-34.0,
2071.0,2047.0,22.0,-34.0,
2079.0,2246.0,22.0,-34.0,
2037.0,2162.0,23.0,-34.0,
2039.0,2000.0,23.0,-34.0,
2052.0,1863.0,23.0,-34.0,
2058.0,1795.0,23.0,-34.0,
2082.0,2265.0,23.0,-34.0,
2109.0,2286.0,23.0,-34.0,
2112.0,2186.0,23.0,-34.0,
2091.0,2186.0,23.0,-34.0,
2044.0,2077.0,23.0,-34.0,
2014.0,1996.0,23.0,-34.0,
2057.0,2023.0,23.0,-34.0,
2080.0,2172.0,24.0,-34.0,
2072.0,2164.0,24.0,-35.0,
2060.0,2253.0,24.0,-35.0,
2080.0,2160.0,24.0,-35.0,
2061.0,2089.0,24.0,-36.0,
2064.0,2019.0,24.0,-36.0,
2060.0,2016.0,24.0,-36.0,
2062.0,1994.0,24.0,-37.0,
2093.0,1938.0,24.0,-37.0,
2084.0,2120.0,24.0,-37.0,
2132.0,2155.0,24.0,-38.0,
2102.0,2057.0,24.0,-38.0,
2028.0,1850.0,24.0,-38.0,
1997.0,1977.0,23.0,-39.0,
2039.0,2366.0,23.0,-39.0,
2045.0,2198.0,23.0,-39.0,
2064.0,2039.0,23.0,-39.0,
2079.0,2067.0,22.0,-40.0,
2057.0,1962.0,22.0,-40.0,
2038.0,1992.0,22.0,-40.0,
2046.0,2007.0,22.0,-40.0,
2095.0,2132.0,21.0,-40.0,
2056.0,2017.0,21.0,-40.0,
2082.0,1947.0,21.0,-40.0,
2052.0,2186.0,21.0,-40.0,
2087.0,2242.0,21.0,-40.0,
2095.0,2266.0,21.0,-40.0,
2103.0,1998.0,21.0,-40.0,
2088.0,2046.0,21.0,-40.0,
2076.0,2316.0,22.0,-40.0,
2063.0,2120.0,22.0,-40.0,
2083.0,2075.0,22.0,-40.0,
2096.0,2011.0,22.0,-40.0,
2041.0,2146.0,23.0,-40.0,
2021.0,2011.0,23.0,-40.0,
2032.0,1928.0,23.0,-40.0,
2055.0,1982.0,23.0,-40.0,
2068.0,1897.0,23.0,-40.0,
2086.0,2249.0,23.0,-40.0,
2035.0,2387.0,23.0,-40.0,
2002.0,1908.0,23.0,-40.0,
2079.0,1823.0,23.0,-40.0,
2118.0,2217.0,23.0,-40.0,
2090.0,2393.0,23.0,-40.0,
2033.0,2064.0,23.0,-40.0,
2049.0,1947.0,23.0,-40.0,
2080.0,2240.0,23.0,-40.0,
2064.0,2056.0,23.0,-40.0,
2062.0,2005.0,23.0,-41.0,
2049.0,1941.0,23.0,-41.0,
2065.0,1973.0,23.0,-41.0,
2101.0,2144.0,23.0,-41.0,
2095.0,2204.0,23.0,-41.0,
2057.0,2056.0,23.0,-41.0,
2065.0,2053.0,23.0,-41.0,
2089.0,2001.0,23.0,-42.0,
2088.0,2082.0,23.0,-42.0,
2064.0,2089.0,23.0,-42.0,
2077.0,1902.0,23.0,-43.0,
2082.0,1990.0,23.0,-43.0,
2123.0,2432.0,23.0,-43.0,
2134.0,2246.0,23.0,-43.0,
2127.0,1952.0,23.0,-44.0,
2125.0,2105.0,23.0,-44.0,
1987.0,2212.0,23.0,-44.0,
1979.0,2077.0,23.0,-44.0,
2070.0,2077.0,23.0,-44.0,
2005.0,2144.0,22.0,-44.0,
2067.0,2133.0,22.0,-44.0,
1968.0,1871.0,22.0,-44.0,
2013.0,1854.0,21.0,-44.0,
2039.0,2250.0,21.0,-44.0,
2067.0,2001.0,21.0,-44.0,
2106.0,2049.0,21.0,-44.0,
2084.0,2325.0,21.0,-43.0,
