2034.0,2094.0,2000.0,1992.0,88.0,5.0,
2033.0,2058.0,1983.0,2073.0,0.0,0.0,
2041.0,2082.0,2087.0,2081.0,0.0,1.0,
2043.0,2051.0,2059.0,2078.0,0.0,1.0,
2038.0,2075.0,2114.0,2039.0,0.0,1.0,
2038.0,2060.0,2091.0,1996.0,0.0,1.0,
2034.0,2021.0,2075.0,2049.0,0.0,1.0,
2037.0,2066.0,2077.0,1944.0,0.0,1.0,
2036.0,2065.0,2038.0,2022.0,0.0,1.0,
2047.0,2085.0,2064.0,2085.0,0.0,1.0,
2040.0,2086.0,2034.0,2088.0,0.0,1.0,
2037.0,2088.0,2029.0,2013.0,0.0,1.0,
2031.0,2095.0,2047.0,2035.0,0.0,1.0,
2029.0,2018.0,2026.0,2058.0,0.0,1.0,
2033.0,2057.0,2048.0,2061.0,0.0,1.0,
2038.0,2064.0,2075.0,2055.0,0.0,1.0,
2041.0,2101.0,2046.0,2062.0,0,0,
2041.0,2113.0,2015.0,1975.0,0.0,1.0,
2037.0,2089.0,2012.0,2027.0,0.0,1.0,
2033.0,2043.0,2040.0,2014.0,0.0,1.0,
2032.0,1973.0,2032.0,2019.0,0.0,1.0,
2031.0,2045.0,2060.0,2066.0,0.0,1.0,
2036.0,2057.0,2066.0,2029.0,0.0,1.0,
2040.0,2045.0,2053.0,2044.0,0.0,0,
2038.0,2067.0,2036.0,2035.0,0.0,1.0,
2040.0,2080.0,2041.0,2028.0,0.0,1.0,
2035.0,2082.0,2036.0,2032.0,0.0,1.0,
2036.0,2066.0,2022.0,2049.0,0.0,1.0,
2036.0,2056.0,2020.0,2032.0,0.0,2.0,
2032.0,2068.0,2013.0,2048.0,0.0,2.0,
2035.0,2083.0,2038.0,2066.0,0.0,2.0,
2040.0,2074.0,2029.0,2039.0,0.0,2.0,
2038.0,2077.0,2019.0,2006.0,0.0,2.0,
2036.0,2078.0,2030.0,2037.0,0.0,2.0,
2040.0,2067.0,2038.0,2033.0,0,0,
2033.0,2078.0,1987.0,2038.0,0.0,2.0,
2038.0,2063.0,2024.0,2024.0,0.0,2.0,
2033.0,2038.0,2082.0,2041.0,0.0,2.0,
2036.0,2051.0,2092.0,2043.0,0.0,2.0,
2039.0,2067.0,2042.0,2029.0,0.0,2.0,
2043.0,2072.0,2010.0,2041.0,0.0,2.0,
2037.0,2047.0,1996.0,2039.0,0.0,2.0,
2036.0,2052.0,2031.0,2043.0,0.0,2.0,
2034.0,2047.0,2043.0,2054.0,0.0,2.0,
2031.0,2093.0,2056.0,2041.0,0.0,2.0,
2033.0,2095.0,2018.0,2014.0,0.0,2.0,
2038.0,2098.0,2023.0,2032.0,0.0,2.0,
2040.0,2048.0,2013.0,2025.0,0.0,2.0,
2038.0,2065.0,2033.0,2036.0,0.0,2.0,
2038.0,2100.0,2028.0,2041.0,0.0,2.0,
2037.0,2066.0,2011.0,2045.0,0.0,2.0,
2033.0,1995.0,2044.0,2021.0,0.0,2.0,
2033.0,2063.0,2014.0,2063.0,0.0,2.0,
2032.0,2096.0,1995.0,1992.0,0.0,2.0,
2034.0,2082.0,2038.0,2042.0,0.0,2.0,
2043.0,2047.0,2080.0,2052.0,0.0,2.0,
2037.0,2041.0,2033.0,2053.0,0.0,2.0,
2036.0,2051.0,2084.0,2052.0,0.0,2.0,
2033.0,2072.0,2053.0,2084.0,0.0,2.0,
2029.0,2075.0,2015.0,2062.0,0.0,2.0,
2033.0,2070.0,2055.0,2068.0,0.0,3.0,
2034.0,2045.0,2048.0,2016.0,0.0,3.0,
2038.0,2057.0,2053.0,2011.0,0.0,3.0,
2037.0,2044.0,2049.0,1949.0,0.0,3.0,
2035.0,2067.0,2027.0,1985.0,0.0,3.0,
2039.0,2064.0,2052.0,2049.0,0.0,3.0,
2038.0,2069.0,2039.0,2051.0,0.0,3.0,
2032.0,2048.0,2032.0,2041.0,0.0,3.0,
2031.0,2082.0,2022.0,2051.0,0.0,3.0,
2038.0,2099.0,2049.0,2036.0,0.0,3.0,
2035.0,2092.0,2042.0,2036.0,0.0,3.0,
2041.0,2086.0,2027.0,2042.0,0,0,
2037.0,2069.0,2000.0,2044.0,0.0,3.0,
2032.0,2073.0,2004.0,2040.0,0.0,3.0,
2033.0,2037.0,2018.0,2053.0,0.0,3.0,
2033.0,2047.0,2046.0,2051.0,0.0,3.0,
2034.0,2060.0,2065.0,2068.0,0.0,3.0,
2045.0,2062.0,2067.0,1999.0,0.0,3.0,
2038.0,2053.0,2038.0,2009.0,0,0,
2037.0,2071.0,2044.0,2041.0,0.0,3.0,
2037.0,2088.0,2042.0,2029.0,0.0,2.0,
2037.0,2069.0,2030.0,2034.0,0.0,2.0,
2033.0,2067.0,2051.0,2039.0,0.0,2.0,
2041.0,2046.0,2057.0,2052.0,0.0,2.0,
2033.0,2064.0,2060.0,2040.0,0.0,2.0,
2040.0,2073.0,2022.0,2035.0,0.0,2.0,
2037.0,2064.0,2018.0,2053.0,0.0,2.0,
2039.0,2057.0,2037.0,2041.0,0.0,2.0,
2029.0,2049.0,2015.0,2036.0,0.0,2.0,
2036.0,2063.0,2089.0,2054.0,0.0,2.0,
2046.0,2062.0,2084.0,2022.0,0.0,2.0,
2033.0,2067.0,2039.0,2033.0,0.0,2.0,
2039.0,2097.0,2011.0,2033.0,0.0,2.0,
2040.0,2094.0,2024.0,2031.0,0.0,2.0,
2038.0,2080.0,1999.0,2028.0,0.0,2.0,
2039.0,2064.0,2063.0,2047.0,0.0,2.0,
2038.0,2051.0,2034.0,2044.0,0.0,2.0,
2029.0,2037.0,2014.0,2056.0,0.0,2.0,
2037.0,2052.0,2072.0,2084.0,0.0,2.0,
2034.0,2069.0,2047.0,2048.0,0.0,2.0,
2035.0,2080.0,2040.0,1984.0,0.0,2.0,
2040.0,2071.0,2031.0,2030.0,0.0,2.0,
2040.0,2066.0,2049.0,2034.0,0.0,2.0,
2036.0,2047.0,2013.0,2038.0,0.0,2.0,
2034.0,2045.0,2029.0,2037.0,0.0,2.0,
2035.0,2070.0,2051.0,2025.0,0.0,2.0,
2034.0,2059.0,2046.0,2041.0,0.0,2.0,
2033.0,2071.0,1994.0,2059.0,0.0,2.0,
2039.0,2099.0,2039.0,2033.0,0.0,2.0,
2040.0,2112.0,2028.0,2028.0,0.0,2.0,
2038.0,2075.0,2023.0,2037.0,0.0,2.0,
2033.0,2054.0,2076.0,1995.0,0.0,2.0,
2031.0,2042.0,2062.0,2024.0,0.0,2.0,
2025.0,2081.0,2019.0,2061.0,0.0,2.0,
2039.0,2047.0,2049.0,2107.0,0.0,2.0,
2036.0,2023.0,2077.0,2011.0,0.0,2.0,
2041.0,2026.0,2092.0,2031.0,0.0,2.0,
2041.0,2011.0,2067.0,2104.0,0.0,2.0,
2037.0,2068.0,2044.0,2047.0,0.0,1.0,
2033.0,2070.0,1998.0,2009.0,0.0,1.0,
2033.0,2111.0,2022.0,1956.0,0.0,1.0,
2036.0,2109.0,2062.0,2017.0,0.0,1.0,
2039.0,2097.0,2027.0,2053.0,0.0,1.0,
2037.0,2035.0,2023.0,2068.0,0.0,1.0,
2039.0,2027.0,2035.0,2066.0,0.0,1.0,
2036.0,2025.0,1986.0,2006.0,0.0,1.0,
2034.0,2049.0,1987.0,2021.0,0.0,1.0,
2037.0,2081.0,2028.0,2021.0,0.0,1.0,
2037.0,2067.0,2084.0,2006.0,0.0,1.0,
2039.0,2079.0,2087.0,2051.0,0.0,1.0,
2037.0,2085.0,2065.0,2040.0,0.0,1.0,
2037.0,2070.0,2076.0,2017.0,0.0,1.0,
2041.0,2065.0,2066.0,2040.0,0.0,1.0,
2038.0,2065.0,2023.0,2063.0,0.0,1.0,
2040.0,2062.0,2026.0,2051.0,0.0,1.0,
2039.0,2099.0,2028.0,2049.0,0.0,1.0,
2033.0,2098.0,2007.0,2027.0,0.0,1.0,
2036.0,2061.0,1983.0,2018.0,0.0,1.0,
2033.0,2061.0,2002.0,2036.0,0.0,1.0,
2041.0,2045.0,2090.0,2055.0,0.0,1.0,
2042.0,2058.0,2068.0,2048.0,0.0,1.0,
2041.0,2075.0,2085.0,2031.0,0.0,1.0,
2040.0,2064.0,2049.0,2023.0,0.0,1.0,
2033.0,2069.0,2031.0,2019.0,0.0,1.0,
2034.0,2079.0,2039.0,2035.0,0.0,1.0,
2035.0,2064.0,2036.0,2023.0,0.0,1.0,
2040.0,2061.0,2017.0,2037.0,0.0,1.0,
2039.0,2069.0,2027.0,2064.0,0.0,1.0,
2040.0,2062.0,2053.0,2063.0,0.0,1.0,
2042.0,2031.0,2065.0,2041.0,0.0,1.0,
2040.0,2049.0,2018.0,2009.0,0.0,2.0,
2035.0,2114.0,2014.0,2031.0,0.0,2.0,
2033.0,2095.0,2014.0,2019.0,0.0,2.0,
2035.0,2059.0,2026.0,2043.0,0.0,2.0,
2037.0,2038.0,2060.0,2047.0,0.0,2.0,
2039.0,2032.0,2057.0,2050.0,0.0,2.0,
2037.0,2051.0,2057.0,2043.0,0.0,2.0,
2045.0,2046.0,2035.0,2037.0,0.0,2.0,
2030.0,2071.0,2041.0,2029.0,0.0,2.0,
2037.0,2086.0,2054.0,2030.0,0.0,2.0,
2035.0,2059.0,2074.0,2038.0,0.0,2.0,
2037.0,2010.0,2039.0,2054.0,0.0,2.0,
2038.0,2036.0,2036.0,2031.0,0.0,2.0,
2046.0,2089.0,2026.0,2024.0,0.0,2.0,
2041.0,2077.0,2049.0,2016.0,0.0,2.0,
2036.0,2081.0,2026.0,2017.0,0.0,2.0,
2036.0,2095.0,2056.0,2097.0,0.0,2.0,
2033.0,2092.0,2023.0,2064.0,0.0,2.0,
2031.0,2064.0,2010.0,2030.0,0.0,2.0,
2033.0,2037.0,1993.0,2027.0,0.0,2.0,
2040.0,2101.0,2025.0,2102.0,0.0,2.0,
2043.0,2108.0,2065.0,1898.0,0.0,2.0,
2042.0,2070.0,2100.0,2029.0,0.0,2.0,
2037.0,2044.0,2071.0,2033.0,0.0,2.0,
2034.0,1978.0,2041.0,2076.0,0.0,2.0,
2034.0,2026.0,2039.0,2085.0,0.0,2.0,
2037.0,2058.0,2025.0,2027.0,0.0,2.0,
2036.0,2088.0,1997.0,1987.0,0.0,2.0,
2040.0,2111.0,2021.0,2027.0,0.0,2.0,
2036.0,2091.0,2022.0,2021.0,0.0,0,
2034.0,2068.0,1991.0,2026.0,0.0,2.0,
2036.0,2035.0,2060.0,2064.0,0.0,2.0,
2035.0,2062.0,2066.0,2083.0,0.0,2.0,
2033.0,2109.0,1986.0,2072.0,0.0,2.0,
2040.0,2121.0,2054.0,2051.0,0.0,2.0,
2042.0,2094.0,2066.0,2024.0,0.0,2.0,
2037.0,1939.0,2047.0,2007.0,0.0,2.0,
2038.0,1972.0,2082.0,2083.0,0.0,2.0,
2050.0,2044.0,2050.0,2035.0,0.0,2.0,
2036.0,2072.0,2012.0,2020.0,0.0,2.0,
2034.0,2079.0,2024.0,2050.0,0.0,2.0,
2033.0,2086.0,2026.0,2026.0,0.0,2.0,
2035.0,2080.0,2045.0,2027.0,0.0,2.0,
2042.0,2081.0,2046.0,2021.0,0.0,2.0,
2046.0,2084.0,2039.0,2019.0,0.0,2.0,
2041.0,2086.0,2033.0,2017.0,0.0,2.0,
2035.0,2090.0,2016.0,2021.0,0.0,2.0,
2034.0,2080.0,2020.0,2021.0,0.0,2.0,
2035.0,2058.0,2026.0,2019.0,0.0,2.0,
2035.0,2037.0,2036.0,2024.0,0.0,2.0,
2036.0,2070.0,2039.0,2037.0,0,0,
2038.0,2085.0,2024.0,2052.0,0.0,2.0,
2039.0,2060.0,2044.0,2061.0,0.0,2.0,
2037.0,2048.0,2037.0,2066.0,0.0,2.0,
2033.0,2044.0,2028.0,2039.0,0.0,2.0,
2031.0,2058.0,2027.0,2039.0,0.0,2.0,
2035.0,2067.0,2054.0,2036.0,0.0,2.0,
2036.0,2079.0,2036.0,2028.0,0.0,2.0,
2037.0,2042.0,2029.0,2030.0,0.0,2.0,
2037.0,2069.0,2032.0,2029.0,0.0,2.0,
2040.0,2064.0,2034.0,2031.0,0.0,2.0,
2034.0,2064.0,2011.0,2033.0,0.0,2.0,
2035.0,2080.0,2027.0,2073.0,0.0,2.0,
2037.0,2058.0,2025.0,2040.0,0.0,2.0,
2034.0,2071.0,2044.0,2028.0,0.0,2.0,
2039.0,2069.0,2040.0,2036.0,0.0,2.0,
2039.0,2061.0,2040.0,2032.0,0.0,2.0,
2038.0,2063.0,2046.0,2025.0,0.0,2.0,
2033.0,2066.0,2007.0,2020.0,0.0,2.0,
2036.0,2073.0,1988.0,2052.0,0.0,2.0,
2033.0,2078.0,1985.0,2047.0,0.0,2.0,
2035.0,2075.0,2029.0,2065.0,0.0,2.0,
2036.0,2040.0,2112.0,2049.0,0.0,2.0,
2044.0,2062.0,2130.0,1988.0,0.0,2.0,
2041.0,2077.0,2108.0,1988.0,0.0,2.0,
2048.0,2049.0,2092.0,2055.0,0.0,2.0,
2041.0,2082.0,2079.0,2028.0,0.0,2.0,
2031.0,2036.0,2045.0,2049.0,0.0,2.0,
2035.0,2063.0,2082.0,2054.0,0.0,2.0,
2037.0,2097.0,2057.0,2029.0,0.0,2.0,
2034.0,2059.0,2034.0,2032.0,0.0,2.0,
2036.0,2026.0,2027.0,2050.0,0.0,2.0,
2040.0,2028.0,2017.0,2063.0,0.0,2.0,
2039.0,2051.0,2013.0,2042.0,0.0,2.0,
2036.0,2068.0,2000.0,2030.0,0.0,2.0,
2034.0,2073.0,1985.0,2022.0,0.0,2.0,
2034.0,2084.0,1987.0,2029.0,0.0,2.0,
2031.0,2097.0,1980.0,2054.0,0.0,2.0,
2040.0,2143.0,2061.0,1969.0,0.0,2.0,
2037.0,2038.0,2046.0,1993.0,0.0,2.0,
2043.0,2023.0,2052.0,2085.0,0.0,2.0,
2042.0,2030.0,2029.0,2083.0,0.0,2.0,
2039.0,2017.0,2044.0,2075.0,0.0,2.0,
2035.0,2077.0,2017.0,2037.0,0.0,2.0,
2037.0,2071.0,2016.0,2019.0,0.0,2.0,
2036.0,2086.0,2015.0,2030.0,0.0,2.0,
2037.0,2087.0,2033.0,2003.0,0.0,2.0,
2038.0,2083.0,2052.0,2039.0,0.0,2.0,
2041.0,2084.0,2051.0,2048.0,0.0,2.0,
2038.0,2056.0,2027.0,2033.0,0.0,2.0,
2040.0,2069.0,2052.0,2035.0,0.0,2.0,
2033.0,2070.0,2034.0,2023.0,0.0,1.0,
2031.0,2068.0,2030.0,2027.0,0.0,1.0,
2034.0,2067.0,2033.0,2030.0,0.0,1.0,
2037.0,2062.0,2058.0,2033.0,0.0,1.0,
2039.0,2076.0,2039.0,2018.0,0.0,1.0,
2044.0,2062.0,2034.0,2010.0,0.0,1.0,
2037.0,2060.0,2010.0,2013.0,0.0,1.0,
2036.0,2036.0,2006.0,2069.0,0.0,1.0,
2034.0,2078.0,2044.0,2082.0,0.0,1.0,
2029.0,2090.0,2026.0,2044.0,0.0,1.0,
2040.0,2073.0,2019.0,2056.0,0.0,1.0,
2040.0,2053.0,1993.0,2006.0,0.0,1.0,
2039.0,2081.0,1999.0,2067.0,0.0,1.0,
2039.0,2058.0,1990.0,2050.0,0.0,1.0,
2038.0,2022.0,2045.0,1979.0,0.0,1.0,
2034.0,2050.0,2035.0,2000.0,0.0,1.0,
2036.0,2084.0,2053.0,2034.0,0.0,1.0,
2033.0,2080.0,2062.0,2059.0,0.0,1.0,
2038.0,2072.0,2053.0,2053.0,0.0,1.0,
2038.0,2060.0,2047.0,2009.0,0.0,1.0,
2039.0,2047.0,2037.0,2024.0,0.0,1.0,
2038.0,2069.0,2037.0,2038.0,0.0,1.0,
2038.0,2074.0,2046.0,2037.0,0.0,1.0,
2038.0,2088.0,2036.0,2040.0,0.0,1.0,
2034.0,2084.0,2033.0,2050.0,0.0,1.0,
2036.0,2099.0,2041.0,2046.0,0.0,2.0,
2037.0,2079.0,2026.0,2038.0,0.0,2.0,
2032.0,2045.0,1996.0,2030.0,0.0,2.0,
2036.0,2028.0,2021.0,1969.0,0.0,2.0,
2035.0,2014.0,2029.0,2073.0,0.0,2.0,
2034.0,2052.0,2019.0,2095.0,0.0,2.0,
2033.0,2085.0,2033.0,2084.0,0.0,2.0,
2036.0,2078.0,2039.0,2022.0,0.0,2.0,
2037.0,2070.0,2053.0,2020.0,0.0,2.0,
2036.0,2073.0,2060.0,2029.0,0.0,2.0,
2036.0,2052.0,2059.0,2051.0,0.0,2.0,
2040.0,2072.0,2054.0,2045.0,0.0,2.0,
2040.0,2068.0,2075.0,2016.0,0.0,2.0,
2033.0,2069.0,2053.0,2002.0,0.0,2.0,
2031.0,2088.0,2053.0,2028.0,0.0,2.0,
2031.0,2065.0,2075.0,2064.0,0.0,2.0,
2031.0,2019.0,2036.0,2090.0,0.0,2.0,
2036.0,2037.0,2030.0,2007.0,0.0,2.0,
2035.0,2061.0,2030.0,2029.0,0.0,2.0,
2039.0,2072.0,2048.0,2029.0,0.0,2.0,
2036.0,2086.0,2051.0,2021.0,0.0,2.0,
2033.0,2082.0,2006.0,2013.0,0.0,2.0,
2030.0,2086.0,1983.0,2017.0,0.0,2.0,
2029.0,2093.0,1947.0,2032.0,0.0,2.0,
2033.0,2074.0,2023.0,2065.0,0.0,2.0,
2039.0,2075.0,2106.0,2044.0,0.0,2.0,
2040.0,2093.0,2053.0,2049.0,0.0,2.0,
2042.0,2083.0,2065.0,2032.0,0.0,2.0,
2034.0,2026.0,2032.0,2064.0,0.0,2.0,
2033.0,2005.0,2018.0,2037.0,0.0,2.0,
2035.0,2036.0,2035.0,2018.0,0.0,2.0,
2031.0,2057.0,2010.0,2033.0,0.0,2.0,
2036.0,2089.0,2040.0,2028.0,0.0,2.0,
2038.0,2104.0,2058.0,2024.0,0.0,2.0,
2037.0,2011.0,2034.0,2030.0,0.0,2.0,
2037.0,2039.0,2014.0,2049.0,0.0,2.0,
2035.0,2062.0,2007.0,2036.0,0.0,2.0,
2043.0,2076.0,2042.0,2038.0,0.0,2.0,
2038.0,2081.0,2041.0,2022.0,0.0,2.0,
2037.0,2083.0,2028.0,1984.0,0.0,2.0,
2039.0,2088.0,2043.0,2046.0,0.0,2.0,
2042.0,2063.0,2067.0,2069.0,0.0,2.0,
2041.0,2059.0,2028.0,2088.0,0.0,2.0,
2037.0,2098.0,2004.0,2051.0,0.0,2.0,
2030.0,2035.0,1996.0,1911.0,0.0,2.0,
2032.0,2023.0,2025.0,2024.0,0.0,2.0,
2035.0,2036.0,2046.0,2111.0,0.0,2.0,
2034.0,2045.0,2036.0,2106.0,0.0,2.0,
2040.0,2099.0,2025.0,2024.0,0.0,2.0,
2041.0,2077.0,2008.0,2029.0,0.0,2.0,
2042.0,2087.0,2013.0,2034.0,0.0,2.0,
2037.0,2087.0,2029.0,2024.0,0.0,2.0,
2037.0,2085.0,2055.0,2047.0,0.0,2.0,
2034.0,2083.0,2038.0,2024.0,0.0,2.0,
2035.0,2073.0,2045.0,2031.0,0.0,2.0,
2038.0,2067.0,2058.0,2041.0,0.0,2.0,
2043.0,2063.0,2082.0,2050.0,0.0,2.0,
2039.0,2055.0,2066.0,2036.0,0.0,2.0,
2039.0,2060.0,2052.0,2029.0,0.0,2.0,
2038.0,2053.0,2034.0,2033.0,0.0,2.0,
2039.0,2060.0,2036.0,2038.0,0.0,2.0,
2036.0,2059.0,2059.0,2023.0,0.0,2.0,
2036.0,2058.0,2059.0,2018.0,0.0,2.0,
2037.0,2073.0,2052.0,2040.0,0.0,2.0,
2038.0,2077.0,2035.0,2043.0,0.0,2.0,
2039.0,2048.0,2023.0,2066.0,0.0,2.0,
2036.0,2070.0,1992.0,2072.0,0.0,2.0,
2034.0,2072.0,1961.0,1972.0,0.0,2.0,
2014.0,2080.0,2002.0,2021.0,0.0,2.0,
2032.0,2051.0,2034.0,2025.0,0.0,2.0,
2030.0,1999.0,2081.0,2029.0,0.0,2.0,
2037.0,2044.0,2088.0,2069.0,0.0,2.0,
2040.0,2085.0,2058.0,2064.0,0.0,2.0,
2038.0,2100.0,2033.0,2062.0,0.0,2.0,
2038.0,2068.0,2025.0,2003.0,0.0,2.0,
2037.0,2039.0,2013.0,2000.0,0.0,2.0,
2031.0,2049.0,2014.0,2014.0,0.0,2.0,
2029.0,2038.0,2017.0,2071.0,0.0,2.0,
2036.0,2071.0,2055.0,2056.0,0.0,2.0,
2039.0,2072.0,2032.0,2051.0,0.0,2.0,
2045.0,2091.0,2020.0,2044.0,0.0,2.0,
2036.0,2109.0,2021.0,2041.0,0.0,2.0,
2034.0,2087.0,2007.0,2032.0,0.0,2.0,
2030.0,2057.0,2073.0,2029.0,0.0,2.0,
2032.0,2048.0,2058.0,2027.0,0.0,2.0,
2038.0,2049.0,2039.0,2001.0,0.0,2.0,
2034.0,2073.0,2048.0,2032.0,0.0,2.0,
2042.0,2098.0,2041.0,2017.0,0.0,2.0,
2042.0,2094.0,1997.0,2014.0,0.0,2.0,
2032.0,2033.0,1973.0,2027.0,0.0,2.0,
2029.0,2092.0,1993.0,2069.0,0.0,2.0,
2036.0,2035.0,2027.0,2115.0,0.0,2.0,
2037.0,2009.0,2068.0,2006.0,0.0,2.0,
2041.0,2037.0,2050.0,2040.0,0.0,2.0,
2036.0,2067.0,2032.0,2065.0,0.0,2.0,
2035.0,2114.0,2018.0,1925.0,0.0,2.0,
2043.0,2076.0,2114.0,2018.0,0.0,2.0,
2043.0,2046.0,2054.0,2073.0,0.0,2.0,
2037.0,2076.0,2030.0,2066.0,0.0,2.0,
2035.0,2088.0,2018.0,2043.0,0.0,2.0,
2030.0,2078.0,2024.0,2031.0,0.0,0,
2035.0,2039.0,2024.0,2039.0,0.0,2.0,
2036.0,2031.0,2038.0,2040.0,0.0,2.0,
2036.0,2054.0,2048.0,2049.0,0.0,2.0,
2041.0,2069.0,2043.0,2028.0,0.0,2.0,
2034.0,2072.0,2039.0,2026.0,0.0,2.0,
2034.0,2072.0,2033.0,2027.0,0.0,2.0,
2032.0,2074.0,2029.0,2033.0,0.0,2.0,
2031.0,2073.0,2038.0,2034.0,0.0,2.0,
2038.0,2082.0,2039.0,2035.0,0.0,2.0,
2042.0,2082.0,2041.0,2036.0,0.0,2.0,
2038.0,2068.0,2032.0,2033.0,0.0,2.0,
2036.0,2071.0,2037.0,2029.0,0.0,2.0,
2033.0,2084.0,2017.0,2049.0,0.0,2.0,
2031.0,2050.0,2020.0,2027.0,0.0,2.0,
2031.0,2084.0,2014.0,2027.0,0.0,2.0,
2035.0,2075.0,1984.0,2003.0,0.0,2.0,
2033.0,2044.0,1982.0,2015.0,0.0,2.0,
2036.0,2033.0,2039.0,2057.0,0.0,2.0,
2044.0,2066.0,2095.0,2104.0,0.0,2.0,
2038.0,2092.0,2116.0,2097.0,0.0,2.0,
2031.0,2085.0,2052.0,1994.0,0.0,2.0,
2031.0,2037.0,2026.0,2013.0,0.0,2.0,
2030.0,2070.0,1999.0,2024.0,0.0,2.0,
2035.0,2056.0,2071.0,2030.0,0.0,2.0,
2038.0,2076.0,2048.0,2034.0,0.0,2.0,
2037.0,2065.0,2050.0,2040.0,0.0,2.0,
2036.0,2069.0,2028.0,2047.0,0.0,2.0,
2032.0,2102.0,2006.0,2062.0,0.0,2.0,
2038.0,2111.0,2017.0,2049.0,0.0,2.0,
2032.0,2082.0,2010.0,2006.0,0.0,2.0,
2032.0,1996.0,2011.0,2036.0,0.0,2.0,
2037.0,1993.0,2053.0,2047.0,0.0,2.0,
2037.0,2028.0,2032.0,2041.0,0.0,2.0,
2037.0,2067.0,2033.0,2027.0,0.0,2.0,
2039.0,2090.0,2044.0,2037.0,0.0,2.0,
2033.0,2088.0,2021.0,2039.0,0.0,2.0,
2034.0,2082.0,2031.0,2016.0,0.0,2.0,
2033.0,2066.0,2042.0,2047.0,0.0,2.0,
2034.0,2082.0,2025.0,2035.0,0.0,2.0,
2039.0,2042.0,2021.0,2061.0,0.0,2.0,
2037.0,2002.0,1997.0,1995.0,0.0,2.0,
2032.0,2046.0,1987.0,2051.0,0.0,2.0,
2036.0,2103.0,2069.0,2042.0,0.0,2.0,
2035.0,2117.0,2089.0,1960.0,0.0,2.0,
2038.0,2080.0,2111.0,2045.0,0.0,2.0,
2033.0,2058.0,2083.0,2064.0,0.0,2.0,
2040.0,2055.0,2081.0,2069.0,0,0,
2036.0,2054.0,2030.0,2041.0,0.0,2.0,
2040.0,2063.0,2050.0,2050.0,0.0,2.0,
2036.0,2037.0,2020.0,1986.0,0.0,2.0,
2033.0,2054.0,2020.0,2024.0,0.0,2.0,
2030.0,2083.0,2029.0,2023.0,0.0,2.0,
2032.0,2073.0,2036.0,2041.0,0.0,2.0,
2034.0,2069.0,2035.0,2039.0,0.0,2.0,
2032.0,2099.0,2053.0,2054.0,0.0,2.0,
2036.0,2085.0,2036.0,2035.0,0.0,2.0,
2034.0,2052.0,2033.0,2053.0,0.0,2.0,
2034.0,2047.0,2038.0,2041.0,0.0,2.0,
2039.0,2102.0,2025.0,2053.0,0.0,2.0,
2031.0,2091.0,2010.0,2021.0,0.0,2.0,
2032.0,2064.0,2026.0,2039.0,0.0,2.0,
2030.0,2068.0,2008.0,2029.0,0.0,2.0,
2036.0,2069.0,2058.0,2029.0,0.0,2.0,
2034.0,2068.0,2054.0,2029.0,0.0,2.0,
2041.0,2050.0,2035.0,2040.0,0.0,2.0,
2035.0,2066.0,2033.0,2060.0,0.0,2.0,
2038.0,2061.0,2014.0,2044.0,0.0,2.0,
2033.0,2060.0,2018.0,2036.0,0.0,2.0,
2031.0,2071.0,2036.0,1999.0,0.0,2.0,
2029.0,2065.0,2013.0,2022.0,0.0,2.0,
2035.0,2087.0,2047.0,2056.0,0.0,2.0,
2037.0,2073.0,2044.0,2027.0,0.0,2.0,
2038.0,2045.0,2064.0,2023.0,0.0,2.0,
2038.0,2056.0,2049.0,2025.0,0.0,2.0,
2032.0,2047.0,2015.0,2034.0,0.0,2.0,
2034.0,2049.0,2032.0,2053.0,0.0,2.0,
2035.0,2025.0,2063.0,2051.0,0.0,2.0,
2035.0,2070.0,2041.0,2039.0,0.0,2.0,
2035.0,2074.0,2067.0,2032.0,0.0,2.0,
2040.0,2072.0,2047.0,2041.0,0.0,2.0,
2038.0,2080.0,2024.0,2042.0,0.0,2.0,
2035.0,2068.0,2031.0,2035.0,0.0,2.0,
2033.0,2080.0,1998.0,2020.0,0.0,2.0,
2030.0,2092.0,2025.0,2030.0,0.0,2.0,
2031.0,2066.0,2003.0,2030.0,0.0,2.0,
2036.0,2050.0,2078.0,2065.0,0.0,2.0,
2038.0,2046.0,2080.0,2088.0,0.0,2.0,
2040.0,2037.0,2074.0,2028.0,0.0,2.0,
2039.0,2074.0,2052.0,2024.0,0.0,2.0,
2037.0,2081.0,2044.0,2008.0,0.0,2.0,
2032.0,2087.0,2028.0,1999.0,0.0,2.0,
2030.0,2065.0,2034.0,1941.0,0.0,2.0,
2029.0,2031.0,2040.0,2040.0,0.0,2.0,
2033.0,2086.0,1982.0,2068.0,0.0,2.0,
2041.0,2091.0,2023.0,2092.0,0.0,2.0,
2040.0,2068.0,1994.0,2077.0,0.0,2.0,
2034.0,2087.0,1954.0,2035.0,0.0,2.0,
2032.0,2067.0,1997.0,1998.0,0.0,2.0,
2031.0,2044.0,2010.0,1993.0,0.0,2.0,
2031.0,2061.0,2013.0,2033.0,0.0,2.0,
2034.0,2057.0,2027.0,2071.0,0.0,2.0,
2044.0,2054.0,2044.0,2048.0,0.0,2.0,
2044.0,2036.0,2061.0,2028.0,0.0,2.0,
2039.0,2061.0,2031.0,2038.0,0,0,
2037.0,2088.0,2053.0,2041.0,0.0,2.0,
2038.0,2096.0,2069.0,2016.0,0.0,2.0,
2031.0,2128.0,2047.0,2010.0,0.0,2.0,
2027.0,2062.0,2029.0,2020.0,0.0,2.0,
2033.0,1936.0,2018.0,2094.0,0.0,2.0,
2041.0,2012.0,2078.0,2118.0,0.0,2.0,
2036.0,2081.0,2046.0,2019.0,0.0,2.0,
2036.0,2075.0,2025.0,1999.0,0.0,2.0,
2033.0,2049.0,2028.0,1998.0,0.0,2.0,
2032.0,2073.0,2018.0,2055.0,0,0,
2035.0,2070.0,2049.0,2030.0,0.0,2.0,
2033.0,2079.0,2036.0,2041.0,0.0,2.0,
2039.0,2079.0,2044.0,2086.0,0.0,2.0,
2037.0,2072.0,2099.0,2052.0,0.0,2.0,
2038.0,2080.0,2087.0,2011.0,0.0,2.0,
2040.0,2077.0,2053.0,1984.0,0.0,2.0,
2040.0,2060.0,2053.0,2010.0,0.0,2.0,
2030.0,2054.0,2013.0,2011.0,0.0,2.0,
2030.0,2094.0,2010.0,2047.0,0.0,2.0,
2031.0,2069.0,2027.0,2052.0,0.0,2.0,
2037.0,2058.0,2028.0,2046.0,0.0,2.0,
2038.0,2043.0,2053.0,2037.0,0.0,2.0,
2048.0,2073.0,2053.0,2035.0,0.0,2.0,
2031.0,2070.0,2039.0,2026.0,0.0,2.0,
2031.0,2065.0,2007.0,2039.0,0.0,2.0,
2030.0,2043.0,2008.0,2046.0,0.0,2.0,
2030.0,2047.0,2006.0,2042.0,0.0,2.0,
2034.0,2081.0,2041.0,2016.0,0.0,2.0,
2036.0,2076.0,2028.0,2015.0,0.0,2.0,
2039.0,2068.0,2052.0,2046.0,0.0,2.0,
2036.0,2060.0,2027.0,2037.0,0.0,2.0,
2032.0,2072.0,2009.0,2059.0,0.0,2.0,
2033.0,2053.0,2005.0,2066.0,0.0,2.0,
2032.0,2043.0,2028.0,2039.0,0.0,2.0,
2030.0,2072.0,2008.0,2045.0,0.0,2.0,
2036.0,2065.0,2022.0,2032.0,0.0,2.0,
2038.0,2065.0,2043.0,2028.0,0.0,2.0,
2037.0,2065.0,2037.0,2029.0,0.0,2.0,
2035.0,2065.0,2045.0,2076.0,0.0,2.0,
2035.0,2077.0,2037.0,2068.0,0.0,2.0,
2030.0,2059.0,1995.0,1996.0,0.0,2.0,
2034.0,2088.0,2025.0,1952.0,0.0,2.0,
2035.0,2064.0,2027.0,2050.0,0.0,2.0,
2034.0,2034.0,2001.0,2064.0,0.0,2.0,
2038.0,2055.0,2033.0,1995.0,0.0,2.0,
2038.0,2056.0,2051.0,2044.0,0.0,2.0,
2037.0,2068.0,2048.0,2019.0,0.0,2.0,
2039.0,2094.0,2059.0,2031.0,0.0,2.0,
2032.0,2064.0,2042.0,2043.0,0.0,2.0,
2033.0,2066.0,2063.0,2068.0,0.0,2.0,
2037.0,2062.0,2058.0,2041.0,0.0,2.0,
2036.0,2063.0,2039.0,2034.0,0.0,2.0,
2032.0,2075.0,2016.0,2031.0,0.0,2.0,
2037.0,2082.0,2050.0,2017.0,0.0,2.0,
2036.0,2090.0,2037.0,2023.0,0.0,2.0,
2034.0,2096.0,2051.0,2027.0,0.0,2.0,
2036.0,2088.0,2069.0,2067.0,0.0,2.0,
2035.0,2019.0,2046.0,2082.0,0,0,
2035.0,1995.0,2068.0,2072.0,0.0,2.0,
2036.0,2044.0,2054.0,1985.0,0.0,2.0,
2038.0,2089.0,2019.0,2020.0,0.0,2.0,
2035.0,2095.0,2005.0,2016.0,0.0,2.0,
2035.0,2073.0,1969.0,2042.0,0.0,2.0,
2032.0,2040.0,2012.0,2018.0,0.0,2.0,
2037.0,1981.0,2106.0,2087.0,0,0,
2033.0,2031.0,2070.0,2031.0,0.0,2.0,
2038.0,2077.0,2030.0,2037.0,0.0,2.0,
2047.0,2093.0,2031.0,2063.0,0.0,2.0,
2042.0,2081.0,2018.0,2037.0,0.0,2.0,
2041.0,2055.0,2012.0,2043.0,0.0,2.0,
2035.0,2068.0,2036.0,1981.0,0.0,2.0,
2034.0,2068.0,2034.0,2024.0,0.0,2.0,
2039.0,2099.0,2056.0,2051.0,0.0,2.0,
2037.0,2095.0,2050.0,2011.0,0.0,2.0,
2036.0,2067.0,2032.0,2028.0,0.0,2.0,
2039.0,2064.0,2047.0,2047.0,0.0,2.0,
2036.0,2104.0,2020.0,2050.0,0.0,2.0,
2036.0,2091.0,2032.0,2022.0,0.0,2.0,
2035.0,2054.0,2030.0,2019.0,0.0,2.0,
2030.0,2060.0,2030.0,2021.0,0.0,2.0,
2032.0,2056.0,2036.0,2049.0,0.0,2.0,
2033.0,2071.0,2031.0,2051.0,0.0,2.0,
2036.0,2070.0,2015.0,2044.0,0.0,2.0,
2037.0,2054.0,2026.0,2053.0,0.0,2.0,
2035.0,2042.0,2002.0,2077.0,0.0,2.0,
2040.0,2056.0,2104.0,2047.0,0.0,2.0,
2036.0,2077.0,2059.0,1946.0,0.0,2.0,
2032.0,2097.0,2025.0,2020.0,0.0,2.0,
2032.0,2084.0,2023.0,2051.0,0.0,0,
2036.0,2043.0,2065.0,2021.0,0.0,2.0,
2033.0,1971.0,2023.0,2051.0,0.0,2.0,
2043.0,2036.0,2065.0,2099.0,0.0,2.0,
2037.0,2073.0,2040.0,2053.0,0.0,2.0,
2040.0,2068.0,2044.0,1994.0,0.0,2.0,
2030.0,2067.0,2033.0,2011.0,0.0,2.0,
2032.0,2060.0,2042.0,2032.0,0.0,2.0,
2033.0,2069.0,2035.0,1997.0,0.0,2.0,
2040.0,2108.0,2073.0,2024.0,0.0,2.0,
2038.0,2110.0,2046.0,2037.0,0.0,2.0,
2031.0,2096.0,2011.0,2052.0,0.0,2.0,
2037.0,2092.0,2034.0,2038.0,0.0,2.0,
2030.0,2028.0,2006.0,2038.0,0.0,2.0,
2037.0,2050.0,2041.0,2049.0,0.0,2.0,
2039.0,2021.0,2018.0,2037.0,0.0,2.0,
2034.0,2045.0,2015.0,2045.0,0.0,2.0,
2034.0,2063.0,1979.0,2019.0,0.0,2.0,
2033.0,2098.0,2025.0,2005.0,0.0,2.0,
2038.0,2055.0,2052.0,2059.0,0.0,2.0,
2029.0,2035.0,2086.0,2061.0,0.0,2.0,
2040.0,2048.0,2005.0,2063.0,0.0,2.0,
2034.0,2083.0,2043.0,2051.0,0.0,2.0,
2033.0,2075.0,2017.0,2030.0,0.0,2.0,
2036.0,2062.0,2043.0,2026.0,0,0,
2036.0,2070.0,2032.0,2025.0,0.0,2.0,
2037.0,2071.0,2042.0,2021.0,0.0,2.0,
2034.0,2082.0,2040.0,2035.0,0.0,2.0,
2035.0,2054.0,2030.0,2032.0,0.0,2.0,
2032.0,2070.0,2028.0,2028.0,0.0,2.0,
2032.0,2075.0,2040.0,2016.0,0.0,2.0,
2030.0,2115.0,2029.0,2024.0,0.0,2.0,
2039.0,2070.0,1998.0,2038.0,0.0,2.0,
2040.0,2065.0,2015.0,2030.0,0.0,2.0,
2040.0,2083.0,2019.0,2044.0,0.0,2.0,
2043.0,2068.0,2088.0,2065.0,0.0,2.0,
2037.0,2057.0,2053.0,2076.0,0.0,2.0,
2034.0,2047.0,2043.0,2053.0,0.0,2.0,
2034.0,2038.0,2053.0,2043.0,0.0,2.0,
2038.0,2065.0,2051.0,1991.0,0.0,2.0,
2033.0,2043.0,2026.0,2030.0,0.0,2.0,
2039.0,2056.0,2025.0,2047.0,0.0,2.0,
2039.0,2070.0,2031.0,2028.0,0.0,2.0,
2039.0,2087.0,2065.0,2030.0,0.0,2.0,
2029.0,2047.0,2030.0,2021.0,0.0,2.0,
2031.0,2067.0,2032.0,2038.0,0.0,2.0,
2035.0,2069.0,2017.0,2033.0,0.0,2.0,
2035.0,2076.0,2036.0,2039.0,0.0,2.0,
2037.0,2079.0,2042.0,2024.0,0.0,2.0,
2041.0,2079.0,2055.0,2020.0,0.0,2.0,
2038.0,2092.0,2068.0,2020.0,0.0,2.0,
2035.0,2072.0,2032.0,2075.0,0.0,2.0,
2031.0,2046.0,1992.0,2116.0,0.0,2.0,
2031.0,2029.0,1981.0,1987.0,0.0,2.0,
2030.0,2082.0,1993.0,1958.0,0.0,2.0,
2033.0,2079.0,2037.0,2044.0,0.0,2.0,
2037.0,2045.0,2052.0,2078.0,0.0,2.0,
2036.0,2086.0,2017.0,2041.0,0.0,2.0,
2040.0,2081.0,2031.0,2026.0,0.0,2.0,
2039.0,2052.0,2039.0,2074.0,0.0,2.0,
2032.0,2039.0,2024.0,2036.0,0.0,2.0,
2033.0,2075.0,2013.0,2072.0,0.0,2.0,
2035.0,2072.0,2015.0,2064.0,0.0,2.0,
2035.0,2060.0,2050.0,1982.0,0.0,2.0,
2046.0,2069.0,2056.0,1972.0,0.0,2.0,
2042.0,2082.0,2071.0,2032.0,0.0,2.0,
2040.0,2082.0,2044.0,2032.0,0.0,2.0,
2034.0,2048.0,2039.0,2036.0,0.0,2.0,
2033.0,2078.0,2058.0,2037.0,0.0,2.0,
2026.0,2100.0,1969.0,2027.0,0.0,2.0,
2034.0,2115.0,1972.0,2025.0,0.0,2.0,
2034.0,2075.0,1989.0,2043.0,0.0,2.0,
2038.0,1958.0,2026.0,2092.0,0.0,2.0,
2048.0,2008.0,2138.0,2070.0,0.0,2.0,
2041.0,2059.0,2120.0,2044.0,0.0,2.0,
2035.0,2059.0,2054.0,2026.0,0.0,2.0,
2035.0,2060.0,2059.0,2045.0,0.0,2.0,
2029.0,2062.0,2033.0,2031.0,0.0,2.0,
2036.0,2071.0,2049.0,2019.0,0.0,2.0,
2036.0,2070.0,2034.0,2013.0,0.0,2.0,
2037.0,2085.0,2061.0,2026.0,0.0,2.0,
2039.0,2106.0,2041.0,2022.0,0.0,2.0,
2034.0,2085.0,2036.0,2022.0,0.0,2.0,
2037.0,2062.0,2014.0,2033.0,0,0,
2037.0,2063.0,2074.0,2053.0,0.0,2.0,
2036.0,2039.0,2056.0,2076.0,0.0,2.0,
2037.0,2079.0,2051.0,2044.0,0.0,2.0,
2036.0,2053.0,2022.0,1984.0,0.0,2.0,
2037.0,2074.0,2043.0,2013.0,0.0,2.0,
2040.0,2044.0,2036.0,2037.0,0.0,2.0,
2032.0,2048.0,1993.0,2046.0,0.0,2.0,
2033.0,2059.0,1992.0,2030.0,0.0,2.0,
2037.0,2077.0,2074.0,2073.0,0.0,2.0,
2038.0,2049.0,2064.0,2073.0,0.0,2.0,
2037.0,2057.0,2053.0,2050.0,0.0,2.0,
2041.0,2083.0,2041.0,1979.0,0.0,2.0,
2040.0,2094.0,2031.0,2022.0,0.0,2.0,
2033.0,2065.0,2033.0,1988.0,0.0,2.0,
2032.0,2040.0,2024.0,2040.0,0.0,2.0,
2030.0,2073.0,2015.0,2039.0,0.0,2.0,
2033.0,2089.0,2000.0,2019.0,0.0,2.0,
2038.0,2083.0,2003.0,2038.0,0.0,2.0,
2038.0,2052.0,2008.0,2064.0,0.0,2.0,
2041.0,2050.0,2016.0,2077.0,0.0,2.0,
2042.0,2038.0,2047.0,2040.0,0.0,2.0,
2036.0,2076.0,2018.0,2036.0,0.0,2.0,
2032.0,2056.0,2020.0,2030.0,0.0,2.0,
2034.0,2052.0,2034.0,2028.0,0.0,2.0,
2034.0,2058.0,2057.0,2041.0,0.0,2.0,
2040.0,2076.0,2090.0,2038.0,0.0,2.0,
2038.0,2075.0,2036.0,2029.0,0.0,2.0,
2035.0,2081.0,2010.0,2051.0,0.0,2.0,
2038.0,2088.0,2017.0,2035.0,0.0,2.0,
2034.0,2072.0,2011.0,1962.0,0.0,2.0,
2035.0,2071.0,2009.0,2040.0,0.0,2.0,
2033.0,2074.0,2035.0,2053.0,0.0,2.0,
2035.0,2050.0,2045.0,2032.0,0.0,2.0,
2036.0,2048.0,2041.0,2051.0,0.0,2.0,
2040.0,2018.0,2047.0,2036.0,0.0,2.0,
2039.0,2054.0,2018.0,2049.0,0.0,2.0,
2039.0,2067.0,2002.0,2049.0,0.0,2.0,
2035.0,2057.0,2043.0,2044.0,0.0,2.0,
2036.0,2077.0,2029.0,2061.0,0.0,2.0,
2035.0,2063.0,2028.0,2039.0,0.0,2.0,
2035.0,2057.0,2029.0,1999.0,0.0,2.0,
2034.0,2064.0,2018.0,1997.0,0.0,2.0,
2037.0,2114.0,2045.0,2050.0,0.0,2.0,
2034.0,2087.0,2023.0,2032.0,0.0,2.0,
2036.0,2068.0,2028.0,2035.0,0.0,2.0,
2034.0,2064.0,2032.0,2028.0,0.0,2.0,
2035.0,2052.0,2014.0,2038.0,0.0,2.0,
2035.0,2068.0,2022.0,2056.0,0.0,2.0,
2039.0,2068.0,2067.0,2049.0,0.0,2.0,
2040.0,2060.0,2094.0,2044.0,0.0,2.0,
2036.0,2048.0,2045.0,2028.0,0.0,2.0,
2038.0,2036.0,2060.0,2027.0,0.0,2.0,
2032.0,2067.0,2011.0,2043.0,0.0,2.0,
2039.0,2081.0,2017.0,2029.0,0.0,2.0,
2038.0,2078.0,2039.0,2021.0,0.0,2.0,
2037.0,2088.0,2019.0,2030.0,0.0,2.0,
2036.0,2074.0,2033.0,2044.0,0,0,
2039.0,2039.0,2046.0,2034.0,0.0,2.0,
2038.0,2083.0,2055.0,2013.0,0.0,2.0,
2037.0,2065.0,2020.0,2080.0,0.0,2.0,
2029.0,2032.0,1986.0,2100.0,0.0,2.0,
2032.0,2108.0,1980.0,1923.0,0.0,2.0,
2033.0,2105.0,2011.0,2027.0,0.0,2.0,
2032.0,2064.0,2043.0,1984.0,0.0,2.0,
2034.0,2025.0,2037.0,2077.0,0.0,2.0,
2037.0,2020.0,2044.0,2066.0,0.0,2.0,
2035.0,2064.0,2037.0,2046.0,0.0,2.0,
2037.0,2056.0,2024.0,2047.0,0.0,2.0,
2033.0,2044.0,2027.0,2032.0,0.0,2.0,
2036.0,2037.0,2008.0,2048.0,0.0,2.0,
2032.0,2065.0,1989.0,2048.0,0.0,2.0,
2036.0,2062.0,2045.0,2026.0,0,0,
2042.0,2082.0,2083.0,2030.0,0.0,2.0,
2046.0,2067.0,2061.0,2023.0,0.0,2.0,
2039.0,2075.0,2033.0,2003.0,0.0,2.0,
2036.0,2062.0,2026.0,2061.0,0.0,2.0,
2033.0,2084.0,2039.0,2032.0,0.0,2.0,
2035.0,2098.0,2076.0,2018.0,0.0,2.0,
2033.0,2079.0,2039.0,2025.0,0.0,2.0,
2043.0,2071.0,2050.0,2036.0,0.0,2.0,
2040.0,2069.0,2029.0,2024.0,0.0,2.0,
2037.0,2072.0,2037.0,2067.0,0.0,2.0,
2041.0,2090.0,2059.0,2068.0,0.0,2.0,
2033.0,2070.0,2042.0,2040.0,0,0,
2036.0,2067.0,2045.0,1978.0,0.0,2.0,
2032.0,2012.0,2036.0,2068.0,0.0,2.0,
2034.0,2059.0,2037.0,2036.0,0.0,2.0,
2038.0,2056.0,2070.0,2032.0,0.0,2.0,
2040.0,2059.0,2056.0,2023.0,0.0,2.0,
2036.0,2054.0,2002.0,2031.0,0.0,2.0,
2037.0,2106.0,2013.0,2044.0,0.0,2.0,
2030.0,2074.0,2008.0,2024.0,0.0,2.0,
2036.0,2050.0,2036.0,2041.0,0.0,2.0,
2032.0,2040.0,2045.0,2036.0,0.0,2.0,
2032.0,2059.0,2025.0,2067.0,0.0,2.0,
2035.0,2039.0,2021.0,2059.0,0.0,2.0,
2036.0,2075.0,2012.0,2021.0,0.0,2.0,
2036.0,2095.0,2015.0,2017.0,0.0,2.0,
2042.0,2086.0,2001.0,2050.0,0.0,2.0,
2037.0,2068.0,2028.0,1982.0,0.0,2.0,
2032.0,2057.0,2041.0,1990.0,0.0,2.0,
2036.0,2058.0,2044.0,2020.0,0.0,2.0,
2037.0,2104.0,2042.0,2026.0,0.0,2.0,
2040.0,2087.0,2062.0,2048.0,0.0,2.0,
2047.0,2120.0,2069.0,2047.0,0.0,2.0,
2040.0,2023.0,2055.0,2117.0,0.0,2.0,
2033.0,1989.0,1996.0,2023.0,0.0,2.0,
2030.0,2093.0,2017.0,2054.0,0.0,2.0,
2034.0,2028.0,2024.0,2037.0,0.0,2.0,
2032.0,2037.0,2074.0,2005.0,0.0,2.0,
2032.0,2056.0,2078.0,2054.0,0.0,2.0,
2041.0,2096.0,2041.0,2050.0,0.0,2.0,
2043.0,2089.0,2099.0,2057.0,0.0,2.0,
2042.0,2071.0,2074.0,2022.0,0.0,2.0,
2032.0,2058.0,2013.0,2074.0,0.0,2.0,
2031.0,1963.0,2022.0,2070.0,0.0,2.0,
2032.0,2042.0,2047.0,1990.0,0.0,2.0,
2034.0,2102.0,2013.0,2017.0,0.0,2.0,
2035.0,2115.0,2007.0,2004.0,0.0,2.0,
2039.0,2113.0,2021.0,2027.0,0.0,2.0,
2037.0,2054.0,1991.0,2080.0,0.0,2.0,
2040.0,2043.0,2044.0,2053.0,0.0,2.0,
2039.0,2109.0,2048.0,2047.0,0.0,2.0,
2040.0,2095.0,2036.0,2029.0,0.0,2.0,
2034.0,2064.0,2012.0,1980.0,0.0,2.0,
2032.0,2043.0,2036.0,2038.0,0.0,2.0,
2033.0,2048.0,2062.0,2046.0,0.0,2.0,
2039.0,2039.0,2046.0,2003.0,0.0,2.0,
2038.0,2074.0,2036.0,2057.0,0.0,2.0,
2042.0,2083.0,2025.0,2050.0,0.0,2.0,
2030.0,2106.0,2027.0,2032.0,0.0,2.0,
2034.0,2075.0,2036.0,2029.0,0,0,
2032.0,2052.0,2010.0,2021.0,0.0,2.0,
2032.0,2032.0,2038.0,2024.0,0.0,2.0,
2039.0,2039.0,2050.0,2092.0,0.0,2.0,
2040.0,2069.0,2027.0,2070.0,0.0,2.0,
2039.0,2073.0,2019.0,1995.0,0.0,2.0,
2032.0,2056.0,2030.0,2007.0,0.0,2.0,
2033.0,2031.0,2022.0,2076.0,0.0,2.0,
2036.0,2087.0,2039.0,2040.0,0.0,1.0,
2032.0,2031.0,2027.0,2016.0,0,0,
2037.0,2106.0,2031.0,2040.0,0.0,1.0,
2036.0,2063.0,1991.0,2036.0,0.0,1.0,
2039.0,2074.0,2031.0,2028.0,0.0,1.0,
2041.0,2112.0,2061.0,2042.0,0.0,1.0,
2037.0,2115.0,2016.0,2028.0,0.0,1.0,
2033.0,2058.0,2019.0,2033.0,0.0,1.0,
2032.0,2048.0,1998.0,2059.0,0.0,1.0,
2043.0,2032.0,1999.0,2069.0,0.0,1.0,
2038.0,2033.0,2066.0,2009.0,0.0,1.0,
2045.0,2058.0,2140.0,2024.0,0.0,0,
2042.0,2081.0,2081.0,1999.0,0.0,0.0,
2039.0,2069.0,2046.0,2051.0,0.0,0.0,
2032.0,2072.0,1986.0,2094.0,0.0,0.0,
2033.0,2032.0,2016.0,2026.0,0.0,0.0,
2032.0,2046.0,2017.0,2035.0,0.0,0.0,
2035.0,2064.0,2029.0,2049.0,0.0,0.0,
2039.0,2104.0,2029.0,1930.0,0.0,0.0,
2040.0,2113.0,2044.0,2030.0,0.0,0.0,
2038.0,2113.0,2049.0,2085.0,0.0,0.0,
2040.0,2062.0,2005.0,2025.0,0.0,0.0,
2033.0,2014.0,2048.0,2047.0,0.0,0.0,
2035.0,2027.0,2048.0,2070.0,0.0,0.0,
2038.0,2102.0,2044.0,2082.0,0.0,0.0,
2038.0,2112.0,2042.0,2035.0,0.0,0.0,
2041.0,2076.0,2059.0,1988.0,0.0,0.0,
2042.0,2045.0,2059.0,1997.0,0.0,0.0,
2041.0,2025.0,2033.0,2036.0,0.0,0.0,
2035.0,2001.0,2069.0,2048.0,0.0,0.0,
2031.0,2044.0,2032.0,2046.0,0.0,0.0,
2030.0,2064.0,2024.0,2013.0,0.0,0.0,
2029.0,2062.0,2022.0,2041.0,0.0,1.0,
2040.0,2066.0,2031.0,2141.0,0.0,1.0,
2037.0,2084.0,2002.0,2066.0,1.0,1.0,
2038.0,2116.0,1995.0,1995.0,1.0,1.0,
2034.0,2111.0,1967.0,2028.0,1.0,1.0,
2036.0,2061.0,2071.0,2028.0,0.0,1.0,
2036.0,2041.0,2035.0,2003.0,0.0,1.0,
2038.0,2049.0,2057.0,2030.0,1.0,1.0,
2036.0,2030.0,2047.0,2085.0,0.0,1.0,
2035.0,1980.0,2056.0,1992.0,0.0,1.0,
2036.0,2030.0,2042.0,2047.0,0.0,1.0,
2043.0,2092.0,2053.0,2043.0,0.0,1.0,
2036.0,2119.0,2049.0,2028.0,0.0,1.0,
2043.0,2073.0,2050.0,2032.0,1.0,1.0,
2035.0,2066.0,2054.0,2033.0,1.0,1.0,
2030.0,2121.0,1984.0,1920.0,1.0,1.0,
2033.0,2106.0,1982.0,2030.0,0.0,1.0,
2034.0,2058.0,2017.0,2086.0,0.0,1.0,
2035.0,2067.0,2018.0,2070.0,0.0,1.0,
2039.0,2010.0,2053.0,2069.0,0.0,1.0,
2042.0,2048.0,2024.0,2088.0,0.0,1.0,
2034.0,2116.0,2014.0,2006.0,0.0,1.0,
2029.0,2051.0,2050.0,2033.0,0.0,1.0,
2033.0,2048.0,2044.0,2047.0,0.0,1.0,
2036.0,2057.0,2026.0,2029.0,0.0,1.0,
2040.0,2045.0,2056.0,2008.0,0.0,1.0,
2042.0,2116.0,2063.0,2006.0,0.0,0.0,
2035.0,2114.0,2028.0,2032.0,0.0,0.0,
2034.0,2131.0,2018.0,2027.0,0.0,0,
2040.0,2085.0,2042.0,2021.0,0.0,0.0,
2032.0,1974.0,1973.0,2028.0,0.0,0.0,
2035.0,2026.0,2035.0,2047.0,0.0,0.0,
2042.0,2073.0,2006.0,2103.0,0.0,0.0,
2034.0,2085.0,1963.0,2040.0,0.0,0.0,
2038.0,2042.0,2001.0,2014.0,0.0,0.0,
2041.0,2025.0,2033.0,2019.0,0.0,-1.0,
2035.0,2026.0,2099.0,2034.0,0.0,-1.0,
2037.0,2044.0,2081.0,2074.0,0.0,-1.0,
2038.0,2113.0,2044.0,2072.0,0.0,-1.0,
2040.0,2123.0,2075.0,2044.0,0.0,-1.0,
2042.0,1997.0,2105.0,2020.0,0.0,-1.0,
2036.0,2038.0,2060.0,2014.0,0.0,-1.0,
2033.0,2084.0,2037.0,2014.0,0.0,-2.0,
2033.0,2094.0,2050.0,1984.0,0.0,-2.0,
2040.0,2125.0,2027.0,2057.0,0.0,-2.0,
2033.0,2120.0,2016.0,2096.0,0.0,-2.0,
2037.0,2116.0,2043.0,1987.0,0.0,-2.0,
2037.0,2120.0,2020.0,2007.0,0.0,-2.0,
2033.0,2094.0,2011.0,2041.0,0.0,-2.0,
2032.0,1976.0,2015.0,2084.0,0.0,-2.0,
2046.0,2014.0,2027.0,2076.0,0.0,-2.0,
2040.0,2010.0,2021.0,1990.0,0.0,-2.0,
2032.0,2049.0,2037.0,2033.0,0.0,-2.0,
2034.0,2079.0,2062.0,2051.0,0.0,-2.0,
2035.0,2103.0,2060.0,2033.0,0.0,-2.0,
2037.0,2085.0,2061.0,2013.0,0.0,-2.0,
2038.0,2026.0,2059.0,2039.0,0.0,-2.0,
2037.0,2102.0,2061.0,2054.0,0.0,-2.0,
2040.0,2080.0,2041.0,2049.0,0.0,-2.0,
2038.0,2099.0,2021.0,2018.0,0.0,-2.0,
2042.0,2059.0,2047.0,2019.0,0.0,-2.0,
2031.0,2042.0,2018.0,2024.0,0.0,-2.0,
2035.0,2048.0,2037.0,2055.0,0.0,-2.0,
2036.0,2072.0,2036.0,2004.0,0.0,-2.0,
2039.0,2026.0,2026.0,2059.0,0.0,-2.0,
2038.0,2058.0,2005.0,2059.0,0.0,-2.0,
2036.0,2056.0,2009.0,2045.0,0.0,-2.0,
2033.0,2043.0,2026.0,2076.0,0.0,-2.0,
2034.0,2053.0,2058.0,2034.0,0.0,-2.0,
2038.0,2103.0,2080.0,2047.0,0.0,-2.0,
2034.0,2083.0,2011.0,2038.0,0.0,-2.0,
2033.0,2115.0,1994.0,2029.0,0.0,-2.0,
2036.0,2118.0,2057.0,2005.0,0.0,-2.0,
2036.0,2039.0,2056.0,1998.0,0.0,-2.0,
2036.0,1992.0,2017.0,1972.0,0.0,-2.0,
2036.0,2056.0,2017.0,2056.0,0.0,-2.0,
2034.0,2097.0,1999.0,2059.0,0.0,-2.0,
2032.0,2027.0,2044.0,2029.0,0.0,-2.0,
2038.0,2034.0,2019.0,1974.0,0.0,-2.0,
2042.0,2043.0,2076.0,2067.0,0.0,-2.0,
2038.0,2068.0,2043.0,2071.0,0.0,-2.0,
2039.0,2117.0,2041.0,2082.0,0.0,-2.0,
2037.0,2098.0,2032.0,2038.0,0,0,
2034.0,2060.0,2038.0,2040.0,0.0,-2.0,
2040.0,2028.0,2039.0,2037.0,0.0,-2.0,
2037.0,2013.0,2043.0,2043.0,0.0,-2.0,
2038.0,2055.0,2027.0,2032.0,0.0,-2.0,
2044.0,2126.0,2076.0,2014.0,0.0,-2.0,
2042.0,2125.0,2078.0,2050.0,0.0,-2.0,
2037.0,2076.0,1988.0,2036.0,0.0,-2.0,
2031.0,2026.0,2020.0,2058.0,0.0,-2.0,
2034.0,2069.0,2051.0,1970.0,0.0,-2.0,
2035.0,2136.0,2075.0,2013.0,0.0,-2.0,
2035.0,2055.0,2023.0,2011.0,0.0,-2.0,
2037.0,2071.0,2005.0,2097.0,0.0,-2.0,
2044.0,2104.0,2056.0,2072.0,1.0,-2.0,
2040.0,2009.0,2065.0,2013.0,0.0,-2.0,
2039.0,2026.0,2019.0,2022.0,0.0,-3.0,
2034.0,2059.0,2006.0,2017.0,0.0,-3.0,
2032.0,2052.0,2019.0,2059.0,0.0,-3.0,
2036.0,2056.0,2003.0,2040.0,0.0,-3.0,
2039.0,2080.0,2007.0,2025.0,0.0,-3.0,
2039.0,2125.0,2029.0,2012.0,0.0,-3.0,
2042.0,2144.0,2050.0,2082.0,1.0,-3.0,
2037.0,2031.0,2028.0,1974.0,1.0,-3.0,
2033.0,2026.0,2033.0,2038.0,1.0,-3.0,
2033.0,1987.0,2073.0,2092.0,1.0,-4.0,
2037.0,2039.0,2065.0,2050.0,1.0,-4.0,
2034.0,2066.0,2054.0,2025.0,1.0,-4.0,
2038.0,2088.0,2047.0,2034.0,1.0,-4.0,
2034.0,2080.0,2003.0,2046.0,1.0,-4.0,
2035.0,2062.0,2015.0,2052.0,0.0,-4.0,
2040.0,2084.0,2051.0,2030.0,1.0,-4.0,
2032.0,2065.0,1993.0,2037.0,0.0,-5.0,
2029.0,2067.0,2025.0,2052.0,0.0,-5.0,
2032.0,2025.0,2050.0,2084.0,0.0,-5.0,
2033.0,2068.0,2034.0,2058.0,0.0,-5.0,
2037.0,2104.0,2028.0,2008.0,0.0,-5.0,
2041.0,2078.0,2020.0,2016.0,1.0,-5.0,
2034.0,2142.0,2032.0,2014.0,1.0,-5.0,
2038.0,2111.0,2044.0,1998.0,1.0,-5.0,
2029.0,2064.0,2018.0,2024.0,1.0,-5.0,
2036.0,2005.0,2059.0,2072.0,1.0,-5.0,
2035.0,1995.0,2039.0,2045.0,1.0,-5.0,
2037.0,2017.0,2017.0,2027.0,1.0,-5.0,
2041.0,2057.0,2073.0,2041.0,1.0,-5.0,
2034.0,2052.0,2031.0,2012.0,0.0,-5.0,
2040.0,2090.0,2031.0,2027.0,0.0,-5.0,
2032.0,2038.0,2013.0,2045.0,0.0,-5.0,
2035.0,2086.0,2052.0,2061.0,0.0,-5.0,
2042.0,2141.0,2082.0,2032.0,0.0,-5.0,
2037.0,2111.0,2066.0,2034.0,0.0,-5.0,
2040.0,2044.0,2099.0,2049.0,0.0,-5.0,
2028.0,1992.0,2000.0,2040.0,0.0,-5.0,
2037.0,2060.0,2053.0,1986.0,0.0,-5.0,
2031.0,2072.0,2022.0,2005.0,0.0,-5.0,
2037.0,2120.0,1975.0,2009.0,1.0,-5.0,
2034.0,2092.0,1980.0,2019.0,0.0,-5.0,
2040.0,2105.0,2128.0,2084.0,1.0,-5.0,
2035.0,2030.0,2060.0,2085.0,0.0,-5.0,
2042.0,2081.0,2059.0,2122.0,1.0,-5.0,
2037.0,2081.0,2054.0,1952.0,0.0,-5.0,
2038.0,2100.0,2046.0,1963.0,0.0,-5.0,
2043.0,2021.0,2040.0,2022.0,0.0,-5.0,
2035.0,2071.0,1986.0,2076.0,0.0,-5.0,
2035.0,2124.0,2025.0,2050.0,0.0,-5.0,
2029.0,2033.0,1980.0,1973.0,1.0,-5.0,
2030.0,1966.0,1983.0,2039.0,1.0,-5.0,
2035.0,2004.0,2027.0,2089.0,1.0,-5.0,
2039.0,2025.0,2051.0,2062.0,0.0,-5.0,
2041.0,2033.0,2073.0,2027.0,0.0,-6.0,
2035.0,2095.0,2052.0,2030.0,1.0,-6.0,
2031.0,2042.0,2044.0,2042.0,1.0,-6.0,
2031.0,2050.0,2019.0,2046.0,1.0,-6.0,
2038.0,2111.0,2013.0,2052.0,1.0,0,
2039.0,2124.0,2032.0,2079.0,0.0,-6.0,
2038.0,2085.0,2029.0,2068.0,0.0,-6.0,
2039.0,2082.0,2043.0,2046.0,0.0,-6.0,
2038.0,2160.0,2067.0,2021.0,0.0,-6.0,
2036.0,2082.0,2032.0,2013.0,0.0,-6.0,
2034.0,2024.0,1996.0,1975.0,0.0,-6.0,
2034.0,2045.0,2052.0,2016.0,1.0,-6.0,
2041.0,2079.0,2039.0,2013.0,1.0,-6.0,
2037.0,2045.0,2073.0,2028.0,1.0,-6.0,
2034.0,2059.0,2034.0,2046.0,1.0,-6.0,
2036.0,2094.0,2022.0,2080.0,1.0,-6.0,
2038.0,2077.0,2017.0,2070.0,1.0,-6.0,
2035.0,2067.0,1997.0,2027.0,1.0,-6.0,
2038.0,2074.0,2010.0,1945.0,1.0,-6.0,
2039.0,2066.0,2046.0,2039.0,1.0,-6.0,
2037.0,2060.0,2028.0,2038.0,1.0,-6.0,
2040.0,2060.0,2008.0,2021.0,1.0,-6.0,
2041.0,2051.0,2031.0,2034.0,1.0,-6.0,
2039.0,2110.0,2021.0,2038.0,1.0,-6.0,
2038.0,2110.0,2040.0,2044.0,1.0,-6.0,
2034.0,2067.0,2036.0,2075.0,1.0,-7.0,
2029.0,2050.0,2020.0,2060.0,1.0,-7.0,
2032.0,2050.0,2012.0,2092.0,1.0,-7.0,
2041.0,2062.0,2021.0,2053.0,1.0,-7.0,
2037.0,2048.0,2101.0,1901.0,1.0,-7.0,
2039.0,2102.0,2084.0,1999.0,1.0,-7.0,
2039.0,2129.0,2091.0,2035.0,1.0,-7.0,
2031.0,2088.0,2091.0,2046.0,1.0,-8.0,
2033.0,2032.0,2050.0,2056.0,1.0,-8.0,
2039.0,2037.0,2057.0,2064.0,1.0,-8.0,
2037.0,1981.0,2064.0,2065.0,1.0,-8.0,
2032.0,1989.0,1981.0,2025.0,1.0,-9.0,
2036.0,2065.0,2012.0,2060.0,1.0,-9.0,
2034.0,2129.0,2016.0,2013.0,1.0,-9.0,
2035.0,2160.0,2050.0,1985.0,1.0,-9.0,
2032.0,2079.0,2018.0,2054.0,1.0,-10.0,
2035.0,1994.0,2048.0,2095.0,1.0,-10.0,
2037.0,2074.0,2029.0,2067.0,1.0,-10.0,
2030.0,2006.0,2041.0,2002.0,1.0,-10.0,
2037.0,2016.0,2010.0,2055.0,1.0,-10.0,
2035.0,2075.0,2053.0,2053.0,1.0,-10.0,
2034.0,2094.0,2071.0,2060.0,1.0,-10.0,
2034.0,2056.0,2025.0,2015.0,1.0,-10.0,
2034.0,2111.0,2008.0,2042.0,1.0,-10.0,
2030.0,2088.0,2010.0,1978.0,1.0,-10.0,
2036.0,2070.0,1998.0,2011.0,1.0,-11.0,
2033.0,2078.0,2031.0,2028.0,1.0,-11.0,
2030.0,2083.0,1996.0,2050.0,1.0,-11.0,
2038.0,2056.0,2013.0,2069.0,1.0,-11.0,
2043.0,2068.0,2097.0,2058.0,1.0,-11.0,
2036.0,2058.0,2023.0,1997.0,2.0,-10.0,
2039.0,2112.0,2055.0,1963.0,2.0,-10.0,
2036.0,2083.0,2030.0,2030.0,2.0,-10.0,
2031.0,2009.0,1998.0,2100.0,1.0,-10.0,
2032.0,2022.0,1985.0,2059.0,1.0,-10.0,
2035.0,2066.0,2014.0,2074.0,1.0,-10.0,
2038.0,2067.0,2080.0,2065.0,1.0,-10.0,
2037.0,2130.0,2103.0,2023.0,1.0,-10.0,
2035.0,2134.0,2065.0,2057.0,1.0,-10.0,
2044.0,2087.0,2076.0,2026.0,2.0,-10.0,
2033.0,2044.0,2035.0,1926.0,1.0,-10.0,
2037.0,2037.0,2056.0,2058.0,2.0,-10.0,
2039.0,2066.0,2045.0,2037.0,2.0,-10.0,
2035.0,2104.0,2014.0,1997.0,2.0,-10.0,
2035.0,2060.0,2014.0,2011.0,2.0,-10.0,
2036.0,1987.0,2026.0,2089.0,2.0,-10.0,
2034.0,1956.0,2018.0,2029.0,2.0,-10.0,
2031.0,2057.0,1992.0,2085.0,2.0,-10.0,
2035.0,2056.0,2014.0,2048.0,2.0,-10.0,
2035.0,2050.0,2028.0,2039.0,2.0,-10.0,
2031.0,2100.0,1994.0,2033.0,2.0,-10.0,
2045.0,2138.0,2064.0,2047.0,2.0,-10.0,
2040.0,2127.0,2063.0,2031.0,2.0,-11.0,
2034.0,2025.0,2028.0,2039.0,2.0,-11.0,
2027.0,2083.0,2039.0,2043.0,2.0,-11.0,
2039.0,2169.0,2046.0,1975.0,2.0,-11.0,
2034.0,2041.0,2004.0,2060.0,2.0,-11.0,
2038.0,2041.0,1995.0,2063.0,2.0,-12.0,
2037.0,1993.0,2024.0,2074.0,2.0,-12.0,
2040.0,2014.0,2054.0,2090.0,2.0,-12.0,
2042.0,2146.0,2068.0,2027.0,2.0,-13.0,
2042.0,2078.0,2093.0,2007.0,2.0,-13.0,
2028.0,2014.0,1985.0,1979.0,2.0,-13.0,
2033.0,2050.0,2011.0,2011.0,2.0,-13.0,
2033.0,2028.0,1985.0,2039.0,2.0,-13.0,
2041.0,2071.0,2036.0,2073.0,2.0,-13.0,
2039.0,2072.0,2026.0,2051.0,2.0,-13.0,
2042.0,2085.0,2091.0,1993.0,2.0,-13.0,
2033.0,2077.0,2042.0,2020.0,2.0,-14.0,
2032.0,2130.0,2025.0,2059.0,2.0,-14.0,
2034.0,2145.0,1984.0,2017.0,2.0,-14.0,
2029.0,2102.0,2022.0,2048.0,2.0,-13.0,
2040.0,2054.0,2096.0,2068.0,2.0,-13.0,
2035.0,1941.0,2066.0,2064.0,2.0,-13.0,
2039.0,1975.0,2103.0,2026.0,2.0,-13.0,
2036.0,2071.0,2021.0,2014.0,2.0,-13.0,
2034.0,2076.0,2007.0,2021.0,2.0,-13.0,
2035.0,2088.0,2035.0,2033.0,2.0,-13.0,
2035.0,2040.0,2017.0,2046.0,2.0,-13.0,
2035.0,2051.0,2023.0,2036.0,2.0,-13.0,
2036.0,2077.0,2058.0,2043.0,2.0,-13.0,
2042.0,2077.0,2086.0,2058.0,2.0,-13.0,
2039.0,2060.0,2044.0,2047.0,2.0,-13.0,
2037.0,2042.0,2028.0,2041.0,2.0,-13.0,
2040.0,2091.0,2058.0,2022.0,2.0,-13.0,
2031.0,2077.0,2036.0,2062.0,2.0,-13.0,
2036.0,2104.0,2087.0,2037.0,2.0,-13.0,
2035.0,2067.0,2017.0,2010.0,2.0,-13.0,
2035.0,2115.0,1981.0,1992.0,2.0,-13.0,
2037.0,2142.0,2038.0,2018.0,2.0,-13.0,
2039.0,2013.0,2049.0,2067.0,2.0,-14.0,
2037.0,2051.0,2029.0,2065.0,2.0,-14.0,
2032.0,2037.0,1987.0,2048.0,2.0,-14.0,
2029.0,2032.0,1986.0,2093.0,2.0,-14.0,
2040.0,2078.0,1997.0,2019.0,2.0,-15.0,
2038.0,2040.0,2075.0,1986.0,2.0,0,
2045.0,2110.0,2024.0,1984.0,2.0,-15.0,
2036.0,1997.0,1999.0,2027.0,2.0,-15.0,
2035.0,2028.0,2022.0,2066.0,2.0,-15.0,
2037.0,2079.0,2042.0,2059.0,2.0,-15.0,
2042.0,2136.0,2024.0,2052.0,2.0,-15.0,
2035.0,2202.0,2035.0,2045.0,2.0,-16.0,
2037.0,2061.0,2056.0,2013.0,2.0,-16.0,
2036.0,1952.0,2075.0,2031.0,2.0,-16.0,
2038.0,1994.0,2048.0,2064.0,2.0,-16.0,
2036.0,2073.0,2028.0,2001.0,2.0,-16.0,
2040.0,2100.0,2042.0,2063.0,2.0,-16.0,
2037.0,2054.0,2022.0,2027.0,2.0,-16.0,
2033.0,2077.0,2016.0,2041.0,2.0,-16.0,
2028.0,2036.0,1993.0,2055.0,2.0,-16.0,
2031.0,2086.0,2019.0,2070.0,2.0,-16.0,
2032.0,2036.0,2040.0,1961.0,3.0,-16.0,
2037.0,2029.0,2059.0,2019.0,3.0,-16.0,
2035.0,2077.0,2029.0,2021.0,3.0,-16.0,
2035.0,2072.0,2040.0,2031.0,3.0,-16.0,
2032.0,2050.0,2049.0,2061.0,3.0,-16.0,
2034.0,2123.0,2053.0,2045.0,3.0,-16.0,
2035.0,2102.0,2079.0,2019.0,2.0,-16.0,
2035.0,2090.0,2044.0,2030.0,2.0,-16.0,
2038.0,2059.0,2009.0,2031.0,2.0,-16.0,
2041.0,2081.0,2048.0,2080.0,2.0,-16.0,
2040.0,2050.0,2087.0,2078.0,2.0,-16.0,
2034.0,2063.0,1998.0,2063.0,2.0,-16.0,
2032.0,2062.0,2011.0,2018.0,2.0,-16.0,
2032.0,2118.0,2044.0,2020.0,2.0,-16.0,
2031.0,2033.0,2005.0,2008.0,2.0,-16.0,
2030.0,2048.0,2005.0,2012.0,2.0,-16.0,
2034.0,2064.0,2032.0,2020.0,2.0,-16.0,
2036.0,2096.0,2005.0,2016.0,2.0,-16.0,
2036.0,2103.0,2041.0,2058.0,2.0,-16.0,
2036.0,2093.0,2037.0,2033.0,2.0,-16.0,
2041.0,2035.0,2025.0,2014.0,2.0,-17.0,
2034.0,1990.0,2062.0,2027.0,2.0,-17.0,
2036.0,2065.0,2080.0,2065.0,2.0,-17.0,
2040.0,2095.0,2055.0,2068.0,2.0,-17.0,
2033.0,2082.0,1995.0,2083.0,2.0,-17.0,
2035.0,2144.0,2009.0,2027.0,2.0,-17.0,
2034.0,2040.0,1998.0,2028.0,2.0,-17.0,
2029.0,1985.0,2002.0,2015.0,2.0,-17.0,
2034.0,1995.0,2083.0,2003.0,2.0,-17.0,
2036.0,2029.0,2105.0,2035.0,2.0,-17.0,
2035.0,2067.0,2067.0,2048.0,2.0,-17.0,
2032.0,2032.0,2008.0,2052.0,2.0,-18.0,
2042.0,2127.0,2054.0,2066.0,2.0,-18.0,
2041.0,2154.0,2066.0,2078.0,2.0,-18.0,
2037.0,2105.0,2035.0,2017.0,3.0,-18.0,
2030.0,2054.0,2004.0,1958.0,2.0,-18.0,
2034.0,2093.0,2022.0,2034.0,2.0,-18.0,
2028.0,2070.0,1999.0,2020.0,2.0,-18.0,
2036.0,2073.0,2011.0,2033.0,2.0,-18.0,
2041.0,2004.0,2030.0,2066.0,3.0,-18.0,
2040.0,2046.0,2021.0,2040.0,3.0,-18.0,
2041.0,2073.0,2060.0,2065.0,3.0,-18.0,
2032.0,2005.0,2046.0,2027.0,3.0,-18.0,
2034.0,2108.0,2063.0,2072.0,3.0,-18.0,
2031.0,2024.0,2040.0,2003.0,3.0,-19.0,
2034.0,2122.0,2057.0,2043.0,3.0,-19.0,
2033.0,2091.0,2031.0,2021.0,3.0,-19.0,
2034.0,1985.0,2044.0,2008.0,3.0,-19.0,
2040.0,1969.0,2061.0,2053.0,3.0,-19.0,
2036.0,2037.0,2037.0,2046.0,3.0,-19.0,
2038.0,2164.0,2049.0,2029.0,3.0,-19.0,
2031.0,2147.0,2056.0,2033.0,3.0,-19.0,
2032.0,2059.0,2040.0,2033.0,3.0,-19.0,
2038.0,2143.0,2034.0,2018.0,3.0,-19.0,
2040.0,2113.0,2064.0,2032.0,3.0,-19.0,
2041.0,2124.0,2020.0,2056.0,3.0,-19.0,
2041.0,2014.0,1995.0,2098.0,3.0,-19.0,
2031.0,1985.0,1946.0,2102.0,3.0,-19.0,
2037.0,2036.0,2036.0,2032.0,3.0,-19.0,
2040.0,2031.0,2077.0,1924.0,3.0,-19.0,
2033.0,2088.0,2042.0,2013.0,3.0,-19.0,
2040.0,2096.0,2070.0,2044.0,3.0,-19.0,
2040.0,2103.0,2059.0,2048.0,3.0,-19.0,
2040.0,2113.0,2029.0,2012.0,3.0,-19.0,
2041.0,2052.0,2034.0,2028.0,3.0,-19.0,
2037.0,2093.0,1973.0,2040.0,3.0,-19.0,
2030.0,2056.0,1985.0,2041.0,3.0,-19.0,
2029.0,2037.0,2014.0,2040.0,3.0,-20.0,
2040.0,1975.0,2003.0,2026.0,3.0,-20.0,
2036.0,2043.0,2019.0,2048.0,3.0,-20.0,
2038.0,2099.0,2041.0,2041.0,3.0,-20.0,
2031.0,2058.0,1992.0,1998.0,3.0,-20.0,
2032.0,2047.0,2008.0,2116.0,3.0,-20.0,
2030.0,2075.0,2020.0,2104.0,3.0,-21.0,
2040.0,2152.0,2091.0,2027.0,3.0,-21.0,
2028.0,2059.0,2012.0,1982.0,3.0,-21.0,
2035.0,2043.0,2016.0,1972.0,3.0,-21.0,
2036.0,2042.0,2020.0,2071.0,3.0,-21.0,
2035.0,2030.0,2020.0,2032.0,3.0,-21.0,
2044.0,2096.0,2132.0,2046.0,3.0,-21.0,
2030.0,2101.0,2144.0,2046.0,3.0,-22.0,
2032.0,2011.0,2040.0,2040.0,3.0,-22.0,
2029.0,2110.0,2063.0,2015.0,3.0,-22.0,
2038.0,2119.0,2096.0,2034.0,3.0,-22.0,
2036.0,2102.0,2028.0,2016.0,3.0,-22.0,
2038.0,1995.0,2023.0,2053.0,3.0,-22.0,
2039.0,2042.0,2038.0,2022.0,3.0,-22.0,
2046.0,2132.0,2045.0,2047.0,3.0,-22.0,
2039.0,2151.0,2048.0,2036.0,3.0,-22.0,
2023.0,1989.0,1986.0,2063.0,3.0,0,
2020.0,1997.0,2008.0,2046.0,3.0,-22.0,
2026.0,1950.0,2047.0,2071.0,3.0,-22.0,
2037.0,2059.0,2078.0,2015.0,3.0,-22.0,
2063.0,2110.0,2052.0,2065.0,3.0,-21.0,
2078.0,2104.0,2017.0,2030.0,3.0,-21.0,
2068.0,2024.0,2016.0,2022.0,3.0,-21.0,
2036.0,2042.0,2014.0,2005.0,3.0,-21.0,
2004.0,2121.0,2034.0,2044.0,3.0,-21.0,
1989.0,2148.0,2075.0,2032.0,3.0,-21.0,
2004.0,2049.0,2004.0,1982.0,3.0,-21.0,
2031.0,2039.0,2047.0,1997.0,3.0,-21.0,
2065.0,2051.0,2071.0,2053.0,3.0,-21.0,
2066.0,2057.0,1986.0,2079.0,3.0,-21.0,
2051.0,2134.0,2021.0,2091.0,3.0,-21.0,
2028.0,2104.0,2041.0,2052.0,3.0,-21.0,
2017.0,2079.0,2011.0,1982.0,3.0,-22.0,
2018.0,2088.0,2118.0,2022.0,3.0,-22.0,
2032.0,2152.0,2055.0,2040.0,3.0,-22.0,
2053.0,2099.0,2071.0,2017.0,3.0,-22.0,
2063.0,1944.0,2047.0,1986.0,3.0,-22.0,
2061.0,1991.0,2040.0,2021.0,3.0,-22.0,
2038.0,2113.0,1974.0,2090.0,3.0,-22.0,
2018.0,2124.0,2037.0,2102.0,3.0,-23.0,
1997.0,2036.0,2023.0,2023.0,3.0,-23.0,
1998.0,2015.0,2084.0,2044.0,3.0,-23.0,
2028.0,1979.0,2088.0,2052.0,3.0,-23.0,
2060.0,1980.0,1999.0,2038.0,3.0,-23.0,
2078.0,2062.0,2009.0,2013.0,3.0,-23.0,
2072.0,2089.0,2032.0,2004.0,3.0,0,
2044.0,2065.0,2035.0,2025.0,3.0,-24.0,
2018.0,2090.0,2029.0,2057.0,3.0,-24.0,
2013.0,2082.0,2083.0,2053.0,3.0,-24.0,
2022.0,2124.0,2064.0,2046.0,3.0,-24.0,
2040.0,2072.0,2005.0,2078.0,3.0,-24.0,
2061.0,2060.0,2013.0,2002.0,3.0,-24.0,
2067.0,2125.0,1990.0,1974.0,3.0,-24.0,
2054.0,2153.0,2065.0,2015.0,3.0,-24.0,
2032.0,2048.0,2031.0,2052.0,3.0,-24.0,
2010.0,1991.0,2028.0,2105.0,3.0,-24.0,
2005.0,2070.0,2082.0,2069.0,3.0,-24.0,
2019.0,2038.0,2056.0,1976.0,3.0,-24.0,
2049.0,2081.0,2071.0,1955.0,3.0,-24.0,
2074.0,2068.0,2037.0,2074.0,3.0,-24.0,
2083.0,2075.0,2034.0,2044.0,4.0,-24.0,
2065.0,2105.0,1988.0,2038.0,4.0,-24.0,
2030.0,2211.0,2049.0,2031.0,0,0,
1996.0,2052.0,1991.0,2047.0,4.0,-25.0,
1981.0,2060.0,2044.0,2055.0,4.0,-25.0,
1997.0,2079.0,1995.0,2051.0,4.0,-25.0,
2041.0,1936.0,1995.0,2085.0,3.0,-25.0,
2081.0,1970.0,2051.0,2001.0,3.0,-25.0,
2083.0,1991.0,2004.0,2030.0,4.0,-25.0,
2064.0,2062.0,2019.0,2022.0,4.0,-25.0,
2023.0,2144.0,2068.0,2041.0,4.0,-25.0,
2002.0,2108.0,2056.0,2036.0,4.0,-26.0,
2006.0,2070.0,2052.0,2042.0,4.0,-26.0,
2039.0,2098.0,2092.0,2008.0,4.0,-26.0,
2066.0,2027.0,2022.0,2052.0,4.0,-26.0,
2091.0,2106.0,2044.0,2038.0,4.0,-26.0,
2081.0,2059.0,2032.0,2004.0,4.0,-26.0,
2048.0,2028.0,1971.0,2018.0,4.0,-26.0,
2006.0,2046.0,2014.0,2048.0,4.0,-26.0,
1982.0,2092.0,2101.0,2045.0,4.0,-27.0,
1990.0,2076.0,2054.0,1989.0,4.0,-27.0,
2025.0,2040.0,2019.0,2035.0,4.0,-27.0,
2063.0,1999.0,1997.0,2080.0,4.0,-27.0,
2084.0,2000.0,2004.0,2083.0,4.0,-27.0,
2071.0,2115.0,2039.0,2068.0,4.0,-27.0,
2032.0,2046.0,2003.0,2038.0,4.0,-27.0,
2003.0,2078.0,2044.0,2014.0,4.0,-28.0,
1986.0,2087.0,2092.0,2003.0,4.0,-28.0,
1987.0,2040.0,2018.0,2043.0,4.0,-28.0,
2027.0,2102.0,2021.0,2063.0,4.0,-28.0,
2070.0,2075.0,2042.0,2088.0,4.0,-28.0,
2093.0,2042.0,1985.0,1985.0,4.0,-28.0,
2081.0,2063.0,2024.0,1971.0,4.0,-28.0,
2038.0,2096.0,2054.0,2020.0,4.0,-29.0,
2001.0,2068.0,2084.0,2063.0,4.0,-29.0,
1990.0,2078.0,2072.0,2044.0,4.0,-29.0,
2017.0,2114.0,2034.0,2000.0,4.0,-29.0,
2061.0,2061.0,2095.0,2050.0,4.0,-29.0,
2095.0,2046.0,2064.0,2049.0,4.0,-29.0,
2093.0,2101.0,2040.0,2023.0,4.0,-29.0,
2063.0,2059.0,2038.0,2045.0,4.0,-29.0,
2018.0,2054.0,2074.0,2060.0,4.0,-29.0,
1982.0,2055.0,2116.0,2019.0,4.0,-29.0,
1986.0,2044.0,2044.0,1934.0,4.0,-30.0,
2020.0,2079.0,2050.0,2059.0,4.0,-30.0,
2077.0,2115.0,1962.0,2052.0,4.0,-30.0,
2097.0,1990.0,2012.0,2070.0,4.0,-30.0,
2083.0,2030.0,2009.0,2106.0,4.0,-30.0,
2036.0,2092.0,2021.0,2068.0,4.0,-30.0,
1993.0,2196.0,2086.0,2075.0,4.0,-30.0,
1984.0,2095.0,2081.0,2007.0,4.0,-30.0,
2002.0,2121.0,2016.0,1968.0,4.0,-31.0,
2048.0,1902.0,1966.0,2024.0,4.0,-31.0,
2090.0,1923.0,2053.0,2045.0,4.0,-31.0,
2093.0,2000.0,2032.0,2058.0,4.0,-31.0,
2061.0,2016.0,2025.0,2053.0,4.0,-31.0,
2013.0,2065.0,2045.0,2028.0,4.0,-31.0,
1977.0,2080.0,2013.0,2066.0,4.0,-32.0,
1997.0,2060.0,2081.0,2051.0,4.0,-32.0,
2025.0,2026.0,2048.0,2013.0,4.0,-32.0,
2066.0,2100.0,2012.0,1995.0,4.0,-32.0,
2094.0,2147.0,2008.0,1988.0,4.0,-32.0,
2080.0,2133.0,2027.0,2115.0,4.0,-32.0,
2039.0,2050.0,2055.0,2047.0,4.0,-32.0,
1996.0,2113.0,2121.0,2021.0,4.0,-32.0,
1982.0,2007.0,2102.0,2040.0,4.0,-32.0,
2006.0,2047.0,2047.0,2031.0,4.0,-32.0,
2052.0,2076.0,2053.0,2023.0,4.0,-32.0,
2090.0,2086.0,2050.0,2012.0,4.0,-32.0,
2091.0,2114.0,2077.0,2020.0,4.0,-32.0,
2057.0,2019.0,1948.0,2034.0,4.0,-32.0,
2018.0,2087.0,2015.0,2048.0,4.0,-32.0,
1984.0,2092.0,2007.0,2052.0,4.0,-32.0,
1992.0,2160.0,2043.0,2056.0,4.0,-32.0,
2028.0,2052.0,2047.0,2033.0,5.0,-32.0,
2072.0,2015.0,1973.0,2032.0,5.0,-32.0,
2093.0,2025.0,2020.0,2059.0,4.0,-32.0,
2077.0,2055.0,2041.0,1952.0,0,0,
2036.0,2037.0,2023.0,1994.0,5.0,-32.0,
1994.0,2068.0,2045.0,2050.0,4.0,-32.0,
1984.0,2049.0,2045.0,2083.0,5.0,-33.0,
2006.0,2001.0,2060.0,2104.0,5.0,-33.0,
2054.0,2036.0,2032.0,2049.0,4.0,-33.0,
2089.0,2084.0,2005.0,2027.0,4.0,-33.0,
2095.0,2092.0,2034.0,2007.0,5.0,-33.0,
2056.0,2104.0,2079.0,2041.0,4.0,-33.0,
2005.0,2112.0,2041.0,2033.0,5.0,-34.0,
1979.0,1985.0,2027.0,2030.0,5.0,-34.0,
1988.0,2086.0,2071.0,2048.0,5.0,-34.0,
2030.0,2057.0,2047.0,2031.0,5.0,-34.0,
2078.0,2092.0,2033.0,2029.0,5.0,-34.0,
2092.0,2123.0,2014.0,2028.0,5.0,-35.0,
2076.0,2067.0,2010.0,2025.0,5.0,-35.0,
2036.0,2042.0,2047.0,2035.0,5.0,-35.0,
1992.0,2091.0,2027.0,2040.0,5.0,-35.0,
1981.0,2063.0,2064.0,1996.0,5.0,-35.0,
2008.0,1971.0,2092.0,2025.0,5.0,-35.0,
2059.0,2124.0,2075.0,2061.0,5.0,-36.0,
2093.0,2128.0,2001.0,2101.0,5.0,-36.0,
2087.0,2075.0,1985.0,2049.0,5.0,-36.0,
2059.0,2052.0,1936.0,2030.0,5.0,-36.0,
2007.0,2049.0,2001.0,2011.0,5.0,-36.0,
1981.0,2053.0,2007.0,2063.0,5.0,-36.0,
1990.0,2115.0,2050.0,2009.0,5.0,-36.0,
2031.0,2078.0,2015.0,2005.0,5.0,-36.0,
2072.0,2015.0,2010.0,2024.0,5.0,-36.0,
2098.0,1998.0,2009.0,2054.0,5.0,-36.0,
2076.0,2063.0,2059.0,2071.0,5.0,-37.0,
2035.0,2079.0,2021.0,2069.0,5.0,-37.0,
1991.0,1999.0,2044.0,1987.0,5.0,-37.0,
1984.0,2113.0,2095.0,1992.0,5.0,-37.0,
2009.0,2112.0,2102.0,2030.0,5.0,-37.0,
2055.0,2053.0,2007.0,2102.0,5.0,-37.0,
2090.0,1995.0,2018.0,2113.0,5.0,-37.0,
2090.0,2035.0,2060.0,2005.0,5.0,-37.0,
2053.0,2143.0,2027.0,1972.0,5.0,-37.0,
2006.0,2026.0,1998.0,2025.0,5.0,-37.0,
1982.0,2076.0,2029.0,2050.0,5.0,-37.0,
2008.0,2122.0,2032.0,2007.0,5.0,-37.0,
2035.0,2126.0,2052.0,1996.0,5.0,-37.0,
2075.0,2098.0,2032.0,2042.0,5.0,-37.0,
2092.0,2076.0,2042.0,2060.0,5.0,-37.0,
2069.0,2010.0,2045.0,2075.0,5.0,-37.0,
2026.0,2063.0,2083.0,2060.0,5.0,-37.0,
1978.0,2018.0,2030.0,2028.0,5.0,-37.0,
1982.0,2074.0,2033.0,1999.0,5.0,-37.0,
2012.0,2088.0,2031.0,1999.0,5.0,-37.0,
2061.0,2041.0,2054.0,2073.0,5.0,-37.0,
2094.0,2014.0,1992.0,2051.0,5.0,-37.0,
2089.0,2086.0,2005.0,2021.0,5.0,-37.0,
2051.0,2078.0,2025.0,2022.0,5.0,-37.0,
2004.0,2057.0,2012.0,2031.0,5.0,-37.0,
1983.0,2198.0,2076.0,2038.0,5.0,-37.0,
1994.0,2200.0,2086.0,2056.0,5.0,-37.0,
2039.0,2015.0,1996.0,2059.0,5.0,-37.0,
2082.0,1962.0,2056.0,2018.0,5.0,-38.0,
2098.0,1911.0,2002.0,1991.0,5.0,-38.0,
2074.0,2054.0,1994.0,2032.0,5.0,-38.0,
2027.0,2074.0,2056.0,2033.0,5.0,-38.0,
1988.0,2089.0,2037.0,2014.0,5.0,-38.0,
1983.0,1992.0,2147.0,2029.0,5.0,-38.0,
2015.0,2055.0,2063.0,2053.0,5.0,-38.0,
2061.0,2138.0,2080.0,2066.0,5.0,-38.0,
2095.0,2039.0,2024.0,2013.0,5.0,-39.0,
2086.0,2043.0,2034.0,2022.0,5.0,-39.0,
2050.0,2097.0,2015.0,2041.0,5.0,-39.0,
2003.0,2079.0,2023.0,2026.0,6.0,-39.0,
1979.0,2094.0,2019.0,2024.0,6.0,-39.0,
1996.0,2092.0,2020.0,2078.0,6.0,-39.0,
2045.0,2033.0,2009.0,2083.0,6.0,-40.0,
2083.0,2065.0,2044.0,2020.0,6.0,-40.0,
2094.0,2086.0,1986.0,2009.0,5.0,-40.0,
2068.0,2024.0,2020.0,2058.0,5.0,-40.0,
2023.0,2110.0,2010.0,2075.0,6.0,-40.0,
1988.0,2076.0,2060.0,1951.0,6.0,-40.0,
1983.0,2051.0,2078.0,2018.0,5.0,-40.0,
2017.0,2107.0,2046.0,2044.0,6.0,-40.0,
2063.0,2096.0,2018.0,2067.0,6.0,-40.0,
2095.0,2059.0,1993.0,2021.0,6.0,-40.0,
2070.0,2064.0,2023.0,2036.0,6.0,-41.0,
2045.0,1953.0,1997.0,2023.0,6.0,-41.0,
1999.0,1987.0,2027.0,2027.0,6.0,-41.0,
1983.0,2057.0,2033.0,2058.0,6.0,-41.0,
2000.0,2104.0,1952.0,2055.0,6.0,-41.0,
2041.0,2075.0,2071.0,2066.0,6.0,-41.0,
2082.0,2078.0,2109.0,2041.0,6.0,-41.0,
2088.0,2065.0,2075.0,2044.0,6.0,-41.0,
2067.0,2065.0,2040.0,2041.0,6.0,-41.0,
2021.0,2114.0,2043.0,2014.0,6.0,-41.0,
1985.0,2044.0,2054.0,1997.0,6.0,-41.0,
1982.0,2050.0,2007.0,2020.0,6.0,-41.0,
2026.0,2114.0,2058.0,2044.0,6.0,-42.0,
2066.0,2069.0,2016.0,2020.0,6.0,-42.0,
2091.0,2041.0,2057.0,2085.0,6.0,-42.0,
2084.0,2067.0,2058.0,2064.0,6.0,-42.0,
2046.0,2117.0,2061.0,2061.0,6.0,-42.0,
2003.0,2061.0,2048.0,1960.0,6.0,-42.0,
1983.0,2075.0,1977.0,1998.0,6.0,-42.0,
1998.0,2065.0,2018.0,2030.0,6.0,-42.0,
2039.0,2063.0,2026.0,2027.0,0,0,
2087.0,2029.0,2012.0,2027.0,6.0,-42.0,
2095.0,2064.0,2032.0,2053.0,6.0,-42.0,
2067.0,2130.0,2017.0,2049.0,6.0,-42.0,
2019.0,2090.0,2010.0,2057.0,6.0,-42.0,
1986.0,2061.0,2052.0,2028.0,6.0,-42.0,
1981.0,2076.0,2001.0,2031.0,6.0,-42.0,
2020.0,2003.0,1998.0,2045.0,6.0,-42.0,
2070.0,2047.0,2008.0,2020.0,6.0,-42.0,
2092.0,2037.0,2054.0,2011.0,6.0,-42.0,
2090.0,2099.0,2011.0,2057.0,6.0,-42.0,
2046.0,2054.0,2027.0,2056.0,6.0,-42.0,
2001.0,2100.0,2011.0,2080.0,6.0,-42.0,
1980.0,2021.0,2033.0,2017.0,6.0,-42.0,
2006.0,2063.0,2048.0,2005.0,6.0,-42.0,
2045.0,2067.0,2021.0,1957.0,6.0,-42.0,
2083.0,2156.0,2025.0,2035.0,6.0,-42.0,
2096.0,2184.0,2049.0,2069.0,6.0,-43.0,
2063.0,1868.0,1996.0,2042.0,6.0,-43.0,
2020.0,1946.0,2066.0,2054.0,6.0,-43.0,
1983.0,2071.0,2029.0,2037.0,6.0,-43.0,
1988.0,2127.0,2020.0,2036.0,6.0,-43.0,
2021.0,2206.0,2068.0,2046.0,6.0,-43.0,
2072.0,2107.0,2000.0,2112.0,6.0,-43.0,
2096.0,2142.0,2114.0,2038.0,6.0,-44.0,
2085.0,1945.0,2013.0,2018.0,6.0,-44.0,
2043.0,1940.0,1948.0,1984.0,6.0,-44.0,
1998.0,2082.0,2073.0,2040.0,6.0,-44.0,
1979.0,2074.0,1986.0,2046.0,6.0,-44.0,
2001.0,2138.0,2051.0,2050.0,6.0,-44.0,
2042.0,1978.0,2130.0,1992.0,0,0,
2082.0,2103.0,2080.0,2032.0,6.0,-45.0,
2104.0,2112.0,2124.0,2011.0,6.0,-45.0,
2067.0,1985.0,1977.0,2056.0,6.0,-45.0,
2020.0,2024.0,2093.0,2103.0,7.0,-45.0,
1983.0,1979.0,2039.0,2070.0,7.0,-45.0,
1988.0,2107.0,2039.0,2032.0,7.0,-45.0,
2020.0,2098.0,2016.0,2016.0,7.0,-45.0,
2066.0,2121.0,2032.0,2004.0,7.0,-45.0,
2102.0,2045.0,2009.0,2019.0,7.0,-45.0,
2082.0,2065.0,1979.0,2038.0,7.0,-45.0,
2052.0,2125.0,2002.0,2025.0,7.0,-46.0,
2001.0,2078.0,2084.0,2036.0,0,0,
1983.0,2042.0,2086.0,2050.0,7.0,-46.0,
2001.0,2020.0,2016.0,2014.0,7.0,-46.0,
2042.0,2092.0,2053.0,2031.0,7.0,-46.0,
2086.0,2102.0,2032.0,2018.0,7.0,-46.0,
2092.0,2098.0,2053.0,2022.0,7.0,-46.0,
2068.0,2107.0,2018.0,2016.0,7.0,-46.0,
2024.0,2047.0,1973.0,2030.0,7.0,-46.0,
1992.0,2092.0,1972.0,2042.0,7.0,-46.0,
1986.0,2136.0,2042.0,2065.0,7.0,-46.0,
2020.0,2007.0,2027.0,2062.0,7.0,-46.0,
2066.0,1961.0,2006.0,2084.0,7.0,-46.0,
2094.0,2027.0,2019.0,2029.0,7.0,-47.0,
2086.0,2075.0,2003.0,2011.0,7.0,-47.0,
2045.0,2065.0,2048.0,2010.0,7.0,-47.0,
2000.0,2045.0,2095.0,2014.0,7.0,-47.0,
1979.0,2036.0,2060.0,2035.0,7.0,-47.0,
2009.0,2125.0,2079.0,2056.0,7.0,-47.0,
2051.0,2074.0,2122.0,2025.0,7.0,-47.0,
2083.0,2071.0,1985.0,2060.0,7.0,-47.0,
2092.0,2057.0,2038.0,2018.0,7.0,-48.0,
2063.0,2055.0,2019.0,2050.0,7.0,-48.0,
2022.0,2010.0,1849.0,2008.0,7.0,-48.0,
1985.0,2119.0,2063.0,2051.0,7.0,-48.0,
1987.0,2073.0,2058.0,2042.0,7.0,-48.0,
2020.0,2035.0,1953.0,2037.0,7.0,-48.0,
2075.0,2088.0,1917.0,2010.0,7.0,-48.0,
2094.0,2213.0,2099.0,2039.0,7.0,-48.0,
2082.0,1992.0,2132.0,2091.0,7.0,-48.0,
2042.0,1931.0,2152.0,1976.0,7.0,-48.0,
1998.0,2060.0,2077.0,2026.0,7.0,-48.0,
1979.0,2059.0,2091.0,2082.0,7.0,-48.0,
2001.0,2128.0,2133.0,2075.0,7.0,-49.0,
2045.0,2098.0,2007.0,2021.0,7.0,-49.0,
2087.0,2073.0,1990.0,2016.0,7.0,-49.0,
2095.0,2015.0,2023.0,2068.0,7.0,-49.0,
2063.0,2065.0,1998.0,2064.0,7.0,-49.0,
2018.0,2026.0,2033.0,2028.0,7.0,-49.0,
1983.0,2105.0,2061.0,2049.0,8.0,-49.0,
1988.0,2102.0,2068.0,2034.0,8.0,-49.0,
2020.0,2036.0,1986.0,2002.0,8.0,-49.0,
2067.0,2108.0,2078.0,2070.0,0,0,
2090.0,2102.0,2027.0,2049.0,7.0,-49.0,
2086.0,1996.0,1949.0,2023.0,8.0,-50.0,
2048.0,2214.0,2036.0,2008.0,7.0,-50.0,
1999.0,2056.0,2041.0,2003.0,8.0,-50.0,
1982.0,2095.0,1987.0,2045.0,8.0,-50.0,
2002.0,1955.0,2050.0,2080.0,8.0,-50.0,
2044.0,2037.0,2042.0,2103.0,8.0,-50.0,
2084.0,2060.0,2005.0,2001.0,8.0,-50.0,
2092.0,2073.0,2015.0,1975.0,8.0,-50.0,
2065.0,2144.0,2008.0,1945.0,8.0,-50.0,
2018.0,2088.0,2070.0,2007.0,8.0,-51.0,
1988.0,2099.0,2085.0,2048.0,8.0,-51.0,
1985.0,2094.0,2035.0,2060.0,8.0,-51.0,
2023.0,2058.0,2021.0,2090.0,8.0,-51.0,
2065.0,2106.0,2026.0,2062.0,8.0,-51.0,
2096.0,2026.0,2027.0,2072.0,8.0,-51.0,
2085.0,1993.0,2033.0,2060.0,8.0,-51.0,
2044.0,2017.0,2021.0,2019.0,8.0,-51.0,
1998.0,2062.0,2105.0,2012.0,8.0,-51.0,
1981.0,2147.0,2077.0,2037.0,8.0,-52.0,
2004.0,2096.0,2054.0,2035.0,8.0,-52.0,
2044.0,2268.0,2042.0,2040.0,8.0,-52.0,
2085.0,2024.0,1979.0,2036.0,8.0,-52.0,
2095.0,1992.0,2031.0,2060.0,8.0,-52.0,
2064.0,1981.0,2136.0,2001.0,8.0,-52.0,
2022.0,2057.0,1888.0,2048.0,8.0,-52.0,
1983.0,2068.0,2061.0,2023.0,8.0,-52.0,
1987.0,2125.0,2117.0,2058.0,8.0,-52.0,
2019.0,2027.0,2042.0,1996.0,8.0,-53.0,
2069.0,2093.0,2048.0,2032.0,8.0,-53.0,
2094.0,2028.0,2037.0,2065.0,8.0,-53.0,
2082.0,1995.0,2113.0,2067.0,9.0,-53.0,
2042.0,2051.0,2110.0,2023.0,9.0,-53.0,
1999.0,2111.0,2060.0,2044.0,8.0,-53.0,
1982.0,2240.0,2048.0,2054.0,9.0,-53.0,
2001.0,2314.0,2143.0,2042.0,9.0,-53.0,
2044.0,1882.0,1937.0,1989.0,9.0,-53.0,
2085.0,1932.0,2038.0,2065.0,9.0,-53.0,
2097.0,2016.0,1950.0,2025.0,9.0,-53.0,
2066.0,2115.0,1952.0,2061.0,9.0,-53.0,
2019.0,2044.0,1991.0,2027.0,9.0,-53.0,
1983.0,2067.0,2071.0,2014.0,9.0,-53.0,
1992.0,2098.0,2060.0,2024.0,9.0,-53.0,
2022.0,2169.0,1949.0,2054.0,9.0,-53.0,
2069.0,1981.0,2088.0,2057.0,9.0,-53.0,
2091.0,2009.0,2082.0,2024.0,9.0,-53.0,
2082.0,1981.0,2035.0,2031.0,9.0,-53.0,
2044.0,2025.0,2022.0,2033.0,9.0,-53.0,
1999.0,2192.0,2011.0,2013.0,9.0,-53.0,
1978.0,2184.0,1989.0,2036.0,9.0,-53.0,
2005.0,2202.0,2080.0,2050.0,9.0,-53.0,
2050.0,2077.0,1990.0,1973.0,9.0,-53.0,
2090.0,1920.0,2097.0,2027.0,9.0,-53.0,
2092.0,1904.0,2053.0,2048.0,9.0,-53.0,
2062.0,1986.0,1999.0,2042.0,9.0,-53.0,
2019.0,2068.0,2050.0,2065.0,9.0,-53.0,
1986.0,2080.0,2009.0,2086.0,9.0,-53.0,
1988.0,2069.0,2020.0,2104.0,9.0,-54.0,
2022.0,2232.0,2026.0,2061.0,9.0,-54.0,
2069.0,2133.0,2021.0,2028.0,9.0,-54.0,
2100.0,2116.0,1986.0,2013.0,9.0,-54.0,
2084.0,2040.0,2064.0,2037.0,0,0,
2044.0,1964.0,2023.0,2030.0,9.0,-54.0,
1996.0,1987.0,2011.0,2013.0,9.0,-54.0,
1982.0,2021.0,2040.0,2040.0,9.0,-54.0,
2004.0,2052.0,2049.0,2039.0,9.0,-55.0,
2048.0,2059.0,2043.0,2042.0,9.0,-55.0,
2085.0,2144.0,2035.0,2045.0,9.0,-55.0,
2094.0,2044.0,2066.0,2014.0,9.0,-55.0,
2068.0,2120.0,1940.0,1970.0,9.0,-55.0,
2018.0,2127.0,1999.0,2015.0,9.0,-55.0,
1985.0,2054.0,2096.0,2046.0,9.0,-55.0,
1988.0,2065.0,2066.0,2038.0,9.0,-56.0,
2031.0,2154.0,2053.0,2049.0,9.0,-56.0,
2073.0,2198.0,2117.0,2072.0,9.0,-56.0,
2094.0,2121.0,2027.0,2032.0,9.0,-56.0,
2080.0,1871.0,1886.0,2016.0,9.0,-56.0,
2038.0,2009.0,2081.0,2059.0,9.0,-56.0,
1998.0,1951.0,2005.0,2086.0,9.0,-57.0,
1980.0,2062.0,2070.0,2038.0,9.0,-57.0,
2007.0,2127.0,2064.0,1962.0,9.0,-57.0,
2048.0,2079.0,2090.0,2043.0,9.0,-57.0,
2092.0,2249.0,2118.0,2081.0,9.0,-57.0,
2092.0,1883.0,1946.0,2011.0,9.0,-58.0,
2060.0,2124.0,2066.0,2057.0,10.0,-58.0,
2012.0,2159.0,2114.0,2089.0,10.0,-58.0,
1984.0,1983.0,1966.0,2019.0,10.0,-58.0,
1989.0,1888.0,2036.0,2062.0,10.0,-58.0,
2024.0,2040.0,2089.0,2018.0,10.0,-58.0,
2072.0,2017.0,2060.0,2019.0,10.0,-59.0,
2101.0,2092.0,2027.0,2034.0,10.0,-59.0,
2077.0,2141.0,2025.0,2034.0,10.0,-59.0,
2034.0,2214.0,2116.0,2025.0,10.0,-59.0,
1994.0,2146.0,2065.0,2065.0,10.0,-59.0,
1986.0,2134.0,2069.0,2062.0,10.0,-59.0,
2011.0,1968.0,2083.0,2047.0,10.0,-59.0,
2055.0,1997.0,1992.0,2052.0,10.0,-59.0,
2093.0,2198.0,2100.0,1993.0,10.0,-59.0,
2089.0,1734.0,2011.0,1955.0,10.0,-59.0,
2061.0,1956.0,2068.0,2082.0,10.0,-59.0,
2011.0,2115.0,1937.0,2039.0,10.0,-59.0,
1983.0,2228.0,1984.0,2027.0,10.0,-59.0,
1986.0,2233.0,2126.0,2074.0,10.0,-59.0,
2036.0,2030.0,1951.0,1986.0,10.0,-58.0,
2080.0,1877.0,1914.0,2072.0,10.0,-58.0,
2095.0,1997.0,2012.0,2023.0,10.0,-58.0,
2076.0,2092.0,1977.0,2039.0,10.0,-58.0,
2039.0,2074.0,2069.0,2058.0,10.0,-58.0,
1993.0,2225.0,2037.0,2044.0,10.0,-58.0,
1986.0,2290.0,1975.0,1974.0,10.0,-58.0,
2016.0,1982.0,2203.0,2002.0,10.0,-58.0,
2055.0,2027.0,2091.0,2064.0,10.0,-58.0,
2097.0,1969.0,2031.0,2114.0,10.0,-58.0,
2092.0,2059.0,2078.0,2052.0,10.0,-58.0,
2051.0,2104.0,2040.0,2015.0,10.0,-58.0,
2006.0,2161.0,2019.0,2050.0,10.0,-58.0,
1985.0,2170.0,2077.0,2039.0,10.0,-58.0,
1997.0,2019.0,2057.0,2014.0,10.0,-58.0,
2036.0,2064.0,2008.0,2026.0,10.0,-58.0,
2076.0,1960.0,1949.0,2008.0,10.0,-58.0,
2095.0,1952.0,1984.0,2056.0,10.0,-58.0,
2072.0,1975.0,2030.0,1990.0,10.0,-58.0,
2029.0,2071.0,2045.0,2047.0,10.0,-59.0,
1988.0,2098.0,2053.0,2038.0,10.0,-59.0,
1989.0,2100.0,2035.0,2058.0,11.0,-59.0,
2018.0,2101.0,2056.0,2050.0,10.0,-59.0,
2066.0,2125.0,2051.0,2045.0,11.0,-60.0,
2091.0,2069.0,2027.0,2050.0,11.0,-60.0,
2085.0,2040.0,1986.0,2009.0,11.0,-60.0,
2050.0,2172.0,2061.0,2011.0,11.0,-60.0,
2005.0,2053.0,2058.0,2049.0,11.0,-61.0,
1979.0,2034.0,2072.0,2070.0,11.0,-61.0,
1999.0,2104.0,2058.0,2058.0,11.0,-61.0,
2040.0,2147.0,2002.0,2021.0,11.0,-61.0,
2082.0,1879.0,2013.0,2069.0,11.0,-62.0,
2091.0,2050.0,2067.0,2064.0,11.0,-62.0,
2086.0,1997.0,2045.0,1964.0,11.0,-62.0,
2024.0,2039.0,1965.0,2032.0,11.0,-62.0,
1988.0,2093.0,2118.0,2004.0,11.0,-62.0,
1986.0,2074.0,1980.0,2023.0,11.0,-62.0,
2019.0,1884.0,2064.0,2029.0,11.0,-62.0,
2070.0,2034.0,2002.0,2053.0,11.0,-62.0,
2098.0,2430.0,2241.0,2080.0,11.0,-62.0,
2086.0,2053.0,1925.0,1995.0,11.0,-62.0,
2043.0,2025.0,1862.0,2011.0,11.0,-62.0,
2000.0,1947.0,2126.0,2071.0,11.0,-62.0,
1980.0,2019.0,2062.0,2014.0,11.0,-62.0,
2000.0,2062.0,2022.0,2019.0,11.0,-62.0,
2044.0,2109.0,2013.0,2031.0,11.0,-62.0,
2085.0,2130.0,2025.0,2069.0,11.0,-61.0,
2092.0,2090.0,2127.0,2108.0,11.0,-61.0,
2063.0,2105.0,2022.0,2007.0,11.0,-61.0,
2018.0,2075.0,1998.0,1995.0,11.0,-61.0,
1985.0,2060.0,2053.0,2045.0,11.0,-61.0,
1989.0,2144.0,2149.0,2110.0,11.0,-60.0,
2022.0,1920.0,1879.0,2017.0,11.0,-60.0,
2069.0,2052.0,2110.0,2051.0,10.0,-60.0,
2095.0,2133.0,2128.0,1994.0,10.0,-60.0,
2091.0,2020.0,1977.0,1976.0,10.0,-60.0,
2041.0,2059.0,1986.0,2059.0,10.0,-60.0,
1998.0,2181.0,2046.0,2030.0,10.0,-60.0,
1982.0,2110.0,1954.0,2002.0,11.0,-60.0,
2003.0,2104.0,1931.0,2066.0,11.0,-60.0,
2049.0,1953.0,2080.0,2094.0,11.0,-60.0,
2089.0,1869.0,2058.0,2066.0,11.0,-61.0,
2090.0,2032.0,2025.0,2090.0,11.0,-61.0,
2060.0,2071.0,2050.0,2010.0,11.0,-61.0,
2017.0,2118.0,2060.0,1970.0,11.0,-61.0,
1987.0,2111.0,2062.0,2000.0,11.0,-61.0,
1989.0,2106.0,2031.0,2073.0,11.0,-62.0,
2028.0,2087.0,2039.0,2062.0,11.0,-62.0,
2073.0,2090.0,2051.0,2031.0,11.0,-62.0,
2094.0,2182.0,2026.0,2023.0,11.0,-62.0,
2088.0,2285.0,2064.0,2089.0,11.0,-63.0,
2038.0,1896.0,2012.0,2031.0,11.0,-63.0,
1996.0,2056.0,2075.0,2056.0,0,0,
1984.0,2023.0,2067.0,2032.0,11.0,-63.0,
2009.0,2079.0,2127.0,2053.0,11.0,-64.0,
2051.0,2019.0,2025.0,2030.0,11.0,-64.0,
2098.0,2054.0,2010.0,2012.0,11.0,-64.0,
2095.0,2098.0,2079.0,2018.0,11.0,-64.0,
2057.0,2007.0,2022.0,2034.0,11.0,-64.0,
2009.0,2054.0,2028.0,2049.0,11.0,-64.0,
1982.0,2135.0,2023.0,2063.0,11.0,-64.0,
1994.0,2089.0,1905.0,2021.0,11.0,-64.0,
2032.0,2040.0,2195.0,2062.0,11.0,-64.0,
2077.0,2091.0,2123.0,2012.0,11.0,-64.0,
2094.0,1920.0,2019.0,2026.0,11.0,-64.0,
2076.0,1999.0,1961.0,2034.0,11.0,-64.0,
2032.0,2077.0,2044.0,2034.0,11.0,-64.0,
1991.0,2170.0,2044.0,2063.0,11.0,-64.0,
1984.0,1975.0,1946.0,2020.0,11.0,-63.0,
2013.0,2144.0,1949.0,2043.0,11.0,-63.0,
2059.0,2059.0,2037.0,2036.0,11.0,-63.0,
2092.0,1978.0,1992.0,2053.0,11.0,-63.0,
2088.0,2175.0,2109.0,2039.0,11.0,-63.0,
2059.0,2127.0,2081.0,1986.0,11.0,-62.0,
2008.0,2619.0,2206.0,2082.0,11.0,-62.0,
1981.0,1767.0,1723.0,1981.0,11.0,-62.0,
1991.0,1699.0,1999.0,2061.0,11.0,-62.0,
2036.0,1963.0,2153.0,2103.0,11.0,-62.0,
2080.0,2075.0,2070.0,2079.0,11.0,-62.0,
2094.0,2205.0,2060.0,2044.0,11.0,-62.0,
2072.0,2132.0,2029.0,1990.0,11.0,-62.0,
2027.0,1938.0,2032.0,2059.0,11.0,-62.0,
1989.0,2003.0,2046.0,2103.0,11.0,-62.0,
1984.0,2042.0,2083.0,1946.0,11.0,-62.0,
2015.0,2047.0,2090.0,2010.0,11.0,-62.0,
2062.0,2111.0,2020.0,1977.0,11.0,-62.0,
2095.0,2086.0,2048.0,2063.0,11.0,-62.0,
2089.0,2116.0,2028.0,2066.0,11.0,-63.0,
2047.0,2024.0,2010.0,2021.0,11.0,-63.0,
2004.0,2063.0,2045.0,2044.0,11.0,-63.0,
1984.0,2075.0,2006.0,2038.0,11.0,-63.0,
1999.0,2043.0,2021.0,2088.0,11.0,-64.0,
2041.0,2058.0,2048.0,2061.0,11.0,-64.0,
2084.0,2112.0,2010.0,2054.0,11.0,-64.0,
2088.0,2137.0,2010.0,2058.0,11.0,-64.0,
2070.0,2119.0,2090.0,2045.0,11.0,-65.0,
2022.0,2111.0,2041.0,2003.0,11.0,-65.0,
1986.0,2124.0,2045.0,2041.0,11.0,-65.0,
1984.0,2020.0,1962.0,2034.0,11.0,-65.0,
2017.0,1988.0,2048.0,2032.0,11.0,-66.0,
2068.0,1990.0,2025.0,2042.0,11.0,-66.0,
2091.0,2049.0,2119.0,2062.0,11.0,-66.0,
2082.0,1995.0,1986.0,2008.0,11.0,-66.0,
2044.0,2079.0,2083.0,2040.0,11.0,-66.0,
2001.0,2094.0,2068.0,2031.0,11.0,-66.0,
1965.0,2116.0,2015.0,2051.0,11.0,-66.0,
2000.0,2097.0,1988.0,2016.0,11.0,-66.0,
2049.0,2157.0,1971.0,2025.0,11.0,-65.0,
2089.0,2139.0,2226.0,2041.0,11.0,-65.0,
2093.0,1882.0,1880.0,2008.0,11.0,-65.0,
2064.0,1963.0,2047.0,2068.0,11.0,-65.0,
2017.0,2067.0,1988.0,2095.0,11.0,-64.0,
1985.0,2064.0,2118.0,2050.0,11.0,-64.0,
1987.0,2108.0,2076.0,1950.0,11.0,-64.0,
2018.0,1998.0,2117.0,2037.0,11.0,-63.0,
2064.0,2111.0,2073.0,2057.0,11.0,-63.0,
2094.0,2166.0,2050.0,1995.0,11.0,-63.0,
2082.0,1952.0,2074.0,2085.0,11.0,-62.0,
2038.0,2055.0,2011.0,2068.0,11.0,-62.0,
1997.0,2043.0,2067.0,2039.0,11.0,-62.0,
1981.0,2263.0,2064.0,2051.0,11.0,-62.0,
2004.0,2028.0,2028.0,1999.0,11.0,-61.0,
2050.0,2054.0,2035.0,2013.0,11.0,-61.0,
2084.0,2038.0,2044.0,2036.0,11.0,-61.0,
2099.0,2182.0,2022.0,2050.0,11.0,-61.0,
2056.0,2052.0,2071.0,2059.0,11.0,-61.0,
2013.0,2067.0,2043.0,2077.0,11.0,-61.0,
1983.0,2080.0,2002.0,2018.0,11.0,-61.0,
1990.0,2057.0,2079.0,2038.0,11.0,-61.0,
2027.0,2128.0,1971.0,2002.0,11.0,-61.0,
2074.0,2031.0,1967.0,2060.0,11.0,-62.0,
2093.0,2074.0,2032.0,1952.0,11.0,-62.0,
2077.0,2169.0,2108.0,2055.0,11.0,-62.0,
2037.0,1941.0,1997.0,1961.0,11.0,-62.0,
1995.0,2062.0,1992.0,2077.0,11.0,-62.0,
1980.0,2112.0,2069.0,2035.0,11.0,-63.0,
2005.0,1973.0,1927.0,2103.0,11.0,-63.0,
2056.0,2095.0,2072.0,2072.0,11.0,-63.0,
2092.0,2062.0,2012.0,2047.0,11.0,-63.0,
2089.0,2098.0,1993.0,2061.0,11.0,-63.0,
2057.0,2044.0,2033.0,2031.0,11.0,-64.0,
2019.0,2007.0,2105.0,2019.0,11.0,-64.0,
1983.0,2125.0,2038.0,2054.0,11.0,-64.0,
1987.0,2005.0,2034.0,2021.0,11.0,-64.0,
2030.0,2121.0,2038.0,2107.0,11.0,-64.0,
2070.0,1984.0,2062.0,2058.0,11.0,-64.0,
2093.0,2208.0,2008.0,1914.0,11.0,-64.0,
2075.0,2025.0,2013.0,1987.0,11.0,-63.0,
2031.0,2008.0,2003.0,2046.0,11.0,0,
1991.0,2100.0,2088.0,2043.0,11.0,-63.0,
1985.0,2156.0,2052.0,2032.0,11.0,-63.0,
2012.0,2139.0,2029.0,2033.0,11.0,-63.0,
2056.0,2019.0,2022.0,2014.0,0,0,
2092.0,2117.0,1985.0,2061.0,11.0,-63.0,
2091.0,1988.0,2001.0,2047.0,11.0,-63.0,
2056.0,2096.0,2054.0,2020.0,11.0,-63.0,
2009.0,2055.0,1981.0,2030.0,11.0,-62.0,
1980.0,2117.0,2033.0,2047.0,11.0,-62.0,
2005.0,2080.0,2099.0,2047.0,11.0,-62.0,
2039.0,2034.0,2035.0,2021.0,11.0,-62.0,
2078.0,1993.0,1909.0,2036.0,11.0,-62.0,
2095.0,2042.0,2040.0,2050.0,11.0,-62.0,
2074.0,2152.0,2085.0,2029.0,11.0,-62.0,
2029.0,2045.0,2170.0,2083.0,11.0,-62.0,
1993.0,2082.0,2115.0,2055.0,11.0,-62.0,
1982.0,2079.0,2056.0,2028.0,11.0,-62.0,
2013.0,2028.0,2022.0,2026.0,11.0,-62.0,
2063.0,1994.0,1962.0,2054.0,11.0,-62.0,
2094.0,2114.0,2127.0,2055.0,11.0,-62.0,
2088.0,2036.0,2011.0,2013.0,11.0,-62.0,
2049.0,2084.0,2059.0,2058.0,11.0,-62.0,
2008.0,2016.0,1973.0,2027.0,11.0,-62.0,
1981.0,2069.0,2062.0,2048.0,11.0,-62.0,
1996.0,2092.0,2025.0,2034.0,11.0,-62.0,
2038.0,2128.0,2067.0,2023.0,11.0,-63.0,
2086.0,2080.0,2031.0,2014.0,11.0,-63.0,
2100.0,2188.0,2117.0,2067.0,11.0,-63.0,
2070.0,1970.0,1957.0,1967.0,11.0,-63.0,
2024.0,2018.0,1962.0,2025.0,11.0,-63.0,
1983.0,2117.0,2036.0,2039.0,11.0,-63.0,
1984.0,2102.0,2016.0,2040.0,11.0,-63.0,
2021.0,2140.0,2091.0,2053.0,11.0,-63.0,
2080.0,2076.0,1990.0,2002.0,11.0,-63.0,
2091.0,2029.0,2026.0,2016.0,11.0,-63.0,
2087.0,2062.0,2036.0,2050.0,11.0,-63.0,
2046.0,2018.0,2003.0,2077.0,11.0,-63.0,
2000.0,2037.0,2016.0,2122.0,11.0,-63.0,
1983.0,2020.0,2056.0,2120.0,11.0,-63.0,
2002.0,2083.0,2068.0,1939.0,11.0,-63.0,
2044.0,2096.0,2071.0,1937.0,11.0,-63.0,
2088.0,2051.0,1925.0,2043.0,11.0,-63.0,
2091.0,2059.0,2100.0,2067.0,11.0,-63.0,
2073.0,1985.0,2017.0,2040.0,11.0,-63.0,
2020.0,2045.0,2065.0,2050.0,11.0,-63.0,
1985.0,2087.0,2080.0,2031.0,11.0,-63.0,
1981.0,2142.0,2062.0,2020.0,11.0,-63.0,
2021.0,2031.0,2087.0,2086.0,11.0,-63.0,
2067.0,2126.0,2023.0,2069.0,11.0,-63.0,
2093.0,2030.0,1938.0,1999.0,11.0,-63.0,
2081.0,2115.0,2039.0,2008.0,11.0,-63.0,
2043.0,2029.0,2101.0,2039.0,11.0,-63.0,
1999.0,1964.0,2020.0,2020.0,11.0,-63.0,
1984.0,2121.0,2080.0,2064.0,11.0,-63.0,
2001.0,2072.0,1982.0,2091.0,11.0,-63.0,
2045.0,2028.0,2069.0,2018.0,11.0,-63.0,
2092.0,2122.0,2091.0,2003.0,11.0,-63.0,
2093.0,1955.0,2085.0,2012.0,11.0,-63.0,
2061.0,2114.0,1984.0,2065.0,11.0,-63.0,
2014.0,2206.0,2069.0,2096.0,11.0,-63.0,
1987.0,2005.0,1896.0,2001.0,11.0,-63.0,
1989.0,1985.0,2001.0,1998.0,11.0,-63.0,
2025.0,2061.0,1980.0,2022.0,11.0,-63.0,
2069.0,2028.0,2040.0,2033.0,11.0,-63.0,
2093.0,2053.0,2069.0,2098.0,11.0,-63.0,
2084.0,2191.0,2137.0,2060.0,11.0,-63.0,
2040.0,2017.0,1951.0,2006.0,11.0,-63.0,
1997.0,2089.0,2063.0,2002.0,11.0,-63.0,
1981.0,2022.0,1962.0,2027.0,11.0,-63.0,
2007.0,2088.0,2017.0,2070.0,11.0,-63.0,
2049.0,2088.0,2087.0,1979.0,11.0,-63.0,
2091.0,2148.0,2109.0,2048.0,11.0,-63.0,
2091.0,2122.0,1972.0,2019.0,0,0,
2062.0,2033.0,2000.0,2060.0,11.0,-63.0,
2008.0,2212.0,2183.0,2075.0,11.0,-63.0,
1983.0,1934.0,2023.0,2043.0,11.0,-63.0,
1988.0,1913.0,2007.0,2058.0,12.0,-63.0,
2030.0,2022.0,2045.0,2043.0,12.0,-63.0,
2072.0,1985.0,2001.0,2056.0,12.0,-63.0,
2094.0,2092.0,1982.0,2027.0,12.0,-63.0,
2081.0,2145.0,2001.0,1997.0,12.0,-63.0,
2033.0,2095.0,1976.0,2023.0,12.0,-63.0,
1993.0,2103.0,1985.0,2070.0,12.0,-63.0,
1983.0,2108.0,2036.0,2062.0,12.0,-63.0,
2008.0,1970.0,2031.0,2027.0,12.0,-63.0,
2054.0,2094.0,2089.0,2060.0,12.0,-63.0,
2093.0,2057.0,2076.0,2039.0,12.0,-63.0,
2090.0,2090.0,1919.0,2036.0,12.0,-63.0,
2055.0,2017.0,2040.0,2052.0,12.0,-63.0,
2009.0,2014.0,2030.0,1981.0,12.0,-63.0,
1988.0,2116.0,2111.0,2016.0,12.0,-63.0,
1990.0,2038.0,2060.0,2036.0,12.0,-63.0,
2034.0,2087.0,2073.0,2060.0,12.0,-63.0,
2075.0,2100.0,2030.0,2047.0,11.0,-63.0,
2091.0,2054.0,2037.0,2015.0,11.0,-63.0,
2073.0,2138.0,1979.0,2054.0,11.0,-63.0,
2030.0,2109.0,2053.0,2010.0,11.0,-63.0,
1990.0,2099.0,2102.0,2064.0,11.0,-63.0,
1981.0,1990.0,2058.0,2027.0,11.0,-63.0,
2011.0,2015.0,2022.0,2040.0,11.0,-63.0,
2055.0,1986.0,2015.0,2072.0,11.0,-63.0,
2091.0,2026.0,1960.0,2018.0,11.0,-63.0,
2086.0,2119.0,2042.0,2032.0,11.0,-63.0,
2057.0,2052.0,2033.0,2018.0,11.0,-63.0,
2006.0,2032.0,1989.0,2020.0,11.0,-63.0,
1980.0,2115.0,2042.0,2045.0,11.0,-63.0,
1994.0,2089.0,2064.0,2026.0,11.0,-63.0,
2043.0,2078.0,2091.0,2051.0,11.0,-63.0,
2078.0,2008.0,2115.0,2069.0,11.0,-63.0,
2094.0,2034.0,2118.0,2067.0,11.0,-63.0,
2071.0,2097.0,2096.0,2039.0,11.0,-63.0,
2030.0,2011.0,2008.0,1977.0,11.0,-63.0,
1995.0,2033.0,2014.0,2041.0,11.0,-63.0,
1987.0,2052.0,2014.0,2045.0,11.0,-63.0,
2014.0,2129.0,2088.0,2058.0,11.0,-63.0,
2059.0,2031.0,1979.0,2028.0,11.0,-63.0,
2093.0,2071.0,2024.0,1976.0,11.0,-63.0,
2088.0,2167.0,2041.0,2018.0,11.0,-63.0,
2050.0,2063.0,2009.0,2060.0,11.0,-63.0,
2004.0,2024.0,2027.0,2021.0,11.0,-63.0,
1983.0,2077.0,2026.0,2068.0,11.0,-63.0,
1998.0,2111.0,2033.0,2053.0,11.0,-63.0,
2041.0,2017.0,1986.0,2043.0,11.0,-63.0,
2080.0,2134.0,2056.0,2071.0,11.0,-63.0,
2106.0,2027.0,2012.0,2041.0,11.0,-63.0,
2068.0,2047.0,2024.0,2033.0,11.0,-63.0,
2022.0,2168.0,2097.0,2024.0,11.0,-63.0,
1989.0,2002.0,2040.0,2042.0,11.0,-63.0,
1986.0,2102.0,2031.0,1981.0,11.0,-63.0,
2018.0,2035.0,1994.0,2044.0,11.0,-63.0,
2067.0,2037.0,2033.0,2056.0,11.0,-63.0,
2093.0,2092.0,2012.0,2064.0,11.0,-63.0,
2084.0,2004.0,2011.0,2016.0,11.0,-63.0,
2048.0,2111.0,2147.0,2059.0,11.0,-63.0,
2002.0,1917.0,1950.0,2003.0,11.0,-63.0,
1980.0,2078.0,1999.0,2033.0,11.0,-63.0,
2002.0,2049.0,2043.0,2023.0,11.0,-63.0,
2047.0,2172.0,2055.0,2041.0,11.0,-63.0,
2085.0,1954.0,1955.0,2081.0,11.0,-63.0,
2092.0,2038.0,2083.0,2044.0,11.0,-63.0,
2062.0,2115.0,2020.0,2017.0,11.0,-63.0,
2024.0,2181.0,2145.0,2018.0,11.0,-63.0,
1986.0,2097.0,2036.0,2022.0,11.0,-63.0,
1981.0,2076.0,2089.0,2059.0,11.0,-63.0,
2022.0,2010.0,2065.0,2019.0,11.0,-62.0,
2069.0,2047.0,2023.0,2042.0,11.0,-62.0,
2095.0,2025.0,2029.0,2048.0,11.0,-62.0,
2081.0,2064.0,1977.0,2059.0,11.0,-62.0,
2040.0,2192.0,2079.0,2071.0,11.0,-62.0,
1996.0,1962.0,2062.0,1992.0,11.0,-62.0,
1984.0,2023.0,2031.0,2071.0,11.0,-62.0,
2005.0,2036.0,2074.0,2023.0,11.0,-62.0,
2046.0,2043.0,1994.0,2042.0,11.0,-62.0,
2085.0,2076.0,2152.0,1975.0,11.0,-62.0,
2089.0,2057.0,2031.0,2034.0,11.0,-62.0,
2062.0,2073.0,2011.0,2030.0,11.0,-62.0,
2013.0,2177.0,1986.0,2062.0,11.0,-62.0,
1983.0,2116.0,2070.0,2004.0,11.0,-62.0,
1996.0,2063.0,2056.0,1989.0,11.0,-62.0,
2027.0,2048.0,2085.0,2031.0,11.0,-62.0,
2069.0,2057.0,2032.0,2022.0,11.0,-62.0,
2094.0,2061.0,1986.0,2021.0,11.0,-62.0,
2082.0,2091.0,2059.0,2020.0,11.0,-62.0,
2038.0,2036.0,2040.0,2109.0,11.0,-62.0,
1993.0,2020.0,2058.0,2042.0,11.0,-62.0,
1982.0,2141.0,2004.0,2063.0,11.0,-62.0,
2004.0,2172.0,2094.0,2064.0,11.0,-62.0,
2052.0,2059.0,2028.0,2052.0,11.0,-63.0,
2088.0,1927.0,2000.0,2095.0,11.0,-63.0,
2090.0,2045.0,1992.0,2072.0,11.0,-63.0,
2058.0,2032.0,2017.0,2028.0,11.0,-63.0,
2009.0,1960.0,1962.0,1993.0,11.0,-63.0,
1982.0,2066.0,2078.0,2047.0,11.0,-63.0,
1989.0,2038.0,2134.0,2028.0,0,0,
2029.0,2088.0,2021.0,2015.0,11.0,-63.0,
2078.0,2048.0,1991.0,2018.0,11.0,-63.0,
2095.0,2112.0,2040.0,2042.0,11.0,-63.0,
2076.0,2102.0,2071.0,2088.0,11.0,-63.0,
2029.0,2055.0,2028.0,2004.0,11.0,-63.0,
1996.0,2203.0,2203.0,2042.0,11.0,-63.0,
1982.0,1983.0,1987.0,1993.0,11.0,-63.0,
2010.0,1992.0,1999.0,1981.0,11.0,-62.0,
2059.0,2033.0,2021.0,2045.0,11.0,-62.0,
2091.0,2097.0,2102.0,2055.0,11.0,-62.0,
2089.0,2131.0,2104.0,2043.0,11.0,-62.0,
2051.0,2053.0,1985.0,2061.0,11.0,-62.0,
2006.0,2086.0,2069.0,2052.0,11.0,-62.0,
1981.0,2030.0,1968.0,2023.0,11.0,-62.0,
1997.0,2041.0,1996.0,2023.0,11.0,-62.0,
2037.0,2102.0,2138.0,2037.0,11.0,-62.0,
2078.0,2100.0,2036.0,2056.0,11.0,-62.0,
2095.0,1924.0,1980.0,2025.0,11.0,-62.0,
2077.0,2075.0,2014.0,1949.0,11.0,-62.0,
2030.0,2113.0,2027.0,2034.0,11.0,-62.0,
1988.0,2135.0,2066.0,2039.0,11.0,-62.0,
1982.0,2105.0,2031.0,2054.0,11.0,-62.0,
2024.0,1972.0,1980.0,2053.0,11.0,-62.0,
2064.0,2017.0,2023.0,2060.0,11.0,-62.0,
2094.0,2063.0,2017.0,2058.0,11.0,-62.0,
2086.0,2152.0,2048.0,2034.0,11.0,-62.0,
2048.0,2088.0,2054.0,2082.0,11.0,-62.0,
2002.0,2035.0,1995.0,2043.0,11.0,-62.0,
1981.0,2026.0,2020.0,2008.0,11.0,-62.0,
1995.0,2077.0,2071.0,2030.0,11.0,-62.0,
2039.0,2099.0,2041.0,2058.0,11.0,-62.0,
2084.0,2145.0,2069.0,2005.0,11.0,-62.0,
2093.0,1979.0,2115.0,2020.0,11.0,-62.0,
2067.0,2148.0,1965.0,2071.0,12.0,-62.0,
2016.0,1992.0,2015.0,2039.0,12.0,-62.0,
1986.0,1961.0,2120.0,2071.0,12.0,-62.0,
1988.0,2042.0,2043.0,2093.0,12.0,-62.0,
2018.0,2140.0,2098.0,2067.0,12.0,-63.0,
2063.0,2019.0,2004.0,1985.0,12.0,-63.0,
2098.0,2102.0,2011.0,1977.0,12.0,-62.0,
2083.0,2163.0,2148.0,2040.0,12.0,0,
2045.0,2009.0,2071.0,2037.0,12.0,-63.0,
1997.0,1899.0,1993.0,2038.0,12.0,-63.0,
1988.0,2091.0,2002.0,2034.0,12.0,-63.0,
2002.0,2117.0,2084.0,2034.0,12.0,-63.0,
2043.0,2011.0,1973.0,2017.0,12.0,-63.0,
2082.0,2053.0,2101.0,2047.0,12.0,-63.0,
2089.0,2021.0,2056.0,2062.0,12.0,-63.0,
2065.0,2079.0,2038.0,2081.0,12.0,-63.0,
2017.0,2044.0,2062.0,2041.0,12.0,0,
1982.0,2026.0,2030.0,1975.0,11.0,-63.0,
1986.0,2117.0,2021.0,1963.0,12.0,-63.0,
2026.0,2116.0,1999.0,2031.0,12.0,-63.0,
2068.0,2115.0,2041.0,2047.0,12.0,-63.0,
2093.0,2128.0,2084.0,2073.0,12.0,-63.0,
2080.0,2047.0,1948.0,2013.0,12.0,-63.0,
2043.0,2081.0,2035.0,2075.0,12.0,-63.0,
1998.0,2080.0,2033.0,2046.0,12.0,-63.0,
1979.0,1983.0,2126.0,2061.0,0,0,
2001.0,2074.0,2087.0,2025.0,12.0,-63.0,
2048.0,2091.0,2021.0,1983.0,12.0,-63.0,
2090.0,2109.0,2067.0,2039.0,12.0,-63.0,
2091.0,2042.0,1988.0,2074.0,11.0,-63.0,
2061.0,1953.0,2047.0,2069.0,11.0,-63.0,
2010.0,2107.0,2055.0,2033.0,11.0,-63.0,
1984.0,2119.0,2037.0,2037.0,11.0,-63.0,
1992.0,2070.0,2041.0,1994.0,11.0,-63.0,
2026.0,2028.0,2051.0,2042.0,11.0,-63.0,
2069.0,2026.0,2048.0,2068.0,11.0,-63.0,
2095.0,2139.0,1970.0,2016.0,11.0,-63.0,
2075.0,2022.0,1993.0,2037.0,11.0,-63.0,
2035.0,2092.0,1992.0,2036.0,11.0,-63.0,
1990.0,2094.0,1942.0,2033.0,11.0,-63.0,
1985.0,1988.0,2074.0,2031.0,11.0,-63.0,
2007.0,2062.0,2100.0,2034.0,11.0,-63.0,
2051.0,2103.0,2037.0,2058.0,11.0,-63.0,
2088.0,2083.0,2045.0,2060.0,11.0,-63.0,
2089.0,2048.0,2028.0,1956.0,11.0,-63.0,
2056.0,2098.0,2015.0,2033.0,11.0,-63.0,
2009.0,2050.0,2084.0,2037.0,11.0,-63.0,
1982.0,2084.0,2003.0,2026.0,11.0,-63.0,
1991.0,1986.0,2070.0,2058.0,11.0,-63.0,
2031.0,2022.0,2041.0,2049.0,11.0,-63.0,
2073.0,2071.0,1984.0,2040.0,11.0,-63.0,
2092.0,2065.0,2077.0,2001.0,11.0,-63.0,
2075.0,2046.0,2068.0,2029.0,11.0,-63.0,
2033.0,2069.0,2037.0,2032.0,11.0,-63.0,
1989.0,2089.0,2047.0,2056.0,12.0,-63.0,
1980.0,2074.0,2059.0,2054.0,12.0,-63.0,
2009.0,2019.0,2060.0,2069.0,12.0,-63.0,
2061.0,2055.0,2064.0,2043.0,12.0,-63.0,
2092.0,2090.0,2010.0,2003.0,12.0,-63.0,
2091.0,2088.0,1994.0,1978.0,12.0,-63.0,
2051.0,2086.0,2072.0,2048.0,12.0,-63.0,
2008.0,2122.0,2032.0,2048.0,12.0,-63.0,
1982.0,1996.0,1985.0,2029.0,12.0,-63.0,
1991.0,1970.0,1946.0,2039.0,11.0,-63.0,
2034.0,2034.0,2108.0,2046.0,11.0,-63.0,
2088.0,2003.0,2077.0,2063.0,12.0,-64.0,
2096.0,2059.0,2032.0,2068.0,11.0,-64.0,
2073.0,2053.0,2043.0,2029.0,11.0,-64.0,
2024.0,2092.0,2063.0,2031.0,11.0,-64.0,
1987.0,2092.0,2060.0,2039.0,11.0,-64.0,
1987.0,2142.0,2033.0,2044.0,11.0,-64.0,
2014.0,2101.0,2023.0,2024.0,11.0,-64.0,
2061.0,2024.0,2076.0,1993.0,12.0,-64.0,
2093.0,2089.0,1990.0,2045.0,11.0,-64.0,
2094.0,2049.0,2006.0,2090.0,12.0,-64.0,
2051.0,2049.0,2042.0,2050.0,12.0,-64.0,
2005.0,2080.0,2035.0,2034.0,12.0,-64.0,
1979.0,2063.0,2041.0,1980.0,11.0,-64.0,
1995.0,2054.0,2080.0,2056.0,11.0,-64.0,
2040.0,2041.0,2028.0,2034.0,12.0,-64.0,
2082.0,2108.0,2027.0,2031.0,11.0,-64.0,
2091.0,2082.0,2029.0,2030.0,11.0,-64.0,
2070.0,2041.0,1971.0,2026.0,11.0,-64.0,
2023.0,2166.0,2078.0,2053.0,11.0,-64.0,
1987.0,2085.0,1981.0,2022.0,11.0,-64.0,
1985.0,2007.0,2001.0,2019.0,11.0,-64.0,
2019.0,2040.0,2131.0,2046.0,11.0,-64.0,
2068.0,2036.0,2022.0,2042.0,11.0,-64.0,
2090.0,2032.0,2037.0,2025.0,11.0,-64.0,
2086.0,2060.0,2046.0,2035.0,11.0,-64.0,
2044.0,2107.0,2009.0,2035.0,11.0,-64.0,
2009.0,2047.0,2025.0,2041.0,11.0,-64.0,
1984.0,2062.0,2069.0,2069.0,11.0,-64.0,
1999.0,2101.0,2104.0,2081.0,11.0,-64.0,
2039.0,2060.0,2022.0,2052.0,11.0,-64.0,
2083.0,2050.0,2049.0,1939.0,11.0,-64.0,
2095.0,2096.0,2068.0,2013.0,11.0,-64.0,
2063.0,2082.0,2045.0,2034.0,11.0,-64.0,
2019.0,2001.0,1999.0,2033.0,11.0,-63.0,
1985.0,2073.0,2014.0,2060.0,11.0,-63.0,
1984.0,2044.0,2020.0,2047.0,11.0,-63.0,
2019.0,2049.0,2095.0,2059.0,11.0,-63.0,
2065.0,2043.0,2017.0,2040.0,11.0,-63.0,
2095.0,2069.0,2075.0,2056.0,11.0,-63.0,
2085.0,2069.0,2010.0,2044.0,11.0,-62.0,
2040.0,2118.0,2039.0,2061.0,11.0,-62.0,
1998.0,2048.0,2071.0,2058.0,11.0,-62.0,
1981.0,2031.0,2024.0,2024.0,11.0,-62.0,
2013.0,2093.0,2049.0,1982.0,11.0,-61.0,
2049.0,2071.0,2005.0,2033.0,11.0,-61.0,
2086.0,2103.0,2023.0,2041.0,11.0,-61.0,
2090.0,2060.0,1976.0,2040.0,11.0,-60.0,
2058.0,1991.0,2047.0,2021.0,11.0,-60.0,
2015.0,2012.0,1994.0,2043.0,11.0,-60.0,
1982.0,2077.0,2059.0,2075.0,11.0,-59.0,
1989.0,2087.0,2083.0,2049.0,11.0,-59.0,
2025.0,2103.0,2052.0,2027.0,11.0,-59.0,
2071.0,2065.0,2038.0,2053.0,0,0,
2098.0,2036.0,2057.0,1982.0,11.0,-58.0,
2077.0,2160.0,2032.0,2062.0,11.0,-58.0,
2034.0,2054.0,1985.0,2000.0,11.0,-58.0,
1997.0,2078.0,2054.0,2034.0,11.0,-58.0,
1983.0,2032.0,2095.0,2084.0,11.0,-58.0,
2007.0,1976.0,2068.0,2077.0,11.0,-57.0,
2049.0,2034.0,2053.0,2046.0,11.0,-57.0,
2097.0,2093.0,2043.0,2019.0,11.0,-57.0,
2093.0,2051.0,1972.0,1994.0,11.0,-57.0,
2059.0,2070.0,2045.0,2060.0,11.0,-57.0,
2012.0,2068.0,2044.0,2044.0,11.0,-57.0,
1983.0,2114.0,2008.0,2094.0,11.0,-57.0,
1989.0,2023.0,2044.0,2075.0,11.0,-57.0,
2029.0,2054.0,2014.0,1945.0,11.0,-57.0,
2073.0,2049.0,2005.0,2030.0,11.0,-57.0,
2093.0,2046.0,2010.0,1886.0,11.0,-57.0,
2079.0,2101.0,2012.0,2019.0,11.0,-57.0,
2036.0,2078.0,2036.0,2096.0,10.0,-57.0,
1992.0,2020.0,2065.0,2105.0,10.0,-57.0,
1982.0,2039.0,2048.0,2072.0,11.0,-57.0,
2014.0,2081.0,2021.0,2062.0,10.0,-57.0,
2054.0,2126.0,2067.0,2045.0,10.0,-57.0,
2093.0,2077.0,2060.0,1971.0,10.0,-57.0,
2088.0,2068.0,2056.0,2022.0,10.0,-57.0,
2054.0,2087.0,1989.0,2029.0,10.0,-57.0,
2010.0,2057.0,2059.0,2034.0,10.0,-57.0,
1981.0,2098.0,2054.0,2050.0,10.0,-57.0,
1992.0,2036.0,2048.0,2034.0,10.0,-57.0,
2031.0,2070.0,2064.0,2055.0,10.0,-57.0,
2078.0,2023.0,2047.0,2026.0,0,0,
2092.0,2070.0,2046.0,2031.0,10.0,-57.0,
2076.0,2026.0,2092.0,2038.0,10.0,-57.0,
2032.0,2026.0,2070.0,2037.0,10.0,-57.0,
1990.0,1978.0,2018.0,2032.0,10.0,-57.0,
1987.0,2092.0,2017.0,2041.0,10.0,-57.0,
2014.0,2107.0,2021.0,2033.0,10.0,-57.0,
2055.0,2093.0,2042.0,2041.0,10.0,-57.0,
2103.0,2083.0,2043.0,2045.0,10.0,-56.0,
2090.0,2020.0,2010.0,2045.0,10.0,-56.0,
2052.0,2061.0,2020.0,2033.0,10.0,-56.0,
2010.0,2093.0,2024.0,2023.0,10.0,-56.0,
1981.0,2094.0,2029.0,2040.0,10.0,-55.0,
1997.0,2043.0,2038.0,2049.0,10.0,-55.0,
2038.0,2037.0,2028.0,2045.0,10.0,-55.0,
2079.0,2041.0,2043.0,2039.0,10.0,-54.0,
2095.0,2055.0,2019.0,2029.0,10.0,-54.0,
2073.0,2069.0,1992.0,2035.0,10.0,-54.0,
2028.0,2133.0,2059.0,2053.0,10.0,-53.0,
1989.0,2086.0,2008.0,2028.0,10.0,-53.0,
1982.0,2022.0,2046.0,2010.0,10.0,-52.0,
2018.0,2066.0,2082.0,2032.0,10.0,-52.0,
2063.0,2035.0,2012.0,2014.0,10.0,-52.0,
2094.0,2091.0,1998.0,2056.0,10.0,-51.0,
2088.0,2084.0,2006.0,2057.0,10.0,-51.0,
2051.0,2046.0,2024.0,2056.0,10.0,-51.0,
2009.0,2069.0,2049.0,2000.0,10.0,-51.0,
1981.0,2088.0,2076.0,1996.0,10.0,-51.0,
1999.0,2097.0,2072.0,2030.0,10.0,-50.0,
2037.0,1988.0,2044.0,2079.0,10.0,-51.0,
2081.0,2107.0,2031.0,2085.0,10.0,-51.0,
2098.0,2074.0,2024.0,2010.0,10.0,-51.0,
2072.0,2055.0,2040.0,2036.0,10.0,-51.0,
2026.0,2071.0,2055.0,2067.0,10.0,-51.0,
1989.0,2011.0,2033.0,2043.0,9.0,-51.0,
1986.0,2070.0,2032.0,2079.0,10.0,-51.0,
2016.0,2032.0,2040.0,2021.0,9.0,-52.0,
2061.0,2102.0,2042.0,1922.0,9.0,-52.0,
2091.0,2080.0,2024.0,2033.0,9.0,-52.0,
2090.0,2091.0,2037.0,2030.0,0,0,
2052.0,2090.0,2029.0,2047.0,9.0,-53.0,
2004.0,2060.0,2008.0,2032.0,9.0,-53.0,
1979.0,2009.0,2018.0,2048.0,9.0,-53.0,
1994.0,2067.0,2014.0,2066.0,9.0,-53.0,
2042.0,2125.0,2024.0,2051.0,9.0,-54.0,
2082.0,2047.0,2008.0,2045.0,9.0,-54.0,
2093.0,2064.0,2155.0,2053.0,9.0,-54.0,
2070.0,2058.0,2014.0,2026.0,9.0,-54.0,
2032.0,2045.0,2073.0,2040.0,9.0,-54.0,
1990.0,2084.0,2115.0,2050.0,9.0,-54.0,
1986.0,2035.0,2024.0,2029.0,9.0,-54.0,
2015.0,2053.0,2048.0,2017.0,9.0,-53.0,
2058.0,2060.0,2052.0,2030.0,9.0,-53.0,
2096.0,2082.0,2048.0,2037.0,9.0,-53.0,
2089.0,2048.0,2076.0,2074.0,9.0,-52.0,
2051.0,2074.0,2042.0,2050.0,9.0,-52.0,
2005.0,2080.0,2007.0,2023.0,8.0,-51.0,
1981.0,2075.0,2003.0,2007.0,9.0,-50.0,
1999.0,2078.0,1999.0,2045.0,8.0,-49.0,
2037.0,2099.0,2003.0,2050.0,0,0,
2080.0,2062.0,2077.0,2024.0,8.0,-48.0,
2095.0,2095.0,2066.0,2012.0,8.0,-47.0,
2073.0,2093.0,2063.0,2025.0,8.0,-47.0,
2029.0,2079.0,2057.0,2043.0,8.0,-46.0,
1988.0,2033.0,2073.0,2045.0,8.0,-45.0,
1982.0,2053.0,2059.0,2048.0,8.0,-44.0,
2014.0,2089.0,2053.0,2042.0,8.0,-44.0,
2063.0,2080.0,2064.0,2031.0,8.0,-43.0,
2095.0,2066.0,2067.0,2029.0,8.0,-42.0,
2090.0,2001.0,2053.0,2028.0,8.0,-42.0,
2049.0,2103.0,1976.0,2054.0,8.0,-41.0,
2008.0,2035.0,2015.0,2072.0,8.0,-41.0,
1982.0,2077.0,2000.0,2005.0,8.0,-41.0,
1996.0,2112.0,2040.0,1974.0,8.0,-41.0,
2036.0,2046.0,2075.0,2040.0,0,0,
2085.0,2018.0,2024.0,2106.0,8.0,-41.0,
2095.0,2102.0,2017.0,2011.0,8.0,-41.0,
2073.0,2066.0,2005.0,2043.0,8.0,-42.0,
2031.0,2098.0,2045.0,2029.0,8.0,-42.0,
1987.0,2080.0,2037.0,2032.0,8.0,-42.0,
1985.0,2020.0,2037.0,2038.0,7.0,-43.0,
2018.0,2045.0,2037.0,2066.0,8.0,-43.0,
2061.0,2097.0,2017.0,2057.0,8.0,-44.0,
2095.0,2020.0,1981.0,2040.0,8.0,-44.0,
2090.0,2055.0,2032.0,2020.0,8.0,-44.0,
2052.0,2034.0,2048.0,2020.0,7.0,-45.0,
2002.0,2039.0,2040.0,2030.0,7.0,-45.0,
1980.0,2114.0,2057.0,2036.0,7.0,-46.0,
1996.0,2103.0,2032.0,2023.0,7.0,-46.0,
2043.0,2007.0,2004.0,2064.0,7.0,-46.0,
2082.0,2075.0,2009.0,1999.0,7.0,-47.0,
2092.0,2066.0,2034.0,1998.0,7.0,-47.0,
2066.0,2109.0,2018.0,2035.0,7.0,-47.0,
2026.0,2042.0,2024.0,2063.0,7.0,-47.0,
1989.0,2066.0,2060.0,2064.0,7.0,-47.0,
1984.0,2089.0,2040.0,1979.0,7.0,-47.0,
2014.0,2061.0,2045.0,2059.0,7.0,-47.0,
2070.0,2058.0,2039.0,2016.0,7.0,-47.0,
2095.0,2066.0,2040.0,2036.0,7.0,-46.0,
2086.0,2064.0,2076.0,2039.0,7.0,-46.0,
2047.0,2062.0,2053.0,2047.0,7.0,-45.0,
2003.0,2070.0,2047.0,2032.0,7.0,-44.0,
1984.0,2074.0,2029.0,2032.0,7.0,-44.0,
1997.0,2075.0,2061.0,2049.0,6.0,-43.0,
2041.0,2092.0,2076.0,2043.0,6.0,-42.0,
2083.0,2070.0,2032.0,2064.0,6.0,-41.0,
2098.0,2042.0,2037.0,2065.0,6.0,-40.0,
2069.0,2080.0,2033.0,2046.0,6.0,-39.0,
2027.0,2076.0,2016.0,1989.0,6.0,-38.0,
1988.0,2095.0,2048.0,2029.0,6.0,-37.0,
1984.0,2035.0,2049.0,2013.0,6.0,-36.0,
2021.0,2049.0,2022.0,2024.0,6.0,-35.0,
2063.0,2070.0,2006.0,2020.0,6.0,-34.0,
2093.0,2037.0,2003.0,2048.0,6.0,-33.0,
2084.0,2076.0,1987.0,2063.0,6.0,-33.0,
2049.0,2086.0,2115.0,2063.0,6.0,-32.0,
2004.0,2086.0,2098.0,2078.0,6.0,-31.0,
1980.0,2020.0,2077.0,2011.0,6.0,-31.0,
2000.0,2059.0,2076.0,2040.0,6.0,-31.0,
2047.0,1988.0,2032.0,2035.0,6.0,-31.0,
2084.0,1977.0,1990.0,2039.0,6.0,-30.0,
2090.0,2078.0,2003.0,2015.0,6.0,-31.0,
2064.0,2113.0,1995.0,1989.0,6.0,-31.0,
2020.0,2088.0,2050.0,2023.0,6.0,-31.0,
1988.0,2047.0,2038.0,2064.0,6.0,-31.0,
1985.0,2099.0,2061.0,2051.0,6.0,-31.0,
2019.0,2078.0,2045.0,2035.0,6.0,-32.0,
2067.0,2042.0,1994.0,2032.0,6.0,-32.0,
2094.0,2076.0,2026.0,2073.0,6.0,-33.0,
2083.0,2064.0,2021.0,2081.0,5.0,-33.0,
2045.0,2060.0,2001.0,1960.0,5.0,-33.0,
1999.0,2036.0,2028.0,1982.0,5.0,-34.0,
1986.0,2083.0,2038.0,2038.0,5.0,-34.0,
2002.0,2090.0,2018.0,2041.0,5.0,-35.0,
2044.0,2097.0,2053.0,2048.0,5.0,-35.0,
2085.0,2100.0,2075.0,2046.0,5.0,-36.0,
2091.0,2062.0,2100.0,2053.0,5.0,-36.0,
2063.0,1984.0,2004.0,2016.0,5.0,-36.0,
2018.0,2038.0,2059.0,2058.0,5.0,-37.0,
1981.0,2088.0,2053.0,2045.0,5.0,-37.0,
1986.0,2098.0,2039.0,2032.0,5.0,-37.0,
2022.0,2059.0,2056.0,2008.0,5.0,-37.0,
2069.0,2064.0,2026.0,2054.0,5.0,-37.0,
2093.0,2066.0,2053.0,2070.0,5.0,-37.0,
2079.0,2039.0,2084.0,2047.0,5.0,-37.0,
2045.0,2064.0,2056.0,2034.0,5.0,-37.0,
2000.0,2076.0,2067.0,2036.0,5.0,-37.0,
1981.0,2071.0,2021.0,2014.0,5.0,-36.0,
2002.0,2080.0,2027.0,2023.0,5.0,-36.0,
2046.0,1998.0,2060.0,2073.0,5.0,-36.0,
2088.0,2036.0,2023.0,2019.0,5.0,-35.0,
2092.0,2041.0,2044.0,2027.0,0,0,
2064.0,2080.0,2039.0,2030.0,5.0,-35.0,
2011.0,2081.0,2055.0,2045.0,5.0,-34.0,
1984.0,2084.0,2043.0,2062.0,5.0,-34.0,
1988.0,2082.0,2040.0,2003.0,5.0,-33.0,
2024.0,2084.0,1967.0,2003.0,5.0,-33.0,
2064.0,2119.0,2031.0,2049.0,5.0,-32.0,
2095.0,2094.0,2027.0,2035.0,5.0,-32.0,
2081.0,2082.0,2012.0,2024.0,5.0,-31.0,
2034.0,2025.0,1991.0,2036.0,4.0,-31.0,
1996.0,2045.0,2023.0,2088.0,5.0,-30.0,
1982.0,2044.0,2066.0,2022.0,5.0,-30.0,
2007.0,2100.0,2062.0,2022.0,5.0,-29.0,
2053.0,2095.0,2033.0,2008.0,5.0,-29.0,
2089.0,2065.0,2051.0,2066.0,5.0,-29.0,
2092.0,2061.0,2000.0,2066.0,5.0,-28.0,
2062.0,2103.0,1978.0,2028.0,5.0,-28.0,
2016.0,2097.0,2015.0,2026.0,5.0,-28.0,
1984.0,2051.0,1999.0,2044.0,5.0,-27.0,
1988.0,2080.0,2013.0,2030.0,5.0,-27.0,
2021.0,2048.0,2026.0,2007.0,5.0,-27.0,
2068.0,2039.0,2084.0,2052.0,5.0,-27.0,
2098.0,2030.0,2042.0,2046.0,5.0,-27.0,
2088.0,2024.0,2052.0,2021.0,5.0,-27.0,
2049.0,2060.0,2031.0,2041.0,5.0,-26.0,
2006.0,2052.0,2054.0,2072.0,5.0,-26.0,
1984.0,2033.0,2053.0,2045.0,5.0,-26.0,
1993.0,2052.0,2055.0,2029.0,5.0,-26.0,
2039.0,2098.0,2054.0,2019.0,5.0,-26.0,
2079.0,2066.0,2051.0,2023.0,5.0,-26.0,
2096.0,2050.0,2022.0,2043.0,4.0,-26.0,
2076.0,2079.0,2052.0,2074.0,4.0,-26.0,
2035.0,2087.0,2047.0,2035.0,4.0,-26.0,
1993.0,2075.0,2046.0,2027.0,4.0,-25.0,
1987.0,2048.0,2050.0,2035.0,4.0,-25.0,
2005.0,2027.0,2089.0,1980.0,4.0,-25.0,
2050.0,2089.0,2046.0,2061.0,4.0,-25.0,
2084.0,2102.0,1996.0,2061.0,4.0,-25.0,
2095.0,2052.0,2054.0,2033.0,4.0,-25.0,
2064.0,2060.0,2090.0,2011.0,4.0,-24.0,
2019.0,2112.0,2064.0,2012.0,4.0,-24.0,
1985.0,2083.0,2035.0,2079.0,4.0,-24.0,
1985.0,2048.0,1977.0,2084.0,4.0,-24.0,
2017.0,2066.0,1993.0,1987.0,4.0,-24.0,
2058.0,2082.0,2024.0,2031.0,4.0,-23.0,
2087.0,2043.0,2028.0,2025.0,4.0,-23.0,
2088.0,2077.0,2051.0,2014.0,4.0,-23.0,
2055.0,2068.0,1994.0,2025.0,4.0,-23.0,
2008.0,2075.0,2007.0,2030.0,4.0,-22.0,
1979.0,2035.0,2071.0,2066.0,4.0,-22.0,
1994.0,2084.0,2043.0,2024.0,4.0,-22.0,
2024.0,2076.0,2039.0,1990.0,4.0,-22.0,
2072.0,2108.0,2084.0,2040.0,4.0,-21.0,
2094.0,2061.0,2053.0,2062.0,4.0,-21.0,
2079.0,2016.0,2002.0,2077.0,4.0,-21.0,
2039.0,2025.0,1993.0,2075.0,4.0,-20.0,
1996.0,2064.0,2051.0,2042.0,4.0,-20.0,
1980.0,2074.0,2079.0,1978.0,4.0,-20.0,
1999.0,2037.0,2053.0,2041.0,4.0,-20.0,
2044.0,2073.0,2003.0,2041.0,4.0,-19.0,
2086.0,2064.0,2034.0,2035.0,4.0,-19.0,
2094.0,2058.0,2061.0,2065.0,4.0,-19.0,
2073.0,2069.0,2063.0,2034.0,4.0,-19.0,
2025.0,2082.0,2064.0,2056.0,4.0,-18.0,
1986.0,2083.0,2039.0,2033.0,4.0,-18.0,
1989.0,2092.0,2034.0,1997.0,4.0,-18.0,
2014.0,2084.0,2025.0,2001.0,4.0,-18.0,
2056.0,2089.0,2008.0,2025.0,4.0,-18.0,
2091.0,2067.0,2028.0,2003.0,3.0,-17.0,
2092.0,1986.0,2054.0,2019.0,3.0,-17.0,
2060.0,2027.0,2023.0,2063.0,3.0,-17.0,
2020.0,2068.0,1991.0,2064.0,3.0,-17.0,
1986.0,2125.0,1973.0,2062.0,3.0,-17.0,
1987.0,2043.0,1987.0,2061.0,3.0,-16.0,
2025.0,2039.0,2031.0,2122.0,3.0,-16.0,
2067.0,2067.0,2082.0,2067.0,4.0,-16.0,
2090.0,2061.0,2072.0,1982.0,4.0,-16.0,
2093.0,2059.0,2035.0,1996.0,4.0,-16.0,
2050.0,2106.0,2021.0,1995.0,4.0,-15.0,
2003.0,2138.0,2051.0,1981.0,3.0,-15.0,
1983.0,2086.0,2040.0,1942.0,3.0,-15.0,
1997.0,1999.0,1996.0,2067.0,3.0,-15.0,
2035.0,2015.0,2000.0,2091.0,3.0,-15.0,
2077.0,2053.0,1998.0,2103.0,3.0,-15.0,
2097.0,2088.0,2027.0,2061.0,3.0,-14.0,
2074.0,2077.0,2087.0,2087.0,3.0,-14.0,
2031.0,2033.0,2053.0,2047.0,3.0,-14.0,
1990.0,2111.0,2024.0,2025.0,3.0,-14.0,
1983.0,2084.0,2042.0,1977.0,3.0,-14.0,
2002.0,2077.0,2026.0,2008.0,3.0,-14.0,
2052.0,2054.0,2054.0,2086.0,3.0,-13.0,
2088.0,2046.0,2028.0,2061.0,3.0,-13.0,
2093.0,2052.0,2017.0,2015.0,3.0,-13.0,
2061.0,2085.0,2032.0,2020.0,3.0,-13.0,
2018.0,2064.0,2046.0,2026.0,3.0,-13.0,
1984.0,2066.0,2020.0,2051.0,3.0,-13.0,
1989.0,2080.0,2039.0,2034.0,3.0,-13.0,
2017.0,2099.0,2018.0,2036.0,3.0,-12.0,
2066.0,2088.0,2009.0,2032.0,3.0,-12.0,
2096.0,2078.0,2076.0,2031.0,3.0,-12.0,
2084.0,2057.0,2084.0,2017.0,3.0,-12.0,
2049.0,2060.0,2063.0,2013.0,3.0,-12.0,
2006.0,2018.0,2033.0,2082.0,3.0,-12.0,
1979.0,2038.0,2070.0,2045.0,3.0,-11.0,
1995.0,2068.0,2048.0,1993.0,3.0,-11.0,
2032.0,2068.0,2061.0,2052.0,3.0,-11.0,
2073.0,2060.0,2018.0,2056.0,3.0,-11.0,
2093.0,2099.0,2013.0,2025.0,3.0,-11.0,
2080.0,2081.0,2040.0,2029.0,3.0,-11.0,
2038.0,2063.0,2041.0,2014.0,3.0,-11.0,
1994.0,2045.0,2038.0,2057.0,3.0,-11.0,
1981.0,2039.0,2006.0,2073.0,3.0,-10.0,
2001.0,2049.0,2018.0,2099.0,3.0,-10.0,
2045.0,2096.0,2035.0,2009.0,3.0,-10.0,
2088.0,2108.0,1986.0,2006.0,3.0,-10.0,
2092.0,2110.0,1966.0,1947.0,3.0,-10.0,
2069.0,2083.0,1985.0,2020.0,3.0,-10.0,
2023.0,2021.0,2040.0,2050.0,3.0,-10.0,
1971.0,1930.0,2091.0,2089.0,3.0,-9.0,
1978.0,2058.0,2100.0,2064.0,3.0,-9.0,
2020.0,2095.0,2063.0,1995.0,3.0,-9.0,
2058.0,2035.0,2001.0,2103.0,3.0,-9.0,
2093.0,2094.0,2036.0,2043.0,3.0,-9.0,
2089.0,2074.0,2044.0,1989.0,3.0,-9.0,
2052.0,2071.0,2002.0,1993.0,3.0,-9.0,
2009.0,2099.0,1996.0,2080.0,3.0,-9.0,
1982.0,2059.0,2050.0,2075.0,3.0,-8.0,
1989.0,2073.0,2033.0,2032.0,3.0,-8.0,
2026.0,2091.0,2003.0,2006.0,3.0,-8.0,
2071.0,2095.0,1999.0,2044.0,3.0,-8.0,
2095.0,2081.0,2063.0,2025.0,3.0,-8.0,
2082.0,2107.0,2020.0,2017.0,3.0,-8.0,
2040.0,2061.0,1964.0,2043.0,3.0,-7.0,
2001.0,2039.0,2004.0,2055.0,3.0,-7.0,
1988.0,1994.0,2002.0,2051.0,0,0,
2006.0,2056.0,2082.0,2013.0,3.0,-7.0,
2039.0,2063.0,2049.0,2041.0,3.0,-7.0,
2082.0,2057.0,2075.0,2029.0,3.0,-7.0,
2093.0,2059.0,2062.0,2039.0,3.0,-6.0,
2073.0,2077.0,2063.0,2069.0,3.0,-6.0,
2028.0,2100.0,2075.0,2053.0,3.0,-6.0,
1989.0,2089.0,2052.0,1991.0,3.0,-6.0,
1981.0,2095.0,2047.0,1965.0,2.0,-6.0,
2006.0,2093.0,2058.0,2010.0,2.0,-6.0,
2052.0,2059.0,2054.0,2092.0,2.0,-6.0,
2091.0,2032.0,2038.0,2121.0,2.0,-5.0,
2092.0,2000.0,2010.0,2070.0,2.0,-5.0,
2058.0,2026.0,2012.0,2010.0,3.0,-5.0,
2011.0,2059.0,2014.0,2031.0,3.0,-5.0,
1984.0,2069.0,2063.0,2006.0,2.0,-5.0,
1985.0,2088.0,2059.0,2036.0,2.0,-5.0,
2023.0,2108.0,2048.0,2040.0,2.0,-5.0,
2067.0,2050.0,2033.0,2038.0,2.0,-5.0,
2095.0,2014.0,2027.0,2064.0,2.0,-5.0,
2085.0,2063.0,2035.0,2046.0,2.0,-5.0,
2044.0,2081.0,2067.0,2095.0,2.0,-5.0,
1999.0,2132.0,2050.0,2044.0,2.0,-5.0,
1985.0,2042.0,2073.0,1959.0,2.0,-5.0,
1994.0,2026.0,2103.0,2006.0,2.0,-5.0,
2035.0,2052.0,2047.0,2026.0,2.0,-5.0,
2077.0,2087.0,2026.0,1960.0,2.0,-5.0,
2093.0,2099.0,1983.0,2018.0,2.0,-5.0,
2072.0,2072.0,2022.0,2056.0,2.0,-5.0,
2034.0,2088.0,2042.0,2092.0,2.0,-5.0,
1992.0,2071.0,2080.0,1986.0,0,0,
1982.0,2040.0,2015.0,2068.0,2.0,-5.0,
2007.0,2066.0,2019.0,2068.0,2.0,-5.0,
2050.0,2092.0,2036.0,2097.0,2.0,-5.0,
2085.0,2041.0,2016.0,2038.0,2.0,-5.0,
2095.0,2036.0,2045.0,2034.0,2.0,-5.0,
2067.0,2047.0,2053.0,2036.0,2.0,-5.0,
2019.0,2072.0,2036.0,2014.0,2.0,-5.0,
1986.0,2078.0,2034.0,2016.0,2.0,-5.0,
1985.0,2054.0,2064.0,2044.0,2.0,-5.0,
2017.0,2071.0,1996.0,2057.0,2.0,-4.0,
2065.0,2096.0,2011.0,2063.0,2.0,-4.0,
2095.0,2093.0,2018.0,2032.0,2.0,-4.0,
2089.0,2072.0,2031.0,2020.0,2.0,-4.0,
2050.0,2070.0,2023.0,1960.0,2.0,-4.0,
2006.0,2097.0,2059.0,2025.0,2.0,-4.0,
1980.0,2050.0,2035.0,2018.0,2.0,-4.0,
1995.0,2022.0,2008.0,2078.0,2.0,-4.0,
2033.0,2010.0,2051.0,2070.0,2.0,-4.0,
2074.0,2090.0,2021.0,2069.0,2.0,-4.0,
2093.0,2070.0,2029.0,2009.0,2.0,-3.0,
2076.0,2071.0,1950.0,1994.0,2.0,-3.0,
2037.0,2076.0,2044.0,2042.0,2.0,-3.0,
1995.0,2034.0,2051.0,2031.0,2.0,-3.0,
1982.0,2057.0,2127.0,2070.0,2.0,-3.0,
2005.0,2048.0,2091.0,2074.0,2.0,-3.0,
2046.0,2056.0,2082.0,1973.0,2.0,-3.0,
2089.0,2067.0,2047.0,2040.0,2.0,-3.0,
2095.0,2036.0,2030.0,2043.0,2.0,-3.0,
2070.0,2063.0,2027.0,2060.0,2.0,-2.0,
2020.0,2080.0,1982.0,2022.0,2.0,-2.0,
1985.0,2102.0,2001.0,2013.0,2.0,-2.0,
1986.0,2074.0,2013.0,2044.0,2.0,-2.0,
2016.0,2094.0,2075.0,2058.0,2.0,-2.0,
2059.0,2057.0,2059.0,2113.0,2.0,-2.0,
2094.0,2072.0,2051.0,1986.0,2.0,-2.0,
2088.0,2060.0,2013.0,1989.0,2.0,-2.0,
2053.0,2042.0,2020.0,2055.0,2.0,-2.0,
2007.0,2082.0,2024.0,2076.0,2.0,-2.0,
1981.0,2068.0,1988.0,2069.0,2.0,-2.0,
1993.0,2077.0,2045.0,2044.0,1.0,-2.0,
2034.0,2092.0,2043.0,1978.0,1.0,-2.0,
2074.0,2092.0,2039.0,2035.0,1.0,-2.0,
2096.0,2065.0,2031.0,2040.0,1.0,-2.0,
2081.0,2065.0,2009.0,1984.0,1.0,-2.0,
2037.0,2050.0,2001.0,1976.0,1.0,-2.0,
1996.0,2030.0,2024.0,2056.0,1.0,-2.0,
1982.0,2032.0,2076.0,2057.0,1.0,-2.0,
2000.0,2087.0,2102.0,2070.0,1.0,-2.0,
2042.0,2117.0,2054.0,2055.0,1.0,-2.0,
2081.0,2078.0,2074.0,2056.0,1.0,-2.0,
2092.0,2075.0,2075.0,2012.0,1.0,-2.0,
2069.0,2056.0,2054.0,2017.0,1.0,-2.0,
2027.0,2021.0,2044.0,2042.0,1.0,-2.0,
1989.0,2010.0,1985.0,2055.0,1.0,-2.0,
1986.0,2043.0,2046.0,2037.0,1.0,-2.0,
2012.0,2094.0,2039.0,2081.0,1.0,-2.0,
2057.0,2119.0,2017.0,2024.0,1.0,-2.0,
2091.0,2063.0,2029.0,2057.0,1.0,-2.0,
2096.0,2033.0,2055.0,2027.0,1.0,-2.0,
2061.0,2030.0,2025.0,2012.0,1.0,-2.0,
2011.0,2029.0,1987.0,2053.0,2.0,-2.0,
1983.0,2050.0,1989.0,2057.0,2.0,-2.0,
1989.0,2076.0,2020.0,2016.0,2.0,-2.0,
2023.0,2069.0,2026.0,2007.0,2.0,-2.0,
2077.0,2079.0,2016.0,2017.0,2.0,-2.0,
2095.0,2077.0,2021.0,2047.0,2.0,-2.0,
2085.0,2133.0,1956.0,2034.0,2.0,-2.0,
2045.0,2105.0,2059.0,2077.0,0,0,
2003.0,2046.0,2088.0,2030.0,2.0,-2.0,
1981.0,2035.0,2052.0,2026.0,1.0,-2.0,
1998.0,2082.0,2091.0,1979.0,1.0,-2.0,
2038.0,2082.0,2054.0,2038.0,1.0,-2.0,
2081.0,2023.0,2026.0,2073.0,1.0,-2.0,
2094.0,2074.0,2026.0,2068.0,2.0,-2.0,
2073.0,2131.0,2027.0,2061.0,0,0,
2033.0,2093.0,2029.0,2044.0,1.0,-2.0,
1998.0,2098.0,2037.0,2024.0,1.0,-2.0,
1985.0,2080.0,2030.0,2019.0,1.0,-2.0,
2009.0,2061.0,2031.0,2066.0,1.0,-2.0,
2053.0,2061.0,2049.0,1995.0,1.0,-2.0,
2088.0,2044.0,2023.0,2030.0,1.0,-2.0,
2092.0,2012.0,2022.0,2070.0,1.0,-2.0,
2064.0,2055.0,1981.0,2055.0,1.0,-2.0,
2017.0,2074.0,2024.0,1999.0,1.0,-2.0,
1985.0,2050.0,2009.0,2021.0,1.0,-2.0,
1984.0,2039.0,2049.0,1977.0,2.0,-2.0,
2021.0,2072.0,2071.0,1993.0,2.0,-2.0,
2063.0,2045.0,2022.0,2038.0,2.0,-2.0,
2092.0,2074.0,2080.0,2064.0,2.0,-2.0,
2089.0,2086.0,2060.0,2061.0,2.0,-2.0,
2052.0,2066.0,2033.0,2044.0,2.0,-2.0,
2004.0,2061.0,2031.0,2096.0,2.0,-2.0,
1982.0,2107.0,2017.0,2056.0,2.0,-2.0,
2002.0,2063.0,2018.0,2013.0,2.0,-2.0,
2033.0,2036.0,2058.0,2035.0,2.0,-2.0,
2079.0,2070.0,2038.0,2045.0,2.0,-2.0,
2094.0,2088.0,2028.0,2031.0,2.0,-2.0,
2078.0,2052.0,2011.0,2024.0,2.0,-2.0,
2035.0,2023.0,2019.0,2044.0,2.0,-2.0,
1997.0,2081.0,2047.0,2044.0,2.0,-2.0,
1983.0,2122.0,1997.0,2029.0,2.0,-2.0,
2006.0,2107.0,2023.0,2033.0,2.0,-2.0,
2052.0,2041.0,2043.0,2010.0,2.0,-2.0,
2098.0,1977.0,2118.0,2019.0,2.0,-2.0,
2093.0,2045.0,2094.0,2073.0,1.0,-2.0,
2065.0,2050.0,2025.0,2045.0,1.0,-2.0,
2028.0,2048.0,2018.0,2081.0,2.0,-2.0,
1988.0,2080.0,1982.0,2034.0,2.0,-2.0,
1988.0,2071.0,1983.0,1984.0,2.0,-2.0,
2017.0,2066.0,2057.0,2041.0,2.0,-2.0,
2062.0,2084.0,2058.0,2050.0,2.0,-2.0,
2095.0,2110.0,2026.0,2006.0,2.0,-2.0,
2090.0,2111.0,2043.0,2023.0,2.0,-2.0,
2056.0,2025.0,2008.0,2047.0,2.0,-2.0,
2007.0,2091.0,2005.0,2045.0,2.0,-2.0,
1982.0,2089.0,2071.0,1981.0,2.0,-2.0,
1991.0,2079.0,2015.0,1994.0,2.0,-2.0,
2029.0,2074.0,2034.0,2048.0,2.0,-2.0,
2072.0,2008.0,2054.0,2119.0,2.0,-2.0,
2100.0,2020.0,2024.0,2077.0,2.0,-2.0,
2081.0,2088.0,2014.0,2039.0,2.0,-2.0,
2044.0,2075.0,2021.0,2016.0,2.0,-2.0,
2001.0,2028.0,2036.0,2052.0,2.0,-2.0,
1980.0,2067.0,2041.0,2058.0,2.0,-2.0,
2003.0,2079.0,2021.0,2035.0,2.0,-2.0,
2047.0,2093.0,2031.0,2003.0,2.0,-2.0,
2085.0,2076.0,2034.0,2017.0,2.0,-2.0,
2095.0,2074.0,2042.0,2023.0,1.0,-2.0,
2076.0,2099.0,2049.0,2029.0,1.0,-2.0,
2027.0,2093.0,2030.0,2031.0,1.0,-2.0,
1990.0,2076.0,2020.0,2052.0,1.0,-2.0,
1987.0,2095.0,2043.0,1959.0,1.0,-2.0,
2014.0,2109.0,2069.0,2035.0,1.0,-2.0,
2056.0,2025.0,2049.0,2055.0,1.0,-2.0,
2092.0,1996.0,2048.0,2083.0,1.0,-2.0,
2091.0,2017.0,2042.0,2098.0,1.0,-2.0,
2060.0,2083.0,2011.0,2049.0,1.0,-2.0,
2020.0,2028.0,2020.0,1959.0,1.0,-2.0,
1986.0,2046.0,2023.0,2052.0,1.0,-2.0,
1990.0,2043.0,2062.0,2051.0,1.0,-2.0,
2026.0,2072.0,2033.0,2044.0,1.0,-2.0,
2068.0,2068.0,2000.0,2030.0,1.0,-2.0,
2093.0,2092.0,2070.0,1995.0,2.0,-2.0,
2092.0,2062.0,2050.0,2009.0,2.0,-2.0,
2054.0,2076.0,2104.0,2027.0,2.0,-2.0,
2016.0,2100.0,2039.0,2047.0,2.0,-2.0,
1988.0,2111.0,2017.0,2061.0,2.0,-2.0,
1995.0,2041.0,2025.0,2059.0,2.0,-2.0,
2033.0,2049.0,2022.0,2060.0,2.0,-2.0,
2075.0,2036.0,2030.0,2026.0,2.0,-2.0,
2096.0,2072.0,2034.0,2000.0,2.0,-2.0,
2085.0,2123.0,2004.0,2027.0,2.0,-2.0,
2039.0,2090.0,1967.0,2040.0,2.0,-2.0,
1983.0,2063.0,2044.0,2037.0,2.0,-2.0,
1981.0,2063.0,2027.0,2021.0,2.0,-2.0,
2005.0,2027.0,2043.0,2023.0,2.0,-2.0,
2043.0,2035.0,2090.0,2060.0,2.0,-2.0,
2085.0,2048.0,2047.0,2019.0,2.0,-2.0,
2096.0,2079.0,2046.0,2060.0,2.0,-2.0,
2069.0,2085.0,2044.0,2038.0,2.0,-2.0,
2025.0,2066.0,2044.0,2025.0,2.0,-2.0,
1986.0,2090.0,2021.0,2046.0,1.0,-2.0,
1983.0,2120.0,2052.0,2061.0,1.0,-2.0,
2010.0,2065.0,2016.0,2070.0,1.0,-2.0,
1983.0,2120.0,2052.0,2061.0,0,0,
2010.0,2065.0,2016.0,2070.0,0,0,
2057.0,2054.0,2001.0,2085.0,0,0,
2093.0,2063.0,2032.0,2056.0,2.0,-1.0,
2092.0,2071.0,2036.0,1984.0,1.0,-1.0,
2059.0,2066.0,2012.0,1918.0,1.0,-1.0,
2013.0,2052.0,2046.0,2033.0,1.0,-1.0,
1981.0,2052.0,2049.0,2082.0,1.0,-1.0,
1992.0,2088.0,2034.0,2037.0,1.0,-1.0,
2026.0,2080.0,2048.0,2049.0,1.0,-1.0,
2068.0,2057.0,2010.0,2064.0,1.0,-1.0,
2093.0,2059.0,2000.0,2066.0,1.0,-1.0,
2085.0,2061.0,1997.0,2040.0,2.0,-1.0,
2042.0,2052.0,2051.0,2060.0,2.0,-1.0,
2006.0,2083.0,2032.0,2010.0,2.0,-1.0,
1981.0,2110.0,2069.0,1988.0,2.0,-1.0,
1998.0,2077.0,2048.0,2039.0,2.0,-1.0,
2036.0,1956.0,2033.0,2045.0,2.0,-1.0,
2079.0,2016.0,2050.0,2051.0,2.0,-1.0,
2094.0,2043.0,2037.0,2025.0,2.0,-1.0,
2076.0,2086.0,2024.0,2007.0,2.0,-1.0,
2034.0,2101.0,2031.0,2037.0,2.0,-1.0,
1990.0,2094.0,2025.0,2042.0,2.0,-1.0,
1988.0,2054.0,2034.0,2023.0,2.0,-1.0,
2008.0,2012.0,2016.0,2067.0,2.0,0,
2052.0,2070.0,2023.0,2037.0,2.0,-1.0,
2092.0,2119.0,2010.0,2044.0,2.0,-1.0,
2093.0,2104.0,2016.0,2056.0,2.0,-1.0,
2065.0,2081.0,2008.0,2052.0,2.0,-1.0,
2018.0,2076.0,2019.0,1993.0,2.0,-1.0,
1984.0,2082.0,1999.0,2021.0,1.0,-1.0,
1985.0,2047.0,2034.0,2029.0,0,0,
2025.0,2041.0,2086.0,2068.0,1.0,-1.0,
2068.0,2074.0,2047.0,2053.0,1.0,-1.0,
2098.0,2066.0,2065.0,2057.0,1.0,-1.0,
2087.0,2075.0,2050.0,2005.0,1.0,-1.0,
2049.0,2027.0,2074.0,2002.0,1.0,-1.0,
2000.0,2030.0,2075.0,2033.0,1.0,-1.0,
1995.0,2082.0,1963.0,2043.0,1.0,-1.0,
1993.0,2095.0,2018.0,2053.0,1.0,-1.0,
2034.0,2027.0,2112.0,2062.0,1.0,-1.0,
2071.0,2035.0,2018.0,2013.0,1.0,-1.0,
2095.0,2081.0,2098.0,2038.0,1.0,-1.0,
2078.0,2086.0,2061.0,2038.0,1.0,-1.0,
2045.0,2096.0,2018.0,2012.0,1.0,-1.0,
1992.0,2071.0,2046.0,2059.0,1.0,-1.0,
1982.0,2085.0,2029.0,2055.0,1.0,-1.0,
2004.0,2053.0,2006.0,2051.0,1.0,-1.0,
2047.0,2055.0,2064.0,2021.0,2.0,-1.0,
2084.0,2044.0,2047.0,2024.0,2.0,-1.0,
2102.0,2072.0,1994.0,2018.0,1.0,-1.0,
2065.0,2057.0,2013.0,2035.0,1.0,-1.0,
2020.0,2075.0,2039.0,2031.0,2.0,-1.0,
1990.0,2086.0,2057.0,2057.0,2.0,-1.0,
1984.0,2047.0,2096.0,2037.0,2.0,-1.0,
2011.0,2047.0,2041.0,2040.0,0,0,
2069.0,2078.0,2026.0,2067.0,2.0,-1.0,
2093.0,2086.0,2037.0,2028.0,2.0,-1.0,
2087.0,2095.0,2022.0,1970.0,2.0,-1.0,
2053.0,2047.0,2004.0,2024.0,2.0,0.0,
2006.0,2049.0,2053.0,2088.0,2.0,0.0,
1978.0,2053.0,2041.0,2075.0,2.0,0.0,
1997.0,2091.0,2026.0,2043.0,2.0,0.0,
2033.0,2084.0,2022.0,1971.0,2.0,0.0,
2074.0,2066.0,2022.0,1995.0,2.0,0.0,
2095.0,2045.0,2027.0,2036.0,2.0,0.0,
2080.0,2070.0,2021.0,2040.0,2.0,0.0,
2038.0,2077.0,2040.0,2024.0,2.0,0.0,
2005.0,2074.0,1996.0,2028.0,1.0,0.0,
1981.0,2088.0,1993.0,2036.0,2.0,0.0,
2006.0,2060.0,2025.0,2045.0,2.0,0.0,
2043.0,2056.0,2045.0,2056.0,2.0,0.0,
2085.0,2009.0,2000.0,2053.0,2.0,0.0,
2092.0,2080.0,2001.0,2016.0,2.0,0.0,
2075.0,2088.0,2016.0,2033.0,1.0,0.0,
2022.0,2082.0,2026.0,2068.0,1.0,0.0,
1989.0,2071.0,2029.0,2058.0,1.0,0.0,
1982.0,2110.0,2062.0,1950.0,1.0,0.0,
2013.0,2092.0,2058.0,2008.0,2.0,0.0,
2060.0,2000.0,2028.0,2071.0,1.0,0.0,
2090.0,2029.0,2017.0,2067.0,1.0,0.0,
2092.0,2070.0,2033.0,2037.0,1.0,0.0,
2056.0,2074.0,2031.0,2066.0,2.0,0,
2012.0,2043.0,2001.0,2052.0,1.0,0.0,
1987.0,2075.0,2034.0,2072.0,1.0,0.0,
1990.0,2066.0,2012.0,2038.0,1.0,0.0,
2027.0,2084.0,2008.0,2015.0,1.0,0.0,
2070.0,2116.0,2007.0,2017.0,1.0,0.0,
2096.0,2109.0,2044.0,2011.0,1.0,0.0,
2085.0,2056.0,2066.0,2035.0,1.0,0.0,
2044.0,2088.0,2079.0,2025.0,2.0,0.0,
2000.0,2016.0,2015.0,2038.0,2.0,0.0,
1984.0,1985.0,2042.0,2034.0,1.0,0.0,
1999.0,2070.0,2023.0,2036.0,1.0,0.0,
2040.0,2041.0,2105.0,2038.0,1.0,0.0,
2082.0,2089.0,2120.0,2069.0,1.0,0.0,
2091.0,2049.0,2049.0,2017.0,1.0,0.0,
2072.0,2034.0,2025.0,2038.0,1.0,0.0,
2032.0,2062.0,2036.0,2033.0,1.0,0.0,
1994.0,2060.0,2020.0,2075.0,2.0,0.0,
1985.0,2080.0,2022.0,2033.0,2.0,0.0,
2007.0,2111.0,2008.0,2011.0,2.0,0.0,
2051.0,2100.0,2013.0,2024.0,2.0,0.0,
2087.0,2092.0,2001.0,2026.0,2.0,0.0,
2090.0,2077.0,2009.0,2076.0,2.0,0.0,
2066.0,2070.0,2054.0,2057.0,2.0,0.0,
2017.0,2073.0,2023.0,2032.0,2.0,0.0,
1985.0,2068.0,2063.0,2000.0,2.0,0.0,
1983.0,2061.0,2025.0,1991.0,2.0,0.0,
2018.0,2080.0,2029.0,2005.0,2.0,0.0,
2064.0,2055.0,2023.0,2059.0,2.0,0.0,
2103.0,2063.0,2052.0,2093.0,2.0,0.0,
2088.0,2054.0,2042.0,2037.0,2.0,0.0,
2054.0,2070.0,2036.0,1974.0,2.0,0.0,
2006.0,2088.0,2050.0,2025.0,2.0,0.0,
1981.0,2057.0,2039.0,2046.0,2.0,0.0,
1992.0,2053.0,2034.0,2085.0,2.0,0.0,
2035.0,2063.0,2047.0,1998.0,2.0,0,
2078.0,2041.0,2045.0,1991.0,2.0,0.0,
2095.0,2073.0,2019.0,2081.0,2.0,0.0,
2078.0,2066.0,2035.0,2075.0,1.0,0.0,
2036.0,2086.0,2026.0,2054.0,1.0,0.0,
1994.0,2062.0,2043.0,2000.0,1.0,0.0,
1978.0,2079.0,2067.0,1981.0,1.0,0.0,
2005.0,2103.0,2062.0,2024.0,1.0,0.0,
2048.0,2068.0,2041.0,2070.0,1.0,0.0,
2083.0,2030.0,2049.0,2090.0,1.0,0.0,
2092.0,1998.0,1980.0,2037.0,1.0,0.0,
2066.0,2022.0,2003.0,2043.0,1.0,0.0,
2022.0,2059.0,1993.0,2065.0,1.0,0.0,
1988.0,2107.0,1970.0,2061.0,1.0,0.0,
1985.0,2075.0,2010.0,2054.0,1.0,0.0,
2017.0,2051.0,2106.0,2006.0,1.0,0.0,
2061.0,2053.0,2059.0,2020.0,1.0,0.0,
2092.0,2100.0,2026.0,2015.0,1.0,0.0,
2088.0,2096.0,2024.0,2022.0,1.0,0.0,
2055.0,2062.0,2007.0,2022.0,1.0,0.0,
2008.0,2026.0,2086.0,2051.0,1.0,0.0,
1982.0,2063.0,2066.0,2027.0,1.0,0.0,
1988.0,2087.0,2033.0,2057.0,1.0,0.0,
2028.0,2059.0,2009.0,2035.0,1.0,0.0,
2071.0,2083.0,2023.0,2068.0,1.0,0.0,
2097.0,2108.0,2017.0,1997.0,1.0,0.0,
2084.0,2114.0,2032.0,2011.0,2.0,0.0,
2042.0,2082.0,2004.0,2036.0,2.0,0.0,
1997.0,2034.0,2046.0,2066.0,2.0,0.0,
1980.0,2065.0,2053.0,2041.0,2.0,1.0,
2002.0,2059.0,2083.0,2062.0,2.0,1.0,
2047.0,2066.0,2088.0,2058.0,2.0,1.0,
2082.0,2041.0,2036.0,2041.0,2.0,1.0,
2094.0,2080.0,2032.0,2021.0,2.0,1.0,
2070.0,2098.0,2038.0,1987.0,2.0,1.0,
2026.0,2066.0,2023.0,2027.0,2.0,1.0,
1989.0,2036.0,2051.0,2056.0,2.0,1.0,
1986.0,2012.0,2024.0,2050.0,2.0,1.0,
2010.0,2033.0,2018.0,2052.0,2.0,0,
2056.0,2074.0,2026.0,2028.0,2.0,1.0,
2090.0,2080.0,2036.0,2026.0,2.0,1.0,
2089.0,2081.0,2003.0,2056.0,2.0,1.0,
2056.0,2082.0,1974.0,2053.0,2.0,1.0,
2019.0,2129.0,2030.0,2010.0,2.0,1.0,
1982.0,2090.0,2029.0,2017.0,2.0,1.0,
1990.0,2013.0,2058.0,2093.0,0,0,
2022.0,1995.0,2064.0,2026.0,2.0,1.0,
2067.0,2062.0,2034.0,2004.0,2.0,1.0,
2093.0,2076.0,2041.0,2067.0,2.0,1.0,
2106.0,2100.0,2032.0,2021.0,2.0,1.0,
2050.0,2094.0,2022.0,1986.0,2.0,1.0,
2002.0,2043.0,2023.0,2029.0,2.0,1.0,
1981.0,2039.0,2054.0,2032.0,1.0,1.0,
1995.0,2058.0,2018.0,2078.0,2.0,1.0,
2036.0,2072.0,2027.0,2041.0,1.0,1.0,
2087.0,2081.0,2044.0,2028.0,2.0,1.0,
2096.0,2040.0,2091.0,2019.0,2.0,1.0,
2076.0,2063.0,2040.0,2013.0,1.0,1.0,
2032.0,2070.0,1991.0,2085.0,2.0,0.0,
1990.0,2087.0,2042.0,2077.0,2.0,0.0,
1982.0,2126.0,2039.0,2053.0,1.0,0.0,
2011.0,2092.0,1997.0,2041.0,1.0,0.0,
2051.0,2027.0,2041.0,2027.0,1.0,0.0,
2091.0,2052.0,2030.0,2020.0,1.0,0.0,
2092.0,2069.0,2030.0,2025.0,1.0,0.0,
2063.0,2062.0,2001.0,2031.0,2.0,0.0,
2021.0,2069.0,2016.0,2013.0,1.0,0.0,
1981.0,2088.0,2104.0,2036.0,2.0,0.0,
1988.0,2076.0,2098.0,2050.0,1.0,0.0,
2019.0,2048.0,2021.0,2099.0,1.0,0.0,
2066.0,2067.0,1992.0,2025.0,1.0,0.0,
2095.0,2080.0,1996.0,1989.0,1.0,0.0,
2086.0,2079.0,2039.0,2042.0,1.0,0.0,
2050.0,2054.0,2083.0,2049.0,1.0,0.0,
2006.0,2054.0,2061.0,2041.0,1.0,0.0,
1982.0,2044.0,2056.0,2032.0,1.0,0.0,
1992.0,2066.0,2039.0,2003.0,1.0,0.0,
2034.0,2082.0,2043.0,2045.0,1.0,0.0,
2072.0,2079.0,2008.0,2087.0,1.0,0.0,
2096.0,2103.0,2019.0,2042.0,1.0,0.0,
2084.0,2043.0,2008.0,2037.0,1.0,0.0,
2036.0,2058.0,2039.0,2010.0,2.0,0.0,
1995.0,2081.0,2027.0,1998.0,2.0,0.0,
1982.0,2059.0,2025.0,2026.0,2.0,0.0,
2004.0,2079.0,2036.0,2060.0,0,0,
2048.0,2061.0,2047.0,2034.0,2.0,0.0,
2090.0,2019.0,2030.0,2052.0,2.0,0.0,
2094.0,2075.0,2004.0,2065.0,2.0,0.0,
2068.0,2092.0,2006.0,2088.0,2.0,0.0,
2022.0,2084.0,2000.0,2053.0,2.0,0.0,
1984.0,2084.0,2016.0,1922.0,2.0,0.0,
1982.0,2076.0,2038.0,2018.0,2.0,0.0,
2017.0,2066.0,2090.0,2053.0,2.0,0.0,
2060.0,2069.0,2071.0,2063.0,2.0,0.0,
2092.0,2070.0,2056.0,2054.0,2.0,0.0,
2092.0,2060.0,2042.0,2051.0,2.0,0.0,
2051.0,2043.0,2042.0,2060.0,2.0,0.0,
2009.0,2066.0,2052.0,1956.0,2.0,0.0,
1980.0,2077.0,2043.0,2020.0,2.0,0.0,
1991.0,2087.0,2065.0,2031.0,2.0,1.0,
2027.0,2059.0,2022.0,2046.0,2.0,1.0,
2073.0,2064.0,2016.0,2051.0,2.0,1.0,
2094.0,2058.0,2024.0,2014.0,2.0,1.0,
2081.0,2050.0,2036.0,2065.0,1.0,1.0,
2042.0,2021.0,2029.0,2092.0,1.0,1.0,
2000.0,2040.0,2050.0,2076.0,1.0,1.0,
1981.0,2081.0,2048.0,1969.0,1.0,1.0,
1994.0,2082.0,2046.0,2002.0,2.0,1.0,
2044.0,2058.0,2042.0,2024.0,1.0,1.0,
2082.0,2098.0,2040.0,2038.0,2.0,1.0,
2097.0,2081.0,2041.0,2057.0,2.0,1.0,
2071.0,2031.0,2018.0,2041.0,2.0,1.0,
2028.0,2075.0,2021.0,2056.0,2.0,1.0,
1988.0,2101.0,2022.0,2024.0,2.0,1.0,
1982.0,2091.0,2002.0,2074.0,2.0,1.0,
2009.0,2106.0,2024.0,2068.0,2.0,1.0,
2058.0,2045.0,2025.0,2045.0,2.0,1.0,
2092.0,2115.0,1949.0,2023.0,2.0,1.0,
2093.0,2074.0,2022.0,2042.0,2.0,1.0,
2058.0,2059.0,1971.0,2010.0,2.0,1.0,
2011.0,2010.0,2022.0,2026.0,2.0,1.0,
1982.0,1985.0,2131.0,2052.0,2.0,1.0,
1990.0,2070.0,2093.0,2028.0,2.0,1.0,
2025.0,2034.0,2054.0,2029.0,2.0,1.0,
2070.0,2055.0,2054.0,2084.0,2.0,1.0,
2095.0,2069.0,2035.0,2079.0,2.0,1.0,
2080.0,2088.0,2041.0,1977.0,2.0,1.0,
2044.0,2066.0,2007.0,2032.0,2.0,1.0,
2002.0,2080.0,2047.0,2030.0,2.0,1.0,
1983.0,2083.0,2042.0,2003.0,2.0,1.0,
1999.0,2062.0,2034.0,2037.0,2.0,1.0,
2039.0,2074.0,2031.0,2020.0,2.0,1.0,
2079.0,2094.0,2026.0,2010.0,2.0,1.0,
2093.0,2128.0,2039.0,2049.0,2.0,1.0,
2077.0,2078.0,2024.0,2096.0,2.0,1.0,
2030.0,2042.0,2036.0,2088.0,2.0,1.0,
1989.0,2017.0,2008.0,1977.0,2.0,1.0,
1983.0,2062.0,1992.0,2013.0,2.0,1.0,
2008.0,2082.0,2027.0,2024.0,2.0,1.0,
2051.0,2081.0,2054.0,2058.0,1.0,1.0,
2092.0,2087.0,2035.0,2066.0,2.0,1.0,
2095.0,2088.0,2026.0,1985.0,2.0,1.0,
2060.0,2061.0,2033.0,2025.0,2.0,1.0,
2018.0,2055.0,2015.0,2052.0,2.0,1.0,
1984.0,2059.0,2046.0,2076.0,2.0,1.0,
1985.0,2041.0,2057.0,2039.0,2.0,1.0,
2025.0,2054.0,2050.0,2035.0,2.0,1.0,
2065.0,2059.0,2019.0,2033.0,2.0,1.0,
2092.0,2080.0,2028.0,2039.0,2.0,1.0,
2086.0,2120.0,1997.0,1994.0,2.0,1.0,
2048.0,2110.0,2019.0,1977.0,0,0,
2004.0,2029.0,1996.0,2010.0,2.0,1.0,
1985.0,1999.0,2075.0,2085.0,2.0,1.0,
1994.0,1994.0,2059.0,2129.0,2.0,1.0,
2035.0,2037.0,2050.0,2119.0,2.0,1.0,
2077.0,2022.0,2041.0,2013.0,2.0,1.0,
2095.0,2048.0,2056.0,2043.0,2.0,1.0,
2076.0,2098.0,2002.0,2010.0,2.0,1.0,
2032.0,2091.0,2022.0,2024.0,2.0,1.0,
1996.0,2096.0,2041.0,2032.0,2.0,1.0,
1983.0,2096.0,2029.0,2037.0,2.0,1.0,
2003.0,2075.0,2044.0,2041.0,2.0,1.0,
2048.0,2052.0,2055.0,2058.0,0,0,
2086.0,2078.0,2065.0,2013.0,2.0,1.0,
2091.0,2085.0,2045.0,2018.0,2.0,1.0,
2071.0,2078.0,2033.0,1992.0,2.0,1.0,
2025.0,2076.0,2031.0,2025.0,2.0,1.0,
1987.0,2075.0,2033.0,2017.0,2.0,1.0,
1985.0,2085.0,2031.0,2009.0,2.0,1.0,
2016.0,2081.0,2044.0,2018.0,2.0,1.0,
2059.0,2079.0,2061.0,2031.0,2.0,1.0,
2095.0,2062.0,2039.0,2071.0,1.0,0.0,
2091.0,2046.0,2041.0,2066.0,1.0,0.0,
2059.0,2058.0,2021.0,2007.0,1.0,0.0,
2009.0,2071.0,2016.0,2039.0,1.0,0.0,
1979.0,2082.0,2015.0,2074.0,1.0,0.0,
1988.0,2079.0,2001.0,2095.0,1.0,0.0,
2029.0,2100.0,2071.0,2037.0,1.0,0.0,
2072.0,2081.0,2015.0,1947.0,1.0,0.0,
2094.0,2065.0,1986.0,1969.0,1.0,0.0,
2083.0,2027.0,1966.0,2033.0,1.0,0.0,
2043.0,1994.0,2060.0,2045.0,1.0,0.0,
1996.0,2050.0,2130.0,2080.0,1.0,0,
1983.0,2089.0,2043.0,2022.0,1.0,0.0,
2000.0,1959.0,2079.0,2117.0,1.0,0.0,
2045.0,2032.0,2037.0,2043.0,1.0,0.0,
2083.0,2082.0,2018.0,2025.0,1.0,0.0,
2092.0,2090.0,2041.0,2053.0,1.0,0.0,
2069.0,2068.0,2035.0,2026.0,1.0,0.0,
2030.0,2088.0,2028.0,2017.0,1.0,0.0,
1995.0,2079.0,2055.0,2038.0,1.0,0.0,
1986.0,2083.0,2050.0,2031.0,1.0,0.0,
2012.0,2081.0,2071.0,2022.0,1.0,0.0,
2057.0,2083.0,2047.0,2029.0,1.0,0.0,
2091.0,2095.0,2039.0,2023.0,1.0,0.0,
2095.0,2103.0,2037.0,2041.0,1.0,0.0,
2066.0,2083.0,2038.0,2041.0,1.0,0.0,
2015.0,2039.0,2037.0,2040.0,2.0,0.0,
1986.0,2062.0,2028.0,2054.0,2.0,0.0,
1985.0,2076.0,2022.0,2029.0,2.0,0.0,
2025.0,2081.0,2024.0,1995.0,2.0,0.0,
2076.0,2077.0,2012.0,2014.0,2.0,0.0,
2095.0,2098.0,2047.0,2069.0,2.0,0.0,
2086.0,2021.0,1982.0,2065.0,2.0,0.0,
2048.0,2022.0,1988.0,2008.0,1.0,0.0,
2005.0,2070.0,2062.0,2015.0,1.0,0.0,
1984.0,2054.0,2020.0,2019.0,1.0,0.0,
2005.0,2071.0,2034.0,2048.0,1.0,0.0,
2034.0,2062.0,2092.0,2110.0,1.0,0.0,
2077.0,2068.0,2075.0,2077.0,1.0,1.0,
2095.0,2055.0,2037.0,2036.0,1.0,1.0,
2075.0,2064.0,2010.0,2024.0,1.0,1.0,
2033.0,2093.0,2019.0,2017.0,1.0,1.0,
1992.0,2079.0,2023.0,2015.0,1.0,1.0,
1983.0,2070.0,2030.0,2030.0,1.0,1.0,
2010.0,2070.0,2035.0,2033.0,1.0,1.0,
2051.0,2069.0,2027.0,2031.0,1.0,1.0,
2088.0,2081.0,2045.0,2028.0,1.0,1.0,
2091.0,2096.0,2025.0,2022.0,1.0,1.0,
2066.0,2089.0,2012.0,2000.0,1.0,1.0,
2022.0,2067.0,2031.0,1982.0,1.0,1.0,
1984.0,2065.0,1999.0,2017.0,1.0,1.0,
1986.0,2097.0,2019.0,2051.0,1.0,1.0,
2018.0,2070.0,2037.0,2092.0,1.0,1.0,
2062.0,2022.0,1996.0,2136.0,1.0,1.0,
2092.0,2068.0,1996.0,2059.0,2.0,1.0,
2088.0,2010.0,2021.0,2047.0,2.0,1.0,
2056.0,2001.0,2104.0,2060.0,2.0,1.0,
2008.0,1972.0,2094.0,2020.0,0,0,
1981.0,2018.0,2054.0,2018.0,2.0,1.0,
1991.0,2064.0,2043.0,2023.0,2.0,1.0,
2032.0,2075.0,2041.0,2027.0,2.0,1.0,
2078.0,2084.0,2039.0,2027.0,2.0,1.0,
2094.0,2093.0,2030.0,2019.0,2.0,1.0,
2076.0,2099.0,2016.0,2023.0,2.0,1.0,
2037.0,2094.0,2034.0,2027.0,2.0,1.0,
1998.0,2091.0,2037.0,2024.0,2.0,1.0,
1980.0,2091.0,2040.0,2034.0,2.0,1.0,
2006.0,2090.0,2046.0,2041.0,2.0,0.0,
2045.0,2082.0,2055.0,2038.0,2.0,0.0,
2088.0,2075.0,2032.0,2032.0,2.0,0.0,
2092.0,2073.0,2049.0,2025.0,2.0,0.0,
2068.0,2083.0,2043.0,2029.0,2.0,0.0,
2024.0,2090.0,2041.0,2038.0,2.0,0.0,
1990.0,2085.0,2043.0,2035.0,0,0.0,
1988.0,2052.0,2049.0,2015.0,2.0,0.0,
2012.0,2018.0,2035.0,2026.0,2.0,0.0,
2059.0,2013.0,2014.0,2021.0,2.0,0,
2094.0,2084.0,2095.0,2020.0,2.0,0.0,
2090.0,2040.0,2060.0,2012.0,2.0,0.0,
2066.0,2026.0,1992.0,2062.0,2.0,0.0,
2012.0,2111.0,2003.0,2106.0,2.0,0.0,
1983.0,2097.0,1980.0,2105.0,1.0,0.0,
1987.0,2094.0,1986.0,2019.0,2.0,0.0,
2025.0,2090.0,2037.0,2065.0,2.0,0,
2069.0,2017.0,2103.0,2066.0,2.0,0.0,
2102.0,2069.0,2154.0,1935.0,1.0,0.0,
2084.0,2070.0,2083.0,2022.0,1.0,0.0,
2042.0,2039.0,2075.0,2078.0,2.0,0.0,
2000.0,2052.0,2072.0,2046.0,2.0,0.0,
1979.0,2077.0,2048.0,2017.0,2.0,0.0,
1999.0,2075.0,2037.0,2017.0,2.0,0.0,
2051.0,2095.0,2025.0,2042.0,2.0,0.0,
2086.0,2073.0,2029.0,2036.0,2.0,0.0,
2095.0,2034.0,2023.0,2037.0,2.0,0.0,
2068.0,2061.0,2007.0,2037.0,2.0,0.0,
2027.0,2067.0,2025.0,2034.0,2.0,0.0,
1988.0,2074.0,2018.0,2050.0,2.0,0.0,
1988.0,2085.0,2014.0,2044.0,2.0,0.0,
2010.0,2064.0,2037.0,2033.0,1.0,0.0,
2055.0,2037.0,2059.0,2011.0,2.0,1.0,
2090.0,2024.0,2092.0,1998.0,2.0,1.0,
2093.0,2043.0,2005.0,2016.0,2.0,1.0,
2057.0,2038.0,1990.0,2039.0,2.0,1.0,
2016.0,2079.0,1971.0,2066.0,2.0,1.0,
1985.0,2106.0,2029.0,2039.0,2.0,1.0,
1988.0,2062.0,2074.0,2013.0,2.0,1.0,
2021.0,2064.0,2060.0,2042.0,2.0,0,
2068.0,2094.0,2027.0,2034.0,2.0,1.0,
2094.0,2119.0,2020.0,2044.0,2.0,1.0,
2085.0,2076.0,2013.0,2042.0,2.0,1.0,
2051.0,2060.0,2010.0,2073.0,2.0,1.0,
2001.0,2048.0,2020.0,2023.0,1.0,1.0,
1981.0,2038.0,2046.0,2046.0,1.0,1.0,
1997.0,2053.0,2027.0,2035.0,1.0,1.0,
2035.0,2067.0,2044.0,2028.0,1.0,1.0,
2076.0,2089.0,2028.0,2029.0,2.0,1.0,
2097.0,2089.0,1983.0,2020.0,1.0,1.0,
2077.0,2047.0,1967.0,2023.0,2.0,1.0,
2035.0,2065.0,1983.0,2019.0,2.0,1.0,
1991.0,2041.0,1990.0,2030.0,2.0,1.0,
1983.0,2026.0,2082.0,2071.0,2.0,1.0,
2006.0,2066.0,2113.0,2085.0,2.0,1.0,
2052.0,2080.0,2085.0,2020.0,2.0,1.0,
2090.0,2079.0,2118.0,2018.0,1.0,1.0,
2095.0,2079.0,2077.0,2034.0,1.0,1.0,
2064.0,2111.0,2052.0,2088.0,1.0,1.0,
2018.0,2070.0,2052.0,2047.0,1.0,1.0,
1984.0,2026.0,2030.0,2001.0,1.0,1.0,
1988.0,2040.0,2026.0,2056.0,1.0,1.0,
2020.0,2057.0,2027.0,2017.0,1.0,1.0,
2062.0,2047.0,2037.0,2027.0,1.0,1.0,
2091.0,2072.0,2010.0,2004.0,1.0,1.0,
2085.0,2105.0,2034.0,2048.0,2.0,1.0,
2051.0,2060.0,1997.0,2043.0,2.0,1.0,
2007.0,2057.0,2016.0,1997.0,2.0,1.0,
1979.0,2052.0,2013.0,2007.0,2.0,1.0,
1993.0,2061.0,2044.0,2057.0,2.0,1.0,
2033.0,2092.0,2027.0,2085.0,2.0,1.0,
2075.0,2095.0,2034.0,2062.0,2.0,1.0,
2096.0,2068.0,2014.0,1995.0,2.0,1.0,
2085.0,2029.0,2037.0,2058.0,2.0,1.0,
2038.0,2013.0,2064.0,2070.0,2.0,1.0,
1995.0,2085.0,2078.0,2030.0,2.0,1.0,
1984.0,2072.0,2029.0,2002.0,2.0,1.0,
1999.0,2089.0,2051.0,2032.0,2.0,1.0,
2045.0,2071.0,2010.0,2054.0,2.0,1.0,
2085.0,2098.0,2031.0,2005.0,2.0,1.0,
2093.0,2091.0,2040.0,2043.0,2.0,1.0,
2068.0,2079.0,2033.0,1937.0,0,0,
2022.0,2023.0,2004.0,2044.0,2.0,1.0,
1989.0,2036.0,2026.0,2077.0,2.0,1.0,
1983.0,2035.0,1999.0,2044.0,2.0,1.0,
2020.0,2071.0,2077.0,2024.0,2.0,1.0,
2059.0,2076.0,2034.0,2071.0,2.0,1.0,
2090.0,2090.0,2028.0,2102.0,2.0,1.0,
2089.0,2073.0,2001.0,2041.0,2.0,1.0,
2057.0,2048.0,2057.0,2008.0,2.0,1.0,
2012.0,2061.0,2048.0,2024.0,2.0,1.0,
1993.0,2060.0,2080.0,2032.0,2.0,1.0,
1988.0,2068.0,2039.0,2028.0,2.0,1.0,
2028.0,2073.0,2048.0,2043.0,2.0,1.0,
2069.0,2074.0,2012.0,2072.0,1.0,1.0,
2095.0,2074.0,2015.0,2027.0,1.0,1.0,
2080.0,2065.0,2033.0,1999.0,1.0,1.0,
2050.0,2061.0,2048.0,2021.0,1.0,1.0,
2002.0,2111.0,2032.0,2004.0,1.0,1.0,
1982.0,2114.0,2003.0,2010.0,1.0,1.0,
1999.0,2059.0,1954.0,2059.0,1.0,1.0,
2037.0,2051.0,2053.0,2065.0,1.0,0,
2083.0,2018.0,2067.0,1987.0,1.0,1.0,
2100.0,2044.0,2101.0,2057.0,1.0,1.0,
2070.0,2049.0,2077.0,2117.0,1.0,1.0,
2031.0,2067.0,2032.0,2035.0,1.0,1.0,
1989.0,2088.0,2005.0,2027.0,1.0,1.0,
1978.0,2096.0,2037.0,2052.0,1.0,1.0,
2010.0,2082.0,2060.0,2011.0,1.0,1.0,
2056.0,2081.0,2055.0,2034.0,1.0,1.0,
2094.0,2038.0,2039.0,2034.0,1.0,1.0,
2094.0,2054.0,2040.0,1978.0,1.0,1.0,
2059.0,2064.0,2015.0,2023.0,1.0,1.0,
2017.0,2062.0,2051.0,2033.0,1.0,1.0,
1983.0,2074.0,2032.0,2042.0,1.0,1.0,
1985.0,2089.0,2046.0,2067.0,1.0,1.0,
2023.0,2054.0,2026.0,2060.0,1.0,1.0,
2068.0,2061.0,2050.0,2057.0,1.0,1.0,
2095.0,2080.0,2035.0,2015.0,1.0,1.0,
2087.0,2079.0,2031.0,1972.0,1.0,1.0,
2045.0,2093.0,2035.0,2025.0,1.0,1.0,
2002.0,2118.0,2016.0,2034.0,1.0,1.0,
1982.0,2081.0,2001.0,2063.0,1.0,1.0,
1991.0,2085.0,2005.0,2028.0,1.0,1.0,
2037.0,2091.0,2082.0,1994.0,1.0,1.0,
2077.0,1988.0,2041.0,2105.0,1.0,1.0,
2093.0,2046.0,2041.0,2088.0,1.0,1.0,
2075.0,2073.0,2046.0,1983.0,1.0,1.0,
2034.0,2021.0,2081.0,2063.0,1.0,0.0,
1997.0,1991.0,2009.0,2032.0,1.0,0.0,
1982.0,2037.0,2009.0,2033.0,1.0,0,
2005.0,2055.0,2002.0,2046.0,1.0,0.0,
2049.0,2081.0,2029.0,2042.0,1.0,0.0,
2082.0,2071.0,2054.0,2040.0,1.0,0.0,
2095.0,2088.0,2044.0,2050.0,1.0,0.0,
2070.0,2080.0,2032.0,2021.0,1.0,0.0,
2019.0,2082.0,2027.0,2017.0,1.0,0.0,
1985.0,2067.0,2024.0,2010.0,1.0,0.0,
1986.0,2070.0,2027.0,2027.0,1.0,0.0,
2014.0,2085.0,2043.0,2067.0,0,0,
2070.0,2089.0,2013.0,2039.0,1.0,0.0,
2092.0,2079.0,2022.0,2032.0,1.0,0.0,
2083.0,2068.0,2003.0,2029.0,1.0,0.0,
2053.0,2079.0,2065.0,2019.0,1.0,0.0,
2006.0,2069.0,2086.0,2021.0,1.0,0.0,
1981.0,2070.0,2019.0,2011.0,1.0,0.0,
1995.0,2056.0,2011.0,2014.0,1.0,0.0,
2032.0,2076.0,1997.0,2040.0,1.0,0.0,
2073.0,2122.0,1973.0,2024.0,1.0,0.0,
2095.0,2100.0,2093.0,2038.0,1.0,0.0,
2066.0,2036.0,2094.0,2096.0,1.0,0.0,
2039.0,1975.0,2106.0,2113.0,1.0,0.0,
2001.0,2021.0,2004.0,2045.0,1.0,0.0,
1985.0,2055.0,2077.0,1989.0,1.0,0.0,
2003.0,2048.0,2026.0,2022.0,1.0,0.0,
2046.0,2079.0,2047.0,2088.0,1.0,0.0,
2085.0,2089.0,2048.0,2055.0,1.0,0.0,
2096.0,2085.0,1987.0,2064.0,1.0,0.0,
2074.0,2088.0,2001.0,1960.0,1.0,0.0,
2028.0,2058.0,2002.0,2008.0,1.0,0.0,
1988.0,2064.0,2012.0,2016.0,1.0,0.0,
1984.0,2094.0,2018.0,2034.0,1.0,0.0,
2013.0,2105.0,2039.0,2040.0,1.0,0.0,
2057.0,2093.0,2014.0,2038.0,1.0,0.0,
2098.0,2082.0,2024.0,2051.0,1.0,0.0,
2090.0,2057.0,2029.0,2036.0,1.0,0.0,
2056.0,2052.0,2022.0,2022.0,1.0,0.0,
2009.0,2015.0,2032.0,2042.0,1.0,0.0,
1983.0,2059.0,2042.0,2042.0,1.0,0.0,
1989.0,2093.0,2043.0,2021.0,1.0,0.0,
2037.0,2066.0,2086.0,2056.0,1.0,0.0,
2072.0,2065.0,2055.0,2066.0,1.0,0.0,
2094.0,2015.0,2027.0,2031.0,1.0,0.0,
2082.0,2063.0,2003.0,1883.0,1.0,0.0,
2041.0,2080.0,2009.0,1980.0,1.0,0.0,
2000.0,2068.0,2005.0,2102.0,1.0,1.0,
1987.0,2087.0,2026.0,2079.0,1.0,1.0,
1998.0,2038.0,2047.0,2104.0,1.0,1.0,
2040.0,2063.0,2056.0,2060.0,1.0,0,
2081.0,2050.0,2048.0,2029.0,1.0,1.0,
2095.0,2076.0,2088.0,2051.0,1.0,1.0,
2071.0,2080.0,2072.0,2031.0,1.0,1.0,
