2028.0,2133.0,2037.0,2013.0,1.0,0.0,
2075.0,2158.0,2026.0,2009.0,1.0,0.0,
2096.0,2104.0,2030.0,1977.0,1.0,0.0,
2077.0,2085.0,2061.0,2036.0,1.0,0.0,
2042.0,2120.0,2076.0,2036.0,1.0,0.0,
1995.0,2104.0,2067.0,2026.0,1.0,0.0,
1979.0,2133.0,2053.0,2019.0,1.0,0.0,
1994.0,2107.0,2050.0,2010.0,1.0,0.0,
2036.0,2021.0,2025.0,1987.0,1.0,0.0,
2083.0,2005.0,2010.0,2117.0,1.0,0.0,
2107.0,2011.0,2014.0,2043.0,1.0,0.0,
2076.0,2077.0,1994.0,2122.0,1.0,0.0,
2023.0,1979.0,1988.0,2020.0,1.0,0.0,
1984.0,1972.0,2030.0,2109.0,1.0,0.0,
1991.0,2120.0,2016.0,2034.0,1.0,0.0,
2011.0,2095.0,2052.0,1979.0,1.0,0.0,
2064.0,2097.0,2048.0,2002.0,1.0,0.0,
2092.0,2088.0,2082.0,2059.0,1.0,0.0,
2090.0,2078.0,2091.0,2029.0,1.0,0.0,
2063.0,2084.0,2084.0,2025.0,1.0,0.0,
2008.0,2078.0,2062.0,2026.0,1.0,0.0,
1979.0,2088.0,2054.0,2033.0,1.0,0.0,
1994.0,2082.0,2046.0,2033.0,1.0,0.0,
2025.0,2076.0,2036.0,2035.0,1.0,0.0,
2070.0,2073.0,2024.0,2038.0,1.0,0.0,
2094.0,2066.0,2031.0,2027.0,1.0,0.0,
2082.0,2133.0,2036.0,2021.0,1.0,0.0,
2041.0,2139.0,2041.0,2005.0,1.0,0.0,
2003.0,2131.0,2055.0,2010.0,1.0,0.0,
1981.0,2060.0,2067.0,2027.0,1.0,0.0,
1996.0,2039.0,2048.0,2054.0,1.0,0.0,
2038.0,2004.0,2008.0,2083.0,1.0,0.0,
2082.0,1974.0,1996.0,2105.0,1.0,0.0,
2090.0,1997.0,1986.0,2098.0,1.0,0.0,
2069.0,1983.0,2057.0,2006.0,1.0,0.0,
2026.0,2049.0,2060.0,2059.0,1.0,0.0,
1985.0,1937.0,2058.0,2104.0,1.0,0.0,
1979.0,2048.0,2064.0,2094.0,0,0,
2004.0,2118.0,2065.0,1989.0,1.0,0.0,
2052.0,2105.0,2055.0,1983.0,1.0,0.0,
2087.0,2125.0,2054.0,2065.0,1.0,0.0,
2094.0,2135.0,2043.0,2019.0,1.0,0.0,
2056.0,2155.0,2037.0,2001.0,1.0,0.0,
2010.0,2109.0,2045.0,2048.0,1.0,0.0,
1978.0,2009.0,2050.0,1985.0,1.0,0.0,
1984.0,1989.0,2037.0,1992.0,1.0,0.0,
2032.0,2087.0,2031.0,2026.0,1.0,0.0,
2068.0,2225.0,2004.0,2040.0,1.0,0.0,
2094.0,2220.0,2019.0,2023.0,1.0,0.0,
2083.0,2072.0,2015.0,1938.0,1.0,0.0,
2040.0,1896.0,2005.0,2002.0,1.0,0.0,
1997.0,2031.0,2080.0,2057.0,1.0,0.0,
1969.0,2094.0,2058.0,2138.0,1.0,0.0,
1993.0,1996.0,2084.0,2029.0,1.0,0.0,
2035.0,2078.0,2024.0,2067.0,0.0,0.0,
2079.0,2208.0,2087.0,2137.0,1.0,0.0,
2096.0,2119.0,2073.0,2056.0,0.0,0,
2071.0,2094.0,2064.0,2002.0,0.0,0.0,
2028.0,1932.0,2024.0,2037.0,0.0,0.0,
1990.0,1838.0,2041.0,2144.0,0.0,0.0,
1979.0,2016.0,2042.0,2044.0,1.0,0.0,
2006.0,2071.0,2047.0,2007.0,0.0,0.0,
2050.0,2086.0,2019.0,2006.0,1.0,0.0,
2087.0,2096.0,2006.0,2008.0,1.0,0.0,
2091.0,2134.0,2016.0,2016.0,1.0,0.0,
2061.0,2145.0,2043.0,2021.0,1.0,0.0,
2015.0,2089.0,2034.0,2007.0,1.0,0.0,
1979.0,2079.0,2035.0,1978.0,1.0,0.0,
1983.0,2114.0,2056.0,2044.0,1.0,0.0,
2019.0,2065.0,2047.0,2128.0,0.0,0.0,
2063.0,2046.0,2044.0,2008.0,1.0,0.0,
2097.0,1944.0,2038.0,2006.0,1.0,0.0,
2087.0,2097.0,2027.0,2048.0,1.0,0.0,
2047.0,2104.0,2058.0,2033.0,1.0,0.0,
1999.0,2097.0,2026.0,2070.0,1.0,0.0,
1978.0,2015.0,1993.0,2081.0,1.0,0.0,
1994.0,2022.0,2012.0,2061.0,1.0,0.0,
2037.0,2077.0,2015.0,2058.0,1.0,0.0,
2076.0,2094.0,2059.0,2027.0,1.0,0.0,
2092.0,2106.0,2057.0,2003.0,1.0,0.0,
2077.0,2062.0,2034.0,1969.0,0.0,0.0,
2027.0,2036.0,2035.0,2065.0,0.0,0.0,
1989.0,2094.0,2040.0,2028.0,0.0,0.0,
1984.0,2105.0,2062.0,2028.0,0.0,0.0,
2002.0,2111.0,2047.0,2066.0,0.0,0.0,
2052.0,2043.0,2064.0,2049.0,0.0,0.0,
2083.0,2036.0,2064.0,2034.0,0.0,0.0,
2093.0,2110.0,2034.0,2026.0,0.0,0.0,
2061.0,2065.0,2021.0,2041.0,0.0,0.0,
2026.0,2025.0,2011.0,2015.0,0.0,0.0,
1981.0,2077.0,2009.0,2018.0,0.0,0.0,
1982.0,1964.0,2006.0,2108.0,0.0,0.0,
2014.0,2004.0,2078.0,2059.0,0.0,0.0,
2062.0,2069.0,2077.0,2045.0,0.0,0.0,
2092.0,2114.0,2054.0,2039.0,0.0,0.0,
2095.0,2140.0,2072.0,2030.0,0.0,0,
2051.0,2107.0,2054.0,2061.0,0.0,0.0,
2005.0,2078.0,2066.0,2072.0,0.0,0.0,
1978.0,2117.0,2038.0,2068.0,0.0,0.0,
1990.0,2001.0,1999.0,2042.0,0.0,0.0,
2029.0,2067.0,2014.0,1925.0,0.0,0.0,
2084.0,1996.0,2037.0,1952.0,0.0,0.0,
2098.0,2004.0,2063.0,2088.0,0.0,0.0,
2077.0,2077.0,2078.0,2066.0,0.0,0.0,
2033.0,2126.0,2047.0,2051.0,0.0,0.0,
1996.0,2155.0,2051.0,2008.0,1.0,0.0,
1978.0,2189.0,2046.0,1945.0,1.0,0.0,
2007.0,2210.0,2027.0,2046.0,1.0,0.0,
2045.0,2229.0,2037.0,1988.0,0.0,0.0,
2086.0,1951.0,2014.0,2058.0,0.0,0.0,
2091.0,1743.0,1989.0,2112.0,0.0,0.0,
2064.0,1843.0,2000.0,2188.0,0.0,0.0,
2017.0,1962.0,2002.0,2118.0,0.0,0.0,
1986.0,2044.0,2035.0,2080.0,0.0,-1.0,
1985.0,2069.0,2042.0,1971.0,0.0,-1.0,
2013.0,2099.0,2043.0,1978.0,0.0,-1.0,
2060.0,2136.0,2033.0,1992.0,0.0,-1.0,
2092.0,2202.0,2020.0,2025.0,0.0,-1.0,
2087.0,2135.0,2043.0,2018.0,0.0,-1.0,
2053.0,2067.0,2043.0,2029.0,0.0,-1.0,
2009.0,2080.0,2053.0,2017.0,0.0,-1.0,
1979.0,2098.0,2062.0,2052.0,0.0,-1.0,
1987.0,2093.0,2087.0,2017.0,0.0,-1.0,
2029.0,2108.0,2087.0,2084.0,0.0,0.0,
2071.0,2059.0,2034.0,2023.0,0.0,0.0,
2092.0,2039.0,2036.0,2018.0,0.0,0.0,
2084.0,2062.0,2061.0,2036.0,0.0,0.0,
2037.0,2074.0,2048.0,2025.0,0.0,0.0,
1996.0,2063.0,2037.0,2029.0,0.0,0.0,
1982.0,2025.0,2053.0,2032.0,0.0,0.0,
1996.0,2088.0,2042.0,2056.0,0.0,0.0,
2042.0,2056.0,2029.0,2134.0,0.0,0.0,
2086.0,2090.0,2016.0,2071.0,0.0,0.0,
2093.0,2124.0,1996.0,1986.0,0.0,0.0,
2069.0,2123.0,2003.0,1913.0,0.0,0.0,
2024.0,2024.0,1983.0,2011.0,0.0,0.0,
1986.0,2009.0,2000.0,2034.0,0.0,0.0,
1980.0,2040.0,2024.0,2065.0,0.0,0.0,
2011.0,2009.0,2042.0,2093.0,0.0,0.0,
2057.0,2040.0,2028.0,2119.0,0.0,0.0,
2095.0,2100.0,2020.0,2066.0,1.0,0.0,
2090.0,2101.0,2034.0,2032.0,0.0,0.0,
2055.0,2079.0,2034.0,2010.0,0.0,0.0,
2008.0,2035.0,2046.0,1998.0,0.0,0.0,
1986.0,2041.0,2039.0,2037.0,1.0,0.0,
1986.0,2104.0,2100.0,2111.0,1.0,0.0,
2026.0,2129.0,2063.0,2031.0,0.0,0.0,
2067.0,2092.0,2062.0,1999.0,0.0,0.0,
2094.0,2073.0,2024.0,1996.0,0.0,0.0,
2090.0,2018.0,2023.0,2031.0,0.0,0.0,
2050.0,2061.0,2016.0,2037.0,0.0,0.0,
1999.0,2095.0,2046.0,2044.0,0.0,0.0,
1977.0,2091.0,2026.0,2105.0,0.0,0.0,
1997.0,2008.0,2028.0,2005.0,0,0,
2035.0,2040.0,2031.0,1983.0,1.0,0.0,
2079.0,2008.0,2010.0,2073.0,0.0,0.0,
2096.0,2024.0,2035.0,2092.0,0.0,0.0,
2071.0,2023.0,2005.0,2114.0,0.0,0.0,
2027.0,2074.0,2036.0,2020.0,0.0,0.0,
1986.0,2187.0,2108.0,1991.0,0.0,0.0,
1979.0,2182.0,2094.0,2040.0,0.0,0.0,
2006.0,2078.0,2096.0,2056.0,0.0,0.0,
2053.0,2054.0,2077.0,2095.0,0.0,0.0,
2092.0,1905.0,2021.0,1997.0,0.0,0.0,
2093.0,2084.0,2010.0,1960.0,0.0,0.0,
2060.0,2065.0,2054.0,2018.0,0.0,0.0,
2015.0,2115.0,2033.0,2018.0,0.0,0.0,
1979.0,2160.0,2023.0,2035.0,0.0,0.0,
1987.0,2102.0,2026.0,2078.0,1.0,0.0,
2022.0,2041.0,2053.0,2037.0,0.0,0.0,
2067.0,2086.0,2056.0,2038.0,0.0,0.0,
2095.0,2107.0,2035.0,1986.0,0.0,0.0,
2088.0,2097.0,2057.0,2013.0,0.0,0.0,
2046.0,2056.0,2013.0,2075.0,0.0,0.0,
2006.0,1948.0,2054.0,2117.0,0.0,0.0,
1981.0,1969.0,2032.0,2019.0,0.0,0.0,
1995.0,2063.0,2029.0,2002.0,0.0,0.0,
2035.0,2125.0,2042.0,2017.0,0.0,0.0,
2074.0,2103.0,2053.0,2073.0,0.0,0.0,
2092.0,2089.0,2036.0,2081.0,0.0,0.0,
2076.0,1994.0,2019.0,2037.0,0.0,0.0,
2038.0,2049.0,2004.0,2039.0,0.0,0.0,
1991.0,2089.0,2016.0,2028.0,0,0,
1979.0,2110.0,2016.0,1991.0,0.0,0.0,
2004.0,2105.0,2026.0,1996.0,0.0,0.0,
2047.0,2078.0,2013.0,2033.0,0.0,0.0,
2087.0,2053.0,2014.0,2046.0,0.0,0.0,
2102.0,2087.0,2002.0,2063.0,0.0,0.0,
2066.0,2102.0,2019.0,2035.0,0.0,0.0,
2018.0,2078.0,2041.0,2101.0,0.0,0.0,
1982.0,2040.0,2065.0,2053.0,0.0,0.0,
1984.0,2115.0,2053.0,2015.0,0.0,0.0,
2016.0,2156.0,2037.0,1976.0,0.0,0.0,
2063.0,2088.0,2051.0,1969.0,0.0,0.0,
2098.0,1937.0,2035.0,2105.0,0.0,0.0,
2090.0,1897.0,2033.0,2215.0,0.0,0.0,
2045.0,2041.0,2059.0,2036.0,0.0,0.0,
2008.0,2090.0,2055.0,1954.0,0.0,0.0,
1980.0,2123.0,2086.0,2035.0,0.0,0.0,
1995.0,2150.0,2077.0,2042.0,0.0,0.0,
2031.0,2137.0,2045.0,1981.0,0.0,0.0,
2075.0,2054.0,2001.0,2004.0,0.0,0.0,
2096.0,1894.0,2014.0,2073.0,0.0,0.0,
2080.0,2071.0,2038.0,2042.0,0.0,0.0,
2042.0,2125.0,2057.0,2041.0,0.0,0.0,
1994.0,2137.0,2053.0,2036.0,0.0,0.0,
1981.0,2143.0,2026.0,2024.0,0.0,0.0,
2001.0,2111.0,2015.0,2035.0,0.0,0.0,
2045.0,1955.0,2001.0,2053.0,0.0,0.0,
2083.0,1971.0,2008.0,2015.0,0.0,0.0,
2092.0,1997.0,2022.0,2014.0,0.0,0.0,
2071.0,2187.0,2045.0,2082.0,0.0,0.0,
2025.0,2161.0,1988.0,2040.0,0.0,0.0,
1986.0,2045.0,2047.0,2050.0,0.0,0,
1982.0,2074.0,2073.0,2053.0,0.0,0.0,
2011.0,2072.0,2051.0,2085.0,0.0,0.0,
2059.0,2072.0,2035.0,2048.0,0.0,0.0,
2094.0,2005.0,2066.0,2077.0,0.0,0.0,
2091.0,1982.0,2093.0,1982.0,0.0,0.0,
2055.0,2013.0,2098.0,1978.0,0.0,0.0,
2008.0,2041.0,2061.0,2101.0,0.0,0.0,
1981.0,2093.0,2041.0,2106.0,0.0,0.0,
1986.0,2104.0,2041.0,2081.0,0.0,0.0,
2033.0,2129.0,2038.0,2048.0,0.0,0.0,
2074.0,2008.0,2003.0,2020.0,0.0,0.0,
2097.0,2064.0,2032.0,2055.0,0.0,0.0,
2081.0,2165.0,2038.0,1962.0,0.0,0.0,
2042.0,2178.0,2048.0,1924.0,0.0,0.0,
1997.0,2077.0,2019.0,2025.0,0.0,0.0,
1978.0,1914.0,2020.0,2117.0,0.0,0.0,
2005.0,2098.0,2075.0,1985.0,0,0,
2043.0,2053.0,2040.0,1939.0,0.0,0.0,
2082.0,1965.0,2027.0,2095.0,0.0,0.0,
2095.0,1916.0,2063.0,2169.0,0.0,0.0,
2069.0,2086.0,2053.0,2094.0,0.0,0.0,
2024.0,2080.0,2018.0,1974.0,0.0,0.0,
1994.0,2097.0,2061.0,1981.0,0.0,0.0,
1982.0,2116.0,2059.0,2022.0,0.0,0.0,
2011.0,2144.0,2037.0,2040.0,0.0,0.0,
2056.0,2128.0,2037.0,2009.0,0.0,0.0,
2091.0,2102.0,2032.0,2021.0,0.0,0.0,
2101.0,2062.0,2019.0,2041.0,0.0,0.0,
2065.0,2068.0,2027.0,2052.0,0.0,0.0,
2012.0,2046.0,2027.0,2071.0,0.0,0.0,
1979.0,2029.0,2043.0,2043.0,0.0,0.0,
1984.0,2072.0,2038.0,2040.0,0.0,0.0,
2025.0,2079.0,2047.0,2029.0,0.0,0.0,
2066.0,2092.0,2046.0,2029.0,0.0,0.0,
2094.0,2103.0,2041.0,2032.0,0.0,0.0,
2086.0,2081.0,2044.0,1994.0,0.0,0.0,
2043.0,2069.0,2026.0,1989.0,0.0,0.0,
1999.0,2117.0,2033.0,2031.0,0.0,0.0,
1976.0,2006.0,2025.0,2134.0,0.0,0.0,
1993.0,2032.0,2035.0,2078.0,0.0,0.0,
2039.0,2074.0,2065.0,2063.0,0.0,0.0,
2082.0,2057.0,2040.0,2062.0,0.0,0.0,
2095.0,2050.0,2061.0,2033.0,0.0,0.0,
2072.0,2045.0,2043.0,2014.0,0.0,0.0,
2027.0,2052.0,2039.0,2025.0,0.0,0.0,
1986.0,2093.0,2040.0,2015.0,0,0,
1980.0,2122.0,2064.0,2028.0,0.0,0.0,
2005.0,2175.0,2061.0,1980.0,0.0,0.0,
2053.0,2263.0,2045.0,1988.0,0.0,0.0,
2091.0,1929.0,2017.0,2025.0,0.0,0.0,
2093.0,1953.0,2012.0,2117.0,0.0,0.0,
2059.0,1843.0,2001.0,2097.0,0.0,0.0,
2015.0,1945.0,2032.0,2144.0,0.0,0.0,
1985.0,1995.0,2057.0,2049.0,0.0,0.0,
1986.0,2064.0,2043.0,2043.0,0.0,0.0,
2019.0,2060.0,2049.0,2035.0,0.0,0.0,
2066.0,2102.0,2061.0,2039.0,0.0,0.0,
2094.0,2131.0,2065.0,1999.0,0.0,0.0,
2088.0,2120.0,2093.0,1984.0,0.0,0.0,
2049.0,2082.0,2048.0,1958.0,0.0,0.0,
2000.0,2103.0,2068.0,2022.0,0.0,0.0,
1977.0,2101.0,2045.0,2072.0,0.0,0.0,
1995.0,2072.0,2044.0,2074.0,0.0,0.0,
2033.0,2142.0,2036.0,1997.0,0.0,0.0,
2077.0,2129.0,2029.0,2014.0,0.0,0.0,
2097.0,2104.0,2037.0,2062.0,0.0,0.0,
2073.0,2102.0,2035.0,2095.0,0.0,0,
2032.0,2097.0,2008.0,1977.0,0.0,0,
1993.0,2095.0,2028.0,1991.0,0.0,0.0,
1980.0,2048.0,2072.0,2100.0,0.0,0.0,
2001.0,1978.0,2045.0,2076.0,0.0,0.0,
2056.0,2024.0,2009.0,2023.0,0.0,0.0,
2090.0,2151.0,2029.0,2043.0,0.0,0.0,
2095.0,2099.0,2022.0,1987.0,0.0,0.0,
2066.0,1967.0,2007.0,1997.0,0.0,0.0,
2020.0,1818.0,2002.0,2130.0,0.0,0.0,
1982.0,1973.0,2080.0,2117.0,0.0,0.0,
1990.0,2048.0,2060.0,2063.0,0.0,0.0,
2015.0,2086.0,2042.0,1996.0,0.0,0.0,
2064.0,2143.0,2046.0,1976.0,0.0,0.0,
2094.0,2129.0,2034.0,2019.0,0.0,0.0,
2084.0,2076.0,2017.0,2050.0,0.0,0.0,
2051.0,2041.0,2021.0,2038.0,0.0,0.0,
2002.0,2114.0,2045.0,2022.0,0.0,0.0,
1981.0,2122.0,2039.0,2089.0,0.0,0.0,
1988.0,2098.0,2048.0,2065.0,0.0,0.0,
2027.0,2093.0,2033.0,2019.0,0.0,0.0,
2071.0,2105.0,2032.0,1978.0,0.0,0.0,
2095.0,2106.0,2071.0,1990.0,0.0,0.0,
2075.0,2089.0,2056.0,2013.0,0.0,0.0,
2039.0,2063.0,2048.0,2059.0,0.0,0.0,
1993.0,2054.0,2049.0,2007.0,0.0,0.0,
1981.0,2063.0,2068.0,2020.0,0.0,0.0,
2003.0,2096.0,2055.0,2032.0,0.0,0.0,
2044.0,2040.0,2021.0,2106.0,0.0,0.0,
2084.0,2071.0,2040.0,2070.0,0.0,0.0,
2093.0,2083.0,2011.0,2061.0,0.0,0.0,
2068.0,2053.0,2041.0,2028.0,0.0,0.0,
2020.0,2067.0,2023.0,2026.0,0.0,0.0,
1984.0,2083.0,2024.0,2067.0,0.0,0.0,
1982.0,2070.0,2023.0,2060.0,0.0,0.0,
2013.0,2084.0,2032.0,2066.0,0.0,0.0,
2060.0,2099.0,2054.0,2011.0,0.0,0.0,
2093.0,2106.0,2030.0,2002.0,0.0,0.0,
2092.0,1979.0,2040.0,2029.0,0.0,0.0,
2054.0,2013.0,2024.0,2105.0,0.0,0.0,
2007.0,1989.0,2045.0,2088.0,0.0,0.0,
1977.0,2028.0,2012.0,2039.0,0.0,0.0,
1991.0,2032.0,1991.0,2047.0,0.0,0.0,
2025.0,2086.0,2007.0,2040.0,0.0,0.0,
2070.0,2114.0,1995.0,2005.0,0.0,0.0,
2094.0,2147.0,2034.0,2029.0,0.0,0,
2083.0,2024.0,2047.0,1990.0,0.0,0.0,
2040.0,2032.0,2040.0,1965.0,0.0,0.0,
1997.0,2022.0,2020.0,2060.0,0.0,0.0,
1981.0,2067.0,2034.0,2065.0,0.0,0.0,
1998.0,2093.0,2054.0,2071.0,0.0,0.0,
2038.0,2055.0,2037.0,2055.0,0.0,0.0,
2080.0,2104.0,2015.0,2002.0,0.0,0.0,
2094.0,2108.0,2040.0,2001.0,0.0,0.0,
2069.0,2109.0,2054.0,2031.0,0.0,0.0,
2024.0,2096.0,2037.0,2112.0,0.0,0.0,
1984.0,2081.0,2057.0,2076.0,1.0,0.0,
1978.0,2034.0,2051.0,2019.0,1.0,0.0,
2010.0,2083.0,2053.0,1941.0,1.0,0.0,
2058.0,2013.0,2055.0,2043.0,1.0,0.0,
2091.0,2037.0,2062.0,2084.0,1.0,0.0,
2090.0,2108.0,2038.0,2047.0,0.0,0.0,
2057.0,2148.0,2034.0,2019.0,1.0,0.0,
2012.0,2131.0,2026.0,2017.0,1.0,0.0,
1975.0,2042.0,2024.0,2009.0,1.0,0.0,
1988.0,2051.0,2005.0,1980.0,1.0,0.0,
2024.0,2137.0,2107.0,2041.0,1.0,0.0,
2069.0,2076.0,2076.0,2137.0,1.0,0.0,
2095.0,2011.0,2085.0,2090.0,0.0,0.0,
2082.0,1986.0,2062.0,2062.0,1.0,0.0,
2044.0,1952.0,2033.0,2068.0,0.0,0.0,
1998.0,2047.0,2036.0,2065.0,0.0,0.0,
1987.0,2011.0,2061.0,2034.0,0.0,0.0,
1995.0,2016.0,2041.0,2025.0,0.0,0.0,
2038.0,2073.0,2048.0,2009.0,0.0,0.0,
2080.0,2095.0,2062.0,2032.0,0.0,0.0,
2095.0,2089.0,2048.0,2039.0,0.0,0.0,
2073.0,2109.0,2030.0,1985.0,0.0,0.0,
2029.0,2116.0,2029.0,2022.0,0.0,0.0,
1986.0,2094.0,2022.0,2013.0,0,0,
1979.0,2090.0,2023.0,2002.0,0.0,0.0,
2003.0,2119.0,2023.0,2012.0,0.0,0.0,
2051.0,2152.0,2017.0,2029.0,0.0,0.0,
2091.0,2096.0,2013.0,2117.0,0.0,0.0,
2091.0,1944.0,2001.0,2076.0,0.0,0.0,
2063.0,2058.0,2027.0,1994.0,0.0,0.0,
2015.0,2117.0,2010.0,2000.0,0.0,0,
1981.0,2075.0,2041.0,2066.0,0.0,0.0,
1986.0,2047.0,2026.0,2077.0,0.0,0.0,
2017.0,2044.0,2031.0,2031.0,0.0,0.0,
2063.0,2196.0,2007.0,2097.0,0.0,0.0,
2093.0,2116.0,2049.0,2077.0,0.0,0.0,
2082.0,1955.0,2072.0,2077.0,0.0,0.0,
2051.0,1958.0,2093.0,2032.0,0.0,0.0,
2002.0,1871.0,2082.0,1978.0,0.0,0.0,
1986.0,2028.0,2072.0,2076.0,0.0,0.0,
1992.0,2094.0,2029.0,2081.0,0.0,0.0,
2035.0,2106.0,2011.0,2029.0,0.0,0.0,
2076.0,2101.0,2029.0,1993.0,0.0,0.0,
2093.0,2113.0,2047.0,1975.0,0.0,0.0,
2075.0,2113.0,2040.0,2024.0,0.0,0.0,
2031.0,2123.0,2028.0,2003.0,0.0,0.0,
1989.0,2067.0,2028.0,2017.0,0.0,0.0,
1982.0,2078.0,2044.0,2050.0,0.0,0.0,
2005.0,2079.0,2041.0,2045.0,0.0,0.0,
2047.0,2037.0,2031.0,2034.0,0.0,0.0,
2085.0,2034.0,2037.0,1961.0,0.0,0.0,
2092.0,2058.0,2012.0,2020.0,0.0,0.0,
2062.0,2145.0,2040.0,2063.0,0.0,0.0,
2021.0,2113.0,2013.0,2157.0,0.0,0.0,
1982.0,2095.0,2023.0,2051.0,0.0,0.0,
1982.0,1949.0,1996.0,2030.0,0.0,0.0,
2015.0,1965.0,2008.0,2087.0,0.0,0.0,
2064.0,2082.0,2053.0,2057.0,0.0,0.0,
2092.0,2142.0,2090.0,2043.0,0.0,0.0,
2091.0,2136.0,2063.0,2003.0,0.0,0.0,
2051.0,2121.0,2040.0,1979.0,0.0,0.0,
2006.0,1983.0,2065.0,2044.0,0.0,0.0,
1978.0,2088.0,2112.0,2046.0,0.0,0.0,
1987.0,2064.0,2084.0,2085.0,0.0,0.0,
2028.0,2012.0,2076.0,2047.0,0.0,0.0,
2082.0,2066.0,2056.0,2005.0,0.0,0.0,
2093.0,2102.0,2023.0,2028.0,0.0,0.0,
2078.0,2085.0,2028.0,2036.0,0.0,0.0,
2035.0,2003.0,2022.0,2055.0,0.0,0.0,
1990.0,2036.0,2041.0,2041.0,0.0,0.0,
1976.0,2106.0,2049.0,2021.0,0.0,0.0,
1998.0,2106.0,2089.0,2012.0,0.0,0.0,
2047.0,2044.0,2065.0,2024.0,0.0,0.0,
2087.0,2045.0,2046.0,2017.0,0.0,0.0,
2091.0,2057.0,2015.0,2019.0,0,0,
2065.0,2100.0,1999.0,2055.0,0.0,0.0,
2021.0,2125.0,2027.0,2045.0,0.0,0.0,
1986.0,2076.0,2047.0,2044.0,0.0,0.0,
1980.0,1985.0,2055.0,2006.0,0.0,0.0,
2013.0,2023.0,2061.0,2048.0,0.0,0.0,
2061.0,2076.0,2023.0,2066.0,0.0,0.0,
2092.0,2061.0,2012.0,2119.0,0.0,0.0,
2084.0,2048.0,2069.0,2070.0,0.0,0.0,
2054.0,2083.0,2039.0,1979.0,0.0,0.0,
2012.0,2086.0,2040.0,2004.0,0.0,0.0,
1977.0,2097.0,2037.0,2017.0,0.0,0.0,
1988.0,2108.0,2038.0,2041.0,0.0,0.0,
2025.0,2120.0,2046.0,2065.0,0.0,0.0,
2069.0,2117.0,2031.0,1995.0,0.0,0.0,
2094.0,2087.0,1996.0,2020.0,0.0,0.0,
2086.0,2013.0,2013.0,2042.0,0.0,0.0,
2039.0,2029.0,2007.0,2065.0,0.0,0.0,
1998.0,2047.0,2008.0,2051.0,0.0,0.0,
1977.0,2043.0,1989.0,2001.0,0.0,0.0,
1996.0,2063.0,2005.0,1983.0,0.0,0.0,
2038.0,2057.0,1982.0,2066.0,0.0,0.0,
2086.0,1943.0,2068.0,2112.0,0.0,0.0,
2095.0,2084.0,2064.0,2082.0,0.0,0.0,
2072.0,2098.0,2049.0,2060.0,0.0,0.0,
2025.0,2045.0,2047.0,2081.0,0.0,0.0,
1986.0,2059.0,2031.0,2036.0,0,0,
1980.0,2065.0,2067.0,2016.0,0.0,0.0,
2016.0,2104.0,2063.0,2021.0,0.0,0.0,
2055.0,2114.0,2034.0,2028.0,0.0,0.0,
2094.0,2077.0,2028.0,1985.0,0.0,0.0,
2090.0,2107.0,2008.0,1986.0,0,0,
2058.0,2100.0,1995.0,2026.0,0.0,0.0,
1997.0,1978.0,1994.0,2090.0,0.0,0.0,
1980.0,2023.0,2033.0,2100.0,0.0,0.0,
1986.0,2101.0,2021.0,2023.0,0.0,0.0,
2023.0,2125.0,2037.0,2007.0,0.0,0.0,
2067.0,2079.0,2036.0,1994.0,0.0,0.0,
2095.0,2070.0,2085.0,2039.0,0.0,0.0,
2081.0,1992.0,2098.0,2053.0,0.0,0.0,
2042.0,2051.0,2070.0,2083.0,0.0,0.0,
2001.0,2118.0,2031.0,2052.0,0.0,0.0,
1977.0,2112.0,2046.0,2020.0,0.0,0.0,
1994.0,2121.0,2043.0,1989.0,0,0,
2034.0,2026.0,2043.0,1996.0,0.0,0.0,
2077.0,2114.0,2038.0,2054.0,0.0,0.0,
2095.0,2066.0,2039.0,2088.0,0.0,0.0,
2076.0,2001.0,2025.0,2055.0,0.0,0.0,
2029.0,1937.0,2014.0,2054.0,0.0,0.0,
1988.0,2056.0,2053.0,2011.0,0.0,0.0,
1978.0,2047.0,2045.0,2032.0,0.0,0.0,
2006.0,2024.0,2042.0,2071.0,0.0,0.0,
2050.0,2077.0,2092.0,2053.0,0.0,0.0,
2092.0,2128.0,2078.0,2061.0,0.0,0.0,
2092.0,2100.0,2076.0,2020.0,0.0,0.0,
2061.0,2106.0,2086.0,2018.0,0.0,0.0,
2016.0,2127.0,2073.0,2014.0,0.0,0.0,
1981.0,2131.0,2047.0,2001.0,0.0,0.0,
1979.0,2061.0,2033.0,1994.0,0.0,0.0,
2022.0,2051.0,2043.0,1995.0,0.0,0.0,
2065.0,2048.0,2036.0,2099.0,0.0,0.0,
2093.0,2059.0,2043.0,2116.0,0.0,0.0,
2086.0,2066.0,2048.0,2074.0,0.0,0.0,
2046.0,2118.0,2026.0,2034.0,0.0,0.0,
2001.0,2069.0,2053.0,1939.0,0.0,0.0,
1982.0,1986.0,2049.0,2040.0,0.0,0.0,
1991.0,1977.0,2029.0,2095.0,0.0,0.0,
2030.0,2025.0,2000.0,2076.0,0.0,0.0,
2074.0,2056.0,1997.0,2040.0,0.0,0.0,
2095.0,2104.0,2017.0,2002.0,0.0,0.0,
2064.0,2087.0,2037.0,2017.0,0.0,0.0,
2034.0,2095.0,2066.0,2026.0,0.0,0.0,
1995.0,2091.0,2019.0,2045.0,0.0,0.0,
1980.0,2049.0,2040.0,2032.0,0.0,0.0,
2000.0,2062.0,2037.0,2089.0,0,0,
2046.0,2117.0,2031.0,1999.0,0.0,0.0,
2089.0,2198.0,2022.0,1970.0,0.0,0.0,
2093.0,2137.0,2006.0,1959.0,0.0,0.0,
2067.0,1905.0,2019.0,2053.0,0.0,0.0,
2022.0,1943.0,2010.0,2077.0,0.0,0.0,
1984.0,2010.0,2028.0,2116.0,0.0,0.0,
1982.0,2033.0,2058.0,2140.0,0.0,0.0,
2016.0,2072.0,2039.0,2091.0,0.0,0.0,
2057.0,2084.0,2057.0,2013.0,0.0,0.0,
2093.0,2051.0,2049.0,2008.0,0.0,0.0,
2090.0,2077.0,2086.0,2019.0,0.0,0.0,
2050.0,2094.0,2094.0,2025.0,0.0,0.0,
2015.0,2091.0,2068.0,1992.0,0.0,0.0,
1979.0,2034.0,2047.0,2009.0,0.0,0.0,
1988.0,2077.0,2046.0,2045.0,0.0,0.0,
2030.0,2114.0,2031.0,2030.0,0.0,0.0,
2072.0,2079.0,2033.0,2061.0,0.0,0.0,
2099.0,2064.0,2074.0,2018.0,0.0,0.0,
2077.0,2109.0,2065.0,2009.0,0.0,0.0,
2037.0,2078.0,2026.0,2052.0,0.0,0.0,
1994.0,2077.0,2014.0,2039.0,0.0,0.0,
1985.0,2101.0,2010.0,2024.0,0.0,0.0,
2001.0,2026.0,2039.0,2012.0,0.0,0.0,
2040.0,2058.0,2090.0,2055.0,0.0,0.0,
2082.0,2022.0,2080.0,2054.0,0.0,0.0,
2094.0,2086.0,2047.0,2027.0,0.0,0.0,
2068.0,2028.0,2041.0,2111.0,0.0,0.0,
2025.0,2111.0,2081.0,2097.0,0.0,0.0,
1988.0,2071.0,2048.0,2017.0,0.0,0.0,
1981.0,2072.0,2054.0,1999.0,0.0,0.0,
2010.0,2023.0,2039.0,2075.0,0.0,0.0,
2051.0,2044.0,2010.0,2018.0,0.0,0.0,
2090.0,2058.0,2000.0,1984.0,0.0,0.0,
2089.0,2083.0,1985.0,1998.0,0.0,0.0,
2057.0,2112.0,1967.0,2025.0,0.0,0.0,
2011.0,2032.0,1984.0,2117.0,0.0,0.0,
1979.0,2106.0,2038.0,2020.0,0.0,0.0,
1986.0,2093.0,2096.0,2115.0,0.0,0.0,
2022.0,2017.0,2054.0,2061.0,0.0,0.0,
2070.0,2124.0,2040.0,1997.0,0.0,0.0,
2098.0,2136.0,2001.0,1932.0,0.0,0.0,
2083.0,1920.0,1980.0,1981.0,0.0,0.0,
2044.0,2054.0,1968.0,2027.0,0.0,0.0,
1998.0,2275.0,2022.0,2092.0,0.0,0.0,
1975.0,2232.0,2112.0,2163.0,0.0,0.0,
1993.0,2126.0,2116.0,2073.0,0.0,0.0,
2039.0,1815.0,2089.0,2154.0,0.0,0.0,
2080.0,1798.0,2032.0,2033.0,0.0,0.0,
2095.0,2025.0,2011.0,1945.0,0.0,0.0,
2074.0,2054.0,1989.0,1892.0,0.0,0.0,
2027.0,1983.0,1961.0,2065.0,0.0,0.0,
1989.0,2112.0,1988.0,2117.0,0.0,0.0,
1983.0,2188.0,2100.0,2139.0,0.0,0.0,
2008.0,2059.0,2070.0,2065.0,0.0,0.0,
2052.0,2010.0,2024.0,2009.0,0.0,0.0,
2086.0,2095.0,1940.0,1959.0,0.0,0.0,
2089.0,2122.0,1984.0,1925.0,0.0,0.0,
2061.0,2151.0,2030.0,1905.0,0.0,0.0,
2015.0,2190.0,2037.0,2070.0,0.0,0.0,
1981.0,2144.0,2114.0,2092.0,0.0,0.0,
1983.0,2140.0,2123.0,2017.0,0.0,0.0,
2020.0,2141.0,2045.0,2002.0,0.0,0.0,
2065.0,1982.0,1997.0,2069.0,0.0,0.0,
2096.0,1965.0,1991.0,2117.0,0.0,0.0,
2089.0,1975.0,2117.0,2034.0,0.0,0.0,
2047.0,1994.0,2080.0,2068.0,0.0,0.0,
1999.0,2082.0,2046.0,2056.0,0.0,0.0,
1979.0,1979.0,1987.0,2022.0,0.0,0.0,
1990.0,2050.0,2051.0,1953.0,0.0,0.0,
2031.0,2055.0,2007.0,2043.0,0.0,0.0,
2079.0,2145.0,1995.0,2087.0,0.0,0.0,
2093.0,2118.0,1977.0,2082.0,0.0,0.0,
2075.0,2096.0,1941.0,1997.0,0.0,0.0,
2034.0,2089.0,2082.0,2026.0,0.0,0.0,
1987.0,2032.0,2171.0,2025.0,0.0,0.0,
1982.0,2149.0,2243.0,1897.0,0.0,1.0,
2011.0,1989.0,2172.0,2036.0,0.0,1.0,
2054.0,1880.0,2091.0,2292.0,0.0,1.0,
2090.0,1986.0,2019.0,2203.0,0.0,1.0,
2093.0,2195.0,1961.0,2094.0,0.0,1.0,
2062.0,2219.0,2002.0,1878.0,0.0,1.0,
2018.0,2188.0,1915.0,2023.0,0.0,1.0,
1988.0,2003.0,2036.0,2146.0,0.0,1.0,
1983.0,1943.0,2027.0,2083.0,0.0,1.0,
2016.0,1733.0,2046.0,1969.0,0.0,1.0,
2061.0,2043.0,2152.0,1974.0,0.0,1.0,
2092.0,2119.0,2084.0,1950.0,0.0,0.0,
2086.0,2163.0,2049.0,1903.0,0.0,0.0,
2055.0,2299.0,2054.0,1934.0,0.0,0.0,
2004.0,2256.0,1971.0,2051.0,0.0,0.0,
1976.0,2074.0,1892.0,2175.0,0.0,0.0,
1990.0,1893.0,1934.0,2192.0,0.0,0.0,
2029.0,1844.0,1932.0,2138.0,0.0,0.0,
2077.0,2032.0,2112.0,1958.0,0.0,-1.0,
2102.0,2086.0,2112.0,1904.0,0.0,-1.0,
2076.0,2187.0,2111.0,1790.0,0.0,-1.0,
2037.0,2196.0,2041.0,1835.0,0.0,-1.0,
1991.0,2192.0,2109.0,2096.0,0.0,-1.0,
1977.0,2110.0,1997.0,2209.0,0.0,-1.0,
2001.0,1825.0,2016.0,2387.0,0.0,-1.0,
2050.0,2127.0,2025.0,2085.0,0.0,-1.0,
2086.0,1968.0,2001.0,2058.0,0.0,-1.0,
2095.0,2115.0,2030.0,1932.0,0.0,-1.0,
2063.0,2207.0,2049.0,1761.0,0.0,-1.0,
2020.0,2121.0,2063.0,1909.0,0.0,-1.0,
1983.0,1948.0,2014.0,2256.0,0.0,-1.0,
1989.0,1765.0,2013.0,2490.0,0.0,-1.0,
2015.0,1912.0,2066.0,1929.0,1.0,0.0,
2062.0,1966.0,2035.0,1886.0,1.0,0.0,
2090.0,2180.0,1996.0,2007.0,1.0,0.0,
2085.0,2319.0,2053.0,2042.0,0,0,
2053.0,2051.0,2039.0,2060.0,1.0,0.0,
2010.0,2325.0,2050.0,2009.0,2.0,0.0,
1980.0,1975.0,2008.0,1990.0,2.0,0.0,
1990.0,2037.0,2025.0,1915.0,2.0,0.0,
2028.0,1908.0,2005.0,2021.0,2.0,1.0,
2073.0,1837.0,2042.0,2105.0,2.0,1.0,
2091.0,2099.0,2025.0,2095.0,3.0,1.0,
2088.0,2131.0,2105.0,1723.0,3.0,1.0,
2036.0,2169.0,2099.0,1911.0,3.0,1.0,
1994.0,1876.0,1935.0,2125.0,3.0,1.0,
1978.0,1939.0,2065.0,2104.0,3.0,1.0,
2003.0,2122.0,1947.0,2268.0,3.0,1.0,
2042.0,2318.0,1993.0,2042.0,3.0,1.0,
2099.0,2063.0,2044.0,2107.0,3.0,0.0,
2093.0,2012.0,2191.0,2297.0,4.0,0.0,
2065.0,2145.0,2016.0,1982.0,4.0,0.0,
2019.0,2057.0,2051.0,2061.0,4.0,0.0,
1982.0,1963.0,2017.0,1937.0,4.0,0.0,
1977.0,1980.0,2049.0,1864.0,4.0,0.0,
2016.0,2352.0,2067.0,2030.0,4.0,0.0,
2060.0,2336.0,2072.0,2207.0,4.0,-1.0,
2092.0,2229.0,2081.0,2168.0,5.0,-1.0,
2087.0,1855.0,1952.0,1895.0,5.0,-1.0,
2052.0,1894.0,1953.0,1795.0,5.0,-1.0,
2007.0,2013.0,1947.0,1958.0,6.0,-1.0,
1982.0,2027.0,2029.0,1804.0,6.0,-1.0,
1990.0,2068.0,2201.0,1855.0,6.0,-1.0,
2029.0,2153.0,2099.0,2139.0,7.0,-1.0,
2075.0,2080.0,2055.0,2415.0,7.0,-2.0,
2094.0,2137.0,2160.0,2030.0,7.0,-2.0,
2076.0,2206.0,2068.0,1879.0,7.0,-1.0,
2037.0,2084.0,2064.0,1900.0,8.0,-1.0,
1994.0,1643.0,1931.0,2499.0,8.0,-1.0,
1979.0,1649.0,1923.0,2259.0,8.0,-1.0,
1999.0,1994.0,2029.0,1832.0,9.0,-1.0,
2041.0,2045.0,2061.0,1813.0,9.0,-1.0,
2085.0,2212.0,2009.0,2232.0,9.0,-1.0,
2098.0,2346.0,2059.0,2182.0,10.0,0.0,
2068.0,2107.0,2040.0,2132.0,10.0,0.0,
2021.0,2094.0,1961.0,1893.0,10.0,0.0,
1982.0,2140.0,2022.0,1871.0,10.0,0.0,
1983.0,2253.0,2034.0,1751.0,10.0,0.0,
2010.0,1871.0,2007.0,1948.0,0,0,
2061.0,2053.0,2163.0,2085.0,11.0,0.0,
2099.0,2223.0,2078.0,2060.0,11.0,0.0,
2091.0,2141.0,2262.0,1853.0,11.0,1.0,
2055.0,1825.0,1990.0,2126.0,11.0,1.0,
2009.0,1916.0,2007.0,2203.0,11.0,1.0,
1981.0,1994.0,1988.0,2056.0,11.0,1.0,
1990.0,2124.0,1981.0,2138.0,12.0,1.0,
2030.0,1969.0,1920.0,2228.0,12.0,1.0,
2073.0,2096.0,2035.0,1939.0,12.0,1.0,
2097.0,2134.0,2088.0,2106.0,12.0,0.0,
2084.0,1989.0,1997.0,2209.0,12.0,0.0,
2034.0,2140.0,2085.0,1963.0,12.0,0.0,
2002.0,2339.0,2092.0,1979.0,13.0,0.0,
1981.0,2226.0,2149.0,1971.0,13.0,0.0,
1997.0,1991.0,1985.0,1858.0,13.0,-1.0,
2038.0,1869.0,1982.0,1990.0,13.0,-1.0,
2083.0,2194.0,1954.0,1948.0,13.0,-1.0,
2093.0,2199.0,1921.0,2151.0,14.0,-1.0,
2077.0,2006.0,2107.0,2332.0,14.0,-1.0,
2027.0,1613.0,2167.0,1917.0,14.0,-2.0,
1986.0,1933.0,2109.0,1835.0,14.0,-2.0,
1978.0,1917.0,2008.0,2087.0,14.0,-2.0,
2013.0,2024.0,1960.0,2014.0,15.0,-2.0,
2059.0,2046.0,1849.0,2157.0,15.0,-2.0,
2097.0,2251.0,2198.0,2038.0,15.0,-2.0,
2089.0,2235.0,2192.0,1933.0,15.0,-2.0,
2063.0,2229.0,2078.0,2028.0,16.0,-2.0,
2008.0,2449.0,2026.0,2007.0,16.0,-2.0,
1979.0,2297.0,1984.0,2032.0,16.0,-2.0,
1985.0,1998.0,1885.0,2248.0,16.0,-2.0,
2028.0,1838.0,1914.0,2083.0,16.0,-2.0,
2070.0,1974.0,1820.0,1859.0,17.0,-2.0,
2093.0,2007.0,1972.0,1891.0,17.0,-2.0,
2082.0,2076.0,2362.0,2048.0,17.0,-2.0,
2040.0,2006.0,2094.0,2198.0,17.0,-2.0,
2000.0,2164.0,2150.0,2199.0,17.0,-2.0,
1980.0,2218.0,2094.0,1779.0,18.0,-2.0,
1997.0,1749.0,2201.0,2080.0,18.0,-1.0,
2040.0,1835.0,2170.0,2286.0,18.0,-1.0,
2081.0,2015.0,1919.0,2229.0,18.0,-1.0,
2095.0,1981.0,1982.0,1890.0,18.0,-1.0,
2068.0,2038.0,2078.0,2096.0,18.0,-1.0,
2027.0,2030.0,2002.0,1889.0,19.0,-1.0,
1986.0,1970.0,2015.0,1893.0,19.0,-1.0,
1980.0,2460.0,1978.0,2249.0,19.0,-1.0,
2008.0,2497.0,1929.0,2013.0,19.0,-1.0,
2059.0,2383.0,2120.0,1890.0,19.0,-1.0,
2091.0,1999.0,2181.0,2020.0,19.0,-1.0,
2090.0,1789.0,2077.0,1988.0,19.0,-1.0,
2056.0,1828.0,1962.0,2005.0,19.0,-1.0,
2007.0,2057.0,2081.0,2098.0,19.0,-1.0,
1980.0,2156.0,1993.0,2251.0,20.0,-1.0,
1985.0,2190.0,1996.0,1900.0,20.0,-1.0,
2038.0,2072.0,2041.0,2184.0,20.0,-1.0,
2072.0,2040.0,1977.0,1951.0,20.0,-1.0,
2096.0,1943.0,1979.0,1804.0,21.0,-1.0,
2083.0,2270.0,2005.0,1873.0,21.0,-2.0,
2038.0,2245.0,2116.0,2066.0,21.0,-2.0,
1998.0,1844.0,1931.0,2119.0,21.0,-2.0,
1988.0,1990.0,1912.0,2462.0,21.0,-2.0,
1997.0,1861.0,1806.0,2271.0,21.0,-2.0,
2036.0,2086.0,1826.0,1875.0,21.0,-2.0,
2081.0,2044.0,2258.0,1928.0,22.0,-2.0,
2092.0,1859.0,2442.0,2043.0,22.0,-2.0,
2069.0,2258.0,2182.0,1860.0,22.0,-2.0,
2035.0,2063.0,2095.0,1998.0,22.0,-2.0,
1986.0,1909.0,1971.0,2243.0,22.0,-2.0,
1984.0,2171.0,2076.0,1980.0,23.0,-2.0,
2006.0,2082.0,2060.0,2027.0,23.0,-2.0,
2054.0,2184.0,2016.0,2007.0,23.0,-2.0,
2089.0,2184.0,1907.0,1786.0,23.0,-2.0,
2097.0,2179.0,1817.0,1694.0,23.0,-2.0,
2058.0,2062.0,2184.0,2112.0,23.0,-2.0,
2014.0,2026.0,2016.0,2292.0,23.0,-2.0,
1979.0,1914.0,2156.0,2191.0,23.0,-2.0,
1989.0,1897.0,2001.0,2295.0,23.0,-2.0,
2022.0,2249.0,1935.0,1816.0,23.0,-1.0,
2073.0,2264.0,1999.0,1691.0,24.0,-1.0,
2096.0,2088.0,2226.0,2094.0,24.0,-1.0,
2084.0,1795.0,2184.0,2817.0,24.0,-1.0,
2042.0,2025.0,2055.0,1701.0,24.0,-1.0,
2001.0,1885.0,1961.0,1762.0,24.0,-1.0,
1980.0,1980.0,1962.0,2079.0,24.0,-1.0,
1999.0,2287.0,2015.0,2028.0,24.0,-1.0,
2041.0,2328.0,2082.0,1884.0,24.0,-1.0,
2080.0,2255.0,2002.0,2166.0,25.0,-1.0,
2096.0,2122.0,2045.0,2281.0,25.0,-1.0,
2070.0,1831.0,2081.0,2222.0,25.0,-1.0,
2025.0,1971.0,1959.0,1973.0,25.0,-1.0,
1991.0,2062.0,2086.0,2120.0,25.0,-1.0,
1980.0,2016.0,2031.0,1894.0,25.0,-1.0,
2005.0,1988.0,2107.0,2025.0,25.0,-1.0,
2056.0,2130.0,1869.0,2103.0,25.0,-1.0,
2090.0,2429.0,1839.0,1992.0,25.0,-1.0,
2091.0,2435.0,2180.0,1755.0,25.0,-1.0,
2059.0,1780.0,2107.0,2288.0,26.0,-1.0,
2014.0,1707.0,2086.0,2280.0,26.0,-1.0,
1980.0,1879.0,1982.0,2192.0,26.0,-1.0,
1986.0,2105.0,2056.0,1803.0,26.0,-1.0,
2025.0,2230.0,2154.0,1818.0,26.0,-1.0,
2070.0,2037.0,2029.0,2023.0,26.0,-1.0,
2096.0,2178.0,2009.0,2239.0,26.0,-1.0,
2085.0,2260.0,2003.0,2014.0,26.0,-1.0,
2045.0,1806.0,1774.0,2356.0,26.0,-1.0,
2000.0,1932.0,2065.0,1982.0,26.0,-1.0,
1984.0,2203.0,2141.0,1747.0,27.0,-1.0,
1993.0,2169.0,2031.0,2044.0,27.0,-1.0,
2042.0,2126.0,2050.0,2077.0,27.0,-1.0,
2081.0,2147.0,2053.0,2085.0,27.0,-1.0,
2099.0,2043.0,2112.0,1734.0,27.0,-1.0,
2071.0,2014.0,2089.0,2094.0,27.0,-1.0,
2029.0,2085.0,2006.0,2243.0,27.0,-1.0,
1989.0,2119.0,2105.0,1959.0,27.0,-1.0,
1978.0,1942.0,2023.0,2206.0,27.0,-1.0,
2009.0,2260.0,2105.0,1934.0,27.0,-1.0,
2058.0,2212.0,2073.0,2221.0,27.0,-1.0,
2092.0,1715.0,2053.0,2020.0,27.0,-1.0,
2093.0,2196.0,1770.0,1803.0,27.0,-1.0,
2061.0,1897.0,1955.0,2083.0,27.0,-1.0,
2014.0,1949.0,2029.0,2229.0,28.0,-1.0,
1984.0,1857.0,2134.0,1927.0,28.0,-1.0,
1986.0,2104.0,2071.0,1836.0,28.0,-1.0,
2018.0,1922.0,1915.0,2191.0,28.0,-1.0,
2066.0,2022.0,1946.0,2424.0,28.0,-1.0,
2093.0,2374.0,1836.0,2025.0,28.0,-1.0,
2088.0,2211.0,2049.0,2151.0,28.0,-1.0,
2047.0,2474.0,2222.0,1961.0,28.0,-1.0,
2003.0,2021.0,2043.0,1971.0,28.0,-2.0,
1979.0,1644.0,2038.0,1879.0,28.0,-2.0,
1990.0,1890.0,2281.0,2252.0,28.0,-2.0,
2035.0,1995.0,2135.0,1935.0,28.0,-1.0,
2084.0,1956.0,2065.0,1990.0,28.0,-1.0,
2094.0,2174.0,2001.0,2101.0,28.0,-1.0,
2075.0,1995.0,1952.0,1844.0,28.0,-1.0,
2030.0,2048.0,1953.0,2215.0,28.0,-1.0,
1990.0,2225.0,1964.0,1977.0,28.0,-1.0,
1978.0,2129.0,1939.0,1795.0,28.0,-1.0,
2005.0,1861.0,2033.0,1978.0,28.0,-1.0,
2053.0,2041.0,2121.0,2075.0,28.0,-1.0,
2088.0,2242.0,2176.0,1946.0,28.0,-1.0,
2097.0,1942.0,2145.0,2359.0,28.0,-1.0,
2061.0,2184.0,2183.0,2189.0,28.0,-1.0,
2014.0,2133.0,2072.0,1910.0,28.0,-1.0,
1985.0,2120.0,1985.0,2244.0,28.0,-1.0,
1985.0,2137.0,1959.0,1970.0,29.0,-1.0,
2017.0,2225.0,1947.0,1874.0,29.0,-1.0,
2066.0,2204.0,1799.0,1957.0,29.0,-1.0,
2094.0,1883.0,1854.0,2046.0,29.0,-1.0,
2085.0,1941.0,2252.0,1922.0,28.0,-1.0,
2049.0,2179.0,2090.0,1963.0,29.0,-1.0,
2005.0,2107.0,2102.0,2098.0,28.0,-2.0,
1977.0,1884.0,2137.0,1999.0,29.0,-2.0,
1996.0,1948.0,2052.0,2284.0,28.0,-2.0,
2034.0,2107.0,2020.0,2095.0,28.0,-2.0,
2072.0,1991.0,2045.0,2016.0,29.0,-2.0,
2097.0,2104.0,2072.0,1619.0,29.0,-2.0,
2075.0,1988.0,2084.0,1990.0,29.0,-2.0,
2037.0,2366.0,1996.0,2373.0,29.0,-2.0,
1992.0,2130.0,1908.0,2241.0,29.0,-2.0,
1981.0,1907.0,1900.0,2202.0,29.0,-2.0,
2003.0,1823.0,1774.0,1962.0,29.0,-2.0,
2051.0,2274.0,2270.0,1924.0,29.0,-2.0,
2091.0,2294.0,2160.0,1639.0,29.0,-2.0,
2092.0,1914.0,1958.0,2138.0,29.0,-2.0,
2065.0,2093.0,2067.0,2090.0,29.0,-2.0,
2019.0,1670.0,2049.0,1996.0,0,0,
1983.0,2083.0,2115.0,2177.0,29.0,-2.0,
1988.0,2127.0,1924.0,2093.0,29.0,-2.0,
2014.0,2164.0,2127.0,2133.0,29.0,-2.0,
2059.0,1960.0,2144.0,2011.0,29.0,-2.0,
2091.0,2179.0,2258.0,1986.0,29.0,-2.0,
2089.0,2124.0,1959.0,1903.0,29.0,-2.0,
2054.0,2199.0,1902.0,1968.0,29.0,-2.0,
2014.0,1927.0,2007.0,2329.0,30.0,-2.0,
1982.0,1913.0,2123.0,2061.0,30.0,-2.0,
1989.0,2035.0,2041.0,2024.0,29.0,-2.0,
2029.0,2219.0,2098.0,2132.0,29.0,-2.0,
2075.0,2202.0,2185.0,1860.0,29.0,-2.0,
2097.0,1995.0,2070.0,2125.0,29.0,-2.0,
2086.0,1941.0,2063.0,2274.0,0,0,
2039.0,2319.0,1937.0,1541.0,29.0,-2.0,
1994.0,2423.0,2156.0,1936.0,29.0,-2.0,
1982.0,1670.0,1931.0,2207.0,29.0,-2.0,
2003.0,1874.0,1967.0,2414.0,29.0,-2.0,
2046.0,2031.0,1898.0,1806.0,30.0,-2.0,
2092.0,2043.0,2005.0,1803.0,30.0,-2.0,
2094.0,2205.0,1889.0,1985.0,29.0,-2.0,
2071.0,2028.0,1983.0,2363.0,30.0,-2.0,
2021.0,2148.0,2133.0,1914.0,30.0,-2.0,
1985.0,2179.0,2050.0,1991.0,30.0,-2.0,
1984.0,1914.0,1970.0,2086.0,30.0,-2.0,
2021.0,1895.0,2129.0,2162.0,30.0,-2.0,
2062.0,2235.0,2142.0,1943.0,30.0,-2.0,
2095.0,1977.0,2022.0,2063.0,30.0,-2.0,
2087.0,2092.0,2033.0,2284.0,30.0,-2.0,
2057.0,2175.0,1973.0,1941.0,30.0,-2.0,
2006.0,2196.0,2067.0,2034.0,30.0,-2.0,
1979.0,1962.0,1959.0,2250.0,30.0,-2.0,
1988.0,2036.0,1946.0,1855.0,30.0,-2.0,
2026.0,2096.0,2090.0,1909.0,30.0,-2.0,
2070.0,1923.0,2120.0,2247.0,31.0,-2.0,
2097.0,2046.0,2154.0,1978.0,30.0,-2.0,
2078.0,1983.0,2075.0,1990.0,31.0,-2.0,
2041.0,2038.0,2060.0,1955.0,30.0,-2.0,
1991.0,2131.0,1959.0,2042.0,30.0,-2.0,
1979.0,1835.0,1897.0,2136.0,30.0,-2.0,
1994.0,2082.0,2129.0,2267.0,31.0,-2.0,
2041.0,2134.0,2139.0,1564.0,31.0,-2.0,
2080.0,2195.0,2050.0,1902.0,30.0,-2.0,
2094.0,1835.0,2065.0,2308.0,31.0,-2.0,
2071.0,2210.0,1874.0,2191.0,31.0,-2.0,
2024.0,2234.0,1844.0,2107.0,30.0,-2.0,
1984.0,2212.0,1724.0,1899.0,30.0,-2.0,
1981.0,2092.0,2222.0,2002.0,0,0,
2008.0,1850.0,2402.0,2362.0,30.0,-2.0,
2053.0,2238.0,2231.0,2072.0,30.0,-2.0,
2093.0,2462.0,2168.0,2006.0,30.0,-2.0,
2091.0,1818.0,1883.0,2011.0,30.0,-2.0,
2057.0,1598.0,1924.0,1851.0,30.0,-2.0,
2010.0,1923.0,2052.0,2101.0,30.0,-2.0,
1976.0,2150.0,2051.0,2186.0,30.0,-2.0,
1984.0,2023.0,2039.0,2063.0,30.0,-2.0,
2025.0,1977.0,1985.0,1945.0,30.0,-2.0,
2069.0,1893.0,1996.0,1995.0,30.0,-2.0,
2097.0,2090.0,1976.0,2053.0,30.0,-2.0,
2082.0,2168.0,1985.0,1837.0,30.0,-2.0,
2044.0,2293.0,1979.0,1993.0,30.0,-2.0,
1999.0,2158.0,1940.0,2190.0,30.0,-2.0,
1980.0,2018.0,2098.0,2237.0,30.0,-2.0,
1995.0,2164.0,2148.0,2279.0,30.0,-2.0,
2038.0,2127.0,2010.0,1793.0,31.0,-2.0,
2079.0,2022.0,1889.0,2054.0,31.0,-2.0,
2090.0,2069.0,2048.0,1715.0,31.0,-2.0,
2072.0,2113.0,2024.0,2045.0,31.0,-2.0,
2027.0,2015.0,1995.0,2101.0,0,0,
1985.0,2096.0,2063.0,2168.0,31.0,-2.0,
1968.0,2241.0,2122.0,1993.0,31.0,-2.0,
2007.0,1971.0,2069.0,1984.0,31.0,-2.0,
2053.0,2292.0,2063.0,1931.0,31.0,-2.0,
2088.0,1882.0,2029.0,1948.0,31.0,-2.0,
2093.0,2058.0,1819.0,1977.0,31.0,-2.0,
2061.0,1866.0,1901.0,2053.0,31.0,-2.0,
2013.0,2131.0,2101.0,2180.0,31.0,-2.0,
1982.0,2262.0,2307.0,2448.0,31.0,-2.0,
1985.0,1786.0,2006.0,1912.0,30.0,-2.0,
2022.0,1940.0,2068.0,1914.0,31.0,-2.0,
2071.0,2081.0,2028.0,1793.0,31.0,-2.0,
2097.0,1987.0,1951.0,2078.0,31.0,-2.0,
2085.0,2283.0,2259.0,2285.0,0,0,
2046.0,2234.0,1827.0,1927.0,31.0,-2.0,
1997.0,2095.0,1786.0,1941.0,31.0,-2.0,
1976.0,1954.0,2159.0,2500.0,31.0,-2.0,
1994.0,2043.0,2231.0,1944.0,31.0,-2.0,
2037.0,1936.0,1990.0,1866.0,31.0,-2.0,
2079.0,2191.0,1974.0,1941.0,30.0,-2.0,
2096.0,2124.0,2158.0,2131.0,30.0,-2.0,
2076.0,2333.0,1923.0,1865.0,30.0,-2.0,
2030.0,2134.0,1848.0,1984.0,30.0,-2.0,
1991.0,1605.0,1965.0,2083.0,30.0,-2.0,
1979.0,2066.0,2054.0,1834.0,30.0,-2.0,
2005.0,2165.0,1947.0,1942.0,31.0,-2.0,
2049.0,1904.0,2208.0,2237.0,31.0,-2.0,
2087.0,2026.0,2183.0,2095.0,31.0,-2.0,
2092.0,2199.0,2144.0,1871.0,31.0,-2.0,
2067.0,2075.0,1988.0,2038.0,31.0,-2.0,
2017.0,1902.0,2115.0,2251.0,31.0,-2.0,
1981.0,1927.0,2085.0,2110.0,31.0,-2.0,
1980.0,2060.0,1989.0,2198.0,31.0,-2.0,
2016.0,2042.0,1873.0,2012.0,31.0,-2.0,
2065.0,2140.0,1920.0,1944.0,31.0,-2.0,
2099.0,2164.0,2005.0,1963.0,31.0,-2.0,
2087.0,2166.0,2042.0,1928.0,31.0,-2.0,
2032.0,2088.0,2041.0,1908.0,31.0,-2.0,
2000.0,2098.0,2049.0,1957.0,31.0,-2.0,
1979.0,2074.0,1985.0,2264.0,31.0,-2.0,
1986.0,2221.0,2040.0,2029.0,31.0,-2.0,
2033.0,1960.0,2028.0,1907.0,31.0,-2.0,
2080.0,1981.0,1965.0,2004.0,31.0,-2.0,
2095.0,2055.0,1996.0,2108.0,31.0,-2.0,
2079.0,2111.0,1995.0,2101.0,31.0,-2.0,
2034.0,2259.0,1953.0,1974.0,31.0,-2.0,
1990.0,1946.0,1965.0,2068.0,0,0,
1984.0,1888.0,2101.0,2165.0,31.0,-2.0,
2005.0,2078.0,2000.0,1953.0,30.0,-2.0,
2048.0,2096.0,2048.0,1856.0,30.0,-2.0,
2084.0,2148.0,2046.0,2158.0,30.0,-2.0,
2092.0,2001.0,2083.0,1996.0,30.0,-2.0,
2063.0,1846.0,1878.0,2066.0,30.0,-2.0,
2020.0,2112.0,2034.0,2121.0,30.0,-2.0,
1984.0,2161.0,2124.0,2120.0,30.0,-2.0,
1979.0,2127.0,2121.0,1841.0,30.0,-2.0,
2016.0,2170.0,2123.0,2113.0,30.0,-2.0,
2061.0,2053.0,1979.0,2238.0,30.0,-2.0,
2097.0,2064.0,2022.0,2037.0,30.0,-2.0,
2091.0,2106.0,2080.0,1902.0,30.0,-2.0,
2051.0,2130.0,2253.0,2378.0,30.0,-2.0,
2008.0,2067.0,2063.0,2029.0,30.0,-2.0,
1977.0,2100.0,1967.0,1950.0,30.0,-2.0,
1987.0,2125.0,2132.0,2088.0,30.0,-2.0,
2030.0,1946.0,1947.0,2087.0,30.0,-2.0,
2077.0,1996.0,2062.0,1911.0,30.0,-2.0,
2094.0,1981.0,1949.0,1821.0,30.0,-2.0,
2076.0,2277.0,1978.0,1981.0,0,0,
2034.0,2365.0,1867.0,1926.0,30.0,-1.0,
1992.0,1926.0,2199.0,2345.0,30.0,-1.0,
1979.0,1583.0,2103.0,2096.0,30.0,-1.0,
2005.0,2192.0,2087.0,1795.0,30.0,-1.0,
2045.0,2207.0,2112.0,2257.0,30.0,-1.0,
2088.0,2067.0,2030.0,2450.0,30.0,-1.0,
2091.0,2243.0,2020.0,1884.0,30.0,-1.0,
2063.0,1942.0,1962.0,1811.0,30.0,-1.0,
2018.0,1969.0,2030.0,2012.0,30.0,-1.0,
1985.0,2018.0,1970.0,2036.0,30.0,-1.0,
1983.0,2223.0,2098.0,1899.0,30.0,-1.0,
2014.0,1959.0,1990.0,2137.0,30.0,-1.0,
2060.0,2156.0,2006.0,2108.0,31.0,-1.0,
2094.0,2170.0,1933.0,1924.0,31.0,-1.0,
2088.0,1989.0,2196.0,2067.0,30.0,-1.0,
2057.0,1975.0,1970.0,2062.0,30.0,-2.0,
2008.0,2082.0,1961.0,2044.0,30.0,-2.0,
1976.0,2069.0,2070.0,1960.0,30.0,-2.0,
1986.0,2039.0,1999.0,1970.0,30.0,-2.0,
2024.0,2076.0,2012.0,2051.0,30.0,-2.0,
2067.0,2188.0,2000.0,2125.0,30.0,-2.0,
2102.0,2080.0,2025.0,2106.0,30.0,-2.0,
2082.0,2143.0,1998.0,1979.0,30.0,-2.0,
2035.0,2134.0,2052.0,1952.0,30.0,-2.0,
1994.0,2088.0,1989.0,2086.0,30.0,-2.0,
1979.0,1854.0,2062.0,2092.0,30.0,-2.0,
1998.0,1964.0,2120.0,1984.0,30.0,-2.0,
2049.0,2184.0,2022.0,2053.0,30.0,-2.0,
2083.0,2142.0,2028.0,2033.0,30.0,-2.0,
2095.0,2096.0,2006.0,2106.0,30.0,-2.0,
2063.0,2162.0,2050.0,2213.0,30.0,-2.0,
2019.0,1873.0,2102.0,1747.0,30.0,-2.0,
1985.0,1936.0,1931.0,1989.0,30.0,-2.0,
1983.0,1977.0,2068.0,2317.0,30.0,-2.0,
2014.0,2281.0,2174.0,2109.0,30.0,-2.0,
2058.0,2517.0,2168.0,1993.0,30.0,-2.0,
2093.0,2008.0,2067.0,1913.0,30.0,-2.0,
2094.0,1940.0,2100.0,2168.0,30.0,-2.0,
2053.0,1927.0,2046.0,2164.0,30.0,-2.0,
2017.0,1885.0,2019.0,2236.0,30.0,-2.0,
1980.0,2087.0,2121.0,1929.0,30.0,-2.0,
1990.0,2251.0,1986.0,1808.0,30.0,-2.0,
2026.0,2215.0,1936.0,1954.0,30.0,-1.0,
2069.0,2045.0,1963.0,1904.0,30.0,-1.0,
2094.0,2077.0,1939.0,1968.0,30.0,-1.0,
2090.0,2068.0,1780.0,2006.0,30.0,-2.0,
2042.0,2166.0,1916.0,2030.0,30.0,-2.0,
2000.0,1961.0,2264.0,2211.0,30.0,-1.0,
1976.0,1801.0,2191.0,1948.0,30.0,-1.0,
1998.0,1906.0,2166.0,2065.0,30.0,-1.0,
2041.0,2048.0,1897.0,2198.0,30.0,-1.0,
2085.0,2129.0,1947.0,2078.0,30.0,-1.0,
2089.0,2311.0,2035.0,2183.0,30.0,-1.0,
2069.0,2200.0,1947.0,1903.0,30.0,-1.0,
2024.0,1979.0,2173.0,2002.0,30.0,0,
1988.0,1917.0,2097.0,2080.0,30.0,-1.0,
1985.0,2137.0,2004.0,2004.0,30.0,-1.0,
2013.0,2126.0,2005.0,1999.0,30.0,-2.0,
2058.0,2043.0,2050.0,2073.0,30.0,-2.0,
2091.0,2129.0,1971.0,1994.0,30.0,-2.0,
2097.0,2134.0,1969.0,2048.0,0,0,
2040.0,2068.0,1989.0,1966.0,30.0,-2.0,
2011.0,1964.0,2093.0,2031.0,30.0,-2.0,
1983.0,2118.0,2075.0,1993.0,30.0,-2.0,
1988.0,2159.0,2050.0,2064.0,30.0,-2.0,
2021.0,2031.0,2059.0,1956.0,30.0,-2.0,
2069.0,2033.0,2034.0,2096.0,31.0,-2.0,
2095.0,2145.0,2051.0,2009.0,30.0,-2.0,
2084.0,2177.0,2011.0,1921.0,31.0,-2.0,
2045.0,2006.0,2063.0,2209.0,31.0,-2.0,
2002.0,1981.0,2089.0,2220.0,31.0,-2.0,
1978.0,2110.0,2029.0,1907.0,31.0,-2.0,
1995.0,1922.0,1909.0,2073.0,31.0,-2.0,
2032.0,2099.0,1940.0,1916.0,31.0,-2.0,
2077.0,2154.0,1936.0,1931.0,31.0,-2.0,
2093.0,2143.0,1962.0,2224.0,31.0,-2.0,
2077.0,1940.0,2002.0,2041.0,31.0,-2.0,
2030.0,2062.0,2443.0,2038.0,30.0,-2.0,
1990.0,2166.0,2109.0,2233.0,30.0,-2.0,
1977.0,1974.0,1953.0,2123.0,31.0,-2.0,
2002.0,2019.0,1972.0,1895.0,31.0,-2.0,
2050.0,2078.0,1854.0,1950.0,30.0,-2.0,
2095.0,2265.0,2211.0,2222.0,30.0,-2.0,
2095.0,2028.0,2147.0,1999.0,30.0,-2.0,
2065.0,1938.0,1906.0,1822.0,30.0,-2.0,
2014.0,2172.0,2372.0,2023.0,30.0,-2.0,
1983.0,2379.0,2144.0,2174.0,31.0,-2.0,
1983.0,2164.0,1931.0,1955.0,31.0,-2.0,
2025.0,1787.0,2026.0,1971.0,31.0,-2.0,
2066.0,1940.0,2031.0,2098.0,30.0,-2.0,
2096.0,1942.0,2040.0,1961.0,30.0,-2.0,
2085.0,2118.0,2076.0,2150.0,30.0,-2.0,
2048.0,2164.0,1913.0,2014.0,30.0,-2.0,
1999.0,2107.0,1885.0,1727.0,30.0,-2.0,
1987.0,1934.0,2009.0,2243.0,30.0,-2.0,
1991.0,2089.0,2025.0,2150.0,30.0,-2.0,
2031.0,2104.0,2027.0,2038.0,31.0,-2.0,
2076.0,2118.0,2112.0,1960.0,31.0,-2.0,
2093.0,2066.0,2059.0,1958.0,31.0,-2.0,
2074.0,2127.0,2069.0,2076.0,31.0,-2.0,
2037.0,2078.0,2002.0,2138.0,31.0,-2.0,
1994.0,2103.0,1928.0,1956.0,31.0,-2.0,
1981.0,2140.0,2109.0,2141.0,31.0,-2.0,
2006.0,2196.0,2061.0,2168.0,31.0,-2.0,
2047.0,1962.0,2040.0,2030.0,31.0,-2.0,
2086.0,2074.0,1958.0,1973.0,31.0,-2.0,
2102.0,2102.0,2119.0,2012.0,31.0,-2.0,
2066.0,1961.0,2011.0,2127.0,31.0,-2.0,
2019.0,2007.0,2073.0,1886.0,31.0,-2.0,
1980.0,2010.0,2044.0,1991.0,31.0,-2.0,
1983.0,2077.0,2068.0,2014.0,31.0,-2.0,
2015.0,2059.0,2069.0,1966.0,31.0,-2.0,
2067.0,2123.0,2073.0,1968.0,31.0,-2.0,
2096.0,2155.0,2009.0,2076.0,31.0,-2.0,
2086.0,2218.0,1948.0,2090.0,31.0,-2.0,
2050.0,2123.0,2078.0,2122.0,31.0,-2.0,
2006.0,1814.0,2011.0,2083.0,31.0,-2.0,
1978.0,2014.0,2027.0,2031.0,31.0,-2.0,
1989.0,1962.0,2048.0,2123.0,31.0,-2.0,
2034.0,2070.0,2019.0,2056.0,31.0,-2.0,
2074.0,2146.0,2005.0,1978.0,30.0,-2.0,
2093.0,2158.0,2054.0,2011.0,31.0,-2.0,
2078.0,1960.0,2157.0,2164.0,31.0,-2.0,
2035.0,2100.0,2069.0,2158.0,31.0,-2.0,
1995.0,2084.0,2004.0,1817.0,31.0,-2.0,
1981.0,1970.0,2029.0,2092.0,31.0,-2.0,
2001.0,2183.0,1992.0,1996.0,31.0,-2.0,
2046.0,2192.0,1919.0,1754.0,31.0,-2.0,
2085.0,2140.0,1928.0,2075.0,31.0,-2.0,
2091.0,1986.0,2099.0,2333.0,31.0,-2.0,
2066.0,2119.0,2063.0,2104.0,31.0,-2.0,
2022.0,2176.0,2088.0,1706.0,31.0,-2.0,
1985.0,1806.0,2060.0,1977.0,31.0,-2.0,
1979.0,1960.0,2135.0,2423.0,31.0,-2.0,
2011.0,1880.0,2110.0,2017.0,31.0,-2.0,
2059.0,2091.0,2020.0,2088.0,31.0,-2.0,
2098.0,2208.0,2068.0,2009.0,31.0,-2.0,
2090.0,1910.0,1995.0,2003.0,31.0,-2.0,
2052.0,2130.0,1971.0,2161.0,31.0,-1.0,
2009.0,2150.0,2083.0,2053.0,31.0,-1.0,
1980.0,2101.0,2008.0,2124.0,31.0,-1.0,
1986.0,2065.0,2065.0,1807.0,31.0,-1.0,
2023.0,2003.0,2014.0,1860.0,31.0,-1.0,
2077.0,2029.0,2025.0,2061.0,31.0,-1.0,
2095.0,2064.0,2038.0,2073.0,31.0,-1.0,
2083.0,2082.0,2050.0,2011.0,31.0,-1.0,
2038.0,2119.0,2017.0,2054.0,31.0,-1.0,
1996.0,2051.0,2038.0,2092.0,0,0,
1980.0,2127.0,2082.0,1992.0,30.0,-1.0,
2004.0,2070.0,2050.0,2036.0,30.0,-1.0,
2043.0,2120.0,2051.0,2081.0,31.0,-1.0,
2085.0,2077.0,2007.0,1976.0,31.0,-1.0,
2094.0,2034.0,1960.0,2042.0,31.0,-1.0,
2068.0,2082.0,1982.0,2067.0,31.0,-2.0,
2025.0,2066.0,2074.0,2019.0,31.0,-2.0,
1986.0,2096.0,2022.0,1995.0,31.0,-2.0,
1979.0,2045.0,2013.0,2102.0,31.0,-2.0,
2013.0,2039.0,2072.0,2145.0,31.0,-2.0,
2057.0,2057.0,2024.0,1999.0,31.0,-2.0,
2093.0,2097.0,2046.0,1986.0,31.0,-2.0,
2091.0,2053.0,2069.0,2073.0,30.0,-2.0,
2059.0,2096.0,2083.0,2040.0,30.0,-2.0,
2015.0,1968.0,2026.0,2117.0,30.0,-2.0,
1980.0,2016.0,2030.0,2032.0,30.0,-2.0,
1990.0,2079.0,2030.0,1948.0,30.0,-2.0,
2027.0,2140.0,2110.0,2023.0,30.0,-2.0,
2074.0,1982.0,2037.0,2047.0,30.0,-2.0,
2098.0,2139.0,2027.0,2067.0,31.0,-2.0,
2081.0,2253.0,2071.0,1938.0,30.0,-2.0,
2038.0,2134.0,2038.0,1883.0,0,0,
1996.0,1840.0,1991.0,2150.0,30.0,-2.0,
1980.0,1932.0,1982.0,2146.0,30.0,-2.0,
2002.0,2032.0,1958.0,2176.0,30.0,-2.0,
2047.0,1986.0,1959.0,2174.0,30.0,-2.0,
2081.0,2142.0,2070.0,1899.0,30.0,-2.0,
2097.0,2134.0,2105.0,2022.0,30.0,-1.0,
2069.0,2000.0,2045.0,2091.0,30.0,-1.0,
2022.0,2073.0,2046.0,1997.0,30.0,-1.0,
1985.0,2200.0,2066.0,1995.0,30.0,-1.0,
1983.0,2116.0,2033.0,2035.0,0,0,
2008.0,2005.0,2087.0,2029.0,30.0,-1.0,
2060.0,1999.0,2020.0,2049.0,30.0,-1.0,
2090.0,2169.0,1999.0,2115.0,30.0,-1.0,
2091.0,2126.0,2038.0,2075.0,30.0,-1.0,
2059.0,1974.0,2177.0,2064.0,30.0,-1.0,
2012.0,2074.0,2085.0,1924.0,31.0,-1.0,
1977.0,2156.0,2052.0,1919.0,31.0,-1.0,
1988.0,2033.0,2063.0,2078.0,30.0,-1.0,
2021.0,2071.0,2076.0,2001.0,30.0,-1.0,
2070.0,2096.0,2022.0,2001.0,30.0,-1.0,
2100.0,2037.0,2011.0,2039.0,30.0,-1.0,
2083.0,2060.0,2010.0,2065.0,30.0,-1.0,
2041.0,2101.0,1987.0,2007.0,0,0,
1999.0,2031.0,2008.0,2058.0,30.0,0.0,
1980.0,2079.0,1997.0,2082.0,30.0,0.0,
1994.0,2078.0,2020.0,2089.0,30.0,0.0,
2043.0,2081.0,2004.0,1976.0,30.0,0.0,
2079.0,2041.0,2001.0,2031.0,30.0,0.0,
2100.0,2020.0,2017.0,2044.0,30.0,0.0,
2071.0,2037.0,2027.0,2066.0,30.0,0.0,
2027.0,2095.0,2034.0,2068.0,30.0,-1.0,
1989.0,2083.0,2061.0,2042.0,30.0,-1.0,
1981.0,2057.0,2078.0,1995.0,30.0,-1.0,
2013.0,2051.0,2077.0,2030.0,30.0,-1.0,
2053.0,2076.0,2028.0,2051.0,30.0,-1.0,
2089.0,2112.0,2019.0,2012.0,30.0,-1.0,
2093.0,2074.0,2006.0,2050.0,29.0,-1.0,
2060.0,2057.0,2065.0,2053.0,29.0,-1.0,
2014.0,2068.0,2060.0,2065.0,29.0,-1.0,
1985.0,2057.0,2044.0,1999.0,29.0,-1.0,
1986.0,2087.0,2047.0,2034.0,29.0,-1.0,
2024.0,2048.0,2033.0,2071.0,29.0,-1.0,
2068.0,2044.0,2037.0,2092.0,29.0,-1.0,
2095.0,2057.0,2056.0,1921.0,29.0,-1.0,
2090.0,2053.0,2020.0,2047.0,29.0,-1.0,
2049.0,2057.0,2034.0,2081.0,29.0,-1.0,
2002.0,2041.0,2031.0,2081.0,29.0,-1.0,
1980.0,2071.0,2013.0,2016.0,29.0,-1.0,
1996.0,2065.0,2003.0,1966.0,29.0,-1.0,
2039.0,2068.0,2018.0,2050.0,29.0,-1.0,
2083.0,2078.0,2034.0,2049.0,29.0,-1.0,
2096.0,2046.0,2028.0,2063.0,29.0,-1.0,
2070.0,2108.0,2023.0,2001.0,28.0,-1.0,
2027.0,2088.0,2073.0,1968.0,28.0,-1.0,
1985.0,2115.0,2016.0,2008.0,28.0,-1.0,
1979.0,1997.0,2064.0,2123.0,28.0,-1.0,
2013.0,2091.0,2088.0,2120.0,28.0,-1.0,
2053.0,2089.0,2073.0,2020.0,28.0,-1.0,
2091.0,2058.0,2024.0,2018.0,28.0,-1.0,
2092.0,2044.0,1986.0,2074.0,28.0,-1.0,
2065.0,2043.0,1997.0,2041.0,28.0,-1.0,
2012.0,2030.0,2010.0,1983.0,28.0,-1.0,
1989.0,2055.0,2090.0,1903.0,28.0,-1.0,
1989.0,2091.0,2047.0,2027.0,0,0,
2021.0,2095.0,2047.0,2070.0,27.0,-1.0,
2069.0,2058.0,2018.0,2143.0,27.0,-1.0,
2095.0,2022.0,2074.0,2164.0,27.0,-1.0,
2086.0,2078.0,2044.0,1973.0,27.0,-1.0,
2052.0,2089.0,2074.0,1915.0,27.0,-1.0,
2003.0,2175.0,2016.0,2006.0,26.0,-1.0,
1978.0,2110.0,2000.0,1978.0,0,0,
1995.0,1956.0,2007.0,2039.0,26.0,0.0,
2037.0,2071.0,2027.0,2001.0,26.0,0.0,
2080.0,2106.0,2013.0,2050.0,26.0,0.0,
2115.0,1979.0,1992.0,2212.0,26.0,0.0,
2077.0,2003.0,2017.0,2199.0,26.0,0.0,
2031.0,2002.0,2073.0,1975.0,26.0,0.0,
1992.0,2098.0,2018.0,1960.0,25.0,0.0,
1979.0,2078.0,2023.0,2068.0,25.0,0.0,
2005.0,2085.0,2051.0,2004.0,25.0,0.0,
2051.0,2102.0,2062.0,2007.0,25.0,0.0,
2088.0,2098.0,2032.0,2011.0,24.0,0.0,
2103.0,2059.0,2018.0,2029.0,24.0,0.0,
2063.0,2113.0,2031.0,2011.0,24.0,0.0,
2015.0,2117.0,2039.0,2020.0,24.0,0.0,
1984.0,2060.0,2010.0,2069.0,24.0,0.0,
1989.0,2067.0,2038.0,2021.0,23.0,0.0,
2020.0,2026.0,2005.0,2020.0,23.0,0.0,
2067.0,2072.0,2020.0,2043.0,23.0,0.0,
2097.0,2078.0,2050.0,2041.0,23.0,-1.0,
2089.0,2081.0,2070.0,2041.0,23.0,-1.0,
2047.0,2037.0,2059.0,2062.0,22.0,-1.0,
2008.0,2048.0,2048.0,2040.0,22.0,-1.0,
1981.0,2091.0,2063.0,2036.0,22.0,-1.0,
1991.0,2068.0,2059.0,2029.0,22.0,-1.0,
2034.0,2070.0,2048.0,2073.0,22.0,-2.0,
2078.0,2071.0,2050.0,2041.0,21.0,-2.0,
2096.0,2071.0,2041.0,2031.0,21.0,-2.0,
2078.0,2076.0,2028.0,2031.0,21.0,-2.0,
2033.0,2068.0,2042.0,2049.0,21.0,-2.0,
1993.0,2060.0,2063.0,2037.0,21.0,-2.0,
1981.0,2059.0,2053.0,2051.0,21.0,-2.0,
2005.0,2052.0,2031.0,2066.0,21.0,-2.0,
2051.0,2066.0,2048.0,2077.0,20.0,-2.0,
2097.0,2082.0,2039.0,1988.0,20.0,-2.0,
2093.0,2081.0,2020.0,1995.0,20.0,-2.0,
2064.0,2061.0,2015.0,2049.0,20.0,-2.0,
2018.0,2054.0,2038.0,2045.0,20.0,-2.0,
1984.0,2064.0,2064.0,2041.0,20.0,-1.0,
1983.0,2068.0,2039.0,2029.0,19.0,-1.0,
2025.0,2087.0,1992.0,2041.0,19.0,-1.0,
2067.0,2078.0,2001.0,2069.0,19.0,-1.0,
2098.0,2058.0,2053.0,2026.0,19.0,-1.0,
2089.0,2051.0,2065.0,2018.0,19.0,-1.0,
2046.0,2067.0,2117.0,2068.0,19.0,0.0,
2003.0,2067.0,2084.0,2026.0,19.0,0.0,
1989.0,2072.0,2078.0,2018.0,19.0,0.0,
1992.0,2067.0,2074.0,2009.0,19.0,0.0,
2032.0,2091.0,2058.0,2066.0,18.0,0.0,
2077.0,2046.0,2079.0,2020.0,18.0,1.0,
2096.0,2096.0,2075.0,1974.0,18.0,1.0,
2079.0,2079.0,2031.0,2019.0,18.0,1.0,
2039.0,2037.0,2052.0,2049.0,18.0,1.0,
1995.0,2034.0,2041.0,2100.0,18.0,1.0,
1977.0,2019.0,2021.0,2158.0,17.0,1.0,
2002.0,2103.0,2049.0,2089.0,17.0,1.0,
2044.0,2131.0,2015.0,1957.0,17.0,1.0,
2084.0,2060.0,2027.0,1970.0,17.0,1.0,
2092.0,2071.0,2014.0,1985.0,17.0,1.0,
2068.0,2033.0,2023.0,2045.0,17.0,1.0,
2020.0,1993.0,1996.0,2039.0,16.0,1.0,
1984.0,2092.0,2003.0,2109.0,16.0,1.0,
1987.0,2066.0,2011.0,2007.0,16.0,1.0,
2013.0,2074.0,2005.0,2058.0,16.0,0.0,
2058.0,2115.0,2018.0,2100.0,16.0,0.0,
2097.0,2032.0,2043.0,2085.0,15.0,0.0,
2093.0,2103.0,1994.0,2077.0,15.0,-1.0,
2057.0,2080.0,2027.0,2000.0,15.0,-1.0,
2011.0,2082.0,2054.0,2007.0,14.0,-2.0,
1978.0,2074.0,2051.0,2022.0,14.0,-2.0,
1990.0,2049.0,2045.0,2069.0,14.0,-2.0,
2033.0,2074.0,2040.0,2047.0,14.0,-2.0,
2075.0,2077.0,2000.0,2014.0,14.0,-3.0,
2094.0,2079.0,2012.0,2018.0,14.0,-3.0,
2080.0,2026.0,2002.0,2048.0,13.0,-4.0,
2040.0,2024.0,2013.0,2065.0,13.0,-4.0,
1996.0,2080.0,2082.0,1989.0,13.0,-4.0,
1979.0,2084.0,2048.0,2010.0,13.0,-4.0,
2000.0,2094.0,2048.0,2039.0,12.0,-4.0,
2042.0,2064.0,2045.0,2043.0,12.0,-4.0,
2084.0,2062.0,2060.0,2039.0,12.0,-4.0,
2095.0,2078.0,2047.0,2013.0,12.0,-4.0,
2068.0,2062.0,2011.0,2033.0,11.0,-4.0,
2024.0,2059.0,2003.0,2067.0,11.0,-3.0,
1985.0,2059.0,2025.0,2018.0,11.0,-3.0,
1981.0,2064.0,2053.0,2030.0,11.0,-3.0,
2012.0,2075.0,2102.0,2074.0,10.0,-2.0,
2056.0,2076.0,2098.0,2065.0,10.0,-2.0,
2090.0,2068.0,2079.0,2054.0,10.0,-2.0,
2092.0,2111.0,2018.0,2026.0,10.0,-2.0,
2054.0,2068.0,2032.0,2045.0,10.0,-1.0,
2014.0,1999.0,2039.0,2038.0,10.0,-1.0,
1979.0,2016.0,2051.0,2011.0,9.0,-1.0,
1986.0,2039.0,2082.0,2049.0,9.0,0.0,
2023.0,2126.0,2043.0,2071.0,9.0,0.0,
2075.0,2120.0,2034.0,2021.0,0,0,
2095.0,2071.0,1998.0,2070.0,8.0,0.0,
2083.0,2067.0,2030.0,2064.0,8.0,0.0,
2035.0,2050.0,2043.0,2013.0,8.0,1.0,
1998.0,2047.0,2114.0,2046.0,8.0,1.0,
1979.0,2045.0,2081.0,1948.0,8.0,1.0,
2001.0,2109.0,2069.0,1996.0,8.0,1.0,
2039.0,2150.0,2026.0,2014.0,8.0,1.0,
2080.0,2148.0,2021.0,1958.0,8.0,1.0,
2093.0,2008.0,2005.0,2199.0,8.0,1.0,
2072.0,1827.0,2002.0,2154.0,7.0,1.0,
2024.0,1988.0,2041.0,2099.0,7.0,1.0,
1985.0,2149.0,2016.0,2079.0,7.0,1.0,
1977.0,2094.0,1992.0,1850.0,7.0,0.0,
2009.0,2216.0,2003.0,1943.0,7.0,0.0,
2055.0,2068.0,2000.0,2108.0,7.0,0.0,
2091.0,2124.0,2027.0,2036.0,7.0,0.0,
2093.0,1981.0,2064.0,2124.0,6.0,0.0,
2057.0,1895.0,2028.0,2124.0,6.0,-1.0,
2014.0,2070.0,2030.0,2029.0,6.0,-1.0,
1982.0,2072.0,2037.0,1993.0,6.0,-1.0,
1985.0,2083.0,2057.0,2004.0,6.0,-1.0,
2020.0,2096.0,2056.0,2006.0,6.0,-1.0,
2068.0,2145.0,2062.0,2017.0,6.0,-1.0,
2096.0,2086.0,2017.0,2053.0,5.0,-2.0,
2086.0,2083.0,2028.0,2059.0,5.0,-2.0,
2047.0,2037.0,2013.0,1958.0,5.0,-2.0,
2000.0,2084.0,2047.0,2041.0,5.0,-2.0,
1978.0,2072.0,2049.0,2035.0,5.0,-2.0,
1995.0,2057.0,2046.0,2072.0,5.0,-2.0,
2040.0,2073.0,2030.0,2064.0,4.0,-2.0,
2080.0,2070.0,2016.0,2001.0,4.0,-2.0,
2096.0,2083.0,2002.0,2014.0,4.0,-2.0,
2071.0,2063.0,2007.0,2036.0,4.0,-1.0,
2026.0,2075.0,1992.0,2037.0,4.0,-1.0,
1991.0,2087.0,2028.0,2056.0,4.0,-1.0,
1978.0,2072.0,2009.0,2036.0,4.0,-1.0,
2007.0,2048.0,1998.0,2052.0,3.0,-1.0,
2055.0,2049.0,1998.0,2052.0,3.0,-1.0,
2088.0,2066.0,2000.0,2027.0,3.0,0.0,
2095.0,2057.0,2035.0,2024.0,3.0,0.0,
2060.0,2068.0,2026.0,2037.0,3.0,0.0,
2019.0,2075.0,2062.0,2069.0,3.0,0.0,
1985.0,2072.0,2068.0,2043.0,3.0,0.0,
1985.0,2085.0,2066.0,2045.0,3.0,0.0,
2022.0,2048.0,2054.0,2038.0,3.0,0.0,
2066.0,2060.0,2070.0,2035.0,3.0,0.0,
2096.0,2079.0,2063.0,2036.0,3.0,1.0,
2092.0,2107.0,2018.0,2030.0,3.0,1.0,
2047.0,2053.0,2050.0,2071.0,3.0,1.0,
2003.0,2034.0,2058.0,2053.0,3.0,1.0,
1980.0,2040.0,2038.0,1965.0,3.0,1.0,
1993.0,2008.0,2000.0,1989.0,3.0,1.0,
2035.0,2054.0,2012.0,2078.0,3.0,1.0,
2084.0,2122.0,2010.0,2045.0,2.0,1.0,
2096.0,2137.0,2005.0,2037.0,2.0,1.0,
2078.0,2068.0,2038.0,2126.0,0,0,
2028.0,2029.0,2047.0,2073.0,2.0,1.0,
1994.0,2038.0,2050.0,2047.0,2.0,1.0,
1983.0,2090.0,2078.0,2027.0,2.0,1.0,
2011.0,2110.0,2076.0,1996.0,2.0,1.0,
2053.0,2091.0,2037.0,2016.0,2.0,1.0,
2091.0,2088.0,1989.0,2028.0,2.0,1.0,
2093.0,1996.0,1985.0,2088.0,2.0,0.0,
2062.0,1987.0,1996.0,2045.0,2.0,0.0,
2016.0,2073.0,2018.0,1933.0,1.0,0.0,
1986.0,2104.0,2063.0,2029.0,1.0,0.0,
1983.0,2038.0,2055.0,2073.0,1.0,0,
2016.0,2074.0,2060.0,2073.0,1.0,-1.0,
2063.0,2075.0,2009.0,2011.0,1.0,-1.0,
2096.0,2131.0,2009.0,1967.0,1.0,-1.0,
2088.0,2137.0,1995.0,1962.0,1.0,-1.0,
2054.0,2104.0,2051.0,1972.0,1.0,-1.0,
2004.0,1972.0,2029.0,2048.0,1.0,-1.0,
1978.0,2017.0,2042.0,2149.0,1.0,-2.0,
1990.0,2063.0,2077.0,2085.0,1.0,-2.0,
2034.0,2030.0,2088.0,2024.0,1.0,-2.0,
2078.0,2044.0,1996.0,2193.0,0.0,-2.0,
2100.0,2123.0,2005.0,2100.0,0.0,-2.0,
2077.0,2112.0,2052.0,2000.0,0.0,-2.0,
2034.0,2090.0,2086.0,1865.0,0,0,
1991.0,2065.0,2091.0,1979.0,0.0,-2.0,
1981.0,2094.0,2083.0,2017.0,0.0,-2.0,
2001.0,2070.0,2085.0,2064.0,0.0,-2.0,
2054.0,2031.0,2055.0,2095.0,0.0,-2.0,
2090.0,1976.0,2035.0,2137.0,0.0,-2.0,
2096.0,2029.0,2028.0,2068.0,0,0,
2066.0,2076.0,2036.0,2009.0,0.0,-2.0,
2020.0,2071.0,2038.0,2023.0,0.0,-1.0,
1982.0,2057.0,2020.0,2035.0,0.0,-1.0,
1990.0,2107.0,2038.0,2008.0,0.0,-1.0,
2018.0,2128.0,2017.0,2051.0,0.0,-1.0,
2064.0,2043.0,2003.0,2064.0,0.0,-1.0,
2094.0,2078.0,2032.0,2010.0,0.0,-1.0,
2088.0,2083.0,2044.0,1969.0,0.0,-1.0,
2051.0,2100.0,2056.0,2013.0,0.0,-1.0,
2006.0,2089.0,2057.0,2049.0,0.0,-1.0,
1977.0,2066.0,2046.0,2049.0,0.0,-1.0,
1992.0,2060.0,2030.0,2035.0,0.0,-1.0,
2030.0,2038.0,2033.0,2045.0,0.0,0.0,
2079.0,2078.0,2008.0,2024.0,0.0,0.0,
2096.0,2066.0,1999.0,2048.0,0.0,0.0,
2082.0,2086.0,2022.0,2055.0,0.0,0.0,
2037.0,2079.0,2011.0,2064.0,0.0,0.0,
1994.0,2055.0,1983.0,2056.0,0.0,0.0,
1986.0,2111.0,2037.0,2009.0,0.0,0.0,
2005.0,2054.0,2076.0,2050.0,0.0,0.0,
2044.0,2050.0,2059.0,2044.0,0.0,-1.0,
2094.0,2043.0,2054.0,1956.0,0.0,-1.0,
2098.0,2095.0,2026.0,2022.0,0.0,-1.0,
2067.0,2085.0,2017.0,2022.0,0.0,-1.0,
2024.0,2057.0,2054.0,2046.0,0.0,-1.0,
1988.0,2086.0,2070.0,2055.0,0.0,-1.0,
1984.0,1998.0,2078.0,2019.0,0.0,-1.0,
2021.0,1975.0,2045.0,2006.0,0.0,-1.0,
2063.0,2093.0,1957.0,2059.0,0.0,-1.0,
2095.0,2139.0,1973.0,2076.0,0.0,-1.0,
2089.0,2003.0,1966.0,2100.0,0.0,-1.0,
2056.0,2023.0,2009.0,2032.0,0.0,-1.0,
2008.0,2037.0,2008.0,2015.0,0.0,-1.0,
1989.0,2145.0,2078.0,2094.0,0.0,-1.0,
1990.0,2064.0,2054.0,2063.0,0.0,-1.0,
2029.0,2023.0,2054.0,2057.0,0.0,-2.0,
2072.0,2082.0,2035.0,1995.0,0.0,-2.0,
2096.0,2039.0,2059.0,2058.0,0.0,-2.0,
2078.0,2106.0,2056.0,1993.0,0.0,-2.0,
2043.0,2168.0,2022.0,1992.0,0.0,-2.0,
1994.0,2112.0,2024.0,2023.0,0.0,-2.0,
1980.0,1969.0,2006.0,2078.0,0.0,-2.0,
2000.0,2035.0,2022.0,2035.0,0,0,
2044.0,2042.0,2022.0,2032.0,0.0,-2.0,
2083.0,2092.0,2027.0,1966.0,0.0,-2.0,
2099.0,2128.0,2010.0,2010.0,0.0,-2.0,
2070.0,2052.0,2065.0,2061.0,0.0,-2.0,
2028.0,2028.0,2060.0,2116.0,0.0,-2.0,
1985.0,2011.0,2070.0,2094.0,0.0,-2.0,
1985.0,2026.0,2053.0,2031.0,-1.0,-2.0,
2012.0,2086.0,2068.0,2050.0,-1.0,-2.0,
2067.0,2099.0,2062.0,2062.0,-1.0,-2.0,
2093.0,2087.0,2066.0,2057.0,-1.0,-2.0,
2091.0,2083.0,2061.0,2001.0,-1.0,-2.0,
2056.0,2067.0,2035.0,2020.0,0.0,-2.0,
2010.0,2094.0,2060.0,2048.0,0.0,-2.0,
1980.0,2099.0,2048.0,1954.0,0.0,-2.0,
1993.0,2050.0,2010.0,2014.0,0.0,-1.0,
2028.0,2089.0,1995.0,2049.0,0.0,-1.0,
2070.0,2132.0,1993.0,2009.0,0.0,-1.0,
2096.0,2096.0,2005.0,1989.0,0.0,-1.0,
2080.0,2066.0,1997.0,2002.0,0.0,-1.0,
2038.0,2043.0,2030.0,2059.0,0.0,-1.0,
1998.0,1973.0,2017.0,2056.0,0.0,-1.0,
1980.0,2018.0,2041.0,2062.0,0.0,-1.0,
1997.0,2056.0,2033.0,2097.0,0.0,-1.0,
2041.0,2055.0,2014.0,2061.0,0.0,0,
2085.0,2087.0,1994.0,2032.0,0.0,-1.0,
2092.0,2115.0,2001.0,2022.0,0.0,-1.0,
2070.0,2085.0,2027.0,2014.0,0.0,-1.0,
2025.0,2104.0,2050.0,2006.0,0.0,-1.0,
1985.0,2102.0,2043.0,2000.0,0.0,-1.0,
1981.0,2022.0,2050.0,2117.0,0.0,-1.0,
2011.0,2018.0,2019.0,2117.0,0.0,-1.0,
2056.0,2101.0,1992.0,2078.0,0.0,-1.0,
2096.0,2107.0,2030.0,2016.0,0.0,-1.0,
2093.0,2077.0,2058.0,1943.0,0.0,-1.0,
2057.0,2053.0,2040.0,2005.0,0.0,-1.0,
2011.0,2117.0,2072.0,2063.0,0.0,-2.0,
1979.0,2072.0,2054.0,2043.0,0.0,-2.0,
1985.0,2000.0,2039.0,2074.0,0.0,-2.0,
2031.0,2078.0,2046.0,2013.0,0.0,-2.0,
2069.0,2126.0,2020.0,2041.0,0.0,-2.0,
2093.0,2047.0,2014.0,2053.0,0.0,-2.0,
2083.0,2070.0,2008.0,2026.0,0.0,-2.0,
2042.0,2039.0,1994.0,2078.0,0.0,-2.0,
1999.0,2068.0,1977.0,2035.0,-1.0,-2.0,
1982.0,2027.0,2000.0,2036.0,-1.0,-2.0,
1996.0,2029.0,2013.0,2027.0,0.0,-2.0,
2060.0,2019.0,2075.0,2067.0,0.0,-2.0,
2081.0,2034.0,2096.0,2035.0,0,0,
2095.0,2038.0,2052.0,2022.0,-1.0,-2.0,
2070.0,2124.0,2057.0,2061.0,-1.0,-2.0,
2028.0,2098.0,2075.0,1977.0,-1.0,-2.0,
1988.0,2106.0,2090.0,2014.0,-1.0,-2.0,
1979.0,2106.0,2066.0,2019.0,-1.0,-2.0,
2010.0,2080.0,2048.0,2032.0,-1.0,-2.0,
2056.0,2097.0,2021.0,2045.0,-1.0,-2.0,
2091.0,2063.0,1997.0,1996.0,-1.0,-2.0,
2095.0,2036.0,2002.0,2030.0,-1.0,-2.0,
2056.0,2043.0,2020.0,2015.0,0.0,-2.0,
2013.0,2046.0,2058.0,2102.0,0.0,-2.0,
1978.0,2034.0,2069.0,2108.0,0.0,-2.0,
1986.0,2085.0,2041.0,2051.0,-1.0,-2.0,
2023.0,2094.0,2013.0,2079.0,0.0,-2.0,
2070.0,2077.0,2003.0,1989.0,0.0,-1.0,
2098.0,2029.0,1985.0,2011.0,0.0,-1.0,
2086.0,2049.0,2010.0,2017.0,0.0,-1.0,
2044.0,2007.0,1994.0,2099.0,0.0,-1.0,
1997.0,2072.0,2035.0,2058.0,0.0,-1.0,
1979.0,2047.0,2014.0,2065.0,0.0,-1.0,
1996.0,2073.0,2064.0,2062.0,0.0,-1.0,
2038.0,2091.0,2028.0,2021.0,0.0,-1.0,
2077.0,2080.0,2018.0,2019.0,0.0,-1.0,
2093.0,2073.0,2014.0,2011.0,0.0,-1.0,
2071.0,2064.0,2014.0,2024.0,0.0,-1.0,
2028.0,2071.0,2049.0,2010.0,0.0,-1.0,
1991.0,2074.0,2045.0,2007.0,0.0,-1.0,
1982.0,2075.0,2064.0,2005.0,0.0,-1.0,
2009.0,2065.0,2053.0,2048.0,0.0,-1.0,
2054.0,2084.0,2051.0,2066.0,0.0,-1.0,
2092.0,2091.0,2033.0,2039.0,0.0,-1.0,
2092.0,2102.0,2019.0,2003.0,0.0,-1.0,
2066.0,1996.0,2002.0,2048.0,0.0,-1.0,
2015.0,2112.0,2044.0,2074.0,0.0,-1.0,
1980.0,2093.0,2014.0,2047.0,0.0,-1.0,
1986.0,2097.0,2028.0,2003.0,0.0,-1.0,
2022.0,2041.0,2029.0,2054.0,-1.0,-1.0,
2063.0,1992.0,2045.0,2031.0,-1.0,-1.0,
2097.0,2045.0,2083.0,2014.0,0.0,-1.0,
2085.0,2054.0,2081.0,2053.0,0.0,-1.0,
2047.0,2070.0,2062.0,2042.0,0.0,-1.0,
2002.0,2020.0,2080.0,2043.0,0.0,-1.0,
1980.0,2034.0,2048.0,2032.0,0.0,-1.0,
1992.0,2069.0,2045.0,2055.0,0.0,-1.0,
2039.0,2084.0,2048.0,2060.0,0.0,-1.0,
2081.0,2090.0,2024.0,2034.0,0.0,-2.0,
2095.0,2091.0,2013.0,2031.0,0.0,0,
2077.0,2110.0,2002.0,2044.0,0.0,-2.0,
2031.0,2070.0,2018.0,1999.0,0.0,-2.0,
1988.0,2019.0,1988.0,2005.0,0.0,-2.0,
1983.0,2047.0,2014.0,2031.0,0.0,-2.0,
2007.0,2025.0,2004.0,2005.0,0.0,-2.0,
2035.0,2133.0,2011.0,2017.0,0.0,-2.0,
2088.0,2103.0,2097.0,2090.0,0.0,-1.0,
2095.0,2073.0,2115.0,2082.0,0.0,0,
2063.0,2064.0,2134.0,2112.0,0.0,-1.0,
2024.0,2005.0,2142.0,2123.0,0.0,-1.0,
1986.0,2111.0,2089.0,2043.0,0.0,-1.0,
1986.0,2122.0,2045.0,1967.0,0.0,-1.0,
2018.0,1994.0,2038.0,2083.0,0.0,-1.0,
2063.0,2060.0,2051.0,2053.0,-1.0,-1.0,
2092.0,2062.0,2043.0,2009.0,0.0,-1.0,
2092.0,2033.0,2020.0,1977.0,-1.0,-1.0,
2050.0,2024.0,2028.0,2013.0,0.0,-1.0,
2005.0,2075.0,2015.0,2024.0,-1.0,-1.0,
1978.0,2104.0,1990.0,2033.0,-1.0,-1.0,
1990.0,2100.0,2013.0,2036.0,-1.0,-1.0,
2029.0,2014.0,2017.0,2032.0,-1.0,-1.0,
2073.0,2084.0,2013.0,2023.0,-1.0,-1.0,
2099.0,2067.0,2001.0,2012.0,-1.0,-1.0,
2079.0,2146.0,1974.0,1982.0,-1.0,-1.0,
2037.0,2241.0,2014.0,2030.0,-1.0,-1.0,
1993.0,2186.0,2093.0,2103.0,-1.0,-1.0,
1977.0,1993.0,2075.0,2154.0,-1.0,-1.0,
2004.0,1872.0,2038.0,2072.0,-1.0,-2.0,
2048.0,1939.0,2013.0,1941.0,-1.0,-2.0,
2087.0,1973.0,2034.0,2036.0,-1.0,-2.0,
2097.0,2048.0,2053.0,2043.0,-1.0,-2.0,
2064.0,2089.0,2044.0,2051.0,0.0,-2.0,
2020.0,2103.0,2054.0,2062.0,0.0,-2.0,
1983.0,2108.0,2067.0,2149.0,0.0,-2.0,
1985.0,2096.0,2062.0,2033.0,0.0,-2.0,
2014.0,2092.0,2051.0,2004.0,0.0,-2.0,
2061.0,2094.0,2038.0,2009.0,0.0,-2.0,
2092.0,2093.0,2032.0,2013.0,0.0,-2.0,
2091.0,2097.0,2019.0,2011.0,0.0,-2.0,
2053.0,2089.0,2011.0,2024.0,0.0,-2.0,
2007.0,2069.0,2025.0,2019.0,0.0,-2.0,
1979.0,2071.0,2032.0,2025.0,0.0,-2.0,
1988.0,2074.0,2037.0,2032.0,0.0,-2.0,
2032.0,2064.0,2036.0,2033.0,0.0,-2.0,
2072.0,2081.0,2030.0,2011.0,0.0,-2.0,
2095.0,2094.0,2060.0,2010.0,0.0,-2.0,
2083.0,2035.0,2003.0,2041.0,0.0,-2.0,
2038.0,2101.0,2009.0,2080.0,0.0,-2.0,
1993.0,2085.0,2030.0,2067.0,0.0,-2.0,
1988.0,2051.0,2029.0,2058.0,0.0,-2.0,
1998.0,1980.0,2054.0,2082.0,0.0,-2.0,
2043.0,2024.0,2051.0,2023.0,0.0,-2.0,
2089.0,2062.0,2033.0,2002.0,0.0,-2.0,
2094.0,2093.0,1986.0,2034.0,0.0,-2.0,
2067.0,2114.0,2001.0,2078.0,0.0,-2.0,
2025.0,2013.0,2030.0,2068.0,0.0,-2.0,
1983.0,2023.0,2040.0,2046.0,0.0,-2.0,
1979.0,2065.0,2030.0,2027.0,-1.0,-2.0,
2014.0,2092.0,2046.0,2023.0,-1.0,-2.0,
2066.0,2100.0,2048.0,2036.0,-1.0,-2.0,
2091.0,2056.0,2052.0,2029.0,-1.0,-2.0,
2089.0,2078.0,2024.0,2022.0,-1.0,-2.0,
2058.0,2072.0,2009.0,2014.0,-1.0,-2.0,
2008.0,2101.0,2017.0,2039.0,-1.0,-2.0,
1981.0,2104.0,2033.0,2053.0,0,0,
1993.0,2044.0,2046.0,2054.0,-1.0,-2.0,
2026.0,2047.0,2054.0,2040.0,-1.0,-2.0,
2071.0,2042.0,2036.0,2025.0,-1.0,-2.0,
2098.0,2073.0,2016.0,2025.0,-1.0,-2.0,
2085.0,2088.0,2020.0,2004.0,-1.0,-2.0,
2046.0,2154.0,1993.0,2001.0,-1.0,-2.0,
2001.0,2105.0,2000.0,2025.0,-1.0,-2.0,
1979.0,2031.0,2042.0,2128.0,-1.0,-2.0,
1997.0,1945.0,2056.0,2070.0,-1.0,-2.0,
2040.0,2016.0,2029.0,2046.0,-1.0,-2.0,
2083.0,2082.0,2003.0,2056.0,-1.0,-2.0,
2096.0,2124.0,2051.0,1981.0,-1.0,-2.0,
2075.0,2070.0,2026.0,2102.0,-1.0,-2.0,
2028.0,1999.0,2045.0,2077.0,-1.0,-1.0,
1987.0,2013.0,2099.0,2024.0,-1.0,-1.0,
1980.0,2063.0,2097.0,1987.0,-1.0,-1.0,
2007.0,2051.0,2074.0,2003.0,-1.0,-1.0,
2054.0,2089.0,2065.0,2033.0,-1.0,-1.0,
2094.0,2088.0,2009.0,2013.0,-1.0,-1.0,
2091.0,2121.0,2010.0,2020.0,-1.0,-2.0,
2059.0,2056.0,2005.0,2056.0,-1.0,-2.0,
2011.0,1998.0,2004.0,2107.0,-1.0,-2.0,
1980.0,2061.0,2009.0,2042.0,-1.0,-2.0,
1987.0,2078.0,2008.0,2025.0,-1.0,-2.0,
2023.0,2086.0,2005.0,2036.0,-1.0,-2.0,
2068.0,2104.0,1985.0,2026.0,-1.0,-2.0,
2095.0,2098.0,2041.0,1978.0,-1.0,-2.0,
2081.0,2090.0,1993.0,1970.0,-1.0,-2.0,
2044.0,2077.0,1954.0,2032.0,-1.0,-2.0,
2005.0,2154.0,2015.0,2094.0,-1.0,-2.0,
1980.0,2023.0,2009.0,2086.0,0.0,-2.0,
1995.0,2060.0,2090.0,2078.0,0.0,-2.0,
2038.0,2034.0,2033.0,2061.0,0.0,-2.0,
2082.0,1977.0,2064.0,2016.0,0.0,-2.0,
2094.0,2032.0,2047.0,2080.0,0.0,-2.0,
2083.0,2089.0,2043.0,2040.0,0.0,-2.0,
2029.0,2064.0,2068.0,2019.0,0.0,-2.0,
1991.0,2087.0,2085.0,2023.0,0.0,-1.0,
1982.0,2099.0,2070.0,2086.0,0.0,-1.0,
2005.0,2099.0,2032.0,2015.0,0.0,-1.0,
2048.0,2060.0,2044.0,2020.0,0.0,-1.0,
2096.0,2031.0,2024.0,2011.0,0,0,
2093.0,2056.0,2017.0,2029.0,0.0,-1.0,
2061.0,2068.0,2018.0,2035.0,0.0,-1.0,
2013.0,2076.0,2026.0,2039.0,0.0,-1.0,
1979.0,2080.0,2041.0,2043.0,0.0,-1.0,
1982.0,2077.0,2064.0,2027.0,0.0,-1.0,
2019.0,2081.0,2064.0,2037.0,0.0,-1.0,
2063.0,2074.0,2037.0,2031.0,0.0,-1.0,
2092.0,2078.0,2010.0,2029.0,0.0,-1.0,
2088.0,2101.0,1986.0,2033.0,0.0,-1.0,
2047.0,2097.0,2013.0,2020.0,0.0,-1.0,
2003.0,2079.0,2017.0,2015.0,0.0,-1.0,
1979.0,2020.0,2042.0,2036.0,0.0,-1.0,
1996.0,2023.0,2049.0,2071.0,0.0,-1.0,
2031.0,2056.0,2038.0,2023.0,0.0,-1.0,
2076.0,2062.0,2061.0,2047.0,0.0,-1.0,
2092.0,2039.0,2053.0,2055.0,0.0,-1.0,
2075.0,2059.0,2043.0,2047.0,0.0,-1.0,
2033.0,2058.0,2063.0,2056.0,0.0,-1.0,
1992.0,2115.0,2078.0,2038.0,0.0,-1.0,
1980.0,2081.0,2063.0,2071.0,0.0,-1.0,
2004.0,2033.0,2027.0,2040.0,0.0,-1.0,
2050.0,2043.0,2032.0,2079.0,0.0,-1.0,
2089.0,2101.0,2020.0,2012.0,-1.0,-1.0,
2094.0,2109.0,2051.0,2014.0,-1.0,-1.0,
2064.0,2112.0,2042.0,2011.0,-1.0,-1.0,
2019.0,2072.0,2038.0,2033.0,0.0,-1.0,
1981.0,1979.0,2039.0,2020.0,0.0,-1.0,
1983.0,2091.0,2016.0,2003.0,0.0,-1.0,
2017.0,2078.0,2022.0,2016.0,0.0,-1.0,
2060.0,2089.0,2006.0,2098.0,0.0,-1.0,
2094.0,2061.0,1959.0,2189.0,0.0,-1.0,
2084.0,2032.0,1980.0,2064.0,0.0,-1.0,
2051.0,2092.0,2011.0,1853.0,0.0,-1.0,
2004.0,2107.0,1974.0,2013.0,0.0,-1.0,
1977.0,2114.0,2025.0,2100.0,0.0,-1.0,
1989.0,2063.0,2166.0,2061.0,0.0,-1.0,
2034.0,1954.0,2176.0,2048.0,0.0,-1.0,
2073.0,1982.0,2095.0,2085.0,-1.0,-1.0,
2093.0,2054.0,2088.0,2062.0,-1.0,-1.0,
2077.0,2064.0,2055.0,2029.0,-1.0,-1.0,
2034.0,2072.0,2036.0,1942.0,0.0,-1.0,
1996.0,2089.0,2040.0,2031.0,0.0,-1.0,
1979.0,2108.0,2044.0,2032.0,0.0,-1.0,
2003.0,2099.0,2063.0,2030.0,0.0,-1.0,
2049.0,2092.0,2051.0,2027.0,0.0,-1.0,
2088.0,2058.0,2038.0,2048.0,-1.0,-1.0,
2090.0,2065.0,2021.0,2037.0,-1.0,-1.0,
2067.0,2080.0,2027.0,2022.0,-1.0,-1.0,
2021.0,2070.0,2041.0,2009.0,-1.0,-1.0,
1982.0,2071.0,2045.0,2031.0,-1.0,-1.0,
1984.0,2128.0,2020.0,2035.0,-1.0,-1.0,
2015.0,2088.0,2025.0,2059.0,-1.0,-1.0,
2055.0,2102.0,2022.0,2032.0,-1.0,-1.0,
2104.0,2065.0,2015.0,2061.0,-1.0,-1.0,
2089.0,2002.0,2026.0,2080.0,0.0,-1.0,
2049.0,2021.0,2017.0,2068.0,0.0,-1.0,
2002.0,2075.0,2026.0,2028.0,0.0,-1.0,
1977.0,2091.0,2039.0,2012.0,0.0,-1.0,
1989.0,2013.0,2082.0,2047.0,0.0,-1.0,
2030.0,2058.0,2070.0,2034.0,0.0,-1.0,
2077.0,2094.0,2045.0,2032.0,0.0,-1.0,
2094.0,2078.0,2005.0,2058.0,0.0,-1.0,
2078.0,2087.0,2010.0,2053.0,0.0,-1.0,
2038.0,2088.0,2008.0,2039.0,0.0,-1.0,
1993.0,2083.0,2013.0,2011.0,0.0,-1.0,
1982.0,2078.0,2033.0,2014.0,0.0,-1.0,
2000.0,2067.0,2061.0,2045.0,0.0,-1.0,
2048.0,2012.0,2033.0,2050.0,0.0,-1.0,
2088.0,2045.0,2045.0,2034.0,0.0,-1.0,
2096.0,2058.0,2024.0,1969.0,0.0,-1.0,
2065.0,2072.0,2049.0,2026.0,0.0,-1.0,
2020.0,2065.0,2044.0,2139.0,0.0,-1.0,
1983.0,2088.0,2045.0,2077.0,0.0,-1.0,
1983.0,2081.0,2046.0,2003.0,0.0,-1.0,
2016.0,2066.0,2016.0,2021.0,0.0,-1.0,
2063.0,2086.0,1990.0,2032.0,0.0,-1.0,
2092.0,2077.0,2034.0,2033.0,0.0,-1.0,
2090.0,2062.0,2049.0,2027.0,0.0,-1.0,
2052.0,2045.0,2041.0,2053.0,0.0,-1.0,
2004.0,2010.0,2027.0,2068.0,0.0,-1.0,
1976.0,2063.0,2044.0,2057.0,-1.0,-1.0,
1988.0,2028.0,2034.0,2025.0,-1.0,-1.0,
2027.0,2099.0,2037.0,2016.0,0.0,-1.0,
2075.0,2086.0,2076.0,2022.0,0.0,-1.0,
2095.0,2018.0,2071.0,2083.0,0.0,-1.0,
2079.0,2025.0,2029.0,2060.0,0.0,-1.0,
2036.0,2117.0,2042.0,1974.0,0.0,-1.0,
1995.0,2114.0,2045.0,1933.0,0.0,-1.0,
1980.0,2079.0,2039.0,2014.0,0.0,-1.0,
2001.0,1986.0,2063.0,2141.0,0.0,-1.0,
2045.0,1958.0,2072.0,2131.0,0.0,-1.0,
2085.0,2051.0,2059.0,2078.0,0.0,-1.0,
2095.0,2084.0,2029.0,2054.0,0.0,-1.0,
2068.0,2113.0,2016.0,2039.0,0.0,-1.0,
2019.0,2091.0,1988.0,2035.0,0.0,-1.0,
1988.0,2129.0,2022.0,2083.0,0.0,-1.0,
1981.0,2129.0,2029.0,2021.0,0.0,-1.0,
2015.0,2093.0,2037.0,1953.0,0.0,-1.0,
2058.0,2050.0,2020.0,2028.0,0.0,-1.0,
2093.0,2051.0,2051.0,2005.0,0.0,-1.0,
2090.0,2057.0,2068.0,2004.0,0.0,-1.0,
2060.0,2055.0,2036.0,2035.0,0.0,-1.0,
2011.0,2070.0,2109.0,2062.0,0.0,-1.0,
1979.0,2068.0,2087.0,2024.0,0.0,-1.0,
1990.0,2075.0,2060.0,2011.0,0.0,-1.0,
2027.0,2075.0,2045.0,2027.0,0.0,-1.0,
2071.0,2050.0,2034.0,2044.0,0.0,-1.0,
2103.0,2051.0,2062.0,2059.0,0.0,-1.0,
2086.0,2074.0,2031.0,2070.0,0,0,
2043.0,2077.0,2015.0,2026.0,0.0,-1.0,
1997.0,2041.0,2054.0,2001.0,0.0,-1.0,
1980.0,2087.0,2028.0,2080.0,-1.0,-1.0,
1996.0,2083.0,2023.0,2114.0,-1.0,-1.0,
2051.0,2084.0,2052.0,2038.0,-1.0,-1.0,
2083.0,2080.0,2060.0,1925.0,-1.0,-1.0,
2093.0,2092.0,2032.0,2016.0,-1.0,-1.0,
2073.0,2067.0,2019.0,2074.0,-1.0,-1.0,
2025.0,2029.0,2014.0,2029.0,-1.0,-1.0,
1986.0,2050.0,2042.0,2016.0,-1.0,-1.0,
1985.0,2075.0,2048.0,2035.0,-1.0,-1.0,
2010.0,2054.0,2030.0,2036.0,-1.0,-1.0,
2054.0,2070.0,2008.0,2025.0,-1.0,-1.0,
2089.0,2081.0,2020.0,2039.0,0.0,-1.0,
2090.0,2089.0,2011.0,2052.0,0.0,-2.0,
2058.0,2043.0,1987.0,2066.0,0.0,-2.0,
2016.0,2081.0,2012.0,2027.0,0.0,-2.0,
1984.0,2078.0,2019.0,2023.0,0.0,-2.0,
1992.0,2060.0,2033.0,2050.0,0.0,-2.0,
2025.0,2074.0,2075.0,2067.0,0.0,-2.0,
2071.0,2068.0,2079.0,2050.0,0.0,-2.0,
2096.0,2058.0,2031.0,2025.0,0.0,-2.0,
2085.0,2088.0,2035.0,2011.0,0.0,-2.0,
2042.0,2064.0,2024.0,2024.0,0.0,-2.0,
1999.0,2079.0,2021.0,2094.0,0.0,-2.0,
1980.0,2040.0,2037.0,2090.0,0.0,-2.0,
1994.0,2161.0,2025.0,1968.0,0.0,-2.0,
2036.0,2122.0,2051.0,1950.0,-1.0,-2.0,
2086.0,1932.0,2044.0,2037.0,0.0,-2.0,
2095.0,1953.0,2034.0,2134.0,-1.0,-2.0,
2069.0,1972.0,2107.0,2182.0,-1.0,-2.0,
2030.0,2062.0,2095.0,2076.0,0.0,-2.0,
1989.0,2085.0,2049.0,1995.0,-1.0,-2.0,
1979.0,2082.0,2041.0,1960.0,-1.0,-2.0,
2014.0,2074.0,2054.0,2029.0,-1.0,-2.0,
2054.0,2068.0,2037.0,2023.0,-1.0,-2.0,
2092.0,2098.0,2029.0,2041.0,-1.0,-2.0,
2092.0,2111.0,1983.0,2062.0,-1.0,-2.0,
2059.0,2107.0,2044.0,2025.0,-1.0,-2.0,
2009.0,2091.0,2021.0,1984.0,-1.0,-2.0,
1966.0,2111.0,2074.0,2000.0,-1.0,-1.0,
1986.0,2062.0,2060.0,2091.0,-1.0,-1.0,
2023.0,2042.0,2087.0,2037.0,-1.0,-1.0,
2069.0,2094.0,2077.0,1992.0,-1.0,-1.0,
2097.0,2093.0,2037.0,2024.0,-1.0,-1.0,
2084.0,2100.0,2012.0,2037.0,-1.0,-1.0,
2049.0,2068.0,2026.0,2034.0,-1.0,-1.0,
2007.0,2036.0,2037.0,2053.0,-1.0,-1.0,
1979.0,2036.0,2018.0,2043.0,-1.0,-1.0,
1996.0,2043.0,2042.0,2046.0,-1.0,-1.0,
2031.0,2090.0,2018.0,2044.0,-1.0,-1.0,
2079.0,2099.0,2031.0,2045.0,-1.0,-1.0,
2095.0,2032.0,2042.0,2038.0,-1.0,-1.0,
2081.0,2034.0,2028.0,2036.0,-1.0,-1.0,
2032.0,2067.0,2020.0,2030.0,-1.0,-1.0,
1992.0,2079.0,2015.0,2009.0,-1.0,-1.0,
1982.0,2052.0,2017.0,2040.0,-1.0,-1.0,
2002.0,2045.0,2042.0,2043.0,-1.0,-1.0,
2049.0,2074.0,2083.0,2090.0,-1.0,-1.0,
2092.0,2104.0,2065.0,2062.0,-1.0,-2.0,
2093.0,2078.0,2042.0,2016.0,0.0,-1.0,
2063.0,2058.0,2064.0,2027.0,0.0,-2.0,
2019.0,2041.0,2037.0,2028.0,-1.0,-2.0,
1981.0,2093.0,2020.0,2017.0,-1.0,-2.0,
1983.0,2102.0,2039.0,2022.0,-1.0,-2.0,
2019.0,2109.0,2052.0,2016.0,-1.0,-2.0,
2065.0,2086.0,2045.0,2053.0,-1.0,-2.0,
2094.0,2004.0,2066.0,2062.0,-1.0,-2.0,
2088.0,2001.0,2053.0,2071.0,-1.0,-2.0,
2049.0,2043.0,2003.0,2016.0,0.0,-2.0,
2005.0,2072.0,2028.0,2011.0,0.0,-2.0,
1983.0,2102.0,2040.0,2022.0,0.0,-2.0,
1991.0,2081.0,2022.0,2037.0,0.0,-2.0,
2032.0,2035.0,2022.0,2060.0,0.0,-2.0,
2076.0,2054.0,2044.0,2043.0,0.0,-2.0,
2096.0,2065.0,2010.0,2063.0,0.0,-2.0,
2078.0,2085.0,2032.0,2020.0,-1.0,-2.0,
2040.0,2080.0,2013.0,2008.0,-1.0,-2.0,
1994.0,2042.0,2011.0,2068.0,-1.0,-2.0,
1977.0,2072.0,2007.0,2059.0,0.0,-2.0,
2000.0,2084.0,1997.0,2036.0,-1.0,-2.0,
2045.0,2112.0,2051.0,2009.0,0.0,-2.0,
2083.0,2076.0,2097.0,2063.0,0.0,-2.0,
2101.0,1998.0,2094.0,2047.0,0.0,-2.0,
2072.0,2047.0,2069.0,2040.0,0.0,-2.0,
2022.0,2075.0,2063.0,1958.0,0.0,-2.0,
1984.0,2092.0,2051.0,1995.0,0.0,-2.0,
1982.0,2065.0,2028.0,2077.0,0.0,-2.0,
2017.0,2050.0,2050.0,2047.0,0.0,-2.0,
2056.0,2080.0,2053.0,2056.0,0.0,-2.0,
2098.0,2107.0,2048.0,2034.0,0.0,-2.0,
2089.0,2057.0,2042.0,2028.0,0,0,
2055.0,2085.0,2031.0,2033.0,0.0,-2.0,
2008.0,2095.0,2005.0,2016.0,0.0,-2.0,
1980.0,2120.0,2019.0,2025.0,-1.0,-1.0,
1989.0,2139.0,2037.0,2008.0,-1.0,-1.0,
2031.0,2047.0,2026.0,2052.0,-1.0,-1.0,
2076.0,2024.0,1991.0,2100.0,-1.0,-1.0,
2093.0,1999.0,2064.0,2064.0,-1.0,-1.0,
2082.0,2019.0,2057.0,2067.0,-1.0,-1.0,
2040.0,2016.0,2056.0,2024.0,-1.0,-1.0,
1995.0,2067.0,2075.0,2029.0,-1.0,-1.0,
1981.0,2131.0,2086.0,2024.0,-1.0,-1.0,
2000.0,2114.0,2039.0,2047.0,-1.0,-1.0,
2044.0,2056.0,2007.0,2074.0,-1.0,-1.0,
2084.0,2063.0,2016.0,2033.0,-1.0,-1.0,
2092.0,2073.0,2017.0,2020.0,-1.0,-1.0,
2067.0,2070.0,2012.0,2030.0,-1.0,-1.0,
2026.0,2091.0,2017.0,2024.0,-1.0,-1.0,
1988.0,2090.0,2026.0,2021.0,-1.0,-1.0,
1982.0,2077.0,2031.0,2020.0,-1.0,-1.0,
2016.0,2056.0,2032.0,2025.0,-1.0,-1.0,
2056.0,2019.0,2035.0,2061.0,-1.0,-1.0,
2092.0,2064.0,2029.0,2044.0,-1.0,-1.0,
2090.0,2071.0,2013.0,2046.0,-1.0,-1.0,
2057.0,2088.0,2039.0,2040.0,-1.0,-2.0,
2012.0,2061.0,2087.0,2027.0,-1.0,-2.0,
1980.0,2051.0,2084.0,2013.0,-1.0,-1.0,
1986.0,2083.0,2068.0,2021.0,-1.0,-1.0,
2024.0,2049.0,2057.0,2037.0,-1.0,-1.0,
2072.0,2067.0,2057.0,2016.0,-1.0,-1.0,
2101.0,2116.0,2053.0,2032.0,-1.0,-1.0,
2081.0,2128.0,2022.0,2074.0,-1.0,-1.0,
2044.0,2033.0,2018.0,2107.0,-1.0,-1.0,
1996.0,1988.0,1993.0,2072.0,-1.0,-1.0,
1977.0,2008.0,2014.0,2047.0,-1.0,-1.0,
1997.0,2034.0,2008.0,2068.0,-1.0,-1.0,
2039.0,2054.0,2003.0,2047.0,0.0,-1.0,
2080.0,2069.0,1981.0,2006.0,0.0,-1.0,
2095.0,2093.0,1987.0,2029.0,0.0,-1.0,
2074.0,2076.0,1984.0,1997.0,-1.0,-1.0,
2028.0,2101.0,2028.0,1939.0,-1.0,-1.0,
1992.0,2090.0,2059.0,2003.0,-1.0,-1.0,
1980.0,2114.0,2038.0,2031.0,0.0,-1.0,
2007.0,2087.0,2051.0,2101.0,0.0,-1.0,
2053.0,2089.0,2046.0,2062.0,-1.0,-1.0,
2089.0,2119.0,2048.0,2046.0,-1.0,-1.0,
2091.0,2038.0,2067.0,2104.0,-1.0,-1.0,
2064.0,2033.0,2059.0,2103.0,-1.0,-1.0,
2019.0,2051.0,2023.0,2015.0,-1.0,-1.0,
1981.0,2080.0,2046.0,2008.0,-1.0,-1.0,
1987.0,2077.0,2052.0,2036.0,-1.0,-1.0,
2018.0,2004.0,2022.0,2028.0,-1.0,-1.0,
2065.0,2102.0,2084.0,1958.0,-1.0,-1.0,
2104.0,2099.0,2065.0,2020.0,-1.0,-1.0,
2088.0,2100.0,2060.0,2040.0,-1.0,-1.0,
2047.0,2064.0,2040.0,2029.0,-1.0,-1.0,
2000.0,2016.0,2052.0,2014.0,-1.0,-1.0,
1981.0,2024.0,2078.0,2034.0,-1.0,-1.0,
1993.0,2057.0,2061.0,2053.0,-1.0,-1.0,
2033.0,2060.0,2043.0,2075.0,-1.0,-1.0,
2081.0,2032.0,2000.0,2066.0,-1.0,-1.0,
2094.0,2085.0,2017.0,2033.0,-1.0,-1.0,
2076.0,2099.0,2003.0,2015.0,-1.0,-1.0,
2032.0,2086.0,2006.0,2062.0,-1.0,-1.0,
1992.0,2037.0,1987.0,2052.0,-1.0,-1.0,
1979.0,2032.0,2040.0,2041.0,-1.0,-1.0,
2008.0,2033.0,2075.0,2027.0,-1.0,-1.0,
2050.0,2093.0,2043.0,2054.0,-1.0,-1.0,
2088.0,2084.0,2064.0,2021.0,-1.0,-1.0,
2095.0,2039.0,2044.0,1990.0,-1.0,-1.0,
2064.0,2089.0,2042.0,2032.0,-1.0,-1.0,
2017.0,2078.0,2070.0,2118.0,-1.0,-1.0,
1985.0,2094.0,2067.0,2061.0,-1.0,-1.0,
1982.0,2119.0,2073.0,2016.0,-1.0,-1.0,
2016.0,2100.0,2053.0,2033.0,-1.0,-1.0,
2063.0,2067.0,2030.0,2031.0,-1.0,-1.0,
2094.0,2027.0,2014.0,2030.0,-1.0,-1.0,
2088.0,2037.0,2009.0,2027.0,-1.0,-1.0,
2054.0,2048.0,1998.0,1995.0,-1.0,-1.0,
2006.0,2074.0,2004.0,2027.0,-1.0,-1.0,
1980.0,2159.0,2022.0,2040.0,-1.0,-1.0,
1991.0,2078.0,2017.0,2082.0,-1.0,-1.0,
2031.0,2130.0,2026.0,2025.0,-1.0,-1.0,
2075.0,2071.0,2027.0,2029.0,-1.0,-1.0,
2099.0,1988.0,2029.0,2074.0,-1.0,-1.0,
2078.0,1972.0,2031.0,2096.0,-1.0,-2.0,
2032.0,2033.0,2035.0,2046.0,-1.0,-2.0,
1993.0,2100.0,2059.0,2032.0,-1.0,-2.0,
1978.0,2154.0,2056.0,2031.0,-1.0,-2.0,
2001.0,2028.0,2034.0,2022.0,-1.0,-2.0,
2035.0,2101.0,2065.0,1959.0,-1.0,-2.0,
2089.0,1991.0,2016.0,2065.0,-1.0,-2.0,
2093.0,1952.0,1998.0,2112.0,-1.0,-2.0,
2067.0,2073.0,2007.0,2057.0,-1.0,-2.0,
2018.0,2059.0,1989.0,2037.0,-1.0,-2.0,
1981.0,2016.0,2020.0,2037.0,-1.0,-2.0,
1984.0,2089.0,2062.0,2017.0,-1.0,-2.0,
2016.0,2167.0,2022.0,2006.0,-1.0,-2.0,
2063.0,2025.0,2056.0,2072.0,-1.0,-2.0,
2093.0,2102.0,2045.0,2047.0,-1.0,-2.0,
2087.0,2094.0,2027.0,1982.0,-1.0,-2.0,
2053.0,2116.0,2099.0,2027.0,-1.0,-2.0,
2009.0,2116.0,2056.0,2062.0,-1.0,-2.0,
1980.0,2070.0,2056.0,2032.0,-1.0,-2.0,
1990.0,2074.0,2048.0,2025.0,-1.0,-2.0,
2029.0,2064.0,2028.0,2002.0,-1.0,-2.0,
2072.0,2103.0,2028.0,2044.0,-1.0,-2.0,
2091.0,2093.0,2068.0,2093.0,-1.0,-1.0,
2083.0,2071.0,2030.0,2046.0,-1.0,-1.0,
2040.0,2014.0,2066.0,2078.0,-1.0,-1.0,
1993.0,1929.0,2085.0,2092.0,-1.0,-1.0,
1980.0,2002.0,2088.0,2042.0,-1.0,-1.0,
2001.0,2051.0,2103.0,2009.0,-1.0,-1.0,
2043.0,2130.0,2098.0,1990.0,-1.0,-1.0,
2087.0,2101.0,2050.0,1992.0,-1.0,-1.0,
2095.0,2046.0,2034.0,1998.0,-1.0,-1.0,
2068.0,2038.0,2051.0,2090.0,-1.0,-1.0,
2021.0,2010.0,1967.0,2082.0,-1.0,-1.0,
1984.0,2100.0,1996.0,2052.0,-1.0,-1.0,
1982.0,2027.0,2029.0,2021.0,-1.0,-1.0,
2011.0,2094.0,2025.0,2050.0,-1.0,-1.0,
2062.0,2097.0,2004.0,2046.0,-1.0,-1.0,
2096.0,2063.0,2054.0,2074.0,-1.0,-1.0,
2091.0,2140.0,2036.0,2084.0,-1.0,-1.0,
2055.0,2091.0,2006.0,1993.0,-1.0,-1.0,
2009.0,2062.0,2026.0,1992.0,-1.0,-1.0,
1986.0,2109.0,1966.0,1999.0,-1.0,-1.0,
1986.0,2137.0,2041.0,2001.0,-1.0,-1.0,
2024.0,2091.0,2038.0,2023.0,-1.0,-1.0,
2069.0,1915.0,2022.0,2051.0,-1.0,-1.0,
2095.0,1991.0,2020.0,2066.0,-1.0,-1.0,
2082.0,2101.0,2051.0,1977.0,-1.0,-1.0,
2041.0,2238.0,2096.0,2004.0,-1.0,-1.0,
1993.0,2291.0,2072.0,2022.0,-1.0,-1.0,
1979.0,1819.0,2044.0,2191.0,-1.0,-1.0,
2002.0,1805.0,2030.0,2162.0,-1.0,-1.0,
2044.0,1927.0,1979.0,2009.0,-1.0,-1.0,
2084.0,2084.0,2068.0,1978.0,-1.0,-1.0,
2097.0,2112.0,2071.0,2036.0,-1.0,-1.0,
2071.0,2160.0,2047.0,2044.0,-1.0,-1.0,
2022.0,2099.0,2039.0,2031.0,-1.0,-1.0,
1984.0,1995.0,2032.0,2019.0,-1.0,-1.0,
1983.0,2062.0,2050.0,2020.0,-1.0,-1.0,
2014.0,2131.0,2051.0,2090.0,-1.0,-1.0,
2061.0,2165.0,2046.0,2008.0,-1.0,-1.0,
2095.0,2097.0,2025.0,2025.0,-1.0,-1.0,
2092.0,2169.0,2031.0,1966.0,-1.0,-1.0,
2058.0,2107.0,2042.0,1997.0,-1.0,-1.0,
2008.0,1933.0,2044.0,2121.0,-1.0,-1.0,
1981.0,2037.0,2170.0,2107.0,-1.0,-1.0,
1990.0,2069.0,2081.0,2086.0,-1.0,-1.0,
2027.0,2040.0,2051.0,2037.0,-1.0,-1.0,
2071.0,1944.0,2020.0,2012.0,-1.0,-1.0,
2096.0,2037.0,2003.0,2001.0,-1.0,-1.0,
2082.0,2219.0,2022.0,1980.0,-1.0,-1.0,
2041.0,2108.0,1987.0,2038.0,-1.0,-1.0,
1998.0,2069.0,1964.0,1968.0,-1.0,-1.0,
1978.0,2127.0,2005.0,2073.0,-1.0,-1.0,
1996.0,2126.0,2050.0,2124.0,-1.0,-1.0,
2040.0,1924.0,2012.0,2136.0,-1.0,-1.0,
2084.0,1935.0,2080.0,2037.0,-1.0,-1.0,
2094.0,1992.0,2080.0,2047.0,-1.0,-1.0,
2072.0,2095.0,2061.0,2127.0,-1.0,-1.0,
2025.0,2174.0,2085.0,2023.0,-1.0,-1.0,
1988.0,2195.0,2061.0,1938.0,-1.0,-1.0,
1982.0,2055.0,2025.0,1993.0,-1.0,-1.0,
2008.0,2018.0,2017.0,2161.0,-1.0,-1.0,
2055.0,2094.0,2078.0,2044.0,-1.0,-1.0,
2095.0,2076.0,2058.0,1867.0,-1.0,-1.0,
2091.0,1956.0,2016.0,2112.0,-1.0,-1.0,
2059.0,1946.0,2004.0,2077.0,-1.0,-1.0,
2011.0,2123.0,1995.0,1898.0,0.0,-1.0,
1980.0,2122.0,1964.0,1961.0,0.0,-1.0,
1985.0,2140.0,2090.0,2118.0,0.0,-1.0,
2021.0,1960.0,2145.0,2112.0,0.0,-1.0,
2074.0,2024.0,2120.0,2035.0,0.0,-1.0,
2096.0,2147.0,2100.0,2017.0,0.0,-1.0,
2082.0,2175.0,2049.0,2107.0,0.0,-1.0,
2043.0,2124.0,2052.0,2042.0,0.0,-1.0,
1997.0,2123.0,2083.0,1999.0,0.0,-1.0,
1981.0,2145.0,2051.0,1921.0,0.0,-1.0,
1996.0,2034.0,1984.0,1995.0,0.0,-1.0,
2038.0,1988.0,1957.0,2171.0,0.0,-1.0,
2080.0,2045.0,2018.0,2184.0,0.0,-1.0,
2092.0,2049.0,2072.0,2070.0,0.0,-1.0,
2069.0,1923.0,2076.0,2072.0,0.0,-1.0,
2028.0,2039.0,2058.0,1925.0,0.0,-1.0,
1987.0,2196.0,2026.0,2011.0,0.0,-1.0,
1981.0,2299.0,2048.0,1986.0,0.0,-1.0,
2007.0,2049.0,2010.0,1953.0,0.0,-1.0,
2053.0,1840.0,1962.0,2043.0,0.0,-1.0,
2097.0,1816.0,2026.0,2129.0,0.0,-1.0,
2094.0,2098.0,2002.0,2138.0,0.0,-1.0,
2062.0,2107.0,1996.0,2035.0,1.0,-1.0,
2016.0,2229.0,2065.0,1985.0,1.0,-1.0,
1982.0,2147.0,2015.0,2039.0,1.0,-1.0,
1984.0,1922.0,2044.0,2006.0,0,0,
2019.0,1895.0,2163.0,1940.0,1.0,-1.0,
2068.0,2086.0,2070.0,1961.0,1.0,-1.0,
2092.0,2121.0,2038.0,2116.0,1.0,-1.0,
2080.0,2105.0,2024.0,2209.0,1.0,-1.0,
2040.0,2113.0,2030.0,2039.0,1.0,-1.0,
2000.0,2092.0,2024.0,2030.0,1.0,-1.0,
1979.0,2317.0,2102.0,1974.0,1.0,-1.0,
1991.0,2089.0,2049.0,2026.0,1.0,-1.0,
2037.0,2074.0,2010.0,2041.0,1.0,-1.0,
2078.0,1905.0,1998.0,2023.0,1.0,-1.0,
2095.0,2098.0,1994.0,2027.0,1.0,-1.0,
2074.0,2054.0,2009.0,2042.0,1.0,-1.0,
2031.0,1957.0,2048.0,2041.0,2.0,-1.0,
1990.0,2036.0,2062.0,1991.0,2.0,-1.0,
1980.0,2116.0,2046.0,2023.0,2.0,-1.0,
2004.0,2132.0,2097.0,2046.0,2.0,-1.0,
2049.0,2017.0,2055.0,2102.0,2.0,-1.0,
2089.0,2096.0,2055.0,2090.0,2.0,0,
2094.0,2133.0,2000.0,1868.0,3.0,-1.0,
2063.0,1941.0,1967.0,2067.0,3.0,-1.0,
2016.0,2014.0,1993.0,1919.0,3.0,-1.0,
1982.0,1908.0,2023.0,2187.0,3.0,-1.0,
1985.0,2085.0,2076.0,2031.0,3.0,-1.0,
2022.0,2098.0,2068.0,2114.0,3.0,-1.0,
2072.0,2231.0,2049.0,2082.0,4.0,-1.0,
2097.0,2120.0,1951.0,2114.0,4.0,-1.0,
2084.0,2308.0,2050.0,2025.0,4.0,-1.0,
2049.0,1934.0,2091.0,1967.0,4.0,-1.0,
2003.0,2025.0,2057.0,2080.0,4.0,-1.0,
1977.0,1952.0,2038.0,2027.0,4.0,-2.0,
2000.0,1846.0,2007.0,2044.0,5.0,-2.0,
2034.0,2147.0,1990.0,1950.0,5.0,-2.0,
2079.0,2158.0,2006.0,1871.0,5.0,-2.0,
2095.0,2193.0,1997.0,2095.0,5.0,-2.0,
2077.0,2012.0,2017.0,2215.0,5.0,-2.0,
2031.0,2006.0,1974.0,2004.0,5.0,-2.0,
1992.0,1977.0,2043.0,2027.0,5.0,-2.0,
1982.0,2004.0,2086.0,2291.0,6.0,-2.0,
2004.0,2094.0,2169.0,1978.0,6.0,-2.0,
2050.0,2080.0,2068.0,2052.0,6.0,-2.0,
2088.0,2191.0,2032.0,2050.0,6.0,-2.0,
2094.0,2229.0,1989.0,1842.0,6.0,-2.0,
2064.0,1913.0,1983.0,1907.0,6.0,-2.0,
2024.0,1993.0,2057.0,1984.0,7.0,-2.0,
1985.0,2171.0,2195.0,2081.0,7.0,-2.0,
1982.0,1907.0,2147.0,2124.0,7.0,-2.0,
2017.0,2139.0,2046.0,2016.0,7.0,-2.0,
2064.0,2209.0,1972.0,2073.0,7.0,-1.0,
2094.0,2078.0,1988.0,2001.0,8.0,-1.0,
2088.0,2051.0,1924.0,1919.0,8.0,-1.0,
2046.0,2315.0,2084.0,2111.0,8.0,-1.0,
2005.0,2173.0,2108.0,2040.0,8.0,0,
1977.0,1923.0,2029.0,2134.0,8.0,-1.0,
1991.0,1958.0,2033.0,2108.0,9.0,-1.0,
2038.0,2013.0,2000.0,2043.0,9.0,-1.0,
2078.0,2076.0,1994.0,2055.0,9.0,-1.0,
2096.0,2055.0,2042.0,1848.0,9.0,-1.0,
2077.0,1987.0,2043.0,2145.0,9.0,-1.0,
2034.0,2244.0,2148.0,2160.0,10.0,-1.0,
1992.0,2213.0,2030.0,2103.0,10.0,-1.0,
1983.0,2010.0,2050.0,2272.0,10.0,-1.0,
2007.0,1958.0,1987.0,1902.0,10.0,0.0,
2048.0,1923.0,2021.0,1750.0,10.0,0.0,
2090.0,1900.0,1986.0,2012.0,11.0,0.0,
2095.0,2135.0,2003.0,2103.0,11.0,0.0,
2062.0,1999.0,1984.0,2081.0,11.0,0.0,
2022.0,2211.0,2014.0,1982.0,11.0,0.0,
1984.0,2224.0,2026.0,1979.0,11.0,0.0,
1984.0,2063.0,1936.0,2186.0,11.0,0.0,
2016.0,2055.0,2038.0,2185.0,12.0,0.0,
2059.0,2162.0,2043.0,1919.0,12.0,-1.0,
2095.0,2266.0,2106.0,1559.0,12.0,-1.0,
2097.0,2147.0,2239.0,1936.0,12.0,-1.0,
2054.0,2023.0,2016.0,2093.0,12.0,-1.0,
2006.0,1662.0,2138.0,2603.0,13.0,-1.0,
1980.0,1793.0,2090.0,2277.0,13.0,-1.0,
1987.0,2008.0,2037.0,2168.0,13.0,0.0,
2030.0,2126.0,2067.0,2021.0,13.0,0.0,
2079.0,2201.0,2042.0,1994.0,13.0,0.0,
2098.0,1973.0,2017.0,1910.0,13.0,0.0,
2077.0,2206.0,1965.0,1720.0,14.0,0.0,
2039.0,2184.0,2008.0,1957.0,14.0,0.0,
1994.0,2093.0,1872.0,2136.0,14.0,0.0,
1977.0,2068.0,1984.0,2067.0,14.0,0.0,
2003.0,2073.0,1901.0,2103.0,14.0,0.0,
2049.0,2081.0,2060.0,1972.0,14.0,-1.0,
2089.0,2126.0,2117.0,1937.0,14.0,-1.0,
2095.0,2068.0,2026.0,1920.0,15.0,-1.0,
2070.0,2278.0,2183.0,2060.0,15.0,-1.0,
2020.0,1896.0,2182.0,2277.0,15.0,-1.0,
1991.0,2174.0,2095.0,2224.0,0,0,
1986.0,1901.0,1992.0,1738.0,15.0,-1.0,
2018.0,1908.0,1984.0,2041.0,15.0,-1.0,
2060.0,2025.0,1970.0,2421.0,16.0,-1.0,
2090.0,2176.0,1954.0,1859.0,16.0,-1.0,
2088.0,2166.0,1996.0,1753.0,16.0,-1.0,
2056.0,2024.0,2007.0,1912.0,16.0,-1.0,
2007.0,2225.0,2145.0,2089.0,16.0,-1.0,
1981.0,1816.0,2048.0,2230.0,16.0,-1.0,
1988.0,1930.0,2075.0,2037.0,17.0,-1.0,
2026.0,2251.0,2116.0,1960.0,17.0,-1.0,
2074.0,2279.0,1939.0,1947.0,17.0,-1.0,
2103.0,2328.0,1904.0,2164.0,17.0,-1.0,
2081.0,1966.0,2040.0,2077.0,17.0,-1.0,
2040.0,1939.0,1925.0,1978.0,18.0,-1.0,
1996.0,2305.0,2100.0,2031.0,18.0,-1.0,
1977.0,1748.0,2010.0,2220.0,18.0,-1.0,
1997.0,1964.0,1954.0,2152.0,18.0,-1.0,
2046.0,1878.0,2169.0,1765.0,19.0,-1.0,
2089.0,2084.0,2024.0,2088.0,19.0,-1.0,
2094.0,1995.0,2085.0,2278.0,19.0,-1.0,
2067.0,2151.0,2070.0,2261.0,19.0,-1.0,
2022.0,1948.0,2125.0,1778.0,19.0,-1.0,
1983.0,2145.0,2160.0,1934.0,19.0,-1.0,
1987.0,1942.0,1961.0,2106.0,19.0,-1.0,
2014.0,1989.0,2047.0,2026.0,20.0,-1.0,
2062.0,2109.0,2023.0,2058.0,20.0,-1.0,
2094.0,2159.0,1927.0,1900.0,20.0,-1.0,
2091.0,2296.0,2078.0,2112.0,20.0,-1.0,
2055.0,2053.0,2044.0,2166.0,20.0,-1.0,
2010.0,2080.0,2039.0,1799.0,21.0,-1.0,
1981.0,2220.0,1784.0,1893.0,21.0,-1.0,
1985.0,2100.0,1990.0,2107.0,21.0,-1.0,
2025.0,1873.0,1936.0,2249.0,21.0,-1.0,
2075.0,1940.0,2218.0,1999.0,21.0,-1.0,
2096.0,2248.0,2137.0,2041.0,21.0,-1.0,
2085.0,2263.0,2039.0,1826.0,21.0,-1.0,
2040.0,2168.0,2121.0,1943.0,21.0,-1.0,
1996.0,1738.0,1922.0,2103.0,21.0,-1.0,
1980.0,1908.0,1892.0,2010.0,21.0,-1.0,
1999.0,1902.0,1990.0,2012.0,21.0,-1.0,
2042.0,2137.0,2097.0,2240.0,21.0,-1.0,
2085.0,2259.0,2394.0,1959.0,22.0,-1.0,
2095.0,1986.0,2056.0,1614.0,22.0,-1.0,
2070.0,2206.0,2015.0,2116.0,22.0,-1.0,
2023.0,1858.0,1947.0,2304.0,22.0,-1.0,
1986.0,1801.0,1967.0,2218.0,22.0,-1.0,
1982.0,2008.0,2004.0,2415.0,22.0,-1.0,
2013.0,2074.0,2119.0,2106.0,22.0,-1.0,
2059.0,2104.0,2207.0,2033.0,22.0,0.0,
2092.0,2160.0,2068.0,1826.0,22.0,0.0,
2088.0,2227.0,1874.0,1934.0,22.0,0.0,
2055.0,1947.0,1865.0,1599.0,23.0,0.0,
2011.0,2001.0,1932.0,2140.0,23.0,0.0,
1983.0,2021.0,2360.0,2206.0,23.0,0.0,
1989.0,2217.0,2027.0,1968.0,23.0,0.0,
2024.0,2303.0,2036.0,1841.0,23.0,0.0,
2070.0,1733.0,2060.0,2254.0,24.0,0.0,
2091.0,1955.0,2031.0,2458.0,24.0,0.0,
2084.0,2063.0,2028.0,2063.0,24.0,0.0,
2045.0,2270.0,1948.0,1942.0,24.0,0.0,
1998.0,2101.0,1875.0,1858.0,24.0,0.0,
1979.0,2228.0,1901.0,1978.0,24.0,0.0,
1999.0,2021.0,2063.0,1830.0,24.0,0.0,
2043.0,1869.0,2128.0,2103.0,24.0,0.0,
2081.0,2055.0,2002.0,1959.0,24.0,0.0,
2099.0,2283.0,2014.0,2037.0,24.0,0.0,
2072.0,2035.0,2045.0,2194.0,25.0,0.0,
2029.0,2181.0,1994.0,2054.0,25.0,0.0,
1987.0,1907.0,2189.0,2277.0,25.0,0.0,
1981.0,1964.0,2221.0,1966.0,25.0,0.0,
2013.0,2235.0,2079.0,1877.0,25.0,0.0,
2053.0,2266.0,1981.0,2066.0,25.0,0.0,
2096.0,2223.0,1987.0,1823.0,25.0,0.0,
2089.0,1849.0,2103.0,2392.0,25.0,0.0,
2057.0,1836.0,2122.0,2140.0,25.0,0.0,
2012.0,2149.0,2005.0,1992.0,25.0,0.0,
1980.0,2047.0,2140.0,1814.0,25.0,0.0,
1991.0,1939.0,2013.0,2053.0,25.0,0.0,
2025.0,2075.0,2015.0,2141.0,25.0,0.0,
2072.0,2269.0,1951.0,1913.0,25.0,0.0,
2095.0,2060.0,1955.0,2172.0,25.0,0.0,
2085.0,1914.0,2108.0,2288.0,25.0,0.0,
2043.0,2108.0,2062.0,2044.0,25.0,0.0,
2000.0,2179.0,2016.0,1788.0,25.0,0.0,
1980.0,2129.0,2064.0,1878.0,25.0,0.0,
1997.0,2174.0,2094.0,1919.0,26.0,0.0,
2041.0,1906.0,2027.0,2183.0,26.0,0.0,
2081.0,2256.0,1829.0,2136.0,26.0,0.0,
2096.0,2230.0,1844.0,1912.0,26.0,0.0,
2076.0,2142.0,2188.0,2073.0,26.0,0.0,
2029.0,2086.0,2126.0,2234.0,26.0,0.0,
1986.0,1834.0,2051.0,2081.0,26.0,0.0,
1979.0,1919.0,1996.0,2089.0,26.0,0.0,
2010.0,2048.0,1954.0,1938.0,26.0,0.0,
2055.0,2127.0,2034.0,1836.0,26.0,0.0,
2096.0,2140.0,2126.0,1969.0,26.0,0.0,
2091.0,2133.0,2073.0,2039.0,26.0,0.0,
2059.0,1968.0,1990.0,2169.0,26.0,0.0,
2011.0,1930.0,2034.0,2055.0,27.0,0.0,
1982.0,2008.0,2080.0,2025.0,27.0,0.0,
1992.0,1907.0,2054.0,2111.0,27.0,0.0,
2023.0,2156.0,2137.0,2078.0,27.0,0.0,
2068.0,2276.0,2133.0,1757.0,27.0,0.0,
2098.0,1840.0,1974.0,1938.0,27.0,0.0,
2086.0,1870.0,2006.0,2273.0,27.0,0.0,
2051.0,2099.0,1854.0,2047.0,27.0,0.0,
2001.0,2304.0,2021.0,2159.0,27.0,0.0,
1980.0,2125.0,2105.0,2031.0,27.0,0.0,
1996.0,2162.0,2092.0,2014.0,27.0,0.0,
2036.0,2048.0,2038.0,2121.0,27.0,0.0,
2079.0,2121.0,2048.0,1968.0,27.0,0.0,
2096.0,2048.0,2102.0,2024.0,27.0,0.0,
2073.0,2113.0,1961.0,1901.0,27.0,0.0,
2031.0,2063.0,2095.0,2021.0,27.0,0.0,
1991.0,2174.0,1978.0,1886.0,27.0,0.0,
1980.0,2289.0,2042.0,2126.0,27.0,0.0,
2003.0,1956.0,2070.0,2423.0,27.0,0.0,
2049.0,1896.0,2012.0,1995.0,28.0,0.0,
2091.0,2038.0,1939.0,1863.0,27.0,0.0,
2096.0,2272.0,1980.0,2073.0,28.0,0.0,
2061.0,2164.0,2171.0,2065.0,28.0,0.0,
2016.0,1747.0,1945.0,2176.0,28.0,0.0,
1982.0,1783.0,1890.0,1872.0,28.0,0.0,
1982.0,2021.0,2238.0,1914.0,28.0,0.0,
2022.0,2201.0,2052.0,2175.0,28.0,-1.0,
2070.0,1978.0,2149.0,1927.0,28.0,-1.0,
2100.0,2332.0,2123.0,2000.0,28.0,-1.0,
2086.0,2323.0,1982.0,1973.0,28.0,-1.0,
2048.0,1814.0,2088.0,2013.0,28.0,-1.0,
2001.0,1925.0,1993.0,2131.0,28.0,-1.0,
1976.0,1953.0,2059.0,2077.0,28.0,-1.0,
1993.0,2109.0,1951.0,2086.0,28.0,-1.0,
2033.0,2233.0,2191.0,1933.0,28.0,-1.0,
2077.0,1946.0,2055.0,1732.0,28.0,-1.0,
2098.0,2170.0,1944.0,1897.0,28.0,0,
2076.0,2292.0,1844.0,2211.0,28.0,-1.0,
2034.0,2069.0,2096.0,2144.0,28.0,-1.0,
1992.0,1769.0,1989.0,2046.0,28.0,-1.0,
1980.0,1975.0,2115.0,2124.0,28.0,-1.0,
2004.0,2124.0,1997.0,2108.0,28.0,-1.0,
2049.0,2005.0,2047.0,2108.0,28.0,-1.0,
2093.0,2238.0,2159.0,2049.0,28.0,-1.0,
2092.0,2177.0,2001.0,1994.0,28.0,-1.0,
2066.0,2129.0,2017.0,1999.0,28.0,-1.0,
2018.0,1906.0,2136.0,1997.0,28.0,-1.0,
1981.0,1838.0,2049.0,2135.0,28.0,-1.0,
1986.0,1951.0,2048.0,1944.0,28.0,-1.0,
2017.0,2226.0,1988.0,1866.0,28.0,-1.0,
2073.0,2235.0,1938.0,2044.0,28.0,-1.0,
2095.0,2259.0,2095.0,1965.0,28.0,-1.0,
2088.0,1934.0,2095.0,2232.0,28.0,-1.0,
2050.0,1816.0,2148.0,2156.0,28.0,-1.0,
2000.0,2031.0,2023.0,1912.0,28.0,-1.0,
1981.0,2105.0,2011.0,1987.0,28.0,-1.0,
1994.0,2116.0,1940.0,1976.0,28.0,-1.0,
2035.0,2071.0,2005.0,1802.0,28.0,-1.0,
2076.0,2289.0,2159.0,2024.0,28.0,-1.0,
2096.0,2246.0,2042.0,2039.0,28.0,-1.0,
2076.0,2278.0,2117.0,2232.0,28.0,-1.0,
2034.0,2124.0,1984.0,2060.0,28.0,-1.0,
1994.0,1814.0,2033.0,1988.0,28.0,-1.0,
1982.0,1843.0,1967.0,1848.0,28.0,-1.0,
2005.0,2079.0,2206.0,2274.0,28.0,-1.0,
2052.0,1835.0,2071.0,2275.0,28.0,0,
2090.0,1997.0,1886.0,2017.0,28.0,-1.0,
2094.0,2263.0,1895.0,1857.0,28.0,-1.0,
2069.0,2146.0,2104.0,1919.0,28.0,-1.0,
2021.0,2061.0,2155.0,2106.0,28.0,-1.0,
1984.0,2146.0,2100.0,2069.0,28.0,-1.0,
1986.0,1888.0,1919.0,1985.0,28.0,-1.0,
2021.0,2233.0,2000.0,2271.0,28.0,-1.0,
2063.0,2207.0,1888.0,1772.0,28.0,-1.0,
2097.0,2094.0,1935.0,1939.0,28.0,-1.0,
2091.0,1831.0,1903.0,2085.0,29.0,-1.0,
2049.0,2136.0,2023.0,1998.0,28.0,-1.0,
2004.0,1928.0,2365.0,2337.0,28.0,-1.0,
1979.0,2019.0,2221.0,2130.0,28.0,-1.0,
1991.0,2026.0,2137.0,2027.0,28.0,-1.0,
2034.0,2088.0,2124.0,1986.0,29.0,-1.0,
2082.0,2395.0,2051.0,1991.0,28.0,-1.0,
2096.0,2039.0,1997.0,2097.0,28.0,-1.0,
2078.0,1957.0,2006.0,2051.0,28.0,-1.0,
2034.0,2030.0,2016.0,1978.0,28.0,-1.0,
1997.0,2124.0,1983.0,1776.0,29.0,-1.0,
1982.0,2025.0,2008.0,1928.0,29.0,-1.0,
2004.0,2365.0,2019.0,2235.0,29.0,-1.0,
2050.0,2145.0,2006.0,2098.0,29.0,-1.0,
2088.0,1742.0,1976.0,2065.0,29.0,-1.0,
2096.0,2067.0,1887.0,1946.0,29.0,-1.0,
2071.0,2071.0,2042.0,1842.0,29.0,-1.0,
2021.0,2190.0,1976.0,2157.0,29.0,-1.0,
1983.0,2091.0,2090.0,2209.0,29.0,-1.0,
1985.0,2075.0,2042.0,2129.0,29.0,-2.0,
2016.0,1947.0,1999.0,2134.0,29.0,-2.0,
2063.0,2062.0,2011.0,1799.0,29.0,-2.0,
2100.0,2092.0,1977.0,2027.0,29.0,-2.0,
2093.0,2312.0,1934.0,1970.0,29.0,-2.0,
2052.0,1980.0,1941.0,2161.0,29.0,-2.0,
2006.0,2278.0,2072.0,1901.0,29.0,-2.0,
1986.0,2325.0,2143.0,1914.0,29.0,-2.0,
1986.0,1454.0,2096.0,2108.0,29.0,-2.0,
2030.0,1596.0,2168.0,2409.0,29.0,-2.0,
2080.0,2139.0,2111.0,1942.0,29.0,-2.0,
2097.0,2341.0,2021.0,1830.0,29.0,-2.0,
2080.0,2197.0,2153.0,2163.0,29.0,-1.0,
2036.0,1985.0,2220.0,2016.0,29.0,-1.0,
1992.0,2094.0,2109.0,1951.0,29.0,-1.0,
1976.0,2046.0,1898.0,2092.0,29.0,-1.0,
2002.0,2210.0,1973.0,1911.0,29.0,-1.0,
2048.0,2021.0,1888.0,2127.0,29.0,-1.0,
2088.0,2228.0,2184.0,2026.0,29.0,-1.0,
2094.0,2085.0,2153.0,2071.0,29.0,-1.0,
2064.0,2043.0,2004.0,1973.0,29.0,-1.0,
2019.0,2173.0,1897.0,2076.0,29.0,-1.0,
1986.0,1991.0,1866.0,1949.0,29.0,-1.0,
1983.0,2116.0,2064.0,2058.0,29.0,-1.0,
2015.0,2113.0,2018.0,2097.0,29.0,-1.0,
2059.0,1762.0,2131.0,2007.0,29.0,-1.0,
2094.0,2009.0,2126.0,1982.0,29.0,-1.0,
2088.0,1864.0,2045.0,2368.0,29.0,-1.0,
2055.0,2164.0,2072.0,1999.0,29.0,-1.0,
2007.0,2238.0,1964.0,1547.0,29.0,-1.0,
1980.0,2109.0,2001.0,2089.0,29.0,-1.0,
1990.0,2042.0,1977.0,1999.0,29.0,-1.0,
2029.0,1947.0,2122.0,1937.0,29.0,-1.0,
2083.0,1979.0,2069.0,2145.0,29.0,-1.0,
2098.0,2148.0,1972.0,2039.0,29.0,-1.0,
2080.0,2140.0,2069.0,1981.0,0,-1.0,
2038.0,2086.0,1991.0,2073.0,29.0,-1.0,
1994.0,2054.0,2089.0,2057.0,29.0,-1.0,
1981.0,2133.0,2053.0,1952.0,29.0,-1.0,
2009.0,2130.0,2067.0,1943.0,29.0,-1.0,
2053.0,2069.0,2043.0,2133.0,29.0,-1.0,
2088.0,2215.0,2018.0,1960.0,0,0,
2096.0,2015.0,2016.0,2201.0,29.0,-1.0,
2070.0,2031.0,2016.0,2011.0,29.0,-1.0,
2022.0,2164.0,2174.0,1984.0,29.0,-1.0,
1988.0,2070.0,2018.0,2118.0,29.0,-1.0,
1982.0,2063.0,2034.0,2015.0,29.0,-1.0,
2013.0,1965.0,2085.0,2003.0,29.0,-1.0,
2060.0,2114.0,2046.0,1980.0,29.0,-1.0,
2093.0,2046.0,1981.0,2171.0,29.0,-1.0,
2091.0,2170.0,2024.0,2381.0,29.0,-1.0,
2062.0,2259.0,2014.0,1968.0,29.0,-1.0,
2010.0,1970.0,2122.0,1919.0,29.0,-1.0,
1980.0,1780.0,2140.0,2209.0,29.0,-1.0,
1988.0,1576.0,2029.0,1885.0,29.0,-1.0,
2028.0,2087.0,2096.0,1926.0,29.0,-1.0,
2073.0,2138.0,2061.0,2017.0,29.0,-1.0,
2110.0,2257.0,1949.0,2039.0,29.0,-1.0,
2084.0,1888.0,1997.0,2097.0,29.0,-1.0,
2040.0,2052.0,1957.0,1959.0,29.0,-1.0,
1997.0,2178.0,2016.0,1768.0,29.0,-1.0,
1981.0,2202.0,2104.0,1973.0,29.0,-1.0,
1999.0,2129.0,2113.0,2282.0,29.0,-1.0,
2053.0,2259.0,2073.0,2191.0,29.0,-1.0,
2083.0,2196.0,1988.0,1689.0,30.0,-1.0,
2097.0,1929.0,2062.0,2072.0,30.0,-1.0,
2074.0,2110.0,1961.0,2113.0,29.0,0,
2025.0,2171.0,1996.0,2072.0,29.0,-1.0,
1985.0,1579.0,1909.0,1899.0,29.0,-1.0,
1982.0,1974.0,2168.0,2176.0,29.0,-1.0,
2013.0,2095.0,2064.0,1989.0,29.0,-1.0,
2060.0,2038.0,2005.0,2148.0,30.0,-1.0,
2090.0,1999.0,2097.0,2101.0,30.0,-1.0,
2094.0,2154.0,2120.0,1900.0,30.0,0.0,
2055.0,2198.0,2114.0,2051.0,30.0,0.0,
2010.0,2183.0,1952.0,2024.0,30.0,-1.0,
1984.0,1887.0,1982.0,2061.0,30.0,-1.0,
1987.0,2016.0,2051.0,2189.0,29.0,-1.0,
2027.0,1954.0,1965.0,1999.0,29.0,-1.0,
2072.0,2154.0,1983.0,1928.0,29.0,-1.0,
2093.0,2102.0,2014.0,1970.0,29.0,-1.0,
2085.0,2123.0,2021.0,1928.0,30.0,-1.0,
2045.0,2107.0,2064.0,1991.0,30.0,-1.0,
2003.0,2115.0,2030.0,1949.0,30.0,-1.0,
1981.0,2026.0,2047.0,2191.0,30.0,-1.0,
1996.0,2103.0,2071.0,2132.0,29.0,-1.0,
2040.0,1977.0,2057.0,2066.0,30.0,-1.0,
2083.0,1944.0,1976.0,2050.0,30.0,-1.0,
2097.0,2026.0,2029.0,2063.0,30.0,-1.0,
2075.0,2061.0,1989.0,2080.0,30.0,-1.0,
2027.0,2105.0,2025.0,1988.0,30.0,-1.0,
1985.0,2268.0,2098.0,1925.0,30.0,-1.0,
1978.0,2289.0,1930.0,2210.0,30.0,-1.0,
2006.0,2061.0,2095.0,2033.0,30.0,-1.0,
2058.0,1928.0,1882.0,1629.0,30.0,0,
2093.0,2108.0,1954.0,2237.0,30.0,-1.0,
2092.0,1923.0,2090.0,2317.0,30.0,-1.0,
2059.0,2086.0,2047.0,1904.0,30.0,-1.0,
2009.0,1942.0,2132.0,2117.0,30.0,-1.0,
1981.0,2098.0,2050.0,2066.0,30.0,-1.0,
1990.0,2153.0,2046.0,1941.0,0,0,
2023.0,1899.0,2146.0,1908.0,30.0,-1.0,
2072.0,2076.0,2116.0,1994.0,30.0,-1.0,
2096.0,2134.0,2068.0,2006.0,30.0,-1.0,
2085.0,2014.0,1967.0,2280.0,30.0,-1.0,
2046.0,2009.0,1963.0,1992.0,30.0,0.0,
2008.0,2241.0,2156.0,1918.0,30.0,0.0,
1981.0,2136.0,2061.0,2117.0,30.0,0.0,
1993.0,1969.0,1903.0,1987.0,29.0,0.0,
2038.0,2197.0,1905.0,2231.0,30.0,0.0,
2084.0,2113.0,1972.0,2090.0,30.0,0.0,
2096.0,2156.0,2202.0,1937.0,29.0,0.0,
2080.0,2192.0,2130.0,1990.0,29.0,0.0,
2031.0,1507.0,1938.0,2069.0,29.0,0.0,
1989.0,2020.0,2011.0,2319.0,29.0,0.0,
1981.0,2340.0,2036.0,1909.0,29.0,0.0,
2007.0,2011.0,1982.0,1885.0,29.0,0.0,
2051.0,1930.0,2104.0,2026.0,29.0,0.0,
2092.0,1996.0,2170.0,2029.0,29.0,0.0,
2096.0,2176.0,2142.0,1842.0,29.0,0.0,
2063.0,2038.0,2036.0,2210.0,29.0,0.0,
2024.0,1739.0,1971.0,2185.0,29.0,0.0,
1981.0,2210.0,1997.0,1958.0,29.0,0.0,
1984.0,2216.0,2015.0,2020.0,29.0,0.0,
2020.0,1921.0,1935.0,1866.0,29.0,0.0,
2063.0,2065.0,1972.0,1915.0,29.0,0.0,
2093.0,2153.0,1976.0,2030.0,29.0,0.0,
2088.0,2182.0,2070.0,2074.0,29.0,0.0,
2049.0,2270.0,2056.0,1944.0,29.0,0.0,
2000.0,2042.0,1981.0,2069.0,29.0,0.0,
1983.0,2022.0,2052.0,2193.0,29.0,-1.0,
1990.0,2052.0,1998.0,1918.0,29.0,-1.0,
2030.0,1980.0,2000.0,2218.0,29.0,-1.0,
2080.0,2057.0,2062.0,2103.0,29.0,-1.0,
2095.0,2072.0,2091.0,1878.0,29.0,-1.0,
2082.0,1985.0,2026.0,2049.0,29.0,-1.0,
2045.0,2152.0,1990.0,2125.0,29.0,-1.0,
1994.0,2023.0,1966.0,2036.0,29.0,-1.0,
1978.0,1978.0,2069.0,2228.0,29.0,-1.0,
2006.0,2042.0,2015.0,2018.0,29.0,-1.0,
2048.0,2037.0,1993.0,1870.0,29.0,-1.0,
2087.0,2172.0,1963.0,1997.0,29.0,-1.0,
2101.0,2219.0,2074.0,2016.0,30.0,-1.0,
2067.0,1949.0,2010.0,1946.0,30.0,-1.0,
2024.0,2191.0,2124.0,2126.0,30.0,0,
1987.0,1642.0,2045.0,2096.0,30.0,-1.0,
1984.0,2114.0,1988.0,2101.0,30.0,-1.0,
2016.0,2262.0,1942.0,2027.0,30.0,-1.0,
2071.0,1937.0,1986.0,2076.0,30.0,-1.0,
2095.0,2086.0,2149.0,1858.0,30.0,-1.0,
2089.0,1953.0,2119.0,1896.0,30.0,-1.0,
2053.0,2000.0,1956.0,2231.0,30.0,-1.0,
2007.0,2229.0,2102.0,2078.0,29.0,-1.0,
1977.0,2282.0,2106.0,2240.0,29.0,-1.0,
1995.0,2227.0,2076.0,2277.0,30.0,-1.0,
2030.0,1617.0,2006.0,1983.0,30.0,-1.0,
2075.0,2001.0,2115.0,2046.0,30.0,-1.0,
2094.0,2148.0,2038.0,1797.0,30.0,-1.0,
2079.0,2122.0,1960.0,1943.0,30.0,-1.0,
2034.0,2226.0,1890.0,2092.0,30.0,-1.0,
1999.0,2121.0,2060.0,1983.0,30.0,-1.0,
1982.0,1870.0,2187.0,2075.0,30.0,-1.0,
2001.0,2109.0,2029.0,2009.0,30.0,-1.0,
2045.0,2215.0,2116.0,2036.0,30.0,-1.0,
2087.0,1921.0,2095.0,2215.0,30.0,-1.0,
2097.0,2061.0,1942.0,2047.0,30.0,-1.0,
2068.0,2078.0,2054.0,2048.0,30.0,-1.0,
2022.0,2225.0,1995.0,1886.0,30.0,-1.0,
1984.0,2257.0,2019.0,2050.0,30.0,-1.0,
1980.0,2111.0,2100.0,1971.0,30.0,-1.0,
2013.0,1873.0,2008.0,2129.0,30.0,-1.0,
2060.0,1943.0,2051.0,1979.0,30.0,-1.0,
2094.0,2053.0,2026.0,2166.0,30.0,-1.0,
2093.0,2054.0,2043.0,2146.0,30.0,-1.0,
2055.0,2044.0,2048.0,2124.0,30.0,-1.0,
2015.0,2084.0,1978.0,1915.0,30.0,-1.0,
1981.0,2203.0,1997.0,1841.0,30.0,-1.0,
1986.0,2014.0,1969.0,1894.0,30.0,-1.0,
2024.0,2135.0,1994.0,2185.0,30.0,-1.0,
2073.0,2020.0,1939.0,2208.0,0,0,
2098.0,2076.0,1955.0,1864.0,30.0,-1.0,
2086.0,1953.0,2106.0,1945.0,30.0,-1.0,
2042.0,2162.0,2063.0,2185.0,30.0,-1.0,
1997.0,2127.0,2145.0,2166.0,30.0,-1.0,
1982.0,2063.0,2047.0,1908.0,30.0,-1.0,
2000.0,2104.0,1995.0,2114.0,30.0,-1.0,
2042.0,1986.0,1991.0,2188.0,30.0,-1.0,
2082.0,2037.0,2014.0,1994.0,29.0,-1.0,
2098.0,2169.0,1946.0,1837.0,29.0,-1.0,
2072.0,2021.0,1831.0,2078.0,30.0,-1.0,
2028.0,2047.0,1840.0,2099.0,29.0,-1.0,
1990.0,2002.0,2161.0,1997.0,29.0,-1.0,
1985.0,2053.0,2191.0,2129.0,29.0,-1.0,
2013.0,2010.0,2063.0,1961.0,29.0,-1.0,
2057.0,2016.0,2244.0,2177.0,29.0,-1.0,
2092.0,1909.0,1966.0,2258.0,29.0,-1.0,
2092.0,2084.0,1885.0,1774.0,30.0,-1.0,
2060.0,2180.0,2129.0,1906.0,30.0,-1.0,
2013.0,2091.0,2099.0,2298.0,30.0,-1.0,
1981.0,2062.0,2155.0,2114.0,29.0,-1.0,
1986.0,2211.0,2122.0,1904.0,29.0,-1.0,
2022.0,2041.0,2014.0,2011.0,30.0,-1.0,
2072.0,1982.0,1968.0,2157.0,30.0,-1.0,
2098.0,2070.0,1951.0,1980.0,30.0,-1.0,
2085.0,2153.0,2227.0,1983.0,30.0,-1.0,
2046.0,2045.0,2007.0,2140.0,29.0,-1.0,
1999.0,2033.0,1910.0,1944.0,30.0,-1.0,
1979.0,1977.0,2006.0,1981.0,30.0,-1.0,
1995.0,2024.0,2109.0,2083.0,30.0,-1.0,
2041.0,1965.0,2123.0,2105.0,30.0,-1.0,
2082.0,2107.0,2084.0,1885.0,30.0,-1.0,
2096.0,2120.0,1958.0,1949.0,30.0,-1.0,
2075.0,2012.0,2011.0,2175.0,30.0,-1.0,
2026.0,2025.0,2129.0,1944.0,30.0,-1.0,
1987.0,2084.0,2060.0,2021.0,30.0,-1.0,
1983.0,2052.0,1984.0,2042.0,30.0,-1.0,
2010.0,2149.0,2005.0,2098.0,30.0,-1.0,
2055.0,2143.0,2011.0,1984.0,30.0,-1.0,
2091.0,2136.0,2037.0,2125.0,30.0,-1.0,
2093.0,2024.0,2023.0,1975.0,0,0,
2065.0,2055.0,2030.0,2030.0,30.0,-1.0,
2014.0,1951.0,2006.0,2055.0,30.0,-1.0,
1982.0,2025.0,2059.0,2006.0,30.0,-1.0,
1985.0,2119.0,2056.0,1995.0,30.0,-1.0,
2021.0,2126.0,2025.0,2004.0,30.0,-1.0,
2072.0,2208.0,2056.0,2049.0,0,0,
2099.0,1940.0,2003.0,2069.0,30.0,-1.0,
2085.0,2065.0,1985.0,2121.0,30.0,-1.0,
2050.0,1999.0,1961.0,2028.0,30.0,-1.0,
2000.0,2074.0,2064.0,2075.0,30.0,-1.0,
1978.0,2232.0,2047.0,1988.0,30.0,-1.0,
1995.0,2184.0,2083.0,1987.0,30.0,-1.0,
2044.0,2058.0,2155.0,2037.0,30.0,-1.0,
2081.0,1898.0,2071.0,2085.0,30.0,-1.0,
2096.0,2044.0,2045.0,2138.0,30.0,-1.0,
2075.0,2054.0,1975.0,1819.0,30.0,-1.0,
2029.0,2256.0,1887.0,2113.0,30.0,-1.0,
1989.0,2191.0,2008.0,2036.0,30.0,-1.0,
1984.0,2031.0,2122.0,1945.0,30.0,-1.0,
2007.0,1981.0,2061.0,1985.0,30.0,-1.0,
2053.0,2079.0,2113.0,2213.0,0,0,
2093.0,2037.0,1976.0,2104.0,30.0,-1.0,
2093.0,2203.0,2006.0,2098.0,30.0,-1.0,
2062.0,1947.0,2058.0,2001.0,30.0,-1.0,
2019.0,1843.0,2022.0,1754.0,30.0,-1.0,
1982.0,2125.0,2017.0,2170.0,29.0,-1.0,
1985.0,2103.0,2140.0,2215.0,29.0,-1.0,
2021.0,2165.0,2061.0,2057.0,29.0,-1.0,
2071.0,2107.0,2081.0,1964.0,29.0,-1.0,
2095.0,2004.0,2018.0,2112.0,29.0,-1.0,
2093.0,2096.0,2069.0,2104.0,29.0,-1.0,
2049.0,2081.0,1993.0,1941.0,29.0,-1.0,
2003.0,2130.0,1995.0,1982.0,0,0,
1975.0,2143.0,2040.0,1931.0,30.0,-1.0,
1994.0,2013.0,1973.0,2094.0,30.0,-1.0,
2036.0,2063.0,2022.0,2020.0,30.0,-1.0,
2084.0,2097.0,2022.0,2170.0,30.0,-1.0,
2097.0,2036.0,2001.0,1986.0,30.0,-1.0,
2075.0,2097.0,2060.0,1991.0,30.0,-1.0,
2030.0,2022.0,2047.0,2032.0,30.0,-1.0,
1991.0,2096.0,2017.0,2033.0,30.0,-1.0,
1980.0,2081.0,2060.0,2035.0,30.0,-1.0,
2010.0,2091.0,2046.0,2028.0,30.0,-1.0,
2051.0,2073.0,2075.0,2033.0,30.0,-1.0,
2084.0,2057.0,2038.0,2026.0,30.0,-1.0,
2091.0,2072.0,2011.0,2031.0,30.0,-1.0,
2063.0,2068.0,1983.0,2038.0,30.0,-1.0,
2018.0,2093.0,2000.0,2035.0,30.0,-1.0,
1985.0,2069.0,2047.0,2037.0,30.0,-1.0,
1983.0,2059.0,2042.0,2035.0,30.0,-1.0,
2018.0,2044.0,2043.0,2035.0,30.0,-1.0,
2065.0,2093.0,2022.0,2038.0,30.0,-1.0,
2094.0,2064.0,2018.0,2046.0,30.0,-1.0,
2084.0,2080.0,2025.0,2029.0,30.0,-1.0,
2049.0,2044.0,2022.0,2038.0,30.0,-1.0,
2000.0,2051.0,2041.0,2034.0,30.0,-1.0,
1980.0,2056.0,2065.0,2063.0,30.0,-1.0,
1995.0,2057.0,2037.0,2030.0,30.0,-1.0,
2034.0,2061.0,2018.0,2035.0,30.0,-1.0,
2077.0,2070.0,2012.0,2065.0,30.0,-1.0,
2101.0,2095.0,2035.0,2021.0,30.0,-1.0,
2076.0,2005.0,2053.0,2070.0,30.0,-1.0,
2031.0,2072.0,2028.0,2042.0,30.0,-1.0,
1991.0,2040.0,2039.0,2018.0,30.0,0.0,
1980.0,2007.0,2022.0,2049.0,30.0,0.0,
2004.0,2088.0,1976.0,2081.0,30.0,0.0,
2054.0,2136.0,2005.0,2069.0,0,0,
2088.0,2031.0,1930.0,2035.0,30.0,0.0,
2095.0,2075.0,2069.0,2152.0,29.0,0.0,
2066.0,2122.0,2021.0,1965.0,29.0,0.0,
2017.0,2138.0,2050.0,1793.0,29.0,0.0,
1983.0,2216.0,2047.0,2013.0,30.0,0.0,
1988.0,2238.0,2098.0,2015.0,30.0,0.0,
2019.0,2083.0,2099.0,2147.0,29.0,0.0,
2066.0,1758.0,2044.0,2145.0,29.0,-1.0,
2095.0,1751.0,1976.0,2069.0,29.0,-1.0,
2084.0,1965.0,2001.0,2012.0,29.0,-1.0,
2050.0,2055.0,2026.0,2033.0,29.0,-1.0,
2004.0,2164.0,2028.0,2045.0,29.0,-1.0,
1980.0,2090.0,2010.0,1989.0,29.0,-1.0,
1987.0,2164.0,2069.0,2099.0,29.0,-1.0,
2030.0,2068.0,2031.0,2129.0,29.0,-1.0,
2076.0,2118.0,2064.0,2025.0,29.0,-2.0,
2095.0,2125.0,2060.0,2017.0,29.0,-2.0,
2079.0,2097.0,2003.0,1997.0,29.0,-2.0,
2033.0,2059.0,2057.0,2041.0,29.0,-2.0,
1991.0,2090.0,2015.0,1990.0,29.0,-2.0,
1982.0,2041.0,2022.0,2022.0,29.0,-2.0,
2003.0,2084.0,2028.0,1994.0,29.0,-2.0,
2049.0,2083.0,2012.0,2066.0,29.0,-2.0,
2091.0,2071.0,2054.0,2059.0,29.0,-2.0,
2095.0,2044.0,2089.0,2077.0,29.0,-1.0,
2067.0,2062.0,2099.0,2027.0,28.0,-1.0,
2019.0,2063.0,2102.0,2020.0,28.0,-1.0,
1983.0,2065.0,2095.0,2026.0,28.0,-1.0,
1984.0,2071.0,2069.0,2037.0,28.0,0.0,
2022.0,2071.0,2069.0,2038.0,28.0,0.0,
2067.0,2058.0,2018.0,2035.0,28.0,0.0,
2094.0,2066.0,2014.0,2028.0,28.0,0.0,
2088.0,2068.0,2115.0,2009.0,28.0,1.0,
2053.0,2069.0,2098.0,2040.0,27.0,1.0,
2007.0,2067.0,2090.0,2057.0,27.0,1.0,
1982.0,2059.0,1943.0,2062.0,27.0,1.0,
1991.0,2066.0,1910.0,2040.0,27.0,1.0,
2028.0,2068.0,1931.0,2049.0,27.0,1.0,
2074.0,2083.0,1958.0,2045.0,27.0,1.0,
2096.0,2053.0,1959.0,2053.0,27.0,2.0,
2078.0,2068.0,2044.0,2101.0,27.0,2.0,
2041.0,2104.0,2066.0,1993.0,27.0,2.0,
1996.0,2078.0,1994.0,2049.0,26.0,2.0,
1981.0,2004.0,2014.0,2074.0,26.0,2.0,
1999.0,2055.0,2051.0,2081.0,26.0,2.0,
2046.0,2062.0,2066.0,1963.0,26.0,2.0,
2086.0,2062.0,2089.0,2030.0,26.0,2.0,
2095.0,2028.0,2173.0,2053.0,26.0,2.0,
2069.0,2087.0,2080.0,1902.0,25.0,2.0,
2026.0,2090.0,2042.0,1995.0,25.0,2.0,
1984.0,2027.0,1987.0,2106.0,25.0,2.0,
1982.0,2086.0,1994.0,2063.0,25.0,1.0,
2012.0,2066.0,2065.0,2098.0,25.0,1.0,
2063.0,2069.0,2053.0,2117.0,25.0,1.0,
2094.0,2086.0,1991.0,2016.0,25.0,1.0,
2090.0,2086.0,1957.0,2049.0,24.0,1.0,
2055.0,2052.0,2032.0,2086.0,24.0,0.0,
2007.0,1943.0,2006.0,1925.0,24.0,0.0,
1980.0,2083.0,2065.0,2001.0,24.0,0.0,
1991.0,2114.0,2074.0,2062.0,24.0,-1.0,
2029.0,2114.0,2048.0,2116.0,23.0,-2.0,
2073.0,2080.0,2060.0,1988.0,23.0,-2.0,
2095.0,2053.0,2057.0,2053.0,23.0,-2.0,
2084.0,2096.0,2013.0,1991.0,23.0,-3.0,
2038.0,1986.0,2041.0,2069.0,23.0,-3.0,
1997.0,2086.0,2053.0,2043.0,22.0,-4.0,
1981.0,2096.0,2021.0,2008.0,22.0,-5.0,
1999.0,2001.0,2063.0,2070.0,22.0,-5.0,
2042.0,2099.0,2047.0,2037.0,22.0,-6.0,
2085.0,2106.0,2069.0,2020.0,21.0,-6.0,
2094.0,2108.0,2081.0,2046.0,21.0,-6.0,
2070.0,2066.0,2034.0,2061.0,21.0,-7.0,
2025.0,2029.0,2016.0,2045.0,20.0,-7.0,
1987.0,2026.0,2044.0,2039.0,20.0,-7.0,
1984.0,2026.0,2078.0,2052.0,20.0,-6.0,
2013.0,2111.0,2052.0,2025.0,20.0,-6.0,
2059.0,2127.0,2053.0,2026.0,19.0,-5.0,
2096.0,2123.0,2059.0,2018.0,19.0,-5.0,
2091.0,1948.0,1986.0,2056.0,19.0,-4.0,
2064.0,1936.0,1955.0,2080.0,19.0,-3.0,
2009.0,2079.0,2058.0,2033.0,18.0,-2.0,
1981.0,2090.0,2097.0,2020.0,18.0,-2.0,
1988.0,2094.0,2137.0,2026.0,18.0,-1.0,
2027.0,2100.0,2039.0,2029.0,18.0,0.0,
2075.0,2082.0,1999.0,2052.0,17.0,1.0,
2097.0,2084.0,1965.0,2033.0,17.0,2.0,
2083.0,2081.0,2005.0,2038.0,17.0,3.0,
2042.0,2081.0,1992.0,2039.0,16.0,4.0,
1996.0,2086.0,2044.0,2045.0,16.0,5.0,
1982.0,2074.0,2078.0,2039.0,16.0,5.0,
1998.0,2070.0,2022.0,2028.0,16.0,6.0,
2041.0,2078.0,2010.0,2021.0,16.0,6.0,
2084.0,2085.0,2035.0,2029.0,15.0,6.0,
2093.0,2063.0,2004.0,2040.0,15.0,6.0,
2073.0,2085.0,2035.0,2041.0,15.0,6.0,
2029.0,2017.0,2025.0,2086.0,15.0,6.0,
1989.0,2022.0,2044.0,2048.0,14.0,6.0,
1983.0,2063.0,2026.0,2005.0,14.0,6.0,
2010.0,2072.0,2042.0,2017.0,14.0,5.0,
2056.0,2097.0,2008.0,2058.0,14.0,5.0,
2091.0,2076.0,2005.0,2120.0,14.0,5.0,
2094.0,2085.0,2048.0,2038.0,14.0,4.0,
2059.0,2065.0,2039.0,2081.0,13.0,4.0,
2013.0,2039.0,2019.0,1971.0,13.0,3.0,
1981.0,2030.0,2046.0,1984.0,13.0,3.0,
1987.0,2102.0,2049.0,1985.0,13.0,2.0,
2020.0,2079.0,2005.0,2087.0,13.0,2.0,
2071.0,2071.0,2031.0,2152.0,13.0,1.0,
2098.0,2023.0,2016.0,1919.0,12.0,1.0,
2087.0,2071.0,2039.0,2028.0,12.0,0.0,
2044.0,2081.0,2046.0,2031.0,12.0,-1.0,
1997.0,2051.0,2028.0,2060.0,12.0,-2.0,
1979.0,2036.0,2043.0,1974.0,12.0,-2.0,
1998.0,2050.0,2044.0,2063.0,11.0,-2.0,
2040.0,2074.0,2021.0,2067.0,11.0,-3.0,
2081.0,2067.0,1981.0,2036.0,11.0,-4.0,
2094.0,2109.0,1989.0,2001.0,0,0,
2074.0,2095.0,2035.0,1988.0,10.0,-4.0,
2031.0,2080.0,2077.0,2070.0,10.0,-5.0,
1993.0,2089.0,2076.0,2085.0,10.0,-5.0,
1983.0,2040.0,2090.0,2091.0,10.0,-6.0,
2012.0,2036.0,2035.0,2058.0,9.0,-6.0,
2053.0,2061.0,2000.0,2016.0,9.0,-6.0,
2089.0,2062.0,2081.0,2022.0,9.0,-6.0,
2094.0,2054.0,2046.0,2047.0,9.0,-5.0,
2061.0,2081.0,2056.0,2031.0,8.0,-5.0,
2017.0,2084.0,2073.0,2025.0,8.0,-5.0,
1981.0,2089.0,2096.0,2020.0,8.0,-4.0,
1985.0,2082.0,2100.0,2034.0,8.0,-3.0,
2020.0,2068.0,2086.0,2036.0,8.0,-3.0,
2067.0,2026.0,2081.0,2052.0,7.0,-2.0,
2095.0,2037.0,2053.0,2049.0,7.0,-1.0,
2087.0,2029.0,2025.0,2032.0,7.0,-1.0,
2047.0,2052.0,1993.0,2052.0,0,0,
2002.0,2084.0,2004.0,2033.0,7.0,0.0,
1978.0,2067.0,1997.0,2039.0,7.0,1.0,
1997.0,2073.0,2030.0,2035.0,6.0,1.0,
2041.0,2071.0,1993.0,2045.0,6.0,2.0,
2079.0,2064.0,1985.0,2028.0,6.0,3.0,
2100.0,2089.0,2062.0,2072.0,0,0,
2073.0,2099.0,2036.0,2030.0,6.0,3.0,
2032.0,2066.0,1985.0,2016.0,5.0,3.0,
1993.0,2061.0,2011.0,2023.0,5.0,4.0,
1980.0,2057.0,2033.0,2044.0,5.0,4.0,
2007.0,2066.0,2019.0,2052.0,5.0,4.0,
2055.0,2063.0,2029.0,2066.0,5.0,4.0,
2098.0,2079.0,2029.0,2054.0,5.0,4.0,
2092.0,2077.0,1990.0,1992.0,5.0,4.0,
2064.0,2087.0,2017.0,2019.0,4.0,3.0,
2016.0,2083.0,2062.0,2028.0,4.0,3.0,
1984.0,2072.0,2058.0,1999.0,4.0,3.0,
1992.0,2058.0,2034.0,2039.0,3.0,2.0,
2016.0,2038.0,2068.0,2099.0,3.0,2.0,
2063.0,2068.0,1968.0,2044.0,0,0,
2096.0,2024.0,2010.0,2088.0,3.0,2.0,
2093.0,2050.0,2019.0,2080.0,3.0,1.0,
2051.0,2114.0,1992.0,2009.0,3.0,1.0,
2005.0,2155.0,2018.0,1966.0,3.0,0.0,
1980.0,2133.0,2051.0,2019.0,2.0,0.0,
1991.0,2050.0,2049.0,2085.0,2.0,-1.0,
2033.0,1971.0,2032.0,2086.0,2.0,-2.0,
2082.0,1974.0,1978.0,1960.0,2.0,-2.0,
2094.0,2111.0,1999.0,2000.0,2.0,-2.0,
2077.0,2079.0,2011.0,1988.0,1.0,-3.0,
2035.0,2060.0,2013.0,2009.0,1.0,-3.0,
1988.0,2117.0,2064.0,2104.0,1.0,-4.0,
1980.0,2088.0,2110.0,2051.0,1.0,-4.0,
2006.0,2084.0,2108.0,2049.0,0.0,-5.0,
2050.0,2089.0,2070.0,2062.0,0.0,-5.0,
2089.0,2093.0,2077.0,2053.0,0.0,-6.0,
2096.0,2060.0,2003.0,2023.0,0.0,-6.0,
2066.0,2071.0,2035.0,2007.0,0.0,-6.0,
2020.0,2027.0,2062.0,2045.0,0.0,-6.0,
1989.0,1945.0,2103.0,2138.0,0.0,-6.0,
1985.0,2030.0,2127.0,2051.0,0.0,-6.0,
2017.0,2078.0,2131.0,1884.0,0.0,-6.0,
2065.0,1985.0,2016.0,2022.0,0.0,-6.0,
2093.0,2026.0,2038.0,2151.0,-1.0,-5.0,
2084.0,2084.0,1995.0,2053.0,-1.0,-5.0,
2059.0,2096.0,2008.0,2037.0,-1.0,-5.0,
2009.0,2078.0,2073.0,2046.0,-1.0,-4.0,
1983.0,2096.0,2050.0,2032.0,-2.0,-4.0,
1991.0,2091.0,1992.0,2020.0,-2.0,-3.0,
2031.0,2116.0,2039.0,2022.0,-2.0,-3.0,
2075.0,2096.0,2033.0,2032.0,-2.0,-2.0,
2101.0,2089.0,2008.0,2033.0,-2.0,-2.0,
2080.0,2082.0,2012.0,2030.0,-2.0,-2.0,
2037.0,2076.0,2042.0,2028.0,-3.0,-2.0,
1991.0,2078.0,2083.0,2023.0,-3.0,-2.0,
1979.0,2077.0,2051.0,2024.0,-3.0,-2.0,
1999.0,2073.0,2031.0,2038.0,-3.0,-1.0,
2049.0,2079.0,2032.0,2057.0,-3.0,-1.0,
2090.0,2089.0,2046.0,2038.0,-3.0,-1.0,
2096.0,2045.0,2048.0,2006.0,-3.0,-1.0,
2067.0,2058.0,2033.0,2044.0,-4.0,-1.0,
2021.0,2098.0,2045.0,2020.0,-4.0,-1.0,
1985.0,2020.0,2030.0,2046.0,-4.0,-1.0,
1992.0,2071.0,2028.0,2051.0,-4.0,-1.0,
2017.0,2075.0,2004.0,2030.0,-4.0,-1.0,
2061.0,2070.0,1962.0,2039.0,-4.0,-1.0,
2090.0,2054.0,1974.0,2063.0,-4.0,-2.0,
2087.0,2067.0,1974.0,2078.0,-4.0,-2.0,
2053.0,2034.0,1972.0,2055.0,-4.0,-2.0,
2010.0,2022.0,2010.0,2002.0,-4.0,-1.0,
1981.0,2065.0,2043.0,2046.0,-4.0,-1.0,
1990.0,2072.0,2009.0,2080.0,-4.0,-1.0,
2032.0,2090.0,2070.0,2041.0,-4.0,-1.0,
2074.0,2042.0,2064.0,2044.0,-4.0,-1.0,
2097.0,2090.0,2048.0,2045.0,-4.0,-1.0,
2081.0,2070.0,2047.0,2028.0,-4.0,-1.0,
2038.0,2039.0,2028.0,2025.0,-4.0,-1.0,
1994.0,2044.0,2017.0,2052.0,-4.0,-1.0,
1979.0,2106.0,2050.0,2027.0,-4.0,-1.0,
2001.0,2078.0,2042.0,2035.0,-4.0,-1.0,
2050.0,2080.0,2038.0,2035.0,-4.0,-1.0,
2091.0,2067.0,2021.0,2020.0,-4.0,-1.0,
2096.0,2043.0,1968.0,2069.0,-4.0,-2.0,
2067.0,2046.0,1995.0,2069.0,-4.0,-2.0,
2026.0,2098.0,2055.0,1975.0,-4.0,-2.0,
1984.0,2096.0,2105.0,2009.0,-4.0,-2.0,
1989.0,2076.0,2047.0,2005.0,-4.0,-2.0,
2018.0,2092.0,2020.0,2070.0,-4.0,-2.0,
2061.0,2057.0,1993.0,2056.0,-4.0,-2.0,
2097.0,2081.0,1969.0,2026.0,-4.0,-2.0,
2090.0,2047.0,2002.0,2037.0,-4.0,-2.0,
2053.0,2052.0,2035.0,2058.0,-5.0,-2.0,
2014.0,2071.0,2064.0,2082.0,-5.0,-2.0,
1982.0,2047.0,2088.0,2042.0,-5.0,-2.0,
1990.0,2091.0,2101.0,1985.0,-5.0,-3.0,
2030.0,2111.0,2092.0,2022.0,-5.0,-3.0,
2072.0,2129.0,2045.0,2032.0,-5.0,-3.0,
2096.0,2082.0,2004.0,2063.0,0,0,
2078.0,1931.0,2049.0,2079.0,-5.0,-3.0,
2041.0,2016.0,2050.0,2063.0,-5.0,-3.0,
1996.0,2030.0,2058.0,2071.0,-5.0,-3.0,
1979.0,2038.0,2058.0,2038.0,-5.0,-2.0,
2001.0,1990.0,2042.0,2017.0,-5.0,-2.0,
2041.0,2053.0,2031.0,2035.0,-5.0,-2.0,
2085.0,2120.0,1991.0,2023.0,-5.0,-2.0,
2094.0,2122.0,2019.0,2010.0,-5.0,0,
2071.0,2103.0,2022.0,2066.0,-5.0,-2.0,
2024.0,2114.0,2048.0,2095.0,-5.0,-2.0,
1985.0,2100.0,2039.0,2046.0,-5.0,-2.0,
1981.0,2090.0,2046.0,1933.0,-5.0,-2.0,
2014.0,2085.0,2058.0,2035.0,-5.0,-2.0,
2063.0,2086.0,2030.0,2016.0,-5.0,-2.0,
2092.0,2015.0,2024.0,2035.0,-5.0,-2.0,
2091.0,2059.0,2016.0,2046.0,-5.0,-2.0,
2057.0,2053.0,2031.0,2061.0,-5.0,-2.0,
2010.0,2066.0,2051.0,2051.0,-5.0,-2.0,
1983.0,2075.0,2055.0,2052.0,-5.0,-2.0,
1991.0,2071.0,2032.0,2044.0,-5.0,-2.0,
2026.0,2045.0,2009.0,2048.0,-5.0,-2.0,
2071.0,2064.0,2029.0,2044.0,-5.0,-2.0,
2097.0,2069.0,2041.0,2037.0,-5.0,-2.0,
2079.0,2065.0,2054.0,2031.0,-5.0,-2.0,
2042.0,2063.0,2052.0,2049.0,-5.0,-2.0,
2002.0,2069.0,2038.0,2045.0,-5.0,-2.0,
1980.0,2066.0,2038.0,2041.0,-5.0,-2.0,
1994.0,2062.0,2053.0,2043.0,-5.0,-2.0,
2038.0,2073.0,2039.0,2033.0,-5.0,-2.0,
2080.0,2090.0,2075.0,2019.0,-5.0,-2.0,
2093.0,2077.0,2079.0,2041.0,-5.0,-2.0,
2073.0,2074.0,2044.0,2064.0,-5.0,-2.0,
2029.0,2086.0,2028.0,2022.0,-5.0,-2.0,
1998.0,2054.0,1986.0,1998.0,-5.0,-2.0,
1980.0,2030.0,2002.0,2059.0,-5.0,-2.0,
2012.0,2082.0,2046.0,2068.0,-5.0,-2.0,
2057.0,2072.0,2073.0,2079.0,-5.0,-2.0,
2092.0,2072.0,2068.0,2077.0,-5.0,-2.0,
2094.0,2066.0,2021.0,2063.0,-5.0,-2.0,
2060.0,2048.0,2011.0,1966.0,-5.0,-2.0,
2014.0,1996.0,2020.0,1990.0,-5.0,-2.0,
1980.0,2063.0,2049.0,2045.0,-5.0,-2.0,
1985.0,2130.0,2079.0,2066.0,-5.0,-2.0,
2023.0,2095.0,2066.0,2004.0,-5.0,-2.0,
2069.0,2068.0,2042.0,1978.0,-5.0,-2.0,
2096.0,2064.0,2014.0,2031.0,-5.0,-2.0,
2082.0,2100.0,2019.0,2079.0,-5.0,-2.0,
2046.0,2010.0,2005.0,2092.0,-5.0,-2.0,
2001.0,2011.0,2014.0,2092.0,-5.0,-2.0,
1987.0,2092.0,2006.0,1971.0,-5.0,-2.0,
1997.0,2085.0,1982.0,2016.0,-5.0,-2.0,
2036.0,2138.0,2000.0,2030.0,-5.0,-2.0,
2081.0,2047.0,2098.0,2079.0,-5.0,-2.0,
2095.0,2055.0,2082.0,2022.0,-5.0,-2.0,
2076.0,2068.0,2083.0,2032.0,-5.0,-2.0,
2037.0,2059.0,2049.0,2015.0,-5.0,-2.0,
1993.0,2088.0,2032.0,2023.0,-5.0,-2.0,
1981.0,2122.0,2019.0,2029.0,-5.0,-2.0,
2007.0,2119.0,2015.0,2057.0,-5.0,-2.0,
2051.0,1994.0,2000.0,2102.0,-5.0,-2.0,
2087.0,2013.0,2032.0,2042.0,-5.0,-2.0,
2093.0,2074.0,2035.0,2035.0,-5.0,-2.0,
2062.0,2080.0,2031.0,2031.0,-5.0,-2.0,
2025.0,2088.0,2022.0,2027.0,-5.0,-2.0,
1982.0,2069.0,2027.0,2037.0,-5.0,-2.0,
1984.0,2060.0,2013.0,2014.0,-5.0,-2.0,
2018.0,2042.0,2033.0,2047.0,-5.0,-2.0,
2071.0,2077.0,2040.0,2077.0,-5.0,-2.0,
2098.0,2087.0,2047.0,2058.0,-5.0,-2.0,
2088.0,2060.0,2030.0,2046.0,-5.0,-2.0,
2050.0,2157.0,2031.0,2027.0,0,0,
2004.0,2103.0,2036.0,1987.0,-5.0,-2.0,
1979.0,1975.0,2102.0,2014.0,-5.0,-2.0,
1996.0,1974.0,2092.0,2067.0,-5.0,-2.0,
2035.0,2018.0,2054.0,2062.0,-5.0,-2.0,
2082.0,2056.0,2039.0,2047.0,-5.0,-2.0,
2093.0,2073.0,2024.0,2024.0,-5.0,-2.0,
2075.0,2081.0,2025.0,2033.0,-5.0,-2.0,
2035.0,2086.0,2024.0,2047.0,-5.0,-2.0,
1992.0,2090.0,2048.0,2039.0,-5.0,-2.0,
1979.0,2090.0,2048.0,2033.0,-5.0,-2.0,
2005.0,2084.0,2054.0,2044.0,-5.0,-2.0,
2050.0,2090.0,2013.0,2036.0,-5.0,-2.0,
2090.0,2080.0,2014.0,2035.0,-5.0,-2.0,
2093.0,2081.0,1987.0,2010.0,-5.0,-2.0,
2072.0,2078.0,2010.0,2045.0,-6.0,-2.0,
2022.0,2050.0,2048.0,2086.0,-6.0,-2.0,
1983.0,2086.0,2049.0,2010.0,-6.0,-2.0,
1983.0,2067.0,2054.0,1983.0,0,0,
2017.0,2087.0,2042.0,2007.0,-5.0,-2.0,
2063.0,2116.0,2043.0,2064.0,-5.0,-2.0,
2102.0,2038.0,2026.0,2124.0,-5.0,-2.0,
2089.0,2042.0,2027.0,2087.0,-5.0,-2.0,
2052.0,2003.0,2074.0,2041.0,-5.0,-2.0,
2003.0,2040.0,2067.0,2025.0,0,0,
1981.0,2070.0,2072.0,2043.0,-5.0,-2.0,
1992.0,2054.0,2045.0,2026.0,-5.0,-2.0,
2037.0,2054.0,2047.0,2049.0,-5.0,-2.0,
2074.0,2070.0,2005.0,2028.0,-5.0,-2.0,
2098.0,2081.0,2001.0,2027.0,-5.0,-2.0,
2080.0,2059.0,1980.0,2039.0,-5.0,-2.0,
2035.0,2052.0,2006.0,2014.0,-5.0,-2.0,
1993.0,2067.0,2030.0,1974.0,-5.0,-2.0,
1988.0,2138.0,1974.0,2020.0,-5.0,-2.0,
2002.0,2107.0,1978.0,2159.0,-5.0,-2.0,
2048.0,2103.0,2016.0,2085.0,-5.0,-2.0,
2087.0,2047.0,2022.0,1978.0,-5.0,-2.0,
2093.0,2050.0,2127.0,2014.0,-5.0,-2.0,
2068.0,2013.0,2115.0,2000.0,-5.0,-2.0,
2022.0,2089.0,2075.0,2071.0,-5.0,-2.0,
1986.0,2078.0,2076.0,2059.0,-5.0,-2.0,
1985.0,2064.0,2099.0,2023.0,-5.0,-2.0,
2014.0,1923.0,2055.0,2063.0,-5.0,-2.0,
2060.0,2050.0,2038.0,2110.0,-5.0,-2.0,
2092.0,2070.0,2027.0,2054.0,-5.0,-2.0,
2091.0,2122.0,2043.0,2036.0,-5.0,-2.0,
2056.0,2106.0,2019.0,1962.0,-5.0,-2.0,
2008.0,2067.0,2024.0,2012.0,-5.0,-2.0,
1979.0,2023.0,2020.0,2042.0,-5.0,-2.0,
1991.0,2072.0,2049.0,2033.0,-5.0,-2.0,
2027.0,2080.0,2041.0,2035.0,-5.0,-2.0,
2071.0,2086.0,2033.0,2036.0,-5.0,-2.0,
2095.0,2083.0,2020.0,2037.0,-5.0,-2.0,
2080.0,2077.0,2029.0,2030.0,-5.0,-2.0,
2038.0,2076.0,2030.0,2030.0,-5.0,-2.0,
1996.0,2070.0,2031.0,2035.0,-5.0,-2.0,
1979.0,2071.0,2023.0,2035.0,-5.0,-2.0,
1999.0,2072.0,2026.0,2039.0,-5.0,-2.0,
2046.0,2057.0,2017.0,2030.0,-5.0,-2.0,
2084.0,2080.0,2020.0,2023.0,-5.0,0,
2094.0,2084.0,2019.0,2032.0,-5.0,-2.0,
2070.0,2084.0,2019.0,2018.0,-5.0,-2.0,
2024.0,2070.0,2037.0,2025.0,-5.0,-2.0,
1987.0,2043.0,2107.0,2080.0,-5.0,-2.0,
1982.0,2002.0,2100.0,2034.0,-5.0,-2.0,
2012.0,2038.0,2097.0,2101.0,-4.0,-2.0,
2058.0,2062.0,2058.0,2088.0,-5.0,-2.0,
2095.0,2068.0,2019.0,2060.0,-4.0,-2.0,
2091.0,2051.0,1998.0,2034.0,-5.0,-2.0,
2057.0,2062.0,2045.0,2025.0,-5.0,-2.0,
2015.0,2073.0,2074.0,1998.0,-5.0,-2.0,
1982.0,2073.0,2079.0,2028.0,-4.0,-2.0,
1989.0,2071.0,2060.0,2033.0,0,0,
2024.0,2086.0,2033.0,2034.0,-4.0,-2.0,
2068.0,2083.0,2032.0,2031.0,-4.0,-2.0,
2095.0,2073.0,2007.0,2030.0,-4.0,-2.0,
2093.0,2053.0,2014.0,2031.0,-4.0,-2.0,
2048.0,2043.0,2021.0,2039.0,-4.0,-2.0,
1998.0,2062.0,2033.0,2033.0,-4.0,-2.0,
1981.0,2069.0,2030.0,2030.0,-4.0,-2.0,
1995.0,2075.0,1990.0,2034.0,-5.0,-2.0,
2038.0,2073.0,1996.0,2033.0,-5.0,-2.0,
2087.0,2073.0,2030.0,2026.0,-5.0,-2.0,
2095.0,2053.0,2038.0,2039.0,-5.0,-2.0,
2075.0,2064.0,2112.0,2034.0,-5.0,-2.0,
2029.0,2087.0,2075.0,2040.0,-5.0,-2.0,
1986.0,2075.0,2050.0,2026.0,-5.0,-2.0,
1979.0,2111.0,2075.0,2026.0,-5.0,-2.0,
2016.0,2074.0,2074.0,2045.0,-5.0,-2.0,
2054.0,2006.0,2014.0,2070.0,-5.0,-2.0,
2091.0,2087.0,2042.0,2099.0,-5.0,-2.0,
2089.0,2041.0,2011.0,2023.0,-5.0,-2.0,
2058.0,2022.0,2042.0,2052.0,-5.0,-2.0,
2013.0,2019.0,2025.0,2004.0,-5.0,-2.0,
1990.0,2147.0,2073.0,2014.0,-5.0,-2.0,
1985.0,2108.0,2045.0,1989.0,-5.0,-2.0,
2022.0,2012.0,2010.0,2093.0,-5.0,-2.0,
2066.0,2072.0,2021.0,2059.0,-5.0,-2.0,
2093.0,2017.0,2008.0,2057.0,-5.0,-2.0,
2085.0,2075.0,2020.0,2075.0,-5.0,-2.0,
2051.0,2040.0,2026.0,2057.0,-5.0,-2.0,
2004.0,1992.0,2018.0,2057.0,-5.0,-2.0,
1980.0,2091.0,1977.0,1996.0,-5.0,-2.0,
1993.0,2155.0,1976.0,1922.0,-5.0,-2.0,
2036.0,2146.0,1965.0,2013.0,-5.0,-2.0,
2076.0,2058.0,2000.0,2065.0,-5.0,-2.0,
2098.0,2049.0,2118.0,2095.0,-4.0,-2.0,
2078.0,2020.0,2119.0,2084.0,-4.0,-2.0,
2033.0,2036.0,2090.0,2039.0,-4.0,-2.0,
1989.0,2063.0,2096.0,2012.0,-4.0,-2.0,
1979.0,2077.0,2068.0,2058.0,-4.0,-2.0,
2006.0,2057.0,2034.0,2059.0,-5.0,-2.0,
2051.0,2026.0,2021.0,2068.0,-5.0,-2.0,
2090.0,2091.0,2006.0,2008.0,-5.0,-2.0,
2094.0,2085.0,2024.0,2036.0,-5.0,-2.0,
2067.0,2046.0,2022.0,2032.0,-5.0,-2.0,
2018.0,2059.0,2034.0,2024.0,-5.0,-2.0,
1981.0,2083.0,1996.0,2027.0,-5.0,-2.0,
1985.0,2081.0,2011.0,2041.0,-5.0,-2.0,
2018.0,2078.0,2032.0,2019.0,-5.0,-2.0,
2067.0,2082.0,1993.0,2028.0,-5.0,-2.0,
2093.0,2074.0,1984.0,2027.0,-5.0,-2.0,
2087.0,2069.0,1992.0,2033.0,-5.0,-2.0,
2052.0,2071.0,2017.0,2030.0,-5.0,-2.0,
2004.0,2065.0,2029.0,2045.0,-5.0,-2.0,
1980.0,2070.0,2074.0,2043.0,-5.0,-2.0,
1992.0,2067.0,2084.0,2044.0,-5.0,-2.0,
2032.0,2068.0,2070.0,2038.0,-5.0,-2.0,
2078.0,2062.0,2035.0,2039.0,-5.0,-2.0,
2092.0,2067.0,2006.0,2038.0,-5.0,-2.0,
2079.0,2059.0,2008.0,2042.0,-5.0,-2.0,
2039.0,2058.0,2047.0,2040.0,-5.0,-2.0,
1996.0,2067.0,2080.0,2042.0,-5.0,-2.0,
1978.0,2067.0,2068.0,2035.0,-5.0,-2.0,
2003.0,2061.0,2028.0,2038.0,-5.0,-2.0,
2045.0,2052.0,2041.0,2048.0,-5.0,-2.0,
2088.0,2076.0,2015.0,2042.0,-5.0,-2.0,
2096.0,2075.0,2004.0,2021.0,-5.0,-2.0,
2067.0,2075.0,1993.0,2009.0,-5.0,-2.0,
2022.0,2073.0,2049.0,2052.0,-5.0,-2.0,
1987.0,2006.0,2057.0,2121.0,-5.0,-2.0,
1983.0,2022.0,2066.0,2116.0,-5.0,-2.0,
2019.0,2068.0,2015.0,2039.0,-5.0,-2.0,
2064.0,2130.0,2026.0,1925.0,-5.0,-2.0,
2094.0,2070.0,2030.0,1984.0,-4.0,-2.0,
2091.0,2017.0,2006.0,2030.0,-4.0,-2.0,
2052.0,2033.0,2037.0,2037.0,-4.0,-2.0,
2006.0,2075.0,2059.0,2028.0,-4.0,-2.0,
1974.0,2116.0,2056.0,2034.0,-4.0,-2.0,
1990.0,2074.0,2095.0,2034.0,-4.0,-2.0,
2030.0,2091.0,2034.0,2100.0,-4.0,-2.0,
2074.0,2110.0,2074.0,2115.0,-5.0,-2.0,
2095.0,2077.0,2070.0,2088.0,-5.0,-2.0,
2080.0,2003.0,1992.0,2019.0,-5.0,-2.0,
2036.0,2076.0,1974.0,1977.0,-5.0,-2.0,
1997.0,2049.0,2003.0,1997.0,-5.0,0,
1982.0,1979.0,2079.0,2065.0,-5.0,-2.0,
2002.0,2093.0,2087.0,2050.0,-5.0,-2.0,
2051.0,2092.0,2085.0,2019.0,-5.0,-2.0,
2085.0,2083.0,2027.0,2020.0,-5.0,-2.0,
2093.0,2055.0,1995.0,2040.0,-5.0,-2.0,
2072.0,2043.0,1991.0,2090.0,-5.0,-2.0,
2023.0,2059.0,1991.0,2048.0,-5.0,-2.0,
1986.0,2040.0,2017.0,2047.0,-5.0,-2.0,
1984.0,2039.0,2028.0,2019.0,-5.0,-2.0,
2012.0,2068.0,2019.0,2025.0,-5.0,-2.0,
2060.0,2077.0,2044.0,2043.0,-5.0,-2.0,
2095.0,2090.0,2059.0,2041.0,-5.0,-2.0,
2093.0,2091.0,2058.0,2028.0,-5.0,-2.0,
2055.0,2103.0,2047.0,2010.0,-5.0,-2.0,
2009.0,2076.0,2044.0,2034.0,-5.0,-2.0,
1981.0,2047.0,2045.0,2044.0,-5.0,-2.0,
1988.0,2065.0,2086.0,2073.0,-5.0,-2.0,
2027.0,2094.0,2082.0,2039.0,-4.0,-2.0,
2072.0,2085.0,2056.0,2034.0,-4.0,-2.0,
2094.0,2085.0,2032.0,2033.0,-5.0,-2.0,
2078.0,2058.0,1996.0,2034.0,-5.0,-2.0,
2039.0,2053.0,1986.0,2039.0,-5.0,-2.0,
1997.0,2068.0,2033.0,2056.0,-5.0,-2.0,
1988.0,2077.0,2056.0,2055.0,-5.0,-2.0,
1998.0,2069.0,2053.0,2026.0,0,0,
2044.0,2071.0,2034.0,1990.0,-5.0,-2.0,
2085.0,2066.0,2022.0,2040.0,-5.0,-2.0,
2093.0,2059.0,2020.0,2047.0,-5.0,-2.0,
2066.0,2074.0,2042.0,2034.0,-5.0,-2.0,
2035.0,2091.0,2051.0,2011.0,-5.0,-2.0,
1989.0,2094.0,2048.0,2032.0,-4.0,-2.0,
1982.0,2051.0,2034.0,2046.0,-4.0,-2.0,
2012.0,2001.0,2011.0,2076.0,-5.0,-2.0,
2058.0,2039.0,2028.0,2075.0,-4.0,-2.0,
2079.0,2058.0,2023.0,2080.0,-4.0,-2.0,
2094.0,2064.0,2018.0,2025.0,-4.0,-2.0,
2060.0,2039.0,2036.0,2006.0,-4.0,-2.0,
2010.0,2066.0,2055.0,1992.0,-5.0,-2.0,
1978.0,2069.0,2075.0,2001.0,-5.0,-2.0,
1987.0,2044.0,2071.0,1984.0,-5.0,-2.0,
2024.0,2072.0,2033.0,2060.0,-5.0,-2.0,
2073.0,2030.0,2043.0,2094.0,-5.0,-2.0,
2095.0,2057.0,2013.0,2067.0,-5.0,-2.0,
2083.0,2090.0,2012.0,2071.0,-5.0,-2.0,
2043.0,2134.0,2049.0,2060.0,-5.0,-2.0,
1998.0,2154.0,2065.0,2019.0,-5.0,0,
1976.0,2154.0,2059.0,2015.0,-5.0,-2.0,
1999.0,2075.0,2021.0,2044.0,-5.0,-2.0,
2040.0,1989.0,2025.0,2086.0,-5.0,-2.0,
2081.0,1913.0,2024.0,2076.0,-5.0,-2.0,
2094.0,2008.0,2030.0,2037.0,-5.0,-2.0,
2071.0,2052.0,2035.0,2008.0,-5.0,-2.0,
2027.0,2065.0,2045.0,2010.0,-5.0,-2.0,
1992.0,2076.0,2028.0,2033.0,-5.0,-2.0,
1984.0,2082.0,1995.0,2027.0,-5.0,-2.0,
2009.0,2088.0,1999.0,2026.0,-5.0,-2.0,
2055.0,2087.0,1994.0,2019.0,-5.0,-2.0,
2091.0,2090.0,1998.0,2012.0,-5.0,-2.0,
2090.0,2065.0,2061.0,2050.0,-5.0,-2.0,
2064.0,2075.0,2075.0,2049.0,-5.0,-2.0,
2012.0,2065.0,2068.0,2037.0,0,0,
1980.0,2074.0,2072.0,2019.0,-5.0,-2.0,
1986.0,2097.0,2061.0,2019.0,-5.0,-2.0,
2022.0,2057.0,2024.0,2052.0,-5.0,-2.0,
2065.0,2093.0,2077.0,2081.0,-5.0,-2.0,
2099.0,2117.0,2058.0,2052.0,-5.0,-2.0,
2086.0,2042.0,2038.0,2042.0,-5.0,-2.0,
2045.0,2031.0,2013.0,2032.0,-5.0,-2.0,
2003.0,2053.0,2046.0,2047.0,-5.0,-2.0,
1980.0,2015.0,2016.0,1953.0,-5.0,-2.0,
1993.0,2050.0,2070.0,2047.0,-5.0,-2.0,
2034.0,2060.0,2022.0,2035.0,-5.0,-2.0,
2081.0,2061.0,2017.0,2044.0,-5.0,-2.0,
2093.0,2083.0,2048.0,2039.0,-5.0,-2.0,
2074.0,2081.0,2022.0,2036.0,-5.0,-2.0,
2027.0,2073.0,2030.0,2040.0,-5.0,-2.0,
1991.0,2078.0,2023.0,2034.0,-5.0,-2.0,
1986.0,2057.0,2035.0,2044.0,-5.0,0,
2006.0,2050.0,2038.0,2043.0,-5.0,-2.0,
2053.0,2078.0,2050.0,2056.0,-5.0,-2.0,
2090.0,2076.0,2010.0,2036.0,-5.0,-2.0,
2091.0,2036.0,1998.0,2044.0,-5.0,-2.0,
2059.0,2082.0,2020.0,2048.0,-5.0,-2.0,
2020.0,2050.0,2055.0,2067.0,-5.0,-2.0,
1985.0,2046.0,2042.0,2053.0,0,0,
1985.0,2081.0,2038.0,2025.0,-5.0,-2.0,
2018.0,2068.0,2033.0,2005.0,-5.0,-2.0,
2064.0,2081.0,2057.0,2017.0,-5.0,-2.0,
2094.0,2065.0,2038.0,2015.0,-5.0,-2.0,
2086.0,2090.0,2030.0,2052.0,-5.0,-2.0,
2050.0,2062.0,2047.0,2059.0,-5.0,-2.0,
2003.0,2065.0,2062.0,2052.0,-5.0,-2.0,
1978.0,2069.0,2070.0,2032.0,-5.0,-2.0,
1990.0,2113.0,2052.0,2023.0,-5.0,-2.0,
2032.0,2142.0,2047.0,2051.0,-5.0,-2.0,
2078.0,2118.0,2070.0,2000.0,-5.0,-2.0,
2096.0,2050.0,2046.0,2011.0,-5.0,-2.0,
2076.0,1980.0,2003.0,2041.0,-5.0,-2.0,
2033.0,2026.0,2020.0,2106.0,-5.0,-2.0,
1993.0,2005.0,2044.0,2069.0,-5.0,-2.0,
1980.0,1943.0,2020.0,2060.0,-5.0,-2.0,
2004.0,2094.0,2028.0,2023.0,-5.0,-2.0,
2049.0,2015.0,1981.0,2044.0,-5.0,-2.0,
2089.0,2030.0,1975.0,2061.0,-5.0,-2.0,
2095.0,2087.0,2002.0,2062.0,-5.0,-2.0,
2066.0,2114.0,2049.0,2030.0,-5.0,-2.0,
