2064.0,2087.0,3.0,-12.0,
2069.0,2095.0,3.0,-12.0,
2067.0,2089.0,3.0,-12.0,
2096.0,2094.0,3.0,-12.0,
2093.0,2098.0,3.0,-12.0,
2067.0,2089.0,3.0,-12.0,
2078.0,2091.0,3.0,-12.0,
2094.0,2091.0,3.0,-12.0,
2081.0,2085.0,3.0,-12.0,
2063.0,2082.0,3.0,-12.0,
2050.0,2078.0,3.0,-12.0,
2061.0,2075.0,3.0,-12.0,
2075.0,2090.0,4.0,-12.0,
2085.0,2094.0,4.0,-12.0,
2066.0,2092.0,4.0,-12.0,
2076.0,2094.0,4.0,-12.0,
2074.0,2093.0,4.0,-12.0,
2090.0,2105.0,4.0,-12.0,
2057.0,2094.0,4.0,-12.0,
2046.0,2085.0,4.0,-13.0,
2048.0,2095.0,4.0,-13.0,
2050.0,2097.0,4.0,-13.0,
2080.0,2093.0,4.0,-13.0,
2049.0,2092.0,4.0,-13.0,
2063.0,2088.0,4.0,-13.0,
2071.0,2101.0,4.0,-13.0,
2092.0,2102.0,3.0,-13.0,
2058.0,2081.0,4.0,-13.0,
2039.0,2078.0,4.0,-13.0,
2049.0,2077.0,4.0,-13.0,
2063.0,2082.0,4.0,-13.0,
2083.0,2086.0,4.0,-13.0,
2057.0,2086.0,4.0,-12.0,
2070.0,2087.0,4.0,-12.0,
2074.0,2088.0,4.0,-12.0,
2086.0,2086.0,4.0,-12.0,
2059.0,2086.0,4.0,-12.0,
2044.0,2089.0,4.0,-12.0,
2058.0,2085.0,4.0,-12.0,
2070.0,2075.0,4.0,-12.0,
2044.0,2094.0,4.0,-12.0,
2072.0,2089.0,4.0,-12.0,
2076.0,2097.0,4.0,-12.0,
2083.0,2096.0,4.0,-12.0,
2103.0,2103.0,4.0,-13.0,
2078.0,2096.0,4.0,-13.0,
2054.0,2086.0,4.0,-13.0,
2058.0,2082.0,4.0,-12.0,
2086.0,2088.0,4.0,-12.0,
2088.0,2094.0,4.0,-12.0,
2067.0,2089.0,4.0,-12.0,
2080.0,2096.0,4.0,-12.0,
2078.0,2087.0,4.0,-12.0,
2089.0,2092.0,4.0,-12.0,
2068.0,2085.0,4.0,-12.0,
2053.0,2086.0,4.0,-12.0,
2057.0,2087.0,4.0,-12.0,
2063.0,2084.0,4.0,-12.0,
2093.0,2093.0,4.0,-12.0,
2056.0,2083.0,4.0,-12.0,
2057.0,2087.0,4.0,-12.0,
2072.0,2095.0,4.0,-12.0,
2088.0,2100.0,4.0,-12.0,
2067.0,2091.0,4.0,-12.0,
2052.0,2089.0,4.0,-12.0,
2050.0,2085.0,4.0,-12.0,
2061.0,2093.0,4.0,-12.0,
2090.0,2087.0,4.0,-12.0,
2066.0,2089.0,4.0,-12.0,
2065.0,2086.0,4.0,-13.0,
2077.0,2088.0,4.0,-12.0,
2102.0,2101.0,4.0,-12.0,
2076.0,2092.0,4.0,-13.0,
2053.0,2084.0,4.0,-13.0,
2063.0,2080.0,4.0,-13.0,
2069.0,2106.0,4.0,-13.0,
2093.0,2086.0,4.0,-13.0,
2071.0,2086.0,4.0,-13.0,
2075.0,2095.0,4.0,-13.0,
2051.0,2090.0,4.0,-13.0,
2088.0,2093.0,4.0,-13.0,
2075.0,2087.0,4.0,-13.0,
2062.0,2086.0,4.0,-13.0,
2055.0,2082.0,4.0,-13.0,
2069.0,2095.0,4.0,-12.0,
2085.0,2063.0,4.0,-12.0,
2059.0,2086.0,4.0,-12.0,
2069.0,2088.0,4.0,-12.0,
2084.0,2093.0,4.0,-12.0,
2094.0,2092.0,4.0,-12.0,
2076.0,2084.0,4.0,-12.0,
2042.0,2079.0,4.0,-12.0,
2049.0,2078.0,4.0,-12.0,
2066.0,2082.0,4.0,-12.0,
2094.0,2087.0,4.0,-13.0,
2077.0,2092.0,4.0,-13.0,
2081.0,2089.0,4.0,-13.0,
2087.0,2101.0,4.0,-13.0,
2098.0,2099.0,4.0,-13.0,
2077.0,2086.0,4.0,-13.0,
2054.0,2085.0,4.0,-13.0,
2044.0,2082.0,4.0,-13.0,
2057.0,2085.0,4.0,-13.0,
2084.0,2103.0,4.0,-13.0,
2071.0,2090.0,4.0,-13.0,
2072.0,2092.0,4.0,-13.0,
2081.0,2092.0,4.0,-13.0,
2098.0,2098.0,4.0,-13.0,
2078.0,2091.0,4.0,-13.0,
2060.0,2090.0,4.0,-13.0,
2050.0,2083.0,4.0,-12.0,
2054.0,2089.0,4.0,-12.0,
2061.0,2092.0,4.0,-12.0,
2061.0,2085.0,4.0,-12.0,
2069.0,2091.0,4.0,-12.0,
2073.0,2095.0,4.0,-12.0,
2094.0,2106.0,4.0,-13.0,
2080.0,2090.0,4.0,-12.0,
2048.0,2091.0,4.0,-13.0,
2052.0,2095.0,4.0,-13.0,
2058.0,2087.0,4.0,-13.0,
2092.0,2091.0,4.0,-12.0,
2070.0,2092.0,4.0,-12.0,
2066.0,2095.0,4.0,-12.0,
2080.0,2091.0,4.0,-12.0,
2087.0,2096.0,4.0,-12.0,
2085.0,2092.0,4.0,-12.0,
2059.0,2096.0,4.0,-12.0,
2052.0,2096.0,4.0,-12.0,
2060.0,2100.0,4.0,-12.0,
2088.0,2097.0,4.0,-12.0,
2065.0,2082.0,4.0,-12.0,
2076.0,2085.0,4.0,-12.0,
2079.0,2090.0,4.0,-12.0,
2100.0,2095.0,4.0,-12.0,
2093.0,2100.0,4.0,-12.0,
2065.0,2084.0,4.0,-12.0,
2063.0,2077.0,4.0,-12.0,
2061.0,2081.0,4.0,-12.0,
2093.0,2081.0,4.0,-12.0,
2065.0,2084.0,4.0,-12.0,
2072.0,2079.0,4.0,-12.0,
2088.0,2091.0,4.0,-12.0,
2089.0,2082.0,4.0,-12.0,
2083.0,2079.0,4.0,-12.0,
2059.0,2078.0,4.0,-12.0,
2050.0,2078.0,4.0,-12.0,
2053.0,2080.0,3.0,-12.0,
2087.0,2090.0,4.0,-12.0,
2073.0,2084.0,4.0,-12.0,
2065.0,2092.0,4.0,-12.0,
2078.0,2097.0,4.0,-12.0,
2087.0,2105.0,4.0,-12.0,
2085.0,2095.0,3.0,-12.0,
2050.0,2092.0,3.0,-12.0,
2041.0,2092.0,4.0,-12.0,
2054.0,2091.0,4.0,-12.0,
2076.0,2090.0,4.0,-12.0,
2056.0,2088.0,4.0,-12.0,
2064.0,2093.0,4.0,-12.0,
2079.0,2102.0,4.0,-12.0,
2092.0,2099.0,4.0,-12.0,
2079.0,2091.0,4.0,-13.0,
2044.0,2082.0,4.0,-13.0,
2042.0,2086.0,4.0,-13.0,
2052.0,2085.0,4.0,-13.0,
2082.0,2095.0,4.0,-13.0,
2065.0,2090.0,4.0,-13.0,
2074.0,2089.0,4.0,-13.0,
2085.0,2098.0,4.0,-13.0,
2098.0,2082.0,4.0,-13.0,
2093.0,2092.0,4.0,-13.0,
2068.0,2085.0,4.0,-13.0,
2049.0,2071.0,4.0,-13.0,
2056.0,2079.0,4.0,-12.0,
2056.0,2082.0,4.0,-13.0,
2066.0,2086.0,4.0,-13.0,
2065.0,2089.0,4.0,-13.0,
2079.0,2086.0,4.0,-13.0,
2096.0,2091.0,4.0,-13.0,
2093.0,2101.0,4.0,-12.0,
2061.0,2087.0,4.0,-12.0,
2055.0,2085.0,4.0,-12.0,
2057.0,2078.0,4.0,-13.0,
2086.0,2090.0,4.0,-13.0,
2081.0,2090.0,4.0,-13.0,
2069.0,2091.0,4.0,-13.0,
2096.0,2104.0,4.0,-13.0,
2092.0,2075.0,4.0,-13.0,
2089.0,2099.0,4.0,-13.0,
2062.0,2089.0,4.0,-13.0,
2059.0,2087.0,4.0,-13.0,
2061.0,2085.0,4.0,-13.0,
2082.0,2093.0,4.0,-13.0,
2085.0,2082.0,4.0,-13.0,
2065.0,2088.0,4.0,-13.0,
2076.0,2088.0,4.0,-13.0,
2076.0,2091.0,4.0,-13.0,
2076.0,2101.0,4.0,-13.0,
2050.0,2092.0,4.0,-13.0,
2069.0,2088.0,4.0,-12.0,
2051.0,2077.0,4.0,-12.0,
2080.0,2085.0,3.0,-13.0,
2082.0,2072.0,4.0,-12.0,
2076.0,2077.0,4.0,-12.0,
2081.0,2092.0,4.0,-13.0,
2085.0,2097.0,4.0,-12.0,
2080.0,2094.0,4.0,-12.0,
2054.0,2087.0,4.0,-12.0,
2049.0,2080.0,4.0,-12.0,
2064.0,2080.0,4.0,-12.0,
2081.0,2091.0,4.0,-13.0,
2074.0,2088.0,4.0,-12.0,
2064.0,2083.0,4.0,-12.0,
2075.0,2095.0,4.0,-12.0,
2090.0,2090.0,3.0,-12.0,
2086.0,2096.0,3.0,-12.0,
2066.0,2091.0,3.0,-12.0,
2064.0,2083.0,3.0,-12.0,
2076.0,2095.0,3.0,-12.0,
2092.0,2087.0,3.0,-12.0,
2081.0,2087.0,3.0,-12.0,
2072.0,2089.0,4.0,-12.0,
2068.0,2086.0,4.0,-12.0,
2088.0,2093.0,3.0,-12.0,
2102.0,2100.0,4.0,-12.0,
2066.0,2084.0,4.0,-12.0,
2059.0,2083.0,3.0,-12.0,
2066.0,2078.0,3.0,-12.0,
2088.0,2077.0,3.0,-12.0,
2078.0,2084.0,4.0,-13.0,
2068.0,2086.0,3.0,-12.0,
2082.0,2107.0,4.0,-12.0,
2081.0,2101.0,4.0,-12.0,
2088.0,2097.0,4.0,-13.0,
2056.0,2084.0,4.0,-12.0,
2047.0,2085.0,4.0,-13.0,
2052.0,2086.0,4.0,-12.0,
2081.0,2089.0,4.0,-13.0,
2075.0,2088.0,4.0,-12.0,
2062.0,2090.0,4.0,-12.0,
2069.0,2097.0,4.0,-12.0,
2070.0,2094.0,4.0,-13.0,
2077.0,2092.0,4.0,-13.0,
2053.0,2087.0,4.0,-12.0,
2043.0,2084.0,4.0,-12.0,
2055.0,2081.0,4.0,-12.0,
2065.0,2086.0,4.0,-13.0,
2073.0,2080.0,4.0,-13.0,
2066.0,2085.0,4.0,-12.0,
2071.0,2086.0,4.0,-12.0,
2080.0,2099.0,4.0,-13.0,
2078.0,2088.0,4.0,-13.0,
2052.0,2081.0,4.0,-12.0,
2049.0,2081.0,4.0,-12.0,
2057.0,2081.0,4.0,-12.0,
2073.0,2088.0,4.0,-12.0,
2081.0,2092.0,4.0,-12.0,
2059.0,2093.0,4.0,-12.0,
2068.0,2091.0,4.0,-12.0,
2087.0,2090.0,4.0,-12.0,
2085.0,2094.0,4.0,-12.0,
2056.0,2089.0,4.0,-12.0,
2056.0,2090.0,4.0,-12.0,
2058.0,2081.0,4.0,-12.0,
2074.0,2079.0,4.0,-12.0,
2083.0,2084.0,4.0,-12.0,
2076.0,2088.0,4.0,-12.0,
2080.0,2084.0,4.0,-13.0,
2086.0,2103.0,4.0,-13.0,
2103.0,2106.0,4.0,-13.0,
2068.0,2078.0,4.0,-13.0,
2056.0,2082.0,4.0,-12.0,
2060.0,2081.0,4.0,-12.0,
2073.0,2088.0,4.0,-13.0,
2076.0,2086.0,4.0,-13.0,
2069.0,2089.0,4.0,-13.0,
2080.0,2103.0,4.0,-13.0,
2083.0,2130.0,3.0,-13.0,
2095.0,2099.0,3.0,-13.0,
2059.0,2092.0,3.0,-12.0,
2062.0,2084.0,3.0,-12.0,
2064.0,2081.0,3.0,-12.0,
2078.0,2088.0,3.0,-12.0,
2084.0,2088.0,3.0,-12.0,
2069.0,2086.0,3.0,-12.0,
2079.0,2088.0,3.0,-12.0,
2089.0,2099.0,3.0,-12.0,
2089.0,2093.0,3.0,-12.0,
2066.0,2088.0,3.0,-12.0,
2050.0,2085.0,3.0,-13.0,
2065.0,2082.0,3.0,-12.0,
2074.0,2087.0,3.0,-12.0,
2080.0,2089.0,3.0,-13.0,
2067.0,2088.0,3.0,-13.0,
2068.0,2084.0,3.0,-13.0,
2080.0,2102.0,3.0,-13.0,
2085.0,2087.0,3.0,-13.0,
2060.0,2076.0,3.0,-13.0,
2047.0,2080.0,3.0,-13.0,
2045.0,2081.0,3.0,-13.0,
2063.0,2085.0,3.0,-13.0,
2092.0,2091.0,3.0,-13.0,
2067.0,2092.0,4.0,-13.0,
2059.0,2089.0,4.0,-13.0,
2077.0,2094.0,4.0,-13.0,
2091.0,2093.0,4.0,-13.0,
2074.0,2089.0,4.0,-12.0,
2058.0,2082.0,4.0,-12.0,
2053.0,2085.0,4.0,-12.0,
2075.0,2089.0,4.0,-12.0,
2088.0,2036.0,4.0,-12.0,
2077.0,2087.0,4.0,-12.0,
2084.0,2096.0,4.0,-12.0,
2093.0,2099.0,4.0,-12.0,
2103.0,2108.0,4.0,-12.0,
2076.0,2096.0,4.0,-13.0,
2059.0,2088.0,4.0,-13.0,
2058.0,2088.0,4.0,-13.0,
2068.0,2083.0,4.0,-13.0,
2084.0,2086.0,4.0,-13.0,
2075.0,2092.0,4.0,-13.0,
2079.0,2086.0,4.0,-13.0,
2085.0,2092.0,4.0,-12.0,
2085.0,2095.0,4.0,-12.0,
2059.0,2090.0,4.0,-12.0,
2052.0,2085.0,4.0,-12.0,
2054.0,2088.0,4.0,-12.0,
2068.0,2079.0,4.0,-12.0,
2087.0,2082.0,4.0,-12.0,
2063.0,2079.0,4.0,-12.0,
2073.0,2081.0,4.0,-12.0,
2089.0,2088.0,4.0,-12.0,
2098.0,2091.0,4.0,-12.0,
2074.0,2090.0,4.0,-12.0,
2051.0,2082.0,4.0,-12.0,
2066.0,2076.0,4.0,-12.0,
2073.0,2077.0,4.0,-12.0,
2089.0,2084.0,4.0,-12.0,
2076.0,2081.0,4.0,-12.0,
2082.0,2086.0,4.0,-12.0,
2094.0,2098.0,4.0,-12.0,
2090.0,2087.0,4.0,-12.0,
2077.0,2090.0,4.0,-13.0,
2014.0,2085.0,4.0,-13.0,
2051.0,2085.0,4.0,-13.0,
2067.0,2100.0,4.0,-13.0,
2085.0,2090.0,4.0,-13.0,
2060.0,2087.0,4.0,-12.0,
2071.0,2090.0,4.0,-12.0,
2074.0,2095.0,4.0,-12.0,
2078.0,2095.0,4.0,-12.0,
2070.0,2086.0,4.0,-12.0,
2059.0,2085.0,4.0,-12.0,
2058.0,2082.0,4.0,-12.0,
2056.0,2076.0,4.0,-12.0,
2078.0,2083.0,4.0,-13.0,
2069.0,2093.0,4.0,-13.0,
2082.0,2095.0,4.0,-13.0,
2083.0,2093.0,4.0,-13.0,
2106.0,2093.0,4.0,-13.0,
2083.0,2079.0,4.0,-12.0,
2048.0,2079.0,4.0,-12.0,
2054.0,2079.0,4.0,-12.0,
2060.0,2071.0,4.0,-12.0,
2087.0,2091.0,4.0,-13.0,
2066.0,2090.0,4.0,-12.0,
2097.0,2091.0,4.0,-12.0,
2078.0,2097.0,4.0,-12.0,
2088.0,2097.0,4.0,-12.0,
2074.0,2092.0,4.0,-12.0,
2061.0,2088.0,4.0,-13.0,
2055.0,2091.0,4.0,-12.0,
2070.0,2103.0,4.0,-12.0,
2089.0,2097.0,4.0,-12.0,
2071.0,2094.0,4.0,-12.0,
2074.0,2097.0,4.0,-12.0,
2081.0,2100.0,4.0,-12.0,
2088.0,2105.0,4.0,-12.0,
2079.0,2084.0,4.0,-12.0,
2049.0,2089.0,4.0,-12.0,
2055.0,2089.0,4.0,-12.0,
2057.0,2057.0,4.0,-12.0,
2077.0,2091.0,4.0,-12.0,
2069.0,2088.0,4.0,-12.0,
2068.0,2087.0,4.0,-12.0,
2075.0,2091.0,4.0,-12.0,
2082.0,2097.0,4.0,-12.0,
2079.0,2088.0,4.0,-12.0,
2057.0,2090.0,4.0,-12.0,
2057.0,2089.0,4.0,-12.0,
2062.0,2094.0,4.0,-12.0,
2099.0,2089.0,4.0,-12.0,
2068.0,2089.0,4.0,-12.0,
2068.0,2089.0,4.0,-12.0,
2071.0,2092.0,4.0,-13.0,
2090.0,2098.0,0,
2070.0,2090.0,4.0,-12.0,
2051.0,2083.0,4.0,-12.0,
2055.0,2084.0,4.0,-13.0,
2054.0,2077.0,4.0,-13.0,
2100.0,2083.0,4.0,-13.0,
2072.0,2087.0,4.0,-13.0,
2073.0,2089.0,4.0,-13.0,
2081.0,2099.0,4.0,-13.0,
2100.0,2093.0,4.0,-13.0,
2084.0,2096.0,4.0,-12.0,
2057.0,2096.0,4.0,-13.0,
2077.0,2090.0,4.0,-13.0,
2089.0,2088.0,4.0,-13.0,
2094.0,2098.0,4.0,-12.0,
2081.0,2088.0,4.0,-12.0,
2074.0,2095.0,4.0,-12.0,
2079.0,2093.0,4.0,-12.0,
2089.0,2095.0,4.0,-12.0,
2088.0,2086.0,4.0,-12.0,
2065.0,2080.0,4.0,-12.0,
2053.0,2082.0,4.0,-12.0,
2055.0,2091.0,4.0,-12.0,
2078.0,2080.0,4.0,-12.0,
2067.0,2087.0,4.0,-12.0,
2067.0,2091.0,4.0,-12.0,
2071.0,2095.0,4.0,-12.0,
2083.0,2101.0,4.0,-12.0,
2076.0,2099.0,4.0,-12.0,
2047.0,2087.0,4.0,-13.0,
2051.0,2085.0,4.0,-13.0,
2057.0,2078.0,4.0,-13.0,
2077.0,2095.0,4.0,-13.0,
2063.0,2093.0,4.0,-13.0,
2066.0,2093.0,4.0,-13.0,
2089.0,2094.0,4.0,-13.0,
2091.0,2099.0,4.0,-13.0,
2081.0,2094.0,4.0,-13.0,
2053.0,2085.0,4.0,-13.0,
2054.0,2083.0,4.0,-13.0,
2047.0,2085.0,4.0,-13.0,
2082.0,2084.0,4.0,-13.0,
2067.0,2093.0,4.0,-13.0,
2066.0,2093.0,4.0,-13.0,
2073.0,2088.0,4.0,-13.0,
2081.0,2095.0,4.0,-13.0,
2083.0,2084.0,4.0,-13.0,
2045.0,2084.0,4.0,-13.0,
2055.0,2086.0,4.0,-12.0,
2033.0,2086.0,4.0,-12.0,
2075.0,2085.0,4.0,-12.0,
2066.0,2085.0,4.0,-12.0,
2069.0,2083.0,4.0,-12.0,
2076.0,2095.0,4.0,-12.0,
2078.0,2081.0,4.0,-12.0,
2078.0,2092.0,4.0,-12.0,
2051.0,2085.0,4.0,-12.0,
2048.0,2089.0,4.0,-12.0,
2067.0,2087.0,4.0,-12.0,
2082.0,2099.0,4.0,-12.0,
2073.0,2094.0,4.0,-12.0,
2075.0,2099.0,4.0,-12.0,
2087.0,2062.0,4.0,-12.0,
2089.0,2089.0,4.0,-12.0,
2084.0,2097.0,4.0,-12.0,
2052.0,2094.0,4.0,-12.0,
2054.0,2091.0,3.0,-12.0,
2045.0,2090.0,3.0,-12.0,
2078.0,2089.0,3.0,-12.0,
2068.0,2085.0,3.0,-12.0,
2075.0,2086.0,3.0,-12.0,
2077.0,2091.0,3.0,-12.0,
2126.0,2090.0,3.0,-12.0,
2094.0,2094.0,3.0,-12.0,
2061.0,2089.0,3.0,-12.0,
2060.0,2081.0,3.0,-12.0,
2066.0,2080.0,3.0,-12.0,
2078.0,2088.0,3.0,-13.0,
2077.0,2077.0,3.0,-13.0,
2079.0,2092.0,3.0,-13.0,
2090.0,2160.0,3.0,-13.0,
2095.0,2094.0,3.0,-13.0,
2102.0,2086.0,3.0,-13.0,
2060.0,2083.0,3.0,-12.0,
2057.0,2087.0,4.0,-13.0,
2063.0,2096.0,4.0,-12.0,
2081.0,2096.0,4.0,-13.0,
2075.0,2089.0,4.0,-13.0,
2070.0,2087.0,4.0,-13.0,
2085.0,2090.0,4.0,-13.0,
2088.0,2091.0,4.0,-13.0,
2070.0,2097.0,4.0,-13.0,
2062.0,2091.0,4.0,-13.0,
2065.0,2092.0,4.0,-13.0,
2054.0,2088.0,4.0,-13.0,
2072.0,2090.0,4.0,-13.0,
2070.0,2084.0,4.0,-13.0,
2065.0,2090.0,4.0,-13.0,
2073.0,2092.0,4.0,-13.0,
2094.0,2095.0,4.0,-13.0,
2085.0,2093.0,4.0,-13.0,
2065.0,2089.0,4.0,-12.0,
2047.0,2085.0,4.0,-12.0,
2048.0,2080.0,4.0,-12.0,
2067.0,2099.0,4.0,-12.0,
2068.0,2096.0,4.0,-12.0,
2060.0,2102.0,4.0,-12.0,
2075.0,2099.0,4.0,-12.0,
2084.0,2101.0,4.0,-12.0,
2089.0,2082.0,4.0,-12.0,
2055.0,2081.0,4.0,-12.0,
2052.0,2085.0,4.0,-12.0,
2057.0,2083.0,4.0,-13.0,
2070.0,2101.0,4.0,-13.0,
2069.0,2082.0,4.0,-13.0,
2062.0,2094.0,4.0,-13.0,
2073.0,2094.0,4.0,-13.0,
2084.0,2100.0,4.0,-13.0,
2087.0,2093.0,4.0,-13.0,
2048.0,2091.0,4.0,-13.0,
2056.0,2085.0,4.0,-13.0,
2054.0,2080.0,4.0,-13.0,
2083.0,2084.0,4.0,-12.0,
2080.0,2090.0,4.0,-13.0,
2077.0,2091.0,4.0,-13.0,
2089.0,2094.0,4.0,-13.0,
2088.0,2124.0,4.0,-13.0,
2090.0,2093.0,4.0,-13.0,
2067.0,2086.0,4.0,-13.0,
2060.0,2083.0,4.0,-13.0,
2063.0,2088.0,4.0,-13.0,
2091.0,2095.0,3.0,-13.0,
2089.0,2083.0,3.0,-13.0,
2083.0,2079.0,3.0,-13.0,
2085.0,2087.0,3.0,-13.0,
2093.0,2094.0,3.0,-13.0,
2100.0,2085.0,3.0,-13.0,
2071.0,2082.0,3.0,-13.0,
2066.0,2102.0,3.0,-13.0,
2060.0,2084.0,3.0,-13.0,
2074.0,2090.0,3.0,-12.0,
2089.0,2090.0,3.0,-12.0,
2080.0,2089.0,3.0,-12.0,
2076.0,2099.0,3.0,-12.0,
2082.0,2106.0,3.0,-12.0,
2082.0,2098.0,3.0,-12.0,
2055.0,2088.0,3.0,-12.0,
2048.0,2080.0,3.0,-12.0,
2062.0,2081.0,3.0,-12.0,
2074.0,2094.0,3.0,-12.0,
2084.0,2087.0,3.0,-12.0,
2073.0,2080.0,3.0,-12.0,
2076.0,2083.0,3.0,-12.0,
2077.0,2090.0,3.0,-12.0,
2092.0,2091.0,3.0,-12.0,
2059.0,2089.0,3.0,-12.0,
2050.0,2085.0,4.0,-12.0,
2052.0,2089.0,4.0,-12.0,
2090.0,2090.0,4.0,-12.0,
2072.0,2085.0,4.0,-12.0,
2063.0,2091.0,4.0,-12.0,
2073.0,2088.0,4.0,-12.0,
2057.0,2092.0,4.0,-12.0,
2075.0,2090.0,4.0,-12.0,
2055.0,2085.0,4.0,-12.0,
2051.0,2077.0,4.0,-12.0,
2053.0,2079.0,4.0,-12.0,
2069.0,2079.0,4.0,-12.0,
2092.0,2090.0,4.0,-12.0,
2071.0,2099.0,4.0,-12.0,
2074.0,2097.0,4.0,-12.0,
2081.0,2093.0,4.0,-12.0,
2092.0,2106.0,4.0,-12.0,
2072.0,2094.0,4.0,-12.0,
2059.0,2088.0,4.0,-12.0,
2067.0,2087.0,4.0,-12.0,
2085.0,2099.0,4.0,-12.0,
2074.0,2091.0,4.0,-12.0,
2064.0,2091.0,4.0,-13.0,
2074.0,2092.0,4.0,-13.0,
2077.0,2094.0,4.0,-13.0,
2082.0,2095.0,4.0,-13.0,
2060.0,2092.0,4.0,-13.0,
2052.0,2084.0,4.0,-13.0,
2054.0,2085.0,4.0,-13.0,
2065.0,2085.0,4.0,-13.0,
2087.0,2084.0,4.0,-13.0,
2076.0,2076.0,4.0,-13.0,
2070.0,2092.0,4.0,-13.0,
2077.0,2091.0,4.0,-13.0,
2094.0,2093.0,4.0,-13.0,
2057.0,2080.0,4.0,-13.0,
2044.0,2080.0,4.0,-13.0,
2046.0,2090.0,4.0,-13.0,
2057.0,2075.0,4.0,-13.0,
2092.0,2089.0,4.0,-13.0,
2064.0,2090.0,4.0,-13.0,
2070.0,2092.0,4.0,-13.0,
2087.0,2091.0,4.0,-13.0,
2098.0,2093.0,4.0,-12.0,
2076.0,2087.0,4.0,-13.0,
2056.0,2087.0,4.0,-12.0,
2061.0,2094.0,4.0,-12.0,
2075.0,2096.0,4.0,-13.0,
2091.0,2089.0,4.0,-13.0,
2074.0,2095.0,4.0,-13.0,
2071.0,2096.0,4.0,-13.0,
2077.0,2103.0,4.0,-13.0,
2087.0,2109.0,4.0,-13.0,
2067.0,2089.0,4.0,-13.0,
2053.0,2086.0,4.0,-13.0,
2062.0,2087.0,4.0,-13.0,
2068.0,2088.0,4.0,-13.0,
2085.0,2116.0,4.0,-12.0,
2078.0,2089.0,4.0,-12.0,
2072.0,2091.0,3.0,-12.0,
2080.0,2093.0,3.0,-12.0,
2082.0,2097.0,4.0,-12.0,
2068.0,2085.0,3.0,-12.0,
2062.0,2088.0,3.0,-12.0,
2056.0,2090.0,3.0,-12.0,
2061.0,2093.0,3.0,-12.0,
2081.0,2094.0,3.0,-12.0,
2059.0,2092.0,3.0,-12.0,
2062.0,2088.0,3.0,-12.0,
2073.0,2097.0,3.0,-12.0,
2087.0,2094.0,3.0,-12.0,
2078.0,2095.0,3.0,-12.0,
2056.0,2090.0,4.0,-12.0,
2058.0,2089.0,4.0,-12.0,
2069.0,2090.0,4.0,-12.0,
2084.0,2092.0,3.0,-12.0,
2077.0,2094.0,3.0,-13.0,
2083.0,2093.0,4.0,-13.0,
2083.0,2093.0,3.0,-13.0,
2087.0,2099.0,4.0,-12.0,
2077.0,2094.0,3.0,-13.0,
2054.0,2088.0,4.0,-13.0,
2053.0,2091.0,4.0,-13.0,
2066.0,2092.0,4.0,-13.0,
2077.0,2093.0,4.0,-13.0,
2067.0,2091.0,4.0,-13.0,
2073.0,2087.0,4.0,-13.0,
2084.0,2096.0,4.0,-13.0,
2088.0,2100.0,3.0,-13.0,
2080.0,2086.0,4.0,-12.0,
2067.0,2092.0,4.0,-12.0,
2060.0,2077.0,4.0,-12.0,
2062.0,2085.0,4.0,-13.0,
2090.0,2089.0,4.0,-12.0,
2068.0,2088.0,4.0,-12.0,
2079.0,2092.0,4.0,-12.0,
2095.0,2103.0,4.0,-12.0,
2075.0,2099.0,4.0,-12.0,
2083.0,2091.0,4.0,-12.0,
2056.0,2081.0,4.0,-12.0,
2046.0,2086.0,4.0,-12.0,
2082.0,2086.0,4.0,-12.0,
2085.0,2090.0,4.0,-12.0,
2068.0,2099.0,4.0,-12.0,
2066.0,2077.0,4.0,-12.0,
2083.0,2110.0,4.0,-12.0,
2106.0,2091.0,4.0,-12.0,
2080.0,2089.0,4.0,-12.0,
2055.0,2082.0,4.0,-12.0,
2054.0,2084.0,4.0,-12.0,
2073.0,2085.0,4.0,-13.0,
2082.0,2093.0,4.0,-13.0,
2057.0,2087.0,4.0,-13.0,
2072.0,2094.0,4.0,-13.0,
2069.0,2096.0,4.0,-13.0,
2104.0,2096.0,4.0,-13.0,
2079.0,2094.0,4.0,-13.0,
2055.0,2083.0,4.0,-13.0,
2050.0,2085.0,4.0,-13.0,
2061.0,2091.0,4.0,-13.0,
2071.0,2093.0,4.0,-12.0,
2055.0,2089.0,4.0,-12.0,
2064.0,2096.0,4.0,-12.0,
2066.0,2089.0,4.0,-12.0,
2099.0,2084.0,4.0,-12.0,
2102.0,2079.0,4.0,-12.0,
2068.0,2093.0,4.0,-12.0,
2054.0,2126.0,4.0,-12.0,
2036.0,2100.0,4.0,-12.0,
2100.0,2099.0,4.0,-12.0,
2104.0,2054.0,4.0,-13.0,
2091.0,2038.0,4.0,-12.0,
2091.0,2036.0,4.0,-12.0,
2096.0,2064.0,4.0,-12.0,
2075.0,2195.0,4.0,-12.0,
2063.0,2162.0,5.0,-12.0,
2048.0,2123.0,5.0,-12.0,
2062.0,2165.0,5.0,-12.0,
2067.0,2129.0,5.0,-12.0,
1982.0,2088.0,0,
2086.0,2085.0,5.0,-12.0,
2099.0,2074.0,5.0,-12.0,
2082.0,2055.0,5.0,-12.0,
2076.0,2053.0,5.0,-12.0,
2058.0,2059.0,6.0,-12.0,
2058.0,2002.0,6.0,-12.0,
2053.0,2031.0,6.0,-12.0,
2074.0,2041.0,6.0,-12.0,
2074.0,2082.0,6.0,-12.0,
2066.0,2246.0,6.0,-12.0,
2063.0,2156.0,6.0,-12.0,
2075.0,2108.0,6.0,-12.0,
2083.0,2094.0,6.0,-12.0,
2070.0,2080.0,6.0,-12.0,
2056.0,2065.0,6.0,-12.0,
2066.0,2095.0,6.0,-12.0,
2075.0,2106.0,6.0,-12.0,
2060.0,2088.0,6.0,-12.0,
2058.0,2093.0,6.0,-12.0,
2080.0,2098.0,6.0,-12.0,
2098.0,2090.0,5.0,-12.0,
2080.0,2053.0,5.0,-12.0,
2058.0,2069.0,5.0,-12.0,
2054.0,2062.0,4.0,-13.0,
2046.0,2090.0,4.0,-13.0,
2081.0,2099.0,3.0,-13.0,
2073.0,2098.0,0,
2072.0,2101.0,2.0,-13.0,
2065.0,2119.0,2.0,-13.0,
2074.0,2083.0,2.0,-13.0,
2081.0,2109.0,1.0,-13.0,
2061.0,2078.0,1.0,-13.0,
2040.0,2071.0,0.0,-13.0,
2043.0,2057.0,0.0,-13.0,
2077.0,2096.0,0.0,-13.0,
2087.0,2091.0,0.0,-13.0,
2074.0,2074.0,0.0,-13.0,
2065.0,2078.0,0.0,-13.0,
2094.0,2095.0,0.0,-13.0,
2082.0,2135.0,0.0,-13.0,
2044.0,2085.0,0.0,-13.0,
2043.0,2068.0,0.0,-13.0,
2091.0,2037.0,0.0,-13.0,
2053.0,2101.0,0.0,-13.0,
2052.0,2138.0,0.0,-13.0,
2103.0,2073.0,0.0,-13.0,
2117.0,2069.0,0.0,-12.0,
2091.0,2059.0,0.0,-12.0,
2103.0,2066.0,0.0,-12.0,
2078.0,2192.0,0.0,-12.0,
2090.0,2149.0,0.0,-13.0,
2094.0,2099.0,0.0,-13.0,
2083.0,2111.0,1.0,-13.0,
2057.0,2098.0,1.0,-13.0,
2078.0,2169.0,1.0,-13.0,
2052.0,2116.0,0,
2096.0,2034.0,2.0,-13.0,
2080.0,2030.0,3.0,-13.0,
2040.0,2044.0,3.0,-13.0,
2053.0,2152.0,3.0,-13.0,
2069.0,2100.0,3.0,-13.0,
2081.0,2053.0,3.0,-13.0,
2101.0,2034.0,4.0,-13.0,
2078.0,2029.0,4.0,-13.0,
2064.0,2021.0,3.0,-13.0,
2065.0,2075.0,3.0,-13.0,
2051.0,2168.0,3.0,-13.0,
2034.0,2124.0,3.0,-13.0,
2060.0,2126.0,3.0,-13.0,
2127.0,2110.0,3.0,-13.0,
2107.0,2104.0,2.0,-13.0,
2087.0,2082.0,2.0,-13.0,
2076.0,2087.0,2.0,-13.0,
2089.0,2079.0,2.0,-13.0,
2092.0,2062.0,1.0,-13.0,
2082.0,2070.0,1.0,-13.0,
2063.0,2102.0,1.0,-13.0,
2085.0,2111.0,0.0,-13.0,
2073.0,2090.0,0.0,-13.0,
2075.0,2078.0,0.0,-13.0,
2078.0,2088.0,0.0,-13.0,
2076.0,2094.0,0.0,-13.0,
2064.0,2115.0,-1.0,-13.0,
2082.0,2153.0,-1.0,-13.0,
2082.0,2087.0,-1.0,-13.0,
2041.0,2065.0,-2.0,-13.0,
2043.0,2062.0,-2.0,-13.0,
2041.0,2035.0,-2.0,-13.0,
2076.0,2077.0,-2.0,-13.0,
2072.0,2106.0,-3.0,-13.0,
2072.0,2077.0,-3.0,-13.0,
2082.0,2116.0,-3.0,-13.0,
2059.0,2092.0,-3.0,-13.0,
2064.0,2107.0,-3.0,-13.0,
2052.0,2084.0,-3.0,-13.0,
2065.0,2091.0,-3.0,-13.0,
2061.0,2080.0,-3.0,-13.0,
2068.0,2093.0,-3.0,-13.0,
2029.0,2044.0,-3.0,-13.0,
2042.0,2073.0,-3.0,-13.0,
2077.0,2106.0,-3.0,-13.0,
2104.0,2255.0,-2.0,-13.0,
2074.0,2076.0,-2.0,-13.0,
2112.0,2078.0,-2.0,-13.0,
2146.0,2073.0,-2.0,-13.0,
2125.0,2083.0,-2.0,-13.0,
2116.0,2170.0,-1.0,-13.0,
2063.0,2169.0,-1.0,-13.0,
2088.0,2129.0,-1.0,-13.0,
1994.0,2103.0,-1.0,-13.0,
2024.0,2119.0,-1.0,-13.0,
2057.0,2102.0,-1.0,-13.0,
2068.0,1984.0,0.0,-13.0,
1987.0,2008.0,0.0,-13.0,
2104.0,2067.0,0.0,-13.0,
2066.0,1997.0,0.0,-13.0,
2038.0,1955.0,0.0,-13.0,
2026.0,2170.0,0.0,-13.0,
2158.0,2096.0,0.0,-13.0,
2121.0,2101.0,0.0,-13.0,
2128.0,2019.0,0.0,-13.0,
2097.0,2041.0,0.0,-14.0,
2100.0,2108.0,0.0,-14.0,
2048.0,2057.0,0.0,-14.0,
2076.0,2015.0,0.0,-14.0,
2087.0,2118.0,0.0,-14.0,
2063.0,2093.0,0.0,-14.0,
2078.0,2170.0,0.0,-14.0,
2099.0,2154.0,0.0,-13.0,
2085.0,2087.0,0.0,-13.0,
2049.0,2218.0,0.0,-13.0,
2034.0,2026.0,-1.0,-13.0,
2036.0,2102.0,-1.0,-14.0,
2052.0,2157.0,-1.0,-14.0,
2064.0,2151.0,-1.0,-14.0,
2059.0,2124.0,-2.0,-14.0,
2069.0,2104.0,-2.0,-14.0,
2092.0,2076.0,-2.0,-14.0,
2103.0,2080.0,-3.0,-13.0,
2060.0,2064.0,-3.0,-13.0,
2043.0,2073.0,-3.0,-13.0,
2038.0,2069.0,-4.0,-13.0,
2060.0,2075.0,-4.0,-13.0,
2081.0,2061.0,-4.0,-13.0,
2086.0,2054.0,-4.0,-13.0,
2081.0,2056.0,-5.0,-13.0,
2073.0,2064.0,-5.0,-13.0,
2097.0,2084.0,-5.0,-13.0,
2064.0,2160.0,-5.0,-13.0,
2054.0,2197.0,-5.0,-13.0,
2084.0,2094.0,-5.0,-13.0,
2103.0,2019.0,-5.0,-13.0,
2075.0,1997.0,-5.0,-13.0,
2076.0,2050.0,-5.0,-14.0,
2084.0,2118.0,-5.0,-13.0,
2031.0,2194.0,-4.0,-13.0,
2039.0,2114.0,-4.0,-13.0,
2061.0,2090.0,-4.0,-13.0,
2157.0,2089.0,-4.0,-13.0,
2078.0,2086.0,-3.0,-13.0,
2055.0,2076.0,-3.0,-13.0,
2057.0,2088.0,-3.0,-13.0,
2051.0,2089.0,-3.0,-13.0,
1952.0,2109.0,-3.0,-13.0,
2075.0,2234.0,-3.0,-13.0,
2118.0,2151.0,-3.0,-13.0,
2115.0,1983.0,-3.0,-13.0,
2098.0,2082.0,-3.0,-13.0,
2123.0,2001.0,-3.0,-13.0,
2104.0,2108.0,-3.0,-13.0,
2067.0,2069.0,-4.0,-13.0,
2028.0,1955.0,-4.0,-13.0,
2149.0,1963.0,-4.0,-13.0,
2233.0,2132.0,-4.0,-13.0,
2176.0,2159.0,-5.0,-13.0,
2012.0,2201.0,-5.0,-13.0,
1990.0,2153.0,-5.0,-13.0,
2006.0,2102.0,-5.0,-14.0,
2039.0,2047.0,-5.0,-15.0,
2027.0,1988.0,-5.0,-15.0,
2018.0,2091.0,-5.0,-15.0,
2035.0,2122.0,-5.0,-15.0,
2051.0,2097.0,-6.0,-14.0,
2089.0,2127.0,-6.0,-14.0,
2041.0,2099.0,-6.0,-14.0,
2030.0,2083.0,-6.0,-14.0,
2043.0,2093.0,-6.0,-14.0,
2101.0,2112.0,-6.0,-14.0,
2110.0,2145.0,-6.0,-13.0,
2072.0,2017.0,-6.0,-13.0,
2098.0,2072.0,-6.0,-13.0,
2067.0,2063.0,-6.0,-14.0,
2112.0,2074.0,-6.0,-15.0,
2070.0,2176.0,-6.0,-15.0,
2081.0,2081.0,-6.0,-16.0,
2065.0,2047.0,-7.0,-16.0,
2053.0,2045.0,-7.0,-16.0,
2042.0,2069.0,-7.0,-16.0,
2069.0,2165.0,-7.0,-15.0,
2043.0,2205.0,-7.0,-15.0,
2022.0,2062.0,-7.0,-14.0,
2041.0,2015.0,-7.0,-14.0,
2041.0,2094.0,-7.0,-14.0,
2155.0,2134.0,-7.0,-14.0,
2081.0,2035.0,-7.0,-13.0,
2151.0,2130.0,-7.0,-13.0,
2133.0,2123.0,-7.0,-13.0,
2013.0,2044.0,-7.0,-14.0,
2133.0,2133.0,-7.0,-14.0,
2204.0,2099.0,-7.0,-15.0,
2093.0,2040.0,-7.0,-15.0,
2057.0,2093.0,-7.0,-15.0,
2015.0,2057.0,-8.0,-15.0,
1977.0,2027.0,-8.0,-14.0,
2058.0,2123.0,-8.0,-14.0,
2204.0,2117.0,-8.0,-14.0,
2075.0,2126.0,-8.0,-13.0,
2125.0,2063.0,-8.0,-13.0,
2165.0,1987.0,-8.0,-13.0,
2125.0,2130.0,-8.0,-13.0,
2047.0,2078.0,-8.0,-12.0,
1986.0,2054.0,-8.0,-13.0,
2025.0,2058.0,-8.0,-13.0,
2022.0,2107.0,-9.0,-14.0,
1997.0,2046.0,-9.0,-15.0,
2076.0,2119.0,-9.0,-16.0,
2192.0,2194.0,-9.0,-15.0,
2133.0,2217.0,-9.0,-15.0,
2084.0,2109.0,-9.0,-14.0,
2013.0,2089.0,-9.0,-14.0,
1988.0,2058.0,-9.0,-14.0,
1985.0,2104.0,-10.0,-14.0,
2059.0,2081.0,-10.0,-14.0,
2056.0,2043.0,-10.0,-14.0,
2025.0,2134.0,-10.0,-13.0,
2015.0,2088.0,-10.0,-13.0,
2028.0,2081.0,-10.0,-13.0,
2025.0,2189.0,-10.0,-14.0,
2134.0,2118.0,-10.0,-16.0,
2104.0,2065.0,-10.0,-16.0,
2101.0,2129.0,-10.0,-16.0,
2168.0,2092.0,-10.0,-16.0,
2192.0,2120.0,-10.0,-15.0,
2060.0,2061.0,-10.0,-15.0,
2060.0,2030.0,-10.0,-15.0,
2077.0,2078.0,-10.0,-14.0,
2050.0,2036.0,-10.0,-14.0,
2095.0,2067.0,-10.0,-14.0,
2060.0,2008.0,-10.0,-13.0,
2100.0,2074.0,-10.0,-13.0,
2069.0,2126.0,-11.0,-14.0,
2092.0,2205.0,-11.0,-15.0,
2151.0,2146.0,-11.0,-16.0,
2094.0,2075.0,-11.0,-16.0,
2075.0,2023.0,-11.0,-15.0,
2083.0,2014.0,-12.0,-15.0,
2022.0,2133.0,-12.0,-15.0,
2062.0,2019.0,-12.0,-14.0,
2063.0,2071.0,-12.0,-14.0,
2047.0,2127.0,-12.0,-15.0,
1987.0,2185.0,-13.0,-14.0,
1977.0,2177.0,-13.0,-13.0,
1971.0,2037.0,-13.0,-13.0,
2113.0,1921.0,-13.0,-14.0,
2187.0,2062.0,-13.0,-14.0,
2120.0,2044.0,-13.0,-15.0,
2104.0,2058.0,-13.0,-16.0,
2036.0,2002.0,-13.0,-16.0,
2013.0,2127.0,-13.0,-16.0,
2094.0,2234.0,-13.0,-15.0,
2040.0,2136.0,-13.0,-15.0,
2081.0,2170.0,-13.0,-15.0,
2205.0,2087.0,-13.0,-15.0,
2116.0,2112.0,-13.0,-15.0,
2072.0,2078.0,-13.0,-15.0,
2058.0,2102.0,-13.0,-15.0,
2012.0,2135.0,-13.0,-14.0,
2019.0,2150.0,-13.0,-14.0,
2033.0,2113.0,-12.0,-14.0,
2074.0,2105.0,-12.0,-15.0,
2094.0,2118.0,-12.0,-15.0,
2100.0,2102.0,-12.0,-15.0,
2116.0,2029.0,-12.0,-16.0,
2169.0,2064.0,-12.0,-17.0,
2112.0,2139.0,-12.0,-17.0,
2007.0,2193.0,-12.0,-17.0,
1966.0,2193.0,-12.0,-17.0,
1956.0,2071.0,-12.0,-16.0,
2021.0,2117.0,-12.0,-16.0,
2180.0,1930.0,-12.0,-15.0,
2093.0,1959.0,-12.0,-15.0,
2104.0,1914.0,-12.0,-15.0,
2072.0,2020.0,-12.0,-15.0,
2057.0,2083.0,-13.0,-14.0,
2042.0,2147.0,-13.0,-13.0,
2070.0,2171.0,-13.0,-14.0,
2044.0,2213.0,-13.0,-15.0,
2062.0,2164.0,-13.0,-16.0,
2074.0,2046.0,-13.0,-17.0,
2204.0,2029.0,-14.0,-16.0,
2169.0,2040.0,-14.0,-16.0,
2069.0,2092.0,-14.0,-15.0,
2002.0,2265.0,-14.0,-15.0,
1972.0,2125.0,-15.0,-15.0,
2107.0,2066.0,-15.0,-15.0,
2070.0,2113.0,-15.0,-15.0,
2067.0,2161.0,-16.0,-14.0,
2090.0,2001.0,-16.0,-13.0,
2091.0,1998.0,-16.0,-13.0,
2100.0,2147.0,-16.0,-14.0,
2070.0,2101.0,-17.0,-16.0,
2097.0,2015.0,-17.0,-17.0,
2140.0,2046.0,-17.0,-17.0,
1968.0,2138.0,-17.0,-16.0,
1905.0,2125.0,0,
2002.0,2095.0,-17.0,-15.0,
2069.0,2087.0,-17.0,-15.0,
2217.0,2135.0,-17.0,-15.0,
2150.0,2125.0,-17.0,-15.0,
2061.0,2031.0,-17.0,-15.0,
2040.0,2024.0,-17.0,-14.0,
2032.0,2068.0,-17.0,-14.0,
1977.0,2109.0,-17.0,-14.0,
2058.0,2138.0,-17.0,-15.0,
2167.0,2078.0,-17.0,-16.0,
2135.0,2132.0,-17.0,-16.0,
2167.0,2118.0,-17.0,-16.0,
2088.0,2045.0,-16.0,-16.0,
2029.0,2090.0,-16.0,-16.0,
2019.0,2103.0,-16.0,-16.0,
1909.0,2238.0,-16.0,-16.0,
2058.0,2094.0,-16.0,-16.0,
2329.0,2076.0,-16.0,-16.0,
2029.0,2053.0,-16.0,-17.0,
1935.0,2119.0,-15.0,-17.0,
2111.0,2180.0,-15.0,-17.0,
2134.0,2113.0,-15.0,-17.0,
2074.0,2044.0,-15.0,-16.0,
2075.0,2004.0,-15.0,-16.0,
2023.0,1996.0,-15.0,-16.0,
2038.0,2064.0,-15.0,-16.0,
2158.0,2099.0,-15.0,-16.0,
2114.0,2078.0,-15.0,-15.0,
2075.0,2200.0,-15.0,-15.0,
2022.0,1983.0,-15.0,-14.0,
2094.0,2086.0,-15.0,-14.0,
2080.0,2070.0,-15.0,-15.0,
2099.0,2307.0,-15.0,-16.0,
1998.0,2187.0,-15.0,-16.0,
2061.0,2020.0,-15.0,-16.0,
2100.0,1942.0,-15.0,-16.0,
1975.0,2049.0,-15.0,-16.0,
1969.0,1981.0,-15.0,-17.0,
1942.0,2028.0,-15.0,-18.0,
2004.0,2055.0,-15.0,-18.0,
2215.0,2252.0,-15.0,-17.0,
2023.0,2144.0,-15.0,-16.0,
2043.0,2070.0,-16.0,-16.0,
2238.0,2091.0,-16.0,-16.0,
2127.0,2188.0,-16.0,-16.0,
2079.0,2031.0,-16.0,-16.0,
2077.0,2078.0,-16.0,-15.0,
2090.0,2115.0,-16.0,-14.0,
2145.0,2139.0,-17.0,-13.0,
2054.0,2095.0,-17.0,-14.0,
2024.0,2073.0,-17.0,-14.0,
2021.0,2073.0,-17.0,-15.0,
1970.0,2060.0,-17.0,-17.0,
2098.0,2050.0,-17.0,-17.0,
2274.0,2050.0,-17.0,-17.0,
2109.0,2147.0,-17.0,-17.0,
2013.0,2109.0,-17.0,-16.0,
2045.0,2181.0,-17.0,-16.0,
2114.0,2245.0,-17.0,-15.0,
1997.0,2081.0,-18.0,-15.0,
2052.0,2075.0,-18.0,-15.0,
2124.0,2081.0,-18.0,-15.0,
2026.0,2041.0,-18.0,-14.0,
2037.0,2206.0,-18.0,-14.0,
1948.0,2027.0,-19.0,-14.0,
2013.0,2054.0,-19.0,-15.0,
2087.0,1994.0,-19.0,-15.0,
2188.0,2059.0,-19.0,-16.0,
2032.0,2043.0,-19.0,-16.0,
1990.0,2040.0,-19.0,-16.0,
2065.0,2081.0,-19.0,-17.0,
2079.0,2088.0,-19.0,-18.0,
2059.0,2063.0,-19.0,-17.0,
2084.0,2038.0,-19.0,-17.0,
2024.0,2162.0,-19.0,-16.0,
2089.0,2249.0,-19.0,-16.0,
2061.0,2076.0,-19.0,-16.0,
2221.0,1884.0,-19.0,-16.0,
2039.0,2055.0,-19.0,-16.0,
1991.0,2097.0,-19.0,-16.0,
1968.0,2072.0,-19.0,-15.0,
2007.0,2155.0,-19.0,-15.0,
2026.0,2093.0,-19.0,-15.0,
2168.0,2089.0,-19.0,-15.0,
2195.0,2064.0,-19.0,-16.0,
2085.0,2062.0,-19.0,-16.0,
2142.0,2126.0,-19.0,-16.0,
2062.0,2058.0,-19.0,-16.0,
2106.0,2028.0,-19.0,-16.0,
2112.0,2170.0,-19.0,-16.0,
2219.0,2291.0,-19.0,-17.0,
2118.0,2072.0,-18.0,-16.0,
1971.0,2061.0,-18.0,-16.0,
2049.0,2164.0,-18.0,-16.0,
2015.0,2205.0,-18.0,-16.0,
2022.0,1983.0,-18.0,-16.0,
2037.0,2175.0,-18.0,-18.0,
1997.0,2155.0,-18.0,-19.0,
2080.0,1952.0,-18.0,-18.0,
2125.0,2199.0,-18.0,-17.0,
2133.0,1937.0,-18.0,-16.0,
2118.0,2058.0,-18.0,-16.0,
2072.0,2112.0,-19.0,-16.0,
2007.0,2035.0,-19.0,-16.0,
1993.0,2034.0,-19.0,-16.0,
2030.0,2110.0,-19.0,-16.0,
2054.0,2118.0,-19.0,-14.0,
2025.0,2156.0,-19.0,-14.0,
2102.0,2058.0,-19.0,-15.0,
2008.0,2048.0,-19.0,-16.0,
2065.0,2006.0,-19.0,-18.0,
2050.0,1974.0,-19.0,-18.0,
2096.0,2089.0,-19.0,-18.0,
2214.0,2061.0,-19.0,-17.0,
2145.0,2236.0,-19.0,-17.0,
2045.0,2248.0,-19.0,-16.0,
2033.0,2323.0,-19.0,-16.0,
2117.0,1989.0,-20.0,-16.0,
2022.0,2061.0,-20.0,-16.0,
2001.0,2003.0,-20.0,-15.0,
2173.0,1996.0,-21.0,-15.0,
2089.0,2146.0,-21.0,-15.0,
2041.0,2089.0,-21.0,-15.0,
2044.0,2095.0,-21.0,-17.0,
2050.0,2067.0,-21.0,-18.0,
2014.0,2145.0,-21.0,-18.0,
1924.0,2097.0,-22.0,-18.0,
2036.0,2026.0,-22.0,-17.0,
2056.0,2010.0,-22.0,-17.0,
2089.0,2132.0,-22.0,-17.0,
2001.0,2165.0,-23.0,-17.0,
2047.0,2181.0,-23.0,-17.0,
2183.0,2070.0,-23.0,-16.0,
2036.0,2082.0,-23.0,-15.0,
2091.0,2047.0,-23.0,-15.0,
2146.0,1976.0,0,
2165.0,2019.0,-23.0,-15.0,
2083.0,2137.0,-23.0,-16.0,
1945.0,2178.0,-22.0,-16.0,
1930.0,2133.0,-22.0,-16.0,
2018.0,2050.0,-22.0,-16.0,
2322.0,2061.0,-22.0,-16.0,
2217.0,2165.0,-22.0,-16.0,
2110.0,2234.0,-22.0,-16.0,
2078.0,2125.0,-21.0,-16.0,
2128.0,2206.0,-21.0,-16.0,
2101.0,2092.0,-21.0,-16.0,
2138.0,1908.0,-21.0,-16.0,
2269.0,1977.0,-21.0,-16.0,
2096.0,2073.0,-21.0,-16.0,
1859.0,2164.0,-21.0,-17.0,
1902.0,2182.0,-21.0,-17.0,
2014.0,2149.0,-21.0,-17.0,
1977.0,1987.0,-20.0,-19.0,
1991.0,2111.0,-20.0,-20.0,
1954.0,1933.0,-20.0,-19.0,
2144.0,2082.0,-20.0,-19.0,
2302.0,2076.0,-20.0,-18.0,
2100.0,2067.0,-20.0,-17.0,
1997.0,2229.0,-20.0,-18.0,
1958.0,2123.0,-20.0,-18.0,
2159.0,2003.0,-20.0,-18.0,
2175.0,1978.0,-20.0,-18.0,
2074.0,2115.0,-20.0,-16.0,
2056.0,2020.0,-21.0,-14.0,
2110.0,2150.0,-21.0,-15.0,
2027.0,1939.0,-21.0,-16.0,
1946.0,1989.0,-21.0,-17.0,
2111.0,2146.0,-20.0,-17.0,
1976.0,2049.0,-20.0,-17.0,
2015.0,2117.0,-20.0,-17.0,
1980.0,2184.0,-21.0,-17.0,
1996.0,2209.0,-21.0,-17.0,
2103.0,2224.0,-21.0,-17.0,
2126.0,2110.0,-21.0,-17.0,
2011.0,2115.0,-21.0,-17.0,
1936.0,2056.0,-21.0,-17.0,
1929.0,2092.0,-21.0,-17.0,
2423.0,2151.0,-21.0,-17.0,
2233.0,2064.0,-21.0,-18.0,
2112.0,2056.0,-21.0,-18.0,
2123.0,2091.0,-21.0,-17.0,
2220.0,2128.0,-22.0,-17.0,
2134.0,2081.0,-22.0,-16.0,
2002.0,2077.0,-22.0,-16.0,
2011.0,2080.0,-22.0,-16.0,
2044.0,2142.0,-22.0,-16.0,
1910.0,2037.0,-22.0,-16.0,
1959.0,2164.0,-22.0,-15.0,
2012.0,2284.0,-23.0,-14.0,
2140.0,2000.0,-23.0,-14.0,
2189.0,2063.0,-23.0,-15.0,
2122.0,2090.0,-23.0,-16.0,
2104.0,1954.0,-23.0,-16.0,
2091.0,2058.0,-23.0,-16.0,
2144.0,2073.0,-23.0,-16.0,
2094.0,2164.0,-23.0,-17.0,
2156.0,2160.0,-23.0,-18.0,
2115.0,1977.0,-22.0,-19.0,
2061.0,2078.0,-22.0,-19.0,
2039.0,2032.0,-22.0,-18.0,
2058.0,1980.0,-22.0,-17.0,
1941.0,2010.0,-22.0,-17.0,
1680.0,2127.0,-22.0,-17.0,
1898.0,2087.0,-22.0,-17.0,
2085.0,2202.0,-22.0,-17.0,
2132.0,2072.0,-22.0,-16.0,
2210.0,2198.0,-22.0,-15.0,
2033.0,2134.0,-23.0,-15.0,
2051.0,2070.0,-23.0,-15.0,
2223.0,2070.0,-23.0,-16.0,
2241.0,2095.0,-22.0,-17.0,
2111.0,2154.0,-22.0,-17.0,
2074.0,2098.0,-22.0,-17.0,
2052.0,2301.0,-22.0,-17.0,
2159.0,2076.0,-22.0,-17.0,
2083.0,2009.0,-22.0,-17.0,
2087.0,1999.0,-22.0,-19.0,
1977.0,2100.0,-22.0,-19.0,
1993.0,2123.0,-22.0,-19.0,
1995.0,2038.0,-22.0,-17.0,
2047.0,2126.0,-22.0,-17.0,
2011.0,2036.0,-23.0,-16.0,
2012.0,1883.0,-23.0,-16.0,
2217.0,2040.0,-23.0,-16.0,
2159.0,2220.0,-23.0,-16.0,
1937.0,2158.0,-23.0,-16.0,
1834.0,2181.0,-23.0,-14.0,
1925.0,2096.0,-24.0,-14.0,
2151.0,2032.0,-23.0,-15.0,
2330.0,2087.0,-23.0,-16.0,
2344.0,2164.0,-23.0,-16.0,
2030.0,2091.0,-23.0,-17.0,
1974.0,2138.0,-23.0,-17.0,
2074.0,2037.0,-23.0,-17.0,
1986.0,2192.0,-23.0,-17.0,
1923.0,2041.0,-23.0,-17.0,
2178.0,2034.0,-23.0,-17.0,
2131.0,2233.0,-23.0,-17.0,
2018.0,1953.0,-23.0,-18.0,
1879.0,2057.0,-23.0,-19.0,
1933.0,2069.0,-23.0,-18.0,
1901.0,2070.0,-23.0,-18.0,
2165.0,1992.0,-23.0,-17.0,
2386.0,2112.0,-23.0,-16.0,
2113.0,2072.0,-24.0,-16.0,
2134.0,2118.0,-24.0,-16.0,
2079.0,2192.0,0,
2150.0,2208.0,-24.0,-16.0,
2036.0,2032.0,-24.0,-15.0,
2070.0,2027.0,-25.0,-14.0,
2067.0,2201.0,-25.0,-15.0,
2020.0,2215.0,-25.0,-15.0,
2039.0,1980.0,-26.0,-16.0,
2066.0,2062.0,-26.0,-17.0,
1903.0,2124.0,-26.0,-17.0,
2044.0,1960.0,-26.0,-17.0,
2217.0,2097.0,-26.0,-17.0,
2122.0,2129.0,-26.0,-17.0,
2091.0,2220.0,-26.0,-16.0,
2139.0,2045.0,-27.0,-16.0,
2193.0,2078.0,-27.0,-17.0,
2161.0,2062.0,-27.0,-17.0,
2071.0,2113.0,-27.0,-17.0,
1901.0,2100.0,-26.0,-17.0,
1951.0,2131.0,-26.0,-17.0,
2001.0,2172.0,-26.0,-17.0,
2016.0,2160.0,-26.0,-17.0,
1982.0,2039.0,-26.0,-17.0,
1998.0,2036.0,-26.0,-17.0,
2157.0,1953.0,-25.0,-17.0,
2007.0,2084.0,-25.0,-17.0,
2303.0,2018.0,-25.0,-17.0,
2139.0,2029.0,-25.0,-17.0,
2041.0,2097.0,-25.0,-17.0,
1968.0,2087.0,-25.0,-17.0,
2076.0,2038.0,-24.0,-17.0,
2204.0,2138.0,-24.0,-17.0,
2146.0,2176.0,-24.0,-17.0,
2020.0,2180.0,-24.0,-17.0,
1940.0,2285.0,-24.0,-17.0,
1839.0,2162.0,-24.0,-17.0,
1980.0,2060.0,-24.0,-17.0,
1981.0,1964.0,-24.0,-17.0,
2267.0,2246.0,-24.0,-17.0,
2408.0,1889.0,-24.0,-17.0,
2249.0,2243.0,-24.0,-17.0,
2136.0,2128.0,-24.0,-17.0,
2007.0,2030.0,-24.0,-17.0,
2078.0,1982.0,-24.0,-17.0,
2115.0,2173.0,-24.0,-17.0,
2098.0,2091.0,-24.0,-17.0,
2080.0,2071.0,-24.0,-17.0,
2038.0,2008.0,-25.0,-17.0,
2019.0,2001.0,-25.0,-17.0,
1999.0,2106.0,-25.0,-17.0,
1998.0,2160.0,-25.0,-17.0,
2212.0,2154.0,-25.0,-17.0,
1988.0,2084.0,-25.0,-17.0,
2010.0,2126.0,-24.0,-17.0,
2001.0,2095.0,-24.0,-17.0,
2020.0,2102.0,-24.0,-17.0,
2216.0,1992.0,-24.0,-17.0,
2133.0,2016.0,-24.0,-17.0,
2109.0,2106.0,-24.0,-17.0,
2037.0,2238.0,-24.0,-17.0,
1989.0,2080.0,-25.0,-17.0,
2024.0,2083.0,-25.0,-17.0,
2208.0,2109.0,-25.0,-17.0,
2123.0,2218.0,-25.0,-17.0,
2116.0,2118.0,-25.0,-16.0,
2083.0,2119.0,-25.0,-16.0,
2000.0,2111.0,-25.0,-16.0,
2014.0,2053.0,-25.0,-17.0,
1993.0,2060.0,-25.0,-17.0,
2009.0,2076.0,-26.0,-17.0,
2102.0,2217.0,-26.0,-16.0,
2172.0,2112.0,-26.0,-16.0,
2101.0,2058.0,-27.0,-16.0,
1833.0,2045.0,-27.0,-16.0,
1938.0,1974.0,-27.0,-16.0,
2075.0,2003.0,-27.0,-16.0,
2173.0,2065.0,-27.0,-16.0,
2071.0,2211.0,-28.0,-16.0,
2122.0,2059.0,-28.0,-16.0,
2159.0,2087.0,-28.0,-16.0,
2166.0,2204.0,-28.0,-17.0,
2000.0,1898.0,-27.0,-17.0,
2107.0,1985.0,-27.0,-17.0,
2097.0,2067.0,-27.0,-17.0,
2150.0,2157.0,-27.0,-17.0,
2041.0,2024.0,-26.0,-17.0,
1967.0,2083.0,-26.0,-17.0,
2144.0,2238.0,-26.0,-17.0,
1943.0,2220.0,-26.0,-17.0,
2073.0,2129.0,-26.0,-17.0,
2066.0,2136.0,-25.0,-17.0,
2050.0,2032.0,-25.0,-17.0,
1962.0,2197.0,-25.0,-17.0,
2189.0,2189.0,-25.0,-17.0,
2170.0,1903.0,-25.0,-17.0,
2082.0,2063.0,-25.0,-17.0,
2061.0,1951.0,-25.0,-17.0,
2082.0,2252.0,-25.0,-17.0,
2130.0,2247.0,-25.0,-17.0,
2060.0,2020.0,-25.0,-17.0,
2002.0,2042.0,-25.0,-17.0,
2100.0,2019.0,-25.0,-17.0,
2017.0,1977.0,-25.0,-17.0,
2057.0,2023.0,-25.0,-17.0,
1999.0,2102.0,-25.0,-17.0,
2055.0,2109.0,-25.0,-18.0,
2136.0,2023.0,-25.0,-18.0,
2062.0,2150.0,-25.0,-18.0,
1969.0,2050.0,-25.0,-18.0,
2044.0,2029.0,-25.0,-18.0,
2152.0,2037.0,-25.0,-18.0,
2029.0,2080.0,-25.0,-18.0,
2123.0,2061.0,-25.0,-18.0,
1989.0,2042.0,-25.0,-18.0,
2027.0,2147.0,-25.0,-18.0,
2109.0,2233.0,-26.0,-18.0,
2111.0,2104.0,-26.0,-18.0,
2002.0,2084.0,-26.0,-17.0,
2114.0,2130.0,-26.0,-17.0,
2093.0,2111.0,-26.0,-17.0,
2152.0,2182.0,-26.0,-17.0,
2216.0,2171.0,-26.0,-17.0,
2159.0,2188.0,-27.0,-17.0,
2088.0,2269.0,-27.0,-17.0,
2172.0,2193.0,-27.0,-17.0,
2087.0,2188.0,-27.0,-17.0,
1902.0,2023.0,-27.0,-17.0,
2213.0,2039.0,-27.0,-17.0,
2039.0,2003.0,-27.0,-17.0,
2038.0,2197.0,-27.0,-17.0,
1991.0,2118.0,-27.0,-17.0,
2103.0,2183.0,-27.0,-17.0,
2027.0,1930.0,-27.0,-17.0,
2119.0,1848.0,-27.0,-17.0,
2036.0,1913.0,-27.0,-17.0,
2041.0,2091.0,-27.0,-17.0,
1957.0,2067.0,-27.0,-17.0,
1914.0,2022.0,-27.0,-17.0,
2113.0,2086.0,-27.0,-16.0,
2122.0,2080.0,-27.0,-16.0,
2089.0,2086.0,-27.0,-17.0,
1968.0,2125.0,-27.0,-17.0,
2061.0,2140.0,-26.0,-17.0,
2197.0,2135.0,-26.0,-17.0,
2007.0,2102.0,-27.0,-17.0,
2079.0,2183.0,-26.0,-17.0,
2382.0,2065.0,-26.0,-16.0,
2203.0,2033.0,-27.0,-17.0,
1935.0,2213.0,-27.0,-17.0,
1907.0,1992.0,-27.0,-17.0,
1989.0,2075.0,-27.0,-16.0,
2153.0,2329.0,-27.0,-16.0,
2017.0,2144.0,-27.0,-16.0,
1819.0,2046.0,-27.0,-16.0,
1820.0,2077.0,-27.0,-16.0,
2162.0,1889.0,-27.0,-16.0,
2189.0,2171.0,-27.0,-16.0,
2135.0,2193.0,-27.0,-16.0,
2051.0,2334.0,-27.0,-17.0,
2103.0,2008.0,-27.0,-17.0,
2262.0,2076.0,-27.0,-17.0,
2172.0,2107.0,-27.0,-17.0,
2098.0,2135.0,-26.0,-17.0,
2172.0,2035.0,-26.0,-17.0,
2049.0,2164.0,-26.0,-17.0,
1957.0,2153.0,-25.0,-17.0,
2027.0,2050.0,-25.0,-17.0,
2026.0,2129.0,-25.0,-17.0,
2213.0,1899.0,-25.0,-17.0,
1991.0,1943.0,-25.0,-17.0,
1922.0,1898.0,-25.0,-17.0,
1955.0,2043.0,-25.0,-17.0,
1962.0,2295.0,-25.0,-17.0,
2237.0,2256.0,-25.0,-17.0,
2299.0,2241.0,-25.0,-17.0,
2040.0,2158.0,-25.0,-17.0,
1974.0,2051.0,-25.0,-17.0,
1962.0,2084.0,-25.0,-17.0,
2213.0,2064.0,-25.0,-17.0,
1951.0,2249.0,-25.0,-17.0,
2092.0,1963.0,-25.0,-17.0,
2070.0,1886.0,-25.0,-17.0,
1839.0,1854.0,-25.0,-17.0,
2181.0,2200.0,-25.0,-17.0,
2323.0,2243.0,-25.0,-17.0,
2258.0,2144.0,-25.0,-17.0,
2032.0,2101.0,-25.0,-17.0,
1964.0,2121.0,-25.0,-17.0,
2019.0,2117.0,-25.0,-17.0,
1992.0,2100.0,-24.0,-17.0,
1860.0,2066.0,-24.0,-17.0,
2029.0,2221.0,-24.0,-17.0,
2301.0,1983.0,-24.0,-17.0,
2225.0,2083.0,-24.0,-17.0,
2036.0,2176.0,-24.0,-17.0,
2158.0,2101.0,-24.0,-17.0,
2131.0,2010.0,-25.0,-17.0,
2065.0,2089.0,-25.0,-17.0,
2183.0,1989.0,-25.0,-17.0,
1925.0,1970.0,-25.0,-17.0,
2029.0,2090.0,-25.0,-16.0,
2082.0,2130.0,-26.0,-17.0,
1961.0,2142.0,-26.0,-17.0,
2029.0,2052.0,-26.0,-16.0,
2018.0,2161.0,-26.0,-17.0,
2177.0,2144.0,-26.0,-16.0,
2068.0,1998.0,-26.0,-16.0,
2142.0,2196.0,-26.0,-16.0,
2073.0,2115.0,-26.0,-16.0,
2082.0,2068.0,-26.0,-16.0,
2062.0,1913.0,-27.0,-16.0,
1986.0,2125.0,-27.0,-16.0,
2013.0,2198.0,-27.0,-16.0,
2077.0,2103.0,-27.0,-16.0,
2062.0,2053.0,-27.0,-16.0,
2006.0,2241.0,-27.0,-16.0,
2166.0,2111.0,-27.0,-16.0,
2051.0,2044.0,-28.0,-16.0,
1995.0,2219.0,-28.0,-16.0,
2038.0,2050.0,-28.0,-16.0,
2090.0,1986.0,-28.0,-16.0,
2047.0,2043.0,-28.0,-16.0,
2103.0,2013.0,-28.0,-16.0,
2086.0,2013.0,-28.0,-16.0,
2185.0,2380.0,-28.0,-17.0,
2101.0,2059.0,-28.0,-17.0,
1995.0,2138.0,-28.0,-17.0,
1946.0,2160.0,-28.0,-17.0,
1830.0,2105.0,-28.0,-17.0,
1845.0,1925.0,-28.0,-17.0,
2120.0,2066.0,-28.0,-17.0,
2104.0,2020.0,-28.0,-17.0,
2076.0,2059.0,-28.0,-17.0,
2390.0,1923.0,-28.0,-17.0,
2540.0,2122.0,-28.0,-17.0,
2276.0,2311.0,-28.0,-17.0,
2131.0,2156.0,-27.0,-17.0,
1987.0,2213.0,-27.0,-17.0,
2022.0,2118.0,-27.0,-17.0,
2064.0,2000.0,-27.0,-17.0,
1969.0,2084.0,-27.0,-17.0,
1979.0,2098.0,-27.0,-17.0,
1919.0,2173.0,-27.0,-17.0,
2144.0,2281.0,-27.0,-17.0,
2201.0,2095.0,-27.0,-17.0,
2054.0,1865.0,-27.0,-17.0,
2041.0,2034.0,-27.0,-17.0,
2116.0,2136.0,-27.0,-17.0,
1946.0,2004.0,-27.0,-17.0,
2032.0,1956.0,-27.0,-17.0,
2126.0,2060.0,-27.0,-17.0,
1928.0,2208.0,-27.0,-17.0,
2128.0,2215.0,-27.0,-17.0,
2192.0,1955.0,-27.0,-17.0,
2214.0,2057.0,-27.0,-17.0,
2044.0,1898.0,-27.0,-17.0,
1967.0,2139.0,-27.0,-17.0,
1871.0,2155.0,-27.0,-17.0,
1943.0,2280.0,-27.0,-17.0,
1875.0,2278.0,-27.0,-17.0,
1971.0,2197.0,-27.0,-17.0,
2164.0,1955.0,-27.0,-17.0,
2192.0,2171.0,-27.0,-17.0,
2111.0,2225.0,-27.0,-17.0,
2316.0,2020.0,-27.0,-17.0,
2156.0,2152.0,-27.0,-17.0,
2053.0,2108.0,-27.0,-17.0,
2038.0,1998.0,-27.0,-17.0,
2074.0,1988.0,-28.0,-17.0,
2112.0,2012.0,-28.0,-17.0,
2110.0,2158.0,-28.0,-17.0,
2040.0,2021.0,-28.0,-17.0,
2057.0,2047.0,-28.0,-17.0,
2188.0,2131.0,-28.0,-17.0,
2161.0,2134.0,-28.0,-17.0,
1992.0,2053.0,-27.0,-17.0,
1882.0,2102.0,-27.0,-17.0,
1886.0,2181.0,-27.0,-17.0,
2033.0,2000.0,-27.0,-17.0,
2338.0,2114.0,-27.0,-17.0,
2304.0,2086.0,-27.0,-17.0,
2045.0,2014.0,-27.0,-17.0,
1915.0,2088.0,-27.0,-17.0,
1989.0,2075.0,-26.0,-17.0,
2115.0,2207.0,-26.0,-17.0,
1967.0,2108.0,-26.0,-17.0,
1944.0,2208.0,-26.0,-17.0,
1936.0,1902.0,-27.0,-17.0,
2465.0,2108.0,-27.0,-17.0,
2128.0,2184.0,-26.0,-17.0,
1943.0,2046.0,-26.0,-17.0,
1992.0,2209.0,-27.0,-17.0,
2216.0,2180.0,-27.0,-17.0,
2140.0,2184.0,-27.0,-17.0,
1967.0,2145.0,-27.0,-17.0,
1954.0,1956.0,-27.0,-17.0,
2025.0,1892.0,-27.0,-17.0,
1993.0,2128.0,-27.0,-17.0,
1859.0,2170.0,-27.0,-17.0,
2004.0,2139.0,-27.0,-17.0,
1920.0,2058.0,-28.0,-17.0,
1672.0,2075.0,-28.0,-17.0,
2297.0,2021.0,-28.0,-17.0,
2410.0,2059.0,-28.0,-17.0,
2495.0,1965.0,-28.0,-17.0,
2351.0,2005.0,-28.0,-17.0,
2089.0,2050.0,-28.0,-17.0,
2010.0,2146.0,-28.0,-17.0,
2024.0,2309.0,-28.0,-17.0,
2022.0,2126.0,-28.0,-17.0,
2163.0,2172.0,-28.0,-17.0,
2109.0,2036.0,-28.0,-17.0,
2080.0,2238.0,-27.0,-17.0,
1977.0,2208.0,-27.0,-17.0,
2073.0,1916.0,-27.0,-17.0,
2128.0,1866.0,-27.0,-17.0,
2205.0,2131.0,-27.0,-17.0,
2163.0,2187.0,-27.0,-17.0,
2008.0,2040.0,-27.0,-17.0,
1901.0,2059.0,-27.0,-17.0,
1943.0,2165.0,-27.0,-17.0,
1956.0,1973.0,-27.0,-16.0,
1853.0,2105.0,-27.0,-16.0,
2013.0,2221.0,-27.0,-16.0,
2180.0,2066.0,-27.0,-16.0,
2050.0,2166.0,-27.0,-16.0,
2105.0,2206.0,-27.0,-16.0,
2048.0,2263.0,-27.0,-16.0,
2016.0,1956.0,-27.0,-16.0,
1939.0,2016.0,-27.0,-16.0,
2202.0,2273.0,-27.0,-16.0,
2238.0,1972.0,-27.0,-17.0,
2078.0,1947.0,-27.0,-17.0,
2023.0,1996.0,-27.0,-17.0,
2181.0,1889.0,-27.0,-17.0,
2075.0,2052.0,-27.0,-17.0,
1880.0,2177.0,-27.0,-17.0,
1972.0,2194.0,-26.0,-17.0,
2095.0,2177.0,-26.0,-17.0,
2028.0,2295.0,-26.0,-17.0,
1937.0,2142.0,-26.0,-17.0,
2002.0,2060.0,-26.0,-17.0,
2164.0,2088.0,-26.0,-17.0,
2077.0,1901.0,-26.0,-17.0,
2072.0,2064.0,-27.0,-17.0,
2243.0,2030.0,-27.0,-17.0,
2242.0,2183.0,-27.0,-17.0,
1934.0,1939.0,-27.0,-17.0,
1881.0,2072.0,-27.0,-17.0,
2252.0,2069.0,-27.0,-17.0,
2411.0,2250.0,-28.0,-17.0,
2044.0,2161.0,-28.0,-17.0,
2046.0,2098.0,-28.0,-17.0,
1987.0,2023.0,-28.0,-16.0,
2210.0,2102.0,-28.0,-16.0,
2146.0,2090.0,-28.0,-17.0,
2026.0,2098.0,-28.0,-16.0,
1965.0,2156.0,-29.0,-17.0,
2041.0,2070.0,-29.0,-17.0,
2062.0,2209.0,-29.0,-17.0,
2165.0,2095.0,-29.0,-17.0,
1967.0,1889.0,-28.0,-17.0,
2033.0,2064.0,-28.0,-17.0,
2008.0,2123.0,-28.0,-17.0,
2097.0,1979.0,-28.0,-17.0,
1968.0,2106.0,-28.0,-17.0,
1967.0,2069.0,-28.0,-17.0,
2088.0,1934.0,-28.0,-17.0,
2161.0,2276.0,-28.0,-17.0,
2023.0,2129.0,-28.0,-17.0,
1971.0,2087.0,-28.0,-17.0,
1880.0,1980.0,-28.0,-17.0,
1880.0,2059.0,-28.0,-17.0,
2101.0,2207.0,-27.0,-17.0,
2248.0,2048.0,-27.0,-17.0,
2405.0,1882.0,-27.0,-17.0,
2173.0,2133.0,-27.0,-17.0,
2136.0,2184.0,-27.0,-17.0,
2049.0,2222.0,-27.0,-17.0,
2078.0,2214.0,-27.0,-17.0,
2047.0,2076.0,-27.0,-17.0,
2107.0,2096.0,-27.0,-17.0,
2079.0,2073.0,-27.0,-17.0,
2036.0,2013.0,-27.0,-17.0,
1792.0,2144.0,-27.0,-17.0,
1821.0,2023.0,-27.0,-17.0,
2075.0,2157.0,-27.0,-17.0,
2274.0,2264.0,-27.0,-17.0,
2085.0,1924.0,-27.0,-17.0,
2220.0,2043.0,-27.0,-17.0,
2315.0,1945.0,-28.0,-17.0,
2072.0,1965.0,-28.0,-17.0,
2054.0,2029.0,-28.0,-17.0,
1871.0,2354.0,-28.0,-17.0,
1728.0,2118.0,-28.0,-17.0,
1962.0,2120.0,-28.0,-17.0,
2475.0,2120.0,-28.0,-17.0,
2316.0,2163.0,-28.0,-17.0,
2287.0,2007.0,-28.0,-17.0,
2064.0,2072.0,-27.0,-17.0,
2232.0,2217.0,-27.0,-17.0,
2098.0,2237.0,-27.0,-17.0,
2020.0,2301.0,-27.0,-17.0,
2008.0,2055.0,-27.0,-17.0,
2026.0,1961.0,-28.0,-17.0,
2043.0,1998.0,-28.0,-17.0,
1964.0,2077.0,-28.0,-17.0,
1992.0,1999.0,-28.0,-17.0,
2026.0,1946.0,-28.0,-17.0,
1981.0,1950.0,-28.0,-17.0,
2044.0,2227.0,-28.0,-16.0,
2077.0,2358.0,-28.0,-16.0,
1999.0,2083.0,-28.0,-16.0,
1895.0,1990.0,-28.0,-16.0,
2109.0,2047.0,-28.0,-16.0,
2152.0,1963.0,-28.0,-17.0,
2225.0,2183.0,-28.0,-17.0,
2119.0,1951.0,-28.0,-17.0,
2002.0,2185.0,-27.0,-17.0,
1754.0,2076.0,-27.0,-17.0,
2154.0,2131.0,-27.0,-17.0,
2247.0,2355.0,-27.0,-17.0,
2018.0,1959.0,-27.0,-17.0,
2133.0,2014.0,-26.0,-17.0,
1934.0,2064.0,-26.0,-17.0,
1817.0,2062.0,-26.0,-17.0,
1899.0,2196.0,-26.0,-17.0,
2095.0,2192.0,-26.0,-17.0,
2290.0,2101.0,-26.0,-17.0,
2175.0,2024.0,-27.0,-17.0,
2069.0,2096.0,-27.0,-17.0,
2275.0,2042.0,-27.0,-17.0,
2223.0,2140.0,-27.0,-17.0,
2073.0,2083.0,-27.0,-17.0,
2009.0,2006.0,-27.0,-17.0,
2018.0,2010.0,-28.0,-17.0,
1935.0,2097.0,-28.0,-17.0,
2187.0,2152.0,-28.0,-17.0,
2290.0,2084.0,-28.0,-17.0,
2302.0,2092.0,-28.0,-17.0,
2100.0,2229.0,-28.0,-17.0,
2027.0,1982.0,-28.0,-17.0,
2023.0,2096.0,-28.0,-17.0,
2142.0,2039.0,-28.0,-17.0,
2004.0,1937.0,-28.0,-17.0,
2050.0,2111.0,-28.0,-17.0,
2069.0,2268.0,-28.0,-17.0,
1851.0,2286.0,-28.0,-17.0,
1797.0,1874.0,0,
1992.0,1922.0,-28.0,-17.0,
2364.0,1956.0,-28.0,-17.0,
2087.0,2138.0,-28.0,-17.0,
1986.0,2219.0,-28.0,-17.0,
2020.0,2102.0,-27.0,-17.0,
2312.0,2137.0,-27.0,-17.0,
2086.0,2269.0,-27.0,-17.0,
1951.0,2231.0,-27.0,-17.0,
2004.0,2086.0,-27.0,-17.0,
2204.0,1932.0,-27.0,-17.0,
2003.0,1941.0,-27.0,-17.0,
1994.0,2175.0,-27.0,-17.0,
2051.0,2243.0,-27.0,-17.0,
2129.0,2231.0,-27.0,-17.0,
2060.0,1769.0,-27.0,-17.0,
1951.0,2286.0,-27.0,-17.0,
1927.0,2220.0,-27.0,-17.0,
1968.0,2116.0,-27.0,-17.0,
2186.0,1734.0,-27.0,-17.0,
2127.0,1914.0,-27.0,-17.0,
2258.0,2039.0,-27.0,-17.0,
2144.0,2158.0,-27.0,-17.0,
2041.0,2143.0,-27.0,-17.0,
1943.0,2039.0,-27.0,-17.0,
2176.0,1958.0,-27.0,-17.0,
2059.0,1960.0,-27.0,-17.0,
2136.0,2192.0,-27.0,-17.0,
2049.0,2237.0,-27.0,-17.0,
2007.0,2209.0,-27.0,-17.0,
2026.0,2169.0,-28.0,-17.0,
2160.0,2243.0,-28.0,-17.0,
2159.0,2184.0,-28.0,-17.0,
2099.0,2130.0,-28.0,-17.0,
2156.0,2202.0,-28.0,-17.0,
2029.0,2088.0,-28.0,-17.0,
2007.0,1927.0,-28.0,-17.0,
1998.0,1947.0,-28.0,-17.0,
2007.0,2021.0,-28.0,-17.0,
2077.0,2145.0,-28.0,-17.0,
2139.0,2215.0,-28.0,-16.0,
2115.0,1908.0,-28.0,-17.0,
1989.0,2027.0,-28.0,-16.0,
2039.0,2134.0,-28.0,-16.0,
1968.0,2222.0,-28.0,-16.0,
2116.0,2180.0,-28.0,-16.0,
1956.0,2098.0,-28.0,-17.0,
2004.0,1966.0,-28.0,-17.0,
2104.0,2039.0,-28.0,-17.0,
2009.0,2078.0,-28.0,-17.0,
2126.0,2141.0,-28.0,-16.0,
2296.0,2183.0,-28.0,-16.0,
1946.0,1955.0,-28.0,-17.0,
2037.0,1846.0,-28.0,-17.0,
2063.0,2113.0,-28.0,-17.0,
2067.0,1888.0,-28.0,-17.0,
2165.0,2050.0,-28.0,-17.0,
2113.0,2323.0,-28.0,-17.0,
2048.0,2214.0,-28.0,-17.0,
2097.0,1965.0,-28.0,-17.0,
2333.0,2006.0,-28.0,-17.0,
2148.0,2219.0,-27.0,-17.0,
1975.0,2191.0,-27.0,-17.0,
2120.0,2292.0,-27.0,-17.0,
2043.0,1966.0,-27.0,-17.0,
1970.0,1957.0,-27.0,-17.0,
1877.0,2199.0,-27.0,-17.0,
2106.0,2210.0,-27.0,-17.0,
2178.0,1861.0,-27.0,-17.0,
1895.0,2025.0,-27.0,-17.0,
2050.0,2263.0,-27.0,-17.0,
2068.0,2180.0,-27.0,-17.0,
1974.0,1902.0,-27.0,-17.0,
2052.0,2049.0,-28.0,-17.0,
2137.0,2210.0,-28.0,-17.0,
2353.0,2095.0,-28.0,-17.0,
2108.0,2195.0,-28.0,-17.0,
2014.0,2270.0,-28.0,-17.0,
1963.0,2171.0,-28.0,-17.0,
1952.0,1940.0,-28.0,-17.0,
2119.0,1988.0,-28.0,-17.0,
2011.0,2149.0,-28.0,-17.0,
2125.0,2069.0,-28.0,-17.0,
2248.0,2138.0,-28.0,-17.0,
2121.0,2121.0,-28.0,-17.0,
2000.0,2060.0,-28.0,-17.0,
1940.0,2006.0,-28.0,-17.0,
2098.0,2100.0,-28.0,-17.0,
2041.0,2146.0,-28.0,-17.0,
2130.0,2200.0,-28.0,-17.0,
2061.0,2188.0,-28.0,-17.0,
2173.0,2205.0,-28.0,-17.0,
2128.0,2025.0,-28.0,-17.0,
1897.0,1935.0,-28.0,-17.0,
1810.0,2103.0,-28.0,-17.0,
1882.0,2049.0,-28.0,-17.0,
2040.0,2151.0,-28.0,-17.0,
2350.0,1935.0,-28.0,-17.0,
2161.0,2051.0,-28.0,-17.0,
2300.0,2052.0,-28.0,-17.0,
2083.0,2062.0,-28.0,-17.0,
1863.0,2042.0,-28.0,-17.0,
1876.0,2218.0,-28.0,-17.0,
2218.0,2006.0,-28.0,-17.0,
2221.0,2165.0,-28.0,-17.0,
2006.0,2055.0,-28.0,-17.0,
1766.0,2026.0,-28.0,-17.0,
2145.0,1954.0,-28.0,-17.0,
2344.0,2081.0,-28.0,-17.0,
2370.0,2103.0,-28.0,-17.0,
2037.0,2211.0,-28.0,-17.0,
2063.0,2278.0,-28.0,-17.0,
2136.0,1892.0,-28.0,-17.0,
1977.0,1984.0,-28.0,-17.0,
1888.0,2050.0,-28.0,-17.0,
2137.0,2241.0,-28.0,-17.0,
1992.0,1936.0,-28.0,-17.0,
2036.0,2194.0,-28.0,-17.0,
1955.0,1984.0,-28.0,-17.0,
2033.0,2061.0,-28.0,-17.0,
2087.0,2215.0,-28.0,-17.0,
2188.0,2180.0,-28.0,-17.0,
2125.0,2148.0,-28.0,-17.0,
2052.0,2018.0,-28.0,-17.0,
1982.0,2065.0,-28.0,-17.0,
2178.0,1916.0,-28.0,-17.0,
2160.0,2095.0,-28.0,-17.0,
2037.0,2061.0,-28.0,-17.0,
2111.0,2141.0,-28.0,-17.0,
2046.0,2121.0,-28.0,-17.0,
2061.0,2172.0,-28.0,-17.0,
1864.0,2060.0,-28.0,-17.0,
2026.0,2107.0,-28.0,-17.0,
2146.0,2293.0,-28.0,-17.0,
2183.0,2086.0,-27.0,-17.0,
2014.0,2070.0,-27.0,-17.0,
1922.0,2049.0,-27.0,-17.0,
2166.0,2086.0,-27.0,-17.0,
2159.0,2055.0,-27.0,-17.0,
2014.0,2071.0,-27.0,-17.0,
2033.0,1914.0,-27.0,-17.0,
2169.0,2392.0,-27.0,-17.0,
2072.0,2191.0,-27.0,-17.0,
2046.0,2139.0,-27.0,-17.0,
2039.0,1886.0,-27.0,-17.0,
2079.0,2083.0,-27.0,-17.0,
2071.0,2345.0,-27.0,-17.0,
2022.0,1964.0,-27.0,-17.0,
1990.0,1838.0,-27.0,-17.0,
2048.0,2016.0,-27.0,-17.0,
1970.0,1986.0,-27.0,-17.0,
2123.0,2209.0,-27.0,-17.0,
2110.0,2220.0,-27.0,-17.0,
2356.0,2183.0,-27.0,-17.0,
2329.0,2005.0,-27.0,-17.0,
2024.0,2031.0,-27.0,-17.0,
1922.0,2114.0,-28.0,-17.0,
2067.0,2091.0,-28.0,-17.0,
2300.0,2270.0,-28.0,-17.0,
2106.0,2096.0,-28.0,-17.0,
2060.0,2215.0,-28.0,-17.0,
1896.0,2020.0,-28.0,-17.0,
1814.0,1854.0,-29.0,-17.0,
2103.0,2071.0,-29.0,-17.0,
2230.0,2170.0,-29.0,-17.0,
2215.0,2108.0,-29.0,-17.0,
1977.0,2077.0,-28.0,-17.0,
1874.0,1995.0,-28.0,-17.0,
2149.0,2069.0,-28.0,-17.0,
2203.0,2012.0,-28.0,-17.0,
2110.0,2197.0,-28.0,-17.0,
1979.0,2070.0,-28.0,-17.0,
1835.0,2240.0,-28.0,-17.0,
1937.0,2371.0,-28.0,-17.0,
2017.0,1990.0,-28.0,-17.0,
2371.0,1875.0,-28.0,-17.0,
2159.0,2149.0,-28.0,-17.0,
1996.0,1994.0,-28.0,-17.0,
2054.0,2133.0,-28.0,-17.0,
2296.0,2038.0,-28.0,-17.0,
2042.0,1940.0,-28.0,-17.0,
2052.0,2216.0,-28.0,-17.0,
2128.0,2087.0,-28.0,-17.0,
2023.0,2044.0,-28.0,-17.0,
2088.0,2129.0,-28.0,-17.0,
2099.0,2279.0,-28.0,-17.0,
1918.0,2008.0,-28.0,-17.0,
2175.0,1985.0,-28.0,-17.0,
2160.0,1878.0,-28.0,-17.0,
1874.0,2111.0,-28.0,-17.0,
2023.0,2145.0,-28.0,-17.0,
2154.0,2108.0,-28.0,-17.0,
1964.0,2051.0,-28.0,-17.0,
2126.0,2203.0,-28.0,-17.0,
2216.0,1997.0,-28.0,-17.0,
2067.0,2016.0,-28.0,-17.0,
1824.0,2166.0,-28.0,-17.0,
1808.0,2201.0,-28.0,-17.0,
2265.0,2064.0,-28.0,-17.0,
2226.0,2183.0,-28.0,-17.0,
1977.0,2086.0,-28.0,-17.0,
2091.0,2161.0,-28.0,-17.0,
2172.0,1954.0,-28.0,-17.0,
2157.0,2060.0,-28.0,-17.0,
2112.0,2000.0,-28.0,-17.0,
2058.0,2127.0,-28.0,-17.0,
1842.0,2097.0,-28.0,-17.0,
1993.0,1998.0,-28.0,-17.0,
2137.0,2192.0,-28.0,-17.0,
2051.0,2093.0,-28.0,-17.0,
1927.0,2309.0,-28.0,-17.0,
1878.0,1926.0,-28.0,-17.0,
2112.0,2096.0,-29.0,-17.0,
2152.0,2077.0,-29.0,-17.0,
2386.0,2101.0,-29.0,-17.0,
2251.0,2084.0,-29.0,-17.0,
2120.0,2090.0,-29.0,-17.0,
2099.0,1983.0,-29.0,-17.0,
2084.0,1981.0,-29.0,-17.0,
1996.0,2174.0,-29.0,-17.0,
2035.0,2168.0,-29.0,-17.0,
1929.0,2272.0,-29.0,-16.0,
2032.0,2125.0,-29.0,-17.0,
1952.0,1959.0,-29.0,-17.0,
2134.0,1630.0,-29.0,-17.0,
2224.0,2199.0,-28.0,-17.0,
2098.0,2126.0,-28.0,-17.0,
2029.0,2118.0,-28.0,-17.0,
2231.0,2107.0,-28.0,-17.0,
1912.0,2300.0,-28.0,-17.0,
1871.0,2236.0,-28.0,-17.0,
2201.0,2062.0,-28.0,-17.0,
2169.0,2070.0,-28.0,-17.0,
2085.0,2293.0,-28.0,-17.0,
2052.0,2004.0,-28.0,-17.0,
2072.0,2016.0,-28.0,-17.0,
2177.0,1966.0,-28.0,-17.0,
2001.0,1904.0,-28.0,-17.0,
2013.0,2130.0,-28.0,-17.0,
1946.0,2110.0,-28.0,-17.0,
2024.0,1770.0,-28.0,-17.0,
1944.0,2104.0,-28.0,-17.0,
2101.0,2313.0,-28.0,-17.0,
2027.0,2106.0,-28.0,-17.0,
2160.0,2174.0,-28.0,-17.0,
2221.0,2162.0,-28.0,-17.0,
2195.0,2190.0,-28.0,-17.0,
1923.0,1988.0,-28.0,-17.0,
2085.0,2185.0,-28.0,-17.0,
1912.0,2122.0,-28.0,-17.0,
2050.0,1958.0,-28.0,-17.0,
2102.0,1988.0,-28.0,-17.0,
2103.0,2093.0,-28.0,-17.0,
2117.0,2073.0,-28.0,-17.0,
2194.0,2063.0,-28.0,-17.0,
2231.0,2145.0,-28.0,-17.0,
2028.0,2055.0,-28.0,-17.0,
1972.0,2188.0,-28.0,-17.0,
2008.0,2413.0,-28.0,-17.0,
2102.0,2048.0,-28.0,-17.0,
2299.0,1945.0,-28.0,-17.0,
2100.0,2033.0,-28.0,-17.0,
1952.0,1981.0,-28.0,-17.0,
1896.0,2141.0,-28.0,-17.0,
1974.0,2053.0,-28.0,-17.0,
2119.0,2115.0,-28.0,-17.0,
2114.0,2020.0,-28.0,-17.0,
2128.0,2190.0,-28.0,-17.0,
1981.0,2277.0,-28.0,-17.0,
2154.0,2067.0,-28.0,-17.0,
2130.0,1871.0,-28.0,-17.0,
1905.0,2112.0,-28.0,-17.0,
1892.0,1920.0,-28.0,-17.0,
1958.0,2001.0,-28.0,-17.0,
2133.0,2132.0,-28.0,-17.0,
2203.0,2237.0,-28.0,-17.0,
2168.0,2169.0,-28.0,-17.0,
2130.0,2114.0,-29.0,-17.0,
2139.0,1991.0,-29.0,-17.0,
2095.0,2230.0,-28.0,-17.0,
1975.0,2103.0,-28.0,-17.0,
1944.0,2089.0,-28.0,-17.0,
2042.0,2114.0,-28.0,-17.0,
2243.0,2089.0,-28.0,-17.0,
2228.0,2042.0,-28.0,-17.0,
2055.0,2095.0,-28.0,-17.0,
1999.0,2034.0,-28.0,-17.0,
1985.0,1976.0,-28.0,-17.0,
2124.0,2183.0,-28.0,-17.0,
2139.0,2253.0,-28.0,-17.0,
2120.0,2052.0,-28.0,-17.0,
2148.0,2135.0,-28.0,-17.0,
1893.0,2124.0,-28.0,-17.0,
1752.0,2066.0,-28.0,-17.0,
2118.0,2135.0,-28.0,-17.0,
2144.0,1975.0,-28.0,-17.0,
2358.0,2053.0,-28.0,-17.0,
2215.0,2141.0,-28.0,-17.0,
2013.0,2194.0,-29.0,-17.0,
1954.0,2192.0,-29.0,-17.0,
1963.0,2249.0,-29.0,-17.0,
2046.0,1998.0,-29.0,-17.0,
2131.0,1970.0,-29.0,-17.0,
2043.0,1998.0,-29.0,-17.0,
1941.0,1998.0,-29.0,-17.0,
2275.0,1979.0,-29.0,-17.0,
2119.0,2185.0,-29.0,-17.0,
2069.0,2286.0,-28.0,-17.0,
2191.0,2074.0,-28.0,-17.0,
2067.0,2172.0,-28.0,-17.0,
1958.0,2005.0,-28.0,-17.0,
1932.0,2057.0,-28.0,-17.0,
1894.0,2178.0,-28.0,-17.0,
2042.0,2224.0,-28.0,-17.0,
2328.0,1951.0,-28.0,-17.0,
2174.0,2119.0,-28.0,-17.0,
2114.0,2073.0,-28.0,-17.0,
2156.0,2047.0,-28.0,-17.0,
2063.0,2165.0,-28.0,-17.0,
1951.0,2095.0,-28.0,-17.0,
1903.0,1938.0,-28.0,-17.0,
1951.0,2131.0,-28.0,-17.0,
2050.0,2099.0,-28.0,-17.0,
2090.0,2145.0,-28.0,-17.0,
2051.0,1955.0,-28.0,-17.0,
2023.0,1969.0,-28.0,-17.0,
2040.0,2053.0,-28.0,-17.0,
2103.0,2144.0,-28.0,-17.0,
2059.0,2114.0,-28.0,-17.0,
2106.0,2170.0,-28.0,-17.0,
2100.0,2168.0,-28.0,-17.0,
2066.0,2112.0,-28.0,-17.0,
2017.0,2068.0,-28.0,-17.0,
1935.0,2186.0,-29.0,-17.0,
1980.0,1989.0,-29.0,-17.0,
2010.0,2062.0,-29.0,-17.0,
2048.0,1982.0,-29.0,-17.0,
2101.0,2098.0,-29.0,-17.0,
2211.0,2133.0,-29.0,-17.0,
2233.0,2078.0,-29.0,-17.0,
2286.0,2201.0,-29.0,-17.0,
2135.0,2237.0,-29.0,-17.0,
2159.0,2073.0,-29.0,-17.0,
2054.0,2078.0,-28.0,-17.0,
2170.0,2048.0,-28.0,-17.0,
2150.0,1974.0,-28.0,-17.0,
1918.0,2025.0,-28.0,-17.0,
1943.0,2003.0,-28.0,-17.0,
1977.0,2173.0,-28.0,-17.0,
2029.0,2215.0,-28.0,-17.0,
2061.0,2045.0,-28.0,-17.0,
2026.0,2102.0,-28.0,-17.0,
2071.0,1970.0,-28.0,-17.0,
2015.0,2063.0,-28.0,-17.0,
2045.0,2140.0,-28.0,-17.0,
2095.0,2120.0,-28.0,-17.0,
2076.0,2141.0,-28.0,-17.0,
2065.0,2172.0,-27.0,-17.0,
2086.0,2193.0,-27.0,-17.0,
2101.0,2072.0,-27.0,-17.0,
2070.0,2112.0,-28.0,-17.0,
2107.0,2116.0,-28.0,-17.0,
2062.0,2132.0,-28.0,-17.0,
2030.0,2135.0,-28.0,-17.0,
2062.0,2123.0,-28.0,-17.0,
2027.0,1912.0,-28.0,-17.0,
2191.0,2028.0,-28.0,-17.0,
2197.0,2058.0,-28.0,-17.0,
2087.0,2073.0,-28.0,-17.0,
1933.0,2135.0,-28.0,-17.0,
2039.0,2154.0,-28.0,-17.0,
2044.0,2007.0,-28.0,-17.0,
2039.0,2041.0,-28.0,-17.0,
2026.0,2033.0,-28.0,-17.0,
2122.0,2048.0,-28.0,-17.0,
2025.0,2059.0,-28.0,-17.0,
2042.0,2083.0,-28.0,-17.0,
2033.0,2098.0,-28.0,-17.0,
2024.0,2059.0,-28.0,-17.0,
1999.0,2239.0,-28.0,-17.0,
1962.0,2118.0,-28.0,-17.0,
2346.0,1857.0,-28.0,-17.0,
1979.0,1944.0,-28.0,-17.0,
2211.0,2101.0,-28.0,-17.0,
2188.0,2066.0,-28.0,-17.0,
2136.0,2030.0,-28.0,-17.0,
2207.0,2134.0,-28.0,-17.0,
2061.0,2325.0,-28.0,-17.0,
2029.0,2139.0,-27.0,-17.0,
2084.0,2163.0,-27.0,-17.0,
2094.0,2141.0,-27.0,-17.0,
2030.0,2116.0,-27.0,-17.0,
2027.0,2067.0,-27.0,-17.0,
2043.0,2049.0,-27.0,-17.0,
2060.0,2103.0,-27.0,-17.0,
2039.0,2081.0,-27.0,-17.0,
2102.0,2084.0,-27.0,-17.0,
2085.0,2169.0,-27.0,-17.0,
2127.0,2136.0,-27.0,-17.0,
2030.0,2100.0,-27.0,-17.0,
2036.0,2073.0,-28.0,-17.0,
2050.0,2117.0,-28.0,-16.0,
2054.0,2155.0,-28.0,-17.0,
2050.0,1898.0,-28.0,-17.0,
2047.0,2047.0,-29.0,-17.0,
2082.0,2132.0,-29.0,-17.0,
2081.0,2166.0,-29.0,-17.0,
2062.0,2051.0,-29.0,-17.0,
2052.0,1902.0,-29.0,-17.0,
2060.0,2092.0,-29.0,-17.0,
2057.0,2134.0,-29.0,-18.0,
2091.0,2095.0,-29.0,-18.0,
2083.0,2049.0,-29.0,-17.0,
2074.0,2133.0,-29.0,-17.0,
2104.0,2345.0,-29.0,-17.0,
2042.0,1912.0,-30.0,-17.0,
2060.0,2050.0,-30.0,-17.0,
2052.0,2063.0,-31.0,-17.0,
2066.0,2088.0,-31.0,-17.0,
2066.0,2049.0,-31.0,-17.0,
2105.0,2086.0,-31.0,-17.0,
2034.0,2061.0,-31.0,-17.0,
2103.0,2071.0,-31.0,-17.0,
2097.0,2147.0,-31.0,-17.0,
2028.0,2065.0,-31.0,-17.0,
2010.0,2094.0,-31.0,-17.0,
2048.0,2085.0,-30.0,-17.0,
2082.0,2098.0,-30.0,-17.0,
2068.0,2076.0,-29.0,-17.0,
2152.0,2134.0,-29.0,-17.0,
2141.0,2137.0,-28.0,-17.0,
2145.0,2016.0,-28.0,-14.0,
2118.0,2013.0,-27.0,-13.0,
2096.0,2021.0,-26.0,-13.0,
2064.0,2036.0,-25.0,-15.0,
2012.0,2263.0,-24.0,-16.0,
2046.0,2094.0,-24.0,-17.0,
2062.0,2134.0,-23.0,-17.0,
2035.0,2101.0,-22.0,-17.0,
2053.0,2081.0,-22.0,-17.0,
2065.0,2133.0,-21.0,-16.0,
2076.0,2121.0,-21.0,-19.0,
2080.0,2108.0,-20.0,-19.0,
2049.0,2102.0,-20.0,-19.0,
2040.0,2046.0,-20.0,-18.0,
2038.0,2048.0,-20.0,-18.0,
2077.0,2084.0,-20.0,-17.0,
2089.0,2086.0,-21.0,-17.0,
2067.0,2080.0,-21.0,-17.0,
2064.0,2105.0,-22.0,-15.0,
2084.0,2096.0,-22.0,-15.0,
2075.0,1997.0,-22.0,-16.0,
2048.0,1979.0,-23.0,-17.0,
2045.0,2173.0,-23.0,-17.0,
2047.0,2104.0,-23.0,-17.0,
2060.0,2137.0,-23.0,-17.0,
2077.0,2141.0,-24.0,-16.0,
2058.0,2097.0,-24.0,-16.0,
2065.0,2084.0,-24.0,-15.0,
2068.0,2093.0,-25.0,-14.0,
2082.0,2108.0,-25.0,-15.0,
2060.0,2072.0,-26.0,-15.0,
2069.0,2057.0,-26.0,-15.0,
2090.0,2086.0,-26.0,-15.0,
2114.0,2051.0,-26.0,-15.0,
2076.0,2066.0,-27.0,-15.0,
2066.0,2107.0,-27.0,-15.0,
2086.0,2099.0,-28.0,-14.0,
2089.0,2107.0,-28.0,-15.0,
2065.0,2138.0,-28.0,-16.0,
2048.0,2128.0,-28.0,-16.0,
2082.0,2081.0,-28.0,-16.0,
2040.0,1989.0,-28.0,-15.0,
2073.0,2071.0,-28.0,-15.0,
2037.0,2053.0,-28.0,-15.0,
2032.0,2051.0,-27.0,-14.0,
2059.0,2110.0,-27.0,-14.0,
2073.0,2126.0,-26.0,-14.0,
2120.0,2191.0,-25.0,-16.0,
2063.0,2060.0,-24.0,-16.0,
2051.0,2032.0,-23.0,-16.0,
2036.0,1968.0,-23.0,-15.0,
2070.0,2016.0,-22.0,-15.0,
2047.0,2105.0,-21.0,-14.0,
2056.0,2150.0,-20.0,-14.0,
2053.0,2059.0,-19.0,-15.0,
2056.0,2044.0,-19.0,-15.0,
2046.0,2056.0,-18.0,-15.0,
2063.0,2171.0,-17.0,-15.0,
2029.0,2221.0,-17.0,-15.0,
2054.0,2187.0,-16.0,-15.0,
2052.0,2045.0,-15.0,-15.0,
2049.0,2050.0,-15.0,-16.0,
2094.0,2109.0,-14.0,-15.0,
2125.0,2071.0,-13.0,-15.0,
2116.0,2034.0,-13.0,-15.0,
2050.0,2070.0,-13.0,-16.0,
2043.0,2184.0,-12.0,-15.0,
2046.0,2090.0,-12.0,-15.0,
2080.0,2066.0,-12.0,-15.0,
2090.0,2088.0,-12.0,-15.0,
2090.0,2121.0,-12.0,-15.0,
2078.0,2092.0,-12.0,-15.0,
2075.0,2027.0,-12.0,-15.0,
2092.0,2059.0,-12.0,-15.0,
2075.0,2054.0,-12.0,-15.0,
2049.0,2050.0,-12.0,-14.0,
2057.0,2094.0,-12.0,-15.0,
2062.0,2107.0,-12.0,-15.0,
2098.0,2143.0,-12.0,-15.0,
2075.0,2148.0,-13.0,-14.0,
2081.0,2108.0,-13.0,-14.0,
2094.0,2120.0,-13.0,-14.0,
2105.0,2104.0,-13.0,-14.0,
2061.0,2062.0,-13.0,-13.0,
2048.0,2081.0,-14.0,-12.0,
2065.0,2117.0,-14.0,-12.0,
2066.0,2064.0,-14.0,-12.0,
2070.0,2089.0,-15.0,-12.0,
2064.0,2076.0,-15.0,-13.0,
2068.0,2093.0,-15.0,-13.0,
2097.0,2132.0,-15.0,-13.0,
2084.0,2183.0,-15.0,-13.0,
2024.0,1985.0,-16.0,-13.0,
2066.0,2036.0,-16.0,-14.0,
2069.0,2077.0,-16.0,-14.0,
2077.0,2095.0,-16.0,-14.0,
2098.0,2115.0,-16.0,-14.0,
2068.0,2127.0,-16.0,-13.0,
2061.0,2064.0,-17.0,-12.0,
2058.0,2056.0,-17.0,-11.0,
2073.0,2027.0,-17.0,-11.0,
2057.0,2058.0,-17.0,-12.0,
2045.0,2052.0,-16.0,-12.0,
2025.0,2090.0,-16.0,-12.0,
2081.0,2150.0,-16.0,-13.0,
2103.0,2169.0,-16.0,-13.0,
2079.0,2222.0,-15.0,-13.0,
2069.0,2073.0,-15.0,-13.0,
2056.0,2030.0,-14.0,-13.0,
2067.0,2102.0,-14.0,-13.0,
2062.0,2090.0,-13.0,-13.0,
2079.0,2100.0,-13.0,-13.0,
2056.0,2052.0,-13.0,-13.0,
2042.0,2091.0,-12.0,-13.0,
2098.0,2231.0,-12.0,-12.0,
2068.0,2155.0,-11.0,-12.0,
2067.0,2134.0,-10.0,-12.0,
2059.0,2153.0,-9.0,-13.0,
2066.0,2159.0,-8.0,-13.0,
2035.0,1988.0,-7.0,-13.0,
2027.0,1981.0,-6.0,-13.0,
2001.0,2024.0,-5.0,-13.0,
2041.0,2045.0,-3.0,-12.0,
2056.0,2050.0,-2.0,-12.0,
2015.0,2045.0,-2.0,-12.0,
2038.0,2095.0,-1.0,-12.0,
2071.0,2041.0,0.0,-12.0,
2073.0,1998.0,0.0,-12.0,
2052.0,2125.0,0.0,-12.0,
2046.0,2136.0,1.0,-12.0,
2056.0,2087.0,2.0,-12.0,
2050.0,2086.0,2.0,-12.0,
2085.0,2087.0,2.0,-12.0,
2063.0,2086.0,3.0,-12.0,
2069.0,2102.0,3.0,-12.0,
2079.0,2142.0,3.0,-12.0,
2100.0,2148.0,3.0,-12.0,
2065.0,2073.0,3.0,-12.0,
2044.0,2080.0,3.0,-12.0,
2057.0,2094.0,3.0,-12.0,
2050.0,2094.0,3.0,-12.0,
2066.0,2100.0,2.0,-12.0,
2052.0,2111.0,2.0,-12.0,
2056.0,2073.0,2.0,-12.0,
2077.0,2093.0,1.0,-12.0,
2098.0,2093.0,1.0,-12.0,
2096.0,2083.0,1.0,-12.0,
2067.0,2084.0,1.0,-12.0,
2046.0,2120.0,0.0,-11.0,
2017.0,2089.0,0.0,-10.0,
2083.0,2159.0,0.0,-10.0,
2101.0,2168.0,0.0,-10.0,
2082.0,2120.0,0.0,-11.0,
2104.0,2092.0,-1.0,-11.0,
2127.0,2092.0,-1.0,-11.0,
2099.0,2133.0,-1.0,-11.0,
2052.0,2116.0,-1.0,-11.0,
2043.0,2061.0,-2.0,-11.0,
2046.0,2034.0,-2.0,-12.0,
2065.0,2003.0,-2.0,-12.0,
2038.0,1969.0,-3.0,-12.0,
2021.0,2059.0,-3.0,-12.0,
2045.0,2114.0,-3.0,-11.0,
2091.0,2138.0,-3.0,-11.0,
2056.0,2029.0,-3.0,-10.0,
2022.0,1984.0,-4.0,-10.0,
2015.0,2087.0,-4.0,-11.0,
2015.0,2185.0,-4.0,-10.0,
2065.0,2185.0,-4.0,-9.0,
2117.0,2167.0,-5.0,-9.0,
2141.0,2111.0,-5.0,-10.0,
2130.0,2114.0,-5.0,-10.0,
2110.0,2083.0,-5.0,-11.0,
2085.0,2066.0,-5.0,-11.0,
2058.0,2115.0,-5.0,-11.0,
2051.0,2113.0,-5.0,-11.0,
2031.0,2077.0,-5.0,-11.0,
2063.0,2095.0,-5.0,-12.0,
2068.0,2075.0,-5.0,-12.0,
2064.0,2107.0,-5.0,-12.0,
2069.0,2106.0,-6.0,-12.0,
2082.0,2076.0,-6.0,-11.0,
2067.0,2066.0,-6.0,-11.0,
2047.0,2072.0,-6.0,-11.0,
2019.0,2003.0,-6.0,-10.0,
2046.0,2022.0,-6.0,-10.0,
2059.0,2079.0,-6.0,-10.0,
2049.0,2044.0,-6.0,-10.0,
2087.0,2091.0,-6.0,-11.0,
2113.0,2099.0,-6.0,-11.0,
2108.0,2099.0,-6.0,-12.0,
2090.0,2122.0,-5.0,-12.0,
2047.0,2072.0,-5.0,-12.0,
2048.0,2029.0,-4.0,-12.0,
2042.0,2094.0,-3.0,-12.0,
2087.0,2128.0,-2.0,-13.0,
2053.0,2117.0,-2.0,-12.0,
2105.0,2111.0,-1.0,-12.0,
2112.0,2094.0,0.0,-12.0,
2085.0,2091.0,0.0,-12.0,
2094.0,2115.0,0.0,-12.0,
2062.0,2072.0,0.0,-12.0,
2037.0,2130.0,1.0,-12.0,
2042.0,2084.0,2.0,-12.0,
2084.0,2049.0,2.0,-12.0,
2065.0,2102.0,2.0,-12.0,
2078.0,2139.0,3.0,-12.0,
2085.0,2164.0,3.0,-12.0,
2096.0,2160.0,3.0,-12.0,
2107.0,2177.0,3.0,-12.0,
2050.0,2106.0,4.0,-11.0,
2036.0,2096.0,5.0,-11.0,
2032.0,2061.0,4.0,-11.0,
2064.0,2059.0,5.0,-11.0,
2038.0,2059.0,5.0,-11.0,
2041.0,2076.0,5.0,-11.0,
2051.0,2094.0,5.0,-12.0,
2079.0,2106.0,5.0,-12.0,
2075.0,2112.0,0,
2046.0,2080.0,5.0,-12.0,
2035.0,2056.0,5.0,-12.0,
2029.0,2031.0,5.0,-11.0,
2053.0,2069.0,5.0,-11.0,
2049.0,2078.0,5.0,-11.0,
2044.0,2088.0,5.0,-11.0,
2070.0,2074.0,4.0,-10.0,
2067.0,2100.0,4.0,-10.0,
2066.0,2089.0,4.0,-10.0,
2036.0,2092.0,4.0,-10.0,
2060.0,2071.0,3.0,-10.0,
2042.0,2059.0,3.0,-10.0,
2066.0,2088.0,3.0,-11.0,
2074.0,2100.0,3.0,-11.0,
2064.0,2101.0,2.0,-11.0,
2082.0,2097.0,2.0,-11.0,
2104.0,2092.0,2.0,-11.0,
2091.0,2074.0,2.0,-11.0,
2061.0,2075.0,1.0,-11.0,
2051.0,2080.0,1.0,-10.0,
2045.0,2142.0,1.0,-10.0,
2076.0,2148.0,1.0,-10.0,
2064.0,2084.0,0.0,-10.0,
2060.0,2093.0,0.0,-10.0,
2091.0,2149.0,0.0,-10.0,
2100.0,2100.0,0.0,-10.0,
2105.0,2093.0,0.0,-10.0,
2062.0,2084.0,0.0,-10.0,
2049.0,2079.0,0.0,-10.0,
2050.0,2083.0,0.0,-10.0,
2074.0,2071.0,0.0,-10.0,
2075.0,2082.0,0.0,-10.0,
2066.0,2060.0,0.0,-10.0,
2069.0,2063.0,0.0,-10.0,
2077.0,2050.0,0.0,-10.0,
2074.0,2043.0,0.0,-11.0,
2042.0,2041.0,0.0,-11.0,
2055.0,2082.0,1.0,-11.0,
2085.0,2126.0,1.0,-11.0,
2102.0,2100.0,1.0,-11.0,
2080.0,2095.0,1.0,-11.0,
2062.0,2095.0,2.0,-11.0,
2075.0,2073.0,2.0,-11.0,
2061.0,2107.0,2.0,-11.0,
2068.0,2115.0,2.0,-11.0,
2077.0,2130.0,2.0,-11.0,
2095.0,2122.0,2.0,-11.0,
2054.0,2060.0,2.0,-11.0,
2067.0,2063.0,2.0,-11.0,
2065.0,2058.0,2.0,-11.0,
2063.0,2108.0,3.0,-11.0,
2092.0,2075.0,3.0,-11.0,
2111.0,2124.0,3.0,-11.0,
2070.0,2143.0,3.0,-11.0,
2059.0,2189.0,3.0,-11.0,
2078.0,2184.0,3.0,-11.0,
2090.0,2136.0,4.0,-11.0,
2103.0,2108.0,4.0,-11.0,
2078.0,2081.0,4.0,-12.0,
2050.0,2040.0,4.0,-12.0,
2070.0,2060.0,4.0,-12.0,
2084.0,2081.0,3.0,-12.0,
2083.0,2054.0,4.0,-12.0,
2063.0,1996.0,4.0,-12.0,
2049.0,2033.0,4.0,-12.0,
2051.0,2094.0,4.0,-12.0,
2066.0,2092.0,4.0,-12.0,
2063.0,2063.0,4.0,-12.0,
2057.0,2066.0,4.0,-12.0,
2054.0,2078.0,4.0,-11.0,
2073.0,2083.0,4.0,-11.0,
2091.0,2082.0,4.0,-11.0,
2034.0,2075.0,4.0,-11.0,
2042.0,2092.0,4.0,-11.0,
2050.0,2080.0,4.0,-11.0,
2071.0,2091.0,4.0,-11.0,
2071.0,2088.0,4.0,-11.0,
2063.0,2090.0,3.0,-11.0,
2068.0,2100.0,3.0,-11.0,
2077.0,2095.0,3.0,-11.0,
2080.0,2093.0,3.0,-11.0,
2056.0,2087.0,3.0,-11.0,
2052.0,2088.0,3.0,-11.0,
2057.0,2068.0,4.0,-11.0,
2092.0,1993.0,4.0,-11.0,
2106.0,1983.0,4.0,-10.0,
2065.0,2162.0,4.0,-11.0,
2048.0,2194.0,4.0,-11.0,
2046.0,2086.0,4.0,-11.0,
2066.0,2131.0,0,
2040.0,2108.0,4.0,-10.0,
2046.0,2160.0,4.0,-11.0,
2066.0,2071.0,4.0,-11.0,
2112.0,2120.0,3.0,-11.0,
2070.0,2075.0,3.0,-11.0,
2044.0,2114.0,3.0,-11.0,
2076.0,2133.0,3.0,-11.0,
2085.0,2144.0,3.0,-11.0,
2107.0,2143.0,2.0,-11.0,
2057.0,2150.0,2.0,-11.0,
2070.0,2148.0,2.0,-11.0,
2065.0,2113.0,2.0,-11.0,
2079.0,2030.0,1.0,-11.0,
2072.0,1989.0,1.0,-11.0,
2053.0,1995.0,2.0,-11.0,
2067.0,2026.0,2.0,-11.0,
2077.0,2141.0,2.0,-11.0,
2111.0,2208.0,2.0,-11.0,
2081.0,2107.0,3.0,-11.0,
2057.0,2058.0,3.0,-11.0,
2047.0,2058.0,3.0,-11.0,
2069.0,2075.0,4.0,-11.0,
2085.0,2076.0,5.0,-11.0,
2090.0,2087.0,5.0,-11.0,
2070.0,2067.0,6.0,-11.0,
2075.0,2067.0,6.0,-11.0,
2075.0,2063.0,7.0,-11.0,
2046.0,2055.0,7.0,-11.0,
2028.0,2057.0,7.0,-11.0,
2038.0,2060.0,8.0,-11.0,
2076.0,2074.0,8.0,-11.0,
2062.0,2075.0,8.0,-11.0,
2048.0,2078.0,8.0,-11.0,
2065.0,2089.0,9.0,-11.0,
2069.0,2082.0,9.0,-11.0,
2079.0,2084.0,9.0,-11.0,
2052.0,2079.0,9.0,-11.0,
2038.0,2077.0,9.0,-11.0,
2048.0,2079.0,9.0,-11.0,
2068.0,2093.0,9.0,-11.0,
2044.0,2097.0,9.0,-11.0,
2067.0,2083.0,9.0,-11.0,
2076.0,2096.0,9.0,-11.0,
2080.0,2098.0,9.0,-11.0,
2082.0,2097.0,9.0,-11.0,
2069.0,2118.0,10.0,-11.0,
2057.0,2083.0,10.0,-11.0,
2047.0,2085.0,10.0,-10.0,
2080.0,2105.0,10.0,-10.0,
2081.0,2096.0,10.0,-10.0,
2066.0,2085.0,10.0,-10.0,
2073.0,2102.0,10.0,-10.0,
2088.0,2142.0,11.0,-10.0,
2097.0,2102.0,11.0,-10.0,
2059.0,2089.0,11.0,-10.0,
2057.0,2083.0,11.0,-10.0,
2054.0,2082.0,11.0,-10.0,
2085.0,2100.0,12.0,-10.0,
2092.0,2085.0,12.0,-10.0,
2084.0,2103.0,12.0,-10.0,
2087.0,2105.0,12.0,-10.0,
2091.0,2106.0,13.0,-10.0,
2109.0,2101.0,13.0,-10.0,
2077.0,2094.0,13.0,-10.0,
2064.0,2088.0,13.0,-10.0,
2058.0,2084.0,13.0,-10.0,
2074.0,2084.0,13.0,-10.0,
2065.0,2060.0,14.0,-10.0,
2057.0,2099.0,14.0,-10.0,
2042.0,2099.0,14.0,-10.0,
2090.0,2081.0,14.0,-10.0,
2118.0,2055.0,13.0,-10.0,
2087.0,2078.0,13.0,-10.0,
2079.0,2078.0,13.0,-10.0,
2052.0,2092.0,13.0,-10.0,
2087.0,2092.0,13.0,-10.0,
2117.0,2083.0,12.0,-10.0,
2070.0,2108.0,12.0,-10.0,
2105.0,2158.0,12.0,-10.0,
2107.0,2173.0,11.0,-10.0,
2113.0,2123.0,11.0,-10.0,
2093.0,2163.0,0,
2067.0,2107.0,10.0,-10.0,
2060.0,2065.0,10.0,-10.0,
2076.0,2039.0,10.0,-10.0,
2096.0,2032.0,10.0,-10.0,
2068.0,2094.0,10.0,-10.0,
2081.0,2089.0,10.0,-10.0,
2078.0,2083.0,9.0,-10.0,
2086.0,2065.0,9.0,-10.0,
2068.0,2058.0,9.0,-11.0,
2057.0,2076.0,9.0,-11.0,
2060.0,2065.0,9.0,-10.0,
2088.0,2075.0,9.0,-10.0,
2095.0,2072.0,9.0,-11.0,
2073.0,2080.0,9.0,-11.0,
2080.0,2080.0,8.0,-11.0,
2086.0,2084.0,8.0,-11.0,
2100.0,2097.0,8.0,-11.0,
2069.0,2090.0,8.0,-11.0,
2062.0,2083.0,8.0,-11.0,
2059.0,2046.0,8.0,-11.0,
2084.0,2085.0,8.0,-11.0,
2116.0,2106.0,8.0,-11.0,
2084.0,2095.0,8.0,-11.0,
2081.0,2087.0,8.0,-11.0,
2092.0,2095.0,8.0,-11.0,
2094.0,2093.0,8.0,-11.0,
2076.0,2097.0,8.0,-11.0,
2049.0,2070.0,7.0,-11.0,
2065.0,2079.0,7.0,-11.0,
2060.0,2085.0,7.0,-11.0,
2082.0,2091.0,7.0,-11.0,
2055.0,2105.0,7.0,-11.0,
2061.0,2087.0,7.0,-11.0,
2071.0,2095.0,0,
2072.0,2098.0,7.0,-11.0,
2071.0,2100.0,7.0,-11.0,
2052.0,2091.0,7.0,-11.0,
2067.0,2086.0,7.0,-11.0,
2069.0,2095.0,7.0,-11.0,
2089.0,2092.0,7.0,-11.0,
2070.0,2080.0,7.0,-11.0,
2066.0,2095.0,7.0,-11.0,
2076.0,2098.0,7.0,-11.0,
2110.0,2093.0,7.0,-11.0,
2065.0,2093.0,7.0,-11.0,
2043.0,2087.0,7.0,-11.0,
2044.0,2079.0,7.0,-11.0,
2056.0,2077.0,7.0,-11.0,
2087.0,2056.0,7.0,-11.0,
2068.0,2082.0,7.0,-11.0,
2079.0,2084.0,7.0,-11.0,
2080.0,2119.0,7.0,-11.0,
2108.0,2167.0,7.0,-11.0,
2090.0,2129.0,7.0,-11.0,
2063.0,2075.0,7.0,-11.0,
2052.0,2052.0,7.0,-11.0,
2059.0,2022.0,7.0,-11.0,
2088.0,2118.0,7.0,-11.0,
2069.0,2102.0,7.0,-11.0,
2063.0,2134.0,7.0,-11.0,
2076.0,2120.0,7.0,-11.0,
2094.0,2077.0,7.0,-11.0,
2064.0,2141.0,7.0,-11.0,
2030.0,2121.0,7.0,-11.0,
2049.0,2094.0,7.0,-11.0,
2081.0,2094.0,7.0,-11.0,
2086.0,2090.0,7.0,-11.0,
2050.0,2067.0,7.0,-11.0,
2061.0,2095.0,7.0,-11.0,
2084.0,2094.0,7.0,-11.0,
2099.0,2071.0,7.0,-11.0,
2065.0,2051.0,7.0,-11.0,
2050.0,2046.0,7.0,-11.0,
2052.0,2048.0,7.0,-11.0,
2064.0,2084.0,7.0,-11.0,
2083.0,2098.0,7.0,-11.0,
2068.0,2107.0,7.0,-11.0,
2089.0,2112.0,7.0,-11.0,
2084.0,2103.0,7.0,-11.0,
2107.0,2100.0,7.0,-11.0,
2087.0,2092.0,7.0,-11.0,
2051.0,2090.0,7.0,-11.0,
2041.0,2087.0,7.0,-11.0,
2067.0,2088.0,7.0,-11.0,
2097.0,2086.0,7.0,-11.0,
2068.0,2083.0,7.0,-11.0,
2075.0,2069.0,7.0,-11.0,
2074.0,2076.0,7.0,-11.0,
2096.0,2104.0,7.0,-11.0,
2071.0,2080.0,7.0,-11.0,
2058.0,2084.0,7.0,-11.0,
2059.0,2070.0,7.0,-11.0,
2053.0,2064.0,7.0,-11.0,
2090.0,2097.0,7.0,-11.0,
2062.0,2132.0,7.0,-11.0,
2072.0,2130.0,7.0,-11.0,
2074.0,2105.0,7.0,-11.0,
2090.0,2103.0,7.0,-11.0,
2064.0,2083.0,7.0,-11.0,
2050.0,2083.0,7.0,-11.0,
2040.0,2089.0,7.0,-11.0,
2049.0,2078.0,7.0,-11.0,
2076.0,2078.0,7.0,-11.0,
2063.0,2088.0,7.0,-11.0,
2057.0,2086.0,7.0,-11.0,
2062.0,2090.0,7.0,-11.0,
2073.0,2086.0,7.0,-11.0,
2047.0,2074.0,7.0,-11.0,
2029.0,2058.0,7.0,-11.0,
2034.0,2063.0,7.0,-11.0,
2066.0,2082.0,7.0,-11.0,
2080.0,2115.0,7.0,-11.0,
2065.0,2120.0,7.0,-11.0,
2069.0,2127.0,7.0,-11.0,
2078.0,2105.0,7.0,-11.0,
2080.0,2104.0,7.0,-11.0,
2081.0,2115.0,7.0,-11.0,
2058.0,2104.0,7.0,-11.0,
2054.0,2081.0,7.0,-11.0,
2071.0,2067.0,7.0,-11.0,
2095.0,2075.0,7.0,-11.0,
2072.0,2069.0,7.0,-11.0,
2066.0,2062.0,8.0,-11.0,
2085.0,2066.0,8.0,-11.0,
2100.0,2101.0,8.0,-11.0,
2076.0,2105.0,8.0,-11.0,
2041.0,2084.0,8.0,-11.0,
2047.0,2072.0,8.0,-11.0,
2047.0,2107.0,8.0,-11.0,
2105.0,2132.0,8.0,-11.0,
2083.0,2112.0,8.0,-11.0,
2087.0,2100.0,0,
2093.0,2089.0,8.0,-11.0,
2081.0,2089.0,8.0,-11.0,
2068.0,2084.0,8.0,-11.0,
2046.0,2084.0,8.0,-11.0,
2038.0,2094.0,7.0,-11.0,
2042.0,2099.0,7.0,-11.0,
2094.0,2076.0,7.0,-11.0,
2075.0,2069.0,7.0,-11.0,
2080.0,2052.0,7.0,-11.0,
2083.0,2063.0,7.0,-11.0,
2133.0,2065.0,7.0,-11.0,
2085.0,2104.0,7.0,-11.0,
2049.0,2163.0,7.0,-11.0,
2069.0,2158.0,7.0,-11.0,
2076.0,2114.0,7.0,-11.0,
2094.0,2110.0,7.0,-11.0,
2078.0,2083.0,7.0,-11.0,
2045.0,2083.0,7.0,-11.0,
2065.0,2076.0,7.0,-11.0,
2078.0,2080.0,7.0,-11.0,
2065.0,2071.0,7.0,-11.0,
2037.0,2066.0,7.0,-11.0,
2026.0,2070.0,7.0,-11.0,
2036.0,2020.0,7.0,-12.0,
2068.0,2096.0,7.0,-12.0,
2064.0,2107.0,7.0,-12.0,
2090.0,2125.0,7.0,-11.0,
2085.0,2100.0,0,
2083.0,2124.0,6.0,-11.0,
2087.0,2090.0,6.0,-12.0,
2048.0,2118.0,6.0,-12.0,
2055.0,2101.0,6.0,-12.0,
2059.0,2094.0,6.0,-12.0,
2089.0,2089.0,6.0,-12.0,
2075.0,2085.0,6.0,-12.0,
2072.0,2083.0,6.0,-12.0,
2082.0,2086.0,6.0,-12.0,
2087.0,2099.0,6.0,-12.0,
2089.0,2090.0,6.0,-11.0,
2049.0,2087.0,6.0,-11.0,
2041.0,2080.0,6.0,-11.0,
2041.0,2085.0,6.0,-11.0,
2063.0,2080.0,6.0,-11.0,
2054.0,2070.0,6.0,-11.0,
2055.0,2067.0,6.0,-11.0,
2060.0,2092.0,6.0,-11.0,
2092.0,2091.0,6.0,-11.0,
2089.0,2096.0,7.0,-11.0,
2055.0,2112.0,7.0,-11.0,
2072.0,2110.0,7.0,-11.0,
2064.0,2084.0,7.0,-11.0,
2091.0,2117.0,7.0,-11.0,
2090.0,2105.0,7.0,-11.0,
2087.0,2099.0,7.0,-11.0,
2091.0,2081.0,7.0,-11.0,
2089.0,2079.0,7.0,-11.0,
2088.0,2080.0,7.0,-11.0,
2046.0,2087.0,7.0,-11.0,
2058.0,2089.0,7.0,-11.0,
2065.0,2079.0,7.0,-11.0,
2084.0,2090.0,7.0,-11.0,
2061.0,2076.0,7.0,-11.0,
2057.0,2062.0,7.0,-11.0,
2078.0,2070.0,7.0,-11.0,
2092.0,2101.0,7.0,-11.0,
2096.0,2109.0,7.0,-11.0,
2048.0,2106.0,7.0,-11.0,
2046.0,2110.0,7.0,-11.0,
2042.0,2088.0,7.0,-11.0,
2081.0,2095.0,7.0,-11.0,
2055.0,2085.0,7.0,-11.0,
2064.0,2101.0,7.0,-11.0,
2070.0,2102.0,7.0,-11.0,
2075.0,2096.0,7.0,-11.0,
2077.0,2090.0,7.0,-11.0,
2040.0,2077.0,7.0,-11.0,
2040.0,2062.0,7.0,-11.0,
2054.0,2069.0,7.0,-11.0,
2072.0,2084.0,7.0,-11.0,
2071.0,2075.0,7.0,-11.0,
2067.0,2085.0,7.0,-11.0,
2074.0,2093.0,7.0,-11.0,
2087.0,2097.0,7.0,-11.0,
2087.0,2082.0,7.0,-11.0,
2059.0,2069.0,7.0,-11.0,
2039.0,2065.0,7.0,-11.0,
2069.0,2063.0,7.0,-11.0,
2100.0,2099.0,7.0,-11.0,
2095.0,2126.0,7.0,-11.0,
2085.0,2145.0,7.0,-11.0,
2092.0,2175.0,7.0,-11.0,
2108.0,2133.0,7.0,-11.0,
2094.0,2107.0,7.0,-11.0,
2067.0,2087.0,7.0,-11.0,
2050.0,2089.0,7.0,-11.0,
2046.0,2076.0,7.0,-11.0,
2076.0,2070.0,7.0,-11.0,
2072.0,2065.0,6.0,-11.0,
2058.0,2076.0,6.0,-11.0,
2074.0,2081.0,6.0,-11.0,
2091.0,2098.0,6.0,-11.0,
2094.0,2077.0,6.0,-11.0,
2050.0,2102.0,6.0,-11.0,
2048.0,2086.0,6.0,-11.0,
2066.0,2089.0,6.0,-11.0,
2092.0,2083.0,6.0,-11.0,
2076.0,2038.0,6.0,-11.0,
2067.0,2085.0,6.0,-11.0,
2073.0,2087.0,6.0,-11.0,
2098.0,2095.0,6.0,-11.0,
2099.0,2094.0,6.0,-11.0,
2058.0,2083.0,6.0,-11.0,
2039.0,2091.0,6.0,-11.0,
2052.0,2095.0,6.0,-11.0,
2085.0,2083.0,6.0,-11.0,
2062.0,2076.0,6.0,-11.0,
2062.0,2094.0,6.0,-11.0,
2068.0,2127.0,6.0,-11.0,
2151.0,2103.0,6.0,-11.0,
2096.0,2124.0,6.0,-11.0,
2058.0,2099.0,6.0,-11.0,
2051.0,2087.0,6.0,-11.0,
2056.0,2083.0,6.0,-11.0,
2081.0,2079.0,6.0,-11.0,
2062.0,2095.0,6.0,-11.0,
2053.0,2084.0,6.0,-11.0,
2061.0,2051.0,6.0,-11.0,
2072.0,2085.0,6.0,-11.0,
2083.0,2112.0,6.0,-11.0,
2060.0,2095.0,6.0,-11.0,
2050.0,2118.0,6.0,-11.0,
2043.0,2098.0,6.0,-11.0,
2083.0,2099.0,6.0,-11.0,
2073.0,2087.0,6.0,-11.0,
2065.0,2079.0,6.0,-11.0,
2067.0,2072.0,6.0,-11.0,
2082.0,2082.0,6.0,-11.0,
2078.0,2083.0,6.0,-11.0,
2039.0,2085.0,6.0,-11.0,
2045.0,2092.0,6.0,-11.0,
2051.0,2088.0,6.0,-11.0,
2079.0,2091.0,6.0,-11.0,
2067.0,2094.0,6.0,-11.0,
2055.0,2093.0,6.0,-11.0,
2087.0,2093.0,6.0,-11.0,
2092.0,2119.0,6.0,-11.0,
2091.0,2097.0,6.0,-11.0,
2072.0,2083.0,6.0,-11.0,
2061.0,2092.0,6.0,-11.0,
2055.0,2102.0,6.0,-11.0,
2095.0,2093.0,6.0,-11.0,
2076.0,2104.0,7.0,-11.0,
2064.0,2102.0,6.0,-11.0,
2065.0,2112.0,6.0,-11.0,
2072.0,2104.0,7.0,-11.0,
2103.0,2101.0,6.0,-11.0,
2063.0,2076.0,6.0,-11.0,
2052.0,2081.0,6.0,-11.0,
2062.0,2095.0,6.0,-11.0,
2093.0,2077.0,6.0,-11.0,
2076.0,2076.0,6.0,-11.0,
2081.0,2077.0,6.0,-11.0,
2088.0,2095.0,6.0,-11.0,
2101.0,2101.0,6.0,-11.0,
2087.0,2104.0,6.0,-11.0,
2044.0,2053.0,6.0,-11.0,
2028.0,2054.0,6.0,-11.0,
2038.0,2052.0,6.0,-11.0,
2057.0,2086.0,6.0,-11.0,
2066.0,2082.0,6.0,-11.0,
2087.0,2104.0,6.0,-11.0,
2076.0,2126.0,6.0,-11.0,
2074.0,2133.0,6.0,-11.0,
2103.0,2109.0,6.0,-11.0,
2046.0,2100.0,6.0,-11.0,
2041.0,2097.0,6.0,-11.0,
2055.0,2087.0,6.0,-11.0,
2076.0,2080.0,6.0,-11.0,
2065.0,2076.0,6.0,-11.0,
2054.0,2081.0,6.0,-11.0,
2063.0,2083.0,6.0,-11.0,
2070.0,2083.0,6.0,-11.0,
2087.0,2087.0,6.0,-11.0,
2058.0,2077.0,6.0,-11.0,
2034.0,2076.0,6.0,-11.0,
2042.0,2089.0,6.0,-11.0,
2069.0,2096.0,6.0,-11.0,
2070.0,2075.0,6.0,-11.0,
2063.0,2075.0,6.0,-11.0,
2062.0,2077.0,6.0,-11.0,
2074.0,2105.0,6.0,-11.0,
2090.0,2100.0,6.0,-11.0,
2026.0,2086.0,6.0,-11.0,
2071.0,2098.0,6.0,-11.0,
2070.0,2103.0,6.0,-11.0,
2089.0,2102.0,7.0,-11.0,
2084.0,2082.0,7.0,-11.0,
2086.0,2092.0,7.0,-11.0,
2085.0,2098.0,7.0,-11.0,
2077.0,2101.0,7.0,-11.0,
2098.0,2091.0,7.0,-11.0,
2057.0,2079.0,7.0,-12.0,
2069.0,2093.0,7.0,-12.0,
2064.0,2088.0,6.0,-11.0,
2084.0,2089.0,6.0,-11.0,
2084.0,2096.0,6.0,-11.0,
2070.0,2088.0,6.0,-11.0,
2051.0,2090.0,6.0,-11.0,
2087.0,2096.0,6.0,-11.0,
2098.0,2096.0,6.0,-11.0,
2058.0,2074.0,6.0,-11.0,
2053.0,2069.0,6.0,-11.0,
2058.0,2064.0,6.0,-11.0,
2076.0,2061.0,6.0,-11.0,
2068.0,2064.0,7.0,-11.0,
2061.0,2074.0,7.0,-11.0,
2080.0,2101.0,7.0,-11.0,
2081.0,2131.0,6.0,-11.0,
2094.0,2130.0,6.0,-11.0,
2062.0,2107.0,6.0,-11.0,
2049.0,2094.0,6.0,-11.0,
2059.0,2091.0,6.0,-11.0,
2076.0,2097.0,6.0,-11.0,
2085.0,2085.0,6.0,-11.0,
2075.0,2086.0,6.0,-11.0,
2074.0,2085.0,6.0,-11.0,
2079.0,2106.0,6.0,-11.0,
2091.0,2094.0,6.0,-11.0,
2049.0,2077.0,6.0,-11.0,
2053.0,2077.0,6.0,-11.0,
2047.0,2068.0,6.0,-11.0,
2072.0,2072.0,6.0,-11.0,
2059.0,2083.0,6.0,-11.0,
2048.0,2057.0,6.0,-11.0,
2054.0,2083.0,6.0,-11.0,
2076.0,2146.0,6.0,-11.0,
2095.0,2139.0,6.0,-11.0,
2104.0,2117.0,6.0,-11.0,
2080.0,2121.0,6.0,-11.0,
2091.0,2111.0,6.0,-11.0,
2092.0,2088.0,6.0,-11.0,
2083.0,2098.0,6.0,-11.0,
2068.0,2080.0,6.0,-11.0,
2067.0,2091.0,6.0,-11.0,
2091.0,2078.0,6.0,-11.0,
2083.0,2087.0,6.0,-11.0,
2050.0,2074.0,6.0,-11.0,
2052.0,2074.0,6.0,-11.0,
2064.0,2063.0,6.0,-11.0,
2085.0,2077.0,6.0,-12.0,
2078.0,2068.0,6.0,-11.0,
2061.0,2077.0,6.0,-11.0,
2067.0,2083.0,6.0,-11.0,
2079.0,2088.0,6.0,-11.0,
2071.0,2089.0,6.0,-11.0,
2050.0,2078.0,6.0,-11.0,
2046.0,2053.0,6.0,-11.0,
2040.0,2046.0,6.0,-11.0,
2078.0,2083.0,6.0,-11.0,
2076.0,2131.0,6.0,-11.0,
2072.0,2116.0,6.0,-11.0,
2077.0,2117.0,6.0,-11.0,
2086.0,2088.0,6.0,-11.0,
2087.0,2103.0,6.0,-11.0,
2052.0,2090.0,6.0,-11.0,
2059.0,2084.0,6.0,-11.0,
2059.0,2083.0,6.0,-11.0,
2076.0,2086.0,6.0,-11.0,
2083.0,2082.0,6.0,-11.0,
2073.0,2090.0,6.0,-11.0,
2072.0,2077.0,6.0,-11.0,
2075.0,2088.0,6.0,-11.0,
2079.0,2082.0,6.0,-11.0,
2043.0,2076.0,6.0,-11.0,
2051.0,2072.0,6.0,-11.0,
2046.0,2074.0,6.0,-11.0,
2066.0,2057.0,6.0,-11.0,
2072.0,2031.0,6.0,-11.0,
2054.0,2030.0,6.0,-11.0,
2065.0,2076.0,6.0,-11.0,
2079.0,2141.0,6.0,-11.0,
2094.0,2148.0,6.0,-11.0,
2084.0,2172.0,6.0,-11.0,
2082.0,2149.0,6.0,-11.0,
2068.0,2103.0,6.0,-11.0,
2074.0,2108.0,6.0,-11.0,
2087.0,2112.0,6.0,-11.0,
2074.0,2102.0,6.0,-11.0,
2074.0,2098.0,6.0,-11.0,
2086.0,2100.0,6.0,-11.0,
2084.0,2083.0,6.0,-11.0,
2047.0,2069.0,6.0,-11.0,
2055.0,2067.0,6.0,-11.0,
2045.0,2071.0,6.0,-11.0,
2075.0,2076.0,6.0,-11.0,
2075.0,2079.0,6.0,-11.0,
2057.0,2072.0,6.0,-11.0,
2071.0,2073.0,6.0,-11.0,
2072.0,2080.0,6.0,-11.0,
2085.0,2088.0,6.0,-11.0,
2057.0,2080.0,7.0,-11.0,
2047.0,2073.0,7.0,-11.0,
2061.0,2093.0,7.0,-11.0,
2071.0,2083.0,7.0,-11.0,
2079.0,2088.0,7.0,-11.0,
2070.0,2083.0,7.0,-11.0,
2071.0,2090.0,7.0,-11.0,
2086.0,2095.0,7.0,-11.0,
2097.0,2087.0,7.0,-11.0,
2054.0,2063.0,7.0,-11.0,
2037.0,2067.0,7.0,-11.0,
2041.0,2047.0,7.0,-11.0,
2067.0,2048.0,7.0,-11.0,
2087.0,2088.0,7.0,-11.0,
2069.0,2140.0,7.0,-11.0,
2098.0,2166.0,7.0,-11.0,
2107.0,2132.0,7.0,-11.0,
2122.0,2111.0,7.0,-11.0,
2074.0,2094.0,7.0,-11.0,
2058.0,2085.0,7.0,-11.0,
2060.0,2081.0,6.0,-11.0,
2071.0,2090.0,6.0,-12.0,
2072.0,2093.0,6.0,-12.0,
2059.0,2084.0,6.0,-12.0,
2058.0,2082.0,6.0,-12.0,
2069.0,2085.0,6.0,-12.0,
2077.0,2078.0,6.0,-12.0,
2047.0,2063.0,6.0,-11.0,
2044.0,2075.0,6.0,-11.0,
2050.0,2070.0,6.0,-11.0,
2063.0,2078.0,6.0,-11.0,
2084.0,2088.0,6.0,-11.0,
2083.0,2091.0,6.0,-11.0,
2087.0,2087.0,6.0,-11.0,
2088.0,2085.0,6.0,-11.0,
2091.0,2093.0,6.0,-11.0,
2065.0,2093.0,6.0,-11.0,
2054.0,2079.0,6.0,-11.0,
2046.0,2084.0,6.0,-11.0,
2072.0,2072.0,6.0,-11.0,
2079.0,2064.0,6.0,-11.0,
2062.0,2049.0,6.0,-11.0,
2075.0,2045.0,6.0,-11.0,
2044.0,2071.0,6.0,-11.0,
2075.0,2102.0,6.0,-11.0,
2058.0,2146.0,6.0,-11.0,
2076.0,2160.0,6.0,-11.0,
2077.0,2151.0,6.0,-11.0,
2104.0,2157.0,6.0,-11.0,
2084.0,2115.0,6.0,-11.0,
2066.0,2096.0,6.0,-11.0,
2088.0,2085.0,6.0,-11.0,
2103.0,2108.0,6.0,-11.0,
2097.0,2086.0,0,
2062.0,2077.0,6.0,-11.0,
2040.0,2067.0,6.0,-11.0,
2041.0,2063.0,6.0,-11.0,
2058.0,2071.0,6.0,-11.0,
2069.0,2075.0,6.0,-11.0,
2056.0,2075.0,6.0,-11.0,
2065.0,2077.0,6.0,-12.0,
2081.0,2083.0,6.0,-11.0,
2081.0,2069.0,6.0,-12.0,
2044.0,2077.0,6.0,-12.0,
2042.0,2071.0,6.0,-12.0,
2040.0,2072.0,6.0,-12.0,
2064.0,2078.0,6.0,-12.0,
2072.0,2096.0,6.0,-12.0,
2057.0,2099.0,7.0,-12.0,
2073.0,2090.0,7.0,-12.0,
2083.0,2099.0,7.0,-11.0,
2086.0,2097.0,7.0,-11.0,
2052.0,2083.0,7.0,-11.0,
2044.0,2085.0,7.0,-11.0,
2048.0,2126.0,7.0,-11.0,
2061.0,2079.0,7.0,-11.0,
2071.0,2092.0,7.0,-11.0,
2060.0,2082.0,7.0,-11.0,
2065.0,2096.0,7.0,-11.0,
2083.0,2094.0,7.0,-11.0,
2096.0,2094.0,7.0,-11.0,
2077.0,2090.0,7.0,-11.0,
2063.0,2092.0,7.0,-11.0,
2071.0,2093.0,7.0,-11.0,
2081.0,2078.0,7.0,-11.0,
2080.0,2048.0,7.0,-12.0,
2051.0,2057.0,7.0,-11.0,
2059.0,2080.0,7.0,-11.0,
2062.0,2117.0,7.0,-11.0,
2092.0,2163.0,7.0,-11.0,
2088.0,2154.0,7.0,-11.0,
2077.0,2168.0,7.0,-11.0,
2075.0,2112.0,7.0,-11.0,
2081.0,2101.0,7.0,-11.0,
2085.0,2092.0,7.0,-11.0,
2057.0,2084.0,7.0,-11.0,
2063.0,2081.0,6.0,-11.0,
2077.0,2085.0,6.0,-11.0,
2088.0,2088.0,6.0,-12.0,
2061.0,2068.0,6.0,-12.0,
2055.0,2069.0,6.0,-12.0,
2043.0,2068.0,6.0,-12.0,
2060.0,2079.0,6.0,-12.0,
2079.0,2074.0,6.0,-12.0,
2062.0,2075.0,6.0,-12.0,
2065.0,2081.0,6.0,-12.0,
2087.0,2082.0,6.0,-11.0,
2093.0,2062.0,6.0,-11.0,
2066.0,2068.0,6.0,-11.0,
2055.0,2072.0,6.0,-11.0,
2059.0,2079.0,6.0,-11.0,
2084.0,2106.0,0,
2102.0,2098.0,6.0,-11.0,
2087.0,2105.0,6.0,-11.0,
2081.0,2127.0,6.0,-11.0,
2093.0,2132.0,6.0,-11.0,
2099.0,2107.0,6.0,-11.0,
2068.0,2091.0,6.0,-11.0,
2053.0,2081.0,6.0,-11.0,
2061.0,2071.0,0,
2060.0,2086.0,6.0,-11.0,
2075.0,2087.0,6.0,-11.0,
2075.0,2084.0,6.0,-11.0,
2075.0,2077.0,6.0,-12.0,
2080.0,2091.0,6.0,-12.0,
2088.0,2101.0,6.0,-12.0,
2080.0,2103.0,6.0,-11.0,
2048.0,2093.0,6.0,-11.0,
2053.0,2074.0,6.0,-11.0,
2091.0,2089.0,6.0,-11.0,
2084.0,2079.0,6.0,-11.0,
2060.0,2072.0,6.0,-11.0,
2066.0,2084.0,6.0,-11.0,
2080.0,2096.0,6.0,-11.0,
2090.0,2090.0,6.0,-11.0,
2061.0,2093.0,6.0,-11.0,
2046.0,2089.0,6.0,-11.0,
2040.0,2067.0,6.0,-11.0,
2082.0,2100.0,7.0,-11.0,
2090.0,2082.0,7.0,-11.0,
2064.0,2060.0,7.0,-11.0,
2061.0,2076.0,7.0,-11.0,
2068.0,2078.0,7.0,-11.0,
2093.0,2094.0,6.0,-11.0,
2080.0,2115.0,7.0,-11.0,
2068.0,2126.0,6.0,-11.0,
2073.0,2135.0,6.0,-11.0,
2079.0,2118.0,6.0,-11.0,
2095.0,2107.0,6.0,-11.0,
2066.0,2091.0,6.0,-11.0,
2073.0,2091.0,6.0,-11.0,
2063.0,2096.0,6.0,-11.0,
2087.0,2092.0,6.0,-11.0,
2059.0,2094.0,6.0,-11.0,
2048.0,2084.0,6.0,-11.0,
2044.0,2077.0,6.0,-11.0,
2077.0,2080.0,7.0,-11.0,
2090.0,2087.0,7.0,-11.0,
2075.0,2080.0,7.0,-11.0,
2076.0,2090.0,7.0,-11.0,
2071.0,2088.0,6.0,-11.0,
2086.0,2093.0,6.0,-11.0,
2066.0,2029.0,6.0,-11.0,
2057.0,2073.0,7.0,-11.0,
2045.0,2070.0,7.0,-11.0,
2066.0,2081.0,7.0,-11.0,
2089.0,2096.0,6.0,-11.0,
2058.0,2085.0,7.0,-11.0,
2078.0,2092.0,7.0,-12.0,
2081.0,2080.0,6.0,-12.0,
2085.0,2098.0,7.0,-12.0,
2072.0,2110.0,7.0,-12.0,
2073.0,2102.0,6.0,-11.0,
2051.0,2088.0,6.0,-12.0,
2066.0,2092.0,6.0,-12.0,
2091.0,2092.0,7.0,-12.0,
2066.0,2085.0,6.0,-11.0,
2071.0,2085.0,6.0,-12.0,
2080.0,2090.0,6.0,-11.0,
2082.0,2103.0,6.0,-11.0,
2062.0,2079.0,6.0,-11.0,
2038.0,2080.0,6.0,-11.0,
2033.0,2079.0,6.0,-11.0,
2064.0,2087.0,6.0,-11.0,
2083.0,2099.0,6.0,-11.0,
2077.0,2099.0,6.0,-11.0,
2070.0,2089.0,6.0,-11.0,
2083.0,2094.0,6.0,-11.0,
2090.0,2094.0,6.0,-11.0,
2071.0,2074.0,6.0,-11.0,
2037.0,2074.0,6.0,-11.0,
2053.0,2071.0,6.0,-11.0,
2063.0,2083.0,6.0,-11.0,
2067.0,2098.0,6.0,-11.0,
2068.0,2094.0,6.0,-11.0,
2086.0,2118.0,6.0,-11.0,
2091.0,2105.0,6.0,-11.0,
2106.0,2099.0,6.0,-12.0,
2082.0,2082.0,6.0,-12.0,
2056.0,2109.0,6.0,-12.0,
2063.0,2118.0,6.0,-12.0,
2068.0,2096.0,6.0,-12.0,
2094.0,2091.0,6.0,-12.0,
2058.0,2104.0,6.0,-12.0,
2084.0,2069.0,6.0,-12.0,
2086.0,2116.0,6.0,-12.0,
2083.0,2102.0,6.0,-12.0,
2071.0,2092.0,6.0,-12.0,
2054.0,2075.0,6.0,-12.0,
2036.0,2053.0,6.0,-12.0,
2053.0,2081.0,6.0,-12.0,
2083.0,2086.0,6.0,-12.0,
2057.0,2083.0,6.0,-12.0,
2062.0,2079.0,6.0,-12.0,
2070.0,2081.0,6.0,-12.0,
2084.0,2104.0,6.0,-12.0,
2086.0,2088.0,6.0,-11.0,
2066.0,2082.0,6.0,-11.0,
2055.0,2087.0,6.0,-11.0,
2069.0,2085.0,6.0,-11.0,
2083.0,2083.0,6.0,-11.0,
2067.0,2090.0,6.0,-11.0,
2069.0,2081.0,6.0,-11.0,
2077.0,2095.0,6.0,-11.0,
2091.0,2114.0,6.0,-11.0,
2069.0,2092.0,6.0,-11.0,
2052.0,2073.0,6.0,-11.0,
2049.0,2071.0,6.0,-11.0,
2055.0,2082.0,6.0,-11.0,
2079.0,2087.0,6.0,-11.0,
2074.0,2081.0,6.0,-11.0,
2071.0,2083.0,7.0,-11.0,
2068.0,2088.0,7.0,-11.0,
2079.0,2091.0,6.0,-11.0,
2075.0,2083.0,7.0,-11.0,
2055.0,2116.0,7.0,-11.0,
2054.0,2084.0,6.0,-11.0,
2070.0,2079.0,6.0,-11.0,
2082.0,2095.0,6.0,-11.0,
2064.0,2083.0,6.0,-11.0,
2068.0,2093.0,6.0,-11.0,
2073.0,2092.0,6.0,-12.0,
2092.0,2090.0,6.0,-12.0,
2075.0,2093.0,6.0,-12.0,
2060.0,2101.0,6.0,-12.0,
2054.0,2090.0,6.0,-12.0,
2053.0,2084.0,6.0,-12.0,
2077.0,2093.0,6.0,-12.0,
2063.0,2086.0,6.0,-12.0,
2071.0,2095.0,6.0,-12.0,
2082.0,2100.0,6.0,-11.0,
2088.0,2108.0,6.0,-11.0,
2076.0,2094.0,6.0,-11.0,
2045.0,2088.0,6.0,-11.0,
2054.0,2084.0,6.0,-11.0,
2064.0,2090.0,6.0,-11.0,
2083.0,2099.0,6.0,-11.0,
2073.0,2089.0,6.0,-11.0,
2068.0,2087.0,6.0,-12.0,
2086.0,2088.0,6.0,-11.0,
2097.0,2096.0,6.0,-11.0,
2077.0,2088.0,6.0,-11.0,
2054.0,2084.0,6.0,-11.0,
2054.0,2081.0,6.0,-11.0,
2039.0,2088.0,6.0,-11.0,
2087.0,2084.0,6.0,-11.0,
2068.0,2085.0,6.0,-11.0,
2072.0,2085.0,6.0,-11.0,
2075.0,2098.0,6.0,-11.0,
2087.0,2092.0,6.0,-11.0,
2078.0,2083.0,6.0,-11.0,
2052.0,2079.0,6.0,-11.0,
2042.0,2086.0,6.0,-11.0,
2050.0,2076.0,6.0,-11.0,
2073.0,2085.0,6.0,-11.0,
2069.0,2073.0,6.0,-11.0,
2059.0,2069.0,6.0,-11.0,
2067.0,2098.0,6.0,-11.0,
2069.0,2092.0,6.0,-12.0,
2074.0,2077.0,6.0,-12.0,
2044.0,2083.0,6.0,-12.0,
2056.0,2085.0,6.0,-12.0,
2070.0,2092.0,6.0,-12.0,
2077.0,2096.0,6.0,-12.0,
2068.0,2079.0,6.0,-12.0,
2054.0,2075.0,6.0,-12.0,
2072.0,2067.0,6.0,-12.0,
2078.0,2078.0,6.0,-11.0,
2072.0,2089.0,6.0,-11.0,
2053.0,2099.0,6.0,-11.0,
2057.0,2129.0,6.0,-11.0,
2087.0,2123.0,6.0,-11.0,
2133.0,2099.0,6.0,-11.0,
2085.0,2089.0,6.0,-11.0,
2070.0,2076.0,6.0,-11.0,
2074.0,2083.0,6.0,-12.0,
2086.0,2099.0,6.0,-11.0,
2076.0,2088.0,6.0,-11.0,
2051.0,2099.0,6.0,-12.0,
2049.0,2122.0,6.0,-11.0,
2044.0,2103.0,6.0,-12.0,
2073.0,2103.0,6.0,-12.0,
2048.0,2094.0,6.0,-12.0,
2052.0,2100.0,6.0,-12.0,
2075.0,2087.0,6.0,-12.0,
2104.0,2082.0,6.0,-12.0,
2091.0,2080.0,6.0,-12.0,
2056.0,2076.0,6.0,-12.0,
2054.0,2063.0,6.0,-12.0,
2061.0,2083.0,6.0,-12.0,
2077.0,2106.0,6.0,-12.0,
2065.0,2069.0,6.0,-12.0,
2068.0,2085.0,6.0,-12.0,
2076.0,2100.0,6.0,-12.0,
2086.0,2092.0,6.0,-11.0,
2077.0,2086.0,6.0,-12.0,
2050.0,2079.0,6.0,-11.0,
2047.0,2072.0,6.0,-11.0,
2046.0,2084.0,6.0,-11.0,
2082.0,2084.0,6.0,-11.0,
2061.0,2081.0,6.0,-12.0,
2064.0,2075.0,6.0,-12.0,
2086.0,2086.0,6.0,-12.0,
2077.0,2088.0,6.0,-12.0,
2075.0,2078.0,6.0,-12.0,
2045.0,2072.0,6.0,-12.0,
2059.0,2084.0,6.0,-12.0,
2055.0,2131.0,6.0,-12.0,
2086.0,2111.0,6.0,-12.0,
2073.0,2097.0,6.0,-12.0,
2062.0,2096.0,6.0,-12.0,
2074.0,2117.0,6.0,-12.0,
2087.0,2099.0,6.0,-12.0,
2084.0,2097.0,6.0,-12.0,
2061.0,2090.0,6.0,-12.0,
2058.0,2087.0,6.0,-12.0,
2060.0,2080.0,6.0,-12.0,
2084.0,2086.0,6.0,-12.0,
2073.0,2090.0,6.0,-12.0,
2067.0,2085.0,6.0,-12.0,
2062.0,2095.0,6.0,-12.0,
2088.0,2103.0,6.0,-12.0,
2077.0,2095.0,6.0,-12.0,
2049.0,2088.0,6.0,-12.0,
2045.0,2078.0,6.0,-12.0,
2047.0,2078.0,6.0,-12.0,
2108.0,2084.0,6.0,-12.0,
2066.0,2081.0,6.0,-12.0,
2069.0,2089.0,6.0,-12.0,
2075.0,2086.0,6.0,-12.0,
2100.0,2076.0,6.0,-11.0,
2088.0,2083.0,6.0,-11.0,
2037.0,2088.0,6.0,-11.0,
2040.0,2086.0,6.0,-11.0,
2054.0,2097.0,6.0,-11.0,
2078.0,2100.0,6.0,-11.0,
2067.0,2095.0,6.0,-11.0,
2074.0,2097.0,6.0,-11.0,
2087.0,2094.0,6.0,-11.0,
2094.0,2089.0,6.0,-11.0,
2079.0,2092.0,6.0,-11.0,
2052.0,2081.0,6.0,-11.0,
2054.0,2091.0,6.0,-11.0,
2056.0,2092.0,6.0,-11.0,
2093.0,2100.0,6.0,-12.0,
2074.0,2097.0,6.0,-12.0,
2073.0,2037.0,6.0,-12.0,
2081.0,2088.0,6.0,-12.0,
2094.0,2099.0,6.0,-12.0,
2084.0,2083.0,6.0,-12.0,
2049.0,2074.0,6.0,-12.0,
2051.0,2078.0,6.0,-12.0,
2055.0,2083.0,6.0,-12.0,
2083.0,2094.0,6.0,-12.0,
2070.0,2093.0,6.0,-12.0,
2060.0,2072.0,6.0,-12.0,
2055.0,2068.0,6.0,-12.0,
2066.0,2087.0,6.0,-12.0,
2075.0,2076.0,6.0,-12.0,
2048.0,2093.0,6.0,-12.0,
2020.0,2125.0,6.0,-12.0,
2061.0,2072.0,6.0,-12.0,
2081.0,2177.0,6.0,-12.0,
2074.0,2084.0,6.0,-12.0,
2063.0,2088.0,6.0,-12.0,
2071.0,2084.0,6.0,-12.0,
2090.0,2089.0,6.0,-12.0,
2094.0,2100.0,6.0,-12.0,
2049.0,2094.0,6.0,-12.0,
2044.0,2090.0,6.0,-12.0,
2054.0,2081.0,6.0,-12.0,
2081.0,2089.0,6.0,-12.0,
2067.0,2082.0,6.0,-12.0,
2069.0,2090.0,6.0,-12.0,
2068.0,2097.0,6.0,-12.0,
2064.0,2095.0,6.0,-12.0,
2086.0,2090.0,6.0,-12.0,
2055.0,2084.0,6.0,-12.0,
2046.0,2080.0,6.0,-12.0,
2052.0,2083.0,6.0,-11.0,
2089.0,2088.0,6.0,-12.0,
2070.0,2081.0,6.0,-11.0,
2073.0,2086.0,6.0,-12.0,
2066.0,2093.0,6.0,-12.0,
2082.0,2091.0,6.0,-11.0,
2080.0,2097.0,6.0,-12.0,
2063.0,2085.0,6.0,-12.0,
2053.0,2073.0,6.0,-12.0,
2059.0,2070.0,6.0,-12.0,
2083.0,2093.0,6.0,-12.0,
2076.0,2084.0,6.0,-12.0,
2051.0,2092.0,6.0,-12.0,
2076.0,2083.0,6.0,-12.0,
2085.0,2103.0,6.0,-12.0,
2096.0,2090.0,6.0,-12.0,
2058.0,2077.0,6.0,-12.0,
2038.0,2079.0,6.0,-12.0,
2040.0,2084.0,6.0,-12.0,
2077.0,2089.0,6.0,-12.0,
2067.0,2097.0,6.0,-12.0,
2068.0,2090.0,6.0,-12.0,
2092.0,2094.0,6.0,-12.0,
2091.0,2096.0,6.0,-12.0,
2093.0,2094.0,6.0,-12.0,
2063.0,2084.0,6.0,-12.0,
2061.0,2085.0,6.0,-12.0,
2060.0,2099.0,6.0,-12.0,
2088.0,2095.0,6.0,-12.0,
2083.0,2047.0,6.0,-12.0,
2072.0,2090.0,6.0,-12.0,
2081.0,2092.0,6.0,-12.0,
2091.0,2101.0,6.0,-12.0,
2103.0,2106.0,6.0,-12.0,
2060.0,2090.0,6.0,-12.0,
2051.0,2088.0,6.0,-12.0,
2056.0,2088.0,6.0,-12.0,
2095.0,2095.0,6.0,-11.0,
2069.0,2085.0,6.0,-11.0,
2061.0,2105.0,6.0,-12.0,
2063.0,2104.0,6.0,-12.0,
2086.0,2099.0,6.0,-12.0,
2087.0,2099.0,6.0,-12.0,
2051.0,2080.0,6.0,-12.0,
2053.0,2081.0,6.0,-12.0,
2056.0,2084.0,6.0,-12.0,
2084.0,2091.0,6.0,-12.0,
2079.0,2083.0,6.0,-12.0,
2063.0,2087.0,6.0,-12.0,
2074.0,2094.0,6.0,-12.0,
2084.0,2098.0,6.0,-12.0,
2086.0,2101.0,6.0,-12.0,
2052.0,2085.0,6.0,-12.0,
2056.0,2092.0,6.0,-12.0,
2053.0,2090.0,6.0,-12.0,
2086.0,2081.0,6.0,-12.0,
2082.0,2081.0,6.0,-12.0,
2064.0,2085.0,0,
2083.0,2091.0,6.0,-12.0,
2083.0,2096.0,6.0,-11.0,
2090.0,2100.0,6.0,-11.0,
2045.0,2075.0,6.0,-12.0,
2036.0,2064.0,6.0,-12.0,
2052.0,2080.0,6.0,-11.0,
2079.0,2072.0,6.0,-11.0,
2090.0,2096.0,6.0,-11.0,
2089.0,2107.0,6.0,-11.0,
2096.0,2119.0,6.0,-11.0,
2099.0,2117.0,6.0,-11.0,
2106.0,2108.0,6.0,-11.0,
2068.0,2097.0,6.0,-11.0,
2054.0,2093.0,6.0,-11.0,
2061.0,2094.0,6.0,-12.0,
2077.0,2106.0,6.0,-12.0,
2077.0,2095.0,6.0,-12.0,
2062.0,2098.0,6.0,-12.0,
2070.0,2114.0,6.0,-12.0,
2091.0,2095.0,6.0,-12.0,
2094.0,2097.0,6.0,-12.0,
2056.0,2087.0,6.0,-12.0,
2039.0,2073.0,6.0,-12.0,
2046.0,2078.0,6.0,-12.0,
2072.0,2088.0,6.0,-12.0,
2074.0,2083.0,6.0,-12.0,
2069.0,2097.0,6.0,-12.0,
2078.0,2096.0,6.0,-12.0,
2073.0,2091.0,6.0,-12.0,
2081.0,2090.0,6.0,-12.0,
2048.0,2079.0,6.0,-12.0,
2050.0,2072.0,6.0,-12.0,
2050.0,2077.0,6.0,-12.0,
2077.0,2080.0,6.0,-12.0,
2080.0,2086.0,6.0,-12.0,
2066.0,2077.0,6.0,-12.0,
2070.0,2082.0,6.0,-12.0,
2074.0,2089.0,6.0,-12.0,
2087.0,2087.0,6.0,-12.0,
2066.0,2079.0,6.0,-12.0,
2055.0,2079.0,6.0,-12.0,
2050.0,2078.0,6.0,-12.0,
2078.0,2082.0,6.0,-12.0,
2086.0,2088.0,6.0,-12.0,
2069.0,2089.0,6.0,-12.0,
2080.0,2096.0,6.0,-12.0,
2085.0,2102.0,6.0,-12.0,
2089.0,2106.0,6.0,-12.0,
2069.0,2079.0,6.0,-12.0,
2044.0,2081.0,6.0,-12.0,
2048.0,2078.0,6.0,-12.0,
2067.0,2089.0,6.0,-12.0,
2080.0,2090.0,6.0,-12.0,
2080.0,2097.0,6.0,-12.0,
2068.0,2095.0,6.0,-12.0,
2074.0,2095.0,6.0,-12.0,
2089.0,2091.0,6.0,-12.0,
2058.0,2084.0,6.0,-12.0,
2045.0,2090.0,6.0,-12.0,
2054.0,2071.0,6.0,-12.0,
2072.0,2091.0,6.0,-12.0,
2079.0,2081.0,6.0,-12.0,
2064.0,2084.0,6.0,-12.0,
2065.0,2088.0,6.0,-12.0,
2073.0,2091.0,6.0,-12.0,
2088.0,2099.0,6.0,-12.0,
2069.0,2094.0,6.0,-12.0,
2053.0,2090.0,6.0,-12.0,
2053.0,2087.0,6.0,-12.0,
2082.0,2090.0,6.0,-12.0,
2090.0,2088.0,6.0,-12.0,
2076.0,2089.0,6.0,-12.0,
2080.0,2082.0,6.0,-12.0,
2083.0,2098.0,6.0,-12.0,
2096.0,2099.0,6.0,-12.0,
2065.0,2083.0,6.0,-12.0,
2048.0,2078.0,6.0,-12.0,
2050.0,2076.0,6.0,-12.0,
2077.0,2084.0,6.0,-12.0,
2081.0,2087.0,6.0,-12.0,
2059.0,2084.0,6.0,-12.0,
2083.0,2099.0,6.0,-12.0,
2081.0,2094.0,6.0,-12.0,
2099.0,2092.0,6.0,-12.0,
2072.0,2083.0,6.0,-12.0,
2058.0,2085.0,6.0,-12.0,
2051.0,2084.0,6.0,-12.0,
2069.0,2089.0,6.0,-12.0,
2084.0,2090.0,6.0,-12.0,
2061.0,2085.0,6.0,-12.0,
2069.0,2087.0,6.0,-12.0,
2105.0,2094.0,6.0,-12.0,
2099.0,2107.0,6.0,-12.0,
2058.0,2091.0,6.0,-12.0,
2057.0,2084.0,6.0,-12.0,
2054.0,2082.0,6.0,-12.0,
2070.0,2090.0,6.0,-12.0,
2093.0,2089.0,6.0,-12.0,
2071.0,2093.0,6.0,-12.0,
2069.0,2095.0,6.0,-12.0,
2070.0,2096.0,6.0,-12.0,
2080.0,2097.0,6.0,-12.0,
2062.0,2096.0,6.0,-12.0,
2053.0,2090.0,6.0,-12.0,
2054.0,2094.0,6.0,-12.0,
2074.0,2090.0,6.0,-12.0,
2082.0,2094.0,6.0,-12.0,
2063.0,2091.0,6.0,-12.0,
2072.0,2100.0,6.0,-12.0,
2079.0,2098.0,6.0,-12.0,
2103.0,2100.0,6.0,-12.0,
2069.0,2091.0,6.0,-12.0,
2055.0,2094.0,6.0,-12.0,
2056.0,2084.0,6.0,-12.0,
2070.0,2088.0,6.0,-12.0,
2081.0,2092.0,6.0,-12.0,
2065.0,2091.0,6.0,-12.0,
2063.0,2097.0,0,
2081.0,2091.0,6.0,-12.0,
2080.0,2079.0,6.0,-12.0,
2067.0,2075.0,6.0,-12.0,
2039.0,2078.0,6.0,-12.0,
2043.0,2075.0,6.0,-12.0,
2062.0,2083.0,6.0,-12.0,
2085.0,2083.0,6.0,-12.0,
2065.0,2081.0,6.0,-12.0,
2065.0,2086.0,6.0,-12.0,
2083.0,2098.0,6.0,-12.0,
2097.0,2112.0,6.0,-12.0,
2071.0,2091.0,6.0,-12.0,
2049.0,2088.0,6.0,-12.0,
2051.0,2106.0,6.0,-12.0,
2063.0,2083.0,6.0,-12.0,
2094.0,2095.0,6.0,-12.0,
2082.0,2091.0,6.0,-12.0,
2071.0,2090.0,6.0,-12.0,
2077.0,2086.0,6.0,-12.0,
2084.0,2087.0,6.0,-12.0,
2063.0,2075.0,6.0,-12.0,
2043.0,2086.0,6.0,-12.0,
2054.0,2083.0,6.0,-12.0,
2066.0,2087.0,6.0,-12.0,
2095.0,2098.0,6.0,-12.0,
2065.0,2075.0,6.0,-12.0,
2076.0,2082.0,6.0,-12.0,
2080.0,2085.0,6.0,-12.0,
2107.0,2108.0,6.0,-12.0,
2078.0,2105.0,6.0,-12.0,
2073.0,2107.0,6.0,-12.0,
2070.0,2108.0,6.0,-12.0,
2076.0,2099.0,6.0,-12.0,
2090.0,2120.0,6.0,-12.0,
2069.0,2093.0,6.0,-12.0,
2081.0,2093.0,6.0,-12.0,
2083.0,2092.0,6.0,-12.0,
2093.0,2090.0,6.0,-12.0,
2089.0,2090.0,6.0,-12.0,
2066.0,2091.0,6.0,-12.0,
2064.0,2083.0,6.0,-12.0,
2072.0,2078.0,0,
2090.0,2089.0,6.0,-12.0,
2072.0,2080.0,6.0,-12.0,
2072.0,2088.0,6.0,-12.0,
2071.0,2087.0,6.0,-12.0,
2086.0,2085.0,6.0,-12.0,
2063.0,2085.0,6.0,-12.0,
2045.0,2092.0,6.0,-12.0,
2045.0,2085.0,6.0,-12.0,
2063.0,2086.0,6.0,-12.0,
2083.0,2083.0,6.0,-12.0,
2072.0,2081.0,6.0,-12.0,
2069.0,2090.0,6.0,-12.0,
2072.0,2083.0,6.0,-12.0,
2089.0,2097.0,6.0,-12.0,
2071.0,2090.0,6.0,-12.0,
2051.0,2088.0,6.0,-12.0,
2061.0,2085.0,6.0,-12.0,
2064.0,2079.0,6.0,-12.0,
2091.0,2087.0,6.0,-12.0,
2070.0,2081.0,6.0,-12.0,
2074.0,2088.0,6.0,-12.0,
2088.0,2082.0,6.0,-12.0,
2092.0,2094.0,6.0,-12.0,
2080.0,2091.0,6.0,-12.0,
2054.0,2140.0,6.0,-12.0,
2060.0,2092.0,6.0,-12.0,
2061.0,2087.0,6.0,-12.0,
2086.0,2101.0,6.0,-12.0,
2068.0,2090.0,6.0,-12.0,
2075.0,2093.0,6.0,-12.0,
2077.0,2090.0,6.0,-12.0,
2081.0,2097.0,6.0,-12.0,
2077.0,2092.0,6.0,-12.0,
2055.0,2088.0,6.0,-12.0,
2056.0,2088.0,6.0,-12.0,
2036.0,2087.0,6.0,-12.0,
2095.0,2100.0,6.0,-12.0,
2077.0,2086.0,6.0,-12.0,
2066.0,2087.0,6.0,-12.0,
2074.0,2101.0,6.0,-12.0,
2086.0,2106.0,6.0,-12.0,
2074.0,2102.0,6.0,-12.0,
2050.0,2095.0,6.0,-12.0,
2051.0,2087.0,6.0,-12.0,
2060.0,2086.0,6.0,-12.0,
2080.0,2092.0,6.0,-12.0,
2066.0,2093.0,6.0,-12.0,
2059.0,2088.0,6.0,-12.0,
2084.0,2089.0,6.0,-12.0,
2095.0,2099.0,6.0,-12.0,
2072.0,2089.0,6.0,-12.0,
2042.0,2076.0,6.0,-12.0,
2043.0,2087.0,6.0,-12.0,
2061.0,2087.0,6.0,-12.0,
2085.0,2086.0,6.0,-12.0,
2068.0,2087.0,6.0,-12.0,
2064.0,2085.0,6.0,-12.0,
2078.0,2086.0,6.0,-12.0,
2091.0,2090.0,6.0,-12.0,
2086.0,2078.0,6.0,-12.0,
2047.0,2081.0,6.0,-12.0,
2057.0,2084.0,6.0,-12.0,
2055.0,2086.0,6.0,-12.0,
2089.0,2077.0,6.0,-12.0,
2070.0,2082.0,6.0,-12.0,
2062.0,2089.0,6.0,-12.0,
2077.0,2075.0,6.0,-12.0,
2093.0,2106.0,6.0,-12.0,
2082.0,2093.0,6.0,-12.0,
2044.0,2081.0,6.0,-12.0,
2050.0,2081.0,6.0,-12.0,
2063.0,2080.0,6.0,-12.0,
2092.0,2093.0,6.0,-12.0,
2078.0,2088.0,6.0,-12.0,
2081.0,2087.0,6.0,-12.0,
2085.0,2089.0,6.0,-12.0,
2095.0,2099.0,6.0,-12.0,
2081.0,2103.0,6.0,-12.0,
2063.0,2081.0,6.0,-12.0,
2052.0,2083.0,6.0,-12.0,
2053.0,2086.0,6.0,-12.0,
2113.0,2092.0,6.0,-12.0,
2071.0,2081.0,6.0,-12.0,
2071.0,2086.0,6.0,-12.0,
2081.0,2088.0,6.0,-12.0,
2099.0,2093.0,6.0,-12.0,
2088.0,2094.0,6.0,-12.0,
2044.0,2087.0,6.0,-12.0,
2049.0,2082.0,6.0,-12.0,
2052.0,2078.0,6.0,-12.0,
2087.0,2092.0,6.0,-12.0,
2068.0,2079.0,6.0,-12.0,
2071.0,2088.0,6.0,-12.0,
2066.0,2096.0,6.0,-12.0,
2095.0,2097.0,6.0,-12.0,
2100.0,2087.0,6.0,-12.0,
2055.0,2073.0,6.0,-12.0,
2059.0,2071.0,6.0,-12.0,
2052.0,2075.0,6.0,-12.0,
2090.0,2090.0,6.0,-12.0,
2076.0,2091.0,6.0,-12.0,
2063.0,2086.0,6.0,-12.0,
2082.0,2093.0,6.0,-12.0,
2096.0,2092.0,6.0,-12.0,
2093.0,2089.0,6.0,-12.0,
2051.0,2080.0,6.0,-12.0,
2057.0,2085.0,6.0,-12.0,
2055.0,2084.0,6.0,-12.0,
2093.0,2098.0,6.0,-12.0,
2078.0,2089.0,6.0,-12.0,
2065.0,2095.0,6.0,-12.0,
2079.0,2093.0,6.0,-12.0,
2054.0,2099.0,6.0,-12.0,
2085.0,2106.0,6.0,-12.0,
2043.0,2076.0,6.0,-12.0,
2040.0,2083.0,6.0,-12.0,
2053.0,2089.0,6.0,-12.0,
2085.0,2094.0,6.0,-12.0,
2075.0,2090.0,6.0,-12.0,
2061.0,2093.0,6.0,-12.0,
2063.0,2096.0,6.0,-12.0,
2077.0,2101.0,6.0,-12.0,
2076.0,2094.0,6.0,-12.0,
2044.0,2083.0,6.0,-12.0,
2046.0,2086.0,6.0,-12.0,
2047.0,2077.0,6.0,-12.0,
2073.0,2089.0,6.0,-12.0,
2074.0,2096.0,6.0,-12.0,
2062.0,2085.0,6.0,-12.0,
2071.0,2092.0,6.0,-12.0,
2082.0,2097.0,6.0,-12.0,
2085.0,2099.0,6.0,-12.0,
2053.0,2088.0,6.0,-12.0,
2042.0,2084.0,6.0,-12.0,
2044.0,2081.0,6.0,-12.0,
2084.0,2086.0,6.0,-12.0,
2075.0,2080.0,6.0,-12.0,
2071.0,2084.0,6.0,-12.0,
2076.0,2094.0,6.0,-12.0,
2092.0,2100.0,6.0,-12.0,
2089.0,2091.0,6.0,-12.0,
2051.0,2083.0,6.0,-12.0,
2054.0,2083.0,6.0,-12.0,
2060.0,2076.0,6.0,-12.0,
2093.0,2088.0,6.0,-12.0,
2086.0,2089.0,6.0,-12.0,
2067.0,2086.0,6.0,-12.0,
2072.0,2098.0,6.0,-12.0,
2088.0,2100.0,6.0,-12.0,
2099.0,2090.0,6.0,-12.0,
2050.0,2082.0,6.0,-12.0,
2063.0,2086.0,6.0,-12.0,
2061.0,2074.0,6.0,-12.0,
2093.0,2086.0,6.0,-12.0,
2078.0,2082.0,6.0,-12.0,
2071.0,2091.0,6.0,-12.0,
2088.0,2093.0,6.0,-12.0,
2090.0,2098.0,6.0,-12.0,
2114.0,2106.0,6.0,-12.0,
2061.0,2093.0,6.0,-12.0,
2054.0,2089.0,6.0,-12.0,
2060.0,2089.0,6.0,-12.0,
2078.0,2093.0,6.0,-12.0,
2069.0,2091.0,6.0,-12.0,
2065.0,2089.0,6.0,-12.0,
2056.0,2092.0,6.0,-12.0,
2065.0,2091.0,6.0,-12.0,
2070.0,2098.0,6.0,-12.0,
2049.0,2087.0,6.0,-12.0,
2044.0,2087.0,6.0,-12.0,
2044.0,2094.0,6.0,-12.0,
2072.0,2095.0,6.0,-12.0,
2071.0,2083.0,6.0,-12.0,
2060.0,2083.0,6.0,-12.0,
2062.0,2097.0,6.0,-12.0,
2082.0,2101.0,6.0,-12.0,
2085.0,2082.0,6.0,-12.0,
2067.0,2072.0,6.0,-12.0,
2053.0,2080.0,6.0,-12.0,
2055.0,2069.0,6.0,-12.0,
2081.0,2118.0,6.0,-12.0,
2082.0,2088.0,6.0,-12.0,
2066.0,2086.0,6.0,-12.0,
2069.0,2102.0,6.0,-12.0,
2083.0,2094.0,6.0,-12.0,
2092.0,2097.0,6.0,-12.0,
2057.0,2093.0,6.0,-12.0,
2049.0,2090.0,6.0,-12.0,
2050.0,2090.0,6.0,-12.0,
2106.0,2105.0,6.0,-12.0,
2084.0,2090.0,6.0,-12.0,
2071.0,2091.0,6.0,-12.0,
2072.0,2091.0,6.0,-12.0,
2074.0,2091.0,6.0,-12.0,
2093.0,2093.0,6.0,-12.0,
2064.0,2081.0,6.0,-12.0,
2063.0,2081.0,6.0,-12.0,
2059.0,2086.0,6.0,-12.0,
2079.0,2078.0,6.0,-12.0,
2083.0,2076.0,6.0,-12.0,
2069.0,2073.0,6.0,-12.0,
2078.0,2077.0,6.0,-12.0,
2078.0,2084.0,6.0,-12.0,
2072.0,2098.0,6.0,-12.0,
2067.0,2090.0,6.0,-12.0,
2055.0,2088.0,6.0,-12.0,
2057.0,2091.0,6.0,-12.0,
2077.0,2084.0,6.0,-12.0,
2082.0,2084.0,6.0,-12.0,
2068.0,2087.0,6.0,-12.0,
2071.0,2080.0,6.0,-12.0,
2071.0,2080.0,6.0,-12.0,
2095.0,2093.0,6.0,-12.0,
2071.0,2075.0,6.0,-12.0,
2047.0,2080.0,6.0,-12.0,
2052.0,2082.0,6.0,-12.0,
2074.0,2082.0,6.0,-12.0,
2081.0,2082.0,6.0,-12.0,
2066.0,2093.0,6.0,-12.0,
2073.0,2096.0,6.0,-12.0,
2073.0,2092.0,6.0,-12.0,
2091.0,2088.0,6.0,-12.0,
2055.0,2097.0,6.0,-12.0,
2047.0,2078.0,6.0,-12.0,
2051.0,2076.0,6.0,-12.0,
2072.0,2084.0,6.0,-12.0,
2085.0,2084.0,6.0,-12.0,
2061.0,2076.0,6.0,-12.0,
2086.0,2090.0,6.0,-12.0,
2079.0,2122.0,6.0,-12.0,
2092.0,2098.0,6.0,-12.0,
2069.0,2091.0,6.0,-12.0,
2054.0,2089.0,6.0,-12.0,
2064.0,2092.0,6.0,-12.0,
2060.0,2095.0,6.0,-12.0,
2083.0,2103.0,6.0,-12.0,
2065.0,2089.0,6.0,-12.0,
2069.0,2093.0,6.0,-12.0,
2065.0,2090.0,6.0,-12.0,
2081.0,2085.0,6.0,-12.0,
2054.0,2089.0,6.0,-12.0,
2041.0,2083.0,6.0,-12.0,
2043.0,2087.0,6.0,-12.0,
2066.0,2088.0,6.0,-12.0,
2081.0,2093.0,6.0,-12.0,
2061.0,2093.0,6.0,-12.0,
2071.0,2095.0,6.0,-12.0,
2092.0,2102.0,6.0,-12.0,
2067.0,2100.0,6.0,-12.0,
2066.0,2086.0,6.0,-12.0,
2049.0,2077.0,6.0,-12.0,
2057.0,2088.0,6.0,-12.0,
2068.0,2099.0,6.0,-12.0,
2093.0,2101.0,6.0,-12.0,
2072.0,2096.0,6.0,-12.0,
2074.0,2093.0,6.0,-12.0,
2085.0,2108.0,6.0,-12.0,
2104.0,2102.0,6.0,-12.0,
2068.0,2092.0,6.0,-12.0,
2026.0,2088.0,6.0,-12.0,
2058.0,2127.0,6.0,-12.0,
2086.0,2082.0,6.0,-12.0,
2079.0,2085.0,6.0,-12.0,
2062.0,2085.0,6.0,-12.0,
2066.0,2084.0,6.0,-12.0,
2084.0,2097.0,6.0,-12.0,
2088.0,2098.0,6.0,-12.0,
2061.0,2073.0,6.0,-12.0,
2045.0,2070.0,6.0,-12.0,
2050.0,2077.0,6.0,-12.0,
2057.0,2085.0,6.0,-12.0,
2069.0,2083.0,6.0,-12.0,
2058.0,2093.0,6.0,-12.0,
2071.0,2095.0,6.0,-12.0,
2082.0,2094.0,6.0,-12.0,
2093.0,2107.0,6.0,-12.0,
2070.0,2079.0,6.0,-12.0,
2045.0,2083.0,6.0,-12.0,
2045.0,2086.0,6.0,-12.0,
2064.0,2107.0,6.0,-12.0,
2079.0,2084.0,6.0,-12.0,
2059.0,2083.0,6.0,-12.0,
2066.0,2088.0,6.0,-12.0,
2080.0,2086.0,6.0,-12.0,
2093.0,2080.0,6.0,-12.0,
2078.0,2082.0,6.0,-12.0,
2046.0,2091.0,6.0,-12.0,
2063.0,2098.0,6.0,-12.0,
2078.0,2094.0,6.0,-12.0,
2092.0,2102.0,6.0,-12.0,
2068.0,2098.0,6.0,-12.0,
2081.0,2100.0,6.0,-12.0,
2083.0,2094.0,6.0,-12.0,
2096.0,2110.0,6.0,-12.0,
2080.0,2089.0,6.0,-12.0,
2052.0,2087.0,6.0,-12.0,
2107.0,2079.0,6.0,-12.0,
2073.0,2081.0,6.0,-12.0,
2100.0,2092.0,6.0,-12.0,
2082.0,2100.0,6.0,-12.0,
2085.0,2096.0,6.0,-12.0,
2095.0,2104.0,6.0,-12.0,
2092.0,2078.0,6.0,-12.0,
2064.0,2086.0,6.0,-12.0,
2055.0,2086.0,6.0,-12.0,
2054.0,2075.0,6.0,-12.0,
2063.0,2085.0,6.0,-12.0,
2098.0,2101.0,6.0,-12.0,
2059.0,2058.0,6.0,-12.0,
2069.0,2092.0,6.0,-12.0,
2057.0,2096.0,6.0,-12.0,
2064.0,2083.0,6.0,-12.0,
2050.0,2063.0,6.0,-12.0,
2031.0,2235.0,6.0,-12.0,
2068.0,1931.0,6.0,-12.0,
2099.0,2131.0,6.0,-12.0,
2102.0,2117.0,6.0,-12.0,
2093.0,2076.0,6.0,-12.0,
2049.0,2007.0,6.0,-12.0,
2070.0,2037.0,6.0,-12.0,
2091.0,2103.0,6.0,-12.0,
2077.0,2161.0,6.0,-12.0,
2032.0,2013.0,6.0,-12.0,
2045.0,2214.0,6.0,-12.0,
2021.0,1994.0,6.0,-12.0,
2044.0,2018.0,6.0,-12.0,
2028.0,1936.0,6.0,-12.0,
2086.0,2052.0,6.0,-12.0,
2025.0,2027.0,6.0,-12.0,
2067.0,2192.0,6.0,-12.0,
2021.0,2139.0,5.0,-12.0,
1978.0,2043.0,5.0,-12.0,
2016.0,2078.0,6.0,-12.0,
2102.0,2095.0,5.0,-12.0,
2081.0,2182.0,5.0,-12.0,
2124.0,2221.0,6.0,-12.0,
2073.0,2146.0,6.0,-12.0,
2108.0,2120.0,6.0,-12.0,
2098.0,2179.0,6.0,-12.0,
2090.0,2136.0,6.0,-12.0,
2013.0,2104.0,6.0,-12.0,
2031.0,2092.0,7.0,-12.0,
2037.0,2037.0,7.0,-12.0,
2093.0,2177.0,7.0,-12.0,
2218.0,2119.0,7.0,-12.0,
2143.0,2061.0,7.0,-12.0,
2120.0,2090.0,7.0,-12.0,
2110.0,2100.0,7.0,-12.0,
2105.0,2088.0,7.0,-11.0,
2060.0,2075.0,7.0,-11.0,
2049.0,2104.0,7.0,-11.0,
2042.0,2075.0,7.0,-11.0,
2062.0,2069.0,7.0,-11.0,
2041.0,2081.0,7.0,-11.0,
2046.0,2047.0,7.0,-11.0,
2049.0,2106.0,6.0,-11.0,
2041.0,2045.0,6.0,-11.0,
2051.0,2117.0,6.0,-11.0,
1993.0,2061.0,6.0,-11.0,
1991.0,2043.0,6.0,-11.0,
2060.0,2070.0,6.0,-11.0,
2146.0,2076.0,6.0,-11.0,
2112.0,2097.0,6.0,-11.0,
2079.0,2166.0,6.0,-11.0,
2090.0,2066.0,6.0,-11.0,
2096.0,2088.0,6.0,-11.0,
2086.0,2079.0,6.0,-11.0,
2043.0,2187.0,6.0,-11.0,
2064.0,2085.0,6.0,-11.0,
2051.0,2199.0,6.0,-11.0,
2070.0,2080.0,6.0,-11.0,
2054.0,2137.0,6.0,-12.0,
2075.0,2045.0,6.0,-11.0,
2092.0,2103.0,6.0,-11.0,
2072.0,2037.0,6.0,-11.0,
2093.0,2041.0,6.0,-11.0,
2042.0,1925.0,6.0,-12.0,
2045.0,2051.0,6.0,-12.0,
2030.0,2110.0,6.0,-12.0,
2059.0,2047.0,6.0,-12.0,
2050.0,2088.0,6.0,-12.0,
2067.0,2069.0,7.0,-12.0,
2069.0,2001.0,7.0,-12.0,
2095.0,2187.0,7.0,-12.0,
2061.0,2250.0,8.0,-12.0,
2051.0,2056.0,8.0,-12.0,
2064.0,2043.0,8.0,-12.0,
2068.0,2092.0,9.0,-12.0,
2092.0,2122.0,9.0,-12.0,
2076.0,2177.0,9.0,-12.0,
2065.0,2186.0,10.0,-12.0,
2101.0,2074.0,10.0,-12.0,
2139.0,2142.0,10.0,-12.0,
2115.0,2025.0,10.0,-13.0,
2046.0,2179.0,10.0,-13.0,
2044.0,2140.0,10.0,-13.0,
2010.0,2085.0,10.0,-13.0,
2036.0,2008.0,10.0,-13.0,
2129.0,2087.0,10.0,-13.0,
2072.0,2116.0,9.0,-13.0,
2021.0,2118.0,9.0,-13.0,
2039.0,2082.0,8.0,-12.0,
2072.0,2051.0,7.0,-12.0,
2035.0,2108.0,7.0,-12.0,
2117.0,2101.0,6.0,-12.0,
2134.0,2127.0,5.0,-13.0,
2148.0,2025.0,4.0,-13.0,
2118.0,2043.0,4.0,-13.0,
2063.0,2094.0,3.0,-13.0,
2118.0,2078.0,3.0,-13.0,
2188.0,2108.0,2.0,-12.0,
2174.0,2061.0,2.0,-12.0,
2049.0,2097.0,1.0,-12.0,
2034.0,2097.0,1.0,-12.0,
2044.0,2121.0,1.0,-12.0,
2118.0,2081.0,0.0,-11.0,
2082.0,2134.0,0.0,-11.0,
2139.0,2112.0,0.0,-11.0,
2079.0,2047.0,0.0,-11.0,
2084.0,1988.0,0.0,-11.0,
2065.0,1997.0,0.0,-11.0,
2028.0,2082.0,0.0,-12.0,
2000.0,2056.0,0.0,-12.0,
2017.0,2057.0,0.0,-12.0,
2065.0,2180.0,0.0,-12.0,
2054.0,2131.0,0.0,-12.0,
2102.0,2141.0,0.0,-12.0,
2055.0,2069.0,0.0,-11.0,
2036.0,1986.0,0.0,-11.0,
2027.0,2003.0,0.0,-11.0,
2083.0,2152.0,-1.0,-12.0,
2101.0,2234.0,-1.0,-11.0,
2028.0,2289.0,-2.0,-11.0,
2109.0,2066.0,-2.0,-11.0,
2052.0,1920.0,-3.0,-12.0,
2029.0,2028.0,-4.0,-12.0,
2101.0,1985.0,-4.0,-12.0,
2134.0,2076.0,-5.0,-12.0,
2061.0,2156.0,-5.0,-12.0,
2034.0,2057.0,-5.0,-12.0,
2014.0,2062.0,-5.0,-12.0,
2030.0,2107.0,-5.0,-12.0,
2063.0,2217.0,-5.0,-12.0,
2055.0,2134.0,-5.0,-12.0,
2035.0,2122.0,-4.0,-12.0,
2171.0,2158.0,-4.0,-12.0,
2132.0,2187.0,-3.0,-12.0,
2117.0,2144.0,-2.0,-13.0,
2060.0,2035.0,-2.0,-13.0,
2051.0,2083.0,-1.0,-14.0,
2027.0,2011.0,0.0,-14.0,
2032.0,2100.0,0.0,-14.0,
2071.0,2065.0,0.0,-14.0,
2061.0,2070.0,0.0,-14.0,
2075.0,2054.0,1.0,-14.0,
2124.0,2057.0,1.0,-14.0,
2093.0,2087.0,2.0,-14.0,
2064.0,2065.0,2.0,-14.0,
2029.0,2065.0,2.0,-14.0,
2015.0,2079.0,2.0,-14.0,
2060.0,2062.0,3.0,-14.0,
2060.0,2036.0,3.0,-14.0,
2073.0,2150.0,3.0,-14.0,
2098.0,2202.0,3.0,-14.0,
2029.0,2196.0,3.0,-14.0,
2024.0,2087.0,2.0,-14.0,
1974.0,2019.0,2.0,-14.0,
2024.0,2072.0,2.0,-14.0,
2138.0,2044.0,1.0,-14.0,
2211.0,2091.0,1.0,-14.0,
2076.0,2036.0,0.0,-14.0,
2168.0,2074.0,0.0,-14.0,
2096.0,2042.0,0.0,-14.0,
2101.0,2072.0,0.0,-14.0,
2108.0,2138.0,0.0,-13.0,
2055.0,2109.0,0.0,-13.0,
2043.0,2079.0,-1.0,-13.0,
2169.0,2101.0,-1.0,-13.0,
2126.0,2054.0,-1.0,-13.0,
2059.0,2090.0,-1.0,-13.0,
1941.0,2049.0,-1.0,-13.0,
2028.0,2127.0,-1.0,-13.0,
2022.0,2078.0,-1.0,-13.0,
2037.0,2118.0,-1.0,-13.0,
2091.0,2048.0,-1.0,-13.0,
2029.0,1981.0,-1.0,-13.0,
2110.0,2101.0,-1.0,-13.0,
2094.0,2114.0,-2.0,-13.0,
2046.0,2128.0,-2.0,-13.0,
2017.0,2097.0,-2.0,-13.0,
2086.0,2180.0,-2.0,-13.0,
2127.0,2227.0,-2.0,-12.0,
2153.0,2127.0,-2.0,-12.0,
2066.0,2056.0,-3.0,-12.0,
2106.0,1940.0,-3.0,-12.0,
2058.0,2089.0,-4.0,-12.0,
2103.0,2118.0,-4.0,-12.0,
2060.0,2042.0,-4.0,-12.0,
2054.0,2092.0,-5.0,-12.0,
2065.0,2062.0,-5.0,-12.0,
2042.0,2059.0,-5.0,-12.0,
2050.0,2125.0,-6.0,-13.0,
2010.0,2190.0,-6.0,-13.0,
2043.0,2034.0,-7.0,-13.0,
2076.0,2064.0,-7.0,-14.0,
2140.0,2163.0,-7.0,-14.0,
2095.0,2161.0,-7.0,-14.0,
2091.0,2152.0,-7.0,-13.0,
2080.0,2135.0,-7.0,-13.0,
2067.0,1996.0,-7.0,-13.0,
2089.0,2063.0,-7.0,-13.0,
2024.0,2105.0,-7.0,-13.0,
2018.0,2080.0,-7.0,-13.0,
2020.0,2093.0,-7.0,-13.0,
2127.0,2110.0,-7.0,-12.0,
2196.0,2080.0,-6.0,-13.0,
2073.0,1992.0,-6.0,-13.0,
2029.0,2014.0,-6.0,-14.0,
2060.0,2154.0,-6.0,-14.0,
2049.0,2121.0,-5.0,-14.0,
2067.0,2014.0,-5.0,-14.0,
2068.0,2029.0,-5.0,-14.0,
2025.0,2146.0,-5.0,-14.0,
2122.0,2052.0,-4.0,-14.0,
2138.0,2073.0,-4.0,-14.0,
2053.0,2160.0,-4.0,-14.0,
2169.0,2010.0,-4.0,-14.0,
2122.0,2067.0,-4.0,-14.0,
2120.0,2175.0,-3.0,-14.0,
2077.0,2139.0,-3.0,-15.0,
2028.0,2147.0,-3.0,-15.0,
2027.0,2054.0,-3.0,-15.0,
2032.0,2016.0,-4.0,-15.0,
2070.0,2021.0,-4.0,-15.0,
2064.0,2082.0,-4.0,-14.0,
2075.0,2058.0,-4.0,-14.0,
2167.0,2126.0,-4.0,-14.0,
2110.0,2122.0,-5.0,-14.0,
2037.0,2087.0,-5.0,-14.0,
2008.0,2113.0,-5.0,-14.0,
2053.0,2125.0,-6.0,-13.0,
2007.0,2010.0,-6.0,-13.0,
1988.0,2063.0,-6.0,-13.0,
2054.0,2064.0,-7.0,-13.0,
2099.0,2132.0,-7.0,-14.0,
2109.0,2097.0,-8.0,-14.0,
2117.0,2129.0,-8.0,-14.0,
2080.0,2074.0,-8.0,-14.0,
2055.0,2094.0,-8.0,-14.0,
1993.0,2015.0,-9.0,-15.0,
2054.0,2106.0,-9.0,-15.0,
2094.0,2095.0,-9.0,-14.0,
2077.0,2138.0,-9.0,-14.0,
2068.0,2103.0,-9.0,-14.0,
2074.0,2100.0,-9.0,-14.0,
2115.0,2097.0,-9.0,-14.0,
2065.0,2065.0,-9.0,-14.0,
2023.0,2100.0,-9.0,-14.0,
2005.0,2165.0,-9.0,-13.0,
2001.0,2123.0,-9.0,-13.0,
2064.0,2098.0,-9.0,-13.0,
2037.0,2079.0,-8.0,-13.0,
2121.0,2104.0,-8.0,-14.0,
2208.0,2015.0,-8.0,-14.0,
2169.0,2147.0,-8.0,-14.0,
2107.0,2104.0,-8.0,-14.0,
2191.0,1953.0,-7.0,-14.0,
2071.0,1951.0,-7.0,-14.0,
2098.0,2076.0,-7.0,-14.0,
2155.0,2256.0,-7.0,-14.0,
2128.0,2042.0,-7.0,-14.0,
2024.0,2179.0,-7.0,-14.0,
2069.0,2116.0,-7.0,-14.0,
2070.0,2159.0,-7.0,-14.0,
2068.0,2158.0,-7.0,-14.0,
2042.0,1924.0,-7.0,-14.0,
2049.0,2075.0,-7.0,-14.0,
2033.0,1992.0,-7.0,-15.0,
2051.0,2155.0,-7.0,-16.0,
2020.0,2212.0,-7.0,-16.0,
2005.0,2035.0,-7.0,-16.0,
1969.0,2024.0,-7.0,-15.0,
2046.0,2055.0,-7.0,-15.0,
2045.0,2108.0,-8.0,-14.0,
2090.0,2128.0,-8.0,-14.0,
2135.0,2137.0,-8.0,-14.0,
2156.0,2061.0,-8.0,-14.0,
2188.0,2028.0,-8.0,-14.0,
2163.0,2139.0,-9.0,-13.0,
1995.0,2024.0,-9.0,-13.0,
1997.0,2031.0,-9.0,-13.0,
1994.0,2060.0,-9.0,-13.0,
2048.0,2051.0,-9.0,-14.0,
2041.0,2077.0,-10.0,-14.0,
2034.0,2179.0,-10.0,-15.0,
2010.0,2091.0,-10.0,-15.0,
2056.0,2098.0,-10.0,-15.0,
2032.0,2128.0,-10.0,-15.0,
2052.0,2091.0,-10.0,-14.0,
2107.0,2103.0,-10.0,-14.0,
2180.0,2100.0,-10.0,-14.0,
2076.0,2106.0,-10.0,-15.0,
2132.0,2098.0,-10.0,-15.0,
2173.0,2095.0,-10.0,-15.0,
2085.0,2019.0,-10.0,-15.0,
2162.0,2082.0,-10.0,-14.0,
2054.0,2091.0,-10.0,-14.0,
2012.0,2108.0,-10.0,-14.0,
2036.0,2114.0,-10.0,-14.0,
2082.0,2120.0,-10.0,-14.0,
2213.0,2067.0,-10.0,-14.0,
2131.0,2125.0,-10.0,-13.0,
2045.0,2101.0,-11.0,-13.0,
2053.0,2090.0,-11.0,-13.0,
2088.0,2158.0,-11.0,-14.0,
2049.0,1995.0,-11.0,-15.0,
2053.0,2035.0,-12.0,-15.0,
2026.0,2136.0,-12.0,-15.0,
2058.0,2035.0,-12.0,-15.0,
2105.0,2163.0,-12.0,-15.0,
2041.0,1981.0,-13.0,-14.0,
2099.0,2061.0,-13.0,-14.0,
2084.0,2127.0,-13.0,-14.0,
2093.0,2029.0,-13.0,-14.0,
2093.0,2231.0,-14.0,-13.0,
2105.0,2107.0,-14.0,-13.0,
2113.0,2004.0,-14.0,-13.0,
2081.0,2183.0,-14.0,-14.0,
2077.0,2057.0,-14.0,-15.0,
1985.0,1962.0,-14.0,-15.0,
1990.0,2132.0,-13.0,-15.0,
1953.0,2107.0,-13.0,-15.0,
2112.0,2011.0,-13.0,-15.0,
2064.0,2060.0,-13.0,-15.0,
2057.0,2126.0,-13.0,-15.0,
1957.0,2108.0,-12.0,-15.0,
2073.0,2105.0,-12.0,-15.0,
2104.0,1986.0,-12.0,-16.0,
2174.0,2032.0,-12.0,-16.0,
2035.0,2072.0,-11.0,-16.0,
2003.0,2333.0,-11.0,-16.0,
2059.0,2109.0,-11.0,-17.0,
2138.0,2031.0,-11.0,-17.0,
2111.0,2104.0,-11.0,-17.0,
2187.0,2129.0,-11.0,-16.0,
2035.0,2103.0,-11.0,-16.0,
2069.0,2115.0,-11.0,-16.0,
2022.0,2155.0,-11.0,-15.0,
1943.0,2105.0,-11.0,-15.0,
2101.0,2049.0,-11.0,-15.0,
2137.0,2169.0,-11.0,-15.0,
2169.0,2161.0,-11.0,-14.0,
2213.0,1986.0,-11.0,-14.0,
2072.0,2110.0,0,
2003.0,2094.0,-12.0,-15.0,
2081.0,1963.0,-12.0,-15.0,
2125.0,2036.0,-12.0,-15.0,
2170.0,1953.0,-12.0,-15.0,
2068.0,1920.0,-12.0,-15.0,
2060.0,2123.0,-12.0,-16.0,
2031.0,2145.0,-12.0,-17.0,
2070.0,2084.0,-12.0,-16.0,
2018.0,2119.0,-12.0,-16.0,
2057.0,2213.0,-12.0,-15.0,
2089.0,2090.0,-12.0,-15.0,
2030.0,2091.0,-13.0,-15.0,
2023.0,2113.0,-13.0,-15.0,
1912.0,1929.0,-13.0,-15.0,
2028.0,2166.0,-13.0,-15.0,
1988.0,2112.0,-14.0,-14.0,
2119.0,2242.0,-14.0,-13.0,
2104.0,2109.0,-14.0,-14.0,
2166.0,1979.0,-15.0,-14.0,
2188.0,2074.0,-15.0,-15.0,
2074.0,2098.0,-15.0,-16.0,
2103.0,2051.0,-15.0,-16.0,
2157.0,2084.0,-16.0,-16.0,
2039.0,2137.0,-16.0,-15.0,
2076.0,2117.0,-16.0,-15.0,
1882.0,2116.0,-16.0,-14.0,
1952.0,2046.0,-16.0,-14.0,
2010.0,2078.0,-16.0,-14.0,
2098.0,2119.0,-16.0,-14.0,
2173.0,2108.0,-17.0,-14.0,
2072.0,2100.0,-17.0,-13.0,
1997.0,2094.0,-17.0,-13.0,
2133.0,2039.0,-16.0,-14.0,
2133.0,2143.0,-16.0,-15.0,
2116.0,2164.0,-16.0,-15.0,
2115.0,2131.0,-16.0,-15.0,
2074.0,2094.0,-16.0,-15.0,
2049.0,2036.0,-15.0,-15.0,
2061.0,2017.0,-15.0,-15.0,
2073.0,2016.0,-15.0,-15.0,
2092.0,2041.0,-15.0,-15.0,
2092.0,2045.0,-15.0,-15.0,
2103.0,2193.0,-15.0,-15.0,
2068.0,2068.0,-15.0,-15.0,
2068.0,2101.0,-15.0,-16.0,
2047.0,2067.0,-14.0,-17.0,
1979.0,2143.0,-14.0,-18.0,
1938.0,2082.0,-14.0,-18.0,
2003.0,1998.0,-14.0,-18.0,
2036.0,2033.0,-14.0,-17.0,
2130.0,2080.0,-14.0,-17.0,
2098.0,2082.0,-14.0,-16.0,
2079.0,2114.0,-14.0,-17.0,
2290.0,2134.0,-14.0,-17.0,
2201.0,2099.0,-14.0,-17.0,
2083.0,2059.0,-15.0,-15.0,
2016.0,2047.0,-15.0,-14.0,
2010.0,2184.0,-15.0,-14.0,
2100.0,2139.0,-15.0,-15.0,
2074.0,1992.0,-15.0,-16.0,
2084.0,2085.0,-15.0,-16.0,
2068.0,2007.0,-15.0,-16.0,
2043.0,2217.0,-15.0,-17.0,
2063.0,2034.0,-15.0,-18.0,
2075.0,2137.0,-15.0,-17.0,
2091.0,2122.0,-15.0,-17.0,
2043.0,2021.0,-15.0,-16.0,
1875.0,2059.0,-15.0,-16.0,
2173.0,2098.0,-16.0,-15.0,
2176.0,2083.0,-16.0,-15.0,
2169.0,2081.0,-16.0,-15.0,
2046.0,2129.0,-16.0,-15.0,
1978.0,2058.0,-17.0,-15.0,
2093.0,2032.0,-17.0,-14.0,
2044.0,2148.0,-17.0,-14.0,
2008.0,2177.0,-17.0,-14.0,
2035.0,2156.0,-17.0,-15.0,
2112.0,1943.0,-17.0,-16.0,
2082.0,2139.0,-17.0,-17.0,
2126.0,2134.0,-17.0,-17.0,
2086.0,2155.0,-17.0,-16.0,
2036.0,2051.0,-17.0,-16.0,
2057.0,2106.0,-18.0,-15.0,
1998.0,2036.0,-18.0,-15.0,
1943.0,1991.0,-18.0,-15.0,
2043.0,2099.0,-18.0,-15.0,
2099.0,2099.0,-18.0,-15.0,
2027.0,2077.0,-18.0,-14.0,
1944.0,2093.0,-18.0,-14.0,
2052.0,2147.0,-18.0,-14.0,
2126.0,2048.0,-18.0,-16.0,
2298.0,1993.0,-17.0,-17.0,
2098.0,1908.0,-17.0,-18.0,
2055.0,2136.0,-17.0,-18.0,
2076.0,2104.0,-17.0,-17.0,
2174.0,2077.0,-17.0,-17.0,
2087.0,2181.0,0,
1959.0,2036.0,-17.0,-17.0,
2012.0,2253.0,-16.0,-17.0,
1997.0,2131.0,-16.0,-17.0,
2175.0,2095.0,-16.0,-16.0,
2244.0,2116.0,-16.0,-15.0,
2092.0,2106.0,-16.0,-15.0,
2050.0,2057.0,-16.0,-16.0,
2030.0,2015.0,-16.0,-18.0,
2022.0,2060.0,-16.0,-18.0,
2007.0,2113.0,-16.0,-18.0,
2175.0,2156.0,-16.0,-18.0,
2191.0,2159.0,-17.0,-17.0,
2192.0,2135.0,-17.0,-17.0,
2024.0,2054.0,-17.0,-17.0,
1924.0,2027.0,-17.0,-17.0,
1956.0,1999.0,-17.0,-17.0,
2052.0,2070.0,-17.0,-16.0,
2072.0,2082.0,-17.0,-15.0,
2044.0,2097.0,-18.0,-16.0,
2066.0,2142.0,-18.0,-16.0,
1986.0,2065.0,-18.0,-17.0,
1950.0,2065.0,-18.0,-17.0,
2030.0,1991.0,-18.0,-17.0,
2076.0,2119.0,-19.0,-17.0,
2208.0,2219.0,-19.0,-16.0,
2087.0,2030.0,-20.0,-16.0,
2087.0,2111.0,-20.0,-16.0,
2036.0,2088.0,-20.0,-16.0,
2083.0,2118.0,-21.0,-15.0,
2172.0,2053.0,-21.0,-15.0,
2075.0,2050.0,-21.0,-15.0,
2003.0,2089.0,-22.0,-15.0,
1888.0,2104.0,-22.0,-16.0,
1917.0,2297.0,-22.0,-16.0,
2243.0,1965.0,-21.0,-16.0,
2461.0,1987.0,-21.0,-16.0,
2116.0,2110.0,-21.0,-16.0,
2070.0,2007.0,-21.0,-16.0,
2065.0,2079.0,-21.0,-16.0,
2000.0,2025.0,-21.0,-16.0,
2041.0,2054.0,-21.0,-15.0,
2119.0,2223.0,-21.0,-15.0,
2089.0,2185.0,-22.0,-15.0,
2094.0,2181.0,-21.0,-15.0,
2034.0,2115.0,-21.0,-16.0,
2125.0,2011.0,-21.0,-16.0,
2179.0,2053.0,-21.0,-16.0,
1912.0,1985.0,-21.0,-17.0,
1989.0,2153.0,-20.0,-18.0,
2012.0,2120.0,-20.0,-18.0,
2058.0,2258.0,-20.0,-17.0,
1977.0,2011.0,-20.0,-17.0,
2004.0,2109.0,-20.0,-16.0,
1921.0,2045.0,-20.0,-16.0,
1969.0,2133.0,-20.0,-16.0,
2064.0,2014.0,-20.0,-16.0,
2199.0,2157.0,-20.0,-16.0,
2208.0,2237.0,-20.0,-16.0,
2026.0,2223.0,-20.0,-15.0,
2142.0,2033.0,-20.0,-15.0,
2041.0,1944.0,-20.0,-16.0,
2116.0,2036.0,-20.0,-17.0,
2209.0,2043.0,-20.0,-17.0,
2127.0,2121.0,-20.0,-17.0,
2075.0,1993.0,-20.0,-19.0,
2119.0,2020.0,-20.0,-19.0,
2063.0,2129.0,-20.0,-18.0,
2103.0,2099.0,-20.0,-17.0,
2079.0,2071.0,-21.0,-17.0,
2107.0,2013.0,-21.0,-17.0,
2023.0,2052.0,-21.0,-17.0,
2013.0,2128.0,-21.0,-17.0,
1995.0,2144.0,-21.0,-17.0,
2050.0,2105.0,-21.0,-17.0,
2052.0,2115.0,-22.0,-15.0,
2041.0,2117.0,-22.0,-16.0,
2024.0,2100.0,-22.0,-17.0,
1972.0,2090.0,-22.0,-17.0,
2067.0,2113.0,-22.0,-17.0,
2057.0,2086.0,-23.0,-17.0,
2029.0,2126.0,-23.0,-17.0,
2200.0,2101.0,-23.0,-17.0,
2169.0,2095.0,-24.0,-17.0,
2078.0,2071.0,-24.0,-17.0,
2020.0,2053.0,-24.0,-16.0,
1986.0,2076.0,-24.0,-15.0,
2104.0,2046.0,-25.0,-15.0,
2081.0,2134.0,-25.0,-16.0,
2064.0,2035.0,-25.0,-17.0,
2097.0,2197.0,-25.0,-17.0,
2009.0,2117.0,-25.0,-17.0,
2106.0,2058.0,-25.0,-16.0,
2111.0,2024.0,-25.0,-16.0,
2115.0,2103.0,-25.0,-16.0,
2010.0,2087.0,-25.0,-17.0,
2046.0,2047.0,-25.0,-17.0,
2068.0,2221.0,-25.0,-17.0,
1965.0,1933.0,-25.0,-17.0,
2135.0,2029.0,-25.0,-16.0,
2139.0,2101.0,-25.0,-16.0,
2041.0,2173.0,-24.0,-17.0,
2149.0,2065.0,-24.0,-17.0,
2188.0,2097.0,-24.0,-17.0,
2000.0,2189.0,-24.0,-17.0,
1906.0,2010.0,-24.0,-17.0,
1886.0,1962.0,-24.0,-17.0,
2247.0,2073.0,-24.0,-17.0,
2070.0,2128.0,-24.0,-17.0,
2022.0,2115.0,-24.0,-17.0,
2171.0,2163.0,-23.0,-17.0,
2224.0,1984.0,-23.0,-17.0,
2102.0,2050.0,-23.0,-17.0,
1923.0,1986.0,-23.0,-17.0,
2025.0,2087.0,0,
2144.0,2120.0,-23.0,-17.0,
2201.0,2077.0,-24.0,-17.0,
2017.0,2108.0,-23.0,-18.0,
2083.0,2088.0,-23.0,-19.0,
2074.0,2184.0,-23.0,-18.0,
2083.0,2257.0,-23.0,-18.0,
2054.0,2192.0,-24.0,-17.0,
2024.0,2004.0,-24.0,-17.0,
2067.0,2057.0,-24.0,-17.0,
2064.0,2115.0,-24.0,-16.0,
2053.0,2001.0,-24.0,-16.0,
2042.0,2149.0,-24.0,-16.0,
2050.0,2061.0,-25.0,-16.0,
2039.0,2037.0,-25.0,-15.0,
1940.0,2250.0,-25.0,-16.0,
1895.0,2174.0,-25.0,-17.0,
1959.0,2037.0,-25.0,-18.0,
2165.0,1979.0,-25.0,-18.0,
2139.0,1862.0,-25.0,-17.0,
2205.0,1951.0,-25.0,-17.0,
2128.0,2049.0,-26.0,-17.0,
2213.0,2132.0,-26.0,-17.0,
2011.0,2131.0,-26.0,-17.0,
1768.0,2278.0,-26.0,-17.0,
2100.0,1926.0,-26.0,-16.0,
2346.0,2024.0,-26.0,-15.0,
1890.0,2177.0,-26.0,-16.0,
1984.0,2029.0,-26.0,-16.0,
2314.0,2201.0,-26.0,-17.0,
2242.0,2096.0,-26.0,-18.0,
2100.0,2052.0,-26.0,-18.0,
2095.0,2127.0,-26.0,-18.0,
2061.0,2070.0,-26.0,-17.0,
2010.0,2110.0,-26.0,-17.0,
1996.0,2125.0,-26.0,-17.0,
2137.0,2103.0,-27.0,-17.0,
2102.0,2084.0,-27.0,-17.0,
2015.0,2198.0,-27.0,-17.0,
1986.0,2071.0,-27.0,-17.0,
1998.0,2133.0,-27.0,-16.0,
2056.0,2101.0,-27.0,-16.0,
2018.0,2124.0,-27.0,-16.0,
2097.0,1924.0,-27.0,-17.0,
2003.0,2012.0,-27.0,-18.0,
2106.0,2011.0,-27.0,-17.0,
2047.0,2047.0,-27.0,-17.0,
1961.0,2112.0,-27.0,-17.0,
2036.0,2131.0,-27.0,-17.0,
2116.0,1953.0,-27.0,-17.0,
2250.0,1994.0,-27.0,-17.0,
2039.0,2127.0,-27.0,-17.0,
1992.0,2146.0,-27.0,-17.0,
1991.0,2281.0,-27.0,-16.0,
2080.0,2326.0,-27.0,-16.0,
2002.0,1957.0,-27.0,-17.0,
2294.0,1959.0,-27.0,-17.0,
2229.0,2064.0,-27.0,-17.0,
2137.0,2113.0,-27.0,-17.0,
2103.0,2026.0,-26.0,-17.0,
1989.0,2031.0,-26.0,-17.0,
1907.0,2152.0,-26.0,-17.0,
2300.0,2109.0,-26.0,-18.0,
2116.0,2182.0,-26.0,-18.0,
2116.0,1906.0,-26.0,-19.0,
1990.0,2096.0,-26.0,-19.0,
1959.0,2106.0,-26.0,-18.0,
1930.0,2069.0,-26.0,-18.0,
1906.0,2031.0,-26.0,-17.0,
2057.0,2156.0,-26.0,-17.0,
2148.0,2165.0,-26.0,-17.0,
2136.0,2132.0,-27.0,-17.0,
2123.0,2102.0,-27.0,-17.0,
2060.0,1990.0,-27.0,-17.0,
2135.0,2152.0,-27.0,-15.0,
2128.0,2147.0,-28.0,-16.0,
2004.0,2144.0,-28.0,-16.0,
2091.0,2140.0,-28.0,-17.0,
2063.0,2089.0,-28.0,-17.0,
2071.0,2038.0,-28.0,-18.0,
1926.0,2006.0,-29.0,-19.0,
2009.0,2196.0,-29.0,-18.0,
2032.0,2177.0,-29.0,-18.0,
2141.0,2053.0,-29.0,-17.0,
2317.0,2032.0,-29.0,-17.0,
2185.0,2183.0,-29.0,-17.0,
2003.0,2096.0,-29.0,-17.0,
1978.0,2147.0,-30.0,-17.0,
2028.0,1987.0,-30.0,-17.0,
1997.0,2017.0,-30.0,-16.0,
1848.0,2071.0,-30.0,-15.0,
1928.0,2123.0,-30.0,-16.0,
2187.0,2081.0,-30.0,-16.0,
2300.0,2030.0,-30.0,-17.0,
2314.0,2110.0,-29.0,-17.0,
2252.0,2220.0,-29.0,-17.0,
2148.0,2375.0,-29.0,-17.0,
2073.0,1972.0,-29.0,-17.0,
1998.0,1869.0,-29.0,-17.0,
1882.0,2051.0,-29.0,-17.0,
1960.0,2047.0,-28.0,-18.0,
2188.0,2149.0,-28.0,-18.0,
2123.0,2186.0,-28.0,-18.0,
1917.0,2112.0,-28.0,-17.0,
1921.0,2047.0,-28.0,-17.0,
1947.0,1969.0,-28.0,-17.0,
2063.0,1967.0,-28.0,-17.0,
2288.0,2080.0,-28.0,-17.0,
2037.0,1978.0,-28.0,-17.0,
2033.0,2217.0,-28.0,-17.0,
2030.0,2035.0,-28.0,-16.0,
2047.0,2302.0,-29.0,-16.0,
2090.0,2175.0,-29.0,-16.0,
2129.0,2145.0,-28.0,-17.0,
1842.0,2033.0,-28.0,-17.0,
2016.0,2037.0,-29.0,-17.0,
2119.0,2113.0,-29.0,-17.0,
1921.0,2217.0,-29.0,-17.0,
1869.0,1984.0,-29.0,-17.0,
2302.0,1960.0,-29.0,-17.0,
2127.0,2065.0,-29.0,-17.0,
2124.0,2203.0,-29.0,-17.0,
2222.0,2145.0,-29.0,-17.0,
2235.0,2116.0,-29.0,-17.0,
2208.0,2079.0,-29.0,-17.0,
1958.0,2021.0,-29.0,-17.0,
2064.0,1991.0,-28.0,-17.0,
2170.0,2222.0,-28.0,-17.0,
2148.0,2029.0,-28.0,-17.0,
2012.0,2149.0,-28.0,-17.0,
1942.0,1933.0,-28.0,-17.0,
1922.0,1988.0,-28.0,-17.0,
2132.0,2117.0,-28.0,-18.0,
2098.0,1942.0,-28.0,-18.0,
2078.0,2229.0,-28.0,-18.0,
1917.0,2099.0,-28.0,-18.0,
1970.0,2069.0,-27.0,-18.0,
2228.0,2182.0,-28.0,-18.0,
1949.0,2058.0,-28.0,-18.0,
2012.0,2181.0,-28.0,-19.0,
2226.0,2184.0,-28.0,-19.0,
2031.0,2107.0,-28.0,-19.0,
1893.0,1981.0,-28.0,-18.0,
2111.0,2085.0,-28.0,-17.0,
2117.0,2125.0,-29.0,-17.0,
2099.0,2101.0,-29.0,-17.0,
2130.0,2104.0,-29.0,-17.0,
2091.0,2074.0,-29.0,-17.0,
1957.0,2213.0,-29.0,-17.0,
1992.0,2114.0,-29.0,-16.0,
1858.0,2016.0,-29.0,-15.0,
1825.0,2148.0,-29.0,-16.0,
2077.0,2056.0,-29.0,-17.0,
2456.0,2118.0,-29.0,-17.0,
2251.0,1910.0,-29.0,-17.0,
2024.0,1970.0,-29.0,-17.0,
2159.0,2097.0,-29.0,-17.0,
2383.0,2229.0,-29.0,-17.0,
2252.0,2107.0,-29.0,-17.0,
2030.0,2228.0,-29.0,-17.0,
1810.0,1997.0,-29.0,-17.0,
2020.0,2171.0,-29.0,-17.0,
1975.0,1902.0,-29.0,-17.0,
2103.0,2156.0,-29.0,-17.0,
1970.0,1991.0,-29.0,-17.0,
1870.0,2131.0,-29.0,-17.0,
1834.0,1853.0,-29.0,-17.0,
2212.0,2135.0,-29.0,-17.0,
2097.0,2115.0,-29.0,-17.0,
2179.0,2171.0,-29.0,-17.0,
2063.0,2123.0,-29.0,-19.0,
1899.0,2042.0,-29.0,-19.0,
2107.0,2058.0,-29.0,-19.0,
1984.0,2103.0,-29.0,-18.0,
2017.0,2255.0,-29.0,-18.0,
2042.0,1990.0,-29.0,-17.0,
2142.0,2189.0,-29.0,-17.0,
2145.0,2202.0,-29.0,-18.0,
2241.0,2007.0,-29.0,-18.0,
2262.0,2036.0,-28.0,-17.0,
2157.0,2024.0,-29.0,-16.0,
2095.0,2125.0,-29.0,-16.0,
2109.0,1975.0,-29.0,-16.0,
2169.0,2208.0,-29.0,-17.0,
2088.0,2128.0,-28.0,-18.0,
2069.0,2049.0,-28.0,-18.0,
2083.0,2078.0,-28.0,-19.0,
1996.0,2162.0,-28.0,-19.0,
2016.0,2089.0,-28.0,-19.0,
2052.0,2151.0,-28.0,-18.0,
1952.0,2258.0,-28.0,-18.0,
1855.0,2014.0,-29.0,-17.0,
2212.0,2145.0,-29.0,-17.0,
2103.0,2210.0,-29.0,-17.0,
2210.0,2045.0,-29.0,-17.0,
1994.0,1985.0,-29.0,-17.0,
1861.0,2141.0,-29.0,-16.0,
1874.0,2029.0,-29.0,-16.0,
2067.0,2002.0,-29.0,-16.0,
2152.0,2112.0,-30.0,-17.0,
2206.0,2168.0,-29.0,-18.0,
2047.0,2073.0,-29.0,-18.0,
2052.0,2081.0,-29.0,-18.0,
2047.0,2141.0,-29.0,-18.0,
2114.0,2185.0,-29.0,-18.0,
1833.0,1903.0,-29.0,-18.0,
1946.0,2078.0,-29.0,-18.0,
2175.0,2208.0,-29.0,-18.0,
2162.0,2285.0,-29.0,-18.0,
2249.0,1913.0,-29.0,-18.0,
2007.0,2084.0,-29.0,-18.0,
2035.0,2107.0,-30.0,-18.0,
