2060.0,2101.0,4.0,-13.0,
2094.0,2111.0,4.0,-13.0,
2069.0,2096.0,4.0,-13.0,
2067.0,2095.0,4.0,-13.0,
2077.0,2093.0,4.0,-13.0,
2083.0,2096.0,4.0,-13.0,
2085.0,2079.0,4.0,-13.0,
2047.0,2063.0,4.0,-13.0,
2043.0,2067.0,4.0,-13.0,
2040.0,2083.0,4.0,-13.0,
2065.0,2096.0,4.0,-13.0,
2067.0,2120.0,4.0,-13.0,
2063.0,2099.0,4.0,-13.0,
2075.0,2086.0,4.0,-13.0,
2078.0,2066.0,4.0,-13.0,
2084.0,2081.0,4.0,-13.0,
2053.0,2097.0,4.0,-13.0,
2064.0,2097.0,4.0,-13.0,
2064.0,2082.0,4.0,-13.0,
2081.0,2085.0,4.0,-13.0,
2074.0,2080.0,4.0,-13.0,
2064.0,2076.0,4.0,-13.0,
2060.0,2075.0,4.0,-13.0,
2069.0,2089.0,4.0,-13.0,
2075.0,2116.0,4.0,-13.0,
2063.0,2108.0,4.0,-13.0,
2061.0,2111.0,4.0,-13.0,
2053.0,2100.0,4.0,-13.0,
2088.0,2107.0,4.0,-13.0,
2086.0,2121.0,4.0,-13.0,
2069.0,2117.0,4.0,-13.0,
2075.0,2085.0,4.0,-13.0,
2079.0,2072.0,4.0,-13.0,
2091.0,2051.0,4.0,-13.0,
2053.0,2072.0,4.0,-13.0,
2040.0,2082.0,4.0,-13.0,
2047.0,2094.0,4.0,-13.0,
2080.0,2112.0,4.0,-13.0,
2070.0,2098.0,4.0,-13.0,
2048.0,2057.0,4.0,-13.0,
2052.0,2080.0,4.0,-13.0,
2094.0,2078.0,4.0,-13.0,
2091.0,2091.0,4.0,-13.0,
2049.0,2089.0,4.0,-13.0,
2048.0,2103.0,4.0,-13.0,
2054.0,2097.0,4.0,-13.0,
2084.0,2090.0,4.0,-13.0,
2080.0,2089.0,4.0,-13.0,
2066.0,2091.0,4.0,-13.0,
2050.0,2092.0,4.0,-13.0,
2089.0,2116.0,4.0,-13.0,
2097.0,2084.0,4.0,-13.0,
2051.0,2080.0,4.0,-13.0,
2052.0,2091.0,4.0,-13.0,
2060.0,2089.0,4.0,-13.0,
2072.0,2071.0,4.0,-13.0,
2083.0,2083.0,4.0,-13.0,
2056.0,2087.0,4.0,-13.0,
2070.0,2076.0,4.0,-13.0,
2068.0,2087.0,4.0,-13.0,
2063.0,2086.0,4.0,-13.0,
2053.0,2080.0,4.0,-13.0,
2038.0,2089.0,4.0,-13.0,
2045.0,2104.0,4.0,-13.0,
2074.0,2103.0,4.0,-13.0,
2081.0,2095.0,4.0,-13.0,
2064.0,2102.0,4.0,-13.0,
2068.0,2100.0,4.0,-13.0,
2080.0,2125.0,4.0,-13.0,
2089.0,2112.0,4.0,-13.0,
2066.0,2114.0,4.0,-13.0,
2051.0,2106.0,4.0,-13.0,
2044.0,2023.0,4.0,-13.0,
2064.0,2043.0,4.0,-13.0,
2085.0,2026.0,4.0,-13.0,
2055.0,2060.0,4.0,-13.0,
2064.0,2088.0,4.0,-13.0,
2061.0,2101.0,4.0,-13.0,
2080.0,2117.0,4.0,-13.0,
2080.0,2103.0,4.0,-13.0,
2050.0,2102.0,4.0,-13.0,
2061.0,2094.0,4.0,-13.0,
2109.0,2093.0,4.0,-13.0,
2105.0,2104.0,4.0,-13.0,
2070.0,2102.0,4.0,-13.0,
2076.0,2088.0,4.0,-13.0,
2079.0,2094.0,4.0,-13.0,
2104.0,2101.0,4.0,-13.0,
2061.0,2082.0,4.0,-13.0,
2029.0,2085.0,4.0,-13.0,
2062.0,2088.0,4.0,-13.0,
2067.0,2108.0,4.0,-13.0,
2093.0,2114.0,4.0,-13.0,
2075.0,2094.0,4.0,-13.0,
2069.0,2082.0,4.0,-13.0,
2080.0,2088.0,4.0,-13.0,
2096.0,2095.0,4.0,-13.0,
2065.0,2082.0,4.0,-13.0,
2052.0,2078.0,4.0,-13.0,
2050.0,2079.0,4.0,-13.0,
2078.0,2084.0,4.0,-13.0,
2084.0,2089.0,0,
2063.0,2087.0,4.0,-13.0,
2080.0,2102.0,4.0,-13.0,
2081.0,2091.0,4.0,-13.0,
2090.0,2095.0,4.0,-13.0,
2069.0,2078.0,4.0,-13.0,
2047.0,2072.0,4.0,-13.0,
2052.0,2063.0,4.0,-13.0,
2055.0,2088.0,4.0,-13.0,
2077.0,2092.0,4.0,-13.0,
2065.0,2085.0,4.0,-13.0,
2068.0,2104.0,4.0,-13.0,
2093.0,2111.0,4.0,-13.0,
2124.0,2108.0,4.0,-13.0,
2092.0,2111.0,4.0,-13.0,
2055.0,2092.0,4.0,-13.0,
2055.0,2080.0,4.0,-13.0,
2051.0,2088.0,4.0,-13.0,
2082.0,2088.0,4.0,-13.0,
2061.0,2098.0,4.0,-13.0,
2066.0,2105.0,4.0,-13.0,
2076.0,2083.0,4.0,-13.0,
2083.0,2089.0,4.0,-13.0,
2069.0,2088.0,4.0,-13.0,
2052.0,2063.0,4.0,-13.0,
2049.0,2069.0,4.0,-13.0,
2055.0,2093.0,4.0,-13.0,
2082.0,2099.0,4.0,-13.0,
2063.0,2104.0,4.0,-13.0,
2073.0,2108.0,4.0,-13.0,
2084.0,2102.0,4.0,-13.0,
2084.0,2117.0,4.0,-13.0,
2092.0,2114.0,4.0,-13.0,
2055.0,2092.0,4.0,-13.0,
2046.0,2076.0,4.0,-13.0,
2042.0,2078.0,4.0,-13.0,
2065.0,2065.0,4.0,-13.0,
2061.0,2080.0,4.0,-13.0,
2056.0,2081.0,4.0,-13.0,
2071.0,2087.0,4.0,-13.0,
2089.0,2078.0,4.0,-13.0,
2076.0,2079.0,4.0,-13.0,
2042.0,2081.0,4.0,-13.0,
2049.0,2088.0,4.0,-13.0,
2063.0,2106.0,4.0,-13.0,
2102.0,2108.0,4.0,-13.0,
2076.0,2105.0,4.0,-13.0,
2077.0,2104.0,4.0,-13.0,
2078.0,2095.0,4.0,-13.0,
2093.0,2106.0,4.0,-13.0,
2097.0,2094.0,4.0,-13.0,
2054.0,2098.0,4.0,-13.0,
2055.0,2097.0,4.0,-13.0,
2059.0,2090.0,4.0,-13.0,
2085.0,2091.0,4.0,-13.0,
2064.0,2064.0,4.0,-13.0,
2057.0,2082.0,4.0,-13.0,
2065.0,2088.0,4.0,-13.0,
2110.0,2089.0,4.0,-13.0,
2085.0,2098.0,4.0,-13.0,
2036.0,2092.0,4.0,-13.0,
2046.0,2085.0,4.0,-13.0,
2042.0,2080.0,4.0,-13.0,
2063.0,2095.0,4.0,-13.0,
2060.0,2075.0,4.0,-13.0,
2056.0,2095.0,4.0,-13.0,
2077.0,2106.0,4.0,-13.0,
2092.0,2107.0,4.0,-13.0,
2091.0,2106.0,4.0,-13.0,
2063.0,2112.0,4.0,-13.0,
2067.0,2098.0,4.0,-13.0,
2070.0,2092.0,4.0,-13.0,
2087.0,2094.0,4.0,-13.0,
2072.0,2078.0,4.0,-13.0,
2063.0,2097.0,4.0,-13.0,
2074.0,2101.0,4.0,-13.0,
2083.0,2082.0,4.0,-13.0,
2080.0,2087.0,4.0,-13.0,
2058.0,2092.0,4.0,-13.0,
2055.0,2078.0,4.0,-13.0,
2055.0,2060.0,4.0,-13.0,
2089.0,2058.0,4.0,-13.0,
2074.0,2056.0,4.0,-13.0,
2074.0,2075.0,4.0,-13.0,
2073.0,2112.0,4.0,-13.0,
2096.0,2119.0,4.0,-13.0,
2091.0,2128.0,4.0,-13.0,
2054.0,2084.0,4.0,-13.0,
2053.0,2101.0,4.0,-13.0,
2054.0,2085.0,4.0,-13.0,
2091.0,2088.0,4.0,-13.0,
2085.0,2085.0,4.0,-13.0,
2070.0,2100.0,4.0,-13.0,
2074.0,2094.0,4.0,-13.0,
2094.0,2112.0,4.0,-13.0,
2083.0,2103.0,4.0,-13.0,
2053.0,2083.0,4.0,-13.0,
2053.0,2086.0,4.0,-13.0,
2043.0,2087.0,4.0,-13.0,
2070.0,2095.0,4.0,-13.0,
2075.0,2076.0,4.0,-13.0,
2053.0,2046.0,4.0,-13.0,
2064.0,2079.0,4.0,-13.0,
2073.0,2095.0,4.0,-13.0,
2081.0,2116.0,4.0,-13.0,
2043.0,2107.0,4.0,-13.0,
2031.0,2110.0,4.0,-13.0,
2047.0,2105.0,4.0,-13.0,
2082.0,2111.0,4.0,-13.0,
2074.0,2101.0,4.0,-13.0,
2056.0,2093.0,4.0,-13.0,
2059.0,2083.0,4.0,-13.0,
2046.0,2092.0,4.0,-13.0,
2099.0,2097.0,4.0,-13.0,
2059.0,2090.0,4.0,-13.0,
2067.0,2089.0,4.0,-13.0,
2072.0,2086.0,5.0,-13.0,
2089.0,2089.0,5.0,-13.0,
2086.0,2092.0,5.0,-13.0,
2066.0,2094.0,5.0,-13.0,
2090.0,2088.0,5.0,-13.0,
2078.0,2083.0,5.0,-13.0,
2093.0,2100.0,5.0,-13.0,
2068.0,2087.0,5.0,-13.0,
2046.0,2097.0,5.0,-13.0,
2050.0,2085.0,5.0,-13.0,
2066.0,2106.0,5.0,-13.0,
2076.0,2084.0,5.0,-13.0,
2058.0,2085.0,5.0,-13.0,
2063.0,2099.0,5.0,-13.0,
2081.0,2087.0,5.0,-13.0,
2087.0,2088.0,5.0,-13.0,
2060.0,2092.0,5.0,-13.0,
2043.0,2103.0,5.0,-13.0,
2044.0,2105.0,5.0,-13.0,
2071.0,2104.0,5.0,-13.0,
2083.0,2091.0,5.0,-13.0,
2058.0,2102.0,5.0,-13.0,
2061.0,2102.0,4.0,-13.0,
2073.0,2091.0,4.0,-13.0,
2101.0,2069.0,4.0,-13.0,
2071.0,2079.0,5.0,-13.0,
2063.0,2096.0,5.0,-13.0,
2045.0,2097.0,4.0,-13.0,
2074.0,2116.0,4.0,-13.0,
2081.0,2075.0,4.0,-13.0,
2061.0,2086.0,4.0,-13.0,
2066.0,2076.0,4.0,-13.0,
2075.0,2091.0,4.0,-13.0,
2063.0,2097.0,4.0,-13.0,
2045.0,2099.0,4.0,-13.0,
2033.0,2085.0,4.0,-13.0,
2033.0,2059.0,4.0,-13.0,
2056.0,2076.0,4.0,-13.0,
2082.0,2093.0,4.0,-13.0,
2064.0,2078.0,4.0,-13.0,
2083.0,2096.0,4.0,-13.0,
2072.0,2083.0,4.0,-13.0,
2079.0,2081.0,4.0,-13.0,
2063.0,2093.0,4.0,-13.0,
2043.0,2115.0,4.0,-13.0,
2063.0,2097.0,4.0,-13.0,
2080.0,2116.0,4.0,-13.0,
2094.0,2102.0,4.0,-13.0,
2067.0,2081.0,4.0,-13.0,
2081.0,2073.0,4.0,-13.0,
2085.0,2095.0,4.0,-13.0,
2093.0,2090.0,4.0,-13.0,
2073.0,2094.0,4.0,-13.0,
2053.0,2100.0,4.0,-13.0,
2058.0,2085.0,4.0,-13.0,
2087.0,2082.0,4.0,-13.0,
2081.0,2106.0,4.0,-13.0,
2082.0,2097.0,4.0,-13.0,
2078.0,2095.0,4.0,-13.0,
2077.0,2068.0,4.0,-13.0,
2094.0,2084.0,4.0,-13.0,
2067.0,2091.0,4.0,-13.0,
2039.0,2072.0,4.0,-13.0,
2053.0,2091.0,4.0,-13.0,
2073.0,2073.0,4.0,-13.0,
2091.0,2066.0,4.0,-13.0,
2048.0,2068.0,4.0,-13.0,
2064.0,2077.0,4.0,-13.0,
2075.0,2086.0,4.0,-13.0,
2080.0,2098.0,4.0,-13.0,
2080.0,2091.0,4.0,-13.0,
2051.0,2092.0,4.0,-13.0,
2047.0,2090.0,4.0,-13.0,
2043.0,2101.0,4.0,-13.0,
2089.0,2103.0,4.0,-13.0,
2081.0,2119.0,4.0,-13.0,
2081.0,2102.0,4.0,-13.0,
2078.0,2099.0,4.0,-13.0,
2094.0,2122.0,4.0,-13.0,
2083.0,2085.0,4.0,-13.0,
2045.0,2045.0,4.0,-13.0,
2043.0,2033.0,4.0,-13.0,
2052.0,2078.0,4.0,-13.0,
2063.0,2082.0,0,
2060.0,2107.0,5.0,-13.0,
2100.0,2114.0,4.0,-13.0,
2084.0,2095.0,4.0,-13.0,
2080.0,2099.0,4.0,-13.0,
2070.0,2082.0,4.0,-13.0,
2038.0,2078.0,4.0,-13.0,
2054.0,2078.0,4.0,-13.0,
2070.0,2081.0,4.0,-13.0,
2067.0,2082.0,4.0,-13.0,
2071.0,2081.0,5.0,-13.0,
2092.0,2104.0,5.0,-13.0,
2085.0,2110.0,5.0,-13.0,
2045.0,2105.0,5.0,-13.0,
2036.0,2077.0,5.0,-13.0,
2059.0,2084.0,5.0,-13.0,
2083.0,2091.0,5.0,-13.0,
2073.0,2085.0,5.0,-13.0,
2071.0,2085.0,5.0,-13.0,
2071.0,2078.0,5.0,-13.0,
2080.0,2080.0,5.0,-13.0,
2077.0,2104.0,5.0,-13.0,
2050.0,2093.0,5.0,-13.0,
2042.0,2062.0,4.0,-13.0,
2052.0,2067.0,4.0,-13.0,
2092.0,2078.0,4.0,-13.0,
2058.0,2062.0,4.0,-13.0,
2061.0,2093.0,4.0,-13.0,
2064.0,2097.0,4.0,-13.0,
2087.0,2116.0,4.0,-13.0,
2086.0,2104.0,4.0,-13.0,
2055.0,2089.0,4.0,-13.0,
2054.0,2080.0,4.0,-13.0,
2043.0,2075.0,4.0,-13.0,
2076.0,2107.0,4.0,-13.0,
2068.0,2097.0,4.0,-13.0,
2064.0,2095.0,4.0,-13.0,
2075.0,2057.0,4.0,-13.0,
2100.0,2060.0,4.0,-13.0,
2082.0,2075.0,4.0,-13.0,
2037.0,2071.0,4.0,-13.0,
2036.0,2088.0,4.0,-13.0,
2053.0,2104.0,4.0,-13.0,
2078.0,2089.0,4.0,-13.0,
2056.0,2100.0,4.0,-13.0,
2075.0,2108.0,4.0,-13.0,
2074.0,2086.0,4.0,-13.0,
2077.0,2115.0,4.0,-13.0,
2076.0,2113.0,4.0,-13.0,
2051.0,2130.0,4.0,-13.0,
2035.0,2091.0,4.0,-13.0,
2048.0,2082.0,4.0,-13.0,
2073.0,2102.0,4.0,-13.0,
2065.0,2089.0,4.0,-13.0,
2058.0,2093.0,4.0,-13.0,
2078.0,2084.0,4.0,-13.0,
2111.0,2074.0,4.0,-13.0,
2105.0,2118.0,4.0,-13.0,
2061.0,2086.0,4.0,-13.0,
2058.0,2096.0,4.0,-13.0,
2056.0,2080.0,4.0,-13.0,
2041.0,2089.0,4.0,-13.0,
2078.0,2073.0,4.0,-13.0,
2067.0,2066.0,4.0,-13.0,
2073.0,2098.0,4.0,-13.0,
2085.0,2109.0,4.0,-13.0,
2097.0,2104.0,4.0,-13.0,
2047.0,2090.0,4.0,-13.0,
2032.0,2067.0,4.0,-13.0,
2043.0,2090.0,4.0,-13.0,
2072.0,2126.0,4.0,-13.0,
2066.0,2077.0,4.0,-13.0,
2069.0,2052.0,4.0,-13.0,
2078.0,2083.0,4.0,-13.0,
2086.0,2097.0,4.0,-13.0,
2086.0,2103.0,4.0,-13.0,
2046.0,2088.0,4.0,-13.0,
2040.0,2071.0,4.0,-13.0,
2049.0,2061.0,4.0,-13.0,
2066.0,2110.0,4.0,-13.0,
2067.0,2097.0,4.0,-13.0,
2058.0,2087.0,4.0,-13.0,
2073.0,2090.0,5.0,-13.0,
2086.0,2104.0,5.0,-13.0,
2084.0,2099.0,5.0,-13.0,
2060.0,2093.0,5.0,-13.0,
2040.0,2093.0,5.0,-13.0,
2049.0,2098.0,5.0,-13.0,
2075.0,2127.0,5.0,-13.0,
2092.0,2093.0,5.0,-13.0,
2062.0,2072.0,5.0,-13.0,
2082.0,2097.0,5.0,-13.0,
2089.0,2095.0,5.0,-13.0,
2095.0,2101.0,5.0,-13.0,
2079.0,2099.0,5.0,-13.0,
2076.0,2095.0,4.0,-13.0,
2059.0,2079.0,4.0,-13.0,
2069.0,2075.0,4.0,-13.0,
2065.0,2098.0,4.0,-13.0,
2061.0,2089.0,4.0,-13.0,
2063.0,2083.0,4.0,-13.0,
2075.0,2080.0,4.0,-13.0,
2090.0,2114.0,4.0,-13.0,
2045.0,2090.0,4.0,-13.0,
2034.0,2088.0,4.0,-13.0,
2027.0,2076.0,4.0,-13.0,
2068.0,2105.0,4.0,-13.0,
2078.0,2094.0,4.0,-13.0,
2057.0,2100.0,4.0,-13.0,
2068.0,2103.0,4.0,-13.0,
2066.0,2091.0,4.0,-13.0,
2076.0,2099.0,4.0,-13.0,
2037.0,2071.0,4.0,-13.0,
2042.0,2071.0,4.0,-13.0,
2052.0,2084.0,4.0,-13.0,
2078.0,2088.0,4.0,-13.0,
2081.0,2070.0,4.0,-13.0,
2066.0,2084.0,4.0,-13.0,
2079.0,2090.0,4.0,-13.0,
2077.0,2090.0,4.0,-13.0,
2089.0,2088.0,4.0,-13.0,
2057.0,2088.0,4.0,-13.0,
2050.0,2102.0,4.0,-13.0,
2055.0,2078.0,4.0,-13.0,
2061.0,2080.0,4.0,-13.0,
2084.0,2090.0,4.0,-13.0,
2059.0,2084.0,4.0,-13.0,
2065.0,2092.0,4.0,-13.0,
2073.0,2074.0,4.0,-13.0,
2086.0,2098.0,4.0,-13.0,
2057.0,2123.0,4.0,-13.0,
2057.0,2100.0,4.0,-13.0,
2064.0,2105.0,4.0,-13.0,
2075.0,2101.0,4.0,-13.0,
2096.0,2097.0,4.0,-13.0,
2071.0,2095.0,4.0,-13.0,
2071.0,2083.0,4.0,-13.0,
2075.0,2084.0,0,
2090.0,2082.0,4.0,-13.0,
2068.0,2071.0,4.0,-13.0,
2051.0,2078.0,4.0,-13.0,
2058.0,2085.0,4.0,-13.0,
2069.0,2086.0,4.0,-13.0,
2096.0,2086.0,4.0,-13.0,
2062.0,2096.0,4.0,-13.0,
2082.0,2113.0,4.0,-13.0,
2082.0,2090.0,4.0,-13.0,
2098.0,2077.0,4.0,-13.0,
2074.0,2061.0,4.0,-13.0,
2051.0,2069.0,4.0,-13.0,
2053.0,2087.0,4.0,-13.0,
2048.0,2104.0,4.0,-13.0,
2090.0,2119.0,4.0,-13.0,
2064.0,2112.0,4.0,-13.0,
2073.0,2093.0,4.0,-13.0,
2071.0,2074.0,4.0,-13.0,
2098.0,2090.0,4.0,-13.0,
2059.0,2085.0,5.0,-13.0,
2051.0,2080.0,5.0,-13.0,
2062.0,2092.0,5.0,-13.0,
2075.0,2091.0,5.0,-13.0,
2091.0,2084.0,4.0,-13.0,
2056.0,2094.0,4.0,-13.0,
2061.0,2092.0,4.0,-13.0,
2081.0,2065.0,4.0,-13.0,
2087.0,2053.0,4.0,-13.0,
2072.0,2095.0,4.0,-13.0,
2043.0,2082.0,4.0,-13.0,
2038.0,2060.0,4.0,-13.0,
2057.0,2090.0,4.0,-13.0,
2074.0,2089.0,4.0,-13.0,
2059.0,2090.0,4.0,-13.0,
2084.0,2104.0,4.0,-13.0,
2101.0,2113.0,4.0,-13.0,
2088.0,2103.0,4.0,-13.0,
2065.0,2077.0,4.0,-13.0,
2037.0,2069.0,4.0,-13.0,
2038.0,2077.0,4.0,-13.0,
2049.0,2084.0,4.0,-13.0,
2075.0,2081.0,4.0,-13.0,
2059.0,2095.0,4.0,-13.0,
2074.0,2099.0,4.0,-13.0,
2073.0,2103.0,4.0,-13.0,
2092.0,2153.0,4.0,-13.0,
2083.0,2109.0,4.0,-13.0,
2039.0,2093.0,4.0,-13.0,
2046.0,2074.0,4.0,-13.0,
2052.0,2072.0,4.0,-13.0,
2074.0,2078.0,4.0,-13.0,
2059.0,2071.0,4.0,-13.0,
2055.0,2068.0,4.0,-13.0,
2074.0,2080.0,4.0,-13.0,
2053.0,2087.0,4.0,-13.0,
2061.0,2094.0,4.0,-13.0,
2039.0,2090.0,4.0,-13.0,
2046.0,2105.0,4.0,-13.0,
2065.0,2103.0,4.0,-13.0,
2075.0,2105.0,4.0,-13.0,
2056.0,2086.0,4.0,-13.0,
2060.0,2086.0,4.0,-13.0,
2088.0,2098.0,4.0,-13.0,
2094.0,2097.0,4.0,-13.0,
2090.0,2105.0,4.0,-13.0,
2051.0,2104.0,4.0,-13.0,
2051.0,2104.0,4.0,-13.0,
2055.0,2080.0,4.0,-13.0,
2080.0,2100.0,4.0,-13.0,
2063.0,2106.0,4.0,-13.0,
2091.0,2096.0,4.0,-13.0,
2091.0,2084.0,4.0,-13.0,
2098.0,2078.0,4.0,-13.0,
2091.0,2072.0,4.0,-13.0,
2051.0,2031.0,4.0,-13.0,
2047.0,2080.0,4.0,-13.0,
2057.0,2094.0,4.0,-13.0,
2090.0,2100.0,4.0,-13.0,
2071.0,2091.0,4.0,-13.0,
2051.0,2087.0,4.0,-13.0,
2080.0,2080.0,4.0,-13.0,
2076.0,2095.0,4.0,-13.0,
2063.0,2089.0,4.0,-13.0,
2046.0,2092.0,4.0,-13.0,
2050.0,2087.0,4.0,-13.0,
2053.0,2079.0,4.0,-13.0,
2082.0,2098.0,4.0,-13.0,
2080.0,2106.0,4.0,-13.0,
2070.0,2100.0,5.0,-13.0,
2073.0,2090.0,5.0,-13.0,
2081.0,2079.0,5.0,-13.0,
2080.0,2036.0,5.0,-13.0,
2056.0,2074.0,5.0,-13.0,
2052.0,2069.0,5.0,-13.0,
2061.0,2093.0,5.0,-13.0,
2091.0,2110.0,4.0,-13.0,
2069.0,2092.0,4.0,-13.0,
2064.0,2095.0,4.0,-13.0,
2079.0,2099.0,0,
2092.0,2112.0,4.0,-13.0,
2095.0,2114.0,4.0,-13.0,
2051.0,2079.0,4.0,-13.0,
2051.0,2090.0,4.0,-13.0,
2048.0,2088.0,4.0,-13.0,
2079.0,2086.0,4.0,-13.0,
2059.0,2066.0,4.0,-13.0,
2058.0,2088.0,4.0,-13.0,
2064.0,2093.0,4.0,-13.0,
2087.0,2087.0,4.0,-13.0,
2087.0,2094.0,4.0,-13.0,
2046.0,2085.0,4.0,-13.0,
2040.0,2078.0,4.0,-13.0,
2049.0,2066.0,4.0,-13.0,
2069.0,2087.0,4.0,-13.0,
2055.0,2074.0,4.0,-13.0,
2053.0,2075.0,4.0,-13.0,
2067.0,2095.0,4.0,-13.0,
2071.0,2125.0,0,
2090.0,2123.0,4.0,-13.0,
2069.0,2117.0,4.0,-13.0,
2063.0,2106.0,4.0,-13.0,
2043.0,2081.0,4.0,-13.0,
2067.0,2080.0,4.0,-13.0,
2056.0,2081.0,4.0,-13.0,
2045.0,2086.0,4.0,-13.0,
2062.0,2090.0,4.0,-13.0,
2081.0,2089.0,4.0,-13.0,
2076.0,2082.0,4.0,-13.0,
2043.0,2080.0,4.0,-13.0,
2037.0,2083.0,4.0,-13.0,
2047.0,2088.0,4.0,-13.0,
2072.0,2094.0,4.0,-13.0,
2060.0,2067.0,4.0,-13.0,
2068.0,2067.0,4.0,-13.0,
2069.0,2076.0,4.0,-13.0,
2072.0,2086.0,4.0,-13.0,
2111.0,2107.0,4.0,-13.0,
2068.0,2098.0,4.0,-13.0,
2059.0,2097.0,4.0,-13.0,
2065.0,2108.0,4.0,-13.0,
2092.0,2096.0,4.0,-13.0,
2080.0,2072.0,4.0,-13.0,
2076.0,2062.0,4.0,-13.0,
2085.0,2083.0,4.0,-13.0,
2089.0,2088.0,4.0,-13.0,
2111.0,2097.0,4.0,-13.0,
2066.0,2092.0,4.0,-13.0,
2060.0,2102.0,4.0,-13.0,
2055.0,2108.0,4.0,-13.0,
2076.0,2110.0,4.0,-13.0,
2083.0,2053.0,4.0,-13.0,
2067.0,2061.0,4.0,-13.0,
2061.0,2054.0,4.0,-13.0,
2085.0,2093.0,4.0,-13.0,
2076.0,2144.0,4.0,-13.0,
2056.0,2101.0,4.0,-13.0,
2055.0,2109.0,4.0,-13.0,
2054.0,2090.0,4.0,-13.0,
2081.0,2081.0,4.0,-13.0,
2068.0,2069.0,4.0,-13.0,
2057.0,2088.0,4.0,-13.0,
2070.0,2054.0,4.0,-13.0,
2067.0,2096.0,4.0,-13.0,
2072.0,2104.0,4.0,-13.0,
2052.0,2093.0,4.0,-13.0,
2057.0,2099.0,4.0,-13.0,
2045.0,2094.0,4.0,-13.0,
2074.0,2091.0,4.0,-13.0,
2097.0,2087.0,4.0,-13.0,
2064.0,2086.0,4.0,-13.0,
2068.0,2111.0,4.0,-13.0,
2083.0,2086.0,4.0,-13.0,
2106.0,2095.0,4.0,-13.0,
2067.0,2070.0,4.0,-13.0,
2045.0,2058.0,4.0,-13.0,
2030.0,2053.0,4.0,-13.0,
2056.0,2072.0,4.0,-13.0,
2066.0,2093.0,4.0,-13.0,
2054.0,2115.0,4.0,-13.0,
2052.0,2123.0,4.0,-13.0,
2068.0,2121.0,4.0,-13.0,
2102.0,2114.0,4.0,-13.0,
2058.0,2080.0,0,
2049.0,2067.0,4.0,-13.0,
2059.0,2076.0,4.0,-13.0,
2063.0,2086.0,4.0,-13.0,
2077.0,2084.0,4.0,-13.0,
2076.0,2090.0,4.0,-13.0,
2064.0,2092.0,4.0,-13.0,
2098.0,2085.0,4.0,-13.0,
2106.0,2091.0,4.0,-13.0,
2062.0,2084.0,4.0,-13.0,
2035.0,2084.0,4.0,-13.0,
2041.0,2080.0,4.0,-13.0,
2066.0,2091.0,4.0,-13.0,
2079.0,2086.0,4.0,-13.0,
2057.0,2096.0,4.0,-13.0,
2066.0,2104.0,4.0,-13.0,
2070.0,2100.0,4.0,-13.0,
2085.0,2084.0,4.0,-13.0,
2060.0,2074.0,4.0,-13.0,
2050.0,2083.0,4.0,-13.0,
2049.0,2081.0,4.0,-13.0,
2071.0,2094.0,4.0,-13.0,
2083.0,2100.0,4.0,-13.0,
2051.0,2099.0,4.0,-13.0,
2070.0,2095.0,4.0,-13.0,
2069.0,2074.0,4.0,-13.0,
2088.0,2090.0,4.0,-13.0,
2071.0,2089.0,4.0,-13.0,
2047.0,2092.0,4.0,-13.0,
2054.0,2091.0,4.0,-13.0,
2065.0,2093.0,4.0,-13.0,
2086.0,2089.0,4.0,-13.0,
2063.0,2092.0,4.0,-13.0,
2062.0,2104.0,4.0,-13.0,
2076.0,2115.0,4.0,-13.0,
2105.0,2107.0,4.0,-13.0,
2067.0,2088.0,4.0,-13.0,
2048.0,2090.0,4.0,-13.0,
2048.0,2076.0,4.0,-13.0,
2060.0,2079.0,4.0,-13.0,
2089.0,2058.0,4.0,-13.0,
2063.0,2075.0,4.0,-13.0,
2062.0,2084.0,4.0,-13.0,
2077.0,2104.0,4.0,-13.0,
2093.0,2133.0,4.0,-13.0,
2075.0,2114.0,4.0,-13.0,
2065.0,2090.0,4.0,-13.0,
2048.0,2068.0,4.0,-13.0,
2055.0,2083.0,4.0,-13.0,
2071.0,2087.0,4.0,-13.0,
2054.0,2074.0,4.0,-13.0,
2058.0,2080.0,4.0,-13.0,
2070.0,2064.0,4.0,-13.0,
2086.0,2087.0,4.0,-13.0,
2069.0,2081.0,4.0,-13.0,
2032.0,2086.0,4.0,-13.0,
2048.0,2129.0,4.0,-13.0,
2084.0,2102.0,4.0,-13.0,
2101.0,2124.0,4.0,-13.0,
2082.0,2090.0,4.0,-13.0,
2075.0,2084.0,4.0,-13.0,
2083.0,2080.0,4.0,-13.0,
2095.0,2106.0,5.0,-13.0,
2077.0,2090.0,5.0,-13.0,
2040.0,2091.0,5.0,-13.0,
2060.0,2096.0,5.0,-13.0,
2078.0,2101.0,5.0,-13.0,
2087.0,2096.0,5.0,-13.0,
2061.0,2080.0,4.0,-13.0,
2066.0,2080.0,4.0,-13.0,
2075.0,2065.0,4.0,-13.0,
2093.0,2087.0,4.0,-13.0,
2075.0,2085.0,4.0,-13.0,
2048.0,2080.0,4.0,-13.0,
2036.0,2092.0,4.0,-13.0,
2043.0,2087.0,4.0,-13.0,
2069.0,2084.0,4.0,-13.0,
2046.0,2065.0,4.0,-13.0,
2062.0,2078.0,4.0,-13.0,
2064.0,2096.0,4.0,-13.0,
2056.0,2090.0,4.0,-13.0,
2099.0,2105.0,4.0,-13.0,
2043.0,2095.0,4.0,-13.0,
2048.0,2106.0,4.0,-13.0,
2061.0,2104.0,4.0,-13.0,
2094.0,2113.0,4.0,-13.0,
2068.0,2109.0,4.0,-13.0,
2055.0,2103.0,4.0,-13.0,
2075.0,2090.0,4.0,-13.0,
2093.0,2078.0,4.0,-13.0,
2073.0,2083.0,4.0,-13.0,
2075.0,2092.0,4.0,-13.0,
2049.0,2093.0,4.0,-13.0,
2038.0,2099.0,4.0,-13.0,
2073.0,2083.0,4.0,-13.0,
2052.0,2040.0,4.0,-13.0,
2054.0,2046.0,4.0,-13.0,
2068.0,2064.0,4.0,-13.0,
2085.0,2088.0,4.0,-13.0,
2081.0,2117.0,4.0,-13.0,
2044.0,2114.0,4.0,-13.0,
2049.0,2111.0,4.0,-13.0,
2056.0,2097.0,4.0,-13.0,
2071.0,2110.0,4.0,-13.0,
2074.0,2105.0,4.0,-13.0,
2070.0,2082.0,4.0,-13.0,
2063.0,2105.0,4.0,-13.0,
2078.0,2125.0,4.0,-13.0,
2079.0,2098.0,4.0,-13.0,
2035.0,2061.0,4.0,-13.0,
2041.0,2080.0,4.0,-13.0,
2056.0,2081.0,4.0,-13.0,
2082.0,2102.0,4.0,-13.0,
2064.0,2085.0,4.0,-13.0,
2066.0,2100.0,4.0,-13.0,
2061.0,2088.0,4.0,-13.0,
2088.0,2093.0,4.0,-13.0,
2075.0,2067.0,4.0,-13.0,
2056.0,2047.0,4.0,-13.0,
2051.0,2092.0,4.0,-13.0,
2051.0,2063.0,4.0,-13.0,
2097.0,2110.0,4.0,-13.0,
2094.0,2104.0,4.0,-13.0,
2088.0,2122.0,4.0,-13.0,
2091.0,2091.0,4.0,-13.0,
2079.0,2058.0,4.0,-13.0,
2084.0,2091.0,4.0,-13.0,
2044.0,2108.0,4.0,-13.0,
2062.0,2117.0,4.0,-13.0,
2053.0,2083.0,4.0,-13.0,
2073.0,2070.0,4.0,-13.0,
2069.0,2076.0,4.0,-13.0,
2061.0,2088.0,4.0,-13.0,
2068.0,2090.0,4.0,-13.0,
2075.0,2092.0,5.0,-13.0,
2062.0,2108.0,5.0,-13.0,
2048.0,2101.0,5.0,-13.0,
2046.0,2125.0,5.0,-13.0,
2012.0,2098.0,5.0,-13.0,
2058.0,2073.0,5.0,-13.0,
2055.0,2080.0,0,
2053.0,2054.0,5.0,-13.0,
2058.0,2081.0,5.0,-13.0,
2076.0,2037.0,5.0,-13.0,
2085.0,2162.0,5.0,-13.0,
2048.0,2096.0,5.0,-13.0,
2040.0,2041.0,4.0,-13.0,
2041.0,2045.0,5.0,-13.0,
2076.0,2093.0,5.0,-13.0,
2071.0,2120.0,5.0,-13.0,
2072.0,2114.0,5.0,-13.0,
2095.0,2124.0,5.0,-13.0,
2096.0,2123.0,5.0,-13.0,
2091.0,2082.0,5.0,-13.0,
2065.0,2089.0,5.0,-13.0,
2054.0,2092.0,5.0,-13.0,
2051.0,2060.0,5.0,-13.0,
2081.0,2112.0,5.0,-13.0,
2070.0,2121.0,5.0,-13.0,
2058.0,2097.0,5.0,-13.0,
2066.0,2094.0,5.0,-13.0,
2076.0,2085.0,5.0,-13.0,
2116.0,2101.0,5.0,-13.0,
2061.0,2110.0,5.0,-13.0,
2040.0,2095.0,5.0,-13.0,
2053.0,2088.0,5.0,-13.0,
2070.0,2054.0,5.0,-13.0,
2071.0,2050.0,5.0,-13.0,
2069.0,2042.0,5.0,-13.0,
2075.0,2064.0,4.0,-13.0,
2091.0,2094.0,4.0,-13.0,
2090.0,2085.0,4.0,-13.0,
2056.0,2058.0,4.0,-13.0,
2039.0,2067.0,4.0,-13.0,
2053.0,2079.0,4.0,-13.0,
2077.0,2116.0,4.0,-13.0,
2092.0,2097.0,4.0,-13.0,
2071.0,2102.0,4.0,-13.0,
2071.0,2138.0,4.0,-13.0,
2087.0,2122.0,4.0,-13.0,
2081.0,2079.0,4.0,-13.0,
2067.0,2092.0,4.0,-13.0,
2052.0,2110.0,4.0,-13.0,
2045.0,2093.0,4.0,-13.0,
2072.0,2141.0,4.0,-13.0,
2086.0,2124.0,4.0,-13.0,
2066.0,2132.0,4.0,-13.0,
2067.0,2130.0,4.0,-13.0,
2044.0,2049.0,4.0,-13.0,
2053.0,2043.0,4.0,-13.0,
2036.0,2021.0,4.0,-13.0,
2044.0,2069.0,4.0,-13.0,
2054.0,2122.0,4.0,-13.0,
2100.0,2161.0,4.0,-13.0,
2085.0,2093.0,4.0,-13.0,
2065.0,2079.0,4.0,-13.0,
2069.0,2107.0,4.0,-13.0,
2091.0,2106.0,4.0,-13.0,
2094.0,2101.0,4.0,-13.0,
2053.0,2132.0,4.0,-13.0,
2056.0,2107.0,4.0,-13.0,
2050.0,2050.0,4.0,-13.0,
2073.0,2043.0,5.0,-13.0,
2075.0,2082.0,5.0,-13.0,
2065.0,2065.0,5.0,-13.0,
2074.0,2080.0,4.0,-13.0,
2108.0,2043.0,4.0,-13.0,
2108.0,2102.0,4.0,-13.0,
2078.0,2069.0,4.0,-13.0,
2037.0,2072.0,4.0,-13.0,
2039.0,2124.0,4.0,-13.0,
2058.0,2129.0,4.0,-13.0,
2058.0,2087.0,4.0,-13.0,
2065.0,2135.0,4.0,-13.0,
2076.0,2114.0,4.0,-13.0,
2075.0,2089.0,4.0,-13.0,
2133.0,2087.0,4.0,-13.0,
2115.0,2072.0,5.0,-13.0,
2081.0,2090.0,5.0,-13.0,
2045.0,2113.0,5.0,-13.0,
2076.0,2089.0,5.0,-13.0,
2094.0,2101.0,5.0,-13.0,
2054.0,2087.0,5.0,-13.0,
2063.0,2098.0,5.0,-13.0,
2060.0,2165.0,5.0,-13.0,
2083.0,2148.0,5.0,-13.0,
2116.0,2062.0,5.0,-13.0,
2052.0,2057.0,5.0,-12.0,
2042.0,2034.0,5.0,-12.0,
2055.0,2037.0,5.0,-12.0,
2052.0,2069.0,5.0,-12.0,
2047.0,2137.0,0,
2092.0,2137.0,4.0,-12.0,
2128.0,2103.0,4.0,-12.0,
2152.0,2107.0,4.0,-13.0,
2064.0,2063.0,4.0,-13.0,
2031.0,2040.0,4.0,-13.0,
2037.0,2043.0,3.0,-13.0,
2129.0,2094.0,3.0,-13.0,
2109.0,2150.0,3.0,-13.0,
2072.0,2051.0,3.0,-13.0,
2069.0,2095.0,3.0,-13.0,
2079.0,2090.0,3.0,-13.0,
2074.0,2091.0,3.0,-13.0,
2043.0,2064.0,3.0,-13.0,
2025.0,2081.0,3.0,-13.0,
2045.0,2105.0,3.0,-13.0,
2047.0,2132.0,3.0,-13.0,
2133.0,2161.0,2.0,-13.0,
2077.0,2116.0,2.0,-13.0,
2048.0,2086.0,2.0,-13.0,
2058.0,2040.0,2.0,-13.0,
2088.0,2073.0,2.0,-13.0,
2071.0,2103.0,2.0,-13.0,
2055.0,2035.0,2.0,-13.0,
2063.0,2086.0,2.0,-13.0,
2048.0,2118.0,2.0,-13.0,
2091.0,2111.0,2.0,-13.0,
2075.0,2104.0,2.0,-13.0,
2084.0,2101.0,2.0,-13.0,
2094.0,2045.0,2.0,-13.0,
2093.0,2040.0,2.0,-13.0,
2074.0,2085.0,2.0,-13.0,
2038.0,2154.0,2.0,-13.0,
2035.0,2049.0,2.0,-13.0,
2052.0,2107.0,2.0,-13.0,
2057.0,2085.0,2.0,-13.0,
2062.0,2050.0,2.0,-13.0,
2105.0,2066.0,2.0,-13.0,
2099.0,2060.0,2.0,-13.0,
2090.0,2126.0,2.0,-13.0,
2081.0,2095.0,3.0,-13.0,
2063.0,2198.0,3.0,-13.0,
2060.0,2173.0,3.0,-13.0,
2043.0,2127.0,3.0,-13.0,
2070.0,2138.0,3.0,-13.0,
2021.0,2089.0,3.0,-13.0,
2020.0,2005.0,3.0,-13.0,
2080.0,2090.0,4.0,-13.0,
2129.0,2102.0,4.0,-13.0,
2096.0,2019.0,4.0,-13.0,
2057.0,2036.0,4.0,-13.0,
2044.0,2056.0,4.0,-13.0,
2049.0,2084.0,5.0,-13.0,
2082.0,2124.0,5.0,-13.0,
2085.0,2152.0,5.0,-13.0,
2063.0,2139.0,5.0,-13.0,
2061.0,2058.0,5.0,-13.0,
2071.0,2038.0,5.0,-13.0,
2082.0,2086.0,5.0,-13.0,
2038.0,2133.0,4.0,-13.0,
2038.0,2113.0,4.0,-13.0,
2036.0,2081.0,4.0,-13.0,
2056.0,2040.0,3.0,-13.0,
2049.0,2079.0,3.0,-13.0,
2051.0,2051.0,2.0,-13.0,
2042.0,2088.0,2.0,-13.0,
2107.0,2103.0,2.0,-13.0,
2119.0,2117.0,1.0,-13.0,
2042.0,2097.0,1.0,-13.0,
2081.0,2109.0,0.0,-13.0,
2113.0,2196.0,0.0,-13.0,
2121.0,2196.0,0.0,-13.0,
2056.0,2041.0,-1.0,-13.0,
2052.0,1975.0,-2.0,-13.0,
2068.0,2077.0,-2.0,-13.0,
2079.0,2115.0,-3.0,-13.0,
2088.0,2066.0,-3.0,-13.0,
2091.0,2119.0,-3.0,-13.0,
2081.0,2073.0,-4.0,-13.0,
2067.0,2002.0,-4.0,-13.0,
2073.0,2145.0,-3.0,-13.0,
2059.0,2120.0,-3.0,-13.0,
2030.0,2102.0,-3.0,-13.0,
2008.0,2040.0,-3.0,-13.0,
2069.0,2178.0,-3.0,-13.0,
2116.0,2094.0,-2.0,-13.0,
2091.0,2125.0,-2.0,-13.0,
2112.0,2094.0,-2.0,-13.0,
2048.0,2163.0,-2.0,-13.0,
2048.0,2112.0,-1.0,-13.0,
2048.0,2041.0,-1.0,-13.0,
2076.0,2037.0,-1.0,-13.0,
2059.0,2185.0,-1.0,-13.0,
2091.0,2069.0,-1.0,-13.0,
2115.0,2034.0,-1.0,-13.0,
2039.0,2035.0,-1.0,-13.0,
2039.0,1999.0,-1.0,-13.0,
2088.0,2096.0,-1.0,-13.0,
2127.0,2058.0,-1.0,-13.0,
2134.0,2053.0,-1.0,-13.0,
2088.0,2100.0,-1.0,-13.0,
2074.0,2123.0,-1.0,-13.0,
2065.0,2121.0,-2.0,-13.0,
2063.0,2136.0,-2.0,-13.0,
2031.0,2106.0,-2.0,-13.0,
2020.0,2092.0,-2.0,-13.0,
2080.0,2108.0,-2.0,-13.0,
2106.0,2047.0,-2.0,-13.0,
2065.0,2027.0,-2.0,-13.0,
2061.0,2043.0,-2.0,-13.0,
2078.0,2077.0,-2.0,-13.0,
2097.0,2041.0,-1.0,-13.0,
2079.0,2203.0,-1.0,-13.0,
2045.0,2189.0,-1.0,-13.0,
2046.0,2125.0,-1.0,-14.0,
2043.0,2097.0,0,
2069.0,2117.0,-1.0,-14.0,
2070.0,2109.0,-2.0,-14.0,
2064.0,2094.0,-2.0,-14.0,
2058.0,2094.0,-2.0,-14.0,
2059.0,2081.0,-2.0,-14.0,
2092.0,2087.0,-2.0,-14.0,
2065.0,2061.0,-2.0,-14.0,
2052.0,2079.0,-3.0,-14.0,
2053.0,2065.0,-3.0,-14.0,
2080.0,2113.0,-3.0,-14.0,
2074.0,2046.0,-3.0,-14.0,
2058.0,2119.0,-3.0,-14.0,
2075.0,2176.0,-3.0,-14.0,
2090.0,2031.0,-3.0,-14.0,
2110.0,2028.0,-3.0,-14.0,
2042.0,2147.0,-3.0,-14.0,
2029.0,2111.0,-3.0,-14.0,
2039.0,1972.0,-3.0,-14.0,
2074.0,2019.0,-3.0,-14.0,
2100.0,2060.0,-3.0,-14.0,
2080.0,2054.0,-3.0,-14.0,
2092.0,2105.0,-3.0,-14.0,
2081.0,2137.0,-3.0,-14.0,
2057.0,2123.0,-3.0,-14.0,
1977.0,2127.0,-3.0,-14.0,
2072.0,2089.0,-3.0,-13.0,
2072.0,2107.0,-3.0,-13.0,
2090.0,2115.0,-3.0,-13.0,
2095.0,2068.0,-4.0,-13.0,
2067.0,2099.0,-4.0,-13.0,
2061.0,2136.0,-4.0,-13.0,
2123.0,2148.0,-4.0,-13.0,
2104.0,2095.0,-4.0,-13.0,
2050.0,2039.0,-4.0,-13.0,
2062.0,2026.0,-4.0,-13.0,
2063.0,2092.0,-4.0,-13.0,
2067.0,2068.0,-3.0,-13.0,
2065.0,2068.0,-3.0,-13.0,
2053.0,2065.0,-3.0,-13.0,
2032.0,2079.0,-3.0,-13.0,
2100.0,2148.0,-3.0,-14.0,
2100.0,2207.0,-3.0,-14.0,
2087.0,2138.0,-3.0,-14.0,
2091.0,2080.0,-3.0,-14.0,
2071.0,2056.0,-3.0,-14.0,
2077.0,2034.0,-2.0,-14.0,
2091.0,2061.0,-2.0,-14.0,
2063.0,2137.0,-2.0,-14.0,
2075.0,2212.0,-2.0,-14.0,
2063.0,2098.0,-2.0,-14.0,
2091.0,2081.0,-3.0,-14.0,
2064.0,2046.0,-3.0,-14.0,
2037.0,2072.0,-3.0,-14.0,
2050.0,2059.0,-3.0,-14.0,
2037.0,2101.0,-4.0,-14.0,
2068.0,2050.0,-4.0,-14.0,
2092.0,2076.0,-4.0,-14.0,
2096.0,2130.0,-5.0,-14.0,
2078.0,2166.0,-5.0,-14.0,
2079.0,2163.0,-5.0,-14.0,
2101.0,2138.0,-6.0,-14.0,
2064.0,2091.0,-6.0,-14.0,
2053.0,2022.0,-6.0,-14.0,
2056.0,1970.0,-7.0,-14.0,
2108.0,2073.0,-7.0,-14.0,
2094.0,2107.0,-7.0,-14.0,
2101.0,2084.0,-8.0,-14.0,
2090.0,2068.0,-8.0,-14.0,
2093.0,2060.0,-8.0,-14.0,
2078.0,2054.0,-8.0,-14.0,
2047.0,2185.0,-9.0,-14.0,
2050.0,2151.0,-9.0,-14.0,
2071.0,2040.0,-9.0,-14.0,
2088.0,2006.0,-9.0,-14.0,
2058.0,2047.0,-10.0,-14.0,
2053.0,2078.0,-10.0,-14.0,
2060.0,2010.0,-10.0,-14.0,
2057.0,2057.0,-11.0,-14.0,
2077.0,2056.0,-11.0,-14.0,
2049.0,2147.0,-11.0,-14.0,
2059.0,2068.0,-11.0,-14.0,
2045.0,2072.0,-11.0,-14.0,
2093.0,2184.0,-12.0,-14.0,
2044.0,2103.0,-12.0,-14.0,
2046.0,2112.0,-12.0,-14.0,
2098.0,2123.0,-12.0,-14.0,
2092.0,2117.0,-12.0,-14.0,
2071.0,2076.0,-11.0,-14.0,
2030.0,2088.0,-11.0,-14.0,
2045.0,2128.0,-11.0,-14.0,
2087.0,2084.0,-11.0,-14.0,
2148.0,2156.0,-11.0,-14.0,
2079.0,2071.0,-10.0,-14.0,
2036.0,2076.0,-10.0,-14.0,
2061.0,2089.0,-10.0,-14.0,
2167.0,2124.0,-10.0,-14.0,
2147.0,2086.0,-9.0,-14.0,
2088.0,2015.0,-9.0,-14.0,
2061.0,2082.0,-9.0,-14.0,
2040.0,2107.0,-8.0,-14.0,
2075.0,2171.0,-8.0,-14.0,
2051.0,2100.0,-8.0,-15.0,
2043.0,2057.0,-8.0,-15.0,
2056.0,2051.0,-7.0,-15.0,
2058.0,2117.0,-7.0,-15.0,
2082.0,2131.0,-7.0,-15.0,
2042.0,2068.0,-7.0,-15.0,
2052.0,2028.0,-7.0,-15.0,
2039.0,2102.0,-7.0,-15.0,
2048.0,2133.0,-8.0,-15.0,
2038.0,2166.0,-8.0,-15.0,
2045.0,2006.0,-8.0,-15.0,
2095.0,1937.0,-8.0,-15.0,
2089.0,2043.0,-8.0,-15.0,
2051.0,2129.0,-9.0,-15.0,
2020.0,2088.0,-9.0,-15.0,
2082.0,2086.0,-9.0,-15.0,
2064.0,1994.0,-9.0,-15.0,
2122.0,2009.0,0,
2064.0,1972.0,-9.0,-15.0,
2060.0,2072.0,-10.0,-15.0,
2096.0,2227.0,0,
2091.0,2237.0,-10.0,-14.0,
2082.0,2117.0,-10.0,-14.0,
2053.0,2103.0,-10.0,-14.0,
2029.0,2071.0,-10.0,-14.0,
2008.0,2036.0,-11.0,-14.0,
2074.0,2068.0,-11.0,-14.0,
2071.0,2102.0,-11.0,-14.0,
2047.0,2071.0,-11.0,-14.0,
2070.0,2079.0,-12.0,-14.0,
2101.0,2182.0,-12.0,-14.0,
2114.0,2144.0,-12.0,-14.0,
2072.0,2079.0,-12.0,-14.0,
2032.0,2124.0,-13.0,-14.0,
2049.0,2113.0,-13.0,-14.0,
2087.0,2111.0,-13.0,-14.0,
2074.0,2107.0,-14.0,-14.0,
2093.0,2077.0,-14.0,-14.0,
2080.0,2053.0,-14.0,-14.0,
2087.0,2066.0,-14.0,-14.0,
2081.0,2046.0,-14.0,-14.0,
1981.0,2089.0,-15.0,-14.0,
2000.0,2192.0,-15.0,-14.0,
2054.0,2093.0,-15.0,-14.0,
2065.0,2130.0,-15.0,-14.0,
2056.0,2116.0,-15.0,-15.0,
2103.0,2012.0,-15.0,-15.0,
2095.0,2039.0,-15.0,-15.0,
2088.0,2074.0,-15.0,-15.0,
2078.0,2093.0,-15.0,-15.0,
2042.0,2034.0,-15.0,-15.0,
2055.0,2021.0,-14.0,-15.0,
2068.0,2082.0,-14.0,-15.0,
2079.0,2171.0,-14.0,-15.0,
2060.0,2038.0,-14.0,-15.0,
2051.0,2022.0,-14.0,-15.0,
2038.0,2109.0,-14.0,-15.0,
2118.0,2105.0,-13.0,-15.0,
2104.0,2046.0,-13.0,-15.0,
2055.0,2082.0,-13.0,-15.0,
2017.0,2078.0,-13.0,-15.0,
2042.0,2157.0,-13.0,-15.0,
2083.0,2079.0,-13.0,-15.0,
2098.0,2057.0,-12.0,-15.0,
2143.0,2032.0,-12.0,-15.0,
2090.0,2071.0,-12.0,-15.0,
2101.0,2174.0,-12.0,-15.0,
2084.0,2167.0,-12.0,-15.0,
2041.0,2084.0,-12.0,-15.0,
2030.0,2121.0,-12.0,-15.0,
2051.0,2052.0,-12.0,-15.0,
2047.0,2107.0,-12.0,-15.0,
2080.0,2113.0,-12.0,-15.0,
2102.0,2247.0,-12.0,-15.0,
2041.0,2060.0,-12.0,-15.0,
2054.0,2168.0,-12.0,-15.0,
2102.0,2119.0,-12.0,-15.0,
2022.0,2007.0,-12.0,-15.0,
2024.0,2016.0,-12.0,-15.0,
2032.0,2031.0,-12.0,-15.0,
2087.0,2106.0,-13.0,-15.0,
2166.0,2044.0,-13.0,-15.0,
2090.0,1996.0,-13.0,-16.0,
2063.0,2077.0,-13.0,-16.0,
2058.0,2053.0,-14.0,-16.0,
2060.0,2158.0,-14.0,-15.0,
2050.0,2090.0,-14.0,-15.0,
2071.0,2110.0,-14.0,-15.0,
2051.0,2146.0,-14.0,-15.0,
2065.0,2214.0,-15.0,-15.0,
2085.0,2171.0,-15.0,-15.0,
2048.0,2031.0,-15.0,-15.0,
2090.0,2024.0,-15.0,-14.0,
2101.0,2109.0,-15.0,-14.0,
2076.0,2108.0,-16.0,-14.0,
2053.0,2075.0,-16.0,-15.0,
2046.0,2141.0,-16.0,-15.0,
2014.0,2075.0,-17.0,-15.0,
2047.0,2013.0,-17.0,-15.0,
2096.0,2023.0,-17.0,-15.0,
2056.0,1972.0,-17.0,-15.0,
2107.0,2152.0,-18.0,-15.0,
2096.0,2203.0,-18.0,-15.0,
2092.0,2063.0,-18.0,-15.0,
2049.0,2095.0,-18.0,-14.0,
2043.0,2077.0,-18.0,-15.0,
2075.0,2123.0,-18.0,-15.0,
2089.0,2116.0,-18.0,-15.0,
2044.0,2070.0,-18.0,-15.0,
2016.0,2097.0,-18.0,-15.0,
2031.0,2105.0,-18.0,-15.0,
2088.0,2024.0,-18.0,-15.0,
2117.0,2128.0,-18.0,-15.0,
2084.0,2143.0,-18.0,-15.0,
2107.0,2058.0,-18.0,-15.0,
2077.0,1941.0,-18.0,-15.0,
2083.0,2113.0,-18.0,-15.0,
2060.0,2205.0,-17.0,-15.0,
1981.0,2149.0,-17.0,-15.0,
2023.0,2001.0,-17.0,-15.0,
2047.0,2034.0,-17.0,-15.0,
2174.0,2085.0,-17.0,-15.0,
2044.0,2000.0,-17.0,-15.0,
2138.0,1968.0,-17.0,-15.0,
2062.0,2195.0,-17.0,-15.0,
2073.0,2251.0,-16.0,-15.0,
2124.0,2160.0,-16.0,-15.0,
2100.0,2207.0,-16.0,-15.0,
2106.0,2130.0,-16.0,-15.0,
2061.0,2158.0,-16.0,-15.0,
2096.0,2034.0,-16.0,-15.0,
2060.0,2143.0,-16.0,-15.0,
2020.0,1968.0,-16.0,-15.0,
2045.0,2061.0,-16.0,-15.0,
2070.0,2135.0,-16.0,-15.0,
2056.0,2014.0,-16.0,-15.0,
2083.0,2092.0,-16.0,-15.0,
2060.0,2157.0,0,
2082.0,2082.0,-16.0,-15.0,
2083.0,2051.0,-16.0,-15.0,
2047.0,2087.0,-16.0,-15.0,
2033.0,2100.0,-17.0,-15.0,
2072.0,2089.0,-17.0,-17.0,
2073.0,2070.0,-17.0,-17.0,
2094.0,2082.0,-17.0,-16.0,
2007.0,2128.0,-17.0,-15.0,
1963.0,2075.0,-16.0,-15.0,
1982.0,2117.0,-17.0,-15.0,
2069.0,2010.0,-17.0,-15.0,
2203.0,2028.0,-17.0,-15.0,
2048.0,1957.0,-17.0,-15.0,
2036.0,2122.0,-17.0,-15.0,
2057.0,2250.0,-17.0,-13.0,
2107.0,2145.0,-17.0,-13.0,
2134.0,2053.0,-17.0,-14.0,
2131.0,2105.0,-17.0,-14.0,
2088.0,2041.0,-18.0,-15.0,
2072.0,2125.0,-18.0,-15.0,
2094.0,2107.0,-18.0,-15.0,
2032.0,2074.0,-18.0,-15.0,
2006.0,2100.0,-19.0,-16.0,
1995.0,1985.0,-19.0,-16.0,
2080.0,2114.0,-20.0,-15.0,
2009.0,2127.0,-20.0,-15.0,
2062.0,2180.0,-20.0,-15.0,
2125.0,2118.0,-20.0,-15.0,
2123.0,2072.0,0,
2099.0,2009.0,-20.0,-15.0,
2009.0,2072.0,-20.0,-15.0,
2070.0,2149.0,-20.0,-15.0,
2131.0,2209.0,-20.0,-14.0,
2112.0,2076.0,-20.0,-14.0,
2084.0,2086.0,-20.0,-14.0,
1960.0,2048.0,-20.0,-15.0,
2082.0,2052.0,-20.0,-15.0,
2092.0,2046.0,-20.0,-15.0,
2096.0,2050.0,-20.0,-15.0,
2090.0,2100.0,-20.0,-15.0,
2101.0,2161.0,-20.0,-15.0,
2075.0,2213.0,-19.0,-15.0,
2136.0,2159.0,-19.0,-15.0,
2157.0,2134.0,-19.0,-15.0,
2087.0,1973.0,-19.0,-15.0,
2074.0,1996.0,-19.0,-15.0,
2033.0,1933.0,-19.0,-15.0,
2038.0,1942.0,-18.0,-15.0,
1958.0,2175.0,-18.0,-15.0,
2063.0,2220.0,-18.0,-15.0,
2076.0,2290.0,-18.0,-17.0,
2121.0,2190.0,-18.0,-17.0,
2051.0,1999.0,-18.0,-17.0,
2013.0,2100.0,-18.0,-17.0,
2004.0,2093.0,-18.0,-16.0,
2042.0,2067.0,-18.0,-16.0,
2151.0,2102.0,-18.0,-15.0,
2064.0,2043.0,-18.0,-16.0,
2049.0,2024.0,-18.0,-16.0,
2048.0,2121.0,-18.0,-15.0,
2003.0,2176.0,-18.0,-14.0,
2026.0,2038.0,-18.0,-14.0,
2018.0,2078.0,-18.0,-14.0,
2088.0,2119.0,-19.0,-15.0,
2118.0,2149.0,-19.0,-16.0,
1978.0,1956.0,-19.0,-17.0,
2047.0,2018.0,-19.0,-17.0,
2037.0,2128.0,-20.0,-16.0,
2059.0,2160.0,-20.0,-16.0,
2015.0,2024.0,-20.0,-15.0,
2114.0,2076.0,-20.0,-15.0,
2051.0,2076.0,-20.0,-15.0,
2191.0,2007.0,-21.0,-15.0,
2142.0,2113.0,-21.0,-15.0,
2080.0,2105.0,-21.0,-14.0,
2159.0,2116.0,-21.0,-14.0,
2087.0,2210.0,-21.0,-14.0,
2111.0,2113.0,-21.0,-15.0,
2140.0,2090.0,-21.0,-16.0,
2152.0,2167.0,-21.0,-16.0,
2029.0,2102.0,-22.0,-16.0,
1978.0,2032.0,-22.0,-15.0,
2081.0,2015.0,-22.0,-15.0,
2093.0,2106.0,-22.0,-15.0,
2028.0,2158.0,-22.0,-15.0,
2011.0,2206.0,-22.0,-15.0,
2001.0,2072.0,-23.0,-15.0,
2050.0,2139.0,-23.0,-14.0,
2077.0,2095.0,-23.0,-14.0,
2044.0,1916.0,-23.0,-14.0,
2025.0,2029.0,-23.0,-14.0,
2052.0,2133.0,-23.0,-15.0,
2036.0,2225.0,-23.0,-16.0,
2003.0,2014.0,-23.0,-16.0,
2089.0,1922.0,-23.0,-17.0,
2108.0,2108.0,-23.0,-17.0,
2102.0,2215.0,-23.0,-17.0,
2072.0,2350.0,-23.0,-17.0,
2030.0,1935.0,-22.0,-16.0,
2003.0,1943.0,-22.0,-16.0,
1960.0,2053.0,-22.0,-16.0,
2003.0,2114.0,-22.0,-16.0,
2026.0,2151.0,-22.0,-16.0,
1987.0,2090.0,0,
2165.0,2099.0,-22.0,-15.0,
2201.0,2073.0,-22.0,-15.0,
2173.0,1977.0,-22.0,-15.0,
2240.0,2063.0,-22.0,-15.0,
2138.0,2223.0,-22.0,-16.0,
2264.0,2304.0,-22.0,-16.0,
2051.0,2135.0,-22.0,-16.0,
2056.0,1866.0,-22.0,-16.0,
1946.0,1945.0,-22.0,-16.0,
1905.0,1968.0,-22.0,-16.0,
1892.0,2031.0,-22.0,-16.0,
1932.0,2264.0,-22.0,-17.0,
2134.0,2154.0,-22.0,-17.0,
2288.0,2158.0,-22.0,-17.0,
2064.0,2182.0,-22.0,-17.0,
2082.0,1930.0,-22.0,-16.0,
2043.0,2108.0,-22.0,-16.0,
2138.0,2119.0,-22.0,-15.0,
2114.0,2027.0,-22.0,-15.0,
1992.0,2166.0,-22.0,-15.0,
2001.0,2045.0,-22.0,-15.0,
2050.0,2080.0,-22.0,-14.0,
2083.0,2052.0,-22.0,-14.0,
2117.0,2168.0,-22.0,-15.0,
1967.0,2158.0,-22.0,-15.0,
1999.0,2116.0,-22.0,-16.0,
2034.0,2054.0,-22.0,-17.0,
2135.0,2062.0,-22.0,-17.0,
2067.0,2087.0,-22.0,-17.0,
2080.0,2035.0,-22.0,-16.0,
2047.0,2228.0,-22.0,-16.0,
2036.0,1930.0,-23.0,-16.0,
2065.0,2196.0,-23.0,-15.0,
2090.0,2069.0,-23.0,-15.0,
2098.0,2046.0,-23.0,-15.0,
2126.0,2188.0,-23.0,-15.0,
2011.0,2094.0,-24.0,-14.0,
2044.0,2089.0,-24.0,-14.0,
2043.0,2012.0,-24.0,-15.0,
2046.0,2210.0,-24.0,-16.0,
2084.0,2012.0,-24.0,-17.0,
2063.0,2016.0,-24.0,-17.0,
2152.0,2024.0,-24.0,-17.0,
2101.0,1751.0,-24.0,-17.0,
1999.0,1872.0,-24.0,-16.0,
1844.0,2300.0,-24.0,-16.0,
2129.0,2369.0,-24.0,-16.0,
2176.0,2256.0,-24.0,-16.0,
2217.0,2136.0,-24.0,-16.0,
2110.0,2221.0,-24.0,-16.0,
2093.0,2206.0,-24.0,-15.0,
2049.0,1971.0,-25.0,-15.0,
1947.0,2119.0,-25.0,-15.0,
1934.0,1949.0,-25.0,-16.0,
2001.0,1961.0,-25.0,-16.0,
2202.0,2144.0,-24.0,-16.0,
2060.0,2050.0,-24.0,-16.0,
2078.0,2119.0,-24.0,-16.0,
2090.0,2075.0,-24.0,-16.0,
2054.0,2013.0,-24.0,-16.0,
2203.0,2066.0,-24.0,-17.0,
2319.0,2115.0,-24.0,-17.0,
2111.0,2137.0,-24.0,-17.0,
2017.0,2029.0,-24.0,-17.0,
2012.0,2187.0,-23.0,-16.0,
2009.0,2203.0,-23.0,-16.0,
2088.0,2034.0,-24.0,-16.0,
2020.0,2002.0,-24.0,-16.0,
2087.0,2062.0,-24.0,-16.0,
2085.0,2109.0,-24.0,-16.0,
1985.0,2008.0,-24.0,-16.0,
2061.0,2035.0,-24.0,-15.0,
2055.0,2130.0,-24.0,-15.0,
2071.0,2166.0,-24.0,-16.0,
1992.0,2030.0,-24.0,-16.0,
1956.0,2020.0,-24.0,-17.0,
2076.0,2082.0,-24.0,-17.0,
2104.0,2079.0,-24.0,-17.0,
2067.0,2135.0,-24.0,-17.0,
2075.0,2240.0,-24.0,-17.0,
2060.0,2157.0,-24.0,-17.0,
2010.0,2066.0,-24.0,-17.0,
2100.0,2124.0,-24.0,-17.0,
2107.0,2215.0,-24.0,-18.0,
2089.0,1942.0,-24.0,-18.0,
2076.0,2099.0,-24.0,-17.0,
2056.0,2077.0,-24.0,-17.0,
1994.0,2054.0,-24.0,-16.0,
1951.0,2096.0,-24.0,-16.0,
2129.0,2007.0,-24.0,-16.0,
2060.0,2005.0,-24.0,-16.0,
2090.0,2119.0,-25.0,-16.0,
2195.0,2028.0,-25.0,-16.0,
2070.0,2125.0,-25.0,-15.0,
2124.0,2019.0,-25.0,-15.0,
2037.0,2232.0,-25.0,-16.0,
2009.0,2194.0,-26.0,-16.0,
2024.0,2035.0,-26.0,-16.0,
2052.0,1981.0,-26.0,-16.0,
2009.0,1973.0,-26.0,-16.0,
2115.0,2124.0,-26.0,-16.0,
2121.0,2350.0,-26.0,-16.0,
2074.0,2172.0,-27.0,-16.0,
2090.0,2128.0,-27.0,-16.0,
2006.0,2165.0,-27.0,-16.0,
2073.0,2165.0,-27.0,-16.0,
2083.0,2092.0,-27.0,-16.0,
2045.0,2046.0,-27.0,-16.0,
2048.0,2055.0,-27.0,-16.0,
1970.0,1950.0,-28.0,-16.0,
2001.0,2020.0,-28.0,-16.0,
2016.0,2133.0,-27.0,-16.0,
2041.0,2000.0,-27.0,-16.0,
2136.0,2118.0,-27.0,-16.0,
2297.0,2056.0,-27.0,-16.0,
2282.0,2060.0,-27.0,-16.0,
2054.0,2182.0,-27.0,-16.0,
1941.0,2085.0,-27.0,-16.0,
2055.0,2150.0,-26.0,-16.0,
1976.0,2069.0,-26.0,-16.0,
1976.0,2059.0,-26.0,-16.0,
2071.0,2026.0,-26.0,-16.0,
2267.0,2083.0,-26.0,-16.0,
2075.0,2125.0,-25.0,-16.0,
2074.0,2130.0,-25.0,-16.0,
2097.0,1980.0,-25.0,-16.0,
2047.0,2034.0,-25.0,-16.0,
2131.0,2336.0,-25.0,-16.0,
2074.0,2088.0,-25.0,-16.0,
2133.0,2115.0,-25.0,-16.0,
2054.0,2010.0,-24.0,-16.0,
2043.0,2054.0,-24.0,-16.0,
2037.0,2011.0,-24.0,-16.0,
2049.0,2078.0,-24.0,-16.0,
2038.0,2152.0,-24.0,-16.0,
2080.0,2018.0,-24.0,-16.0,
2100.0,2097.0,-24.0,-16.0,
2133.0,1993.0,-24.0,-16.0,
2108.0,2154.0,-24.0,-16.0,
1952.0,2086.0,-24.0,-16.0,
2003.0,2136.0,-24.0,-16.0,
2043.0,2192.0,-24.0,-16.0,
2086.0,2211.0,-24.0,-16.0,
2026.0,2071.0,-24.0,-16.0,
1923.0,1962.0,-24.0,-16.0,
2138.0,2097.0,-24.0,-16.0,
2146.0,2052.0,-24.0,-16.0,
1959.0,2147.0,-24.0,-16.0,
2082.0,2203.0,-24.0,-16.0,
2099.0,2087.0,-24.0,-16.0,
2110.0,2216.0,-24.0,-16.0,
2196.0,1964.0,-24.0,-16.0,
2073.0,1991.0,-24.0,-16.0,
2087.0,2234.0,-24.0,-16.0,
1984.0,2205.0,-24.0,-16.0,
2154.0,2001.0,-24.0,-16.0,
2152.0,2025.0,-24.0,-16.0,
2127.0,2109.0,-24.0,-16.0,
2130.0,2009.0,-24.0,-16.0,
2025.0,1976.0,-24.0,-16.0,
1838.0,1937.0,-24.0,-16.0,
1866.0,2027.0,-24.0,-16.0,
2092.0,2174.0,-24.0,-17.0,
2171.0,2297.0,-25.0,-17.0,
2287.0,2263.0,-25.0,-17.0,
2033.0,2183.0,-25.0,-17.0,
1907.0,2108.0,-25.0,-17.0,
1977.0,1972.0,-25.0,-16.0,
2023.0,2079.0,-25.0,-16.0,
2189.0,2157.0,-26.0,-16.0,
2081.0,2131.0,-26.0,-16.0,
2176.0,2091.0,-26.0,-16.0,
2072.0,1927.0,-26.0,-16.0,
2150.0,2040.0,-26.0,-16.0,
2088.0,1995.0,-26.0,-16.0,
1990.0,1945.0,-27.0,-16.0,
1947.0,2076.0,-27.0,-16.0,
2196.0,2130.0,-27.0,-16.0,
2202.0,2016.0,-27.0,-16.0,
2030.0,2188.0,-27.0,-16.0,
1980.0,2222.0,-27.0,-16.0,
2077.0,2150.0,-27.0,-16.0,
2271.0,2367.0,-27.0,-16.0,
2100.0,1994.0,-27.0,-16.0,
2062.0,2096.0,-27.0,-16.0,
1990.0,2065.0,-26.0,-16.0,
2060.0,1971.0,-26.0,-16.0,
2023.0,2080.0,-26.0,-16.0,
2020.0,2241.0,-26.0,-16.0,
2031.0,2106.0,-26.0,-16.0,
2064.0,1986.0,-26.0,-16.0,
2033.0,2010.0,-26.0,-16.0,
2053.0,1985.0,-26.0,-16.0,
2105.0,2047.0,-26.0,-16.0,
1973.0,2311.0,-27.0,-16.0,
2108.0,2150.0,-27.0,-16.0,
2064.0,1992.0,-27.0,-16.0,
1997.0,2018.0,-27.0,-16.0,
2001.0,2105.0,-27.0,-16.0,
2151.0,2130.0,-27.0,-16.0,
2088.0,2092.0,-27.0,-16.0,
2079.0,1885.0,-27.0,-16.0,
2098.0,2149.0,-27.0,-16.0,
2053.0,2171.0,-27.0,-16.0,
1994.0,2315.0,-27.0,-16.0,
2161.0,1999.0,-27.0,-16.0,
2110.0,1880.0,-27.0,-16.0,
2068.0,1814.0,-27.0,-16.0,
2069.0,2048.0,0,
2159.0,2762.0,-27.0,-16.0,
1957.0,2065.0,-27.0,-16.0,
1767.0,2332.0,-27.0,-16.0,
2189.0,1984.0,-27.0,-16.0,
2307.0,1922.0,-27.0,-16.0,
2238.0,2125.0,-27.0,-16.0,
2099.0,2164.0,-27.0,-16.0,
2125.0,2232.0,-27.0,-16.0,
2107.0,2059.0,-27.0,-16.0,
2006.0,2001.0,-27.0,-16.0,
2050.0,1958.0,-27.0,-16.0,
2048.0,2063.0,-27.0,-16.0,
2108.0,1986.0,-27.0,-16.0,
2064.0,1997.0,-27.0,-16.0,
1973.0,2136.0,-27.0,-17.0,
1990.0,2102.0,-27.0,-17.0,
2085.0,2173.0,-27.0,-17.0,
2146.0,2250.0,-27.0,-17.0,
2121.0,2205.0,-27.0,-16.0,
1849.0,1947.0,-27.0,-16.0,
1888.0,2014.0,-27.0,-16.0,
2033.0,2082.0,-27.0,-16.0,
2148.0,2193.0,-27.0,-16.0,
2188.0,2113.0,-27.0,-16.0,
2043.0,2009.0,-27.0,-16.0,
2152.0,1835.0,-27.0,-15.0,
2101.0,1987.0,-27.0,-16.0,
2143.0,2187.0,-27.0,-16.0,
2087.0,2190.0,-27.0,-16.0,
2229.0,2137.0,-27.0,-16.0,
2131.0,2092.0,-27.0,-16.0,
1931.0,2278.0,-27.0,-16.0,
1945.0,1960.0,-27.0,-16.0,
2241.0,2069.0,-27.0,-16.0,
2331.0,2257.0,-27.0,-16.0,
2215.0,2158.0,-27.0,-16.0,
2030.0,2046.0,-27.0,-16.0,
1872.0,1923.0,-27.0,-16.0,
1934.0,1897.0,-27.0,-16.0,
1969.0,2023.0,-27.0,-16.0,
2096.0,2200.0,-27.0,-16.0,
1954.0,2181.0,-27.0,-16.0,
1965.0,2197.0,-27.0,-16.0,
2240.0,2102.0,-27.0,-16.0,
2062.0,1923.0,-27.0,-16.0,
1984.0,1993.0,-27.0,-16.0,
2074.0,2100.0,-27.0,-16.0,
2144.0,2278.0,-27.0,-16.0,
1970.0,2062.0,-27.0,-16.0,
1980.0,2025.0,-27.0,-17.0,
2165.0,2180.0,-27.0,-17.0,
2234.0,2164.0,-27.0,-17.0,
2119.0,1955.0,-27.0,-16.0,
1984.0,2102.0,-28.0,-16.0,
1978.0,2139.0,-28.0,-16.0,
2003.0,2114.0,-28.0,-16.0,
2064.0,2006.0,-28.0,-16.0,
2093.0,2095.0,-28.0,-16.0,
2121.0,2084.0,-28.0,-16.0,
2105.0,2086.0,-28.0,-15.0,
2167.0,2128.0,-28.0,-15.0,
2034.0,2070.0,-29.0,-15.0,
2066.0,2260.0,-29.0,-16.0,
1968.0,2014.0,-29.0,-16.0,
2021.0,1987.0,-29.0,-16.0,
2195.0,2163.0,-29.0,-16.0,
2033.0,2035.0,-29.0,-16.0,
2062.0,2200.0,-29.0,-16.0,
2162.0,2056.0,-29.0,-16.0,
2007.0,1987.0,-29.0,-16.0,
1928.0,1920.0,-29.0,-16.0,
1962.0,1997.0,-29.0,-16.0,
2141.0,2235.0,-29.0,-16.0,
2006.0,2080.0,-29.0,-16.0,
2251.0,2028.0,-29.0,-16.0,
2156.0,2098.0,-29.0,-16.0,
2140.0,2112.0,-29.0,-16.0,
1977.0,2270.0,-28.0,-16.0,
2061.0,2188.0,-28.0,-16.0,
1922.0,2022.0,-28.0,-16.0,
2270.0,2139.0,-28.0,-16.0,
2286.0,1955.0,-28.0,-16.0,
2171.0,2127.0,0,
1989.0,2033.0,-28.0,-16.0,
1961.0,2074.0,-28.0,-16.0,
2095.0,2138.0,-28.0,-17.0,
2060.0,2122.0,-28.0,-17.0,
2014.0,1953.0,-28.0,-17.0,
2139.0,2057.0,-28.0,-17.0,
2096.0,1892.0,-28.0,-17.0,
2001.0,2098.0,-28.0,-17.0,
1997.0,2038.0,-28.0,-17.0,
2027.0,2266.0,-28.0,-17.0,
2065.0,2107.0,-28.0,-17.0,
1932.0,2037.0,-28.0,-17.0,
2016.0,2237.0,-28.0,-17.0,
2147.0,2003.0,-28.0,-17.0,
1967.0,1999.0,-28.0,-17.0,
2145.0,2026.0,-28.0,-17.0,
2042.0,2241.0,-28.0,-17.0,
1990.0,2199.0,-28.0,-17.0,
2096.0,2198.0,-28.0,-17.0,
2107.0,2234.0,-28.0,-17.0,
2228.0,1878.0,-28.0,-17.0,
2139.0,2062.0,-28.0,-17.0,
2130.0,2263.0,-28.0,-17.0,
2062.0,1920.0,-28.0,-18.0,
1996.0,1933.0,-28.0,-18.0,
2073.0,2042.0,-28.0,-17.0,
2101.0,2154.0,-28.0,-16.0,
1978.0,2141.0,-29.0,-16.0,
2124.0,2325.0,-29.0,-16.0,
2181.0,2154.0,-29.0,-16.0,
2138.0,1964.0,-28.0,-16.0,
1968.0,2023.0,-28.0,-16.0,
1898.0,2101.0,-28.0,-16.0,
1963.0,2132.0,-28.0,-14.0,
1874.0,2137.0,-28.0,-14.0,
2001.0,2078.0,-28.0,-15.0,
2266.0,1983.0,-28.0,-16.0,
2440.0,2148.0,-28.0,-16.0,
2170.0,2213.0,-28.0,-16.0,
1995.0,2090.0,-28.0,-16.0,
2057.0,2058.0,-28.0,-16.0,
1922.0,1977.0,-28.0,-16.0,
1797.0,2109.0,-28.0,-17.0,
1931.0,2049.0,-28.0,-17.0,
2380.0,1946.0,-28.0,-17.0,
2146.0,2122.0,-28.0,-17.0,
1960.0,2135.0,-28.0,-17.0,
2076.0,2186.0,-28.0,-17.0,
2038.0,1965.0,-28.0,-17.0,
2144.0,2057.0,-28.0,-17.0,
2211.0,2075.0,-28.0,-16.0,
2249.0,1998.0,-28.0,-16.0,
2097.0,2017.0,-28.0,-16.0,
2039.0,2127.0,-28.0,-16.0,
2109.0,2153.0,-28.0,-16.0,
2027.0,2136.0,-29.0,-16.0,
2081.0,2131.0,-29.0,-16.0,
2052.0,2123.0,-29.0,-17.0,
2035.0,2104.0,-29.0,-18.0,
2056.0,2042.0,-29.0,-17.0,
2027.0,1920.0,-29.0,-17.0,
2036.0,1910.0,-29.0,-16.0,
2039.0,2040.0,-29.0,-16.0,
2096.0,2387.0,-29.0,-16.0,
2118.0,2300.0,-29.0,-16.0,
2052.0,2162.0,-29.0,-16.0,
2044.0,2029.0,-29.0,-16.0,
2006.0,2066.0,-30.0,-15.0,
2069.0,2219.0,-30.0,-15.0,
2116.0,2142.0,-30.0,-15.0,
2089.0,1935.0,-30.0,-16.0,
2149.0,1901.0,-30.0,-16.0,
2123.0,2073.0,-30.0,-16.0,
1975.0,2100.0,-30.0,-16.0,
1870.0,2403.0,-30.0,-16.0,
2044.0,2209.0,-30.0,-16.0,
2014.0,2124.0,-30.0,-16.0,
1999.0,2141.0,-30.0,-16.0,
2141.0,1752.0,-30.0,-16.0,
1931.0,1795.0,-30.0,-16.0,
2091.0,1912.0,-30.0,-16.0,
2264.0,2237.0,-30.0,-17.0,
2068.0,2162.0,-29.0,-17.0,
2183.0,2002.0,-29.0,-17.0,
2186.0,1916.0,-29.0,-17.0,
2109.0,2126.0,-29.0,-17.0,
2055.0,2073.0,-29.0,-17.0,
2148.0,2213.0,-29.0,-17.0,
2066.0,2115.0,-29.0,-17.0,
2023.0,2083.0,-29.0,-17.0,
2014.0,2117.0,-29.0,-17.0,
2047.0,1958.0,-29.0,-17.0,
1933.0,2116.0,-29.0,-17.0,
1868.0,2147.0,-29.0,-17.0,
1952.0,1893.0,-29.0,-17.0,
2076.0,2111.0,-29.0,-17.0,
2240.0,2126.0,-29.0,-17.0,
2089.0,2106.0,-30.0,-17.0,
2089.0,2205.0,-30.0,-17.0,
2308.0,2183.0,-30.0,-17.0,
2265.0,2110.0,-30.0,-17.0,
2116.0,2124.0,-30.0,-16.0,
2020.0,2041.0,-31.0,-16.0,
2029.0,2142.0,-31.0,-17.0,
2019.0,2042.0,-31.0,-16.0,
2012.0,2053.0,-31.0,-16.0,
2164.0,2166.0,-31.0,-16.0,
2082.0,2167.0,-31.0,-16.0,
2016.0,1955.0,-31.0,-16.0,
2048.0,1988.0,-31.0,-16.0,
2130.0,2017.0,-31.0,-16.0,
2011.0,2075.0,-31.0,-16.0,
1974.0,2149.0,-31.0,-16.0,
2148.0,2092.0,-30.0,-16.0,
2112.0,2066.0,-30.0,-16.0,
2020.0,2203.0,-30.0,-16.0,
2048.0,2188.0,-30.0,-17.0,
2025.0,2063.0,-30.0,-17.0,
1991.0,1976.0,-30.0,-17.0,
1978.0,2079.0,-30.0,-17.0,
2087.0,2161.0,-30.0,-17.0,
2056.0,2089.0,-30.0,-17.0,
2103.0,2359.0,-30.0,-17.0,
2039.0,2168.0,-30.0,-17.0,
2035.0,1817.0,-30.0,-17.0,
2219.0,1856.0,-30.0,-17.0,
2100.0,1980.0,-30.0,-17.0,
1995.0,2273.0,-30.0,-17.0,
2012.0,2111.0,-30.0,-17.0,
2092.0,2153.0,-30.0,-17.0,
2046.0,2051.0,-30.0,-17.0,
2075.0,2078.0,-29.0,-17.0,
2079.0,2156.0,-30.0,-17.0,
2086.0,2043.0,-30.0,-17.0,
2081.0,2080.0,-30.0,-17.0,
2063.0,2120.0,-30.0,-17.0,
1993.0,2069.0,-30.0,-17.0,
2007.0,1988.0,-30.0,-17.0,
1970.0,2140.0,-30.0,-17.0,
2264.0,2246.0,-30.0,-17.0,
2125.0,2031.0,-30.0,-17.0,
2154.0,2070.0,-30.0,-17.0,
2120.0,2049.0,-30.0,-17.0,
2099.0,2078.0,-30.0,-17.0,
2049.0,2063.0,-30.0,-17.0,
2029.0,2112.0,-30.0,-17.0,
2065.0,2063.0,-30.0,-17.0,
2063.0,2117.0,-30.0,-17.0,
2098.0,2205.0,-30.0,-17.0,
2114.0,2075.0,-30.0,-17.0,
2000.0,2044.0,-30.0,-17.0,
2177.0,2240.0,-30.0,-17.0,
2213.0,2276.0,-30.0,-17.0,
1986.0,2062.0,-30.0,-17.0,
1925.0,2035.0,-30.0,-17.0,
1982.0,1978.0,-30.0,-17.0,
1990.0,2078.0,-31.0,-17.0,
2061.0,2104.0,-31.0,-17.0,
2101.0,2118.0,-31.0,-17.0,
2138.0,2101.0,-31.0,-17.0,
2199.0,2029.0,-31.0,-17.0,
2140.0,2033.0,-31.0,-17.0,
2118.0,2041.0,-31.0,-17.0,
2068.0,2132.0,-31.0,-17.0,
2087.0,2095.0,-30.0,-17.0,
2143.0,2058.0,-30.0,-17.0,
2032.0,2120.0,-30.0,-17.0,
2032.0,2115.0,-30.0,-17.0,
2021.0,2285.0,-30.0,-17.0,
2087.0,1858.0,-30.0,-17.0,
2083.0,2057.0,-29.0,-17.0,
1984.0,2020.0,-29.0,-17.0,
1992.0,2006.0,-29.0,-17.0,
2048.0,2106.0,-29.0,-17.0,
1923.0,2160.0,-29.0,-17.0,
1922.0,2035.0,-28.0,-17.0,
1860.0,2021.0,-28.0,-17.0,
2044.0,2165.0,-28.0,-17.0,
2405.0,2153.0,-28.0,-17.0,
2238.0,2227.0,-28.0,-17.0,
2132.0,2179.0,-28.0,-17.0,
2016.0,2107.0,-28.0,-16.0,
2039.0,2151.0,-27.0,-16.0,
2189.0,2040.0,-27.0,-16.0,
2154.0,1995.0,-27.0,-16.0,
2083.0,2072.0,-27.0,-16.0,
2134.0,2199.0,-27.0,-16.0,
2101.0,2170.0,-27.0,-16.0,
2086.0,2043.0,-27.0,-16.0,
2001.0,2017.0,-27.0,-16.0,
1989.0,2040.0,-28.0,-16.0,
2009.0,2145.0,-28.0,-16.0,
2053.0,2087.0,-28.0,-16.0,
1990.0,2040.0,-28.0,-16.0,
1943.0,2097.0,-28.0,-16.0,
2176.0,2186.0,-28.0,-16.0,
2110.0,2159.0,-28.0,-16.0,
2151.0,2061.0,-28.0,-16.0,
2125.0,2072.0,-28.0,-16.0,
1966.0,2053.0,-28.0,-16.0,
2030.0,2053.0,-28.0,-16.0,
2144.0,2052.0,-28.0,-16.0,
2012.0,2220.0,-28.0,-16.0,
2007.0,2161.0,-28.0,-16.0,
2074.0,2191.0,-28.0,-16.0,
2125.0,2196.0,-28.0,-16.0,
2022.0,2034.0,-28.0,-17.0,
2246.0,2065.0,-28.0,-17.0,
2036.0,2069.0,-27.0,-17.0,
2102.0,1945.0,-27.0,-17.0,
2105.0,1953.0,-27.0,-17.0,
2014.0,1849.0,-27.0,-17.0,
1997.0,1921.0,-27.0,-17.0,
2085.0,2131.0,-27.0,-17.0,
2067.0,2442.0,-27.0,-17.0,
2147.0,2255.0,-26.0,-17.0,
2132.0,1981.0,-26.0,-17.0,
2046.0,2125.0,-26.0,-17.0,
2044.0,2018.0,-26.0,-17.0,
2034.0,2059.0,-26.0,-17.0,
1952.0,2086.0,-25.0,-17.0,
2059.0,2078.0,-25.0,-17.0,
1988.0,2003.0,-25.0,-17.0,
2041.0,2011.0,-25.0,-17.0,
2116.0,2130.0,-25.0,-17.0,
1971.0,2102.0,-25.0,-17.0,
2270.0,2042.0,-24.0,-17.0,
2050.0,2118.0,-24.0,-17.0,
2025.0,2021.0,-24.0,-17.0,
2065.0,2178.0,-24.0,-17.0,
2115.0,2133.0,-24.0,-17.0,
2018.0,2049.0,-24.0,-17.0,
2049.0,1993.0,-25.0,-17.0,
2003.0,2061.0,-25.0,-17.0,
2114.0,2034.0,-25.0,-17.0,
2201.0,2116.0,-25.0,-17.0,
2106.0,2104.0,-25.0,-16.0,
2022.0,2118.0,-25.0,-16.0,
2082.0,2162.0,-25.0,-16.0,
1982.0,2208.0,-25.0,-16.0,
2007.0,2030.0,-25.0,-16.0,
2032.0,2019.0,-25.0,-16.0,
2045.0,2083.0,-26.0,-16.0,
2040.0,2118.0,-26.0,-16.0,
2099.0,2115.0,-26.0,-16.0,
2051.0,2156.0,-26.0,-16.0,
2079.0,2054.0,-26.0,-16.0,
2039.0,2024.0,-26.0,-16.0,
2021.0,1978.0,-26.0,-16.0,
1975.0,2290.0,-26.0,-16.0,
2122.0,2050.0,-26.0,-16.0,
2234.0,2158.0,-26.0,-16.0,
2103.0,2129.0,-26.0,-16.0,
2028.0,2091.0,-27.0,-16.0,
2049.0,1913.0,-27.0,-16.0,
2121.0,2057.0,-27.0,-16.0,
2088.0,2186.0,-27.0,-16.0,
2112.0,2107.0,-27.0,-16.0,
2105.0,2205.0,-27.0,-16.0,
1996.0,2097.0,-27.0,-16.0,
1968.0,2020.0,-27.0,-16.0,
2137.0,2152.0,-27.0,-16.0,
2118.0,1870.0,-27.0,-16.0,
2094.0,2105.0,-27.0,-16.0,
2056.0,2259.0,-27.0,-16.0,
2027.0,2154.0,-27.0,-16.0,
2027.0,1987.0,-26.0,-16.0,
2153.0,2017.0,-26.0,-17.0,
2082.0,2204.0,-26.0,-17.0,
2050.0,2068.0,-26.0,-17.0,
2101.0,1947.0,-26.0,-17.0,
2083.0,2059.0,-26.0,-17.0,
2073.0,2113.0,-25.0,-17.0,
2091.0,2132.0,-25.0,-17.0,
2072.0,2112.0,-25.0,-17.0,
2065.0,2064.0,-25.0,-17.0,
2048.0,2134.0,-25.0,-17.0,
2038.0,2132.0,-25.0,-17.0,
2049.0,2130.0,-25.0,-17.0,
2075.0,2091.0,-25.0,-17.0,
2062.0,2120.0,-25.0,-17.0,
2065.0,2104.0,-25.0,-17.0,
2012.0,2059.0,-25.0,-17.0,
2095.0,2048.0,-25.0,-17.0,
2130.0,2049.0,-25.0,-17.0,
2014.0,2204.0,-25.0,-17.0,
2101.0,2081.0,-24.0,-17.0,
2106.0,2021.0,-24.0,-17.0,
2212.0,2087.0,-24.0,-17.0,
1980.0,2027.0,-24.0,-17.0,
1978.0,2150.0,-24.0,-17.0,
1944.0,2109.0,-24.0,-17.0,
2095.0,2134.0,-24.0,-17.0,
2079.0,2142.0,-24.0,-17.0,
2058.0,2098.0,-24.0,-17.0,
1994.0,2063.0,-24.0,-17.0,
2080.0,2082.0,-23.0,-17.0,
2140.0,2152.0,-23.0,-17.0,
2089.0,2130.0,-23.0,-17.0,
2030.0,2057.0,-23.0,-17.0,
2166.0,2123.0,-23.0,-17.0,
2178.0,2121.0,-23.0,-17.0,
2121.0,2115.0,-23.0,-16.0,
2032.0,1950.0,-23.0,-16.0,
2037.0,2076.0,-23.0,-16.0,
2029.0,2062.0,-23.0,-16.0,
2019.0,2097.0,-23.0,-16.0,
2087.0,2081.0,-23.0,-16.0,
2101.0,2090.0,-23.0,-16.0,
2068.0,2023.0,-23.0,-16.0,
2075.0,2111.0,-23.0,-16.0,
2049.0,2070.0,-23.0,-16.0,
2034.0,2107.0,-23.0,-16.0,
2046.0,2101.0,-23.0,-16.0,
2067.0,2111.0,-23.0,-16.0,
2039.0,1982.0,-23.0,-16.0,
2054.0,2063.0,-23.0,-16.0,
2032.0,2134.0,-23.0,-16.0,
2046.0,2161.0,-23.0,-16.0,
2062.0,2071.0,-23.0,-16.0,
2045.0,2019.0,-23.0,-16.0,
2020.0,2064.0,-23.0,-16.0,
2056.0,2148.0,-24.0,-16.0,
2091.0,2139.0,-24.0,-16.0,
2077.0,2011.0,-24.0,-16.0,
2046.0,2128.0,-24.0,-16.0,
2053.0,2130.0,-24.0,-16.0,
2130.0,2121.0,-24.0,-16.0,
2105.0,2167.0,-24.0,-16.0,
2066.0,2130.0,-24.0,-16.0,
2057.0,2081.0,-24.0,-16.0,
2073.0,2094.0,-24.0,-16.0,
2072.0,2074.0,-24.0,-16.0,
2082.0,2103.0,-24.0,-16.0,
2075.0,1970.0,-24.0,-16.0,
2088.0,2158.0,-24.0,-16.0,
1964.0,1959.0,-23.0,-16.0,
2031.0,2087.0,-23.0,-16.0,
2129.0,2118.0,-23.0,-16.0,
2112.0,2142.0,-23.0,-16.0,
2091.0,2065.0,-23.0,-16.0,
2091.0,2129.0,-22.0,-16.0,
2059.0,2082.0,-22.0,-16.0,
2042.0,1986.0,-22.0,-16.0,
2079.0,2065.0,-22.0,-16.0,
2103.0,2069.0,-21.0,-16.0,
1985.0,2072.0,-21.0,-16.0,
2027.0,2107.0,-21.0,-16.0,
2037.0,2078.0,-21.0,-16.0,
2047.0,2054.0,-21.0,-17.0,
2078.0,2064.0,-21.0,-16.0,
2032.0,2037.0,-21.0,-16.0,
2078.0,2145.0,-22.0,-16.0,
2078.0,2103.0,-22.0,-16.0,
2090.0,2143.0,-22.0,-16.0,
2065.0,2063.0,-22.0,-16.0,
2005.0,2109.0,-22.0,-16.0,
2045.0,2094.0,-22.0,-16.0,
2028.0,2110.0,-22.0,-16.0,
2029.0,2082.0,-22.0,-16.0,
2161.0,2090.0,-22.0,-16.0,
2074.0,2079.0,-22.0,-16.0,
2077.0,2120.0,-22.0,-16.0,
2066.0,2118.0,-22.0,-16.0,
2082.0,2075.0,-22.0,-16.0,
2222.0,2056.0,-22.0,-16.0,
2204.0,2074.0,-22.0,-16.0,
2015.0,2117.0,-22.0,-16.0,
2049.0,2010.0,-23.0,-16.0,
1983.0,2080.0,-23.0,-15.0,
2013.0,2065.0,-23.0,-15.0,
2055.0,2096.0,-22.0,-15.0,
2108.0,2066.0,-22.0,-15.0,
2088.0,2103.0,-23.0,-16.0,
1996.0,2177.0,-23.0,-16.0,
2053.0,2123.0,-22.0,-16.0,
2040.0,2157.0,-22.0,-16.0,
2181.0,2092.0,-22.0,-16.0,
2169.0,2126.0,-21.0,-15.0,
2032.0,2099.0,-21.0,-16.0,
2093.0,2049.0,-20.0,-16.0,
2065.0,2009.0,-20.0,-16.0,
2051.0,2031.0,-19.0,-16.0,
1986.0,2119.0,-18.0,-15.0,
2031.0,2105.0,-18.0,-15.0,
2115.0,2043.0,-17.0,-15.0,
2070.0,1965.0,-17.0,-15.0,
2037.0,2103.0,-17.0,-15.0,
2077.0,2139.0,-16.0,-15.0,
2065.0,2128.0,-16.0,-15.0,
2095.0,2180.0,-16.0,-15.0,
2067.0,2108.0,-16.0,-15.0,
2061.0,2173.0,-16.0,-16.0,
2051.0,2086.0,-15.0,-16.0,
2038.0,1969.0,-15.0,-16.0,
2069.0,2008.0,-15.0,-16.0,
2062.0,2044.0,-15.0,-16.0,
2059.0,2033.0,-15.0,-16.0,
2067.0,2165.0,-15.0,-16.0,
2091.0,2047.0,-15.0,-16.0,
2072.0,2156.0,-15.0,-16.0,
2061.0,2070.0,-15.0,-16.0,
2047.0,2074.0,-15.0,-16.0,
2024.0,2191.0,-15.0,-16.0,
2056.0,2128.0,-15.0,-16.0,
2048.0,2079.0,-15.0,-16.0,
2092.0,2158.0,-15.0,-16.0,
2012.0,2046.0,-15.0,-16.0,
2081.0,2103.0,-16.0,-16.0,
2041.0,2021.0,-16.0,-16.0,
2014.0,2165.0,-16.0,-16.0,
2025.0,2103.0,-16.0,-16.0,
2061.0,2028.0,-16.0,-16.0,
2144.0,2056.0,-16.0,-16.0,
2146.0,2112.0,-16.0,-16.0,
2127.0,2118.0,-16.0,-15.0,
2082.0,2090.0,-16.0,-15.0,
2116.0,2090.0,-16.0,-15.0,
2098.0,2115.0,-16.0,-15.0,
2058.0,2132.0,-17.0,-15.0,
2050.0,2051.0,-17.0,-15.0,
2025.0,2102.0,-17.0,-15.0,
2073.0,2117.0,-17.0,-15.0,
2052.0,2076.0,-18.0,-15.0,
2068.0,2133.0,-18.0,-15.0,
2022.0,2014.0,-18.0,-15.0,
2042.0,2036.0,-18.0,-15.0,
1994.0,2058.0,-19.0,-15.0,
1966.0,2114.0,-19.0,-15.0,
2103.0,2120.0,-19.0,-15.0,
2126.0,2031.0,-19.0,-15.0,
2104.0,2040.0,-19.0,-14.0,
2046.0,2067.0,-19.0,-13.0,
2052.0,2069.0,-19.0,-13.0,
2174.0,2076.0,-19.0,-14.0,
2152.0,2106.0,-18.0,-15.0,
2068.0,2029.0,-18.0,-15.0,
2023.0,2168.0,-18.0,-15.0,
2032.0,2123.0,-17.0,-15.0,
2005.0,2057.0,-17.0,-15.0,
2123.0,2029.0,-16.0,-15.0,
2102.0,2007.0,-16.0,-15.0,
2061.0,2161.0,-15.0,-16.0,
2053.0,2140.0,-15.0,-16.0,
2076.0,2206.0,-14.0,-15.0,
2070.0,2216.0,-14.0,-14.0,
2012.0,2085.0,-13.0,-14.0,
1973.0,1950.0,-12.0,-14.0,
2030.0,2025.0,-12.0,-14.0,
2106.0,2070.0,-12.0,-15.0,
2086.0,2118.0,-11.0,-15.0,
2105.0,2085.0,-11.0,-16.0,
2105.0,2183.0,-11.0,-16.0,
2096.0,2095.0,-10.0,-16.0,
2107.0,2067.0,-10.0,-16.0,
2054.0,2099.0,-10.0,-16.0,
2066.0,2064.0,-10.0,-17.0,
2063.0,2061.0,-10.0,-16.0,
2096.0,2107.0,-10.0,-16.0,
2080.0,2111.0,-10.0,-15.0,
2077.0,2167.0,-10.0,-15.0,
2066.0,2003.0,-10.0,-15.0,
2101.0,2076.0,-10.0,-15.0,
2107.0,2062.0,-10.0,-15.0,
2012.0,2052.0,-11.0,-15.0,
2019.0,2063.0,-11.0,-15.0,
2035.0,2122.0,-11.0,-15.0,
2064.0,2091.0,-12.0,-15.0,
2092.0,2037.0,-12.0,-15.0,
2093.0,2092.0,-12.0,-15.0,
2126.0,2042.0,-13.0,-15.0,
2099.0,2128.0,-13.0,-14.0,
2099.0,2090.0,-14.0,-14.0,
2045.0,2064.0,-14.0,-14.0,
2032.0,2070.0,-15.0,-14.0,
2051.0,2060.0,-15.0,-14.0,
2078.0,2011.0,-16.0,-14.0,
2058.0,2154.0,-16.0,-14.0,
2094.0,2218.0,-17.0,-14.0,
2087.0,2228.0,-17.0,-15.0,
2084.0,2129.0,-17.0,-15.0,
2072.0,1932.0,-17.0,-15.0,
2036.0,2077.0,-17.0,-15.0,
2044.0,2152.0,-17.0,-15.0,
2043.0,2091.0,-17.0,-15.0,
2134.0,2094.0,-17.0,-15.0,
2116.0,2058.0,-17.0,-15.0,
2033.0,2078.0,-17.0,-14.0,
1966.0,2064.0,-17.0,-14.0,
1970.0,2074.0,-17.0,-14.0,
2169.0,2004.0,-17.0,-14.0,
2178.0,2031.0,-17.0,-14.0,
2023.0,2012.0,-17.0,-14.0,
2059.0,2105.0,-17.0,-14.0,
2101.0,2096.0,-16.0,-14.0,
2057.0,2193.0,-16.0,-14.0,
2048.0,2079.0,-15.0,-14.0,
2082.0,2030.0,-15.0,-14.0,
2063.0,2128.0,-14.0,-14.0,
2073.0,2126.0,-14.0,-14.0,
2023.0,2177.0,-13.0,-14.0,
1992.0,2129.0,-12.0,-14.0,
2001.0,2104.0,-12.0,-14.0,
2043.0,2027.0,-11.0,-14.0,
2097.0,2001.0,-10.0,-13.0,
2085.0,2085.0,-10.0,-13.0,
2128.0,2136.0,-9.0,-13.0,
2109.0,2153.0,-9.0,-14.0,
2079.0,2067.0,-8.0,-15.0,
2034.0,2044.0,-8.0,-15.0,
2048.0,2091.0,-8.0,-15.0,
2056.0,2084.0,-7.0,-15.0,
2055.0,2092.0,-7.0,-15.0,
2049.0,2035.0,-7.0,-15.0,
2038.0,2064.0,-6.0,-16.0,
2049.0,2072.0,-6.0,-16.0,
2060.0,2096.0,-6.0,-16.0,
2071.0,2107.0,-6.0,-15.0,
2037.0,2084.0,-6.0,-15.0,
2026.0,2067.0,-5.0,-14.0,
2016.0,2037.0,-5.0,-14.0,
2043.0,2101.0,-5.0,-14.0,
2117.0,2146.0,-6.0,-15.0,
2095.0,2162.0,-6.0,-15.0,
2072.0,2120.0,0,
2090.0,2062.0,-6.0,-14.0,
2068.0,1911.0,-6.0,-14.0,
2064.0,2085.0,-6.0,-14.0,
2048.0,2069.0,-6.0,-14.0,
2042.0,2083.0,-7.0,-14.0,
2057.0,2137.0,-7.0,-14.0,
2088.0,2120.0,-7.0,-14.0,
2057.0,2186.0,-8.0,-14.0,
2064.0,2106.0,-8.0,-14.0,
2098.0,2045.0,-9.0,-14.0,
2111.0,2098.0,-9.0,-14.0,
2076.0,2109.0,-10.0,-14.0,
2054.0,2113.0,-10.0,-14.0,
2063.0,2133.0,-11.0,-14.0,
2068.0,2120.0,-11.0,-14.0,
2096.0,2111.0,-11.0,-14.0,
2093.0,2029.0,-12.0,-14.0,
2071.0,2082.0,-12.0,-14.0,
2072.0,2090.0,-12.0,-14.0,
2092.0,2060.0,-12.0,-13.0,
2058.0,2024.0,-12.0,-12.0,
2049.0,2093.0,-12.0,-12.0,
2056.0,2106.0,-12.0,-13.0,
2081.0,2093.0,-12.0,-14.0,
2112.0,2122.0,-12.0,-14.0,
2067.0,2088.0,-12.0,-14.0,
2057.0,2098.0,-12.0,-14.0,
2062.0,2081.0,-12.0,-14.0,
2086.0,2079.0,-12.0,-14.0,
2055.0,2053.0,-12.0,-14.0,
2058.0,2077.0,-12.0,-15.0,
2057.0,2022.0,-12.0,-15.0,
2069.0,2042.0,-12.0,-14.0,
2115.0,2071.0,-11.0,-14.0,
2075.0,2127.0,-11.0,-13.0,
2089.0,2109.0,-11.0,-13.0,
2119.0,2130.0,-11.0,-13.0,
2087.0,2177.0,-10.0,-13.0,
2058.0,2179.0,-10.0,-13.0,
2044.0,2135.0,-10.0,-12.0,
2045.0,1997.0,-10.0,-12.0,
2111.0,2008.0,-9.0,-12.0,
2119.0,2028.0,-9.0,-13.0,
2065.0,2068.0,-9.0,-14.0,
2070.0,2073.0,-9.0,-14.0,
2080.0,2057.0,-9.0,-14.0,
2075.0,2074.0,-9.0,-14.0,
2044.0,2028.0,-9.0,-14.0,
2051.0,2098.0,-9.0,-14.0,
2058.0,2110.0,-8.0,-15.0,
2064.0,2096.0,-8.0,-16.0,
2086.0,2133.0,-8.0,-15.0,
2059.0,2116.0,-8.0,-15.0,
2065.0,2038.0,-7.0,-14.0,
2084.0,2121.0,-7.0,-14.0,
2098.0,2124.0,-7.0,-13.0,
2083.0,2087.0,-6.0,-13.0,
2040.0,2037.0,-6.0,-12.0,
2026.0,2049.0,-6.0,-12.0,
2060.0,2130.0,-5.0,-13.0,
2097.0,2050.0,-5.0,-14.0,
2081.0,2052.0,-5.0,-14.0,
2080.0,2066.0,-5.0,-14.0,
2094.0,2110.0,-5.0,-14.0,
2097.0,2178.0,-5.0,-14.0,
2082.0,2171.0,-5.0,-14.0,
2041.0,2165.0,-5.0,-15.0,
2051.0,2126.0,-5.0,-15.0,
2045.0,2080.0,-5.0,-15.0,
2104.0,2050.0,-5.0,-14.0,
2057.0,1999.0,-5.0,-14.0,
2065.0,2084.0,-5.0,-14.0,
2071.0,2079.0,-6.0,-13.0,
2079.0,2015.0,-6.0,-13.0,
2077.0,2006.0,-6.0,-13.0,
2041.0,2149.0,-7.0,-13.0,
2055.0,2106.0,-7.0,-13.0,
2031.0,2083.0,-7.0,-13.0,
2096.0,2094.0,-7.0,-13.0,
2067.0,2066.0,-8.0,-13.0,
2062.0,2038.0,-8.0,-13.0,
2067.0,2071.0,-8.0,-12.0,
2077.0,2082.0,-8.0,-11.0,
2091.0,2141.0,-8.0,-11.0,
2071.0,2115.0,-8.0,-12.0,
2046.0,2146.0,-8.0,-13.0,
2063.0,2126.0,-8.0,-14.0,
2030.0,2031.0,-8.0,-14.0,
2045.0,2163.0,-8.0,-14.0,
2075.0,2169.0,-8.0,-14.0,
2074.0,2139.0,-8.0,-14.0,
2128.0,2006.0,-8.0,-14.0,
2126.0,2065.0,-8.0,-15.0,
2070.0,2058.0,-8.0,-15.0,
2088.0,2001.0,-8.0,-14.0,
2084.0,2029.0,-8.0,-14.0,
2097.0,2139.0,-8.0,-13.0,
2070.0,2110.0,-8.0,-13.0,
2068.0,2142.0,-8.0,-13.0,
2077.0,2157.0,-8.0,-13.0,
2079.0,2081.0,-8.0,-12.0,
2090.0,2086.0,-7.0,-11.0,
2033.0,2059.0,-7.0,-12.0,
2028.0,2068.0,-7.0,-12.0,
2042.0,2083.0,-7.0,-13.0,
2074.0,2144.0,-6.0,-13.0,
2062.0,2115.0,-6.0,-13.0,
2066.0,2088.0,-6.0,-13.0,
2063.0,2110.0,-5.0,-13.0,
2081.0,2078.0,-5.0,-13.0,
2086.0,2090.0,-4.0,-14.0,
2053.0,2069.0,-4.0,-14.0,
2058.0,2052.0,-3.0,-14.0,
2050.0,2006.0,-3.0,-13.0,
2078.0,2038.0,-2.0,-13.0,
2075.0,2155.0,-2.0,-12.0,
2065.0,2154.0,-1.0,-11.0,
2062.0,2130.0,-1.0,-11.0,
2078.0,2100.0,0.0,-11.0,
2077.0,2055.0,0.0,-12.0,
2046.0,2070.0,0.0,-12.0,
2040.0,2047.0,0.0,-12.0,
2048.0,2046.0,0.0,-12.0,
2081.0,2084.0,0.0,-12.0,
2065.0,2091.0,0.0,-12.0,
2053.0,2117.0,1.0,-12.0,
2072.0,2093.0,1.0,-13.0,
2088.0,2065.0,1.0,-13.0,
2100.0,2093.0,0.0,-13.0,
2067.0,2114.0,1.0,-12.0,
2076.0,2116.0,1.0,-12.0,
2047.0,2079.0,1.0,-12.0,
2067.0,2091.0,0.0,-12.0,
2063.0,2079.0,0.0,-12.0,
2049.0,2147.0,0.0,-12.0,
2057.0,2101.0,0.0,-12.0,
2100.0,2092.0,0.0,-12.0,
2092.0,2091.0,0.0,-12.0,
2038.0,2089.0,0.0,-12.0,
2034.0,2059.0,0.0,-12.0,
2044.0,2101.0,0.0,-12.0,
2065.0,2141.0,-1.0,-12.0,
2053.0,2063.0,-1.0,-12.0,
2046.0,2064.0,-1.0,-12.0,
2066.0,2074.0,-1.0,-12.0,
2055.0,2006.0,-1.0,-12.0,
2086.0,2168.0,-1.0,-11.0,
2062.0,2153.0,-2.0,-10.0,
2052.0,2164.0,-2.0,-10.0,
2067.0,1995.0,-2.0,-11.0,
2085.0,1963.0,-2.0,-12.0,
2092.0,2003.0,-2.0,-12.0,
2100.0,2135.0,-2.0,-12.0,
2097.0,2142.0,-2.0,-12.0,
2093.0,2118.0,-2.0,-12.0,
2110.0,2077.0,-2.0,-12.0,
2061.0,2059.0,-2.0,-13.0,
2049.0,2075.0,-2.0,-14.0,
2049.0,2121.0,-2.0,-14.0,
2071.0,2117.0,-2.0,-13.0,
2086.0,2101.0,-1.0,-12.0,
2063.0,2094.0,-1.0,-12.0,
2074.0,2093.0,-1.0,-12.0,
2060.0,2058.0,-1.0,-12.0,
2090.0,2059.0,-1.0,-12.0,
2071.0,2064.0,-1.0,-12.0,
2039.0,2123.0,-1.0,-11.0,
2064.0,2135.0,-1.0,-10.0,
2076.0,2089.0,-1.0,-10.0,
2080.0,2069.0,-1.0,-10.0,
2066.0,2082.0,-1.0,-11.0,
2063.0,2090.0,-1.0,-11.0,
2078.0,2100.0,-1.0,-11.0,
2111.0,2127.0,-1.0,-11.0,
2071.0,2109.0,0.0,-11.0,
2056.0,2037.0,0.0,-11.0,
2056.0,2032.0,0.0,-12.0,
2067.0,2055.0,0.0,-13.0,
2088.0,2134.0,0.0,-13.0,
2031.0,2117.0,0.0,-13.0,
2078.0,2096.0,0.0,-12.0,
2082.0,2084.0,0.0,-12.0,
2086.0,2066.0,0.0,-11.0,
2063.0,2060.0,1.0,-11.0,
2042.0,2045.0,1.0,-11.0,
2051.0,2043.0,1.0,-11.0,
2064.0,2072.0,1.0,-11.0,
2080.0,2102.0,2.0,-11.0,
2054.0,2092.0,2.0,-11.0,
2092.0,2124.0,2.0,-11.0,
2095.0,2131.0,2.0,-11.0,
2085.0,2140.0,3.0,-11.0,
2051.0,2076.0,3.0,-10.0,
2045.0,2058.0,3.0,-10.0,
2047.0,2072.0,3.0,-10.0,
2061.0,2036.0,3.0,-11.0,
2065.0,2074.0,3.0,-11.0,
2043.0,2132.0,3.0,-11.0,
2055.0,2126.0,3.0,-12.0,
2084.0,2143.0,3.0,-12.0,
2091.0,2124.0,3.0,-11.0,
2066.0,2045.0,3.0,-11.0,
2053.0,2068.0,3.0,-12.0,
2041.0,2058.0,3.0,-12.0,
2057.0,2080.0,3.0,-12.0,
2077.0,2044.0,3.0,-11.0,
2060.0,2095.0,3.0,-11.0,
2090.0,2056.0,3.0,-11.0,
2076.0,2026.0,3.0,-10.0,
2102.0,2091.0,3.0,-10.0,
2094.0,2200.0,2.0,-10.0,
2066.0,2345.0,2.0,-10.0,
2063.0,2106.0,2.0,-11.0,
2073.0,2034.0,2.0,-11.0,
2107.0,2034.0,2.0,-11.0,
2067.0,1992.0,2.0,-11.0,
2070.0,2007.0,2.0,-11.0,
2072.0,2059.0,2.0,-11.0,
2082.0,2086.0,2.0,-11.0,
2067.0,2081.0,2.0,-11.0,
2045.0,2100.0,2.0,-11.0,
2052.0,2115.0,2.0,-11.0,
2075.0,2082.0,2.0,-11.0,
2077.0,2074.0,2.0,-11.0,
2059.0,2053.0,2.0,-11.0,
2060.0,2062.0,2.0,-11.0,
2076.0,2090.0,2.0,-11.0,
2083.0,2111.0,2.0,-11.0,
2073.0,2091.0,2.0,-11.0,
2056.0,2085.0,2.0,-11.0,
2068.0,2077.0,3.0,-11.0,
2059.0,2090.0,3.0,-11.0,
2092.0,2138.0,3.0,-11.0,
2071.0,2107.0,3.0,-11.0,
2070.0,2091.0,3.0,-11.0,
2073.0,2086.0,3.0,-11.0,
2085.0,2081.0,3.0,-11.0,
2070.0,2065.0,3.0,-11.0,
2039.0,2063.0,3.0,-11.0,
2043.0,2103.0,3.0,-11.0,
2064.0,2113.0,3.0,-11.0,
2095.0,2074.0,3.0,-11.0,
2072.0,2081.0,3.0,-11.0,
2085.0,2094.0,3.0,-11.0,
2089.0,2071.0,3.0,-11.0,
2096.0,2024.0,3.0,-11.0,
2078.0,2044.0,3.0,-11.0,
2035.0,2031.0,3.0,-11.0,
2038.0,2080.0,3.0,-11.0,
2046.0,2083.0,3.0,-11.0,
2114.0,2058.0,4.0,-11.0,
2114.0,2226.0,4.0,-11.0,
2082.0,2240.0,4.0,-11.0,
2061.0,2072.0,3.0,-11.0,
2080.0,2091.0,3.0,-11.0,
2065.0,2078.0,3.0,-11.0,
2044.0,2010.0,3.0,-11.0,
2049.0,2110.0,3.0,-11.0,
2054.0,2193.0,3.0,-11.0,
2102.0,2173.0,2.0,-11.0,
2086.0,2140.0,2.0,-11.0,
2075.0,2109.0,2.0,-11.0,
2083.0,2076.0,2.0,-11.0,
2083.0,2054.0,1.0,-11.0,
2072.0,2042.0,1.0,-11.0,
2050.0,2041.0,1.0,-11.0,
2055.0,2128.0,1.0,-11.0,
2071.0,2071.0,0.0,-11.0,
2094.0,2091.0,0.0,-11.0,
2072.0,2104.0,0.0,-11.0,
2065.0,2182.0,0.0,-11.0,
2077.0,2127.0,0.0,-11.0,
2084.0,1997.0,0.0,-11.0,
2059.0,1936.0,0.0,-11.0,
2039.0,2042.0,0.0,-11.0,
2040.0,2102.0,0.0,-11.0,
2056.0,2107.0,0.0,-11.0,
2077.0,2051.0,1.0,-11.0,
2054.0,2010.0,1.0,-11.0,
2064.0,2083.0,2.0,-11.0,
2066.0,2069.0,2.0,-11.0,
2080.0,2024.0,3.0,-12.0,
2074.0,2024.0,3.0,-12.0,
2060.0,2061.0,0,
2055.0,2128.0,4.0,-12.0,
2066.0,2154.0,4.0,-12.0,
2090.0,2151.0,4.0,-12.0,
2072.0,2151.0,4.0,-12.0,
2056.0,2090.0,5.0,-12.0,
2078.0,2148.0,5.0,-12.0,
2074.0,2082.0,5.0,-12.0,
2080.0,2067.0,6.0,-12.0,
2047.0,2033.0,6.0,-12.0,
2034.0,2028.0,6.0,-12.0,
2042.0,2046.0,6.0,-12.0,
2073.0,2122.0,6.0,-12.0,
2055.0,2100.0,6.0,-12.0,
2058.0,2095.0,7.0,-11.0,
2065.0,2083.0,7.0,-11.0,
2072.0,2092.0,7.0,-11.0,
2073.0,2078.0,7.0,-11.0,
2036.0,2068.0,8.0,-11.0,
2032.0,2140.0,8.0,-11.0,
2046.0,2172.0,8.0,-11.0,
2099.0,2165.0,9.0,-11.0,
2091.0,2135.0,9.0,-11.0,
2072.0,2085.0,10.0,-11.0,
2079.0,2070.0,10.0,-11.0,
2084.0,2100.0,10.0,-11.0,
2094.0,2103.0,11.0,-11.0,
2068.0,2078.0,11.0,-11.0,
2060.0,2077.0,11.0,-11.0,
2066.0,2069.0,11.0,-10.0,
2075.0,2084.0,11.0,-10.0,
2071.0,2116.0,11.0,-10.0,
2065.0,2098.0,11.0,-10.0,
2068.0,2083.0,11.0,-10.0,
2081.0,2069.0,11.0,-10.0,
2078.0,2068.0,10.0,-10.0,
2036.0,2062.0,10.0,-10.0,
2040.0,2084.0,10.0,-10.0,
2045.0,2104.0,9.0,-10.0,
2080.0,2114.0,9.0,-10.0,
2099.0,2102.0,8.0,-10.0,
2100.0,2121.0,8.0,-10.0,
2087.0,2079.0,8.0,-10.0,
2092.0,2094.0,8.0,-10.0,
2101.0,2109.0,7.0,-10.0,
2062.0,2120.0,7.0,-10.0,
2067.0,2091.0,7.0,-10.0,
2061.0,2041.0,7.0,-10.0,
2083.0,2050.0,7.0,-10.0,
2080.0,2116.0,7.0,-10.0,
2067.0,2135.0,6.0,-10.0,
2066.0,2061.0,6.0,-10.0,
2090.0,2033.0,6.0,-10.0,
2094.0,2090.0,6.0,-10.0,
2063.0,2003.0,6.0,-10.0,
2055.0,2057.0,6.0,-10.0,
2054.0,2124.0,6.0,-10.0,
2074.0,2051.0,6.0,-10.0,
2082.0,2028.0,6.0,-10.0,
2068.0,2114.0,6.0,-11.0,
2059.0,2086.0,6.0,-11.0,
2090.0,2050.0,6.0,-11.0,
2104.0,2099.0,6.0,-11.0,
2094.0,2106.0,6.0,-11.0,
2062.0,2065.0,6.0,-11.0,
2071.0,2086.0,6.0,-11.0,
2095.0,2050.0,6.0,-11.0,
2091.0,2067.0,7.0,-11.0,
2069.0,2109.0,7.0,-11.0,
2074.0,2094.0,7.0,-11.0,
2098.0,2131.0,8.0,-11.0,
2099.0,2127.0,8.0,-11.0,
2060.0,2097.0,8.0,-11.0,
2061.0,2126.0,8.0,-11.0,
2071.0,2122.0,8.0,-11.0,
2078.0,2154.0,8.0,-11.0,
2085.0,2094.0,8.0,-11.0,
2082.0,2106.0,8.0,-11.0,
2078.0,2076.0,8.0,-11.0,
2085.0,2093.0,7.0,-11.0,
2113.0,2096.0,7.0,-12.0,
2061.0,2075.0,7.0,-12.0,
2051.0,2049.0,7.0,-11.0,
2066.0,2062.0,7.0,-11.0,
2087.0,2073.0,6.0,-11.0,
2076.0,2063.0,6.0,-11.0,
2065.0,2085.0,6.0,-11.0,
2066.0,2101.0,5.0,-11.0,
2090.0,2100.0,5.0,-11.0,
2114.0,2120.0,5.0,-11.0,
2076.0,2113.0,4.0,-11.0,
2063.0,2136.0,4.0,-11.0,
2061.0,2094.0,4.0,-11.0,
2074.0,2099.0,3.0,-11.0,
2076.0,2075.0,3.0,-11.0,
2060.0,2075.0,3.0,-11.0,
2070.0,2074.0,2.0,-11.0,
2076.0,2072.0,2.0,-11.0,
2091.0,2077.0,2.0,-11.0,
2064.0,2063.0,2.0,-11.0,
2041.0,2064.0,2.0,-11.0,
2060.0,2070.0,1.0,-11.0,
2093.0,2068.0,1.0,-11.0,
2095.0,2083.0,1.0,-11.0,
2070.0,2074.0,1.0,-11.0,
2087.0,2083.0,1.0,-11.0,
2098.0,2098.0,1.0,-11.0,
2103.0,2112.0,1.0,-11.0,
2078.0,2102.0,1.0,-11.0,
2065.0,2103.0,1.0,-11.0,
2071.0,2094.0,1.0,-11.0,
2087.0,2107.0,1.0,-11.0,
2100.0,2090.0,2.0,-11.0,
2076.0,2060.0,2.0,-11.0,
2073.0,2072.0,2.0,-11.0,
2063.0,2050.0,2.0,-11.0,
2073.0,2071.0,3.0,-11.0,
2063.0,2066.0,3.0,-11.0,
2035.0,2083.0,3.0,-11.0,
2062.0,2095.0,3.0,-11.0,
2066.0,2086.0,3.0,-11.0,
2098.0,2094.0,3.0,-11.0,
2069.0,2111.0,3.0,-11.0,
2053.0,2114.0,3.0,-11.0,
2081.0,2099.0,3.0,-12.0,
2082.0,2103.0,3.0,-12.0,
2044.0,2115.0,3.0,-12.0,
2044.0,2095.0,3.0,-12.0,
2038.0,2084.0,3.0,-12.0,
2042.0,2074.0,3.0,-12.0,
2085.0,2069.0,3.0,-12.0,
2076.0,2090.0,4.0,-12.0,
2075.0,2116.0,4.0,-12.0,
2068.0,2105.0,4.0,-12.0,
2068.0,2090.0,4.0,-11.0,
2055.0,2069.0,4.0,-11.0,
2035.0,2046.0,4.0,-11.0,
2052.0,2054.0,5.0,-11.0,
2073.0,2076.0,5.0,-11.0,
2092.0,2098.0,5.0,-11.0,
2055.0,2091.0,5.0,-11.0,
2051.0,2056.0,5.0,-11.0,
2067.0,2059.0,5.0,-11.0,
2093.0,2105.0,5.0,-11.0,
2069.0,2098.0,5.0,-11.0,
2037.0,2072.0,5.0,-11.0,
2038.0,2084.0,5.0,-11.0,
2087.0,2081.0,5.0,-11.0,
2067.0,2084.0,5.0,-11.0,
2063.0,2105.0,5.0,-11.0,
2062.0,2120.0,5.0,-11.0,
2106.0,2102.0,5.0,-11.0,
2117.0,2119.0,5.0,-11.0,
2130.0,2094.0,5.0,-11.0,
2048.0,2081.0,5.0,-11.0,
2055.0,2066.0,5.0,-11.0,
2066.0,2060.0,5.0,-11.0,
2089.0,2082.0,5.0,-11.0,
2052.0,2086.0,5.0,-11.0,
2058.0,2119.0,5.0,-11.0,
2085.0,2107.0,5.0,-11.0,
2110.0,2144.0,5.0,-11.0,
2080.0,2095.0,5.0,-11.0,
2069.0,2056.0,5.0,-11.0,
2047.0,2054.0,5.0,-11.0,
2041.0,2056.0,5.0,-11.0,
2070.0,2095.0,5.0,-11.0,
2039.0,2147.0,5.0,-11.0,
2059.0,2141.0,5.0,-11.0,
2088.0,2092.0,5.0,-11.0,
2102.0,2097.0,5.0,-11.0,
2065.0,2107.0,5.0,-11.0,
2032.0,2078.0,5.0,-11.0,
2030.0,2041.0,4.0,-11.0,
2048.0,2038.0,4.0,-11.0,
2083.0,2043.0,4.0,-11.0,
2055.0,2051.0,4.0,-11.0,
2069.0,2104.0,4.0,-11.0,
2062.0,2057.0,4.0,-11.0,
2079.0,2086.0,4.0,-11.0,
2095.0,2074.0,4.0,-11.0,
2059.0,2087.0,4.0,-11.0,
2082.0,2109.0,4.0,-11.0,
2078.0,2096.0,4.0,-11.0,
2111.0,2093.0,4.0,-11.0,
2087.0,2096.0,4.0,-11.0,
2069.0,2099.0,4.0,-11.0,
2065.0,2106.0,4.0,-11.0,
2090.0,2094.0,4.0,-11.0,
2088.0,2118.0,4.0,-11.0,
2051.0,2074.0,4.0,-11.0,
2040.0,2063.0,4.0,-11.0,
2050.0,2057.0,4.0,-11.0,
2077.0,2072.0,4.0,-11.0,
2063.0,2104.0,4.0,-11.0,
2062.0,2103.0,4.0,-11.0,
2079.0,2084.0,4.0,-11.0,
2086.0,2095.0,4.0,-11.0,
2077.0,2100.0,5.0,-11.0,
2051.0,2082.0,5.0,-11.0,
2054.0,2082.0,5.0,-12.0,
2058.0,2038.0,5.0,-12.0,
2080.0,2038.0,5.0,-12.0,
2070.0,2030.0,5.0,-12.0,
2073.0,2069.0,5.0,-12.0,
2085.0,2103.0,5.0,-12.0,
2088.0,2088.0,5.0,-12.0,
2082.0,2093.0,5.0,-12.0,
2034.0,2101.0,6.0,-12.0,
2059.0,2101.0,6.0,-12.0,
2052.0,2075.0,6.0,-12.0,
2078.0,2097.0,6.0,-12.0,
2056.0,2073.0,6.0,-12.0,
2056.0,2116.0,6.0,-12.0,
2066.0,2110.0,6.0,-11.0,
2075.0,2103.0,6.0,-11.0,
2069.0,2103.0,6.0,-11.0,
2033.0,2091.0,6.0,-11.0,
2027.0,2089.0,6.0,-11.0,
2054.0,2094.0,6.0,-11.0,
2103.0,2104.0,6.0,-11.0,
2090.0,2091.0,6.0,-11.0,
2077.0,2081.0,6.0,-11.0,
2078.0,2093.0,6.0,-11.0,
2086.0,2136.0,6.0,-11.0,
2086.0,2091.0,6.0,-11.0,
2047.0,2018.0,6.0,-11.0,
2053.0,2021.0,6.0,-11.0,
2071.0,2100.0,6.0,-11.0,
2085.0,2165.0,6.0,-11.0,
2097.0,2115.0,6.0,-11.0,
2080.0,2093.0,0,
2068.0,2067.0,5.0,-11.0,
2077.0,2058.0,5.0,-11.0,
2073.0,2078.0,5.0,-11.0,
2046.0,2076.0,5.0,-11.0,
2038.0,2100.0,5.0,-11.0,
2075.0,2123.0,5.0,-11.0,
2095.0,2117.0,5.0,-11.0,
2097.0,2103.0,5.0,-11.0,
2074.0,2071.0,5.0,-11.0,
2068.0,2038.0,5.0,-11.0,
2075.0,2066.0,5.0,-11.0,
2080.0,2069.0,5.0,-11.0,
2056.0,2039.0,5.0,-11.0,
2039.0,2032.0,5.0,-11.0,
2047.0,2109.0,5.0,-11.0,
2087.0,2115.0,5.0,-11.0,
2087.0,2072.0,5.0,-11.0,
2071.0,2055.0,5.0,-12.0,
2087.0,2063.0,5.0,-12.0,
2090.0,2078.0,5.0,-12.0,
2086.0,2122.0,4.0,-12.0,
2055.0,2129.0,4.0,-12.0,
2062.0,2112.0,4.0,-12.0,
2053.0,2082.0,4.0,-12.0,
2075.0,2071.0,4.0,-12.0,
2065.0,2072.0,4.0,-12.0,
2059.0,2091.0,4.0,-12.0,
2065.0,2096.0,4.0,-12.0,
2082.0,2109.0,4.0,-11.0,
2102.0,2110.0,4.0,-11.0,
2062.0,2090.0,4.0,-12.0,
2056.0,2078.0,4.0,-11.0,
2054.0,2076.0,4.0,-11.0,
2080.0,2082.0,4.0,-11.0,
2082.0,2083.0,4.0,-11.0,
2070.0,2092.0,5.0,-11.0,
2064.0,2088.0,5.0,-11.0,
2082.0,2089.0,5.0,-11.0,
2094.0,2095.0,5.0,-11.0,
2060.0,2071.0,5.0,-11.0,
2048.0,2074.0,5.0,-11.0,
2052.0,2061.0,5.0,-11.0,
2062.0,2090.0,5.0,-11.0,
2075.0,2103.0,5.0,-11.0,
2073.0,2096.0,5.0,-11.0,
2079.0,2091.0,5.0,-11.0,
2078.0,2078.0,5.0,-11.0,
2092.0,2119.0,5.0,-11.0,
2074.0,2110.0,5.0,-11.0,
2056.0,2089.0,5.0,-11.0,
2054.0,2105.0,5.0,-11.0,
2090.0,2050.0,5.0,-11.0,
2075.0,2035.0,5.0,-11.0,
2070.0,2076.0,5.0,-11.0,
2067.0,2070.0,5.0,-11.0,
2074.0,2114.0,5.0,-11.0,
2096.0,2115.0,5.0,-11.0,
2074.0,2117.0,5.0,-11.0,
2043.0,2038.0,5.0,-11.0,
2041.0,2036.0,6.0,-11.0,
2080.0,2021.0,6.0,-11.0,
2099.0,2046.0,5.0,-11.0,
2077.0,2093.0,5.0,-11.0,
2083.0,2128.0,5.0,-11.0,
2083.0,2128.0,5.0,-11.0,
2097.0,2137.0,5.0,-11.0,
2066.0,2065.0,5.0,-11.0,
2063.0,2058.0,5.0,-12.0,
2056.0,2096.0,5.0,-11.0,
2061.0,2106.0,5.0,-11.0,
2069.0,2090.0,5.0,-11.0,
2052.0,2107.0,5.0,-11.0,
2065.0,2115.0,5.0,-11.0,
2080.0,2085.0,5.0,-11.0,
2094.0,2120.0,5.0,-11.0,
2072.0,2106.0,5.0,-11.0,
2052.0,2080.0,5.0,-11.0,
2054.0,2078.0,5.0,-11.0,
2071.0,2076.0,5.0,-11.0,
2078.0,2078.0,5.0,-12.0,
2063.0,2094.0,5.0,-12.0,
2076.0,2100.0,5.0,-12.0,
2080.0,2089.0,5.0,-12.0,
2089.0,2088.0,5.0,-12.0,
2065.0,2086.0,5.0,-12.0,
2047.0,2080.0,5.0,-12.0,
2053.0,2082.0,5.0,-12.0,
2085.0,2072.0,5.0,-11.0,
2092.0,2075.0,5.0,-11.0,
2074.0,2085.0,5.0,-11.0,
2074.0,2096.0,5.0,-11.0,
2075.0,2093.0,5.0,-11.0,
2079.0,2086.0,5.0,-11.0,
2054.0,2056.0,5.0,-11.0,
2040.0,2057.0,5.0,-11.0,
2026.0,2067.0,5.0,-11.0,
2055.0,2074.0,5.0,-11.0,
2083.0,2062.0,5.0,-11.0,
2048.0,2098.0,5.0,-11.0,
2062.0,2111.0,5.0,-11.0,
2078.0,2091.0,5.0,-11.0,
2081.0,2098.0,5.0,-11.0,
2073.0,2095.0,5.0,-11.0,
2054.0,2087.0,5.0,-11.0,
2038.0,2091.0,5.0,-11.0,
2062.0,2110.0,5.0,-11.0,
2083.0,2087.0,5.0,-11.0,
2051.0,2101.0,5.0,-11.0,
2059.0,2095.0,5.0,-11.0,
2086.0,2106.0,5.0,-11.0,
2093.0,2111.0,5.0,-11.0,
2082.0,2088.0,5.0,-11.0,
2050.0,2057.0,5.0,-11.0,
2059.0,2054.0,5.0,-11.0,
2070.0,2066.0,5.0,-11.0,
2095.0,2069.0,5.0,-11.0,
2065.0,2075.0,5.0,-11.0,
2070.0,2074.0,5.0,-11.0,
2069.0,2074.0,5.0,-11.0,
2096.0,2080.0,5.0,-11.0,
2076.0,2062.0,5.0,-11.0,
2053.0,2079.0,5.0,-11.0,
2049.0,2084.0,5.0,-11.0,
2076.0,2133.0,5.0,-11.0,
2091.0,2117.0,5.0,-11.0,
2055.0,2063.0,5.0,-11.0,
2064.0,2072.0,5.0,-11.0,
2079.0,2079.0,5.0,-11.0,
2092.0,2079.0,5.0,-11.0,
2086.0,2119.0,5.0,-12.0,
2060.0,2108.0,5.0,-12.0,
2076.0,2097.0,5.0,-12.0,
2076.0,2099.0,5.0,-12.0,
2085.0,2073.0,5.0,-12.0,
2056.0,2081.0,5.0,-12.0,
2052.0,2098.0,5.0,-12.0,
2075.0,2108.0,5.0,-12.0,
2096.0,2088.0,5.0,-12.0,
2084.0,2054.0,5.0,-12.0,
2055.0,2077.0,5.0,-12.0,
2070.0,2079.0,5.0,-12.0,
2065.0,2096.0,5.0,-12.0,
2097.0,2091.0,5.0,-12.0,
2066.0,2062.0,5.0,-12.0,
2066.0,2054.0,5.0,-12.0,
2064.0,2083.0,5.0,-12.0,
2084.0,2082.0,5.0,-12.0,
2083.0,2135.0,5.0,-12.0,
2054.0,2131.0,5.0,-12.0,
2053.0,2097.0,5.0,-12.0,
2046.0,2070.0,5.0,-12.0,
2093.0,2092.0,5.0,-12.0,
2064.0,2076.0,5.0,-12.0,
2056.0,2077.0,5.0,-12.0,
2061.0,2078.0,5.0,-12.0,
2099.0,2095.0,5.0,-12.0,
2100.0,2102.0,5.0,-12.0,
2060.0,2098.0,5.0,-12.0,
2051.0,2079.0,5.0,-12.0,
2056.0,2062.0,5.0,-12.0,
2092.0,2075.0,5.0,-12.0,
2066.0,2076.0,5.0,-12.0,
2061.0,2086.0,5.0,-12.0,
2086.0,2069.0,5.0,-12.0,
2087.0,2090.0,5.0,-12.0,
2082.0,2090.0,5.0,-12.0,
2045.0,2077.0,5.0,-12.0,
2054.0,2085.0,5.0,-12.0,
2050.0,2086.0,5.0,-12.0,
2096.0,2089.0,5.0,-12.0,
2091.0,2087.0,5.0,-12.0,
2069.0,2096.0,5.0,-12.0,
2071.0,2095.0,5.0,-12.0,
2088.0,2050.0,5.0,-12.0,
2086.0,2109.0,5.0,-12.0,
2044.0,2092.0,5.0,-12.0,
2041.0,2097.0,5.0,-12.0,
2054.0,2090.0,5.0,-12.0,
2085.0,2094.0,5.0,-12.0,
2061.0,2088.0,5.0,-12.0,
2069.0,2087.0,5.0,-12.0,
2071.0,2085.0,5.0,-12.0,
2092.0,2087.0,5.0,-12.0,
2084.0,2089.0,5.0,-12.0,
2051.0,2075.0,5.0,-12.0,
2046.0,2072.0,5.0,-12.0,
2042.0,2094.0,5.0,-12.0,
2070.0,2111.0,5.0,-12.0,
2072.0,2089.0,5.0,-12.0,
2067.0,2097.0,5.0,-12.0,
2073.0,2090.0,5.0,-12.0,
2080.0,2077.0,5.0,-12.0,
2076.0,2073.0,5.0,-12.0,
2048.0,2073.0,5.0,-12.0,
2045.0,2091.0,5.0,-12.0,
2055.0,2125.0,5.0,-12.0,
2115.0,2126.0,5.0,-12.0,
2095.0,2108.0,5.0,-12.0,
2071.0,2090.0,5.0,-12.0,
2069.0,2080.0,5.0,-12.0,
2091.0,2091.0,5.0,-12.0,
2091.0,2087.0,5.0,-12.0,
2051.0,2074.0,5.0,-12.0,
2037.0,2059.0,5.0,-12.0,
2035.0,2066.0,5.0,-12.0,
2064.0,2081.0,5.0,-12.0,
2074.0,2111.0,5.0,-12.0,
2061.0,2124.0,5.0,-12.0,
2070.0,2098.0,5.0,-12.0,
2110.0,2063.0,5.0,-12.0,
2108.0,2073.0,5.0,-12.0,
2059.0,2068.0,5.0,-12.0,
2055.0,2067.0,5.0,-12.0,
2051.0,2078.0,5.0,-12.0,
2095.0,2132.0,5.0,-12.0,
2106.0,2090.0,5.0,-12.0,
2065.0,2077.0,5.0,-12.0,
2064.0,2056.0,5.0,-12.0,
2072.0,2059.0,5.0,-12.0,
2086.0,2083.0,5.0,-12.0,
2029.0,2096.0,5.0,-12.0,
2053.0,2099.0,5.0,-12.0,
2041.0,2059.0,5.0,-12.0,
2055.0,2076.0,5.0,-12.0,
2076.0,2085.0,5.0,-12.0,
2054.0,2083.0,5.0,-12.0,
2062.0,2086.0,5.0,-12.0,
2088.0,2095.0,5.0,-12.0,
2064.0,2089.0,5.0,-12.0,
2059.0,2040.0,5.0,-12.0,
2047.0,2074.0,5.0,-12.0,
2051.0,2074.0,5.0,-12.0,
2066.0,2073.0,5.0,-12.0,
2069.0,2079.0,5.0,-12.0,
2061.0,2102.0,5.0,-12.0,
2064.0,2098.0,5.0,-12.0,
2083.0,2109.0,5.0,-12.0,
2089.0,2105.0,5.0,-12.0,
2059.0,2067.0,5.0,-12.0,
2046.0,2065.0,5.0,-12.0,
2038.0,2073.0,5.0,-12.0,
2059.0,2086.0,5.0,-12.0,
2090.0,2118.0,5.0,-12.0,
2082.0,2099.0,5.0,-12.0,
2087.0,2119.0,5.0,-12.0,
2092.0,2125.0,5.0,-12.0,
2113.0,2119.0,5.0,-12.0,
2062.0,2120.0,5.0,-12.0,
2051.0,2091.0,5.0,-12.0,
2060.0,2048.0,5.0,-12.0,
2070.0,2068.0,5.0,-12.0,
2082.0,2095.0,5.0,-12.0,
2079.0,2084.0,5.0,-12.0,
2076.0,2109.0,5.0,-12.0,
2090.0,2087.0,5.0,-12.0,
2089.0,2096.0,5.0,-12.0,
2060.0,2086.0,5.0,-12.0,
2035.0,2075.0,5.0,-12.0,
2045.0,2057.0,5.0,-12.0,
2061.0,2032.0,5.0,-12.0,
2060.0,2034.0,5.0,-12.0,
2057.0,2081.0,5.0,-12.0,
2076.0,2087.0,5.0,-12.0,
2089.0,2087.0,5.0,-11.0,
2086.0,2095.0,5.0,-11.0,
2067.0,2111.0,5.0,-11.0,
2031.0,2078.0,5.0,-12.0,
2032.0,2091.0,5.0,-12.0,
2061.0,2111.0,5.0,-11.0,
2080.0,2105.0,5.0,-12.0,
2060.0,2096.0,5.0,-12.0,
2062.0,2079.0,5.0,-12.0,
2066.0,2063.0,5.0,-12.0,
2069.0,2040.0,5.0,-12.0,
2064.0,2085.0,5.0,-12.0,
2074.0,2122.0,5.0,-12.0,
2066.0,2086.0,5.0,-12.0,
2085.0,2127.0,5.0,-12.0,
2103.0,2117.0,5.0,-12.0,
2061.0,2086.0,5.0,-12.0,
2068.0,2084.0,5.0,-12.0,
2078.0,2087.0,5.0,-12.0,
2090.0,2085.0,5.0,-12.0,
2067.0,2091.0,5.0,-12.0,
2048.0,2070.0,5.0,-12.0,
2051.0,2051.0,5.0,-12.0,
2045.0,2039.0,5.0,-12.0,
2077.0,2040.0,5.0,-12.0,
2053.0,2125.0,5.0,-12.0,
2063.0,2117.0,5.0,-12.0,
2067.0,2131.0,5.0,-12.0,
2131.0,2138.0,5.0,-12.0,
2084.0,2107.0,5.0,-12.0,
2059.0,2069.0,5.0,-12.0,
2051.0,2055.0,5.0,-12.0,
2064.0,2080.0,5.0,-12.0,
2083.0,2070.0,5.0,-12.0,
2069.0,2064.0,5.0,-12.0,
2069.0,2063.0,5.0,-12.0,
2072.0,2058.0,5.0,-12.0,
2082.0,2063.0,5.0,-12.0,
2069.0,2065.0,5.0,-12.0,
2038.0,2074.0,5.0,-12.0,
2046.0,2104.0,5.0,-12.0,
2074.0,2115.0,5.0,-12.0,
2095.0,2125.0,5.0,-12.0,
2063.0,2094.0,5.0,-12.0,
2065.0,2086.0,5.0,-12.0,
2064.0,2090.0,5.0,-12.0,
2083.0,2097.0,5.0,-12.0,
2083.0,2085.0,5.0,-12.0,
2022.0,2088.0,5.0,-12.0,
2040.0,2096.0,5.0,-12.0,
2034.0,2074.0,5.0,-12.0,
2066.0,2062.0,5.0,-12.0,
2049.0,2072.0,5.0,-12.0,
2049.0,2074.0,5.0,-12.0,
2056.0,2047.0,5.0,-12.0,
2089.0,2067.0,5.0,-12.0,
2083.0,2086.0,5.0,-12.0,
2042.0,2088.0,5.0,-12.0,
2054.0,2108.0,5.0,-12.0,
2080.0,2098.0,5.0,-12.0,
2099.0,2096.0,5.0,-12.0,
2078.0,2081.0,5.0,-12.0,
2068.0,2055.0,5.0,-12.0,
2067.0,2078.0,5.0,-12.0,
2083.0,2098.0,5.0,-12.0,
2090.0,2107.0,5.0,-12.0,
2066.0,2137.0,5.0,-12.0,
2069.0,2140.0,5.0,-12.0,
2063.0,2126.0,5.0,-12.0,
2103.0,2096.0,5.0,-12.0,
2068.0,2102.0,5.0,-12.0,
2060.0,2091.0,5.0,-12.0,
2078.0,2089.0,5.0,-12.0,
2094.0,2091.0,5.0,-12.0,
2087.0,2073.0,5.0,-12.0,
2059.0,2089.0,5.0,-12.0,
2070.0,2084.0,5.0,-12.0,
2078.0,2068.0,5.0,-12.0,
2086.0,2072.0,5.0,-12.0,
2086.0,2074.0,5.0,-12.0,
2069.0,2073.0,5.0,-12.0,
2067.0,2057.0,5.0,-12.0,
2084.0,2100.0,5.0,-12.0,
2088.0,2078.0,5.0,-12.0,
2045.0,2051.0,5.0,-12.0,
2043.0,2091.0,5.0,-12.0,
2065.0,2085.0,5.0,-12.0,
2084.0,2088.0,5.0,-12.0,
2078.0,2111.0,5.0,-12.0,
2077.0,2118.0,5.0,-12.0,
2063.0,2105.0,5.0,-12.0,
2081.0,2110.0,5.0,-12.0,
2099.0,2093.0,5.0,-12.0,
2044.0,2048.0,5.0,-12.0,
2045.0,2062.0,5.0,-12.0,
2049.0,2076.0,5.0,-12.0,
2100.0,2088.0,5.0,-12.0,
2074.0,2086.0,5.0,-12.0,
2070.0,2098.0,5.0,-12.0,
2073.0,2112.0,5.0,-12.0,
2076.0,2110.0,5.0,-12.0,
2100.0,2086.0,5.0,-12.0,
2052.0,2052.0,5.0,-12.0,
2046.0,2058.0,5.0,-12.0,
2062.0,2061.0,5.0,-12.0,
2085.0,2094.0,5.0,-12.0,
2074.0,2073.0,5.0,-12.0,
2058.0,2072.0,5.0,-12.0,
2071.0,2070.0,5.0,-12.0,
2075.0,2076.0,5.0,-12.0,
2077.0,2083.0,5.0,-12.0,
2042.0,2071.0,5.0,-12.0,
2044.0,2101.0,5.0,-12.0,
2046.0,2088.0,5.0,-12.0,
2085.0,2083.0,5.0,-12.0,
2077.0,2092.0,5.0,-12.0,
2069.0,2100.0,5.0,-12.0,
2066.0,2111.0,5.0,-12.0,
2077.0,2095.0,5.0,-12.0,
2082.0,2076.0,5.0,-12.0,
2050.0,2094.0,5.0,-12.0,
2055.0,2081.0,5.0,-12.0,
2052.0,2092.0,5.0,-12.0,
2078.0,2103.0,5.0,-12.0,
2078.0,2081.0,5.0,-12.0,
2063.0,2073.0,5.0,-12.0,
2076.0,2091.0,5.0,-12.0,
2090.0,2113.0,5.0,-12.0,
2103.0,2143.0,5.0,-12.0,
2084.0,2112.0,5.0,-12.0,
2070.0,2097.0,5.0,-12.0,
2066.0,2088.0,5.0,-12.0,
2078.0,2084.0,5.0,-12.0,
2089.0,2077.0,5.0,-12.0,
2075.0,2088.0,5.0,-12.0,
2069.0,2110.0,5.0,-12.0,
2084.0,2117.0,5.0,-12.0,
2093.0,2080.0,5.0,-12.0,
2059.0,2082.0,5.0,-12.0,
2045.0,2074.0,5.0,-12.0,
2048.0,2072.0,5.0,-12.0,
2064.0,2076.0,5.0,-12.0,
2071.0,2068.0,5.0,-12.0,
2054.0,2067.0,5.0,-12.0,
2065.0,2052.0,5.0,-12.0,
2070.0,2050.0,5.0,-12.0,
2091.0,2092.0,5.0,-12.0,
2069.0,2084.0,5.0,-12.0,
2045.0,2133.0,5.0,-12.0,
2061.0,2131.0,5.0,-12.0,
2094.0,2128.0,5.0,-12.0,
2100.0,2101.0,5.0,-12.0,
2062.0,2090.0,5.0,-12.0,
2069.0,2091.0,5.0,-12.0,
2079.0,2093.0,5.0,-12.0,
2086.0,2079.0,5.0,-12.0,
2051.0,2073.0,5.0,-12.0,
2044.0,2072.0,5.0,-12.0,
2045.0,2073.0,5.0,-12.0,
2065.0,2091.0,5.0,-12.0,
2079.0,2111.0,5.0,-12.0,
2065.0,2091.0,5.0,-12.0,
2069.0,2089.0,5.0,-12.0,
2068.0,2091.0,5.0,-12.0,
2089.0,2095.0,5.0,-12.0,
2050.0,2066.0,5.0,-12.0,
2046.0,2066.0,5.0,-12.0,
2051.0,2066.0,5.0,-12.0,
2068.0,2087.0,5.0,-12.0,
2083.0,2091.0,5.0,-12.0,
2076.0,2093.0,5.0,-12.0,
2075.0,2099.0,5.0,-12.0,
2079.0,2079.0,5.0,-12.0,
2082.0,2123.0,5.0,-12.0,
2050.0,2095.0,5.0,-12.0,
2043.0,2091.0,5.0,-12.0,
2040.0,2097.0,5.0,-12.0,
2059.0,2102.0,5.0,-12.0,
2079.0,2103.0,5.0,-12.0,
2070.0,2092.0,5.0,-12.0,
2072.0,2074.0,5.0,-12.0,
2080.0,2091.0,5.0,-12.0,
2081.0,2093.0,5.0,-12.0,
2078.0,2089.0,5.0,-12.0,
2062.0,2083.0,5.0,-12.0,
2046.0,2074.0,5.0,-12.0,
2085.0,2082.0,5.0,-12.0,
2110.0,2070.0,5.0,-12.0,
2078.0,2067.0,5.0,-12.0,
2068.0,2100.0,4.0,-12.0,
2074.0,2123.0,5.0,-12.0,
2099.0,2101.0,5.0,-12.0,
2070.0,2094.0,5.0,-12.0,
2055.0,2100.0,4.0,-12.0,
2059.0,2085.0,5.0,-12.0,
2073.0,2095.0,4.0,-12.0,
2097.0,2101.0,4.0,-12.0,
2069.0,2075.0,4.0,-12.0,
2075.0,2067.0,4.0,-12.0,
2082.0,2074.0,4.0,-12.0,
2073.0,2077.0,4.0,-12.0,
2073.0,2077.0,4.0,-12.0,
2052.0,2078.0,4.0,-12.0,
2053.0,2086.0,4.0,-12.0,
2056.0,2107.0,4.0,-12.0,
2081.0,2078.0,4.0,-12.0,
2069.0,2088.0,5.0,-12.0,
2069.0,2096.0,5.0,-12.0,
2086.0,2100.0,5.0,-12.0,
2099.0,2119.0,5.0,-12.0,
2083.0,2125.0,5.0,-12.0,
2060.0,2102.0,5.0,-12.0,
2057.0,2090.0,5.0,-12.0,
2065.0,2077.0,5.0,-12.0,
2092.0,2077.0,5.0,-12.0,
2076.0,2083.0,5.0,-12.0,
2064.0,2082.0,5.0,-12.0,
2079.0,2099.0,5.0,-12.0,
2092.0,2098.0,5.0,-12.0,
2074.0,2093.0,5.0,-12.0,
2055.0,2086.0,5.0,-12.0,
2056.0,2065.0,5.0,-12.0,
2060.0,2056.0,5.0,-12.0,
2097.0,2077.0,5.0,-12.0,
2065.0,2096.0,5.0,-12.0,
2070.0,2100.0,5.0,-12.0,
2079.0,2124.0,5.0,-12.0,
2085.0,2098.0,5.0,-12.0,
2086.0,2073.0,5.0,-12.0,
2066.0,2091.0,5.0,-12.0,
2053.0,2102.0,5.0,-12.0,
2057.0,2098.0,5.0,-12.0,
2083.0,2107.0,5.0,-12.0,
2071.0,2101.0,5.0,-12.0,
2077.0,2098.0,5.0,-12.0,
2069.0,2091.0,5.0,-12.0,
2072.0,2096.0,5.0,-12.0,
2072.0,2078.0,5.0,-12.0,
2039.0,2067.0,5.0,-12.0,
2040.0,2058.0,5.0,-12.0,
2039.0,2075.0,5.0,-12.0,
2069.0,2100.0,5.0,-12.0,
2084.0,2111.0,5.0,-12.0,
2068.0,2113.0,5.0,-12.0,
2072.0,2096.0,5.0,-12.0,
2099.0,2099.0,5.0,-12.0,
2081.0,2068.0,5.0,-12.0,
2024.0,2069.0,5.0,-12.0,
2031.0,2035.0,5.0,-12.0,
2029.0,2041.0,5.0,-12.0,
2059.0,2099.0,5.0,-12.0,
2073.0,2125.0,5.0,-12.0,
2103.0,2167.0,5.0,-12.0,
2116.0,2145.0,5.0,-12.0,
2093.0,2131.0,5.0,-12.0,
2094.0,2096.0,4.0,-12.0,
2060.0,2085.0,4.0,-12.0,
2052.0,2079.0,4.0,-12.0,
2058.0,2067.0,4.0,-12.0,
2083.0,2084.0,4.0,-12.0,
2078.0,2069.0,4.0,-12.0,
2061.0,2070.0,4.0,-12.0,
2067.0,2077.0,4.0,-12.0,
2087.0,2085.0,4.0,-12.0,
2104.0,2090.0,4.0,-12.0,
2063.0,2076.0,4.0,-12.0,
2049.0,2076.0,4.0,-12.0,
2065.0,2073.0,4.0,-12.0,
2089.0,2080.0,4.0,-12.0,
2078.0,2085.0,4.0,-12.0,
2068.0,2087.0,4.0,-12.0,
2077.0,2099.0,4.0,-12.0,
2078.0,2104.0,4.0,-12.0,
2086.0,2098.0,4.0,-12.0,
2053.0,2094.0,4.0,-12.0,
2041.0,2090.0,4.0,-12.0,
2047.0,2102.0,4.0,-12.0,
2070.0,2114.0,4.0,-12.0,
2070.0,2087.0,4.0,-12.0,
2056.0,2074.0,4.0,-12.0,
2060.0,2071.0,5.0,-12.0,
2077.0,2071.0,5.0,-12.0,
2090.0,2075.0,5.0,-12.0,
2060.0,2084.0,5.0,-12.0,
2052.0,2086.0,5.0,-12.0,
2066.0,2096.0,5.0,-12.0,
2077.0,2102.0,5.0,-12.0,
2073.0,2101.0,5.0,-12.0,
2060.0,2101.0,5.0,-12.0,
2063.0,2078.0,5.0,-12.0,
2077.0,2082.0,5.0,-12.0,
2086.0,2093.0,5.0,-12.0,
2054.0,2092.0,5.0,-12.0,
2059.0,2067.0,5.0,-12.0,
2060.0,2065.0,5.0,-12.0,
2089.0,2079.0,5.0,-12.0,
2088.0,2087.0,5.0,-12.0,
2071.0,2062.0,5.0,-12.0,
2073.0,2092.0,5.0,-12.0,
2091.0,2096.0,5.0,-12.0,
2096.0,2061.0,5.0,-12.0,
2054.0,2096.0,5.0,-12.0,
2063.0,2096.0,5.0,-12.0,
2066.0,2120.0,5.0,-12.0,
2093.0,2117.0,5.0,-12.0,
2095.0,2099.0,5.0,-12.0,
2069.0,2101.0,5.0,-12.0,
2083.0,2101.0,5.0,-12.0,
2090.0,2101.0,5.0,-12.0,
2102.0,2098.0,5.0,-12.0,
2071.0,2089.0,5.0,-12.0,
2063.0,2077.0,5.0,-12.0,
2056.0,2072.0,5.0,-12.0,
2081.0,2076.0,5.0,-12.0,
2080.0,2071.0,5.0,-12.0,
2062.0,2069.0,5.0,-12.0,
2077.0,2058.0,5.0,-12.0,
2080.0,2111.0,5.0,-12.0,
2095.0,2095.0,5.0,-12.0,
2066.0,2096.0,5.0,-12.0,
2054.0,2080.0,5.0,-12.0,
2047.0,2062.0,5.0,-12.0,
2068.0,2067.0,5.0,-12.0,
2089.0,2086.0,5.0,-12.0,
2068.0,2100.0,5.0,-12.0,
2085.0,2115.0,4.0,-12.0,
2103.0,2115.0,4.0,-12.0,
2096.0,2110.0,4.0,-12.0,
2066.0,2094.0,4.0,-12.0,
2057.0,2078.0,4.0,-12.0,
2059.0,2082.0,4.0,-12.0,
2067.0,2068.0,4.0,-12.0,
2074.0,2075.0,4.0,-12.0,
2056.0,2075.0,4.0,-12.0,
2057.0,2093.0,4.0,-12.0,
2073.0,2104.0,4.0,-12.0,
2104.0,2099.0,4.0,-12.0,
2072.0,2089.0,4.0,-12.0,
2045.0,2075.0,4.0,-12.0,
2045.0,2103.0,4.0,-12.0,
2071.0,2097.0,4.0,-12.0,
2092.0,2086.0,4.0,-12.0,
2073.0,2082.0,4.0,-12.0,
2075.0,2084.0,4.0,-12.0,
2083.0,2091.0,4.0,-12.0,
2095.0,2088.0,4.0,-12.0,
2068.0,2085.0,4.0,-12.0,
2052.0,2090.0,4.0,-12.0,
2050.0,2071.0,4.0,-12.0,
2067.0,2083.0,4.0,-12.0,
2093.0,2088.0,4.0,-12.0,
2058.0,2096.0,4.0,-12.0,
2068.0,2080.0,4.0,-12.0,
2074.0,2086.0,5.0,-12.0,
2083.0,2097.0,5.0,-12.0,
2070.0,2088.0,5.0,-12.0,
2045.0,2082.0,5.0,-12.0,
2040.0,2079.0,5.0,-12.0,
2062.0,2087.0,5.0,-12.0,
2089.0,2091.0,5.0,-12.0,
2057.0,2081.0,5.0,-12.0,
2075.0,2086.0,5.0,-12.0,
2076.0,2090.0,5.0,-12.0,
2094.0,2091.0,5.0,-12.0,
2063.0,2085.0,5.0,-12.0,
2043.0,2075.0,5.0,-12.0,
2054.0,2075.0,5.0,-12.0,
2073.0,2099.0,5.0,-12.0,
2100.0,2100.0,5.0,-12.0,
2062.0,2070.0,5.0,-12.0,
2069.0,2080.0,5.0,-12.0,
2076.0,2081.0,5.0,-12.0,
2098.0,2095.0,5.0,-12.0,
2077.0,2095.0,5.0,-12.0,
2049.0,2069.0,5.0,-12.0,
2044.0,2088.0,5.0,-12.0,
2068.0,2077.0,5.0,-12.0,
2086.0,2082.0,5.0,-12.0,
2080.0,2080.0,5.0,-12.0,
2071.0,2100.0,5.0,-12.0,
2079.0,2104.0,5.0,-12.0,
2117.0,2112.0,5.0,-12.0,
2090.0,2064.0,5.0,-12.0,
2050.0,2047.0,5.0,-12.0,
2045.0,2037.0,5.0,-12.0,
2072.0,2060.0,5.0,-12.0,
2088.0,2106.0,5.0,-12.0,
2065.0,2148.0,5.0,-12.0,
2086.0,2160.0,5.0,-12.0,
2095.0,2124.0,5.0,-12.0,
2092.0,2110.0,4.0,-12.0,
2065.0,2104.0,4.0,-12.0,
2043.0,2093.0,4.0,-12.0,
2042.0,2067.0,4.0,-12.0,
2052.0,2069.0,4.0,-12.0,
2070.0,2065.0,4.0,-12.0,
2047.0,2069.0,4.0,-12.0,
2051.0,2078.0,4.0,-12.0,
2069.0,2075.0,4.0,-12.0,
2083.0,2100.0,4.0,-12.0,
2092.0,2093.0,4.0,-12.0,
2048.0,2084.0,4.0,-12.0,
2060.0,2091.0,4.0,-12.0,
2075.0,2096.0,4.0,-12.0,
2107.0,2113.0,4.0,-12.0,
2072.0,2084.0,4.0,-12.0,
2082.0,2124.0,4.0,-12.0,
2093.0,2113.0,4.0,-12.0,
2110.0,2097.0,4.0,-12.0,
2097.0,2085.0,4.0,-12.0,
2055.0,2077.0,4.0,-12.0,
2047.0,2075.0,4.0,-12.0,
2065.0,2046.0,4.0,-12.0,
2101.0,2076.0,4.0,-12.0,
2069.0,2081.0,4.0,-12.0,
2074.0,2079.0,4.0,-12.0,
2063.0,2094.0,4.0,-12.0,
2105.0,2076.0,4.0,-12.0,
2093.0,2071.0,4.0,-12.0,
2047.0,2080.0,5.0,-12.0,
2041.0,2066.0,5.0,-12.0,
2042.0,2079.0,5.0,-12.0,
2077.0,2087.0,5.0,-12.0,
2071.0,2092.0,5.0,-12.0,
2064.0,2092.0,5.0,-12.0,
2072.0,2090.0,5.0,-12.0,
2080.0,2097.0,5.0,-12.0,
2077.0,2082.0,5.0,-12.0,
2044.0,2080.0,5.0,-12.0,
2045.0,2084.0,5.0,-12.0,
2050.0,2088.0,5.0,-12.0,
2084.0,2090.0,5.0,-12.0,
2075.0,2086.0,5.0,-12.0,
2065.0,2088.0,5.0,-12.0,
2071.0,2092.0,5.0,-12.0,
2091.0,2093.0,5.0,-12.0,
2103.0,2091.0,5.0,-12.0,
2055.0,2089.0,5.0,-12.0,
2064.0,2080.0,5.0,-12.0,
2063.0,2072.0,5.0,-12.0,
2090.0,2077.0,5.0,-12.0,
2077.0,2081.0,5.0,-12.0,
2078.0,2099.0,5.0,-12.0,
2080.0,2078.0,5.0,-12.0,
2084.0,2084.0,5.0,-12.0,
2097.0,2091.0,5.0,-12.0,
2056.0,2084.0,5.0,-12.0,
2051.0,2085.0,5.0,-12.0,
2058.0,2077.0,5.0,-12.0,
2091.0,2087.0,5.0,-12.0,
2069.0,2079.0,5.0,-12.0,
2063.0,2092.0,0,
2067.0,2093.0,5.0,-12.0,
2084.0,2099.0,5.0,-12.0,
2081.0,2092.0,5.0,-12.0,
2044.0,2083.0,5.0,-12.0,
2046.0,2082.0,5.0,-12.0,
2043.0,2076.0,4.0,-12.0,
2067.0,2092.0,4.0,-12.0,
2069.0,2095.0,4.0,-12.0,
2064.0,2095.0,4.0,-12.0,
2056.0,2102.0,4.0,-12.0,
2096.0,2121.0,4.0,-12.0,
2103.0,2110.0,4.0,-12.0,
2055.0,2089.0,4.0,-12.0,
2063.0,2086.0,4.0,-12.0,
2052.0,2034.0,4.0,-12.0,
2082.0,2081.0,4.0,-12.0,
2084.0,2085.0,4.0,-12.0,
2076.0,2091.0,4.0,-12.0,
2076.0,2102.0,5.0,-12.0,
2084.0,2089.0,5.0,-12.0,
2085.0,2077.0,5.0,-12.0,
2060.0,2095.0,5.0,-12.0,
2052.0,2102.0,5.0,-12.0,
2051.0,2086.0,5.0,-12.0,
2082.0,2094.0,5.0,-12.0,
2079.0,2100.0,5.0,-12.0,
2065.0,2096.0,5.0,-12.0,
2071.0,2088.0,5.0,-12.0,
2089.0,2092.0,5.0,-12.0,
2114.0,2098.0,5.0,-12.0,
2074.0,2087.0,5.0,-12.0,
2065.0,2090.0,5.0,-12.0,
2056.0,2080.0,5.0,-12.0,
2081.0,2081.0,5.0,-12.0,
2078.0,2079.0,5.0,-12.0,
2060.0,2080.0,5.0,-12.0,
2068.0,2084.0,5.0,-12.0,
2074.0,2089.0,5.0,-12.0,
2091.0,2094.0,5.0,-12.0,
2059.0,2076.0,5.0,-12.0,
2042.0,2070.0,5.0,-12.0,
2045.0,2080.0,5.0,-12.0,
2073.0,2082.0,0,
2078.0,2091.0,5.0,-12.0,
2055.0,2091.0,5.0,-12.0,
2064.0,2091.0,5.0,-12.0,
2071.0,2093.0,5.0,-12.0,
2081.0,2093.0,5.0,-12.0,
2053.0,2096.0,5.0,-12.0,
2048.0,2089.0,5.0,-12.0,
2049.0,2091.0,5.0,-12.0,
2066.0,2091.0,5.0,-12.0,
2081.0,2093.0,5.0,-12.0,
2059.0,2090.0,5.0,-12.0,
2073.0,2089.0,5.0,-12.0,
2084.0,2089.0,5.0,-12.0,
2094.0,2094.0,5.0,-12.0,
2061.0,2084.0,5.0,-12.0,
2049.0,2081.0,5.0,-12.0,
2053.0,2081.0,5.0,-12.0,
2063.0,2074.0,5.0,-12.0,
2087.0,2071.0,5.0,-12.0,
2072.0,2071.0,5.0,-12.0,
2067.0,2091.0,5.0,-12.0,
2075.0,2055.0,5.0,-12.0,
2086.0,2120.0,4.0,-12.0,
2063.0,2100.0,4.0,-12.0,
2000.0,2087.0,4.0,-12.0,
2064.0,2101.0,4.0,-12.0,
2069.0,2102.0,4.0,-12.0,
2093.0,2091.0,4.0,-12.0,
2059.0,2091.0,5.0,-12.0,
2063.0,2090.0,5.0,-12.0,
2084.0,2091.0,5.0,-12.0,
2095.0,2096.0,5.0,-12.0,
2067.0,2115.0,5.0,-12.0,
2054.0,2083.0,5.0,-12.0,
2065.0,2085.0,5.0,-12.0,
2074.0,2082.0,5.0,-12.0,
2081.0,2080.0,5.0,-12.0,
2066.0,2078.0,5.0,-12.0,
2077.0,2083.0,5.0,-12.0,
2072.0,2086.0,5.0,-12.0,
2083.0,2082.0,5.0,-12.0,
2065.0,2079.0,5.0,-12.0,
2037.0,2078.0,5.0,-12.0,
2034.0,2093.0,5.0,-12.0,
2060.0,2077.0,5.0,-12.0,
2108.0,2101.0,5.0,-12.0,
2071.0,2094.0,5.0,-12.0,
2075.0,2097.0,5.0,-12.0,
2077.0,2082.0,5.0,-12.0,
2086.0,2087.0,5.0,-12.0,
2087.0,2086.0,5.0,-12.0,
2066.0,2088.0,5.0,-12.0,
2065.0,2077.0,5.0,-12.0,
2066.0,2068.0,5.0,-12.0,
2080.0,2064.0,5.0,-12.0,
2058.0,2058.0,5.0,-12.0,
2056.0,2056.0,5.0,-12.0,
2081.0,2082.0,5.0,-12.0,
2084.0,2106.0,5.0,-12.0,
2076.0,2107.0,5.0,-12.0,
2060.0,2096.0,5.0,-12.0,
2055.0,2087.0,5.0,-12.0,
2063.0,2110.0,5.0,-12.0,
2090.0,2108.0,5.0,-12.0,
2083.0,2094.0,5.0,-12.0,
2064.0,2089.0,5.0,-12.0,
2078.0,2089.0,5.0,-12.0,
2089.0,2088.0,5.0,-12.0,
2084.0,2085.0,5.0,-12.0,
2052.0,2082.0,5.0,-12.0,
2060.0,2082.0,5.0,-12.0,
2048.0,2079.0,5.0,-12.0,
2073.0,2081.0,5.0,-12.0,
2059.0,2069.0,5.0,-12.0,
2075.0,2073.0,5.0,-12.0,
2075.0,2092.0,5.0,-12.0,
2096.0,2085.0,5.0,-12.0,
2083.0,2085.0,5.0,-12.0,
2048.0,2063.0,5.0,-12.0,
2046.0,2058.0,5.0,-12.0,
2062.0,2083.0,5.0,-12.0,
2091.0,2097.0,5.0,-12.0,
2070.0,2092.0,5.0,-12.0,
2085.0,2094.0,5.0,-12.0,
2078.0,2107.0,5.0,-12.0,
2084.0,2101.0,5.0,-12.0,
2081.0,2093.0,5.0,-12.0,
2057.0,2083.0,5.0,-12.0,
2050.0,2083.0,5.0,-12.0,
2054.0,2081.0,4.0,-12.0,
2087.0,2088.0,4.0,-12.0,
2069.0,2087.0,4.0,-12.0,
2071.0,2083.0,4.0,-12.0,
2075.0,2084.0,4.0,-12.0,
2086.0,2091.0,4.0,-12.0,
2089.0,2096.0,4.0,-12.0,
2050.0,2090.0,4.0,-12.0,
2043.0,2085.0,4.0,-12.0,
2042.0,2091.0,4.0,-12.0,
2074.0,2070.0,4.0,-12.0,
2060.0,2068.0,4.0,-12.0,
2061.0,2072.0,4.0,-12.0,
2053.0,2093.0,4.0,-12.0,
2070.0,2115.0,4.0,-12.0,
2096.0,2119.0,4.0,-12.0,
2058.0,2108.0,4.0,-12.0,
2053.0,2092.0,4.0,-12.0,
2046.0,2076.0,4.0,-12.0,
2088.0,2109.0,4.0,-12.0,
2097.0,2105.0,4.0,-12.0,
2077.0,2090.0,4.0,-12.0,
2073.0,2099.0,4.0,-12.0,
2074.0,2101.0,4.0,-12.0,
2089.0,2092.0,5.0,-12.0,
2046.0,2080.0,5.0,-12.0,
2041.0,2075.0,5.0,-12.0,
2042.0,2078.0,5.0,-12.0,
2073.0,2079.0,5.0,-12.0,
2064.0,2081.0,5.0,-12.0,
2078.0,2085.0,5.0,-12.0,
2073.0,2088.0,5.0,-12.0,
2093.0,2084.0,5.0,-12.0,
2093.0,2092.0,5.0,-12.0,
2042.0,2070.0,5.0,-12.0,
2050.0,2077.0,5.0,-12.0,
2055.0,2078.0,5.0,-12.0,
2072.0,2101.0,5.0,-12.0,
2067.0,2099.0,5.0,-12.0,
2059.0,2100.0,5.0,-12.0,
2062.0,2093.0,5.0,-12.0,
2076.0,2106.0,5.0,-12.0,
2086.0,2080.0,5.0,-12.0,
2049.0,2101.0,5.0,-12.0,
2055.0,2101.0,5.0,-12.0,
2058.0,2092.0,5.0,-12.0,
2079.0,2083.0,5.0,-12.0,
2078.0,2077.0,5.0,-12.0,
2063.0,2079.0,5.0,-12.0,
2075.0,2087.0,5.0,-12.0,
2079.0,2090.0,5.0,-12.0,
2097.0,2097.0,5.0,-12.0,
2065.0,2091.0,5.0,-12.0,
2047.0,2082.0,5.0,-12.0,
2051.0,2074.0,5.0,-12.0,
2085.0,2067.0,5.0,-12.0,
2091.0,2085.0,5.0,-12.0,
2100.0,2086.0,5.0,-12.0,
2075.0,2099.0,5.0,-12.0,
2078.0,2083.0,5.0,-12.0,
2089.0,2091.0,5.0,-12.0,
2050.0,2091.0,5.0,-12.0,
2040.0,2078.0,5.0,-12.0,
2051.0,2081.0,5.0,-12.0,
2079.0,2090.0,4.0,-12.0,
2083.0,2091.0,5.0,-12.0,
2057.0,2084.0,5.0,-12.0,
2065.0,2099.0,4.0,-12.0,
2077.0,2093.0,4.0,-12.0,
2097.0,2059.0,4.0,-12.0,
2068.0,2089.0,4.0,-12.0,
2068.0,2091.0,4.0,-12.0,
2057.0,2089.0,4.0,-12.0,
2077.0,2091.0,4.0,-12.0,
2081.0,2088.0,4.0,-12.0,
2058.0,2085.0,4.0,-12.0,
2063.0,2088.0,4.0,-12.0,
2075.0,2094.0,4.0,-12.0,
2078.0,2095.0,4.0,-12.0,
2050.0,2095.0,4.0,-12.0,
2043.0,2086.0,4.0,-12.0,
2040.0,2079.0,5.0,-12.0,
2058.0,2083.0,5.0,-12.0,
2067.0,2055.0,5.0,-12.0,
2047.0,2050.0,5.0,-12.0,
2052.0,2066.0,5.0,-12.0,
2066.0,2092.0,5.0,-12.0,
2106.0,2111.0,5.0,-12.0,
2075.0,2135.0,5.0,-12.0,
2083.0,2130.0,5.0,-12.0,
2078.0,2106.0,5.0,-12.0,
2086.0,2090.0,5.0,-12.0,
2091.0,2085.0,5.0,-12.0,
2050.0,2082.0,5.0,-12.0,
2066.0,2088.0,5.0,-12.0,
2073.0,2090.0,5.0,-12.0,
2096.0,2094.0,5.0,-12.0,
2072.0,2088.0,5.0,-12.0,
2054.0,2080.0,5.0,-12.0,
2048.0,2073.0,5.0,-12.0,
2072.0,2084.0,5.0,-12.0,
2095.0,2086.0,5.0,-12.0,
2057.0,2084.0,5.0,-12.0,
2056.0,2076.0,5.0,-12.0,
2067.0,2084.0,5.0,-12.0,
2079.0,2082.0,5.0,-12.0,
2065.0,2084.0,5.0,-12.0,
2052.0,2092.0,5.0,-12.0,
2033.0,2096.0,5.0,-12.0,
2055.0,2094.0,5.0,-12.0,
2078.0,2096.0,5.0,-12.0,
2064.0,2097.0,5.0,-12.0,
2071.0,2103.0,5.0,-12.0,
2080.0,2104.0,5.0,-12.0,
2097.0,2100.0,5.0,-12.0,
2078.0,2093.0,5.0,-12.0,
2052.0,2093.0,5.0,-12.0,
2059.0,2084.0,5.0,-12.0,
2060.0,2089.0,5.0,-12.0,
2084.0,2087.0,5.0,-12.0,
2056.0,2087.0,5.0,-12.0,
2061.0,2088.0,5.0,-12.0,
2084.0,2089.0,5.0,-12.0,
2077.0,2093.0,5.0,-12.0,
2065.0,2090.0,5.0,-12.0,
2040.0,2077.0,5.0,-12.0,
2047.0,2079.0,5.0,-12.0,
2047.0,2082.0,5.0,-12.0,
2080.0,2095.0,5.0,-12.0,
2056.0,2080.0,5.0,-12.0,
2067.0,2087.0,5.0,-12.0,
2079.0,2090.0,5.0,-12.0,
2095.0,2087.0,5.0,-12.0,
2086.0,2082.0,5.0,-12.0,
2060.0,2073.0,5.0,-12.0,
2054.0,2074.0,5.0,-12.0,
2062.0,2085.0,5.0,-12.0,
2078.0,2096.0,4.0,-12.0,
2063.0,2094.0,4.0,-12.0,
2075.0,2077.0,4.0,-12.0,
2077.0,2077.0,4.0,-12.0,
2081.0,2062.0,4.0,-12.0,
2066.0,2070.0,4.0,-12.0,
2050.0,2057.0,4.0,-12.0,
2050.0,2072.0,4.0,-12.0,
2058.0,2086.0,4.0,-12.0,
2090.0,2149.0,4.0,-12.0,
2076.0,2126.0,4.0,-12.0,
2069.0,2138.0,4.0,-12.0,
2100.0,2141.0,4.0,-12.0,
2111.0,2131.0,4.0,-12.0,
2096.0,2098.0,4.0,-12.0,
2049.0,2083.0,4.0,-12.0,
2052.0,2076.0,4.0,-12.0,
2048.0,2073.0,4.0,-12.0,
2086.0,2083.0,4.0,-12.0,
2061.0,2075.0,4.0,-12.0,
2066.0,2073.0,4.0,-12.0,
2074.0,2092.0,4.0,-12.0,
2085.0,2086.0,4.0,-12.0,
2088.0,2093.0,4.0,-12.0,
2046.0,2080.0,4.0,-12.0,
2051.0,2072.0,4.0,-12.0,
2054.0,2078.0,4.0,-12.0,
2077.0,2083.0,5.0,-12.0,
2062.0,2082.0,5.0,-12.0,
2061.0,2083.0,5.0,-12.0,
2067.0,2084.0,5.0,-12.0,
2083.0,2092.0,5.0,-12.0,
2078.0,2088.0,5.0,-12.0,
2047.0,2075.0,5.0,-12.0,
2049.0,2078.0,5.0,-12.0,
2071.0,2079.0,5.0,-12.0,
2075.0,2079.0,5.0,-12.0,
2063.0,2080.0,5.0,-12.0,
2062.0,2087.0,5.0,-12.0,
2078.0,2091.0,5.0,-12.0,
2088.0,2102.0,5.0,-12.0,
2089.0,2097.0,5.0,-12.0,
2061.0,2087.0,5.0,-12.0,
2043.0,2083.0,5.0,-12.0,
2046.0,2090.0,5.0,-12.0,
2078.0,2090.0,5.0,-12.0,
2063.0,2083.0,5.0,-12.0,
2066.0,2101.0,5.0,-12.0,
2068.0,2108.0,5.0,-12.0,
2084.0,2096.0,5.0,-12.0,
2079.0,2093.0,5.0,-12.0,
2034.0,2084.0,5.0,-12.0,
2047.0,2077.0,5.0,-12.0,
2054.0,2083.0,5.0,-12.0,
2080.0,2088.0,5.0,-12.0,
2087.0,2094.0,5.0,-12.0,
2077.0,2088.0,5.0,-12.0,
2069.0,2080.0,5.0,-12.0,
2080.0,2100.0,5.0,-12.0,
2089.0,2097.0,5.0,-12.0,
2049.0,2091.0,5.0,-12.0,
2062.0,2101.0,5.0,-12.0,
2086.0,2105.0,5.0,-12.0,
2090.0,2098.0,5.0,-12.0,
2075.0,2089.0,5.0,-12.0,
2076.0,2082.0,5.0,-12.0,
2082.0,2089.0,5.0,-12.0,
2090.0,2096.0,5.0,-12.0,
2087.0,2088.0,5.0,-12.0,
2051.0,2078.0,5.0,-12.0,
2046.0,2085.0,4.0,-12.0,
2053.0,2079.0,4.0,-12.0,
2081.0,2090.0,4.0,-12.0,
2072.0,2089.0,4.0,-12.0,
2071.0,2086.0,4.0,-12.0,
2062.0,2088.0,4.0,-12.0,
2088.0,2098.0,4.0,-12.0,
2113.0,2094.0,4.0,-12.0,
2047.0,2081.0,4.0,-12.0,
2054.0,2081.0,4.0,-12.0,
2046.0,2084.0,4.0,-12.0,
2076.0,2079.0,4.0,-12.0,
2077.0,2088.0,5.0,-12.0,
2058.0,2085.0,5.0,-12.0,
2068.0,2089.0,5.0,-12.0,
2099.0,2091.0,5.0,-12.0,
2108.0,2091.0,5.0,-12.0,
2068.0,2091.0,5.0,-12.0,
2056.0,2075.0,5.0,-12.0,
2059.0,2053.0,5.0,-12.0,
2081.0,2073.0,5.0,-12.0,
2094.0,2102.0,5.0,-12.0,
2074.0,2107.0,5.0,-12.0,
2076.0,2117.0,5.0,-12.0,
2087.0,2129.0,5.0,-12.0,
2093.0,2110.0,5.0,-12.0,
2056.0,2090.0,5.0,-12.0,
2047.0,2077.0,5.0,-12.0,
2049.0,2073.0,5.0,-12.0,
2078.0,2084.0,5.0,-12.0,
2081.0,2081.0,5.0,-12.0,
2068.0,2083.0,5.0,-12.0,
2074.0,2081.0,5.0,-12.0,
2074.0,2081.0,5.0,-12.0,
2064.0,2085.0,5.0,-12.0,
2056.0,2075.0,5.0,-12.0,
2048.0,2075.0,5.0,-12.0,
2058.0,2089.0,5.0,-12.0,
2073.0,2093.0,5.0,-12.0,
2091.0,2086.0,5.0,-12.0,
2057.0,2096.0,5.0,-12.0,
2061.0,2090.0,5.0,-12.0,
2079.0,2106.0,5.0,-12.0,
2100.0,2103.0,5.0,-12.0,
2073.0,2080.0,5.0,-12.0,
2052.0,2084.0,5.0,-12.0,
2057.0,2084.0,5.0,-12.0,
2067.0,2094.0,5.0,-12.0,
2082.0,2080.0,5.0,-12.0,
2060.0,2077.0,5.0,-12.0,
2060.0,2075.0,0,
2073.0,2079.0,5.0,-12.0,
2088.0,2089.0,5.0,-12.0,
2060.0,2092.0,5.0,-12.0,
2061.0,2098.0,5.0,-12.0,
2067.0,2081.0,5.0,-12.0,
2068.0,2101.0,5.0,-12.0,
2082.0,2067.0,5.0,-12.0,
2056.0,2067.0,5.0,-12.0,
2060.0,2092.0,5.0,-12.0,
2055.0,2125.0,5.0,-12.0,
2097.0,2129.0,4.0,-12.0,
2076.0,2109.0,4.0,-12.0,
2049.0,2096.0,4.0,-12.0,
2049.0,2087.0,4.0,-12.0,
2064.0,2049.0,4.0,-12.0,
2091.0,2086.0,4.0,-12.0,
2060.0,2088.0,4.0,-12.0,
2066.0,2086.0,4.0,-12.0,
2078.0,2094.0,4.0,-12.0,
2100.0,2090.0,4.0,-12.0,
2071.0,2086.0,4.0,-12.0,
2048.0,2084.0,4.0,-12.0,
2054.0,2084.0,4.0,-12.0,
2079.0,2088.0,4.0,-12.0,
2088.0,2083.0,4.0,-12.0,
2059.0,2084.0,4.0,-12.0,
2062.0,2087.0,4.0,-12.0,
2075.0,2098.0,4.0,-12.0,
2090.0,2099.0,4.0,-12.0,
2082.0,2090.0,4.0,-12.0,
2059.0,2075.0,5.0,-12.0,
2055.0,2081.0,5.0,-12.0,
2069.0,2080.0,4.0,-12.0,
2092.0,2075.0,4.0,-12.0,
2063.0,2068.0,4.0,-12.0,
2070.0,2080.0,5.0,-12.0,
2096.0,2091.0,5.0,-12.0,
2104.0,2085.0,5.0,-12.0,
2078.0,2082.0,5.0,-12.0,
2042.0,2088.0,5.0,-12.0,
2059.0,2085.0,5.0,-12.0,
2062.0,2095.0,5.0,-12.0,
2097.0,2097.0,5.0,-12.0,
2069.0,2072.0,5.0,-12.0,
2064.0,2082.0,5.0,-12.0,
2070.0,2092.0,5.0,-12.0,
2104.0,2108.0,5.0,-12.0,
2078.0,2095.0,5.0,-12.0,
2056.0,2096.0,5.0,-12.0,
2046.0,2100.0,5.0,-12.0,
2051.0,2107.0,5.0,-12.0,
2093.0,2117.0,5.0,-12.0,
2066.0,2101.0,5.0,-12.0,
2063.0,2103.0,5.0,-12.0,
2081.0,2095.0,5.0,-12.0,
2102.0,2093.0,5.0,-12.0,
2080.0,2078.0,5.0,-12.0,
2045.0,2069.0,5.0,-12.0,
2059.0,2063.0,5.0,-12.0,
2018.0,2101.0,5.0,-12.0,
2084.0,2077.0,5.0,-12.0,
2072.0,2092.0,5.0,-12.0,
2053.0,2094.0,5.0,-12.0,
2081.0,2083.0,5.0,-12.0,
2071.0,2115.0,5.0,-12.0,
2093.0,2118.0,5.0,-12.0,
2064.0,2095.0,5.0,-12.0,
2045.0,2088.0,5.0,-12.0,
2074.0,2090.0,5.0,-12.0,
2111.0,2096.0,5.0,-12.0,
2082.0,2092.0,5.0,-12.0,
2066.0,2088.0,5.0,-12.0,
2075.0,2114.0,5.0,-12.0,
2096.0,2093.0,5.0,-12.0,
2087.0,2092.0,5.0,-12.0,
2043.0,2079.0,5.0,-12.0,
2055.0,2079.0,4.0,-12.0,
2051.0,2074.0,4.0,-12.0,
2085.0,2074.0,4.0,-12.0,
2062.0,2081.0,4.0,-12.0,
2061.0,2087.0,4.0,-12.0,
2097.0,2101.0,4.0,-12.0,
2079.0,2102.0,4.0,-12.0,
2070.0,2083.0,4.0,-12.0,
2031.0,2075.0,4.0,-12.0,
2037.0,2067.0,4.0,-12.0,
2042.0,2082.0,4.0,-12.0,
2081.0,2108.0,4.0,-12.0,
2067.0,2113.0,4.0,-12.0,
2070.0,2127.0,4.0,-12.0,
2090.0,2122.0,4.0,-12.0,
2101.0,2110.0,4.0,-12.0,
2107.0,2080.0,4.0,-12.0,
2058.0,2076.0,4.0,-12.0,
2039.0,2084.0,4.0,-12.0,
2046.0,2075.0,4.0,-12.0,
2082.0,2067.0,4.0,-12.0,
2067.0,2074.0,4.0,-12.0,
2064.0,2090.0,4.0,-12.0,
2078.0,2100.0,4.0,-12.0,
2092.0,2115.0,4.0,-12.0,
2087.0,2108.0,4.0,-12.0,
2059.0,2075.0,4.0,-12.0,
2049.0,2086.0,4.0,-12.0,
2059.0,2076.0,4.0,-12.0,
2107.0,2080.0,5.0,-12.0,
2082.0,2080.0,5.0,-12.0,
2061.0,2112.0,5.0,-12.0,
2075.0,2156.0,5.0,-12.0,
2093.0,2185.0,5.0,-12.0,
2075.0,2039.0,5.0,-12.0,
2044.0,1966.0,5.0,-12.0,
2081.0,2065.0,5.0,-12.0,
2074.0,2135.0,5.0,-12.0,
2088.0,2074.0,5.0,-12.0,
2075.0,2054.0,5.0,-12.0,
2078.0,2023.0,5.0,-12.0,
2070.0,2103.0,5.0,-12.0,
2083.0,2091.0,5.0,-12.0,
2117.0,2060.0,5.0,-12.0,
2076.0,2068.0,5.0,-12.0,
2047.0,2081.0,5.0,-12.0,
2059.0,2089.0,5.0,-12.0,
2087.0,2081.0,5.0,-12.0,
2062.0,2116.0,0,
2075.0,2105.0,5.0,-12.0,
2087.0,2116.0,5.0,-12.0,
2080.0,2129.0,5.0,-12.0,
2087.0,2114.0,5.0,-12.0,
2032.0,2092.0,5.0,-12.0,
2046.0,2120.0,6.0,-12.0,
2034.0,2101.0,6.0,-12.0,
2070.0,2079.0,6.0,-12.0,
2128.0,2077.0,6.0,-12.0,
2085.0,2136.0,6.0,-12.0,
2075.0,2118.0,6.0,-12.0,
2068.0,2099.0,6.0,-12.0,
2099.0,2111.0,6.0,-12.0,
2076.0,2040.0,6.0,-12.0,
2055.0,2035.0,6.0,-12.0,
2049.0,2064.0,6.0,-12.0,
2065.0,2099.0,6.0,-12.0,
2090.0,2132.0,6.0,-12.0,
2075.0,2132.0,6.0,-12.0,
2063.0,2109.0,6.0,-12.0,
2068.0,2044.0,6.0,-12.0,
2142.0,2090.0,6.0,-12.0,
2073.0,2104.0,6.0,-12.0,
2058.0,2150.0,6.0,-12.0,
2057.0,2054.0,6.0,-12.0,
2066.0,2091.0,6.0,-12.0,
2092.0,2062.0,5.0,-12.0,
2060.0,2075.0,5.0,-12.0,
2050.0,2124.0,5.0,-12.0,
2070.0,2150.0,5.0,-12.0,
2099.0,2116.0,5.0,-12.0,
2054.0,2054.0,5.0,-12.0,
2042.0,2005.0,5.0,-12.0,
2040.0,2043.0,5.0,-12.0,
2050.0,2142.0,5.0,-12.0,
2080.0,2120.0,5.0,-12.0,
2059.0,2090.0,4.0,-12.0,
2057.0,2084.0,4.0,-12.0,
2096.0,2129.0,4.0,-12.0,
2122.0,2105.0,4.0,-12.0,
2091.0,2103.0,3.0,-12.0,
2087.0,2076.0,3.0,-12.0,
2078.0,2074.0,3.0,-12.0,
2075.0,2135.0,3.0,-12.0,
2091.0,2086.0,3.0,-12.0,
2061.0,2082.0,3.0,-12.0,
2051.0,1930.0,3.0,-12.0,
2082.0,2032.0,3.0,-12.0,
2090.0,2086.0,3.0,-12.0,
2063.0,2099.0,3.0,-12.0,
2061.0,2131.0,3.0,-12.0,
2053.0,2082.0,3.0,-12.0,
2081.0,2080.0,3.0,-12.0,
2104.0,2153.0,4.0,-12.0,
2056.0,2212.0,4.0,-12.0,
2101.0,2105.0,4.0,-12.0,
2071.0,2078.0,4.0,-12.0,
2102.0,2056.0,4.0,-12.0,
2059.0,2042.0,4.0,-12.0,
2059.0,2056.0,4.0,-12.0,
2065.0,2075.0,4.0,-12.0,
2087.0,2037.0,4.0,-12.0,
2071.0,2063.0,5.0,-12.0,
2044.0,2071.0,5.0,-13.0,
2065.0,2097.0,5.0,-13.0,
2061.0,2118.0,5.0,-12.0,
2069.0,2074.0,5.0,-12.0,
2078.0,2087.0,5.0,-12.0,
2046.0,2066.0,5.0,-12.0,
2076.0,2094.0,5.0,-12.0,
2061.0,2129.0,5.0,-12.0,
2061.0,2141.0,5.0,-12.0,
2023.0,2097.0,5.0,-12.0,
2042.0,2102.0,4.0,-12.0,
2089.0,2124.0,4.0,-12.0,
2153.0,2108.0,4.0,-12.0,
2120.0,2109.0,4.0,-12.0,
2067.0,2061.0,4.0,-12.0,
2050.0,2075.0,4.0,-12.0,
2034.0,2086.0,4.0,-12.0,
2070.0,2084.0,3.0,-12.0,
2046.0,2087.0,3.0,-12.0,
2058.0,2101.0,3.0,-12.0,
2117.0,2081.0,2.0,-12.0,
2152.0,2069.0,2.0,-12.0,
2097.0,2064.0,1.0,-12.0,
2060.0,2089.0,1.0,-12.0,
2050.0,2052.0,0.0,-12.0,
2049.0,2030.0,0.0,-12.0,
2090.0,2084.0,0.0,-12.0,
2074.0,2062.0,0.0,-12.0,
2074.0,2240.0,0.0,-12.0,
2063.0,2207.0,0.0,-12.0,
2073.0,2047.0,0.0,-12.0,
2052.0,1955.0,0.0,-12.0,
2052.0,1929.0,0.0,-12.0,
2069.0,2048.0,0.0,-12.0,
2040.0,2191.0,0.0,-12.0,
2125.0,2167.0,0.0,-12.0,
2108.0,2070.0,0.0,-12.0,
2067.0,2116.0,0.0,-12.0,
2095.0,2050.0,0.0,-12.0,
2096.0,2132.0,1.0,-12.0,
2101.0,2163.0,1.0,-12.0,
2049.0,2071.0,1.0,-12.0,
2047.0,2080.0,1.0,-12.0,
2062.0,2024.0,2.0,-12.0,
2094.0,2010.0,2.0,-12.0,
2050.0,2086.0,2.0,-12.0,
2062.0,2092.0,2.0,-12.0,
2078.0,2140.0,2.0,-12.0,
2088.0,2106.0,1.0,-12.0,
2064.0,2083.0,1.0,-12.0,
2037.0,2145.0,1.0,-12.0,
2044.0,2104.0,0.0,-12.0,
2030.0,2076.0,0.0,-13.0,
2104.0,2050.0,0.0,-13.0,
2083.0,2108.0,0.0,-13.0,
2080.0,2081.0,-1.0,-13.0,
2075.0,2149.0,-1.0,-13.0,
2104.0,2087.0,-2.0,-13.0,
2102.0,2026.0,-2.0,-13.0,
2061.0,2049.0,-2.0,-13.0,
2052.0,2051.0,-3.0,-13.0,
2061.0,2072.0,-3.0,-13.0,
2091.0,2100.0,-3.0,-13.0,
2075.0,2145.0,-3.0,-13.0,
2068.0,2172.0,-3.0,-13.0,
2081.0,2115.0,-3.0,-13.0,
2070.0,2068.0,-3.0,-13.0,
2070.0,2098.0,-4.0,-13.0,
1999.0,2071.0,-4.0,-13.0,
2052.0,2011.0,-4.0,-13.0,
2098.0,2021.0,-4.0,-13.0,
2124.0,2048.0,-4.0,-13.0,
2070.0,2070.0,-4.0,-13.0,
2072.0,2109.0,-4.0,-13.0,
2046.0,2131.0,-3.0,-13.0,
2057.0,2066.0,-3.0,-13.0,
2088.0,2106.0,-3.0,-13.0,
2090.0,2095.0,-3.0,-13.0,
2057.0,2093.0,-3.0,-13.0,
2092.0,2137.0,-2.0,-13.0,
2097.0,2068.0,-2.0,-13.0,
2080.0,2096.0,-2.0,-13.0,
2071.0,2099.0,-2.0,-13.0,
2073.0,2093.0,-2.0,-13.0,
2102.0,2127.0,-2.0,-13.0,
2122.0,2072.0,-2.0,-13.0,
2059.0,2097.0,-2.0,-13.0,
2039.0,2102.0,-2.0,-13.0,
2033.0,2088.0,-2.0,-13.0,
2022.0,2170.0,-2.0,-13.0,
2001.0,2226.0,-2.0,-13.0,
1989.0,2076.0,-2.0,-13.0,
2037.0,2148.0,-2.0,-13.0,
2103.0,2036.0,-3.0,-13.0,
2172.0,2012.0,-3.0,-13.0,
2112.0,1984.0,-3.0,-13.0,
2097.0,2053.0,-3.0,-13.0,
2097.0,2156.0,-3.0,-13.0,
2073.0,2066.0,-3.0,-13.0,
2039.0,2026.0,-4.0,-13.0,
2028.0,1978.0,-4.0,-13.0,
2013.0,2037.0,-4.0,-13.0,
2017.0,2159.0,-4.0,-13.0,
2089.0,2235.0,-4.0,-13.0,
2087.0,2088.0,-4.0,-13.0,
2069.0,2039.0,-4.0,-13.0,
2069.0,2134.0,-4.0,-13.0,
2078.0,2212.0,-4.0,-13.0,
2116.0,2085.0,-4.0,-13.0,
2072.0,2035.0,-4.0,-13.0,
2049.0,1950.0,-4.0,-13.0,
2065.0,2042.0,-4.0,-13.0,
2061.0,2124.0,-4.0,-13.0,
2024.0,2168.0,-4.0,-13.0,
1984.0,2135.0,-4.0,-13.0,
1980.0,2107.0,-4.0,-13.0,
2036.0,2108.0,-4.0,-13.0,
2058.0,2040.0,-4.0,-13.0,
2130.0,2081.0,-5.0,-13.0,
2180.0,2128.0,-5.0,-13.0,
2129.0,2159.0,-5.0,-13.0,
2080.0,2102.0,-5.0,-13.0,
2098.0,2085.0,-5.0,-13.0,
2060.0,2177.0,-5.0,-13.0,
2065.0,2143.0,-6.0,-13.0,
2102.0,2042.0,-6.0,-13.0,
2089.0,2048.0,-6.0,-13.0,
2093.0,2041.0,-6.0,-13.0,
2055.0,2020.0,-7.0,-13.0,
2065.0,2057.0,-7.0,-13.0,
2047.0,2067.0,-8.0,-13.0,
2025.0,2088.0,-8.0,-13.0,
2048.0,2070.0,-8.0,-13.0,
2070.0,2119.0,-9.0,-13.0,
2111.0,2183.0,-9.0,-13.0,
2040.0,2123.0,-9.0,-13.0,
2009.0,2068.0,-10.0,-13.0,
2111.0,2098.0,-10.0,-13.0,
2109.0,2001.0,-10.0,-13.0,
2085.0,2016.0,-11.0,-13.0,
2049.0,2130.0,-11.0,-13.0,
2077.0,2078.0,-11.0,-13.0,
2058.0,2102.0,-11.0,-13.0,
2164.0,2059.0,-11.0,-13.0,
2187.0,2079.0,-11.0,-14.0,
2054.0,2082.0,-11.0,-14.0,
2020.0,2029.0,-11.0,-14.0,
1965.0,2093.0,-11.0,-14.0,
2087.0,2073.0,-11.0,-14.0,
2067.0,2078.0,-11.0,-14.0,
2105.0,2138.0,-11.0,-14.0,
1990.0,2143.0,-11.0,-14.0,
2015.0,2049.0,-11.0,-14.0,
1969.0,2075.0,-11.0,-14.0,
1971.0,2070.0,-11.0,-14.0,
2037.0,2213.0,-11.0,-13.0,
2153.0,2116.0,-11.0,-13.0,
2242.0,2145.0,-11.0,-14.0,
2209.0,2087.0,-11.0,-14.0,
2166.0,2056.0,-11.0,-14.0,
2061.0,2049.0,-11.0,-14.0,
2040.0,2131.0,-11.0,-14.0,
2074.0,2078.0,-11.0,-15.0,
2061.0,2002.0,-11.0,-15.0,
2089.0,1970.0,-11.0,-15.0,
2074.0,2024.0,-11.0,-15.0,
2067.0,2237.0,-11.0,-15.0,
2117.0,2247.0,-11.0,-14.0,
2105.0,2159.0,-11.0,-14.0,
2022.0,2076.0,-11.0,-14.0,
2025.0,2124.0,-11.0,-14.0,
2022.0,2092.0,-11.0,-14.0,
2031.0,1960.0,-11.0,-14.0,
2058.0,2046.0,-11.0,-14.0,
2060.0,2076.0,-11.0,-14.0,
2070.0,2122.0,-11.0,-14.0,
2077.0,2036.0,-12.0,-15.0,
2024.0,1987.0,-12.0,-16.0,
2043.0,2244.0,-12.0,-16.0,
2064.0,2037.0,-12.0,-15.0,
2091.0,2117.0,-11.0,-15.0,
2068.0,2020.0,-11.0,-15.0,
2066.0,2046.0,0,
2053.0,2009.0,-11.0,-15.0,
2081.0,2144.0,-11.0,-15.0,
2029.0,2195.0,-11.0,-14.0,
2025.0,2240.0,0,
2003.0,2020.0,-11.0,-13.0,
2052.0,1921.0,-12.0,-13.0,
2046.0,1963.0,-12.0,-14.0,
2061.0,1978.0,-12.0,-15.0,
2166.0,2143.0,-12.0,-16.0,
2093.0,2189.0,-13.0,-16.0,
2032.0,2289.0,-13.0,-16.0,
2081.0,2185.0,-13.0,-15.0,
2145.0,2177.0,-13.0,-15.0,
2123.0,2073.0,-13.0,-15.0,
2092.0,2039.0,-13.0,-15.0,
2084.0,2016.0,-13.0,-15.0,
2035.0,2082.0,-14.0,-15.0,
2013.0,1972.0,-14.0,-14.0,
2036.0,2084.0,-14.0,-13.0,
2037.0,2130.0,-14.0,-13.0,
2078.0,2086.0,-14.0,-14.0,
2120.0,2085.0,-15.0,-14.0,
2238.0,2068.0,-15.0,-15.0,
2277.0,2065.0,-15.0,-15.0,
2126.0,2037.0,-15.0,-15.0,
1989.0,2136.0,-15.0,-15.0,
1987.0,2110.0,-15.0,-15.0,
1984.0,2068.0,-15.0,-15.0,
2040.0,2036.0,-15.0,-15.0,
2079.0,2011.0,-15.0,-16.0,
2028.0,2049.0,-15.0,-17.0,
1974.0,2080.0,-16.0,-17.0,
1970.0,2081.0,-16.0,-16.0,
2055.0,2142.0,-15.0,-15.0,
2111.0,2219.0,-15.0,-15.0,
2277.0,2117.0,-15.0,-15.0,
2160.0,1980.0,-16.0,-15.0,
2113.0,1982.0,-16.0,-15.0,
2069.0,2057.0,-16.0,-15.0,
2054.0,2144.0,-16.0,-14.0,
2045.0,2162.0,-16.0,-13.0,
2060.0,2191.0,-16.0,-13.0,
2093.0,2090.0,-16.0,-14.0,
2038.0,2008.0,-16.0,-15.0,
1989.0,2002.0,-16.0,-15.0,
1965.0,2134.0,-16.0,-15.0,
1987.0,2129.0,-16.0,-15.0,
2209.0,2175.0,-16.0,-15.0,
2110.0,1988.0,-16.0,-15.0,
2057.0,2025.0,-16.0,-15.0,
2051.0,2061.0,-16.0,-16.0,
2066.0,2067.0,-16.0,-16.0,
2076.0,2101.0,-16.0,-16.0,
2082.0,2165.0,-16.0,-15.0,
2098.0,2120.0,-16.0,-15.0,
2043.0,2161.0,-16.0,-15.0,
2019.0,2288.0,-16.0,-15.0,
2000.0,2049.0,-16.0,-15.0,
2053.0,2070.0,-16.0,-15.0,
2246.0,2068.0,-16.0,-14.0,
2167.0,2012.0,-16.0,-13.0,
2023.0,2000.0,-16.0,-14.0,
2045.0,1998.0,-16.0,-14.0,
2047.0,2029.0,-16.0,-15.0,
2049.0,2127.0,-16.0,-15.0,
1944.0,2189.0,-16.0,-15.0,
2006.0,2080.0,-16.0,-15.0,
2034.0,2032.0,-16.0,-15.0,
2143.0,2070.0,-16.0,-15.0,
2249.0,2051.0,-16.0,-15.0,
2173.0,2136.0,-16.0,-15.0,
2025.0,2043.0,-16.0,-15.0,
1990.0,2082.0,-16.0,-15.0,
2035.0,2111.0,-16.0,-15.0,
2047.0,2118.0,-16.0,-16.0,
1964.0,2172.0,-16.0,-17.0,
1999.0,2141.0,-16.0,-16.0,
2067.0,2208.0,-16.0,-16.0,
2058.0,1959.0,-16.0,-15.0,
2045.0,2063.0,-16.0,-15.0,
2069.0,2021.0,-16.0,-15.0,
2051.0,2123.0,-16.0,-15.0,
2137.0,2035.0,-16.0,-15.0,
2210.0,2006.0,-17.0,-15.0,
2049.0,2064.0,-17.0,-13.0,
2023.0,2117.0,-17.0,-13.0,
1924.0,2137.0,-17.0,-14.0,
1952.0,2043.0,-17.0,-14.0,
1931.0,2098.0,-18.0,-15.0,
2024.0,2030.0,-18.0,-15.0,
2319.0,1968.0,-18.0,-15.0,
2309.0,2273.0,-18.0,-15.0,
2250.0,2312.0,-18.0,-15.0,
2135.0,2267.0,-18.0,-15.0,
2084.0,2038.0,-18.0,-16.0,
2036.0,2018.0,-18.0,-16.0,
2037.0,2057.0,-18.0,-16.0,
2026.0,2139.0,-18.0,-15.0,
2034.0,2008.0,-18.0,-15.0,
2095.0,1950.0,-18.0,-15.0,
2124.0,1941.0,-18.0,-15.0,
2046.0,2148.0,-18.0,-15.0,
2085.0,2260.0,-18.0,-15.0,
2064.0,2182.0,-18.0,-15.0,
1989.0,1949.0,-18.0,-14.0,
1970.0,2012.0,-18.0,-13.0,
2061.0,1989.0,-18.0,-14.0,
2034.0,2042.0,-18.0,-14.0,
2037.0,2008.0,-18.0,-15.0,
2087.0,2033.0,-18.0,-15.0,
2084.0,2161.0,-18.0,-15.0,
2142.0,2170.0,-18.0,-15.0,
2122.0,2118.0,-18.0,-15.0,
2116.0,2182.0,-17.0,-16.0,
2032.0,2230.0,-17.0,-16.0,
1940.0,2041.0,-17.0,-16.0,
1920.0,2150.0,-17.0,-15.0,
1956.0,2149.0,-17.0,-15.0,
2022.0,2120.0,-17.0,-15.0,
2057.0,1970.0,-17.0,-16.0,
2213.0,2044.0,-16.0,-16.0,
2111.0,2006.0,-16.0,-16.0,
1962.0,2005.0,-16.0,-15.0,
2015.0,2123.0,-16.0,-15.0,
2100.0,2260.0,-17.0,-15.0,
2059.0,2025.0,-17.0,-15.0,
1961.0,2137.0,-17.0,-16.0,
2087.0,2122.0,-17.0,-16.0,
2100.0,2098.0,-17.0,-16.0,
2114.0,2060.0,-17.0,-16.0,
2056.0,2108.0,-17.0,-17.0,
2049.0,2113.0,-16.0,-18.0,
2147.0,2121.0,-16.0,-18.0,
2068.0,2146.0,-16.0,-17.0,
2139.0,2076.0,-16.0,-16.0,
2224.0,1946.0,-17.0,-15.0,
2050.0,1957.0,-17.0,-15.0,
2015.0,2210.0,-17.0,-15.0,
2042.0,2008.0,-17.0,-15.0,
2059.0,2064.0,-17.0,-15.0,
2132.0,1977.0,-17.0,-14.0,
2156.0,2130.0,-17.0,-13.0,
2100.0,2314.0,-17.0,-13.0,
2070.0,2161.0,-17.0,-14.0,
1994.0,2042.0,-17.0,-15.0,
1966.0,2078.0,-17.0,-15.0,
2112.0,2131.0,-17.0,-16.0,
2006.0,2060.0,-17.0,-15.0,
2020.0,2043.0,-18.0,-15.0,
2033.0,2080.0,-18.0,-17.0,
2059.0,2083.0,-18.0,-17.0,
2122.0,2081.0,-18.0,-17.0,
2057.0,2110.0,-18.0,-16.0,
1992.0,2149.0,-19.0,-15.0,
2058.0,2111.0,-19.0,-15.0,
2223.0,2097.0,-19.0,-15.0,
2174.0,1996.0,0,
1950.0,1974.0,-19.0,-15.0,
1791.0,2059.0,-20.0,-15.0,
2097.0,2211.0,-20.0,-14.0,
2025.0,2213.0,-20.0,-13.0,
2030.0,2141.0,-20.0,-14.0,
2016.0,1985.0,-20.0,-14.0,
2074.0,2028.0,-20.0,-15.0,
2180.0,1948.0,-21.0,-15.0,
2144.0,2016.0,-21.0,-15.0,
2169.0,2005.0,-21.0,-15.0,
2077.0,2131.0,-21.0,-15.0,
2131.0,2184.0,-20.0,-15.0,
2117.0,2155.0,-20.0,-15.0,
2200.0,2201.0,-20.0,-15.0,
2078.0,2180.0,-20.0,-15.0,
2064.0,2000.0,-20.0,-16.0,
2068.0,2126.0,-20.0,-16.0,
2022.0,2058.0,-19.0,-16.0,
2041.0,2130.0,-19.0,-16.0,
2024.0,2149.0,-19.0,-16.0,
2047.0,2093.0,-19.0,-16.0,
2052.0,1904.0,-19.0,-16.0,
2064.0,2032.0,-18.0,-17.0,
2026.0,2083.0,-18.0,-18.0,
2138.0,2088.0,-18.0,-17.0,
2058.0,2149.0,-18.0,-16.0,
1993.0,2074.0,-18.0,-16.0,
1963.0,2067.0,-18.0,-15.0,
1945.0,2015.0,-18.0,-15.0,
2013.0,2008.0,-18.0,-15.0,
1935.0,2068.0,-18.0,-16.0,
2141.0,2063.0,-18.0,-16.0,
2299.0,2013.0,-18.0,-14.0,
2283.0,2156.0,-18.0,-14.0,
2124.0,2201.0,-19.0,-14.0,
2051.0,2066.0,-19.0,-15.0,
2070.0,2054.0,-19.0,-16.0,
2204.0,2187.0,-19.0,-16.0,
2075.0,2402.0,-19.0,-16.0,
2058.0,2089.0,-19.0,-16.0,
2179.0,2118.0,-19.0,-16.0,
2062.0,2062.0,-19.0,-16.0,
1973.0,2090.0,-19.0,-15.0,
2183.0,2022.0,-19.0,-16.0,
2080.0,2015.0,-19.0,-16.0,
2006.0,2068.0,-19.0,-16.0,
1920.0,1965.0,-19.0,-16.0,
1941.0,2198.0,-19.0,-16.0,
2076.0,2106.0,-19.0,-18.0,
2125.0,2022.0,-19.0,-18.0,
2150.0,2111.0,-19.0,-18.0,
2212.0,2132.0,0,
2062.0,2078.0,-20.0,-16.0,
2085.0,2004.0,-20.0,-16.0,
2121.0,2095.0,-20.0,-16.0,
2012.0,2024.0,-20.0,-16.0,
1994.0,2134.0,-20.0,-16.0,
1990.0,2224.0,-20.0,-15.0,
1991.0,2102.0,-21.0,-14.0,
2020.0,2032.0,-21.0,-13.0,
2177.0,2049.0,-21.0,-14.0,
2150.0,2158.0,-22.0,-15.0,
2043.0,2066.0,-22.0,-16.0,
2044.0,2041.0,-22.0,-16.0,
2076.0,2176.0,-22.0,-16.0,
2073.0,2000.0,-22.0,-16.0,
2066.0,2171.0,-22.0,-16.0,
2058.0,1987.0,-22.0,-16.0,
1922.0,1849.0,-22.0,-16.0,
2163.0,2006.0,0,
2040.0,2079.0,-22.0,-16.0,
1942.0,2097.0,-22.0,-16.0,
2126.0,2358.0,-22.0,-16.0,
2180.0,1889.0,-22.0,-16.0,
2361.0,1935.0,-22.0,-16.0,
2182.0,2150.0,-22.0,-16.0,
1925.0,2140.0,-22.0,-16.0,
1895.0,1993.0,-22.0,-16.0,
2006.0,2183.0,-21.0,-16.0,
2002.0,2209.0,-21.0,-16.0,
2139.0,2024.0,-21.0,-16.0,
2039.0,2143.0,-21.0,-16.0,
2047.0,2160.0,-21.0,-16.0,
2124.0,2165.0,-21.0,-16.0,
2040.0,2083.0,-20.0,-18.0,
2053.0,2096.0,-20.0,-18.0,
2107.0,2261.0,-20.0,-17.0,
2176.0,2048.0,-20.0,-17.0,
2128.0,1940.0,-20.0,-16.0,
2069.0,2026.0,-20.0,-16.0,
2132.0,2168.0,-20.0,-16.0,
2130.0,2136.0,-20.0,-16.0,
2024.0,2107.0,-20.0,-16.0,
2076.0,2120.0,-20.0,-16.0,
2002.0,2139.0,-21.0,-13.0,
2066.0,2138.0,-21.0,-14.0,
2051.0,2181.0,-21.0,-14.0,
2130.0,2112.0,-21.0,-15.0,
2081.0,1849.0,-21.0,-16.0,
1948.0,1948.0,-21.0,-16.0,
1982.0,1857.0,-21.0,-16.0,
2011.0,2035.0,-22.0,-16.0,
2038.0,2067.0,-22.0,-16.0,
2153.0,2146.0,-22.0,-16.0,
2070.0,2144.0,-22.0,-16.0,
2011.0,2135.0,-22.0,-16.0,
2065.0,2422.0,-22.0,-17.0,
1956.0,2024.0,-22.0,-18.0,
2029.0,2057.0,-22.0,-18.0,
2072.0,1989.0,-22.0,-17.0,
2199.0,2137.0,-22.0,-16.0,
2080.0,1995.0,-23.0,-16.0,
2066.0,2056.0,-23.0,-16.0,
2083.0,2190.0,-23.0,-16.0,
2045.0,2204.0,-23.0,-16.0,
1995.0,2149.0,-23.0,-16.0,
2125.0,2056.0,-23.0,-15.0,
2325.0,2031.0,-24.0,-14.0,
2121.0,2218.0,-24.0,-14.0,
1893.0,2157.0,-24.0,-15.0,
1863.0,2107.0,-24.0,-16.0,
1801.0,1994.0,-24.0,-16.0,
2054.0,1930.0,-24.0,-16.0,
2135.0,2090.0,-24.0,-16.0,
2269.0,2170.0,-24.0,-16.0,
2261.0,2222.0,-24.0,-16.0,
2072.0,1961.0,-24.0,-16.0,
1880.0,1913.0,-24.0,-16.0,
2047.0,2163.0,-24.0,-16.0,
2063.0,1975.0,-24.0,-16.0,
2236.0,1952.0,-23.0,-16.0,
2157.0,2041.0,-23.0,-16.0,
1966.0,2366.0,-23.0,-16.0,
2053.0,2051.0,-23.0,-16.0,
2165.0,2073.0,-23.0,-16.0,
1962.0,2147.0,-22.0,-16.0,
2256.0,2219.0,-22.0,-16.0,
2039.0,2212.0,-22.0,-16.0,
2165.0,2256.0,-22.0,-16.0,
2045.0,1922.0,-22.0,-16.0,
2024.0,1911.0,-21.0,-16.0,
2056.0,2041.0,-21.0,-16.0,
2105.0,2010.0,-21.0,-16.0,
2022.0,2151.0,-21.0,-16.0,
1947.0,2149.0,-21.0,-16.0,
1908.0,2096.0,-21.0,-16.0,
2021.0,2017.0,-21.0,-16.0,
2229.0,2103.0,-22.0,-16.0,
2194.0,2087.0,-22.0,-16.0,
2014.0,2012.0,-22.0,-16.0,
2136.0,1969.0,-22.0,-16.0,
2217.0,2009.0,-22.0,-16.0,
2137.0,1977.0,-22.0,-16.0,
2011.0,2375.0,-22.0,-17.0,
2016.0,2388.0,-22.0,-17.0,
1931.0,2086.0,-22.0,-17.0,
2084.0,1962.0,-22.0,-16.0,
2005.0,2015.0,-22.0,-16.0,
1932.0,2190.0,-23.0,-16.0,
2135.0,2274.0,-23.0,-16.0,
2128.0,1963.0,-23.0,-17.0,
2012.0,1994.0,-23.0,-17.0,
1956.0,2189.0,-23.0,-17.0,
2056.0,2030.0,-23.0,-16.0,
2082.0,2089.0,-23.0,-16.0,
2021.0,2015.0,-23.0,-16.0,
2081.0,2353.0,-23.0,-17.0,
1965.0,2215.0,-23.0,-17.0,
2126.0,2046.0,-23.0,-17.0,
2138.0,2046.0,-23.0,-17.0,
2152.0,2125.0,-23.0,-17.0,
2211.0,1970.0,-23.0,-17.0,
2188.0,2114.0,-23.0,-17.0,
2006.0,1890.0,-23.0,-17.0,
2043.0,2027.0,-23.0,-17.0,
2083.0,2062.0,-23.0,-19.0,
1983.0,2124.0,-23.0,-21.0,
1858.0,2165.0,-23.0,-20.0,
1894.0,2088.0,-23.0,-19.0,
2068.0,2049.0,-23.0,-18.0,
2033.0,2055.0,-23.0,-18.0,
2154.0,2089.0,-24.0,-18.0,
2403.0,2393.0,-24.0,-18.0,
2167.0,2099.0,-24.0,-18.0,
2176.0,2178.0,-24.0,-18.0,
2282.0,2107.0,-25.0,-16.0,
2170.0,1928.0,-25.0,-14.0,
2002.0,1990.0,-25.0,-14.0,
1949.0,2089.0,-25.0,-15.0,
1888.0,2210.0,-25.0,-16.0,
1960.0,1939.0,-25.0,-16.0,
2045.0,2039.0,-25.0,-16.0,
1910.0,2013.0,-25.0,-16.0,
1905.0,2042.0,-25.0,-16.0,
2001.0,2151.0,-25.0,-16.0,
2289.0,2064.0,-25.0,-16.0,
2217.0,2187.0,-25.0,-16.0,
2083.0,2299.0,-25.0,-16.0,
2004.0,2031.0,-24.0,-16.0,
1871.0,2061.0,-24.0,-16.0,
2039.0,2183.0,-24.0,-16.0,
2123.0,1953.0,-24.0,-16.0,
2186.0,2107.0,-24.0,-16.0,
2202.0,1832.0,-24.0,-16.0,
2153.0,2303.0,-24.0,-16.0,
2046.0,2079.0,-24.0,-16.0,
1939.0,2343.0,-24.0,-16.0,
1915.0,1989.0,-24.0,-16.0,
2176.0,2002.0,-24.0,-16.0,
2173.0,2050.0,-24.0,-17.0,
2170.0,2034.0,-24.0,-17.0,
2085.0,2035.0,-24.0,-17.0,
2106.0,1878.0,-24.0,-17.0,
2073.0,1882.0,-24.0,-17.0,
1926.0,2313.0,-24.0,-17.0,
1909.0,2235.0,-24.0,-17.0,
1978.0,2422.0,-24.0,-17.0,
2094.0,2106.0,-23.0,-17.0,
2145.0,1968.0,-23.0,-17.0,
1980.0,2035.0,-23.0,-17.0,
2008.0,2021.0,-23.0,-17.0,
2229.0,2086.0,-23.0,-17.0,
2123.0,2207.0,-23.0,-17.0,
2130.0,2108.0,-23.0,-17.0,
2320.0,2167.0,-23.0,-17.0,
2096.0,2210.0,-23.0,-17.0,
2089.0,1954.0,-24.0,-17.0,
1940.0,2255.0,-24.0,-16.0,
1989.0,2068.0,-24.0,-16.0,
2068.0,1899.0,-24.0,-17.0,
2120.0,1909.0,-24.0,-17.0,
2026.0,2104.0,-24.0,-17.0,
1782.0,2107.0,-25.0,-17.0,
1988.0,2092.0,-25.0,-16.0,
2178.0,2020.0,-25.0,-16.0,
2121.0,2023.0,-25.0,-16.0,
2122.0,2005.0,-25.0,-16.0,
2126.0,2018.0,-26.0,-16.0,
2124.0,2231.0,-26.0,-16.0,
2192.0,2162.0,-26.0,-16.0,
2126.0,2158.0,-26.0,-16.0,
2039.0,2170.0,-26.0,-16.0,
2192.0,2076.0,-26.0,-18.0,
2080.0,2125.0,-26.0,-18.0,
2042.0,2078.0,-26.0,-17.0,
2018.0,2067.0,-26.0,-16.0,
2012.0,2096.0,-26.0,-16.0,
2121.0,2086.0,-26.0,-16.0,
2161.0,1926.0,-26.0,-16.0,
1994.0,2198.0,-26.0,-16.0,
1996.0,2156.0,-26.0,-16.0,
2066.0,2192.0,-26.0,-16.0,
1997.0,2136.0,-26.0,-14.0,
2015.0,2052.0,-26.0,-14.0,
1960.0,2094.0,-26.0,-15.0,
2023.0,2113.0,-26.0,-16.0,
2213.0,2113.0,-26.0,-17.0,
2253.0,1940.0,-25.0,-17.0,
1828.0,1896.0,-25.0,-17.0,
1777.0,1963.0,-25.0,-17.0,
1990.0,2159.0,-25.0,-17.0,
2224.0,2355.0,-25.0,-17.0,
2405.0,1971.0,-25.0,-17.0,
1976.0,1992.0,-25.0,-17.0,
1910.0,2115.0,-25.0,-17.0,
1984.0,2271.0,-25.0,-17.0,
2041.0,2115.0,-25.0,-16.0,
2117.0,2028.0,-25.0,-16.0,
2194.0,2039.0,-25.0,-16.0,
2233.0,1861.0,-25.0,-16.0,
2169.0,1874.0,-25.0,-16.0,
2189.0,1972.0,-25.0,-16.0,
2093.0,2211.0,-25.0,-16.0,
1977.0,2343.0,-26.0,-16.0,
1942.0,2230.0,-26.0,-16.0,
1950.0,2106.0,-26.0,-16.0,
2151.0,2088.0,-26.0,-16.0,
2243.0,2043.0,-26.0,-16.0,
2119.0,2165.0,-26.0,-16.0,
2014.0,2177.0,-26.0,-16.0,
2016.0,2246.0,-26.0,-16.0,
2006.0,1994.0,-26.0,-16.0,
2180.0,2257.0,-26.0,-16.0,
2141.0,1966.0,-26.0,-16.0,
2131.0,1898.0,-26.0,-16.0,
2142.0,1908.0,-26.0,-16.0,
2034.0,1892.0,-26.0,-17.0,
2069.0,1943.0,-25.0,-17.0,
2090.0,2072.0,-25.0,-16.0,
1940.0,2059.0,-25.0,-16.0,
1920.0,2113.0,-25.0,-16.0,
1988.0,2165.0,-25.0,-16.0,
2002.0,2205.0,-25.0,-16.0,
1814.0,2301.0,-25.0,-16.0,
1928.0,2202.0,-25.0,-16.0,
2323.0,2112.0,-25.0,-16.0,
2201.0,1909.0,-25.0,-16.0,
1971.0,2166.0,-25.0,-16.0,
2068.0,2037.0,-25.0,-17.0,
2118.0,2128.0,-25.0,-17.0,
2267.0,2251.0,-25.0,-17.0,
2197.0,2010.0,-25.0,-17.0,
1995.0,2019.0,-25.0,-17.0,
2075.0,2063.0,-25.0,-17.0,
2146.0,2048.0,-25.0,-17.0,
2162.0,2184.0,-25.0,-17.0,
2133.0,2108.0,-25.0,-17.0,
2080.0,2032.0,-25.0,-17.0,
1877.0,1900.0,-26.0,-17.0,
1997.0,2366.0,-26.0,-17.0,
1928.0,2027.0,-26.0,-17.0,
1835.0,2554.0,-26.0,-17.0,
2381.0,1916.0,-26.0,-17.0,
2178.0,2032.0,-26.0,-17.0,
2103.0,1879.0,-26.0,-17.0,
1937.0,1989.0,-26.0,-17.0,
1935.0,2033.0,-26.0,-17.0,
2051.0,2117.0,-26.0,-17.0,
2304.0,1990.0,-26.0,-17.0,
2271.0,2090.0,-26.0,-17.0,
2197.0,2166.0,-26.0,-17.0,
2000.0,2149.0,-26.0,-17.0,
2069.0,2214.0,-26.0,-17.0,
2073.0,2170.0,-26.0,-17.0,
2085.0,2084.0,-26.0,-17.0,
1896.0,1961.0,-26.0,-17.0,
1895.0,1861.0,-26.0,-17.0,
2183.0,1899.0,-26.0,-17.0,
1954.0,2105.0,-26.0,-17.0,
1972.0,2474.0,-26.0,-17.0,
1955.0,2295.0,-26.0,-17.0,
1894.0,2109.0,-26.0,-17.0,
1932.0,2111.0,-26.0,-17.0,
1871.0,2081.0,-26.0,-17.0,
2333.0,2028.0,-26.0,-17.0,
2851.0,2032.0,-26.0,-17.0,
2345.0,2186.0,-26.0,-17.0,
2026.0,2058.0,-26.0,-17.0,
2018.0,1899.0,-26.0,-17.0,
2076.0,2092.0,-26.0,-17.0,
2226.0,2053.0,-26.0,-17.0,
2073.0,1941.0,-26.0,-17.0,
2034.0,1781.0,-26.0,-17.0,
2062.0,2054.0,-26.0,-17.0,
2081.0,2775.0,-26.0,-17.0,
1984.0,2279.0,-26.0,-17.0,
1952.0,1833.0,-26.0,-17.0,
1976.0,2089.0,-26.0,-17.0,
2019.0,2136.0,-26.0,-17.0,
1957.0,2232.0,-26.0,-17.0,
1974.0,2170.0,-26.0,-17.0,
2021.0,2159.0,-27.0,-17.0,
1988.0,2004.0,-27.0,-17.0,
2087.0,2041.0,-27.0,-17.0,
1995.0,2090.0,-27.0,-17.0,
2218.0,2084.0,-27.0,-17.0,
2085.0,1997.0,-27.0,-17.0,
2067.0,1973.0,-28.0,-17.0,
2027.0,1948.0,-28.0,-17.0,
2035.0,2086.0,-28.0,-18.0,
2069.0,2056.0,-28.0,-18.0,
2040.0,2173.0,-28.0,-17.0,
2032.0,2129.0,-28.0,-16.0,
2020.0,2097.0,-28.0,-16.0,
1952.0,2134.0,-28.0,-16.0,
1979.0,2125.0,-28.0,-16.0,
1968.0,2103.0,-28.0,-16.0,
2109.0,2040.0,-28.0,-16.0,
2174.0,2138.0,-29.0,-16.0,
2025.0,2022.0,-29.0,-15.0,
2250.0,2246.0,-29.0,-15.0,
2166.0,2185.0,-29.0,-16.0,
2274.0,1908.0,-29.0,-16.0,
1916.0,2171.0,-28.0,-16.0,
1974.0,1921.0,-28.0,-17.0,
1835.0,1717.0,-28.0,-17.0,
1980.0,2004.0,-28.0,-17.0,
2479.0,2307.0,-28.0,-17.0,
1860.0,2244.0,-28.0,-17.0,
2283.0,2081.0,-28.0,-17.0,
2496.0,1940.0,-28.0,-17.0,
2140.0,2054.0,-27.0,-17.0,
2065.0,2146.0,-27.0,-17.0,
2016.0,2291.0,-27.0,-17.0,
1911.0,2064.0,-27.0,-17.0,
2153.0,2047.0,-27.0,-17.0,
