2023.0,2066.0,9.0,-7.0,
2016.0,2103.0,9.0,-7.0,
2018.0,2101.0,9.0,-7.0,
2034.0,2086.0,9.0,-7.0,
2034.0,2049.0,9.0,-7.0,
2057.0,2045.0,9.0,-7.0,
2070.0,2017.0,9.0,-7.0,
2059.0,2004.0,9.0,-7.0,
2054.0,1987.0,9.0,-7.0,
2053.0,1989.0,9.0,-7.0,
2043.0,2051.0,9.0,-7.0,
2048.0,2063.0,9.0,-7.0,
2041.0,2052.0,9.0,-7.0,
2057.0,2041.0,9.0,-7.0,
2070.0,2036.0,9.0,-7.0,
2056.0,2034.0,9.0,-7.0,
2051.0,2034.0,9.0,-7.0,
2051.0,2020.0,9.0,-7.0,
2055.0,2045.0,9.0,-7.0,
2034.0,2037.0,9.0,-7.0,
2038.0,2054.0,9.0,-7.0,
2050.0,2073.0,9.0,-7.0,
2063.0,2046.0,9.0,-7.0,
2051.0,2046.0,9.0,-7.0,
2056.0,2026.0,9.0,-7.0,
2035.0,2037.0,9.0,-7.0,
2051.0,2020.0,9.0,-7.0,
2043.0,2032.0,9.0,-7.0,
2042.0,2027.0,9.0,-7.0,
2044.0,2047.0,9.0,-7.0,
2053.0,2055.0,9.0,-7.0,
2062.0,2032.0,9.0,-7.0,
2059.0,2020.0,9.0,-7.0,
2057.0,2030.0,9.0,-7.0,
2054.0,2036.0,9.0,-7.0,
2058.0,2003.0,9.0,-7.0,
2042.0,2039.0,9.0,-7.0,
2045.0,2036.0,9.0,-7.0,
2028.0,2047.0,9.0,-7.0,
2038.0,2052.0,9.0,-7.0,
2048.0,2036.0,9.0,-7.0,
2059.0,2033.0,9.0,-7.0,
2051.0,2001.0,9.0,-7.0,
2069.0,2047.0,9.0,-7.0,
2058.0,2040.0,9.0,-7.0,
2055.0,2044.0,9.0,-7.0,
2048.0,2041.0,9.0,-7.0,
2043.0,2028.0,9.0,-7.0,
2050.0,2042.0,9.0,-7.0,
2055.0,2042.0,9.0,-7.0,
2071.0,2017.0,9.0,-7.0,
2080.0,2040.0,9.0,-7.0,
2056.0,2044.0,9.0,-7.0,
2050.0,2030.0,9.0,-7.0,
2034.0,2030.0,9.0,-7.0,
2046.0,2050.0,9.0,-7.0,
2044.0,2054.0,9.0,-7.0,
2055.0,2070.0,9.0,-7.0,
2049.0,2054.0,9.0,-7.0,
2048.0,2032.0,9.0,-7.0,
2059.0,2012.0,9.0,-7.0,
2057.0,2033.0,9.0,-7.0,
2054.0,2034.0,9.0,-7.0,
2057.0,2050.0,9.0,-7.0,
2050.0,2052.0,9.0,-7.0,
2031.0,2059.0,9.0,-7.0,
2042.0,2062.0,9.0,-7.0,
2048.0,2046.0,9.0,-7.0,
2057.0,2043.0,9.0,-7.0,
2062.0,2032.0,9.0,-7.0,
2062.0,2040.0,9.0,-7.0,
2060.0,2024.0,9.0,-7.0,
2054.0,2020.0,9.0,-7.0,
2043.0,2023.0,9.0,-7.0,
2038.0,2013.0,9.0,-7.0,
2047.0,2069.0,9.0,-7.0,
2056.0,2042.0,9.0,-7.0,
2072.0,2037.0,9.0,-7.0,
2061.0,2037.0,9.0,-7.0,
2054.0,2027.0,9.0,-7.0,
2052.0,2049.0,9.0,-7.0,
2052.0,2043.0,9.0,-7.0,
2043.0,2055.0,9.0,-7.0,
2034.0,2019.0,9.0,-7.0,
2046.0,2038.0,9.0,-7.0,
2054.0,2035.0,9.0,-7.0,
2054.0,2045.0,9.0,-7.0,
2071.0,2033.0,9.0,-7.0,
2058.0,2033.0,9.0,-7.0,
2056.0,2025.0,9.0,-7.0,
2053.0,2048.0,9.0,-7.0,
2042.0,2047.0,9.0,-7.0,
2040.0,2065.0,9.0,-7.0,
2043.0,2072.0,9.0,-7.0,
2054.0,2039.0,9.0,-7.0,
2051.0,2048.0,9.0,-7.0,
2059.0,2048.0,9.0,-7.0,
2049.0,2019.0,9.0,-7.0,
2052.0,2023.0,9.0,-7.0,
2052.0,2031.0,9.0,-7.0,
2049.0,2047.0,9.0,-7.0,
2039.0,2057.0,9.0,-7.0,
2055.0,2059.0,9.0,-7.0,
2062.0,2056.0,9.0,-7.0,
2061.0,2021.0,9.0,-7.0,
2068.0,2025.0,9.0,-7.0,
2062.0,2022.0,9.0,-7.0,
2061.0,2021.0,9.0,-7.0,
2049.0,2039.0,9.0,-7.0,
2034.0,2059.0,9.0,-7.0,
2041.0,2069.0,9.0,-7.0,
2041.0,2053.0,9.0,-7.0,
2047.0,2053.0,9.0,-7.0,
2052.0,2040.0,9.0,-7.0,
2064.0,2046.0,9.0,-7.0,
2055.0,2048.0,9.0,-7.0,
2049.0,2057.0,9.0,-7.0,
2035.0,2036.0,9.0,-7.0,
2055.0,2041.0,9.0,-7.0,
2033.0,2072.0,9.0,-7.0,
2044.0,2064.0,9.0,-7.0,
2062.0,2057.0,9.0,-7.0,
2058.0,2028.0,9.0,-7.0,
2062.0,2034.0,9.0,-7.0,
2063.0,2028.0,9.0,-7.0,
2053.0,2028.0,9.0,-7.0,
2049.0,2017.0,9.0,-7.0,
2041.0,1997.0,9.0,-7.0,
2043.0,2065.0,9.0,-7.0,
2048.0,2050.0,9.0,-7.0,
2044.0,2061.0,9.0,-7.0,
2060.0,2037.0,9.0,-7.0,
2064.0,2027.0,9.0,-7.0,
2067.0,2037.0,9.0,-7.0,
2056.0,2017.0,9.0,-7.0,
2045.0,2015.0,9.0,-7.0,
2033.0,2042.0,9.0,-7.0,
2041.0,2041.0,9.0,-7.0,
2039.0,2058.0,9.0,-7.0,
2052.0,2052.0,9.0,-7.0,
2046.0,2025.0,9.0,-7.0,
2067.0,2036.0,9.0,-7.0,
2061.0,2051.0,9.0,-7.0,
2063.0,2049.0,9.0,-7.0,
2050.0,2050.0,9.0,-7.0,
2047.0,2055.0,9.0,-7.0,
2035.0,2057.0,9.0,-7.0,
2053.0,2059.0,9.0,-7.0,
2058.0,2077.0,9.0,-7.0,
2047.0,2078.0,9.0,-7.0,
2057.0,2042.0,9.0,-7.0,
2057.0,2028.0,9.0,-7.0,
2102.0,2037.0,9.0,-7.0,
2040.0,2026.0,9.0,-7.0,
2044.0,2007.0,9.0,-7.0,
2039.0,2035.0,9.0,-7.0,
2041.0,2049.0,9.0,-7.0,
2040.0,2037.0,9.0,-7.0,
2072.0,2069.0,9.0,-7.0,
2071.0,2028.0,9.0,-7.0,
2067.0,2039.0,9.0,-7.0,
2064.0,2028.0,9.0,-7.0,
2065.0,2058.0,9.0,-7.0,
2047.0,2044.0,9.0,-7.0,
2037.0,2054.0,9.0,-7.0,
2051.0,2041.0,9.0,-7.0,
2052.0,2050.0,9.0,-7.0,
2063.0,2031.0,9.0,-7.0,
2062.0,2046.0,9.0,-7.0,
2078.0,2037.0,9.0,-7.0,
2053.0,2036.0,9.0,-7.0,
2057.0,2017.0,9.0,-7.0,
2051.0,2034.0,9.0,-7.0,
2037.0,2027.0,9.0,-7.0,
2047.0,2047.0,9.0,-7.0,
2067.0,2037.0,9.0,-7.0,
2063.0,2026.0,9.0,-7.0,
2068.0,2023.0,9.0,-7.0,
2059.0,1974.0,9.0,-7.0,
2066.0,2044.0,9.0,-7.0,
2050.0,2003.0,9.0,-7.0,
2045.0,2040.0,9.0,-7.0,
2049.0,2052.0,9.0,-7.0,
2057.0,2060.0,9.0,-7.0,
2066.0,2063.0,9.0,-7.0,
2066.0,2040.0,9.0,-7.0,
2070.0,2013.0,9.0,-7.0,
2073.0,2024.0,9.0,-7.0,
2067.0,2039.0,9.0,-7.0,
2056.0,2028.0,9.0,-7.0,
2036.0,2022.0,9.0,-7.0,
2042.0,2059.0,9.0,-7.0,
2040.0,2070.0,9.0,-7.0,
2046.0,2061.0,9.0,-7.0,
2050.0,2049.0,9.0,-7.0,
2063.0,2036.0,9.0,-7.0,
2055.0,2051.0,9.0,-7.0,
2043.0,2066.0,9.0,-7.0,
2049.0,2020.0,9.0,-7.0,
2056.0,2038.0,9.0,-7.0,
2041.0,2049.0,9.0,-7.0,
2037.0,2050.0,9.0,-7.0,
2050.0,2054.0,9.0,-7.0,
2058.0,2051.0,9.0,-7.0,
2061.0,2045.0,9.0,-7.0,
2063.0,2026.0,9.0,-7.0,
2063.0,2043.0,9.0,-7.0,
2048.0,2038.0,9.0,-7.0,
2047.0,2038.0,9.0,-7.0,
2039.0,2013.0,9.0,-7.0,
2037.0,2026.0,9.0,-7.0,
2049.0,2077.0,9.0,-7.0,
2057.0,2052.0,9.0,-7.0,
2066.0,2043.0,9.0,-7.0,
2076.0,2027.0,9.0,-7.0,
2067.0,1989.0,9.0,-7.0,
2052.0,2030.0,9.0,-7.0,
2027.0,2067.0,9.0,-7.0,
2044.0,2075.0,9.0,-7.0,
2036.0,2064.0,9.0,-7.0,
2041.0,2055.0,9.0,-7.0,
2053.0,2050.0,9.0,-7.0,
2060.0,2028.0,9.0,-7.0,
2062.0,2042.0,9.0,-7.0,
2049.0,2039.0,9.0,-7.0,
2054.0,2031.0,9.0,-7.0,
2044.0,2026.0,9.0,-7.0,
2048.0,2042.0,9.0,-7.0,
2046.0,2044.0,9.0,-7.0,
2044.0,2031.0,9.0,-7.0,
2051.0,2043.0,9.0,-7.0,
2059.0,2035.0,9.0,-7.0,
2063.0,2014.0,9.0,-7.0,
2063.0,2019.0,9.0,-7.0,
2048.0,2025.0,9.0,-7.0,
2056.0,2011.0,9.0,-7.0,
2019.0,2060.0,9.0,-7.0,
2003.0,2073.0,9.0,-7.0,
2051.0,2058.0,9.0,-7.0,
2055.0,2012.0,9.0,-7.0,
2064.0,2042.0,9.0,-7.0,
2062.0,2036.0,9.0,-7.0,
2057.0,2014.0,9.0,-7.0,
2049.0,2028.0,9.0,-7.0,
2049.0,2046.0,9.0,-7.0,
2044.0,2062.0,9.0,-7.0,
2053.0,2067.0,9.0,-7.0,
2049.0,2062.0,9.0,-7.0,
2046.0,2036.0,9.0,-7.0,
2049.0,2034.0,9.0,-7.0,
2036.0,2036.0,9.0,-7.0,
2057.0,2034.0,9.0,-7.0,
2052.0,2037.0,9.0,-7.0,
2051.0,2038.0,9.0,-7.0,
2035.0,2053.0,9.0,-7.0,
2032.0,2040.0,9.0,-7.0,
2038.0,2057.0,9.0,-7.0,
2054.0,2038.0,9.0,-7.0,
2050.0,2017.0,9.0,-7.0,
2061.0,2022.0,9.0,-7.0,
2057.0,1999.0,9.0,-7.0,
2040.0,2000.0,0,
2034.0,2016.0,9.0,-7.0,
2028.0,2045.0,9.0,-7.0,
2055.0,2047.0,9.0,-7.0,
2054.0,2056.0,9.0,-7.0,
2053.0,2038.0,9.0,-7.0,
2057.0,2030.0,9.0,-7.0,
2074.0,1998.0,9.0,-7.0,
2064.0,2015.0,9.0,-7.0,
2053.0,2015.0,9.0,-7.0,
2049.0,2019.0,9.0,-7.0,
2041.0,2023.0,9.0,-7.0,
2038.0,2053.0,9.0,-7.0,
2055.0,2078.0,9.0,-7.0,
2066.0,2060.0,9.0,-7.0,
2072.0,2029.0,9.0,-7.0,
2074.0,2036.0,9.0,-7.0,
2067.0,2041.0,9.0,-7.0,
2065.0,2016.0,9.0,-7.0,
2039.0,2007.0,9.0,-7.0,
2053.0,2035.0,9.0,-7.0,
2043.0,2046.0,9.0,-7.0,
2050.0,2054.0,9.0,-7.0,
2048.0,2024.0,9.0,-7.0,
2045.0,2008.0,9.0,-7.0,
2061.0,2020.0,9.0,-7.0,
2060.0,2038.0,9.0,-7.0,
2057.0,2023.0,9.0,-7.0,
2043.0,2029.0,9.0,-7.0,
2048.0,2049.0,9.0,-7.0,
2061.0,2065.0,9.0,-7.0,
2057.0,2054.0,9.0,-7.0,
2063.0,2010.0,9.0,-7.0,
2072.0,2009.0,9.0,-7.0,
2075.0,2006.0,9.0,-7.0,
2082.0,2003.0,9.0,-7.0,
2081.0,2019.0,9.0,-7.0,
2052.0,2025.0,9.0,-7.0,
2053.0,2036.0,9.0,-7.0,
2041.0,2064.0,9.0,-7.0,
2047.0,2046.0,9.0,-7.0,
2059.0,2065.0,9.0,-7.0,
2061.0,2033.0,9.0,-7.0,
2068.0,2051.0,9.0,-7.0,
2070.0,2033.0,9.0,-7.0,
2042.0,2027.0,9.0,-7.0,
2026.0,2034.0,9.0,-7.0,
2039.0,2048.0,9.0,-7.0,
2034.0,2049.0,9.0,-7.0,
2033.0,2063.0,9.0,-7.0,
2052.0,2039.0,9.0,-7.0,
2032.0,2032.0,9.0,-7.0,
2037.0,2036.0,9.0,-7.0,
2041.0,2034.0,9.0,-7.0,
2032.0,2042.0,9.0,-7.0,
2038.0,2042.0,9.0,-7.0,
2043.0,2039.0,9.0,-7.0,
2051.0,2064.0,9.0,-7.0,
2040.0,2056.0,9.0,-7.0,
2050.0,2059.0,9.0,-7.0,
2044.0,2050.0,9.0,-7.0,
2061.0,2045.0,9.0,-7.0,
2066.0,2028.0,9.0,-7.0,
2055.0,2039.0,9.0,-7.0,
2054.0,2037.0,9.0,-7.0,
2031.0,2038.0,9.0,-7.0,
2051.0,2078.0,9.0,-7.0,
2055.0,2060.0,9.0,-7.0,
2068.0,2030.0,9.0,-7.0,
2056.0,2045.0,9.0,-7.0,
2081.0,2032.0,9.0,-7.0,
2062.0,2039.0,9.0,-7.0,
2055.0,2037.0,9.0,-7.0,
2034.0,2049.0,9.0,-7.0,
2048.0,2056.0,9.0,-7.0,
2042.0,2050.0,9.0,-7.0,
2052.0,2077.0,9.0,-7.0,
2051.0,2036.0,9.0,-7.0,
2064.0,2037.0,9.0,-7.0,
2062.0,2042.0,9.0,-7.0,
2053.0,2028.0,9.0,-7.0,
2058.0,2024.0,9.0,-7.0,
2048.0,2008.0,9.0,-7.0,
2042.0,2065.0,9.0,-7.0,
2038.0,2050.0,9.0,-7.0,
2040.0,2050.0,9.0,-7.0,
2059.0,2019.0,9.0,-7.0,
2049.0,2013.0,9.0,-7.0,
2068.0,2025.0,9.0,-7.0,
2071.0,2044.0,9.0,-7.0,
2053.0,1998.0,9.0,-7.0,
2040.0,2024.0,9.0,-7.0,
2042.0,2039.0,9.0,-7.0,
2042.0,2063.0,9.0,-7.0,
2044.0,2041.0,9.0,-7.0,
2049.0,2044.0,9.0,-7.0,
2053.0,2034.0,9.0,-7.0,
2057.0,2024.0,9.0,-7.0,
2071.0,2019.0,9.0,-7.0,
2063.0,2029.0,9.0,-7.0,
2050.0,2020.0,9.0,-7.0,
2052.0,2027.0,9.0,-7.0,
2045.0,2045.0,9.0,-7.0,
2042.0,2057.0,9.0,-7.0,
2051.0,2049.0,9.0,-7.0,
2047.0,2051.0,9.0,-7.0,
2063.0,2036.0,9.0,-7.0,
2066.0,2042.0,9.0,-7.0,
2064.0,2033.0,9.0,-7.0,
2053.0,2041.0,9.0,-7.0,
2042.0,2045.0,0,
2024.0,2062.0,9.0,-7.0,
2056.0,2067.0,9.0,-7.0,
2058.0,2063.0,9.0,-7.0,
2059.0,2033.0,9.0,-7.0,
2061.0,2034.0,9.0,-7.0,
2061.0,2028.0,9.0,-7.0,
2059.0,2016.0,9.0,-7.0,
2049.0,2008.0,9.0,-7.0,
2053.0,2063.0,9.0,-7.0,
2069.0,2079.0,9.0,-7.0,
2049.0,2070.0,9.0,-7.0,
2063.0,2064.0,9.0,-7.0,
2053.0,2054.0,9.0,-7.0,
2065.0,2018.0,9.0,-7.0,
2059.0,2051.0,9.0,-7.0,
2057.0,2041.0,9.0,-7.0,
2057.0,2035.0,9.0,-7.0,
2050.0,2043.0,9.0,-7.0,
2055.0,2043.0,9.0,-7.0,
2051.0,2067.0,9.0,-7.0,
2064.0,2027.0,9.0,-7.0,
2072.0,2009.0,9.0,-7.0,
2060.0,2044.0,9.0,-7.0,
2062.0,2037.0,9.0,-7.0,
2067.0,2044.0,9.0,-7.0,
2054.0,2033.0,9.0,-7.0,
2050.0,2044.0,9.0,-7.0,
2046.0,2037.0,9.0,-7.0,
2064.0,2028.0,9.0,-7.0,
2053.0,1996.0,9.0,-7.0,
2063.0,2013.0,9.0,-7.0,
2067.0,2029.0,9.0,-7.0,
2079.0,2023.0,9.0,-7.0,
2062.0,2047.0,9.0,-7.0,
2052.0,2020.0,9.0,-7.0,
2053.0,2033.0,9.0,-7.0,
2041.0,2052.0,9.0,-7.0,
2043.0,2064.0,9.0,-7.0,
2039.0,2038.0,9.0,-7.0,
2049.0,2028.0,9.0,-7.0,
2050.0,2019.0,9.0,-7.0,
2064.0,2023.0,9.0,-7.0,
2053.0,2025.0,9.0,-7.0,
2047.0,2039.0,9.0,-7.0,
2023.0,2038.0,9.0,-7.0,
2033.0,2037.0,9.0,-7.0,
2023.0,2074.0,9.0,-7.0,
2049.0,2031.0,9.0,-7.0,
2055.0,2028.0,0,
2059.0,2040.0,9.0,-7.0,
2073.0,2053.0,9.0,-7.0,
2056.0,2030.0,9.0,-7.0,
2056.0,2029.0,9.0,-7.0,
2042.0,2053.0,9.0,-7.0,
2050.0,2064.0,9.0,-7.0,
2048.0,2048.0,9.0,-7.0,
2068.0,2039.0,9.0,-7.0,
2056.0,2054.0,9.0,-7.0,
2050.0,2051.0,9.0,-7.0,
2062.0,2043.0,9.0,-7.0,
2064.0,2035.0,9.0,-7.0,
2053.0,2027.0,9.0,-7.0,
2037.0,2055.0,9.0,-7.0,
2049.0,2052.0,9.0,-7.0,
2037.0,2062.0,9.0,-7.0,
2053.0,2039.0,9.0,-7.0,
2061.0,2040.0,9.0,-7.0,
2052.0,2046.0,9.0,-7.0,
2071.0,2018.0,9.0,-7.0,
2055.0,2029.0,9.0,-7.0,
2076.0,2037.0,9.0,-7.0,
2048.0,2048.0,9.0,-7.0,
2042.0,2030.0,9.0,-7.0,
2049.0,2043.0,9.0,-7.0,
2043.0,2033.0,9.0,-7.0,
2049.0,2032.0,9.0,-7.0,
2062.0,2036.0,9.0,-7.0,
2049.0,2039.0,9.0,-7.0,
2036.0,1999.0,9.0,-7.0,
2034.0,1988.0,9.0,-7.0,
2044.0,2026.0,9.0,-7.0,
2038.0,2060.0,9.0,-7.0,
2051.0,2080.0,9.0,-7.0,
2063.0,2050.0,9.0,-7.0,
2045.0,2041.0,9.0,-7.0,
2072.0,2051.0,9.0,-7.0,
2058.0,2034.0,9.0,-7.0,
2051.0,2044.0,9.0,-7.0,
2050.0,2032.0,9.0,-7.0,
2046.0,2035.0,9.0,-7.0,
2049.0,2045.0,9.0,-7.0,
2045.0,2081.0,9.0,-7.0,
2046.0,2044.0,9.0,-7.0,
2063.0,2053.0,9.0,-7.0,
2063.0,2018.0,9.0,-7.0,
2058.0,2046.0,9.0,-7.0,
2079.0,2044.0,9.0,-7.0,
2064.0,2042.0,9.0,-7.0,
2040.0,2041.0,9.0,-7.0,
2033.0,2021.0,9.0,-7.0,
2047.0,2038.0,9.0,-7.0,
2057.0,2036.0,9.0,-7.0,
2061.0,2017.0,9.0,-7.0,
2064.0,2042.0,9.0,-7.0,
2058.0,2036.0,9.0,-7.0,
2058.0,2033.0,9.0,-7.0,
2056.0,2043.0,9.0,-7.0,
2049.0,2038.0,9.0,-7.0,
2040.0,2067.0,9.0,-7.0,
2042.0,2068.0,9.0,-7.0,
2040.0,2024.0,9.0,-7.0,
2050.0,2041.0,9.0,-7.0,
2048.0,2057.0,9.0,-7.0,
2054.0,2040.0,9.0,-7.0,
2039.0,2037.0,9.0,-7.0,
2043.0,2043.0,9.0,-7.0,
2037.0,2052.0,9.0,-7.0,
2030.0,2057.0,9.0,-7.0,
2051.0,2059.0,9.0,-7.0,
2066.0,2048.0,9.0,-7.0,
2058.0,2023.0,0,
2060.0,2029.0,9.0,-7.0,
2071.0,2023.0,9.0,-7.0,
2045.0,2058.0,9.0,-7.0,
2060.0,2023.0,9.0,-7.0,
2049.0,2045.0,9.0,-7.0,
2031.0,2045.0,9.0,-7.0,
2044.0,2056.0,9.0,-7.0,
2042.0,2024.0,9.0,-7.0,
2055.0,2019.0,9.0,-7.0,
2041.0,2044.0,9.0,-7.0,
2060.0,2018.0,9.0,-7.0,
2054.0,2029.0,9.0,-7.0,
2040.0,2028.0,9.0,-7.0,
2039.0,2040.0,9.0,-7.0,
2035.0,2073.0,9.0,-7.0,
2024.0,2043.0,9.0,-7.0,
2044.0,2071.0,9.0,-7.0,
2044.0,2033.0,9.0,-7.0,
2065.0,2038.0,9.0,-7.0,
2059.0,2020.0,9.0,-7.0,
2062.0,2055.0,9.0,-7.0,
2048.0,2070.0,9.0,-7.0,
2035.0,2042.0,9.0,-7.0,
2028.0,2023.0,9.0,-7.0,
2035.0,2055.0,9.0,-7.0,
2053.0,2015.0,9.0,-7.0,
2057.0,2018.0,9.0,-7.0,
2053.0,2031.0,9.0,-7.0,
2043.0,2013.0,9.0,-7.0,
2048.0,2052.0,9.0,-7.0,
2060.0,2032.0,9.0,-7.0,
2050.0,2040.0,9.0,-7.0,
2051.0,2046.0,9.0,-7.0,
2041.0,2070.0,9.0,-7.0,
2050.0,2056.0,9.0,-7.0,
2064.0,2038.0,9.0,-7.0,
2048.0,2045.0,9.0,-7.0,
2071.0,2033.0,9.0,-7.0,
2082.0,2033.0,9.0,-7.0,
2064.0,2027.0,9.0,-7.0,
2054.0,2037.0,9.0,-7.0,
2028.0,2052.0,9.0,-7.0,
2043.0,2054.0,9.0,-7.0,
2046.0,2048.0,9.0,-7.0,
2054.0,2019.0,9.0,-7.0,
2058.0,2031.0,9.0,-7.0,
2066.0,2048.0,9.0,-7.0,
2067.0,2041.0,9.0,-7.0,
2040.0,2041.0,9.0,-7.0,
2034.0,2032.0,9.0,-7.0,
2028.0,2051.0,9.0,-7.0,
2037.0,2021.0,9.0,-7.0,
2055.0,2042.0,9.0,-7.0,
2052.0,2057.0,9.0,-7.0,
2067.0,2087.0,9.0,-7.0,
2054.0,2111.0,9.0,-7.0,
2067.0,2047.0,9.0,-7.0,
2056.0,2011.0,9.0,-7.0,
2051.0,1984.0,9.0,-7.0,
2044.0,1982.0,9.0,-7.0,
2043.0,2001.0,9.0,-7.0,
2055.0,2087.0,9.0,-7.0,
2060.0,1999.0,9.0,-7.0,
2071.0,1959.0,9.0,-7.0,
2075.0,2022.0,9.0,-7.0,
2072.0,2047.0,9.0,-7.0,
2053.0,2065.0,9.0,-7.0,
2046.0,2000.0,9.0,-7.0,
2033.0,2040.0,9.0,-7.0,
2042.0,2107.0,9.0,-7.0,
2044.0,2102.0,9.0,-7.0,
2053.0,2080.0,9.0,-7.0,
2053.0,2061.0,9.0,-7.0,
2052.0,2053.0,9.0,-7.0,
2069.0,2086.0,9.0,-7.0,
2050.0,2017.0,9.0,-7.0,
2048.0,2083.0,9.0,-7.0,
2051.0,2144.0,9.0,-7.0,
2056.0,2112.0,9.0,-7.0,
2044.0,1959.0,9.0,-7.0,
2062.0,1808.0,9.0,-7.0,
2078.0,1910.0,9.0,-7.0,
2074.0,1945.0,9.0,-7.0,
2054.0,1968.0,9.0,-7.0,
2061.0,2038.0,9.0,-7.0,
2049.0,2037.0,9.0,-7.0,
2025.0,2032.0,9.0,-7.0,
2036.0,2039.0,9.0,-7.0,
2045.0,2055.0,9.0,-7.0,
2064.0,2072.0,9.0,-7.0,
2069.0,2075.0,9.0,-7.0,
2073.0,2074.0,9.0,-7.0,
2064.0,2054.0,9.0,-7.0,
2034.0,2052.0,9.0,-7.0,
2027.0,2067.0,9.0,-7.0,
2023.0,1984.0,9.0,-7.0,
2004.0,2001.0,9.0,-7.0,
2025.0,2073.0,9.0,-7.0,
2053.0,2098.0,9.0,-7.0,
2063.0,2057.0,9.0,-7.0,
2076.0,2039.0,9.0,-7.0,
2060.0,2045.0,0,
2062.0,2077.0,9.0,-7.0,
2073.0,2053.0,9.0,-7.0,
2056.0,2011.0,9.0,-7.0,
2053.0,2074.0,9.0,-7.0,
2047.0,2113.0,9.0,-7.0,
2060.0,2102.0,9.0,-7.0,
2069.0,2045.0,9.0,-7.0,
2078.0,2025.0,9.0,-7.0,
2064.0,2019.0,10.0,-7.0,
2115.0,1991.0,10.0,-7.0,
2111.0,1957.0,10.0,-7.0,
2058.0,1961.0,10.0,-7.0,
2012.0,2031.0,10.0,-7.0,
1989.0,2060.0,10.0,-7.0,
1968.0,2033.0,10.0,-7.0,
1988.0,2033.0,10.0,-7.0,
2054.0,2051.0,10.0,-6.0,
2054.0,2057.0,10.0,-6.0,
2044.0,2016.0,10.0,-6.0,
2050.0,2035.0,11.0,-6.0,
2042.0,2085.0,11.0,-6.0,
2062.0,2025.0,11.0,-6.0,
2068.0,2030.0,11.0,-6.0,
2080.0,2023.0,11.0,-6.0,
2099.0,2036.0,11.0,-6.0,
2111.0,2036.0,11.0,-6.0,
2172.0,2040.0,11.0,-6.0,
2188.0,2036.0,10.0,-6.0,
2155.0,2034.0,10.0,-7.0,
2098.0,2044.0,10.0,-7.0,
1994.0,2063.0,10.0,-7.0,
1933.0,2081.0,10.0,-7.0,
1926.0,2084.0,10.0,-7.0,
1912.0,2104.0,10.0,-7.0,
1908.0,2100.0,10.0,-7.0,
1985.0,2076.0,10.0,-7.0,
2319.0,2049.0,10.0,-7.0,
2310.0,1971.0,10.0,-7.0,
2180.0,1951.0,10.0,-7.0,
2072.0,2091.0,9.0,-7.0,
1905.0,2115.0,9.0,-7.0,
1870.0,2062.0,9.0,-7.0,
1825.0,2022.0,9.0,-7.0,
1799.0,1975.0,9.0,-7.0,
1926.0,1963.0,9.0,-7.0,
1954.0,1957.0,8.0,-7.0,
1975.0,1989.0,8.0,-7.0,
2033.0,2009.0,8.0,-7.0,
2063.0,2031.0,8.0,-7.0,
2043.0,2073.0,8.0,-7.0,
2082.0,2105.0,8.0,-7.0,
2102.0,2108.0,8.0,-7.0,
2115.0,2136.0,8.0,-7.0,
2145.0,2215.0,8.0,-7.0,
2109.0,2087.0,8.0,-7.0,
2123.0,1989.0,9.0,-7.0,
2119.0,1998.0,9.0,-7.0,
2100.0,1996.0,9.0,-7.0,
2120.0,1909.0,8.0,-7.0,
2120.0,1942.0,8.0,-7.0,
2110.0,2025.0,8.0,-7.0,
2091.0,1984.0,8.0,-7.0,
2093.0,2046.0,8.0,-7.0,
2092.0,2074.0,8.0,-7.0,
2083.0,2069.0,8.0,-7.0,
2071.0,2085.0,8.0,-7.0,
2076.0,2070.0,8.0,-7.0,
2071.0,2114.0,8.0,-7.0,
2074.0,2102.0,8.0,-7.0,
2071.0,2100.0,8.0,-7.0,
2073.0,2115.0,8.0,-7.0,
2072.0,2067.0,8.0,-7.0,
2060.0,2043.0,8.0,-7.0,
2076.0,2054.0,8.0,-7.0,
2060.0,2057.0,8.0,-7.0,
2039.0,2072.0,8.0,-7.0,
2038.0,2093.0,8.0,-7.0,
2035.0,2091.0,7.0,-7.0,
2025.0,1963.0,7.0,-7.0,
2032.0,2003.0,7.0,-7.0,
2102.0,2050.0,7.0,-7.0,
2115.0,2064.0,7.0,-7.0,
2067.0,2033.0,7.0,-7.0,
2022.0,1986.0,7.0,-7.0,
1977.0,1974.0,6.0,-7.0,
1990.0,1961.0,6.0,-7.0,
2022.0,1934.0,6.0,-7.0,
2057.0,2032.0,6.0,-7.0,
2089.0,2008.0,6.0,-7.0,
2047.0,2034.0,6.0,-7.0,
2020.0,1996.0,6.0,-7.0,
2004.0,2031.0,6.0,-7.0,
2005.0,2033.0,6.0,-7.0,
2005.0,2037.0,0,
2053.0,2129.0,6.0,-7.0,
2067.0,2026.0,6.0,-7.0,
2055.0,1988.0,6.0,-7.0,
2060.0,2143.0,7.0,-7.0,
2070.0,2123.0,7.0,-6.0,
2065.0,2050.0,7.0,-6.0,
2057.0,1980.0,7.0,-6.0,
2047.0,1972.0,7.0,-6.0,
2034.0,2041.0,7.0,-6.0,
2046.0,2089.0,7.0,-6.0,
2070.0,2036.0,7.0,-6.0,
2072.0,2011.0,8.0,-6.0,
2063.0,2061.0,8.0,-5.0,
2072.0,2038.0,8.0,-5.0,
2028.0,2066.0,8.0,-5.0,
2013.0,2072.0,8.0,-5.0,
2018.0,2048.0,8.0,-5.0,
2054.0,2062.0,8.0,-5.0,
2064.0,2033.0,8.0,-5.0,
2032.0,2033.0,8.0,-5.0,
2024.0,2077.0,8.0,-5.0,
2033.0,2117.0,8.0,-5.0,
2023.0,2033.0,8.0,-5.0,
2011.0,2064.0,9.0,-5.0,
2030.0,1931.0,9.0,-5.0,
2050.0,1962.0,9.0,-5.0,
2090.0,1914.0,9.0,-5.0,
2092.0,1955.0,9.0,-5.0,
2054.0,1929.0,8.0,-5.0,
2043.0,1984.0,8.0,-5.0,
2055.0,2037.0,8.0,-5.0,
2054.0,2086.0,8.0,-5.0,
2108.0,2073.0,7.0,-5.0,
2163.0,2092.0,6.0,-5.0,
2150.0,2123.0,6.0,-6.0,
2031.0,2067.0,6.0,-6.0,
1962.0,2045.0,5.0,-6.0,
1943.0,2014.0,5.0,-6.0,
1970.0,2027.0,5.0,-6.0,
1999.0,2021.0,4.0,-6.0,
2019.0,1964.0,4.0,-6.0,
2045.0,1984.0,4.0,-6.0,
2045.0,2101.0,3.0,-6.0,
2070.0,2085.0,3.0,-6.0,
2045.0,2043.0,3.0,-7.0,
2059.0,2063.0,2.0,-7.0,
2070.0,2108.0,2.0,-7.0,
2066.0,2084.0,2.0,-7.0,
2042.0,2049.0,2.0,-7.0,
2042.0,2082.0,2.0,-7.0,
2056.0,2047.0,2.0,-7.0,
2091.0,2045.0,2.0,-7.0,
2141.0,2048.0,2.0,-7.0,
2114.0,2060.0,2.0,-7.0,
2059.0,2115.0,1.0,-7.0,
2020.0,2038.0,1.0,-7.0,
1999.0,2031.0,1.0,-7.0,
2048.0,2031.0,1.0,-7.0,
2057.0,2002.0,1.0,-7.0,
2057.0,1991.0,0.0,-7.0,
2048.0,1909.0,0.0,-7.0,
2014.0,1845.0,0.0,-7.0,
2007.0,1994.0,0.0,-7.0,
2013.0,2063.0,0.0,-7.0,
2046.0,2047.0,0.0,-7.0,
2049.0,2009.0,0.0,-7.0,
2023.0,1956.0,0.0,-7.0,
2052.0,2037.0,0.0,-8.0,
2059.0,2081.0,0.0,-8.0,
2059.0,2091.0,-1.0,-8.0,
2033.0,2103.0,-1.0,-8.0,
2028.0,2080.0,-1.0,-8.0,
2034.0,2024.0,-1.0,-8.0,
2029.0,1992.0,-1.0,-8.0,
2038.0,2039.0,-1.0,-8.0,
2046.0,2087.0,-1.0,-8.0,
2070.0,2081.0,-1.0,-8.0,
2087.0,1949.0,-2.0,-8.0,
2108.0,2024.0,-2.0,-8.0,
2076.0,2062.0,-1.0,-8.0,
2085.0,2117.0,-1.0,-8.0,
2092.0,2124.0,-1.0,-8.0,
2076.0,2085.0,-1.0,-8.0,
2069.0,2063.0,-1.0,-8.0,
2065.0,1950.0,-1.0,-8.0,
2042.0,1905.0,-1.0,-8.0,
2044.0,2019.0,-1.0,-8.0,
2033.0,2012.0,-1.0,-8.0,
2028.0,2036.0,-1.0,-7.0,
2022.0,2049.0,-1.0,-7.0,
2034.0,2047.0,0.0,-7.0,
2055.0,2059.0,0.0,-7.0,
2084.0,2069.0,0.0,-7.0,
2081.0,1998.0,0.0,-7.0,
2101.0,2010.0,0.0,-7.0,
2107.0,2045.0,0.0,-7.0,
2062.0,1996.0,0.0,-7.0,
2048.0,2023.0,0.0,-7.0,
2052.0,2053.0,0.0,-7.0,
2072.0,2054.0,0.0,-7.0,
2058.0,2016.0,0.0,-7.0,
2034.0,2071.0,0.0,-7.0,
2051.0,2049.0,0.0,-7.0,
2025.0,2047.0,0.0,-7.0,
2025.0,2042.0,0.0,-7.0,
2023.0,1982.0,0.0,-6.0,
2020.0,1994.0,0.0,-6.0,
2027.0,2063.0,0.0,-6.0,
2027.0,2111.0,0.0,-6.0,
2051.0,2053.0,0.0,-6.0,
2061.0,2114.0,0.0,-6.0,
2059.0,2057.0,0.0,-6.0,
2051.0,2055.0,0.0,-6.0,
2052.0,2022.0,0.0,-6.0,
2070.0,1972.0,0.0,-6.0,
2059.0,1964.0,0.0,-6.0,
2056.0,2012.0,0.0,-6.0,
2040.0,2043.0,0.0,-6.0,
2047.0,2056.0,0.0,-6.0,
2063.0,2070.0,0.0,-6.0,
2070.0,2102.0,0.0,-6.0,
2057.0,2068.0,0.0,-6.0,
2037.0,2031.0,0.0,-6.0,
2043.0,2058.0,0.0,-6.0,
2038.0,2081.0,0.0,-6.0,
2013.0,2069.0,0.0,-6.0,
1986.0,2077.0,0.0,-6.0,
2013.0,2086.0,0.0,-6.0,
2016.0,2074.0,0.0,-6.0,
2050.0,2033.0,0.0,-6.0,
2113.0,2059.0,0.0,-6.0,
2186.0,2012.0,0,
2177.0,1927.0,-1.0,-6.0,
2120.0,1995.0,-1.0,-7.0,
2037.0,2075.0,-1.0,-7.0,
1995.0,2029.0,-1.0,-7.0,
2007.0,2039.0,-2.0,-7.0,
2018.0,1974.0,-2.0,-7.0,
2016.0,1972.0,-2.0,-8.0,
2022.0,1971.0,-3.0,-8.0,
2033.0,2047.0,-3.0,-8.0,
2029.0,2067.0,-3.0,-8.0,
2031.0,2091.0,-3.0,-8.0,
2088.0,2025.0,-4.0,-8.0,
2047.0,2017.0,-4.0,-8.0,
2052.0,2041.0,-4.0,-8.0,
2045.0,2047.0,-4.0,-8.0,
2062.0,2062.0,-5.0,-9.0,
2063.0,2110.0,-5.0,-8.0,
2069.0,2111.0,-5.0,-8.0,
2030.0,2044.0,-5.0,-8.0,
2050.0,2063.0,-5.0,-8.0,
2045.0,2006.0,-5.0,-8.0,
2038.0,1960.0,-5.0,-8.0,
2040.0,1986.0,-5.0,-8.0,
2047.0,2051.0,-5.0,-8.0,
2054.0,2052.0,-5.0,-8.0,
2035.0,2045.0,-5.0,-8.0,
2024.0,1985.0,-5.0,-8.0,
2040.0,2060.0,-5.0,-8.0,
2056.0,2056.0,-5.0,-8.0,
2075.0,2096.0,-5.0,-8.0,
2075.0,2082.0,-5.0,-7.0,
2068.0,2002.0,-4.0,-7.0,
2097.0,2112.0,-4.0,-7.0,
2073.0,2011.0,-4.0,-7.0,
2058.0,1974.0,-4.0,-7.0,
2043.0,1975.0,-4.0,-7.0,
2020.0,2008.0,-4.0,-7.0,
2018.0,2082.0,-4.0,-7.0,
2027.0,2038.0,-4.0,-7.0,
2048.0,2109.0,-4.0,-7.0,
2057.0,2068.0,-4.0,-7.0,
2044.0,2062.0,-4.0,-7.0,
2049.0,2051.0,-5.0,-8.0,
2053.0,2082.0,-5.0,-8.0,
2037.0,2110.0,-5.0,-8.0,
2053.0,1919.0,-5.0,-8.0,
2056.0,1922.0,-5.0,-8.0,
2077.0,1950.0,-5.0,-8.0,
2074.0,2033.0,-6.0,-8.0,
2051.0,2036.0,-6.0,-8.0,
2053.0,2043.0,-6.0,-8.0,
2058.0,2085.0,-6.0,-8.0,
2035.0,2058.0,-6.0,-8.0,
2039.0,2027.0,-7.0,-8.0,
2026.0,2066.0,-7.0,-8.0,
2003.0,2070.0,-7.0,-8.0,
2009.0,2051.0,-7.0,-8.0,
2082.0,2084.0,-7.0,-8.0,
2127.0,2057.0,-7.0,-8.0,
2135.0,1991.0,-7.0,-8.0,
2098.0,1973.0,-6.0,-8.0,
2052.0,1960.0,-6.0,-8.0,
1992.0,1991.0,-6.0,-8.0,
2010.0,2014.0,-7.0,-8.0,
1971.0,2010.0,-6.0,-8.0,
1975.0,2049.0,-6.0,-8.0,
2007.0,2052.0,-7.0,-9.0,
2086.0,2089.0,-7.0,-9.0,
2095.0,2092.0,-7.0,-9.0,
2076.0,2109.0,-7.0,-9.0,
2061.0,2042.0,-7.0,-9.0,
2036.0,2028.0,-7.0,-9.0,
2029.0,1994.0,-8.0,-9.0,
2029.0,1995.0,-8.0,-9.0,
2016.0,2022.0,-8.0,-9.0,
2024.0,1974.0,-9.0,-9.0,
2045.0,2042.0,-9.0,-9.0,
2052.0,2059.0,-9.0,-9.0,
2056.0,2069.0,-9.0,-9.0,
2052.0,2018.0,-10.0,-9.0,
2050.0,2014.0,-10.0,-9.0,
2052.0,2012.0,-9.0,-9.0,
2048.0,2020.0,-9.0,-9.0,
2045.0,2033.0,-9.0,-9.0,
2047.0,2064.0,-9.0,-9.0,
2075.0,2042.0,-9.0,-9.0,
2071.0,2052.0,-8.0,-9.0,
2065.0,2044.0,-8.0,-9.0,
2070.0,2066.0,-8.0,-8.0,
2042.0,2043.0,-8.0,-8.0,
2036.0,2031.0,-7.0,-8.0,
2036.0,2101.0,-8.0,-8.0,
2019.0,2092.0,-8.0,-8.0,
2013.0,2094.0,-8.0,-8.0,
2042.0,2145.0,-8.0,-8.0,
2044.0,2116.0,-9.0,-8.0,
2049.0,2124.0,-9.0,-8.0,
2056.0,2079.0,-9.0,-8.0,
2062.0,2055.0,-10.0,-8.0,
2054.0,1924.0,-10.0,-9.0,
2052.0,1852.0,-10.0,-9.0,
2044.0,1929.0,-11.0,-9.0,
2062.0,2038.0,-11.0,-9.0,
2051.0,2006.0,-11.0,-9.0,
2055.0,1999.0,-11.0,-9.0,
2058.0,1986.0,-11.0,-9.0,
2040.0,1998.0,-11.0,-9.0,
2009.0,2085.0,-12.0,-9.0,
1997.0,2134.0,-12.0,-9.0,
2024.0,2251.0,-12.0,-9.0,
2037.0,2244.0,-12.0,-10.0,
2075.0,2096.0,-12.0,-10.0,
2070.0,1968.0,-12.0,-10.0,
2090.0,1971.0,-12.0,-10.0,
2104.0,1858.0,-12.0,-10.0,
2142.0,1738.0,-12.0,-10.0,
2063.0,1846.0,-12.0,-10.0,
2076.0,1878.0,-12.0,-10.0,
2049.0,1982.0,-12.0,-10.0,
2042.0,1933.0,-12.0,-10.0,
2046.0,2036.0,0,
2034.0,2028.0,-11.0,-9.0,
2029.0,2082.0,-10.0,-9.0,
2021.0,2033.0,-10.0,-9.0,
2024.0,2085.0,-9.0,-9.0,
2036.0,2162.0,-9.0,-9.0,
2045.0,2214.0,-8.0,-9.0,
2030.0,2120.0,-8.0,-9.0,
2022.0,2075.0,-7.0,-9.0,
2012.0,2045.0,-7.0,-8.0,
2030.0,2047.0,-7.0,-8.0,
2032.0,2094.0,-7.0,-8.0,
2039.0,2063.0,-7.0,-8.0,
2050.0,2053.0,-7.0,-8.0,
2053.0,2037.0,-8.0,-8.0,
2058.0,2109.0,-8.0,-8.0,
2031.0,2060.0,-9.0,-8.0,
2034.0,2068.0,-9.0,-8.0,
2021.0,2101.0,-10.0,-8.0,
2025.0,2100.0,-10.0,-8.0,
2030.0,2001.0,-11.0,-8.0,
2033.0,1979.0,-12.0,-8.0,
2058.0,2016.0,-12.0,-8.0,
2051.0,2014.0,-13.0,-9.0,
2056.0,1998.0,-13.0,-9.0,
2077.0,1996.0,-14.0,-9.0,
2043.0,2046.0,-15.0,-9.0,
2056.0,2080.0,-15.0,-9.0,
2051.0,2092.0,-16.0,-9.0,
2063.0,2057.0,-16.0,-9.0,
2059.0,2102.0,-16.0,-9.0,
2047.0,1960.0,-16.0,-9.0,
2042.0,1913.0,-17.0,-10.0,
2017.0,2029.0,-17.0,-10.0,
2018.0,2080.0,-17.0,-10.0,
2014.0,2078.0,-17.0,-10.0,
2027.0,2146.0,-17.0,-10.0,
2050.0,2038.0,-17.0,-10.0,
2044.0,1928.0,-17.0,-10.0,
2058.0,2017.0,-16.0,-10.0,
2094.0,2067.0,-16.0,-10.0,
2087.0,2059.0,-16.0,-10.0,
2051.0,2041.0,-16.0,-10.0,
2018.0,1956.0,-16.0,-10.0,
2024.0,2019.0,-16.0,-10.0,
2031.0,2027.0,-16.0,-10.0,
2034.0,2107.0,-16.0,-10.0,
2083.0,2193.0,-16.0,-10.0,
2071.0,1991.0,-15.0,-10.0,
2082.0,2027.0,-15.0,-10.0,
2055.0,2034.0,-15.0,-10.0,
2029.0,1954.0,-15.0,-10.0,
2012.0,1909.0,-15.0,-10.0,
2025.0,2083.0,-15.0,-10.0,
2067.0,2139.0,-15.0,-10.0,
2101.0,1860.0,-14.0,-10.0,
2091.0,2012.0,-15.0,-10.0,
2075.0,1940.0,-15.0,-10.0,
2049.0,1975.0,-15.0,-10.0,
2039.0,2022.0,-15.0,-10.0,
2031.0,2075.0,-15.0,-10.0,
2000.0,2134.0,-15.0,-10.0,
2022.0,2069.0,-15.0,-10.0,
2045.0,1994.0,-15.0,-10.0,
2054.0,2061.0,-15.0,-10.0,
2067.0,2078.0,-16.0,-10.0,
2063.0,2101.0,-16.0,-10.0,
2064.0,2085.0,-16.0,-10.0,
2053.0,2014.0,-16.0,-10.0,
2043.0,2062.0,-17.0,-10.0,
2010.0,2090.0,-17.0,-10.0,
2002.0,2075.0,-18.0,-10.0,
2033.0,1970.0,-18.0,-10.0,
2042.0,1983.0,-19.0,-10.0,
2054.0,2037.0,-19.0,-10.0,
2070.0,2041.0,-20.0,-10.0,
2089.0,2001.0,-21.0,-10.0,
2058.0,1966.0,-21.0,-10.0,
2061.0,1987.0,-21.0,-10.0,
2052.0,2055.0,-22.0,-10.0,
2038.0,2054.0,-22.0,-11.0,
2030.0,2132.0,-23.0,-11.0,
2041.0,2027.0,-23.0,-11.0,
2031.0,2069.0,-24.0,-11.0,
2053.0,2093.0,-24.0,-11.0,
2079.0,2105.0,-24.0,-11.0,
2060.0,2016.0,-24.0,-11.0,
2041.0,1866.0,-25.0,-11.0,
2051.0,1943.0,-25.0,-11.0,
2038.0,2005.0,-25.0,-11.0,
2017.0,2075.0,-25.0,-11.0,
2040.0,2098.0,-25.0,-11.0,
2011.0,2179.0,-26.0,-11.0,
2047.0,2059.0,-26.0,-11.0,
2076.0,2075.0,-26.0,-11.0,
2112.0,2071.0,-26.0,-11.0,
2097.0,1968.0,-26.0,-11.0,
2080.0,2055.0,-27.0,-11.0,
2064.0,2056.0,-27.0,-11.0,
2055.0,2001.0,-27.0,-12.0,
2086.0,1933.0,-27.0,-12.0,
2065.0,1854.0,-27.0,-12.0,
2073.0,1859.0,-26.0,-13.0,
2042.0,1950.0,-26.0,-13.0,
2027.0,2005.0,-26.0,-13.0,
2010.0,2036.0,-26.0,-14.0,
2010.0,2097.0,-25.0,-14.0,
2020.0,2221.0,-25.0,-14.0,
2000.0,2111.0,-25.0,-14.0,
2022.0,2065.0,-25.0,-14.0,
2030.0,2054.0,-25.0,-14.0,
2021.0,1984.0,-25.0,-13.0,
2042.0,2017.0,-25.0,-13.0,
2042.0,1991.0,-25.0,-13.0,
2041.0,2097.0,-25.0,-13.0,
2052.0,1956.0,-25.0,-12.0,
2050.0,2016.0,-25.0,-12.0,
2044.0,1969.0,-25.0,-12.0,
2046.0,1931.0,-25.0,-12.0,
2054.0,2002.0,-24.0,-11.0,
2047.0,2030.0,-24.0,-11.0,
2038.0,2038.0,-24.0,-11.0,
2030.0,2069.0,-24.0,-11.0,
2037.0,2084.0,-24.0,-10.0,
2026.0,2117.0,-24.0,-10.0,
2034.0,2107.0,-24.0,-10.0,
2031.0,2149.0,-24.0,-10.0,
2058.0,2051.0,-24.0,-10.0,
2052.0,1997.0,-24.0,-10.0,
2074.0,1938.0,-25.0,-10.0,
2053.0,1938.0,-25.0,-10.0,
2075.0,1976.0,-26.0,-10.0,
2084.0,1972.0,-26.0,-10.0,
2073.0,2025.0,-26.0,-10.0,
2052.0,2085.0,-26.0,-10.0,
2097.0,2101.0,-26.0,-11.0,
2117.0,1984.0,-26.0,-11.0,
2121.0,2112.0,-26.0,-11.0,
2087.0,2073.0,-27.0,-10.0,
2088.0,2138.0,-26.0,-10.0,
2037.0,2133.0,-26.0,-11.0,
1950.0,2050.0,-26.0,-10.0,
1997.0,2036.0,-26.0,-10.0,
2018.0,2049.0,-26.0,-10.0,
2037.0,2064.0,0,
2043.0,1903.0,-27.0,-10.0,
2053.0,1905.0,-27.0,-11.0,
2047.0,1951.0,-27.0,-11.0,
2073.0,1959.0,-27.0,-11.0,
2059.0,2060.0,-27.0,-11.0,
2021.0,2045.0,-27.0,-11.0,
2039.0,2038.0,-27.0,-12.0,
2051.0,2080.0,-27.0,-12.0,
2065.0,2044.0,-27.0,-13.0,
2045.0,2006.0,-27.0,-13.0,
2036.0,2045.0,-27.0,-13.0,
2026.0,2161.0,-27.0,-14.0,
2032.0,2149.0,-27.0,-14.0,
2021.0,1885.0,-27.0,-14.0,
2038.0,1996.0,-27.0,-14.0,
2078.0,2138.0,-27.0,-14.0,
2058.0,2047.0,-27.0,-14.0,
2070.0,1991.0,-27.0,-14.0,
2070.0,2031.0,-27.0,-14.0,
2059.0,2011.0,-27.0,-14.0,
2052.0,2090.0,-27.0,-14.0,
2037.0,2108.0,-27.0,-14.0,
2037.0,2026.0,-26.0,-13.0,
2041.0,2093.0,-26.0,-13.0,
2041.0,1971.0,-26.0,-13.0,
2022.0,2056.0,-26.0,-12.0,
2020.0,2075.0,-26.0,-12.0,
2065.0,1940.0,-25.0,-12.0,
2072.0,1839.0,-25.0,-12.0,
2077.0,1899.0,-25.0,-12.0,
2068.0,2037.0,-25.0,-12.0,
2050.0,2015.0,-25.0,-12.0,
2041.0,2039.0,-25.0,-11.0,
2072.0,2004.0,-25.0,-11.0,
2069.0,2025.0,-25.0,-11.0,
2094.0,2122.0,-25.0,-11.0,
2039.0,2049.0,-24.0,-11.0,
2033.0,1982.0,-24.0,-11.0,
2012.0,2072.0,-24.0,-11.0,
2034.0,2066.0,-24.0,-11.0,
2045.0,2065.0,-24.0,-11.0,
2054.0,2151.0,-24.0,-11.0,
2040.0,2123.0,-24.0,-11.0,
2041.0,2124.0,-24.0,-11.0,
2052.0,2110.0,-24.0,-11.0,
2057.0,2057.0,-24.0,-11.0,
2096.0,1899.0,-24.0,-11.0,
2084.0,2002.0,-25.0,-11.0,
2060.0,2079.0,-25.0,-11.0,
2043.0,1995.0,-25.0,-11.0,
2060.0,1956.0,-25.0,-11.0,
2056.0,1962.0,-25.0,-10.0,
2075.0,2005.0,-25.0,-11.0,
2076.0,2069.0,-25.0,-10.0,
2066.0,2130.0,-25.0,-10.0,
2043.0,2122.0,-25.0,-11.0,
2024.0,2113.0,-26.0,-11.0,
1993.0,2106.0,-25.0,-11.0,
2010.0,2039.0,-25.0,-10.0,
2059.0,2012.0,-25.0,-10.0,
2079.0,2079.0,-25.0,-11.0,
2057.0,1978.0,-26.0,-11.0,
2062.0,2015.0,-26.0,-11.0,
2067.0,2134.0,-26.0,-11.0,
2041.0,1831.0,-26.0,-11.0,
2027.0,1982.0,-26.0,-11.0,
2040.0,2119.0,-27.0,-11.0,
2018.0,2032.0,-27.0,-11.0,
2037.0,2029.0,-27.0,-11.0,
2051.0,2051.0,-27.0,-11.0,
2037.0,2064.0,-28.0,-11.0,
2014.0,2152.0,-28.0,-11.0,
2030.0,2097.0,-28.0,-11.0,
2030.0,2055.0,-28.0,-11.0,
2032.0,1964.0,-28.0,-11.0,
2070.0,2031.0,-29.0,-12.0,
2063.0,2073.0,-29.0,-12.0,
2071.0,2148.0,-29.0,-12.0,
2045.0,2074.0,-30.0,-12.0,
2052.0,1959.0,-30.0,-12.0,
2050.0,1931.0,-30.0,-12.0,
2072.0,1950.0,-31.0,-12.0,
2046.0,2020.0,-31.0,-12.0,
2030.0,2116.0,-31.0,-13.0,
2037.0,2156.0,-31.0,-13.0,
2051.0,2192.0,-32.0,-13.0,
2034.0,2040.0,-32.0,-13.0,
2077.0,1896.0,-32.0,-13.0,
2119.0,1976.0,-32.0,-13.0,
2059.0,1861.0,-32.0,-14.0,
2076.0,1887.0,-32.0,-14.0,
2072.0,2067.0,-32.0,-14.0,
2052.0,2054.0,-31.0,-14.0,
2034.0,2067.0,-31.0,-14.0,
2066.0,2115.0,-31.0,-14.0,
2067.0,1994.0,-31.0,-14.0,
2068.0,2186.0,-31.0,-13.0,
2068.0,2143.0,-31.0,-13.0,
2038.0,2142.0,-31.0,-13.0,
2016.0,1943.0,-30.0,-13.0,
2038.0,1930.0,-30.0,-13.0,
2023.0,2016.0,-30.0,-12.0,
2031.0,2084.0,-30.0,-12.0,
2021.0,2097.0,-30.0,-12.0,
2034.0,2042.0,-29.0,-12.0,
2045.0,2040.0,-29.0,-11.0,
2016.0,2112.0,-29.0,-11.0,
2022.0,2161.0,-29.0,-11.0,
2022.0,2120.0,-29.0,-11.0,
2045.0,1913.0,-29.0,-11.0,
2035.0,1908.0,-29.0,-11.0,
2063.0,1899.0,-29.0,-11.0,
2081.0,1961.0,-29.0,-11.0,
2077.0,1996.0,-29.0,-11.0,
2068.0,2052.0,-29.0,-11.0,
2052.0,2022.0,-29.0,-11.0,
2044.0,2107.0,-28.0,-11.0,
2039.0,2098.0,-28.0,-11.0,
2032.0,2132.0,-28.0,-11.0,
2027.0,2087.0,-28.0,-11.0,
2009.0,2051.0,-28.0,-11.0,
2044.0,2090.0,-28.0,-11.0,
2058.0,2135.0,-28.0,-11.0,
2066.0,2029.0,-28.0,-11.0,
2068.0,1838.0,-28.0,-11.0,
2059.0,1939.0,-28.0,-12.0,
2061.0,1934.0,-28.0,-12.0,
2030.0,2025.0,-28.0,-12.0,
2026.0,2112.0,-28.0,-12.0,
2038.0,2061.0,-28.0,-12.0,
2062.0,1991.0,-28.0,-12.0,
2057.0,2011.0,-28.0,-12.0,
2079.0,1991.0,-28.0,-12.0,
2066.0,2025.0,-28.0,-12.0,
2052.0,2012.0,-28.0,-12.0,
2053.0,2099.0,-28.0,-12.0,
2043.0,2039.0,-28.0,-12.0,
2036.0,2069.0,-29.0,-12.0,
2018.0,2074.0,-29.0,-12.0,
2032.0,2067.0,-29.0,-12.0,
2034.0,2006.0,-29.0,-12.0,
2049.0,1946.0,-29.0,-13.0,
2040.0,2030.0,-29.0,-13.0,
2068.0,2055.0,-29.0,-13.0,
2055.0,1972.0,-29.0,-13.0,
2042.0,2085.0,-29.0,-13.0,
2055.0,2150.0,-30.0,-13.0,
2055.0,2095.0,-30.0,-13.0,
2049.0,1997.0,-30.0,-13.0,
2061.0,2047.0,-30.0,-13.0,
2051.0,2029.0,-30.0,-13.0,
2038.0,1959.0,-30.0,-13.0,
2029.0,2082.0,-30.0,-13.0,
2012.0,2140.0,-30.0,-13.0,
2020.0,2078.0,-30.0,-13.0,
2054.0,2034.0,-30.0,-13.0,
2087.0,2153.0,-30.0,-13.0,
2075.0,2040.0,-30.0,-13.0,
2053.0,1888.0,-30.0,-13.0,
2071.0,2138.0,-30.0,-13.0,
2049.0,1812.0,-30.0,-12.0,
2025.0,1910.0,-30.0,-12.0,
2053.0,2071.0,-30.0,-12.0,
2054.0,2126.0,-30.0,-12.0,
2040.0,2101.0,-30.0,-12.0,
2040.0,1991.0,-30.0,-12.0,
2037.0,1927.0,-30.0,-12.0,
2069.0,1960.0,-30.0,-12.0,
2060.0,2033.0,-30.0,-12.0,
2036.0,1965.0,-30.0,-12.0,
2038.0,2134.0,-30.0,-12.0,
2073.0,2098.0,-30.0,-12.0,
2045.0,2034.0,-30.0,-12.0,
2057.0,2033.0,0,
2065.0,2110.0,-30.0,-12.0,
2066.0,2007.0,-30.0,-12.0,
2083.0,2004.0,-30.0,-12.0,
2084.0,2024.0,-30.0,-12.0,
2052.0,2082.0,-30.0,-12.0,
2036.0,2007.0,-31.0,-12.0,
2036.0,2042.0,-31.0,-12.0,
2046.0,2054.0,-31.0,-12.0,
2029.0,2054.0,-31.0,-12.0,
2026.0,2091.0,-31.0,-12.0,
2039.0,2054.0,-31.0,-12.0,
2066.0,2011.0,-31.0,-12.0,
2041.0,2012.0,-31.0,-12.0,
2035.0,2068.0,-31.0,-12.0,
2036.0,2096.0,-31.0,-12.0,
2045.0,2076.0,-31.0,-12.0,
2034.0,2141.0,-31.0,-12.0,
2054.0,1994.0,-31.0,-12.0,
2070.0,2002.0,-31.0,-12.0,
2122.0,2033.0,-31.0,-12.0,
2069.0,1930.0,-31.0,-12.0,
2039.0,2039.0,-31.0,-12.0,
2021.0,2073.0,-31.0,-12.0,
2042.0,1955.0,-31.0,-12.0,
2050.0,1967.0,-31.0,-12.0,
2053.0,2095.0,-31.0,-12.0,
2040.0,2051.0,-30.0,-12.0,
2043.0,2066.0,-30.0,-12.0,
2022.0,2146.0,-30.0,-12.0,
2037.0,1924.0,-30.0,-12.0,
2004.0,2019.0,-30.0,-13.0,
2007.0,2074.0,-30.0,-13.0,
2043.0,2109.0,-30.0,-13.0,
2052.0,2167.0,-30.0,-13.0,
2088.0,2003.0,-31.0,-13.0,
2095.0,1986.0,-31.0,-13.0,
2112.0,1985.0,-31.0,-13.0,
2053.0,1871.0,-31.0,-13.0,
2054.0,1866.0,-31.0,-13.0,
2054.0,2118.0,-31.0,-13.0,
2032.0,2133.0,-31.0,-13.0,
2037.0,2200.0,-31.0,-13.0,
2033.0,2086.0,-31.0,-13.0,
2055.0,1910.0,-31.0,-12.0,
2082.0,1892.0,-31.0,-12.0,
2065.0,1988.0,-31.0,-12.0,
2063.0,2016.0,-31.0,-12.0,
2101.0,2168.0,-31.0,-12.0,
2094.0,2146.0,-31.0,-12.0,
2026.0,2153.0,-31.0,-12.0,
2005.0,2000.0,-31.0,-12.0,
2012.0,1991.0,-31.0,-12.0,
1994.0,2056.0,-31.0,-12.0,
2021.0,1995.0,-31.0,-12.0,
2055.0,2125.0,-31.0,-12.0,
2052.0,1906.0,-31.0,-12.0,
2050.0,2068.0,-31.0,-12.0,
2030.0,2045.0,-31.0,-12.0,
2065.0,1958.0,-31.0,-12.0,
2071.0,1990.0,-31.0,-12.0,
2051.0,2039.0,-31.0,-12.0,
2074.0,2062.0,-31.0,-12.0,
2074.0,1998.0,-31.0,-12.0,
2081.0,1998.0,-31.0,-12.0,
2059.0,1963.0,-31.0,-12.0,
2025.0,2156.0,-31.0,-12.0,
2026.0,2109.0,-31.0,-12.0,
2035.0,2068.0,-31.0,-13.0,
2038.0,2093.0,-31.0,-13.0,
2044.0,1931.0,-31.0,-13.0,
2075.0,1981.0,-31.0,-13.0,
2081.0,2103.0,-31.0,-13.0,
2074.0,1875.0,-31.0,-13.0,
2055.0,1986.0,-31.0,-13.0,
2027.0,2114.0,-31.0,-13.0,
2032.0,2183.0,-31.0,-13.0,
2051.0,2045.0,-30.0,-13.0,
2058.0,1993.0,-30.0,-13.0,
2065.0,1974.0,-30.0,-13.0,
2078.0,2002.0,-30.0,-12.0,
2070.0,1990.0,-30.0,-12.0,
2075.0,2044.0,-30.0,-12.0,
2024.0,2103.0,-30.0,-12.0,
2027.0,2096.0,-30.0,-12.0,
2058.0,2000.0,-30.0,-12.0,
2045.0,2038.0,-30.0,-12.0,
2068.0,2087.0,-30.0,-12.0,
2073.0,1958.0,-30.0,-12.0,
2049.0,1992.0,-30.0,-12.0,
2035.0,2043.0,-30.0,-12.0,
2034.0,2141.0,-30.0,-12.0,
2067.0,2081.0,-30.0,-12.0,
2044.0,2121.0,-30.0,-12.0,
2055.0,2106.0,-30.0,-12.0,
2071.0,2024.0,-30.0,-12.0,
2056.0,1968.0,-31.0,-12.0,
2073.0,1894.0,-31.0,-12.0,
2052.0,1955.0,-31.0,-12.0,
2036.0,1999.0,-31.0,-12.0,
2017.0,2024.0,-31.0,-12.0,
2010.0,2099.0,-31.0,-12.0,
2016.0,2099.0,-31.0,-12.0,
2045.0,2031.0,-31.0,-12.0,
2065.0,2036.0,-32.0,-12.0,
2062.0,2052.0,-32.0,-12.0,
2074.0,2083.0,-32.0,-12.0,
2058.0,2041.0,-32.0,-12.0,
1996.0,2112.0,-32.0,-13.0,
2053.0,2160.0,-32.0,-13.0,
2030.0,1803.0,-32.0,-13.0,
2044.0,1982.0,-32.0,-13.0,
2043.0,2083.0,-32.0,-13.0,
2043.0,2026.0,-32.0,-13.0,
2057.0,1959.0,-32.0,-13.0,
2059.0,1982.0,-32.0,-13.0,
2065.0,2054.0,-32.0,-13.0,
2064.0,1940.0,-32.0,-13.0,
2070.0,2135.0,-32.0,-13.0,
2037.0,2181.0,-32.0,-13.0,
2025.0,2137.0,-32.0,-13.0,
2038.0,2173.0,-32.0,-13.0,
2071.0,1877.0,-32.0,-13.0,
2062.0,1963.0,-32.0,-13.0,
2060.0,2042.0,-32.0,-13.0,
2080.0,2067.0,-32.0,-13.0,
2081.0,2040.0,-32.0,-13.0,
2061.0,2108.0,-32.0,-13.0,
2039.0,2047.0,-32.0,-13.0,
2026.0,1974.0,-32.0,-13.0,
2021.0,2098.0,-32.0,-13.0,
2049.0,2062.0,-32.0,-13.0,
2043.0,2112.0,-32.0,-12.0,
2064.0,2042.0,-32.0,-12.0,
2044.0,2052.0,-32.0,-12.0,
2037.0,2109.0,-31.0,-12.0,
2029.0,2028.0,-31.0,-12.0,
2042.0,2076.0,-31.0,-12.0,
2027.0,2084.0,-31.0,-12.0,
2031.0,2013.0,-31.0,-12.0,
2043.0,1882.0,-31.0,-12.0,
2052.0,2020.0,-31.0,-12.0,
2029.0,2033.0,-31.0,-12.0,
2037.0,1997.0,-31.0,-12.0,
2096.0,2082.0,-31.0,-12.0,
2080.0,1912.0,-31.0,-12.0,
2072.0,1929.0,-31.0,-12.0,
2012.0,1951.0,-31.0,-12.0,
2002.0,1981.0,-31.0,-12.0,
2000.0,1978.0,-31.0,-12.0,
2005.0,2018.0,-31.0,-12.0,
2022.0,2088.0,-31.0,-12.0,
2019.0,2169.0,-31.0,-12.0,
2028.0,2008.0,-31.0,-12.0,
2023.0,1992.0,-31.0,-12.0,
2075.0,2191.0,-31.0,-12.0,
2076.0,2104.0,-31.0,-12.0,
2071.0,2039.0,-31.0,-12.0,
2067.0,2092.0,-32.0,-12.0,
2068.0,2067.0,-32.0,-12.0,
2043.0,2095.0,-32.0,-12.0,
2041.0,2161.0,-32.0,-12.0,
2043.0,2025.0,-32.0,-13.0,
2046.0,2046.0,-32.0,-13.0,
2050.0,2024.0,-32.0,-13.0,
2098.0,1969.0,0,
2076.0,1993.0,-32.0,-13.0,
2069.0,2000.0,-32.0,-13.0,
2062.0,1976.0,-32.0,-13.0,
2061.0,2033.0,-32.0,-13.0,
2057.0,2142.0,-32.0,-13.0,
2040.0,2131.0,-32.0,-13.0,
2036.0,2151.0,-32.0,-13.0,
2043.0,1954.0,-32.0,-13.0,
2061.0,1894.0,-32.0,-13.0,
2067.0,2119.0,-32.0,-13.0,
2055.0,1945.0,-32.0,-13.0,
2068.0,1964.0,-32.0,-13.0,
2039.0,2037.0,-32.0,-13.0,
2025.0,2052.0,-32.0,-13.0,
1996.0,2053.0,-31.0,-13.0,
2020.0,2073.0,-31.0,-12.0,
2033.0,2062.0,-31.0,-12.0,
2039.0,2040.0,-31.0,-12.0,
2048.0,1954.0,-31.0,-12.0,
2102.0,1991.0,-31.0,-12.0,
2092.0,2081.0,-31.0,-12.0,
2053.0,2025.0,-31.0,-12.0,
2038.0,1855.0,-31.0,-12.0,
2042.0,1950.0,-31.0,-12.0,
2029.0,2094.0,-31.0,-12.0,
2019.0,2067.0,-31.0,-12.0,
2032.0,2040.0,-31.0,-12.0,
2079.0,2063.0,-31.0,-12.0,
2060.0,2157.0,-31.0,-12.0,
2032.0,2014.0,-32.0,-12.0,
2028.0,1955.0,-32.0,-12.0,
2034.0,2071.0,-32.0,-12.0,
2005.0,2099.0,-32.0,-12.0,
2024.0,2210.0,-32.0,-12.0,
2111.0,2109.0,-32.0,-12.0,
2135.0,2126.0,-31.0,-12.0,
2096.0,1944.0,-31.0,-12.0,
2039.0,1970.0,-31.0,-12.0,
2018.0,1930.0,-31.0,-12.0,
1987.0,1971.0,-31.0,-12.0,
1994.0,2070.0,-31.0,-12.0,
2010.0,2080.0,-31.0,-13.0,
2008.0,1975.0,-31.0,-13.0,
2033.0,1921.0,-32.0,-13.0,
2051.0,1976.0,-32.0,-13.0,
2058.0,2110.0,-32.0,-13.0,
2025.0,2183.0,-32.0,-13.0,
2014.0,2015.0,-32.0,-13.0,
2039.0,2088.0,-33.0,-13.0,
2085.0,2021.0,-33.0,-13.0,
2096.0,1995.0,-33.0,-13.0,
2096.0,2017.0,-33.0,-13.0,
2074.0,1983.0,-33.0,-13.0,
2056.0,2042.0,-33.0,-13.0,
2067.0,2017.0,-33.0,-13.0,
2060.0,1961.0,-33.0,-13.0,
2054.0,2067.0,-33.0,-13.0,
2035.0,2086.0,-33.0,-13.0,
2047.0,2094.0,-32.0,-13.0,
2034.0,2115.0,-32.0,-13.0,
2052.0,2116.0,-32.0,-13.0,
2060.0,2059.0,-32.0,-13.0,
2040.0,2040.0,-32.0,-13.0,
2019.0,2018.0,-32.0,-13.0,
2014.0,1984.0,-32.0,-13.0,
2030.0,1837.0,-33.0,-13.0,
2050.0,2040.0,-33.0,-13.0,
2073.0,2106.0,-33.0,-13.0,
2061.0,2083.0,-33.0,-13.0,
2085.0,2052.0,-33.0,-13.0,
2063.0,1958.0,-34.0,-13.0,
2075.0,2028.0,-34.0,-13.0,
2065.0,1835.0,-34.0,-13.0,
2034.0,1978.0,-34.0,-13.0,
2034.0,1968.0,-33.0,-13.0,
2061.0,2014.0,-33.0,-13.0,
2054.0,2074.0,-33.0,-13.0,
2077.0,2080.0,-33.0,-13.0,
2082.0,2084.0,-33.0,-13.0,
2088.0,2023.0,-32.0,-12.0,
2095.0,2006.0,-32.0,-12.0,
2176.0,2067.0,-32.0,-12.0,
2095.0,2205.0,-32.0,-12.0,
1973.0,2214.0,-32.0,-12.0,
1903.0,2104.0,-32.0,-12.0,
1929.0,2063.0,-32.0,-12.0,
1997.0,1959.0,-32.0,-12.0,
1982.0,1964.0,-32.0,-12.0,
2039.0,1978.0,-32.0,-12.0,
2043.0,2022.0,-32.0,-12.0,
2029.0,1951.0,-32.0,-12.0,
2051.0,1982.0,-32.0,-12.0,
2058.0,2068.0,-32.0,-12.0,
2072.0,2013.0,-32.0,-12.0,
2071.0,2108.0,-32.0,-12.0,
2107.0,2073.0,-32.0,-12.0,
2094.0,2005.0,-32.0,-12.0,
2069.0,2031.0,-32.0,-12.0,
2042.0,2130.0,-32.0,-12.0,
2037.0,2001.0,-32.0,-12.0,
1963.0,2056.0,-32.0,-12.0,
1984.0,2050.0,-32.0,-12.0,
2014.0,2110.0,-32.0,-12.0,
2001.0,2120.0,-32.0,-12.0,
2044.0,2065.0,-32.0,-12.0,
2046.0,1947.0,-31.0,-12.0,
2071.0,1994.0,-31.0,-12.0,
2068.0,1978.0,-31.0,-12.0,
2064.0,1946.0,-31.0,-12.0,
2049.0,2053.0,-31.0,-12.0,
2066.0,2063.0,-31.0,-12.0,
2065.0,2039.0,-31.0,-12.0,
2077.0,2009.0,-30.0,-12.0,
2073.0,1993.0,-30.0,-12.0,
2047.0,2013.0,-30.0,-12.0,
2059.0,2088.0,-30.0,-13.0,
2115.0,2047.0,-30.0,-13.0,
2108.0,2102.0,-30.0,-13.0,
2046.0,2113.0,-30.0,-13.0,
1996.0,2094.0,-31.0,-13.0,
2014.0,2071.0,-31.0,-13.0,
2021.0,2068.0,-31.0,-13.0,
2087.0,1991.0,0,
2058.0,2031.0,-31.0,-13.0,
2030.0,1965.0,-31.0,-13.0,
2016.0,1945.0,-32.0,-13.0,
2012.0,2013.0,-32.0,-13.0,
2007.0,2023.0,-32.0,-13.0,
2060.0,2029.0,-32.0,-13.0,
2062.0,1987.0,-32.0,-13.0,
2076.0,1948.0,-32.0,-13.0,
2065.0,2066.0,-32.0,-13.0,
2015.0,2065.0,-33.0,-13.0,
2039.0,2078.0,-33.0,-13.0,
2058.0,2090.0,-33.0,-13.0,
2057.0,2027.0,-33.0,-13.0,
2049.0,2038.0,-33.0,-13.0,
2069.0,2059.0,-33.0,-13.0,
2081.0,2091.0,-33.0,-13.0,
2071.0,2109.0,-33.0,-13.0,
2232.0,2086.0,-33.0,-13.0,
2188.0,2075.0,-33.0,-13.0,
2082.0,1974.0,-33.0,-13.0,
1971.0,1942.0,-33.0,-13.0,
1926.0,2096.0,-33.0,-13.0,
1954.0,2019.0,-33.0,-13.0,
1994.0,1983.0,-32.0,-13.0,
1997.0,1958.0,-32.0,-13.0,
2029.0,2021.0,-32.0,-13.0,
1990.0,2052.0,-32.0,-13.0,
2048.0,2080.0,-32.0,-13.0,
2045.0,2025.0,-32.0,-13.0,
2035.0,2114.0,-32.0,-13.0,
2017.0,2125.0,-32.0,-13.0,
2034.0,2052.0,-32.0,-13.0,
2088.0,2050.0,-32.0,-13.0,
2086.0,1996.0,-31.0,-13.0,
2065.0,2024.0,-31.0,-13.0,
2103.0,2012.0,-31.0,-13.0,
2111.0,2016.0,-31.0,-13.0,
2085.0,2112.0,-30.0,-13.0,
2038.0,2077.0,-30.0,-13.0,
2013.0,2096.0,-30.0,-13.0,
1993.0,2066.0,-30.0,-13.0,
2015.0,2010.0,-29.0,-13.0,
2041.0,2021.0,-29.0,-13.0,
2054.0,1970.0,-29.0,-13.0,
2031.0,2000.0,-29.0,-13.0,
2029.0,2084.0,-29.0,-13.0,
2006.0,2100.0,-29.0,-13.0,
2038.0,2101.0,-29.0,-13.0,
2055.0,1999.0,-29.0,-13.0,
2082.0,1908.0,-29.0,-13.0,
2122.0,1896.0,-29.0,-13.0,
2097.0,1928.0,-29.0,-13.0,
2064.0,2038.0,-29.0,-13.0,
2044.0,2086.0,-29.0,-13.0,
2058.0,2093.0,-29.0,-13.0,
2068.0,2056.0,-29.0,-13.0,
2016.0,2074.0,-29.0,-13.0,
1982.0,2050.0,-29.0,-13.0,
2074.0,2055.0,-29.0,-13.0,
2079.0,1996.0,-29.0,-13.0,
2013.0,1954.0,-29.0,-13.0,
2039.0,2028.0,-29.0,-13.0,
2027.0,2057.0,-29.0,-13.0,
2020.0,2086.0,-29.0,-13.0,
2052.0,2129.0,-29.0,-13.0,
2028.0,2079.0,-29.0,-13.0,
2057.0,1993.0,-29.0,-13.0,
2041.0,2019.0,-30.0,-13.0,
2058.0,2098.0,-30.0,-13.0,
2046.0,1966.0,-30.0,-13.0,
2027.0,1973.0,-30.0,-13.0,
2060.0,2009.0,-30.0,-13.0,
2070.0,2033.0,-30.0,-13.0,
2052.0,2021.0,-29.0,-13.0,
2052.0,2082.0,-29.0,-13.0,
2057.0,2074.0,-29.0,-13.0,
2052.0,2034.0,-29.0,-13.0,
2040.0,2030.0,-29.0,-13.0,
2064.0,2016.0,-29.0,-13.0,
2158.0,2047.0,-29.0,-13.0,
2221.0,2085.0,-28.0,-13.0,
2083.0,2126.0,-28.0,-13.0,
1962.0,2162.0,-28.0,-13.0,
1897.0,2197.0,-27.0,-13.0,
1957.0,2076.0,-27.0,-13.0,
2004.0,1880.0,-27.0,-13.0,
2068.0,1882.0,-26.0,-13.0,
2043.0,1885.0,-26.0,-13.0,
2028.0,1981.0,-26.0,-12.0,
2042.0,2046.0,-25.0,-12.0,
2059.0,2092.0,-25.0,-12.0,
2072.0,2030.0,-25.0,-12.0,
2083.0,2114.0,-24.0,-12.0,
2094.0,2047.0,-24.0,-12.0,
2120.0,1953.0,-24.0,-12.0,
2127.0,2017.0,-24.0,-12.0,
2144.0,2029.0,-23.0,-12.0,
2094.0,2072.0,-23.0,-12.0,
2065.0,2037.0,-23.0,-12.0,
2006.0,2017.0,-23.0,-12.0,
1969.0,2044.0,-23.0,-12.0,
1994.0,2085.0,-23.0,-12.0,
1965.0,2071.0,-22.0,-12.0,
1936.0,2062.0,-22.0,-12.0,
1988.0,2065.0,-22.0,-12.0,
2018.0,2139.0,-22.0,-12.0,
2012.0,2052.0,-22.0,-12.0,
2004.0,2031.0,-22.0,-12.0,
2014.0,2057.0,-22.0,-12.0,
2038.0,1941.0,-23.0,-12.0,
2055.0,1905.0,-23.0,-12.0,
2160.0,2001.0,-23.0,-12.0,
2197.0,2038.0,-23.0,-12.0,
2129.0,2019.0,-23.0,-12.0,
2058.0,1998.0,-23.0,-12.0,
2016.0,2022.0,-23.0,-12.0,
1990.0,2092.0,-24.0,-12.0,
1991.0,2075.0,-24.0,-12.0,
2002.0,2065.0,-24.0,-12.0,
1973.0,2085.0,-24.0,-12.0,
2002.0,2139.0,-24.0,-12.0,
2038.0,2078.0,-24.0,-12.0,
2085.0,2078.0,-25.0,-12.0,
2091.0,2021.0,-25.0,-12.0,
2187.0,1973.0,-25.0,-12.0,
2141.0,2013.0,-25.0,-12.0,
2028.0,2053.0,-25.0,-12.0,
1970.0,2097.0,-25.0,-12.0,
1939.0,2111.0,-25.0,-12.0,
2019.0,2076.0,-25.0,-12.0,
2039.0,2023.0,-25.0,-12.0,
2072.0,1896.0,-25.0,-12.0,
2063.0,1909.0,-25.0,-12.0,
2060.0,1970.0,-25.0,-12.0,
2059.0,2022.0,-25.0,-12.0,
2072.0,2057.0,-25.0,-12.0,
2085.0,2043.0,-25.0,-12.0,
2052.0,2089.0,-24.0,-12.0,
2064.0,2096.0,-24.0,-12.0,
2065.0,2077.0,-24.0,-12.0,
2071.0,2033.0,-24.0,-12.0,
2068.0,1933.0,-23.0,-12.0,
2065.0,1996.0,-23.0,-12.0,
2064.0,2060.0,-23.0,-12.0,
2055.0,2072.0,-23.0,-12.0,
2068.0,2038.0,-22.0,-12.0,
2081.0,2037.0,-22.0,-12.0,
2072.0,2084.0,-22.0,-11.0,
2053.0,2097.0,-22.0,-11.0,
2053.0,2075.0,-21.0,-11.0,
2074.0,2092.0,-21.0,-11.0,
2044.0,1975.0,-21.0,-11.0,
2004.0,2005.0,-20.0,-11.0,
2028.0,1955.0,-20.0,-11.0,
2061.0,1961.0,-20.0,-11.0,
2031.0,2013.0,-19.0,-11.0,
2032.0,2087.0,-19.0,-11.0,
2119.0,2095.0,-19.0,-11.0,
2323.0,2073.0,-18.0,-11.0,
2298.0,2072.0,-18.0,-10.0,
2071.0,2028.0,-17.0,-10.0,
1897.0,1986.0,-17.0,-10.0,
1860.0,1954.0,-17.0,-10.0,
1937.0,1998.0,-17.0,-10.0,
2105.0,1995.0,-16.0,-10.0,
2083.0,2016.0,-16.0,-11.0,
2012.0,2014.0,-16.0,-11.0,
1966.0,2052.0,-16.0,-11.0,
1903.0,2098.0,-16.0,-10.0,
1957.0,2109.0,-16.0,-11.0,
1970.0,2079.0,-17.0,-11.0,
1923.0,2086.0,-17.0,-11.0,
1962.0,2045.0,-17.0,-11.0,
1962.0,1965.0,-17.0,-11.0,
2027.0,2048.0,-17.0,-11.0,
2061.0,1994.0,-18.0,-11.0,
2074.0,1956.0,-18.0,-11.0,
2122.0,2061.0,-18.0,-11.0,
2109.0,2120.0,-19.0,-11.0,
2093.0,2096.0,-19.0,-11.0,
2095.0,2033.0,-19.0,-12.0,
2088.0,2036.0,-19.0,-12.0,
2097.0,2045.0,-19.0,-12.0,
2093.0,2009.0,-20.0,-12.0,
2098.0,2031.0,-20.0,-12.0,
2088.0,2032.0,-20.0,-12.0,
2090.0,2044.0,-20.0,-12.0,
2074.0,1944.0,-20.0,-12.0,
2072.0,1953.0,-20.0,-12.0,
2078.0,1984.0,-20.0,-12.0,
2063.0,2064.0,-20.0,-12.0,
2073.0,2057.0,-20.0,-12.0,
2067.0,2055.0,-20.0,-12.0,
2061.0,2077.0,-20.0,-12.0,
2079.0,2046.0,-19.0,-12.0,
2059.0,2146.0,-19.0,-12.0,
2059.0,2065.0,-19.0,-11.0,
2092.0,2071.0,-19.0,-11.0,
2077.0,2071.0,-18.0,-11.0,
2051.0,2075.0,-18.0,-11.0,
2046.0,2063.0,-18.0,-11.0,
2025.0,1971.0,-17.0,-11.0,
2045.0,1913.0,-17.0,-11.0,
2021.0,1975.0,-17.0,-11.0,
1993.0,2014.0,-17.0,-11.0,
1977.0,2079.0,-16.0,-11.0,
2045.0,2042.0,-16.0,-11.0,
2223.0,2055.0,-16.0,-11.0,
2166.0,2027.0,-15.0,-11.0,
2110.0,2013.0,-15.0,-11.0,
1944.0,2029.0,-15.0,-11.0,
1878.0,2115.0,-15.0,-11.0,
1895.0,2126.0,-15.0,-10.0,
1926.0,2164.0,-14.0,-10.0,
2011.0,2060.0,-14.0,-10.0,
2045.0,1912.0,-14.0,-10.0,
2074.0,2033.0,-14.0,-10.0,
2047.0,2009.0,-14.0,-11.0,
2040.0,2012.0,-14.0,-10.0,
2034.0,2021.0,-14.0,-10.0,
2039.0,2029.0,-14.0,-10.0,
2045.0,2045.0,-13.0,-10.0,
2037.0,1982.0,-13.0,-10.0,
2002.0,1952.0,-13.0,-10.0,
2113.0,2023.0,-13.0,-10.0,
2092.0,2091.0,-13.0,-10.0,
2083.0,2068.0,-13.0,-10.0,
2026.0,2085.0,-13.0,-10.0,
2023.0,2084.0,-13.0,-10.0,
2035.0,2007.0,-13.0,-10.0,
2034.0,2012.0,-13.0,-10.0,
1992.0,1997.0,-13.0,-10.0,
2014.0,1988.0,-13.0,-10.0,
2045.0,2059.0,-13.0,-10.0,
2058.0,2089.0,-13.0,-10.0,
2057.0,2055.0,-13.0,-10.0,
2070.0,2034.0,-13.0,-10.0,
2061.0,2044.0,-13.0,-10.0,
2066.0,2037.0,-13.0,-10.0,
2096.0,2032.0,-12.0,-10.0,
2087.0,2035.0,-12.0,-10.0,
2134.0,2035.0,-12.0,-9.0,
2127.0,2104.0,-12.0,-9.0,
2090.0,2057.0,-11.0,-9.0,
2032.0,2038.0,-11.0,-9.0,
2026.0,2212.0,-11.0,-9.0,
2009.0,2115.0,-11.0,-9.0,
2067.0,2136.0,-10.0,-9.0,
2057.0,2041.0,0,
2034.0,1883.0,-10.0,-9.0,
2082.0,2016.0,-10.0,-9.0,
2054.0,1973.0,-10.0,-9.0,
2048.0,1979.0,-10.0,-9.0,
2082.0,1991.0,-9.0,-9.0,
2060.0,2011.0,-9.0,-9.0,
2101.0,2067.0,-9.0,-9.0,
2261.0,2112.0,-9.0,-9.0,
2222.0,2098.0,-9.0,-9.0,
2050.0,2044.0,-9.0,-9.0,
1923.0,2019.0,-9.0,-9.0,
1867.0,2012.0,-9.0,-9.0,
1903.0,2061.0,-8.0,-9.0,
1950.0,2025.0,-8.0,-8.0,
1970.0,2028.0,-8.0,-8.0,
1978.0,2018.0,-8.0,-8.0,
1999.0,1980.0,-8.0,-8.0,
2045.0,1980.0,-8.0,-8.0,
2070.0,2046.0,-8.0,-7.0,
2036.0,2096.0,-8.0,-7.0,
2014.0,2097.0,-7.0,-7.0,
2020.0,2075.0,-7.0,-7.0,
2062.0,2091.0,-7.0,-7.0,
2072.0,2089.0,-7.0,-7.0,
2082.0,2087.0,-7.0,-7.0,
2094.0,2002.0,-7.0,-7.0,
2105.0,2008.0,-7.0,-7.0,
2096.0,2036.0,-7.0,-7.0,
2072.0,2002.0,-6.0,-7.0,
2057.0,2044.0,-6.0,-7.0,
2044.0,2087.0,-6.0,-7.0,
2036.0,2061.0,-6.0,-7.0,
2054.0,2067.0,-5.0,-8.0,
2057.0,2055.0,-5.0,-8.0,
2053.0,2082.0,-5.0,-8.0,
2069.0,2073.0,-5.0,-8.0,
2056.0,2065.0,-4.0,-8.0,
2046.0,2063.0,-4.0,-8.0,
2021.0,2020.0,-4.0,-8.0,
2015.0,2042.0,-4.0,-8.0,
2069.0,2125.0,-4.0,-8.0,
2088.0,2088.0,-3.0,-8.0,
2080.0,2108.0,-3.0,-8.0,
2079.0,2043.0,-3.0,-8.0,
2051.0,2058.0,-3.0,-8.0,
2042.0,2100.0,-3.0,-8.0,
2040.0,2002.0,-3.0,-8.0,
2044.0,1939.0,-3.0,-8.0,
2027.0,1941.0,-3.0,-8.0,
2019.0,2024.0,-3.0,-7.0,
2075.0,2049.0,-3.0,-7.0,
2140.0,1956.0,-3.0,-7.0,
2101.0,1946.0,-3.0,-7.0,
2073.0,2073.0,-3.0,-7.0,
2008.0,2098.0,-3.0,-7.0,
1985.0,2071.0,-3.0,-7.0,
1981.0,2103.0,-3.0,-7.0,
2006.0,2089.0,-3.0,-7.0,
2006.0,2081.0,-3.0,-7.0,
2010.0,2085.0,-3.0,-7.0,
2053.0,2051.0,-3.0,-7.0,
2074.0,1890.0,-3.0,-7.0,
2073.0,1981.0,-3.0,-7.0,
2071.0,2044.0,-3.0,-7.0,
2054.0,2038.0,-3.0,-7.0,
2047.0,1963.0,-3.0,-7.0,
2026.0,2007.0,-2.0,-7.0,
2068.0,2037.0,-2.0,-7.0,
2042.0,2080.0,-2.0,-7.0,
2107.0,2066.0,-2.0,-7.0,
2049.0,2087.0,-1.0,-7.0,
2047.0,2041.0,-1.0,-7.0,
2047.0,2053.0,-1.0,-7.0,
2063.0,1986.0,0.0,-7.0,
2049.0,1992.0,0.0,-7.0,
2054.0,2039.0,0.0,-7.0,
2037.0,2087.0,0.0,-7.0,
2029.0,2071.0,0.0,-7.0,
2052.0,2062.0,0.0,-7.0,
2194.0,2041.0,1.0,-7.0,
2202.0,2005.0,1.0,-7.0,
2101.0,2051.0,1.0,-7.0,
2010.0,2045.0,2.0,-7.0,
1941.0,2052.0,2.0,-6.0,
1923.0,2056.0,2.0,-6.0,
1952.0,2061.0,3.0,-6.0,
1950.0,2072.0,3.0,-6.0,
1991.0,2082.0,3.0,-5.0,
2033.0,2066.0,3.0,-5.0,
2028.0,2054.0,3.0,-5.0,
2027.0,2103.0,3.0,-4.0,
2045.0,2008.0,3.0,-4.0,
2067.0,2000.0,3.0,-4.0,
2060.0,2048.0,3.0,-4.0,
2070.0,2061.0,3.0,-5.0,
2097.0,2089.0,3.0,-5.0,
2084.0,2075.0,2.0,-5.0,
2090.0,1965.0,2.0,-5.0,
2091.0,1998.0,2.0,-6.0,
2082.0,2025.0,2.0,-6.0,
2051.0,1973.0,1.0,-6.0,
2051.0,2061.0,1.0,-6.0,
2073.0,2027.0,1.0,-7.0,
2010.0,2044.0,0.0,-7.0,
2047.0,2070.0,0.0,-7.0,
2068.0,2060.0,0.0,-7.0,
2115.0,2078.0,0.0,-7.0,
2118.0,2068.0,0.0,-8.0,
2076.0,1976.0,0.0,-8.0,
2050.0,2027.0,0.0,-8.0,
1996.0,2024.0,0.0,-8.0,
1976.0,2090.0,0.0,-8.0,
1993.0,2117.0,0.0,-8.0,
2016.0,2137.0,0.0,-8.0,
2030.0,2085.0,0.0,-8.0,
2055.0,2016.0,0.0,-8.0,
2053.0,1919.0,1.0,-8.0,
2039.0,1991.0,1.0,-8.0,
2036.0,1976.0,2.0,-8.0,
2035.0,2044.0,2.0,-8.0,
2034.0,2040.0,2.0,-8.0,
2055.0,2071.0,3.0,-8.0,
2046.0,2119.0,3.0,-8.0,
2069.0,2088.0,3.0,-7.0,
2056.0,2084.0,3.0,-7.0,
2060.0,2054.0,4.0,-7.0,
2056.0,1984.0,4.0,-7.0,
2044.0,1940.0,4.0,-7.0,
2038.0,1934.0,4.0,-7.0,
2031.0,1949.0,4.0,-7.0,
2035.0,2030.0,4.0,-7.0,
2047.0,2089.0,4.0,-7.0,
2048.0,2089.0,4.0,-7.0,
2046.0,2067.0,4.0,-7.0,
2071.0,2029.0,4.0,-7.0,
2077.0,1936.0,4.0,-8.0,
2054.0,1949.0,4.0,-8.0,
2041.0,2023.0,4.0,-8.0,
2051.0,2045.0,4.0,-8.0,
2045.0,2058.0,4.0,-8.0,
2029.0,2057.0,3.0,-8.0,
2040.0,2078.0,3.0,-8.0,
2055.0,2075.0,3.0,-8.0,
2051.0,2081.0,3.0,-8.0,
2057.0,2067.0,3.0,-8.0,
2059.0,2083.0,3.0,-8.0,
2046.0,2068.0,3.0,-8.0,
2048.0,2086.0,3.0,-8.0,
2044.0,2098.0,3.0,-8.0,
2046.0,2085.0,3.0,-8.0,
2053.0,1996.0,3.0,-8.0,
2055.0,2040.0,3.0,-8.0,
2055.0,2041.0,3.0,-7.0,
2049.0,1995.0,3.0,-7.0,
2048.0,2068.0,4.0,-7.0,
2032.0,2058.0,4.0,-7.0,
2017.0,2067.0,4.0,-7.0,
2032.0,2085.0,4.0,-7.0,
2052.0,2071.0,4.0,-7.0,
2060.0,2083.0,5.0,-7.0,
2078.0,2021.0,5.0,-6.0,
2066.0,2018.0,5.0,-6.0,
2061.0,2050.0,0,
2059.0,2018.0,5.0,-6.0,
2060.0,2055.0,5.0,-6.0,
2063.0,2044.0,5.0,-6.0,
2044.0,2059.0,5.0,-6.0,
2053.0,2074.0,5.0,-6.0,
2040.0,1973.0,5.0,-6.0,
2046.0,1996.0,5.0,-6.0,
2063.0,2024.0,6.0,-6.0,
2073.0,2067.0,6.0,-6.0,
2057.0,2043.0,6.0,-6.0,
2044.0,1976.0,6.0,-6.0,
2038.0,2034.0,7.0,-6.0,
2038.0,2026.0,7.0,-6.0,
2048.0,2026.0,7.0,-6.0,
2059.0,2096.0,7.0,-7.0,
2072.0,2043.0,8.0,-7.0,
2072.0,2047.0,8.0,-7.0,
2068.0,2036.0,8.0,-7.0,
2061.0,1912.0,8.0,-7.0,
2041.0,2010.0,9.0,-7.0,
2036.0,2077.0,9.0,-7.0,
2040.0,2100.0,9.0,-7.0,
2049.0,2098.0,9.0,-7.0,
2052.0,2045.0,9.0,-7.0,
2070.0,1968.0,9.0,-7.0,
2053.0,2041.0,9.0,-7.0,
2053.0,2052.0,9.0,-7.0,
2048.0,1967.0,9.0,-7.0,
2043.0,2031.0,9.0,-7.0,
2039.0,2040.0,9.0,-7.0,
2034.0,2069.0,9.0,-7.0,
2034.0,2064.0,9.0,-7.0,
2035.0,2012.0,9.0,-7.0,
2051.0,2034.0,9.0,-7.0,
2058.0,2067.0,9.0,-7.0,
2064.0,2052.0,9.0,-7.0,
2053.0,2027.0,9.0,-7.0,
2034.0,2065.0,9.0,-7.0,
2031.0,2073.0,9.0,-7.0,
2042.0,2094.0,9.0,-8.0,
2050.0,2083.0,9.0,-8.0,
2059.0,2019.0,9.0,-8.0,
2056.0,1979.0,9.0,-8.0,
2059.0,2024.0,9.0,-8.0,
2047.0,2009.0,9.0,-8.0,
2041.0,2027.0,9.0,-8.0,
2046.0,2023.0,9.0,-8.0,
2023.0,2020.0,9.0,-7.0,
2038.0,2059.0,9.0,-7.0,
2035.0,2046.0,9.0,-7.0,
2047.0,2040.0,9.0,-7.0,
2057.0,2030.0,9.0,-7.0,
2056.0,2049.0,10.0,-7.0,
2070.0,2026.0,10.0,-7.0,
2060.0,2031.0,10.0,-7.0,
2039.0,2056.0,10.0,-7.0,
2043.0,2061.0,10.0,-7.0,
2046.0,2050.0,10.0,-7.0,
2055.0,2020.0,10.0,-7.0,
2057.0,2044.0,10.0,-7.0,
2054.0,2050.0,10.0,-7.0,
2070.0,2042.0,10.0,-7.0,
2056.0,2046.0,10.0,-7.0,
2053.0,2032.0,10.0,-7.0,
2041.0,2037.0,10.0,-7.0,
2018.0,2051.0,10.0,-7.0,
2020.0,2059.0,10.0,-7.0,
2043.0,2059.0,10.0,-7.0,
2056.0,2071.0,10.0,-7.0,
2046.0,2040.0,10.0,-7.0,
2062.0,2060.0,10.0,-7.0,
2064.0,2048.0,10.0,-7.0,
2050.0,2013.0,10.0,-7.0,
2042.0,2008.0,10.0,-7.0,
2051.0,2028.0,10.0,-6.0,
2043.0,2056.0,10.0,-6.0,
2053.0,2047.0,10.0,-6.0,
2058.0,2090.0,10.0,-6.0,
2059.0,2063.0,10.0,-6.0,
2058.0,2041.0,10.0,-6.0,
2049.0,2036.0,10.0,-6.0,
2048.0,2009.0,10.0,-6.0,
2039.0,2046.0,10.0,-6.0,
2034.0,2044.0,10.0,-6.0,
2044.0,2040.0,10.0,-6.0,
2042.0,2024.0,10.0,-6.0,
2053.0,2011.0,10.0,-6.0,
2062.0,2021.0,10.0,-6.0,
2062.0,2025.0,10.0,-6.0,
2057.0,2046.0,10.0,-6.0,
2065.0,2078.0,10.0,-6.0,
2053.0,2036.0,10.0,-6.0,
2042.0,2061.0,10.0,-6.0,
2040.0,2054.0,9.0,-7.0,
2044.0,2058.0,9.0,-7.0,
2058.0,2044.0,9.0,-7.0,
2048.0,2034.0,9.0,-7.0,
2052.0,2049.0,9.0,-7.0,
2063.0,2054.0,9.0,-7.0,
2058.0,1992.0,9.0,-7.0,
2053.0,2026.0,8.0,-7.0,
2058.0,2082.0,8.0,-7.0,
2051.0,2076.0,8.0,-7.0,
2045.0,2063.0,8.0,-7.0,
2042.0,2017.0,8.0,-8.0,
2047.0,2028.0,8.0,-8.0,
2056.0,2024.0,8.0,-8.0,
2057.0,2021.0,8.0,-7.0,
2063.0,2037.0,8.0,-7.0,
2044.0,2024.0,8.0,-7.0,
2043.0,2041.0,8.0,-8.0,
2038.0,2033.0,7.0,-8.0,
2040.0,2058.0,7.0,-8.0,
2033.0,2047.0,7.0,-8.0,
2050.0,2038.0,8.0,-7.0,
2058.0,2040.0,8.0,-7.0,
2046.0,2043.0,8.0,-7.0,
2051.0,1993.0,7.0,-8.0,
2044.0,2011.0,7.0,-8.0,
2044.0,2060.0,7.0,-8.0,
2055.0,2083.0,7.0,-8.0,
2065.0,2084.0,7.0,-8.0,
2048.0,2038.0,8.0,-8.0,
2058.0,2046.0,8.0,-8.0,
2068.0,2045.0,0,
2060.0,2028.0,8.0,-8.0,
2054.0,2036.0,8.0,-8.0,
2043.0,2037.0,8.0,-8.0,
2039.0,2080.0,8.0,-8.0,
2038.0,2059.0,8.0,-8.0,
2049.0,2057.0,8.0,-8.0,
2046.0,2043.0,8.0,-8.0,
2053.0,2036.0,8.0,-8.0,
2069.0,2042.0,8.0,-8.0,
2083.0,2037.0,8.0,-8.0,
2061.0,2023.0,8.0,-8.0,
2054.0,2018.0,9.0,-8.0,
2051.0,2044.0,9.0,-7.0,
2060.0,2065.0,9.0,-7.0,
2055.0,2068.0,9.0,-7.0,
2054.0,2071.0,9.0,-7.0,
2060.0,2059.0,9.0,-7.0,
2066.0,2068.0,9.0,-7.0,
2056.0,2063.0,10.0,-7.0,
2043.0,2046.0,10.0,-7.0,
2034.0,2024.0,10.0,-7.0,
2030.0,2059.0,10.0,-7.0,
2023.0,2052.0,10.0,-7.0,
2011.0,2045.0,10.0,-7.0,
2023.0,2025.0,10.0,-7.0,
2040.0,2045.0,10.0,-7.0,
2054.0,2062.0,11.0,-7.0,
2047.0,2030.0,11.0,-7.0,
2032.0,2018.0,11.0,-7.0,
2034.0,2010.0,11.0,-7.0,
2027.0,2038.0,11.0,-7.0,
2032.0,2054.0,11.0,-7.0,
2039.0,2035.0,11.0,-7.0,
2037.0,2043.0,11.0,-7.0,
2053.0,2031.0,11.0,-7.0,
2058.0,2034.0,11.0,-7.0,
2064.0,2028.0,11.0,-6.0,
2058.0,2032.0,11.0,-6.0,
2051.0,2017.0,11.0,-6.0,
2049.0,2045.0,11.0,-6.0,
2040.0,2022.0,11.0,-6.0,
2046.0,2033.0,11.0,-6.0,
2056.0,2045.0,11.0,-6.0,
2062.0,2047.0,11.0,-6.0,
2069.0,2017.0,11.0,-6.0,
2059.0,2009.0,11.0,-7.0,
2052.0,2024.0,11.0,-7.0,
2043.0,1995.0,10.0,-7.0,
2039.0,2072.0,10.0,-7.0,
2038.0,2074.0,10.0,-7.0,
2044.0,2086.0,10.0,-7.0,
2048.0,2051.0,10.0,-7.0,
2053.0,2063.0,10.0,-7.0,
2050.0,2053.0,10.0,-7.0,
2056.0,2063.0,10.0,-7.0,
2053.0,2036.0,10.0,-7.0,
2040.0,2049.0,9.0,-7.0,
2040.0,2074.0,9.0,-7.0,
2045.0,2094.0,9.0,-7.0,
2058.0,2089.0,9.0,-7.0,
2054.0,2028.0,9.0,-7.0,
2066.0,2026.0,9.0,-7.0,
2066.0,2043.0,9.0,-7.0,
2062.0,2039.0,9.0,-7.0,
2054.0,2025.0,9.0,-7.0,
2039.0,2013.0,9.0,-7.0,
2029.0,2031.0,9.0,-7.0,
2044.0,2052.0,9.0,-7.0,
2045.0,2067.0,9.0,-7.0,
2053.0,2039.0,9.0,-7.0,
2057.0,2014.0,9.0,-7.0,
2056.0,2084.0,9.0,-7.0,
2060.0,2052.0,9.0,-7.0,
2044.0,2048.0,9.0,-7.0,
2049.0,2045.0,9.0,-7.0,
2043.0,2059.0,9.0,-7.0,
2045.0,2043.0,9.0,-7.0,
2045.0,2080.0,9.0,-7.0,
2047.0,2042.0,9.0,-7.0,
2049.0,2043.0,9.0,-7.0,
2056.0,2033.0,9.0,-7.0,
2055.0,2030.0,9.0,-7.0,
2045.0,2035.0,9.0,-7.0,
2043.0,2034.0,9.0,-7.0,
2031.0,2061.0,9.0,-7.0,
2033.0,2066.0,9.0,-7.0,
2046.0,2064.0,9.0,-7.0,
2049.0,2057.0,9.0,-7.0,
2065.0,2038.0,9.0,-7.0,
2066.0,2050.0,9.0,-7.0,
2054.0,2037.0,10.0,-7.0,
2042.0,2015.0,10.0,-7.0,
2036.0,2021.0,10.0,-7.0,
2034.0,2035.0,10.0,-7.0,
2040.0,2043.0,10.0,-7.0,
2053.0,2050.0,10.0,-7.0,
2044.0,2042.0,10.0,-6.0,
2063.0,2055.0,10.0,-6.0,
2054.0,2065.0,10.0,-6.0,
2067.0,2050.0,10.0,-7.0,
2055.0,2043.0,10.0,-7.0,
2061.0,2039.0,10.0,-7.0,
2040.0,2041.0,10.0,-7.0,
2044.0,2081.0,10.0,-7.0,
2047.0,2078.0,10.0,-7.0,
2053.0,2050.0,10.0,-7.0,
2056.0,2043.0,10.0,-7.0,
2051.0,2033.0,10.0,-7.0,
2065.0,2029.0,10.0,-7.0,
2043.0,2031.0,10.0,-7.0,
2049.0,2041.0,10.0,-7.0,
2046.0,2031.0,10.0,-7.0,
2032.0,2060.0,10.0,-7.0,
2033.0,2064.0,10.0,-7.0,
2033.0,2081.0,10.0,-7.0,
2054.0,2045.0,10.0,-7.0,
2067.0,2041.0,10.0,-7.0,
2066.0,2023.0,10.0,-7.0,
2061.0,2033.0,9.0,-7.0,
2064.0,2026.0,9.0,-7.0,
2056.0,2047.0,9.0,-7.0,
2044.0,2061.0,9.0,-7.0,
2041.0,2076.0,9.0,-7.0,
2050.0,2051.0,9.0,-7.0,
2052.0,2055.0,9.0,-7.0,
2073.0,2045.0,9.0,-7.0,
2060.0,2050.0,9.0,-7.0,
2083.0,2035.0,9.0,-7.0,
2048.0,2043.0,9.0,-7.0,
2055.0,2054.0,9.0,-7.0,
2046.0,2095.0,9.0,-7.0,
2047.0,2058.0,9.0,-7.0,
2047.0,2052.0,9.0,-7.0,
2061.0,2048.0,9.0,-7.0,
2055.0,2047.0,9.0,-7.0,
2069.0,2026.0,9.0,-7.0,
2047.0,2020.0,9.0,-7.0,
2048.0,2009.0,9.0,-7.0,
2042.0,2037.0,9.0,-7.0,
2036.0,2033.0,9.0,-7.0,
2043.0,2039.0,9.0,-7.0,
2042.0,2042.0,9.0,-7.0,
2054.0,2044.0,9.0,-7.0,
2066.0,2023.0,9.0,-7.0,
2065.0,2019.0,9.0,-7.0,
2054.0,2019.0,9.0,-7.0,
2072.0,2033.0,9.0,-7.0,
2048.0,2042.0,9.0,-7.0,
2048.0,2051.0,9.0,-7.0,
2039.0,2044.0,9.0,-7.0,
2047.0,2049.0,9.0,-7.0,
2068.0,2058.0,9.0,-7.0,
2061.0,2056.0,9.0,-7.0,
2057.0,2044.0,9.0,-7.0,
2044.0,2021.0,9.0,-7.0,
2048.0,2039.0,9.0,-7.0,
2045.0,2038.0,9.0,-7.0,
2045.0,2071.0,9.0,-7.0,
2055.0,2081.0,9.0,-7.0,
2047.0,2039.0,9.0,-7.0,
2055.0,2017.0,9.0,-7.0,
2051.0,2054.0,10.0,-7.0,
2070.0,2043.0,10.0,-7.0,
2060.0,2046.0,10.0,-6.0,
2052.0,2009.0,10.0,-6.0,
2053.0,2039.0,10.0,-6.0,
2056.0,2040.0,9.0,-6.0,
2045.0,2074.0,9.0,-6.0,
2040.0,2056.0,9.0,-6.0,
2050.0,2038.0,10.0,-7.0,
2054.0,2029.0,10.0,-6.0,
2058.0,2018.0,10.0,-7.0,
2048.0,2008.0,10.0,-7.0,
2040.0,2006.0,10.0,-7.0,
2033.0,2045.0,10.0,-7.0,
2031.0,2066.0,10.0,-7.0,
2037.0,2037.0,10.0,-7.0,
2036.0,2052.0,10.0,-7.0,
2049.0,2042.0,10.0,-7.0,
2060.0,2024.0,10.0,-7.0,
2071.0,2035.0,10.0,-7.0,
2057.0,2015.0,10.0,-7.0,
2055.0,2029.0,10.0,-7.0,
2045.0,2032.0,10.0,-7.0,
2039.0,2041.0,10.0,-7.0,
2035.0,2041.0,10.0,-7.0,
2049.0,2073.0,10.0,-7.0,
2062.0,2058.0,10.0,-7.0,
2048.0,2063.0,10.0,-7.0,
2064.0,2053.0,10.0,-7.0,
2069.0,2023.0,10.0,-7.0,
2057.0,2046.0,10.0,-7.0,
2064.0,2058.0,10.0,-7.0,
2040.0,2066.0,10.0,-7.0,
2048.0,2072.0,10.0,-7.0,
2034.0,2047.0,10.0,-7.0,
2039.0,2030.0,10.0,-7.0,
2079.0,2036.0,10.0,-7.0,
2055.0,2071.0,10.0,-7.0,
2054.0,2054.0,9.0,-7.0,
2039.0,2069.0,9.0,-7.0,
2039.0,2048.0,9.0,-7.0,
2041.0,2053.0,9.0,-7.0,
2038.0,2068.0,9.0,-7.0,
2040.0,2059.0,9.0,-7.0,
2048.0,2032.0,10.0,-7.0,
2043.0,2027.0,10.0,-7.0,
2063.0,2046.0,10.0,-7.0,
2056.0,2040.0,10.0,-7.0,
2053.0,2023.0,10.0,-7.0,
2047.0,2042.0,10.0,-7.0,
2039.0,2023.0,9.0,-7.0,
2045.0,2043.0,9.0,-7.0,
2047.0,2045.0,9.0,-7.0,
2053.0,2044.0,9.0,-7.0,
2053.0,2019.0,9.0,-7.0,
2047.0,2037.0,9.0,-7.0,
2063.0,2025.0,9.0,-7.0,
2065.0,2015.0,9.0,-7.0,
2034.0,2018.0,9.0,-7.0,
2031.0,2036.0,9.0,-7.0,
2044.0,2050.0,9.0,-7.0,
2036.0,2054.0,9.0,-7.0,
2054.0,2048.0,9.0,-7.0,
2060.0,2013.0,9.0,-7.0,
2057.0,2032.0,9.0,-7.0,
2061.0,2027.0,9.0,-7.0,
2052.0,2034.0,9.0,-7.0,
2050.0,2025.0,9.0,-7.0,
2031.0,2053.0,9.0,-7.0,
2029.0,2044.0,9.0,-7.0,
2044.0,2069.0,0,
2065.0,2032.0,9.0,-7.0,
2058.0,2026.0,9.0,-7.0,
2059.0,2033.0,9.0,-7.0,
2052.0,2023.0,9.0,-7.0,
2044.0,2044.0,10.0,-7.0,
2045.0,2042.0,10.0,-7.0,
2044.0,2054.0,10.0,-7.0,
2017.0,2068.0,10.0,-7.0,
2035.0,2080.0,10.0,-7.0,
2049.0,2053.0,10.0,-7.0,
2056.0,2034.0,10.0,-7.0,
2056.0,2042.0,10.0,-7.0,
2047.0,2006.0,10.0,-6.0,
2055.0,2013.0,10.0,-7.0,
2041.0,2044.0,10.0,-6.0,
2043.0,2052.0,10.0,-6.0,
2044.0,2078.0,10.0,-6.0,
2041.0,2050.0,10.0,-6.0,
2054.0,2054.0,10.0,-7.0,
2052.0,2047.0,10.0,-7.0,
2055.0,2034.0,10.0,-7.0,
2044.0,2043.0,10.0,-7.0,
2057.0,2023.0,10.0,-7.0,
2038.0,2034.0,10.0,-7.0,
2043.0,2050.0,10.0,-7.0,
2036.0,2054.0,10.0,-7.0,
2040.0,2060.0,10.0,-7.0,
2043.0,2050.0,10.0,-7.0,
2057.0,2064.0,10.0,-7.0,
2064.0,2054.0,10.0,-7.0,
2054.0,2013.0,10.0,-7.0,
2058.0,2057.0,10.0,-7.0,
2061.0,2069.0,10.0,-7.0,
2037.0,2064.0,10.0,-7.0,
2047.0,2064.0,9.0,-7.0,
2041.0,2065.0,9.0,-7.0,
2042.0,2037.0,9.0,-7.0,
2054.0,2010.0,9.0,-7.0,
2060.0,2042.0,9.0,-7.0,
2058.0,2030.0,0,
2046.0,2007.0,9.0,-7.0,
2038.0,2021.0,9.0,-7.0,
2034.0,2040.0,9.0,-7.0,
2042.0,2054.0,9.0,-7.0,
2040.0,2032.0,9.0,-7.0,
2068.0,2036.0,9.0,-7.0,
2051.0,2024.0,9.0,-7.0,
2052.0,2032.0,9.0,-7.0,
2050.0,2030.0,9.0,-7.0,
2053.0,2037.0,9.0,-7.0,
2045.0,2041.0,9.0,-7.0,
2039.0,2040.0,9.0,-7.0,
2039.0,2052.0,9.0,-7.0,
2034.0,2072.0,9.0,-7.0,
2051.0,2034.0,9.0,-7.0,
2056.0,2020.0,9.0,-7.0,
2061.0,2013.0,9.0,-7.0,
2051.0,2052.0,9.0,-7.0,
2053.0,2021.0,9.0,-7.0,
2028.0,2036.0,10.0,-7.0,
2040.0,2055.0,10.0,-7.0,
2026.0,2063.0,10.0,-7.0,
2034.0,2045.0,10.0,-7.0,
2051.0,2041.0,10.0,-7.0,
2058.0,2029.0,10.0,-7.0,
2052.0,2026.0,10.0,-7.0,
2035.0,2039.0,10.0,-7.0,
2042.0,2042.0,10.0,-7.0,
2037.0,2013.0,10.0,-7.0,
2030.0,2052.0,10.0,-7.0,
2030.0,2054.0,10.0,-7.0,
2041.0,2055.0,10.0,-7.0,
2044.0,2052.0,10.0,-7.0,
2054.0,2042.0,10.0,-7.0,
2067.0,2030.0,10.0,-7.0,
2053.0,2030.0,10.0,-7.0,
2052.0,2024.0,10.0,-7.0,
2039.0,2039.0,10.0,-7.0,
2038.0,2034.0,10.0,-7.0,
2027.0,2048.0,10.0,-7.0,
2033.0,2053.0,10.0,-7.0,
2041.0,2045.0,10.0,-6.0,
2055.0,2022.0,10.0,-6.0,
2060.0,2025.0,10.0,-6.0,
2070.0,2032.0,10.0,-6.0,
2056.0,2031.0,10.0,-6.0,
2038.0,2045.0,10.0,-6.0,
2038.0,2032.0,10.0,-6.0,
2025.0,2045.0,10.0,-6.0,
2040.0,2066.0,10.0,-6.0,
2045.0,2057.0,10.0,-6.0,
2042.0,2052.0,10.0,-6.0,
2047.0,2038.0,10.0,-6.0,
2049.0,2018.0,10.0,-6.0,
2033.0,2013.0,10.0,-6.0,
2028.0,2014.0,10.0,-6.0,
2030.0,2042.0,10.0,-6.0,
2028.0,2060.0,10.0,-6.0,
2036.0,2037.0,10.0,-6.0,
2040.0,2034.0,10.0,-6.0,
2051.0,2061.0,10.0,-6.0,
2053.0,2045.0,10.0,-6.0,
2052.0,2027.0,10.0,-6.0,
2047.0,2032.0,10.0,-7.0,
2058.0,2048.0,10.0,-7.0,
2029.0,2044.0,10.0,-7.0,
2046.0,2056.0,10.0,-7.0,
2045.0,2061.0,10.0,-7.0,
2045.0,2050.0,10.0,-7.0,
2049.0,2044.0,10.0,-7.0,
2061.0,2043.0,10.0,-7.0,
2054.0,2051.0,10.0,-7.0,
2040.0,2033.0,10.0,-7.0,
2043.0,2043.0,10.0,-7.0,
2044.0,2040.0,10.0,-6.0,
2041.0,2042.0,10.0,-7.0,
2054.0,2059.0,10.0,-7.0,
2056.0,2057.0,10.0,-7.0,
2047.0,2030.0,10.0,-7.0,
2053.0,2025.0,10.0,-7.0,
2060.0,2037.0,10.0,-7.0,
2055.0,2029.0,10.0,-7.0,
2053.0,2033.0,10.0,-7.0,
2041.0,2047.0,10.0,-7.0,
2043.0,2057.0,10.0,-7.0,
2031.0,2064.0,10.0,-7.0,
2038.0,2039.0,10.0,-7.0,
2044.0,2029.0,10.0,-7.0,
2053.0,2052.0,10.0,-7.0,
2063.0,2044.0,9.0,-7.0,
2033.0,2041.0,9.0,-7.0,
2029.0,2019.0,9.0,-7.0,
2035.0,2038.0,9.0,-7.0,
2045.0,2044.0,9.0,-7.0,
2041.0,2058.0,9.0,-7.0,
2041.0,2036.0,9.0,-7.0,
2065.0,2040.0,9.0,-7.0,
2086.0,2032.0,9.0,-7.0,
2066.0,2045.0,10.0,-7.0,
2061.0,2025.0,10.0,-7.0,
2054.0,2034.0,9.0,-7.0,
2053.0,2044.0,9.0,-7.0,
2052.0,2044.0,9.0,-7.0,
2044.0,2059.0,9.0,-7.0,
2030.0,2037.0,9.0,-7.0,
2045.0,2040.0,10.0,-7.0,
2047.0,2036.0,10.0,-7.0,
2044.0,2028.0,9.0,-7.0,
2048.0,2030.0,9.0,-7.0,
2056.0,2023.0,9.0,-7.0,
2029.0,2050.0,9.0,-7.0,
2032.0,2063.0,9.0,-7.0,
2041.0,2065.0,9.0,-7.0,
2051.0,2052.0,9.0,-7.0,
2045.0,2063.0,9.0,-7.0,
2048.0,2051.0,9.0,-7.0,
2064.0,2025.0,9.0,-7.0,
2052.0,2012.0,9.0,-7.0,
2043.0,2016.0,9.0,-7.0,
2030.0,2040.0,9.0,-7.0,
2040.0,2052.0,10.0,-6.0,
2038.0,2040.0,10.0,-6.0,
2055.0,2067.0,10.0,-7.0,
2058.0,2056.0,10.0,-7.0,
2061.0,2023.0,10.0,-7.0,
2047.0,2030.0,10.0,-7.0,
2057.0,2036.0,10.0,-7.0,
2053.0,2042.0,10.0,-7.0,
2046.0,2036.0,10.0,-7.0,
2044.0,2048.0,10.0,-7.0,
2047.0,2059.0,10.0,-7.0,
2070.0,2085.0,10.0,-7.0,
2058.0,2050.0,10.0,-7.0,
2065.0,2038.0,10.0,-7.0,
2063.0,2037.0,10.0,-6.0,
2060.0,2037.0,10.0,-6.0,
2054.0,2033.0,10.0,-6.0,
2026.0,2035.0,10.0,-6.0,
2044.0,2054.0,10.0,-6.0,
2054.0,2068.0,10.0,-6.0,
2058.0,2065.0,10.0,-6.0,
2058.0,2043.0,10.0,-6.0,
2055.0,2040.0,10.0,-6.0,
2062.0,2036.0,10.0,-7.0,
2051.0,2025.0,10.0,-6.0,
2054.0,2030.0,10.0,-6.0,
2046.0,2049.0,10.0,-6.0,
2037.0,2053.0,10.0,-6.0,
2041.0,2055.0,10.0,-6.0,
2063.0,2066.0,10.0,-6.0,
2070.0,2040.0,10.0,-6.0,
2058.0,2025.0,10.0,-6.0,
2065.0,2035.0,10.0,-6.0,
2037.0,2027.0,10.0,-6.0,
2058.0,2025.0,10.0,-6.0,
2038.0,2032.0,10.0,-6.0,
2023.0,2029.0,10.0,-6.0,
2031.0,2067.0,9.0,-6.0,
2035.0,2055.0,9.0,-7.0,
2043.0,2063.0,9.0,-7.0,
2055.0,2029.0,9.0,-7.0,
2059.0,2020.0,9.0,-7.0,
2059.0,2024.0,9.0,-7.0,
2052.0,2031.0,9.0,-7.0,
2041.0,2046.0,9.0,-7.0,
2039.0,2042.0,9.0,-7.0,
2049.0,2065.0,9.0,-7.0,
2064.0,2058.0,9.0,-7.0,
2053.0,2053.0,9.0,-7.0,
2059.0,2018.0,9.0,-7.0,
2074.0,2029.0,9.0,-7.0,
2051.0,2041.0,9.0,-7.0,
2051.0,2031.0,9.0,-7.0,
2045.0,2081.0,9.0,-7.0,
2049.0,2070.0,9.0,-7.0,
2047.0,2016.0,9.0,-7.0,
2050.0,2053.0,9.0,-7.0,
2051.0,2109.0,9.0,-7.0,
2067.0,2047.0,9.0,-7.0,
2066.0,2040.0,9.0,-7.0,
2061.0,2045.0,9.0,-7.0,
2040.0,2036.0,9.0,-7.0,
2036.0,2032.0,9.0,-7.0,
2038.0,2044.0,9.0,-7.0,
2044.0,2041.0,10.0,-7.0,
2056.0,2047.0,10.0,-7.0,
2051.0,2035.0,10.0,-7.0,
2048.0,2054.0,10.0,-7.0,
2062.0,2032.0,10.0,-7.0,
2052.0,2027.0,10.0,-7.0,
2049.0,2024.0,10.0,-7.0,
2039.0,2020.0,10.0,-6.0,
2037.0,2033.0,10.0,-6.0,
2045.0,2040.0,10.0,-6.0,
2048.0,2036.0,10.0,-6.0,
2047.0,2039.0,10.0,-6.0,
2069.0,2053.0,10.0,-6.0,
2051.0,2022.0,10.0,-6.0,
2054.0,2061.0,10.0,-6.0,
2052.0,2054.0,10.0,-6.0,
2050.0,2072.0,10.0,-6.0,
2044.0,2064.0,10.0,-6.0,
2054.0,2073.0,10.0,-6.0,
2039.0,2050.0,10.0,-6.0,
2057.0,2034.0,10.0,-6.0,
2056.0,2036.0,10.0,-6.0,
2064.0,2017.0,10.0,-6.0,
2049.0,2035.0,10.0,-6.0,
2041.0,2036.0,10.0,-6.0,
2030.0,2057.0,10.0,-6.0,
2031.0,2047.0,10.0,-6.0,
2036.0,2064.0,10.0,-6.0,
2045.0,2048.0,10.0,-6.0,
2062.0,2040.0,10.0,-7.0,
2059.0,2039.0,10.0,-7.0,
2058.0,2031.0,10.0,-6.0,
2062.0,2009.0,10.0,-7.0,
2041.0,2057.0,9.0,-7.0,
2043.0,2003.0,9.0,-7.0,
2037.0,2038.0,9.0,-7.0,
2044.0,2057.0,9.0,-7.0,
2041.0,2056.0,9.0,-7.0,
2069.0,2037.0,9.0,-7.0,
2062.0,2019.0,9.0,-7.0,
2067.0,2034.0,9.0,-7.0,
2055.0,2039.0,9.0,-7.0,
2046.0,2036.0,9.0,-7.0,
2050.0,2013.0,9.0,-7.0,
2042.0,2035.0,9.0,-7.0,
2053.0,2049.0,9.0,-7.0,
2067.0,2033.0,9.0,-7.0,
2058.0,2045.0,9.0,-7.0,
2065.0,2043.0,9.0,-7.0,
2077.0,2024.0,9.0,-7.0,
2070.0,2040.0,9.0,-7.0,
2036.0,2026.0,9.0,-7.0,
2053.0,2059.0,9.0,-7.0,
2036.0,2043.0,9.0,-7.0,
2034.0,2024.0,9.0,-7.0,
2042.0,2040.0,9.0,-7.0,
2054.0,2037.0,9.0,-7.0,
2056.0,2064.0,9.0,-7.0,
2055.0,2017.0,9.0,-7.0,
2038.0,2037.0,9.0,-7.0,
2039.0,2064.0,10.0,-7.0,
2047.0,2048.0,10.0,-7.0,
2040.0,2063.0,10.0,-7.0,
2040.0,2093.0,10.0,-7.0,
2050.0,2035.0,10.0,-7.0,
2053.0,2042.0,10.0,-7.0,
2049.0,2064.0,10.0,-7.0,
2056.0,2054.0,0,
2047.0,2018.0,10.0,-7.0,
2050.0,1968.0,10.0,-6.0,
2035.0,2030.0,10.0,-6.0,
2031.0,2044.0,10.0,-6.0,
2022.0,2045.0,10.0,-6.0,
2042.0,2066.0,10.0,-6.0,
2040.0,2038.0,11.0,-6.0,
2053.0,2047.0,11.0,-6.0,
2051.0,2045.0,11.0,-6.0,
2068.0,2041.0,11.0,-6.0,
2049.0,2041.0,11.0,-6.0,
2043.0,2039.0,12.0,-6.0,
2042.0,2038.0,12.0,-6.0,
2056.0,2102.0,12.0,-6.0,
2055.0,2084.0,12.0,-6.0,
2052.0,2037.0,12.0,-6.0,
2052.0,2034.0,13.0,-6.0,
2063.0,2044.0,13.0,-6.0,
2052.0,2031.0,13.0,-6.0,
2072.0,1996.0,13.0,-6.0,
2048.0,2007.0,13.0,-6.0,
2043.0,2041.0,13.0,-6.0,
2041.0,2057.0,13.0,-6.0,
2042.0,2052.0,13.0,-6.0,
2063.0,2095.0,13.0,-6.0,
2067.0,2080.0,13.0,-6.0,
2068.0,2048.0,13.0,-6.0,
2035.0,2039.0,13.0,-6.0,
2041.0,1988.0,13.0,-6.0,
2031.0,2009.0,13.0,-6.0,
2049.0,2042.0,13.0,-6.0,
2057.0,2028.0,13.0,-6.0,
2064.0,2019.0,13.0,-6.0,
2033.0,2024.0,12.0,-6.0,
2039.0,2060.0,13.0,-6.0,
2055.0,2009.0,12.0,-6.0,
2061.0,2056.0,12.0,-6.0,
2040.0,2032.0,12.0,-6.0,
2036.0,2061.0,12.0,-6.0,
2042.0,2075.0,12.0,-6.0,
2036.0,2035.0,12.0,-6.0,
2051.0,2011.0,12.0,-6.0,
2044.0,2044.0,12.0,-6.0,
2054.0,2061.0,11.0,-6.0,
2062.0,2037.0,11.0,-7.0,
2045.0,2024.0,10.0,-7.0,
2043.0,2053.0,10.0,-7.0,
2035.0,1998.0,9.0,-7.0,
2026.0,2035.0,9.0,-7.0,
2032.0,2076.0,9.0,-7.0,
2069.0,2060.0,8.0,-7.0,
2062.0,1994.0,8.0,-7.0,
2059.0,2060.0,7.0,-8.0,
2064.0,2042.0,7.0,-8.0,
2059.0,2064.0,7.0,-8.0,
2047.0,2069.0,7.0,-8.0,
2041.0,2028.0,7.0,-8.0,
2033.0,2056.0,7.0,-8.0,
2036.0,2049.0,7.0,-8.0,
2058.0,2059.0,7.0,-8.0,
2076.0,2048.0,7.0,-8.0,
2052.0,2126.0,7.0,-8.0,
2060.0,2090.0,7.0,-8.0,
2060.0,2008.0,8.0,-7.0,
2050.0,1980.0,8.0,-7.0,
2045.0,1968.0,9.0,-7.0,
2050.0,1986.0,9.0,-7.0,
2052.0,1996.0,10.0,-7.0,
2061.0,2053.0,10.0,-7.0,
2085.0,2015.0,10.0,-6.0,
2060.0,2004.0,11.0,-6.0,
2067.0,2015.0,11.0,-6.0,
2064.0,2039.0,11.0,-6.0,
2044.0,2051.0,11.0,-5.0,
2032.0,2074.0,11.0,-5.0,
2027.0,2041.0,10.0,-6.0,
1989.0,2072.0,10.0,-6.0,
2029.0,2082.0,9.0,-6.0,
2050.0,2086.0,9.0,-6.0,
2049.0,2064.0,8.0,-6.0,
2061.0,2013.0,8.0,-7.0,
2048.0,2022.0,7.0,-7.0,
2040.0,2034.0,7.0,-7.0,
2025.0,2028.0,6.0,-7.0,
2024.0,2024.0,6.0,-7.0,
2053.0,2000.0,6.0,-7.0,
2034.0,2006.0,6.0,-8.0,
2041.0,2036.0,5.0,-8.0,
2058.0,2070.0,5.0,-8.0,
2065.0,2081.0,4.0,-8.0,
2045.0,2078.0,3.0,-9.0,
2035.0,2051.0,3.0,-9.0,
2033.0,2030.0,2.0,-9.0,
2016.0,2009.0,1.0,-9.0,
2018.0,2083.0,0.0,-9.0,
2029.0,2088.0,0.0,-10.0,
2068.0,2083.0,0.0,-10.0,
2082.0,2041.0,0.0,-10.0,
2103.0,2004.0,-1.0,-10.0,
2077.0,1994.0,-1.0,-10.0,
2047.0,2033.0,-1.0,-10.0,
2055.0,2042.0,-1.0,-10.0,
2039.0,1992.0,-1.0,-10.0,
2043.0,2021.0,-1.0,-10.0,
2054.0,2027.0,-1.0,-9.0,
2051.0,2027.0,0.0,-9.0,
2056.0,2041.0,0.0,-9.0,
2053.0,2058.0,0.0,-9.0,
2036.0,2085.0,0.0,-9.0,
2034.0,2055.0,1.0,-8.0,
2021.0,2100.0,1.0,-8.0,
2003.0,2052.0,2.0,-8.0,
2013.0,2120.0,2.0,-8.0,
2012.0,2058.0,3.0,-7.0,
2055.0,2087.0,4.0,-7.0,
2090.0,2071.0,4.0,-7.0,
2093.0,1935.0,5.0,-6.0,
2097.0,1935.0,5.0,-6.0,
2082.0,2011.0,6.0,-6.0,
2069.0,2029.0,6.0,-6.0,
2043.0,1993.0,7.0,-6.0,
2052.0,2002.0,7.0,-6.0,
2042.0,2054.0,7.0,-6.0,
2073.0,2060.0,7.0,-6.0,
2065.0,2022.0,7.0,-6.0,
2086.0,2074.0,7.0,-6.0,
2068.0,2090.0,7.0,-6.0,
2062.0,2053.0,6.0,-7.0,
2049.0,2051.0,6.0,-7.0,
2042.0,2076.0,5.0,-7.0,
2029.0,2096.0,5.0,-7.0,
2038.0,2097.0,4.0,-8.0,
2031.0,2075.0,3.0,-8.0,
2049.0,2057.0,2.0,-8.0,
2063.0,2027.0,1.0,-8.0,
2051.0,1981.0,0.0,-8.0,
2049.0,1968.0,0.0,-9.0,
2038.0,2006.0,-1.0,-9.0,
2031.0,2070.0,-1.0,-9.0,
2039.0,2075.0,-2.0,-9.0,
2044.0,2066.0,-3.0,-9.0,
2045.0,2072.0,-3.0,-9.0,
2049.0,1983.0,-4.0,-9.0,
2057.0,2022.0,-4.0,-9.0,
2067.0,1983.0,-4.0,-9.0,
2058.0,1947.0,-4.0,-9.0,
2047.0,2030.0,-4.0,-9.0,
2044.0,2099.0,-4.0,-9.0,
2034.0,2106.0,-5.0,-9.0,
2065.0,2080.0,-5.0,-9.0,
2053.0,2036.0,-5.0,-9.0,
2057.0,1956.0,-4.0,-9.0,
2086.0,1998.0,-4.0,-9.0,
2062.0,2029.0,-4.0,-9.0,
2058.0,2087.0,-4.0,-9.0,
2056.0,2047.0,-4.0,-9.0,
2046.0,2031.0,-4.0,-9.0,
2054.0,2014.0,-4.0,-9.0,
2051.0,2027.0,-4.0,-9.0,
2060.0,2087.0,-3.0,-9.0,
2052.0,2076.0,-3.0,-9.0,
2043.0,2071.0,-3.0,-9.0,
2035.0,2045.0,-3.0,-8.0,
2039.0,2018.0,-3.0,-8.0,
2041.0,2093.0,-2.0,-8.0,
2060.0,2074.0,-2.0,-8.0,
2051.0,2069.0,-2.0,-8.0,
2051.0,2026.0,-2.0,-8.0,
2053.0,2023.0,-2.0,-8.0,
2059.0,2036.0,-1.0,-7.0,
2052.0,2045.0,-1.0,-7.0,
2053.0,2020.0,-1.0,-7.0,
2039.0,2058.0,-1.0,-7.0,
2045.0,2000.0,-1.0,-7.0,
2047.0,2070.0,-1.0,-7.0,
2040.0,2057.0,-1.0,-7.0,
2038.0,2055.0,-1.0,-7.0,
2036.0,1978.0,0.0,-7.0,
2067.0,1989.0,0.0,-6.0,
2066.0,2040.0,0.0,-6.0,
2058.0,2029.0,0.0,-7.0,
2059.0,2025.0,0.0,-7.0,
2053.0,2018.0,-1.0,-7.0,
2065.0,2068.0,-1.0,-7.0,
2047.0,1997.0,-1.0,-7.0,
2054.0,1997.0,-2.0,-7.0,
2054.0,2036.0,-2.0,-8.0,
2045.0,2126.0,-3.0,-8.0,
2070.0,2101.0,-4.0,-8.0,
2054.0,2064.0,-4.0,-8.0,
2041.0,2033.0,-5.0,-8.0,
2020.0,2062.0,-6.0,-9.0,
2040.0,2016.0,-6.0,-9.0,
2035.0,2024.0,-7.0,-9.0,
2030.0,2058.0,-7.0,-9.0,
2045.0,2130.0,-8.0,-9.0,
2061.0,2091.0,-8.0,-10.0,
2058.0,1996.0,-8.0,-10.0,
2075.0,1989.0,-8.0,-10.0,
2068.0,2016.0,-8.0,-10.0,
2054.0,2065.0,-8.0,-10.0,
2060.0,2107.0,-8.0,-10.0,
2049.0,2063.0,-8.0,-10.0,
2056.0,2198.0,-7.0,-10.0,
2059.0,2192.0,-7.0,-10.0,
2051.0,2001.0,-7.0,-10.0,
2062.0,1924.0,-7.0,-10.0,
2052.0,1928.0,-6.0,-10.0,
2027.0,1920.0,-6.0,-10.0,
2058.0,1986.0,-6.0,-10.0,
2041.0,2086.0,-6.0,-9.0,
2032.0,2049.0,-6.0,-9.0,
2027.0,2038.0,-6.0,-9.0,
2052.0,2138.0,-6.0,-9.0,
2062.0,2220.0,-6.0,-9.0,
2068.0,2031.0,-6.0,-9.0,
2078.0,1980.0,-7.0,-9.0,
2037.0,2014.0,-7.0,-9.0,
2043.0,1944.0,-7.0,-9.0,
2033.0,2054.0,-8.0,-9.0,
2036.0,2043.0,-8.0,-9.0,
2041.0,2042.0,-8.0,-9.0,
2027.0,1997.0,-8.0,-9.0,
2026.0,2058.0,-8.0,-9.0,
2031.0,2113.0,-8.0,-9.0,
2042.0,2119.0,-8.0,-9.0,
2032.0,2004.0,-8.0,-8.0,
2072.0,2062.0,-8.0,-8.0,
2057.0,2043.0,-8.0,-8.0,
2072.0,2003.0,-8.0,-8.0,
2060.0,2055.0,-8.0,-8.0,
2061.0,2021.0,-8.0,-8.0,
2046.0,2054.0,-8.0,-9.0,
2052.0,2076.0,-8.0,-9.0,
2016.0,2091.0,-9.0,-9.0,
2021.0,2037.0,-9.0,-9.0,
2053.0,2056.0,-10.0,-9.0,
2045.0,1956.0,-10.0,-9.0,
2038.0,1936.0,-11.0,-9.0,
2061.0,1978.0,-11.0,-10.0,
2096.0,1970.0,-12.0,-10.0,
2069.0,1986.0,-12.0,-10.0,
2055.0,2009.0,-12.0,-10.0,
2052.0,2046.0,-13.0,-10.0,
2043.0,2026.0,-13.0,-10.0,
2028.0,2034.0,-14.0,-11.0,
2053.0,2126.0,-14.0,-11.0,
2047.0,2173.0,-14.0,-11.0,
2059.0,2144.0,-15.0,-11.0,
2007.0,2007.0,-15.0,-11.0,
2038.0,1957.0,-16.0,-12.0,
2040.0,1898.0,-16.0,-12.0,
2050.0,1951.0,-16.0,-12.0,
2063.0,2118.0,-17.0,-12.0,
2071.0,2046.0,-17.0,-12.0,
2052.0,2049.0,-17.0,-12.0,
2045.0,1974.0,-17.0,-12.0,
2025.0,2129.0,-17.0,-12.0,
2034.0,2077.0,-17.0,-12.0,
2058.0,2074.0,-17.0,-12.0,
2082.0,2096.0,-17.0,-12.0,
2075.0,2051.0,-17.0,-12.0,
2066.0,2013.0,-17.0,-12.0,
2032.0,2039.0,-17.0,-12.0,
2045.0,1988.0,-17.0,-11.0,
2037.0,1986.0,-17.0,-11.0,
2047.0,2022.0,-17.0,-11.0,
2036.0,2044.0,-17.0,-11.0,
2073.0,2100.0,-17.0,-11.0,
2068.0,2036.0,-16.0,-11.0,
2053.0,1991.0,-16.0,-10.0,
2036.0,2014.0,-16.0,-10.0,
2032.0,1982.0,-16.0,-10.0,
2027.0,2002.0,-16.0,-10.0,
2022.0,2047.0,-16.0,-10.0,
2031.0,2031.0,-16.0,-9.0,
2044.0,2060.0,-16.0,-9.0,
2059.0,2054.0,-16.0,-9.0,
2092.0,2055.0,-16.0,-9.0,
2046.0,2015.0,-17.0,-9.0,
2042.0,2071.0,-17.0,-9.0,
2042.0,2016.0,-17.0,-9.0,
2038.0,2017.0,-18.0,-9.0,
2027.0,1986.0,-18.0,-9.0,
2057.0,2045.0,-19.0,-9.0,
2067.0,2077.0,-19.0,-10.0,
2097.0,2020.0,-19.0,-10.0,
2077.0,2062.0,-20.0,-10.0,
2063.0,2045.0,-20.0,-10.0,
2079.0,2031.0,-20.0,-10.0,
2063.0,2010.0,-20.0,-10.0,
2068.0,2004.0,-20.0,-11.0,
2029.0,1971.0,-21.0,-11.0,
2040.0,2099.0,-21.0,-11.0,
2049.0,2017.0,-21.0,-11.0,
2056.0,2024.0,-21.0,-11.0,
2055.0,2006.0,-21.0,-12.0,
2044.0,2027.0,-21.0,-12.0,
2040.0,2100.0,-22.0,-12.0,
2043.0,2043.0,-21.0,-12.0,
2022.0,2158.0,-21.0,-12.0,
2006.0,2089.0,-21.0,-12.0,
2034.0,2016.0,-21.0,-12.0,
2030.0,2165.0,-21.0,-12.0,
2017.0,2258.0,-20.0,-12.0,
2056.0,2183.0,-20.0,-12.0,
2056.0,1885.0,-20.0,-12.0,
2071.0,1786.0,-20.0,-12.0,
2052.0,1956.0,-20.0,-12.0,
2041.0,1995.0,-20.0,-11.0,
2027.0,2038.0,-20.0,-11.0,
2034.0,2044.0,-20.0,-11.0,
2027.0,2069.0,-20.0,-11.0,
2040.0,2044.0,-19.0,-11.0,
2047.0,2073.0,-19.0,-11.0,
2094.0,2030.0,-19.0,-10.0,
2055.0,2031.0,-19.0,-10.0,
2048.0,2036.0,-19.0,-10.0,
2006.0,2040.0,-18.0,-10.0,
2028.0,2106.0,-18.0,-10.0,
2035.0,2140.0,-18.0,-10.0,
2089.0,2100.0,-18.0,-9.0,
2069.0,2017.0,-19.0,-9.0,
2069.0,2067.0,-19.0,-9.0,
2084.0,1959.0,-20.0,-9.0,
2056.0,1996.0,-20.0,-10.0,
2033.0,1987.0,-21.0,-10.0,
2030.0,2021.0,-22.0,-10.0,
2037.0,1975.0,-22.0,-10.0,
2014.0,1891.0,-23.0,-10.0,
2083.0,1930.0,-24.0,-10.0,
2101.0,2027.0,-24.0,-10.0,
2038.0,2128.0,-25.0,-11.0,
1976.0,2005.0,-25.0,-11.0,
1984.0,1987.0,-25.0,-11.0,
2016.0,2053.0,-26.0,-11.0,
2002.0,2097.0,-26.0,-11.0,
2013.0,2096.0,-26.0,-11.0,
2073.0,2040.0,-26.0,-11.0,
2061.0,1974.0,-26.0,-11.0,
2081.0,2030.0,-26.0,-11.0,
2068.0,2080.0,-26.0,-11.0,
2060.0,2083.0,-26.0,-11.0,
2043.0,2118.0,-26.0,-11.0,
2026.0,2141.0,-26.0,-11.0,
2029.0,2135.0,-26.0,-11.0,
2031.0,2055.0,-26.0,-12.0,
2053.0,2118.0,-26.0,-12.0,
2040.0,2020.0,-26.0,-12.0,
2116.0,2024.0,-26.0,-12.0,
2078.0,2029.0,-26.0,-12.0,
2063.0,1990.0,-26.0,-12.0,
2072.0,2009.0,-26.0,-12.0,
2034.0,2054.0,-26.0,-12.0,
2041.0,2052.0,-26.0,-12.0,
2044.0,2086.0,-26.0,-12.0,
2009.0,2081.0,-25.0,-12.0,
2032.0,2103.0,-25.0,-12.0,
2076.0,2190.0,-25.0,-12.0,
2055.0,1924.0,-25.0,-12.0,
2068.0,1939.0,-24.0,-12.0,
2114.0,1865.0,-24.0,-12.0,
2126.0,2046.0,-24.0,-12.0,
2089.0,2016.0,-24.0,-12.0,
2065.0,2076.0,-23.0,-12.0,
2059.0,2081.0,-23.0,-12.0,
2055.0,1914.0,-23.0,-11.0,
2056.0,1902.0,-22.0,-11.0,
2039.0,2061.0,-22.0,-11.0,
2050.0,2020.0,-22.0,-11.0,
2047.0,2057.0,-22.0,-11.0,
2024.0,2028.0,-21.0,-11.0,
2033.0,2081.0,-21.0,-10.0,
2016.0,2097.0,-21.0,-10.0,
2040.0,2050.0,-21.0,-10.0,
2047.0,1920.0,-20.0,-10.0,
2037.0,2044.0,-20.0,-10.0,
2047.0,2027.0,-20.0,-9.0,
2053.0,2040.0,-20.0,-9.0,
2033.0,2129.0,-20.0,-9.0,
2039.0,2125.0,-20.0,-9.0,
2028.0,2100.0,-20.0,-9.0,
2034.0,2055.0,-21.0,-9.0,
2046.0,2056.0,0,
2039.0,2081.0,-21.0,-10.0,
2057.0,2037.0,-21.0,-10.0,
2051.0,2038.0,-21.0,-10.0,
2058.0,2056.0,-21.0,-10.0,
2054.0,2048.0,-22.0,-10.0,
2060.0,2045.0,-22.0,-10.0,
2044.0,2059.0,-22.0,-10.0,
2088.0,2082.0,-23.0,-10.0,
2099.0,2084.0,-23.0,-11.0,
2073.0,2109.0,-23.0,-11.0,
2055.0,2105.0,-23.0,-11.0,
2014.0,1994.0,-24.0,-11.0,
1988.0,2017.0,-24.0,-11.0,
1995.0,2010.0,-24.0,-11.0,
2010.0,2070.0,-24.0,-11.0,
2033.0,2071.0,-24.0,-11.0,
2025.0,2096.0,-24.0,-12.0,
2070.0,1833.0,-24.0,-12.0,
2078.0,1930.0,-25.0,-12.0,
2064.0,1917.0,-25.0,-12.0,
2064.0,1952.0,-25.0,-12.0,
2049.0,1913.0,-25.0,-12.0,
2031.0,2037.0,-25.0,-12.0,
2039.0,2079.0,-25.0,-12.0,
2039.0,2158.0,-25.0,-12.0,
2034.0,2263.0,-25.0,-12.0,
2055.0,2185.0,-25.0,-12.0,
2047.0,1929.0,-25.0,-12.0,
2037.0,1950.0,-25.0,-12.0,
2035.0,1934.0,-25.0,-12.0,
2064.0,2089.0,-25.0,-12.0,
2054.0,2056.0,-25.0,-12.0,
2052.0,2165.0,-25.0,-12.0,
2082.0,2079.0,-25.0,-12.0,
2092.0,2064.0,-25.0,-12.0,
2078.0,1890.0,-25.0,-12.0,
2085.0,2006.0,-25.0,-12.0,
2082.0,1966.0,-25.0,-12.0,
2068.0,1999.0,-25.0,-12.0,
2055.0,2067.0,-25.0,-12.0,
2033.0,1968.0,-25.0,-12.0,
2078.0,2025.0,-25.0,-12.0,
2058.0,2010.0,-25.0,-11.0,
2024.0,2109.0,-25.0,-11.0,
2026.0,2109.0,-25.0,-11.0,
2052.0,2119.0,-25.0,-11.0,
2025.0,2101.0,-25.0,-11.0,
2027.0,2006.0,-25.0,-11.0,
2026.0,2043.0,-25.0,-11.0,
2014.0,1998.0,-26.0,-11.0,
2051.0,1963.0,-26.0,-11.0,
2041.0,2000.0,-26.0,-11.0,
2048.0,2180.0,-26.0,-11.0,
2060.0,2005.0,-26.0,-11.0,
2054.0,2102.0,-26.0,-11.0,
2042.0,2213.0,-26.0,-11.0,
2033.0,2116.0,-26.0,-10.0,
2031.0,2038.0,-27.0,-11.0,
2049.0,1997.0,-27.0,-10.0,
2045.0,2005.0,-27.0,-10.0,
2031.0,1918.0,-27.0,-10.0,
2042.0,1969.0,-27.0,-10.0,
2051.0,2056.0,-27.0,-10.0,
2056.0,2016.0,-27.0,-10.0,
2078.0,2057.0,-27.0,-10.0,
2045.0,2079.0,-27.0,-10.0,
2057.0,2019.0,-26.0,-10.0,
2062.0,1986.0,-26.0,-10.0,
2037.0,2096.0,-26.0,-10.0,
2048.0,2083.0,-26.0,-10.0,
2051.0,2058.0,-26.0,-10.0,
2044.0,2081.0,-26.0,-10.0,
2041.0,1846.0,-25.0,-10.0,
2038.0,1992.0,-25.0,-10.0,
2038.0,2121.0,-25.0,-11.0,
2054.0,2128.0,-26.0,-11.0,
2103.0,2030.0,-26.0,-11.0,
2070.0,1993.0,-26.0,-11.0,
2078.0,2005.0,-26.0,-11.0,
2082.0,2027.0,-26.0,-11.0,
2073.0,2118.0,-26.0,-11.0,
2055.0,2149.0,-26.0,-11.0,
2061.0,1968.0,-26.0,-11.0,
2039.0,2043.0,-27.0,-11.0,
2034.0,1953.0,-27.0,-11.0,
2024.0,2068.0,-27.0,-12.0,
2039.0,2006.0,-27.0,-12.0,
2028.0,2047.0,-27.0,-12.0,
2065.0,2053.0,-27.0,-12.0,
2047.0,2022.0,-27.0,-12.0,
2068.0,2002.0,-28.0,-12.0,
2085.0,2002.0,-28.0,-12.0,
2043.0,2109.0,-28.0,-12.0,
2012.0,2164.0,-28.0,-12.0,
2009.0,1979.0,-28.0,-12.0,
2033.0,1884.0,-28.0,-12.0,
2049.0,1960.0,-28.0,-12.0,
2105.0,1999.0,-28.0,-12.0,
2096.0,2077.0,-29.0,-12.0,
2069.0,2066.0,-29.0,-12.0,
1998.0,2052.0,-29.0,-12.0,
2027.0,2056.0,-29.0,-12.0,
2020.0,2089.0,-29.0,-12.0,
2024.0,1926.0,-29.0,-12.0,
2036.0,2079.0,-29.0,-12.0,
2048.0,2098.0,-29.0,-12.0,
2074.0,2095.0,-29.0,-12.0,
2042.0,2133.0,-29.0,-12.0,
2049.0,2052.0,-29.0,-12.0,
2044.0,2095.0,-29.0,-12.0,
2048.0,1978.0,-29.0,-12.0,
2043.0,2005.0,-29.0,-12.0,
2046.0,1993.0,-29.0,-12.0,
2057.0,2008.0,-29.0,-12.0,
2047.0,2005.0,-29.0,-12.0,
2033.0,1988.0,-29.0,-12.0,
2057.0,2035.0,-29.0,-12.0,
2047.0,1964.0,-29.0,-12.0,
2037.0,2151.0,-29.0,-12.0,
2022.0,2041.0,-29.0,-12.0,
2022.0,2074.0,-29.0,-12.0,
2038.0,2075.0,-29.0,-12.0,
2078.0,2051.0,-29.0,-12.0,
2107.0,1970.0,-29.0,-11.0,
2084.0,1910.0,-29.0,-11.0,
2040.0,2047.0,-28.0,-11.0,
2031.0,2076.0,-28.0,-11.0,
2038.0,1981.0,-28.0,-11.0,
2057.0,2071.0,-28.0,-11.0,
2051.0,1974.0,-28.0,-11.0,
2080.0,2081.0,-28.0,-11.0,
2085.0,2218.0,-28.0,-11.0,
2073.0,1980.0,-28.0,-11.0,
2102.0,1947.0,-28.0,-11.0,
2065.0,2008.0,-28.0,-11.0,
2029.0,1976.0,-28.0,-11.0,
2000.0,2032.0,-28.0,-11.0,
2033.0,1998.0,-28.0,-11.0,
2047.0,1996.0,-28.0,-11.0,
2037.0,2034.0,-28.0,-11.0,
2044.0,2035.0,-28.0,-11.0,
2037.0,2055.0,-28.0,-11.0,
2029.0,2068.0,-28.0,-11.0,
2014.0,2130.0,-28.0,-11.0,
1987.0,2134.0,-28.0,-11.0,
2000.0,2188.0,-28.0,-11.0,
2014.0,2184.0,-28.0,-11.0,
2073.0,2065.0,-28.0,-11.0,
2086.0,2031.0,-28.0,-11.0,
2106.0,1942.0,-28.0,-11.0,
2080.0,1871.0,-28.0,-11.0,
2066.0,1965.0,-28.0,-11.0,
2055.0,1949.0,-28.0,-11.0,
2028.0,2004.0,-28.0,-11.0,
2035.0,2064.0,-28.0,-11.0,
2027.0,2184.0,-28.0,-11.0,
2035.0,2026.0,-29.0,-11.0,
2064.0,2025.0,-29.0,-11.0,
2064.0,2049.0,-29.0,-11.0,
2039.0,1899.0,-29.0,-11.0,
2019.0,1987.0,-29.0,-11.0,
2026.0,2029.0,-29.0,-11.0,
2025.0,2157.0,-29.0,-11.0,
2029.0,2125.0,-29.0,-11.0,
2027.0,2035.0,-29.0,-11.0,
2068.0,2054.0,-29.0,-11.0,
2070.0,1956.0,-29.0,-11.0,
2069.0,2042.0,-29.0,-11.0,
2055.0,2104.0,-29.0,-11.0,
2063.0,1998.0,-29.0,-11.0,
2058.0,2034.0,-29.0,-11.0,
2038.0,2034.0,-29.0,-11.0,
2048.0,2085.0,-29.0,-11.0,
2045.0,2092.0,-29.0,-11.0,
2081.0,2061.0,-29.0,-11.0,
2054.0,2030.0,-29.0,-11.0,
2047.0,2164.0,-29.0,-11.0,
2033.0,2016.0,-29.0,-11.0,
2040.0,2008.0,-29.0,-11.0,
2017.0,2004.0,-29.0,-11.0,
2013.0,2063.0,-29.0,-11.0,
2002.0,2019.0,-29.0,-11.0,
2017.0,2116.0,-29.0,-11.0,
2047.0,2098.0,-30.0,-11.0,
2057.0,2047.0,-30.0,-11.0,
2074.0,2027.0,-30.0,-11.0,
2125.0,2064.0,-30.0,-11.0,
2061.0,1984.0,-30.0,-12.0,
2061.0,1963.0,-30.0,-12.0,
2033.0,2074.0,-30.0,-12.0,
2049.0,1976.0,-30.0,-12.0,
2076.0,1955.0,-30.0,-12.0,
2067.0,1984.0,-30.0,-12.0,
2085.0,1922.0,-30.0,-12.0,
2052.0,1972.0,-30.0,-12.0,
2052.0,2059.0,-30.0,-12.0,
2024.0,2132.0,-30.0,-12.0,
2017.0,2045.0,-30.0,-12.0,
2028.0,2101.0,-30.0,-11.0,
2033.0,2083.0,-30.0,-11.0,
2036.0,2118.0,-30.0,-11.0,
2056.0,2051.0,-30.0,-11.0,
2051.0,2006.0,-29.0,-11.0,
2041.0,1940.0,-29.0,-11.0,
2037.0,2038.0,-29.0,-11.0,
2024.0,2144.0,-29.0,-11.0,
2002.0,2258.0,-29.0,-11.0,
2022.0,2188.0,-29.0,-11.0,
2070.0,1969.0,-29.0,-11.0,
2090.0,1914.0,-29.0,-11.0,
2084.0,1947.0,-29.0,-11.0,
2089.0,2075.0,-30.0,-11.0,
2055.0,2057.0,-29.0,-11.0,
2045.0,2088.0,-29.0,-11.0,
2034.0,2113.0,-29.0,-11.0,
2038.0,2087.0,-29.0,-11.0,
2034.0,2086.0,-29.0,-11.0,
2042.0,2037.0,-29.0,-11.0,
2044.0,2038.0,-29.0,-11.0,
2043.0,2054.0,-29.0,-11.0,
2047.0,1910.0,-29.0,-11.0,
2042.0,1995.0,-29.0,-11.0,
2038.0,1928.0,-29.0,-11.0,
2044.0,2043.0,-30.0,-11.0,
2041.0,2058.0,-30.0,-11.0,
2061.0,2008.0,-30.0,-11.0,
2048.0,2077.0,-30.0,-12.0,
2059.0,2108.0,-30.0,-12.0,
2062.0,2054.0,-30.0,-12.0,
2044.0,2055.0,-30.0,-12.0,
2021.0,2044.0,-30.0,-12.0,
2026.0,2059.0,-30.0,-12.0,
2025.0,1993.0,-30.0,-12.0,
2066.0,2033.0,-30.0,-12.0,
2074.0,2046.0,-30.0,-12.0,
2053.0,1980.0,-30.0,-12.0,
2056.0,2035.0,-30.0,-12.0,
2061.0,2057.0,-30.0,-12.0,
2013.0,2087.0,-30.0,-12.0,
2021.0,2135.0,-30.0,-12.0,
2037.0,2093.0,-30.0,-12.0,
2063.0,2013.0,-30.0,-12.0,
2071.0,2017.0,-30.0,-12.0,
2077.0,2020.0,-30.0,-12.0,
2071.0,1958.0,-30.0,-12.0,
2050.0,1916.0,-30.0,-12.0,
2048.0,1980.0,-30.0,-12.0,
2044.0,1924.0,-30.0,-12.0,
2027.0,2108.0,-30.0,-11.0,
2018.0,2195.0,-30.0,-11.0,
2038.0,2038.0,-30.0,-11.0,
2051.0,2073.0,-30.0,-11.0,
2064.0,2048.0,-30.0,-11.0,
2081.0,1934.0,-30.0,-11.0,
2107.0,1994.0,-30.0,-11.0,
2110.0,2087.0,-30.0,-11.0,
2072.0,2041.0,-30.0,-11.0,
2033.0,2010.0,-30.0,-11.0,
1992.0,2044.0,-30.0,-11.0,
1974.0,2023.0,-30.0,-11.0,
2001.0,2123.0,-30.0,-11.0,
2017.0,2078.0,-30.0,-11.0,
2044.0,2126.0,-30.0,-11.0,
2082.0,1942.0,-30.0,-11.0,
2064.0,1966.0,-30.0,-11.0,
2031.0,2052.0,-30.0,-11.0,
2025.0,2153.0,-30.0,-11.0,
2047.0,2090.0,-30.0,-11.0,
2036.0,2069.0,-30.0,-12.0,
2073.0,1998.0,-30.0,-12.0,
2109.0,2039.0,-30.0,-12.0,
2094.0,1992.0,-30.0,-12.0,
2080.0,2042.0,-30.0,-12.0,
2045.0,2058.0,-30.0,-12.0,
2051.0,2107.0,-30.0,-12.0,
2013.0,2038.0,-30.0,-12.0,
2029.0,2027.0,-30.0,-12.0,
2021.0,1972.0,-30.0,-12.0,
2078.0,2057.0,-30.0,-11.0,
2048.0,2065.0,-30.0,-11.0,
2067.0,2054.0,-30.0,-11.0,
2047.0,1982.0,-30.0,-11.0,
2032.0,2102.0,-30.0,-11.0,
2071.0,2078.0,-30.0,-11.0,
2083.0,1946.0,-31.0,-11.0,
2047.0,2021.0,-31.0,-11.0,
2044.0,2062.0,-30.0,-11.0,
2042.0,2105.0,-30.0,-11.0,
2056.0,2001.0,-30.0,-11.0,
2053.0,2069.0,-30.0,-11.0,
2013.0,2049.0,-30.0,-11.0,
2029.0,1998.0,-30.0,-11.0,
2023.0,2073.0,-30.0,-11.0,
2048.0,2031.0,-30.0,-11.0,
2065.0,2071.0,-30.0,-11.0,
2108.0,2172.0,-29.0,-11.0,
2076.0,2052.0,-29.0,-11.0,
2076.0,2061.0,-29.0,-11.0,
2056.0,2090.0,-29.0,-11.0,
2059.0,2026.0,-29.0,-11.0,
2039.0,2055.0,-29.0,-11.0,
2026.0,2053.0,-29.0,-11.0,
2028.0,2005.0,-29.0,-11.0,
2028.0,2092.0,-29.0,-11.0,
2032.0,2086.0,-29.0,-11.0,
2019.0,1981.0,-29.0,-11.0,
2057.0,2004.0,-29.0,-11.0,
2071.0,2055.0,-29.0,-11.0,
2085.0,2126.0,-29.0,-11.0,
2026.0,2106.0,-29.0,-11.0,
2040.0,2148.0,-29.0,-11.0,
2026.0,2045.0,-29.0,-11.0,
2025.0,2008.0,-29.0,-11.0,
2023.0,1958.0,-29.0,-11.0,
2054.0,1904.0,-30.0,-11.0,
2055.0,2001.0,-30.0,-11.0,
2056.0,2112.0,-30.0,-11.0,
2040.0,2064.0,-30.0,-11.0,
2018.0,1988.0,-30.0,-11.0,
2046.0,2088.0,-30.0,-11.0,
2058.0,2073.0,-30.0,-12.0,
2044.0,2036.0,-30.0,-12.0,
2065.0,2041.0,-30.0,-12.0,
2084.0,1995.0,-31.0,-12.0,
2066.0,2058.0,-31.0,-12.0,
2051.0,2028.0,-31.0,-12.0,
2044.0,2065.0,-31.0,-12.0,
2101.0,2029.0,-31.0,-12.0,
2103.0,2061.0,-31.0,-12.0,
2062.0,2049.0,-31.0,-12.0,
2010.0,2077.0,-31.0,-12.0,
2011.0,1991.0,-31.0,-12.0,
2010.0,2092.0,-31.0,-12.0,
2030.0,2028.0,-31.0,-12.0,
2043.0,2093.0,-31.0,-12.0,
2039.0,2083.0,-31.0,-12.0,
2020.0,2108.0,-31.0,-12.0,
2039.0,2120.0,-31.0,-12.0,
2058.0,1817.0,-31.0,-12.0,
2075.0,2000.0,-31.0,-12.0,
2058.0,2017.0,-31.0,-12.0,
2051.0,2155.0,-31.0,-12.0,
2036.0,1926.0,-31.0,-11.0,
2067.0,2032.0,-31.0,-11.0,
2079.0,2007.0,-31.0,-11.0,
2043.0,1990.0,-31.0,-11.0,
2034.0,2057.0,-31.0,-11.0,
2031.0,2054.0,-30.0,-11.0,
2055.0,2050.0,-30.0,-11.0,
2061.0,2056.0,-30.0,-11.0,
2060.0,2050.0,-30.0,-11.0,
2061.0,2048.0,-30.0,-11.0,
2057.0,2141.0,-30.0,-11.0,
2038.0,2111.0,-30.0,-11.0,
2046.0,2135.0,-30.0,-11.0,
2042.0,2108.0,-30.0,-11.0,
2052.0,1944.0,-30.0,-11.0,
2031.0,1977.0,-30.0,-11.0,
2051.0,2024.0,-30.0,-11.0,
2070.0,2013.0,-30.0,-11.0,
2047.0,2024.0,-30.0,-11.0,
2048.0,2035.0,-30.0,-11.0,
2034.0,1988.0,-30.0,-11.0,
2030.0,2036.0,-30.0,-11.0,
2034.0,2145.0,-30.0,-12.0,
2056.0,2106.0,-30.0,-12.0,
2058.0,2025.0,-30.0,-12.0,
2035.0,1966.0,-30.0,-12.0,
2042.0,1967.0,-30.0,-12.0,
2032.0,2048.0,-30.0,-12.0,
2045.0,2158.0,-30.0,-12.0,
2059.0,2091.0,-30.0,-12.0,
2055.0,2046.0,-30.0,-12.0,
2089.0,2047.0,-30.0,-12.0,
2075.0,1936.0,-30.0,-12.0,
2056.0,1950.0,-30.0,-12.0,
2056.0,1965.0,-30.0,-11.0,
2073.0,2112.0,-30.0,-12.0,
2048.0,2031.0,-30.0,-12.0,
2032.0,1996.0,-30.0,-12.0,
2060.0,2086.0,-30.0,-12.0,
2054.0,1989.0,-31.0,-12.0,
2015.0,2070.0,-31.0,-12.0,
2045.0,2110.0,-31.0,-12.0,
2053.0,2075.0,-31.0,-12.0,
2084.0,2076.0,-31.0,-12.0,
2070.0,2003.0,-31.0,-12.0,
2073.0,2061.0,-31.0,-12.0,
2074.0,2097.0,-31.0,-12.0,
2094.0,2124.0,-31.0,-12.0,
2097.0,2016.0,-31.0,-12.0,
2091.0,2078.0,-31.0,-12.0,
2044.0,2029.0,-31.0,-12.0,
2030.0,1926.0,-31.0,-12.0,
2032.0,1967.0,-31.0,-12.0,
2028.0,2065.0,-31.0,-12.0,
2011.0,1969.0,-31.0,-12.0,
2029.0,2062.0,-31.0,-12.0,
2027.0,2089.0,-31.0,-12.0,
2016.0,2024.0,-31.0,-12.0,
2047.0,1988.0,-31.0,-12.0,
2045.0,2053.0,-31.0,-12.0,
2055.0,2053.0,-30.0,-12.0,
2057.0,2027.0,-30.0,-12.0,
2084.0,2049.0,-30.0,-12.0,
2026.0,2043.0,-30.0,-12.0,
2012.0,1990.0,-30.0,-12.0,
2023.0,2070.0,-30.0,-12.0,
2054.0,2128.0,-30.0,-11.0,
2096.0,2158.0,-30.0,-11.0,
2112.0,2059.0,-30.0,-11.0,
2064.0,1961.0,-30.0,-11.0,
2049.0,1927.0,-30.0,-11.0,
2035.0,1970.0,-30.0,-11.0,
2044.0,2029.0,-30.0,-11.0,
2036.0,2119.0,-30.0,-11.0,
2015.0,2021.0,-30.0,-11.0,
2045.0,2088.0,-30.0,-11.0,
2036.0,2063.0,-30.0,-11.0,
2048.0,2118.0,-30.0,-11.0,
2050.0,2146.0,-30.0,-11.0,
2046.0,2079.0,-30.0,-11.0,
2037.0,1929.0,-30.0,-11.0,
2024.0,1912.0,-30.0,-11.0,
2044.0,1990.0,-30.0,-11.0,
2011.0,2011.0,-30.0,-11.0,
2045.0,1990.0,-30.0,-11.0,
2063.0,2054.0,-29.0,-11.0,
2058.0,2015.0,-29.0,-11.0,
2068.0,1967.0,-29.0,-11.0,
2080.0,1983.0,-29.0,-11.0,
2065.0,2072.0,-29.0,-11.0,
2025.0,2083.0,-29.0,-11.0,
2056.0,2046.0,-29.0,-11.0,
2042.0,2081.0,-29.0,-11.0,
2027.0,2184.0,-29.0,-11.0,
2119.0,2132.0,-29.0,-11.0,
2127.0,2045.0,-29.0,-11.0,
2071.0,1965.0,-29.0,-11.0,
2025.0,2071.0,-29.0,-11.0,
1974.0,2070.0,-29.0,-11.0,
1971.0,2130.0,-29.0,-11.0,
2023.0,2103.0,-29.0,-11.0,
2022.0,1984.0,-29.0,-11.0,
2028.0,1957.0,-29.0,-11.0,
2042.0,1927.0,-29.0,-11.0,
2050.0,1927.0,-29.0,-11.0,
2090.0,1968.0,-29.0,-11.0,
2078.0,2019.0,-29.0,-11.0,
2036.0,2086.0,-29.0,-11.0,
2035.0,2105.0,-29.0,-11.0,
2007.0,2037.0,-29.0,-11.0,
2038.0,1933.0,-30.0,-11.0,
2051.0,1993.0,-30.0,-11.0,
2046.0,2047.0,-30.0,-11.0,
2041.0,2033.0,-30.0,-12.0,
2046.0,2015.0,-30.0,-12.0,
2049.0,2026.0,-30.0,-12.0,
2032.0,2069.0,-30.0,-12.0,
2036.0,2085.0,-30.0,-12.0,
2085.0,2106.0,-30.0,-12.0,
2072.0,2097.0,-30.0,-12.0,
2088.0,2010.0,-30.0,-12.0,
2092.0,2042.0,-30.0,-12.0,
2050.0,2012.0,-30.0,-12.0,
2021.0,2026.0,-30.0,-12.0,
1990.0,2020.0,-30.0,-12.0,
1977.0,2029.0,-30.0,-12.0,
2004.0,2043.0,-30.0,-12.0,
2028.0,2130.0,-30.0,-12.0,
2021.0,2123.0,-30.0,-12.0,
2054.0,2065.0,-30.0,-12.0,
2091.0,2068.0,-31.0,-12.0,
2056.0,1960.0,-31.0,-12.0,
2035.0,1962.0,-31.0,-12.0,
2049.0,1992.0,-31.0,-12.0,
2033.0,2097.0,-31.0,-12.0,
2044.0,2132.0,-30.0,-12.0,
2058.0,2002.0,-30.0,-12.0,
2047.0,2023.0,-30.0,-12.0,
2064.0,2019.0,-30.0,-12.0,
2057.0,2022.0,-30.0,-12.0,
2050.0,2099.0,-29.0,-12.0,
2003.0,2074.0,-29.0,-12.0,
2040.0,2036.0,-29.0,-12.0,
2090.0,2004.0,-28.0,-11.0,
2078.0,2031.0,-28.0,-11.0,
2064.0,2072.0,-28.0,-11.0,
2067.0,2079.0,-28.0,-11.0,
2062.0,2057.0,-27.0,-11.0,
2064.0,2058.0,-27.0,-11.0,
2059.0,2064.0,-27.0,-11.0,
2066.0,2115.0,-28.0,-11.0,
2067.0,2161.0,-28.0,-11.0,
2173.0,2068.0,-28.0,-11.0,
2208.0,1973.0,-28.0,-11.0,
2104.0,1955.0,-28.0,-11.0,
1996.0,1880.0,-28.0,-11.0,
1895.0,1993.0,-28.0,-11.0,
1872.0,2031.0,-29.0,-11.0,
1936.0,1914.0,-29.0,-11.0,
1970.0,1965.0,-29.0,-11.0,
2022.0,2012.0,-29.0,-11.0,
2066.0,2054.0,-29.0,-11.0,
2081.0,2091.0,-29.0,-11.0,
2055.0,2062.0,-29.0,-11.0,
2024.0,2122.0,-29.0,-12.0,
2001.0,2133.0,-29.0,-12.0,
2035.0,2019.0,0,
2045.0,1985.0,-29.0,-12.0,
2037.0,1993.0,-29.0,-12.0,
2062.0,2034.0,-29.0,-12.0,
2036.0,2093.0,-29.0,-12.0,
2054.0,2033.0,-29.0,-12.0,
2077.0,2029.0,-29.0,-12.0,
2047.0,2002.0,-29.0,-12.0,
2043.0,2065.0,-29.0,-12.0,
2077.0,2015.0,-29.0,-12.0,
2050.0,2050.0,-29.0,-13.0,
2051.0,2082.0,-29.0,-13.0,
2069.0,2119.0,-29.0,-13.0,
2072.0,2020.0,-30.0,-13.0,
2056.0,2027.0,-30.0,-13.0,
2051.0,2080.0,-30.0,-13.0,
2058.0,2013.0,-30.0,-13.0,
2076.0,2026.0,-30.0,-13.0,
2032.0,2063.0,-30.0,-13.0,
2041.0,2048.0,-30.0,-13.0,
2025.0,2109.0,-30.0,-13.0,
2050.0,2097.0,-30.0,-13.0,
2073.0,2038.0,-30.0,-13.0,
2065.0,2006.0,-29.0,-13.0,
2085.0,1927.0,-29.0,-13.0,
2083.0,1987.0,-29.0,-13.0,
2052.0,2037.0,-29.0,-13.0,
2044.0,2070.0,-28.0,-12.0,
2064.0,2039.0,0,
2096.0,2001.0,-28.0,-12.0,
2075.0,2015.0,-27.0,-12.0,
2060.0,2056.0,-27.0,-12.0,
2058.0,2076.0,-27.0,-12.0,
2063.0,2123.0,-26.0,-12.0,
2033.0,2154.0,-26.0,-12.0,
2021.0,2130.0,-26.0,-12.0,
2031.0,1955.0,-26.0,-12.0,
2044.0,2048.0,-25.0,-12.0,
2042.0,1980.0,-25.0,-12.0,
2061.0,2009.0,-25.0,-12.0,
2093.0,1943.0,-25.0,-11.0,
2083.0,2051.0,-25.0,-11.0,
2052.0,2097.0,-25.0,-11.0,
1965.0,2075.0,-25.0,-11.0,
1961.0,1939.0,-25.0,-11.0,
2007.0,1952.0,-25.0,-11.0,
2016.0,1973.0,-24.0,-11.0,
2119.0,2077.0,-24.0,-11.0,
2132.0,2098.0,-24.0,-11.0,
2069.0,2121.0,-24.0,-11.0,
1968.0,2091.0,-24.0,-11.0,
1958.0,2021.0,-24.0,-11.0,
2017.0,1906.0,-24.0,-11.0,
2042.0,2012.0,-24.0,-10.0,
2048.0,2055.0,-24.0,-10.0,
2046.0,2116.0,-24.0,-10.0,
2023.0,2108.0,-24.0,-10.0,
2056.0,2053.0,-24.0,-10.0,
2062.0,2027.0,-24.0,-10.0,
2043.0,1928.0,-24.0,-10.0,
2008.0,1956.0,-24.0,-10.0,
2044.0,1973.0,-24.0,-10.0,
2044.0,2002.0,-24.0,-10.0,
2011.0,2062.0,-24.0,-10.0,
2018.0,2061.0,-24.0,-10.0,
2016.0,2082.0,-23.0,-10.0,
2023.0,2058.0,-23.0,-10.0,
2070.0,1995.0,-23.0,-10.0,
2097.0,2089.0,-23.0,-10.0,
2055.0,2087.0,-23.0,-10.0,
2053.0,2004.0,-23.0,-10.0,
2078.0,2027.0,-22.0,-10.0,
2058.0,2072.0,-22.0,-10.0,
2069.0,2112.0,-22.0,-10.0,
2077.0,2111.0,-22.0,-10.0,
2109.0,2068.0,-22.0,-10.0,
2109.0,2093.0,-22.0,-10.0,
2072.0,2044.0,-22.0,-10.0,
2036.0,1878.0,-22.0,-10.0,
2002.0,1933.0,-22.0,-10.0,
2008.0,2000.0,-21.0,-10.0,
2020.0,1995.0,-21.0,-10.0,
2012.0,2034.0,-21.0,-11.0,
2011.0,2090.0,-21.0,-11.0,
2016.0,2117.0,-21.0,-11.0,
2052.0,2020.0,-21.0,-11.0,
2023.0,2044.0,-21.0,-11.0,
2038.0,2020.0,-20.0,-11.0,
2067.0,2027.0,-20.0,-11.0,
2042.0,2044.0,-20.0,-10.0,
2088.0,2077.0,-20.0,-10.0,
2077.0,2065.0,-19.0,-10.0,
2048.0,2029.0,-19.0,-10.0,
1993.0,1952.0,-19.0,-10.0,
2060.0,1970.0,-19.0,-10.0,
2093.0,2034.0,-18.0,-10.0,
2089.0,1995.0,-18.0,-10.0,
2060.0,2016.0,-18.0,-10.0,
2037.0,1993.0,-17.0,-10.0,
2001.0,1957.0,-17.0,-10.0,
2017.0,1970.0,-17.0,-10.0,
2054.0,2008.0,-16.0,-10.0,
2166.0,2055.0,-16.0,-10.0,
2158.0,2158.0,-16.0,-9.0,
2063.0,2064.0,-15.0,-9.0,
1976.0,2045.0,-15.0,-9.0,
1954.0,2080.0,-15.0,-9.0,
1982.0,2096.0,-14.0,-9.0,
1988.0,2050.0,-14.0,-9.0,
1981.0,2116.0,-14.0,-9.0,
2030.0,2081.0,-14.0,-9.0,
1995.0,2055.0,-14.0,-9.0,
2002.0,2007.0,-13.0,-9.0,
2059.0,2018.0,-13.0,-9.0,
2078.0,2082.0,-13.0,-9.0,
2061.0,2084.0,-13.0,-9.0,
2058.0,1961.0,-13.0,-9.0,
2035.0,1992.0,-13.0,-9.0,
2029.0,2019.0,-13.0,-9.0,
2024.0,2052.0,-13.0,-9.0,
2033.0,1993.0,-13.0,-9.0,
2045.0,1993.0,-13.0,-9.0,
2127.0,1997.0,-13.0,-9.0,
2092.0,2009.0,-13.0,-9.0,
2064.0,2008.0,-13.0,-9.0,
2022.0,2079.0,-13.0,-9.0,
1986.0,2062.0,-13.0,-9.0,
1995.0,2076.0,-13.0,-9.0,
2023.0,2127.0,-13.0,-9.0,
2053.0,2115.0,-12.0,-9.0,
2071.0,2048.0,-12.0,-9.0,
2093.0,1944.0,-12.0,-9.0,
2059.0,1893.0,-12.0,-9.0,
2032.0,1970.0,-12.0,-9.0,
2037.0,2016.0,-12.0,-9.0,
2053.0,2039.0,-12.0,-9.0,
2060.0,2071.0,-12.0,-9.0,
2059.0,2126.0,-12.0,-9.0,
2055.0,2080.0,-12.0,-9.0,
2056.0,2069.0,-12.0,-9.0,
2050.0,2088.0,-12.0,-9.0,
2064.0,2098.0,-12.0,-9.0,
2065.0,1986.0,-12.0,-9.0,
2047.0,2005.0,-12.0,-9.0,
2030.0,2040.0,-12.0,-9.0,
2047.0,2011.0,-12.0,-9.0,
2038.0,2045.0,-12.0,-9.0,
2053.0,2069.0,-12.0,-9.0,
2048.0,2053.0,-12.0,-9.0,
2031.0,1975.0,-12.0,-9.0,
2054.0,2038.0,-12.0,-9.0,
2060.0,1968.0,-11.0,-9.0,
2045.0,2002.0,-11.0,-9.0,
2043.0,2049.0,-11.0,-9.0,
2051.0,2086.0,-11.0,-9.0,
2061.0,2089.0,-11.0,-9.0,
2066.0,2028.0,-11.0,-9.0,
2065.0,2015.0,-11.0,-9.0,
2222.0,2102.0,-11.0,-9.0,
2204.0,2050.0,-11.0,-9.0,
2057.0,2002.0,-11.0,-9.0,
1950.0,2100.0,-11.0,-9.0,
1972.0,1981.0,-11.0,-9.0,
1978.0,2029.0,-11.0,-9.0,
1977.0,1976.0,-11.0,-9.0,
1991.0,2035.0,-11.0,-8.0,
2020.0,2004.0,-11.0,-8.0,
2014.0,2006.0,-11.0,-8.0,
2025.0,2019.0,-10.0,-8.0,
2046.0,1979.0,-10.0,-8.0,
2030.0,2082.0,-10.0,-8.0,
2066.0,2054.0,-10.0,-8.0,
2082.0,1982.0,-10.0,-8.0,
2070.0,2077.0,-9.0,-8.0,
2046.0,2034.0,-9.0,-8.0,
2011.0,2035.0,-9.0,-8.0,
2022.0,2053.0,-8.0,-8.0,
2015.0,2001.0,-8.0,-8.0,
2041.0,2019.0,-8.0,-8.0,
2022.0,2035.0,-7.0,-8.0,
2031.0,2098.0,-7.0,-8.0,
2071.0,2092.0,-7.0,-8.0,
2066.0,2104.0,-6.0,-8.0,
2071.0,2079.0,-6.0,-8.0,
2075.0,1995.0,-6.0,-8.0,
2072.0,2026.0,-6.0,-7.0,
2070.0,2029.0,-6.0,-7.0,
2066.0,1978.0,-6.0,-7.0,
2046.0,1959.0,-6.0,-7.0,
2033.0,2011.0,-6.0,-7.0,
2046.0,2078.0,-6.0,-7.0,
2057.0,2050.0,-6.0,-7.0,
2049.0,2024.0,-6.0,-7.0,
2065.0,2139.0,-6.0,-7.0,
2054.0,2176.0,-6.0,-7.0,
2068.0,2073.0,-6.0,-7.0,
2083.0,2055.0,-6.0,-7.0,
2093.0,1975.0,-6.0,-7.0,
2063.0,1906.0,-6.0,-7.0,
2066.0,1987.0,-6.0,-7.0,
2123.0,1949.0,-6.0,-7.0,
2108.0,1964.0,-6.0,-8.0,
2077.0,1964.0,-6.0,-8.0,
1986.0,1968.0,-6.0,-8.0,
2006.0,2020.0,-6.0,-8.0,
2043.0,2082.0,-7.0,-8.0,
2037.0,2073.0,-7.0,-8.0,
2157.0,2169.0,-7.0,-8.0,
2242.0,2101.0,-7.0,-8.0,
2214.0,2094.0,-7.0,-8.0,
2152.0,2038.0,-7.0,-8.0,
1916.0,1957.0,-7.0,-8.0,
1750.0,2035.0,-7.0,-8.0,
1731.0,2060.0,-7.0,-8.0,
1829.0,1982.0,-7.0,-8.0,
1906.0,1964.0,-7.0,-8.0,
1984.0,2054.0,-7.0,-8.0,
2006.0,2102.0,-7.0,-8.0,
2001.0,2118.0,-7.0,-8.0,
2011.0,2041.0,-7.0,-8.0,
2049.0,2062.0,-7.0,-8.0,
2065.0,2029.0,-7.0,-8.0,
2081.0,2019.0,-7.0,-8.0,
2097.0,2021.0,-7.0,-9.0,
2080.0,2024.0,-7.0,-9.0,
2102.0,2076.0,-7.0,-9.0,
2102.0,2079.0,-7.0,-9.0,
2106.0,2025.0,-7.0,-9.0,
2113.0,1980.0,-7.0,-9.0,
2113.0,2003.0,-6.0,-9.0,
2089.0,2056.0,-6.0,-8.0,
2066.0,2003.0,-6.0,-8.0,
2071.0,1960.0,-6.0,-8.0,
2078.0,2007.0,-5.0,-8.0,
2062.0,2061.0,-5.0,-8.0,
2041.0,2077.0,-5.0,-8.0,
2046.0,2085.0,-4.0,-8.0,
2036.0,1970.0,-4.0,-8.0,
2060.0,1965.0,-3.0,-7.0,
2059.0,2058.0,-3.0,-7.0,
2052.0,2016.0,-3.0,-7.0,
2032.0,2008.0,-2.0,-7.0,
2015.0,2064.0,-2.0,-6.0,
2023.0,2098.0,-2.0,-6.0,
2037.0,2089.0,-1.0,-5.0,
2047.0,2089.0,-1.0,-5.0,
2074.0,2001.0,0.0,-5.0,
2095.0,1972.0,0.0,-4.0,
2094.0,1991.0,0.0,-4.0,
2066.0,2082.0,0.0,-4.0,
2051.0,2095.0,0.0,-4.0,
2032.0,2130.0,0.0,-4.0,
2012.0,2137.0,0.0,-4.0,
2035.0,2073.0,1.0,-5.0,
2080.0,2018.0,1.0,-5.0,
2090.0,2028.0,1.0,-5.0,
2059.0,2132.0,1.0,-5.0,
2024.0,2091.0,1.0,-6.0,
1991.0,2039.0,0.0,-6.0,
2022.0,1920.0,0.0,-6.0,
2004.0,1763.0,0.0,-6.0,
2017.0,1879.0,0.0,-6.0,
2033.0,1983.0,0.0,-7.0,
2042.0,2020.0,0.0,-7.0,
2053.0,2069.0,0.0,-7.0,
2054.0,2055.0,0.0,-7.0,
2051.0,2069.0,0.0,-7.0,
2053.0,2097.0,0.0,-7.0,
2027.0,2102.0,0.0,-7.0,
2023.0,2122.0,-1.0,-7.0,
2023.0,2084.0,-1.0,-7.0,
2058.0,2115.0,-1.0,-7.0,
2063.0,2057.0,-1.0,-7.0,
2054.0,2001.0,-1.0,-7.0,
2059.0,1971.0,-1.0,-7.0,
2067.0,1995.0,-1.0,-7.0,
2057.0,2023.0,-1.0,-7.0,
2033.0,2059.0,-1.0,-7.0,
2040.0,2061.0,0.0,-7.0,
2147.0,2088.0,0.0,-7.0,
2154.0,2096.0,0.0,-7.0,
2064.0,2086.0,0.0,-7.0,
2002.0,2046.0,0.0,-7.0,
1956.0,2033.0,0.0,-6.0,
1972.0,2001.0,0.0,-6.0,
2004.0,1987.0,0.0,-6.0,
2006.0,2006.0,0.0,-6.0,
2041.0,2009.0,0.0,-6.0,
2037.0,2037.0,1.0,-6.0,
2047.0,2035.0,1.0,-6.0,
2043.0,2046.0,2.0,-6.0,
2069.0,2051.0,2.0,-6.0,
2085.0,2070.0,3.0,-6.0,
2082.0,2084.0,3.0,-6.0,
2081.0,2037.0,4.0,-6.0,
2073.0,2026.0,4.0,-5.0,
2060.0,1999.0,4.0,-5.0,
1998.0,2002.0,5.0,-5.0,
2045.0,2046.0,5.0,-5.0,
2051.0,2061.0,5.0,-5.0,
2050.0,2082.0,5.0,-5.0,
2042.0,1991.0,5.0,-5.0,
2100.0,2007.0,6.0,-5.0,
2057.0,2041.0,6.0,-5.0,
2061.0,2038.0,6.0,-5.0,
2056.0,2043.0,6.0,-5.0,
2056.0,1961.0,6.0,-5.0,
2037.0,2017.0,6.0,-5.0,
2049.0,2056.0,5.0,-6.0,
2051.0,2119.0,5.0,-6.0,
2052.0,2108.0,5.0,-6.0,
2048.0,2118.0,5.0,-6.0,
2037.0,2070.0,5.0,-6.0,
2026.0,1984.0,5.0,-6.0,
2029.0,1964.0,5.0,-6.0,
2036.0,2074.0,4.0,-6.0,
2050.0,2091.0,4.0,-6.0,
2063.0,2095.0,4.0,-6.0,
2077.0,1965.0,4.0,-6.0,
2044.0,1920.0,4.0,-6.0,
2052.0,1919.0,4.0,-6.0,
2083.0,2004.0,4.0,-7.0,
2055.0,2055.0,3.0,-7.0,
2043.0,2060.0,3.0,-7.0,
2037.0,2092.0,3.0,-7.0,
2103.0,2097.0,3.0,-7.0,
2094.0,2040.0,3.0,-7.0,
2054.0,2049.0,3.0,-7.0,
2023.0,2018.0,3.0,-7.0,
1997.0,2022.0,3.0,-7.0,
2004.0,2016.0,3.0,-7.0,
2017.0,2036.0,3.0,-7.0,
2014.0,2068.0,3.0,-7.0,
2027.0,2120.0,3.0,-7.0,
2035.0,2112.0,3.0,-7.0,
2051.0,2121.0,3.0,-7.0,
2051.0,1967.0,3.0,-7.0,
2052.0,2036.0,4.0,-7.0,
2049.0,2030.0,4.0,-7.0,
2042.0,2043.0,4.0,-6.0,
2043.0,2019.0,4.0,-6.0,
2042.0,1990.0,5.0,-6.0,
2053.0,2051.0,5.0,-6.0,
2040.0,2077.0,5.0,-6.0,
2036.0,2064.0,5.0,-6.0,
2043.0,2049.0,6.0,-6.0,
2043.0,1976.0,6.0,-6.0,
2061.0,1982.0,6.0,-6.0,
2058.0,2023.0,6.0,-6.0,
2052.0,2041.0,7.0,-6.0,
2048.0,2025.0,7.0,-6.0,
2057.0,2055.0,7.0,-6.0,
2048.0,2075.0,7.0,-6.0,
2037.0,2051.0,7.0,-6.0,
2044.0,2089.0,7.0,-6.0,
2042.0,2078.0,7.0,-6.0,
2040.0,2050.0,7.0,-6.0,
2054.0,1998.0,7.0,-6.0,
2034.0,2018.0,7.0,-6.0,
2017.0,2055.0,7.0,-6.0,
2013.0,2013.0,6.0,-6.0,
2036.0,2008.0,6.0,-6.0,
2054.0,2041.0,6.0,-6.0,
2050.0,2029.0,6.0,-6.0,
2013.0,2022.0,5.0,-7.0,
2068.0,2023.0,5.0,-7.0,
2059.0,2054.0,5.0,-7.0,
2072.0,2081.0,5.0,-7.0,
2049.0,2058.0,5.0,-7.0,
2053.0,2003.0,5.0,-7.0,
2039.0,2045.0,5.0,-7.0,
2037.0,2021.0,5.0,-7.0,
2053.0,2065.0,5.0,-7.0,
2049.0,2099.0,5.0,-7.0,
2046.0,2080.0,5.0,-7.0,
2040.0,2032.0,6.0,-7.0,
2042.0,2006.0,6.0,-7.0,
2034.0,2018.0,6.0,-7.0,
2033.0,2054.0,6.0,-7.0,
2041.0,2081.0,6.0,-7.0,
2051.0,2027.0,6.0,-7.0,
2067.0,1984.0,7.0,-7.0,
2046.0,1956.0,7.0,-6.0,
2049.0,1957.0,7.0,-6.0,
2039.0,2006.0,7.0,-6.0,
2035.0,2040.0,8.0,-6.0,
2035.0,2006.0,8.0,-6.0,
2024.0,2034.0,8.0,-6.0,
2029.0,2072.0,8.0,-6.0,
2033.0,2083.0,9.0,-6.0,
2046.0,2109.0,9.0,-6.0,
2062.0,2082.0,9.0,-6.0,
2077.0,2083.0,9.0,-6.0,
2093.0,2051.0,10.0,-6.0,
2081.0,1996.0,10.0,-6.0,
2067.0,2000.0,10.0,-5.0,
2052.0,2026.0,10.0,-5.0,
2044.0,2054.0,11.0,-5.0,
2054.0,2078.0,11.0,-5.0,
2045.0,2067.0,11.0,-5.0,
2059.0,2036.0,11.0,-5.0,
2055.0,2043.0,11.0,-5.0,
2059.0,2032.0,12.0,-5.0,
2044.0,2060.0,12.0,-6.0,
2048.0,2063.0,12.0,-6.0,
2028.0,2075.0,12.0,-6.0,
2033.0,2057.0,12.0,-6.0,
2038.0,2068.0,12.0,-6.0,
2047.0,2073.0,12.0,-6.0,
2048.0,2042.0,12.0,-6.0,
2046.0,2031.0,11.0,-6.0,
2050.0,2037.0,11.0,-6.0,
2045.0,2032.0,11.0,-6.0,
2042.0,2040.0,11.0,-7.0,
2026.0,2070.0,11.0,-7.0,
2029.0,2027.0,10.0,-7.0,
2033.0,2081.0,10.0,-7.0,
2028.0,2059.0,10.0,-7.0,
2057.0,2076.0,10.0,-7.0,
2048.0,2027.0,9.0,-7.0,
2051.0,1976.0,9.0,-7.0,
2047.0,2021.0,9.0,-7.0,
2042.0,2022.0,9.0,-7.0,
2032.0,2028.0,9.0,-7.0,
2031.0,2055.0,8.0,-7.0,
2038.0,2087.0,8.0,-7.0,
2057.0,2072.0,8.0,-7.0,
2056.0,2065.0,8.0,-7.0,
2072.0,2016.0,8.0,-7.0,
2065.0,2037.0,8.0,-7.0,
2053.0,2034.0,8.0,-8.0,
2051.0,2039.0,8.0,-8.0,
2030.0,2045.0,7.0,-8.0,
2034.0,2066.0,7.0,-8.0,
2044.0,2076.0,7.0,-8.0,
2044.0,2048.0,7.0,-8.0,
2054.0,2049.0,7.0,-8.0,
2054.0,2046.0,7.0,-8.0,
2059.0,2022.0,7.0,-8.0,
2054.0,2012.0,7.0,-7.0,
2053.0,2022.0,7.0,-7.0,
2053.0,2030.0,7.0,-7.0,
2029.0,2056.0,7.0,-7.0,
2053.0,2092.0,7.0,-7.0,
2051.0,2063.0,7.0,-7.0,
2073.0,2047.0,7.0,-7.0,
2075.0,2030.0,7.0,-7.0,
2071.0,1988.0,7.0,-7.0,
2049.0,2018.0,7.0,-7.0,
2048.0,2020.0,7.0,-7.0,
2044.0,2007.0,7.0,-7.0,
2032.0,2067.0,7.0,-7.0,
2044.0,2074.0,7.0,-7.0,
2056.0,2042.0,7.0,-7.0,
2058.0,2076.0,7.0,-7.0,
2060.0,2055.0,7.0,-7.0,
2062.0,2042.0,7.0,-7.0,
2058.0,2042.0,7.0,-7.0,
2058.0,2034.0,7.0,-7.0,
2045.0,2053.0,7.0,-7.0,
2046.0,2032.0,7.0,-7.0,
2035.0,2058.0,7.0,-7.0,
2037.0,2054.0,7.0,-7.0,
2043.0,2064.0,7.0,-7.0,
2058.0,2028.0,7.0,-7.0,
2057.0,2049.0,7.0,-7.0,
2055.0,2033.0,7.0,-7.0,
2051.0,2037.0,7.0,-7.0,
2031.0,2051.0,7.0,-7.0,
2046.0,2067.0,7.0,-7.0,
2058.0,2082.0,0,
2048.0,2060.0,7.0,-7.0,
2052.0,2041.0,7.0,-7.0,
2049.0,2020.0,7.0,-7.0,
2059.0,2041.0,7.0,-7.0,
2056.0,2026.0,7.0,-7.0,
2033.0,2034.0,7.0,-7.0,
2046.0,2038.0,7.0,-7.0,
2039.0,2042.0,7.0,-7.0,
2045.0,2049.0,7.0,-7.0,
2053.0,2027.0,7.0,-7.0,
2050.0,2015.0,7.0,-7.0,
2064.0,2033.0,7.0,-7.0,
2064.0,2043.0,7.0,-7.0,
2059.0,2021.0,7.0,-7.0,
2056.0,2020.0,7.0,-7.0,
2060.0,2059.0,7.0,-7.0,
2046.0,2063.0,8.0,-7.0,
2030.0,2069.0,8.0,-7.0,
2043.0,2055.0,8.0,-7.0,
2041.0,2036.0,8.0,-7.0,
2058.0,2043.0,8.0,-7.0,
2061.0,2057.0,8.0,-7.0,
2057.0,2062.0,8.0,-7.0,
2035.0,2000.0,8.0,-7.0,
2042.0,2008.0,8.0,-7.0,
2034.0,2038.0,8.0,-7.0,
2040.0,2060.0,8.0,-7.0,
2047.0,2056.0,8.0,-7.0,
2045.0,2020.0,8.0,-7.0,
2050.0,2005.0,8.0,-7.0,
2048.0,2043.0,8.0,-7.0,
2055.0,2036.0,8.0,-7.0,
2051.0,2027.0,8.0,-7.0,
2045.0,2029.0,8.0,-7.0,
2041.0,2051.0,8.0,-7.0,
2044.0,2071.0,8.0,-7.0,
2038.0,2070.0,8.0,-7.0,
2045.0,2045.0,8.0,-7.0,
2055.0,2044.0,8.0,-7.0,
2072.0,2054.0,8.0,-7.0,
2069.0,2039.0,8.0,-7.0,
2045.0,2019.0,8.0,-7.0,
2050.0,2046.0,8.0,-7.0,
2042.0,2043.0,8.0,-7.0,
2046.0,2052.0,8.0,-7.0,
2051.0,2022.0,8.0,-7.0,
2058.0,2037.0,8.0,-7.0,
2060.0,2038.0,8.0,-7.0,
2061.0,2046.0,8.0,-8.0,
2061.0,2034.0,8.0,-7.0,
2059.0,2042.0,8.0,-7.0,
2048.0,2061.0,8.0,-7.0,
2028.0,2053.0,8.0,-7.0,
2047.0,2057.0,8.0,-7.0,
2047.0,2051.0,8.0,-7.0,
2053.0,2046.0,8.0,-7.0,
2045.0,2039.0,8.0,-7.0,
2058.0,2031.0,8.0,-7.0,
2062.0,2033.0,8.0,-6.0,
2051.0,2023.0,8.0,-7.0,
2035.0,2027.0,8.0,-7.0,
2042.0,2040.0,8.0,-7.0,
2027.0,2047.0,8.0,-7.0,
2036.0,2037.0,8.0,-7.0,
2041.0,2016.0,8.0,-7.0,
2056.0,2027.0,8.0,-7.0,
2060.0,2014.0,8.0,-7.0,
2057.0,2020.0,8.0,-7.0,
2046.0,2024.0,8.0,-7.0,
2035.0,2027.0,9.0,-7.0,
2033.0,2059.0,9.0,-7.0,
2043.0,2045.0,9.0,-7.0,
2053.0,2042.0,9.0,-7.0,
2049.0,2036.0,9.0,-7.0,
2065.0,2021.0,9.0,-7.0,
2056.0,2004.0,9.0,-6.0,
2063.0,2018.0,9.0,-6.0,
2042.0,1998.0,9.0,-6.0,
2051.0,2019.0,9.0,-6.0,
2036.0,2035.0,9.0,-6.0,
2033.0,2050.0,9.0,-6.0,
2043.0,2051.0,9.0,-6.0,
2045.0,2030.0,9.0,-6.0,
2044.0,2017.0,9.0,-6.0,
2061.0,2004.0,9.0,-6.0,
2050.0,2091.0,9.0,-6.0,
2062.0,2083.0,9.0,-6.0,
2049.0,2034.0,9.0,-6.0,
2033.0,2067.0,10.0,-6.0,
2043.0,2071.0,9.0,-7.0,
2045.0,2072.0,10.0,-7.0,
2051.0,2048.0,10.0,-7.0,
2061.0,2030.0,10.0,-6.0,
2064.0,2026.0,10.0,-6.0,
2053.0,2031.0,10.0,-6.0,
2034.0,2009.0,10.0,-6.0,
2051.0,2035.0,10.0,-6.0,
2042.0,2039.0,10.0,-7.0,
2042.0,2080.0,10.0,-6.0,
2050.0,2058.0,10.0,-6.0,
2053.0,2044.0,10.0,-6.0,
2056.0,2031.0,10.0,-6.0,
2054.0,2038.0,10.0,-7.0,
2043.0,2029.0,10.0,-7.0,
2051.0,2021.0,10.0,-7.0,
2046.0,2027.0,10.0,-7.0,
2048.0,2036.0,9.0,-7.0,
2049.0,2054.0,9.0,-7.0,
2041.0,2036.0,9.0,-7.0,
2061.0,2053.0,9.0,-7.0,
2052.0,2058.0,9.0,-7.0,
2073.0,2037.0,9.0,-7.0,
2044.0,2030.0,9.0,-7.0,
2045.0,1993.0,9.0,-7.0,
2032.0,2010.0,9.0,-7.0,
2041.0,2037.0,9.0,-7.0,
2037.0,2061.0,9.0,-7.0,
2038.0,2062.0,9.0,-7.0,
2053.0,2057.0,9.0,-7.0,
2066.0,2039.0,9.0,-7.0,
2088.0,2042.0,9.0,-7.0,
2065.0,2023.0,9.0,-7.0,
2061.0,2057.0,0,
2056.0,2044.0,9.0,-7.0,
2040.0,2039.0,9.0,-7.0,
2046.0,2068.0,9.0,-7.0,
2063.0,2046.0,9.0,-6.0,
2050.0,2041.0,9.0,-6.0,
2065.0,2041.0,9.0,-6.0,
2064.0,2031.0,9.0,-6.0,
2055.0,2043.0,9.0,-6.0,
2042.0,2014.0,9.0,-6.0,
2042.0,2021.0,9.0,-6.0,
2039.0,2031.0,9.0,-6.0,
2036.0,2049.0,9.0,-6.0,
2032.0,2040.0,9.0,-6.0,
2046.0,2047.0,9.0,-6.0,
2049.0,2035.0,9.0,-6.0,
2053.0,2033.0,9.0,-6.0,
2047.0,2042.0,9.0,-6.0,
2057.0,2031.0,9.0,-6.0,
2033.0,2038.0,9.0,-6.0,
2037.0,2051.0,9.0,-6.0,
2037.0,2050.0,9.0,-6.0,
2036.0,2064.0,9.0,-6.0,
2057.0,2050.0,9.0,-7.0,
2056.0,2036.0,9.0,-6.0,
2057.0,2024.0,9.0,-6.0,
2047.0,2031.0,9.0,-6.0,
2045.0,2037.0,9.0,-6.0,
2035.0,2016.0,9.0,-6.0,
2036.0,2039.0,9.0,-6.0,
2038.0,2059.0,9.0,-7.0,
2066.0,2049.0,9.0,-7.0,
2049.0,2056.0,9.0,-7.0,
2062.0,2049.0,9.0,-7.0,
2064.0,2030.0,9.0,-7.0,
2051.0,2011.0,9.0,-6.0,
2045.0,2018.0,9.0,-6.0,
2042.0,2042.0,9.0,-6.0,
2036.0,2075.0,9.0,-6.0,
2030.0,2035.0,9.0,-6.0,
2056.0,2042.0,9.0,-6.0,
2059.0,2056.0,9.0,-6.0,
2053.0,2049.0,9.0,-6.0,
2078.0,2029.0,9.0,-6.0,
2056.0,2050.0,9.0,-6.0,
2063.0,2037.0,9.0,-6.0,
2042.0,2038.0,9.0,-6.0,
2042.0,2030.0,9.0,-6.0,
2042.0,2058.0,9.0,-6.0,
2041.0,2039.0,9.0,-6.0,
2051.0,2038.0,9.0,-6.0,
2069.0,2017.0,9.0,-7.0,
2061.0,2032.0,9.0,-7.0,
2063.0,2049.0,9.0,-7.0,
2047.0,2036.0,9.0,-7.0,
2043.0,2016.0,9.0,-7.0,
2032.0,2032.0,9.0,-7.0,
2050.0,2044.0,9.0,-7.0,
2057.0,2039.0,9.0,-7.0,
2045.0,2038.0,9.0,-7.0,
2057.0,2035.0,9.0,-7.0,
2062.0,2025.0,9.0,-7.0,
2058.0,2029.0,9.0,-7.0,
2066.0,2006.0,9.0,-7.0,
2071.0,2034.0,9.0,-7.0,
2028.0,2041.0,9.0,-7.0,
2052.0,2061.0,9.0,-7.0,
2048.0,2060.0,9.0,-7.0,
2059.0,2051.0,9.0,-7.0,
2074.0,2050.0,9.0,-7.0,
2073.0,2033.0,9.0,-7.0,
2056.0,2047.0,9.0,-7.0,
2057.0,2040.0,9.0,-7.0,
2034.0,2033.0,9.0,-7.0,
2034.0,2044.0,9.0,-7.0,
2034.0,2098.0,9.0,-7.0,
2045.0,2068.0,9.0,-7.0,
2050.0,2046.0,9.0,-7.0,
2059.0,2044.0,9.0,-7.0,
2062.0,2045.0,9.0,-7.0,
2059.0,2032.0,9.0,-7.0,
2049.0,2022.0,9.0,-7.0,
2043.0,2042.0,9.0,-7.0,
2034.0,2044.0,9.0,-7.0,
2049.0,2037.0,9.0,-7.0,
2043.0,2064.0,9.0,-7.0,
2034.0,2018.0,9.0,-7.0,
2055.0,2014.0,9.0,-7.0,
2057.0,2018.0,9.0,-7.0,
2063.0,2027.0,9.0,-7.0,
2062.0,2023.0,9.0,-7.0,
2057.0,2051.0,9.0,-7.0,
2040.0,2066.0,9.0,-7.0,
2046.0,2068.0,9.0,-7.0,
2037.0,2059.0,9.0,-7.0,
2049.0,2042.0,9.0,-7.0,
2061.0,2030.0,9.0,-7.0,
2064.0,2013.0,9.0,-7.0,
2056.0,2026.0,9.0,-6.0,
2051.0,2031.0,9.0,-6.0,
2046.0,2014.0,9.0,-6.0,
2048.0,2042.0,9.0,-6.0,
2036.0,2062.0,9.0,-6.0,
2044.0,2070.0,9.0,-6.0,
2057.0,2041.0,9.0,-6.0,
2054.0,2039.0,9.0,-6.0,
2072.0,2050.0,9.0,-6.0,
2059.0,2034.0,9.0,-6.0,
2056.0,2030.0,9.0,-6.0,
2052.0,2045.0,9.0,-6.0,
2047.0,2071.0,9.0,-6.0,
2048.0,2063.0,9.0,-6.0,
2034.0,2058.0,10.0,-6.0,
2050.0,2044.0,10.0,-6.0,
2057.0,2021.0,10.0,-6.0,
2062.0,2034.0,10.0,-6.0,
2053.0,2048.0,10.0,-6.0,
2049.0,2018.0,10.0,-6.0,
2037.0,2031.0,10.0,-6.0,
2044.0,2036.0,9.0,-6.0,
2038.0,2055.0,9.0,-6.0,
2045.0,2049.0,9.0,-6.0,
2048.0,2045.0,9.0,-6.0,
2063.0,2025.0,9.0,-6.0,
2052.0,2031.0,9.0,-6.0,
2059.0,2046.0,9.0,-6.0,
2037.0,2039.0,9.0,-6.0,
2049.0,2047.0,9.0,-6.0,
2036.0,2038.0,9.0,-6.0,
2044.0,2052.0,9.0,-6.0,
2046.0,2059.0,9.0,-6.0,
2043.0,2045.0,9.0,-6.0,
2050.0,2033.0,9.0,-6.0,
2044.0,2018.0,9.0,-6.0,
2065.0,2022.0,9.0,-6.0,
2052.0,2003.0,9.0,-6.0,
2043.0,2026.0,9.0,-6.0,
2050.0,2028.0,9.0,-7.0,
2043.0,2061.0,9.0,-7.0,
2048.0,2049.0,9.0,-7.0,
2051.0,2040.0,9.0,-6.0,
2049.0,2036.0,0,
2059.0,2007.0,9.0,-6.0,
2056.0,2039.0,9.0,-6.0,
2043.0,2026.0,9.0,-6.0,
2051.0,2035.0,9.0,-6.0,
2039.0,2035.0,9.0,-6.0,
2048.0,2055.0,9.0,-6.0,
2039.0,2040.0,9.0,-6.0,
2041.0,2046.0,9.0,-6.0,
2059.0,2037.0,9.0,-6.0,
2071.0,2028.0,9.0,-6.0,
2051.0,2051.0,9.0,-6.0,
2052.0,2033.0,9.0,-6.0,
2039.0,2041.0,9.0,-6.0,
2038.0,2033.0,9.0,-6.0,
2036.0,2082.0,9.0,-6.0,
2039.0,2080.0,9.0,-7.0,
2057.0,2066.0,9.0,-7.0,
2058.0,2018.0,9.0,-7.0,
2063.0,2054.0,9.0,-7.0,
2071.0,2034.0,9.0,-6.0,
2071.0,2045.0,9.0,-6.0,
2060.0,2038.0,9.0,-6.0,
2041.0,2041.0,9.0,-6.0,
2044.0,2056.0,9.0,-6.0,
2098.0,2070.0,9.0,-6.0,
2055.0,2033.0,9.0,-6.0,
2057.0,2017.0,9.0,-6.0,
2064.0,2027.0,9.0,-6.0,
2075.0,2037.0,9.0,-6.0,
2058.0,2026.0,9.0,-6.0,
2086.0,2039.0,9.0,-6.0,
2037.0,2041.0,9.0,-6.0,
2032.0,2043.0,9.0,-6.0,
2042.0,2055.0,9.0,-6.0,
2036.0,2054.0,9.0,-6.0,
2044.0,2044.0,9.0,-6.0,
2060.0,2029.0,9.0,-6.0,
2046.0,2002.0,9.0,-6.0,
2032.0,2036.0,9.0,-6.0,
2032.0,2026.0,9.0,-6.0,
2030.0,2053.0,9.0,-6.0,
2046.0,2081.0,9.0,-6.0,
2048.0,2086.0,9.0,-6.0,
2054.0,2049.0,9.0,-6.0,
2049.0,1980.0,9.0,-6.0,
2050.0,1990.0,9.0,-6.0,
2054.0,2070.0,9.0,-7.0,
2046.0,2038.0,9.0,-7.0,
2031.0,2026.0,9.0,-6.0,
2034.0,2035.0,9.0,-6.0,
2030.0,2056.0,9.0,-6.0,
2043.0,2051.0,9.0,-6.0,
2050.0,2052.0,9.0,-6.0,
2057.0,2045.0,9.0,-6.0,
2054.0,2042.0,9.0,-7.0,
2056.0,2024.0,9.0,-7.0,
2053.0,2018.0,9.0,-7.0,
2049.0,2018.0,9.0,-7.0,
2037.0,2037.0,9.0,-7.0,
2052.0,2038.0,9.0,-7.0,
2052.0,2042.0,9.0,-6.0,
2043.0,2032.0,9.0,-6.0,
2047.0,2016.0,9.0,-6.0,
2069.0,2025.0,9.0,-6.0,
2054.0,2044.0,9.0,-6.0,
2053.0,2031.0,9.0,-6.0,
2048.0,2038.0,9.0,-6.0,
2059.0,2046.0,9.0,-7.0,
2036.0,2053.0,9.0,-7.0,
2042.0,2067.0,9.0,-7.0,
2056.0,2053.0,9.0,-7.0,
2053.0,2032.0,9.0,-7.0,
2058.0,2037.0,9.0,-7.0,
2056.0,2038.0,9.0,-7.0,
2033.0,2020.0,9.0,-7.0,
2038.0,2029.0,9.0,-7.0,
2040.0,2036.0,9.0,-7.0,
2038.0,2047.0,9.0,-7.0,
2033.0,2052.0,9.0,-7.0,
2046.0,2047.0,9.0,-7.0,
2064.0,2030.0,9.0,-7.0,
2061.0,2016.0,9.0,-7.0,
2055.0,2011.0,9.0,-7.0,
2054.0,2005.0,9.0,-7.0,
2051.0,2027.0,9.0,-7.0,
2035.0,2073.0,9.0,-7.0,
2047.0,2054.0,9.0,-7.0,
2047.0,2059.0,9.0,-6.0,
2056.0,2046.0,9.0,-6.0,
2055.0,2026.0,9.0,-6.0,
2073.0,2028.0,9.0,-6.0,
2054.0,2037.0,9.0,-6.0,
2048.0,2028.0,9.0,-6.0,
2043.0,2028.0,9.0,-6.0,
2032.0,2066.0,9.0,-6.0,
2039.0,2040.0,9.0,-6.0,
2041.0,2050.0,9.0,-6.0,
2050.0,2058.0,9.0,-6.0,
2041.0,2046.0,9.0,-6.0,
2057.0,2003.0,9.0,-6.0,
2046.0,2025.0,9.0,-6.0,
2041.0,2012.0,9.0,-6.0,
2046.0,2017.0,9.0,-6.0,
2044.0,2021.0,9.0,-6.0,
2033.0,2041.0,9.0,-6.0,
2045.0,2043.0,9.0,-6.0,
2040.0,2013.0,9.0,-7.0,
2060.0,2041.0,9.0,-7.0,
2058.0,2032.0,9.0,-7.0,
2065.0,2046.0,9.0,-7.0,
2061.0,2021.0,9.0,-6.0,
2043.0,2041.0,9.0,-6.0,
2040.0,2036.0,9.0,-7.0,
2040.0,2048.0,9.0,-7.0,
2040.0,2060.0,9.0,-7.0,
2048.0,2042.0,9.0,-6.0,
2049.0,2024.0,9.0,-6.0,
2059.0,2038.0,9.0,-6.0,
2056.0,2045.0,9.0,-6.0,
2052.0,2024.0,9.0,-6.0,
2050.0,2025.0,9.0,-6.0,
2044.0,2027.0,9.0,-6.0,
2045.0,2044.0,9.0,-6.0,
2029.0,2066.0,9.0,-6.0,
2061.0,2051.0,9.0,-6.0,
2051.0,2032.0,9.0,-6.0,
2058.0,2048.0,9.0,-6.0,
2055.0,2036.0,9.0,-6.0,
2049.0,2035.0,9.0,-6.0,
2048.0,2030.0,9.0,-6.0,
2023.0,2049.0,9.0,-6.0,
2030.0,2075.0,10.0,-6.0,
2036.0,2056.0,10.0,-6.0,
2054.0,2063.0,9.0,-6.0,
2048.0,2039.0,9.0,-6.0,
2066.0,2029.0,9.0,-6.0,
2060.0,2017.0,9.0,-6.0,
2063.0,2014.0,9.0,-6.0,
2044.0,2008.0,9.0,-6.0,
2029.0,2010.0,9.0,-6.0,
2043.0,2040.0,9.0,-6.0,
2039.0,2088.0,9.0,-6.0,
2055.0,2044.0,9.0,-6.0,
2050.0,2032.0,9.0,-6.0,
2068.0,2038.0,9.0,-6.0,
2048.0,2046.0,9.0,-6.0,
2046.0,2024.0,9.0,-6.0,
2035.0,2022.0,9.0,-6.0,
2038.0,2009.0,9.0,-6.0,
2027.0,2049.0,9.0,-6.0,
2041.0,2069.0,9.0,-6.0,
2050.0,2050.0,9.0,-6.0,
2048.0,2032.0,9.0,-6.0,
2049.0,2024.0,9.0,-6.0,
2045.0,2010.0,9.0,-6.0,
2051.0,2007.0,9.0,-6.0,
2054.0,2003.0,9.0,-6.0,
2040.0,2017.0,9.0,-6.0,
2038.0,2029.0,9.0,-6.0,
2041.0,2026.0,9.0,-6.0,
2028.0,2027.0,9.0,-6.0,
2049.0,2044.0,9.0,-6.0,
2049.0,2035.0,9.0,-6.0,
2059.0,2024.0,9.0,-6.0,
2068.0,2019.0,9.0,-6.0,
2043.0,2036.0,9.0,-6.0,
2032.0,2020.0,9.0,-6.0,
2027.0,2042.0,9.0,-6.0,
2048.0,2046.0,9.0,-6.0,
2048.0,2041.0,9.0,-6.0,
2056.0,2047.0,9.0,-6.0,
2054.0,2051.0,9.0,-6.0,
2054.0,2040.0,9.0,-6.0,
2045.0,2038.0,9.0,-6.0,
2049.0,2026.0,9.0,-6.0,
2035.0,2035.0,9.0,-6.0,
2041.0,2033.0,9.0,-6.0,
2039.0,2062.0,9.0,-6.0,
2044.0,2051.0,9.0,-6.0,
2061.0,2041.0,9.0,-6.0,
2061.0,2032.0,9.0,-6.0,
2055.0,2024.0,9.0,-6.0,
2058.0,2023.0,9.0,-6.0,
2041.0,2025.0,9.0,-6.0,
2048.0,2053.0,9.0,-6.0,
2028.0,2048.0,9.0,-6.0,
2041.0,2064.0,9.0,-6.0,
2039.0,2047.0,9.0,-7.0,
2053.0,2050.0,9.0,-7.0,
2070.0,2015.0,9.0,-6.0,
2061.0,2012.0,9.0,-6.0,
2041.0,2026.0,9.0,-6.0,
2055.0,2020.0,9.0,-6.0,
2038.0,2043.0,9.0,-6.0,
2037.0,2068.0,9.0,-6.0,
2040.0,2054.0,9.0,-6.0,
2047.0,2043.0,9.0,-6.0,
2062.0,2045.0,9.0,-6.0,
2063.0,2043.0,9.0,-6.0,
2064.0,2035.0,9.0,-6.0,
2046.0,2007.0,9.0,-6.0,
2043.0,2008.0,9.0,-6.0,
2050.0,2028.0,9.0,-6.0,
2043.0,2024.0,9.0,-6.0,
2042.0,2035.0,9.0,-6.0,
2051.0,2054.0,9.0,-6.0,
2061.0,2027.0,9.0,-6.0,
2055.0,1999.0,9.0,-7.0,
2044.0,1982.0,9.0,-6.0,
2013.0,2031.0,9.0,-6.0,
2039.0,2028.0,9.0,-6.0,
2041.0,2056.0,9.0,-7.0,
2033.0,2041.0,9.0,-7.0,
2049.0,2059.0,9.0,-7.0,
2059.0,2053.0,9.0,-7.0,
2059.0,2038.0,9.0,-6.0,
2065.0,2025.0,9.0,-6.0,
2055.0,2041.0,9.0,-6.0,
2053.0,2046.0,9.0,-7.0,
2049.0,2022.0,9.0,-6.0,
2035.0,2052.0,9.0,-6.0,
2044.0,2052.0,9.0,-6.0,
2039.0,2045.0,9.0,-6.0,
2045.0,2042.0,9.0,-6.0,
2053.0,2039.0,9.0,-6.0,
2071.0,2041.0,9.0,-6.0,
2061.0,2044.0,9.0,-6.0,
2059.0,2040.0,9.0,-6.0,
2044.0,2029.0,9.0,-6.0,
2043.0,2061.0,9.0,-6.0,
2042.0,2073.0,9.0,-6.0,
2060.0,2077.0,9.0,-6.0,
2065.0,2062.0,9.0,-6.0,
2066.0,2047.0,9.0,-6.0,
2068.0,2023.0,9.0,-6.0,
2064.0,2024.0,9.0,-6.0,
2045.0,2044.0,9.0,-6.0,
2048.0,2055.0,9.0,-6.0,
2047.0,2039.0,9.0,-6.0,
2042.0,2050.0,9.0,-6.0,
2054.0,2064.0,10.0,-6.0,
2050.0,2037.0,9.0,-6.0,
2063.0,2019.0,9.0,-6.0,
2058.0,2033.0,9.0,-6.0,
2052.0,2043.0,9.0,-6.0,
2053.0,2033.0,9.0,-6.0,
2054.0,2031.0,9.0,-6.0,
2028.0,2027.0,9.0,-6.0,
2033.0,2042.0,9.0,-6.0,
2049.0,2052.0,9.0,-6.0,
2049.0,2040.0,9.0,-6.0,
2043.0,2019.0,9.0,-6.0,
2068.0,2025.0,9.0,-6.0,
2047.0,2028.0,9.0,-6.0,
2050.0,2027.0,9.0,-6.0,
2047.0,2009.0,9.0,-6.0,
2029.0,2040.0,9.0,-6.0,
2036.0,2042.0,9.0,-6.0,
2046.0,2046.0,9.0,-6.0,
2055.0,2048.0,9.0,-6.0,
2046.0,2037.0,9.0,-6.0,
2053.0,2034.0,9.0,-6.0,
2046.0,2037.0,9.0,-6.0,
2044.0,2030.0,9.0,-6.0,
2034.0,2041.0,9.0,-6.0,
2049.0,2055.0,9.0,-6.0,
2032.0,2053.0,9.0,-6.0,
2036.0,2067.0,9.0,-6.0,
2040.0,2053.0,9.0,-6.0,
2054.0,2047.0,9.0,-6.0,
2061.0,2035.0,9.0,-6.0,
2063.0,2032.0,9.0,-6.0,
2058.0,2022.0,9.0,-6.0,
2061.0,2028.0,9.0,-6.0,
2048.0,2042.0,9.0,-6.0,
2057.0,2045.0,9.0,-6.0,
2053.0,2067.0,9.0,-6.0,
2058.0,2065.0,9.0,-6.0,
2060.0,2033.0,9.0,-6.0,
2068.0,2034.0,9.0,-6.0,
2045.0,2032.0,9.0,-6.0,
2057.0,2033.0,9.0,-6.0,
2053.0,2059.0,9.0,-6.0,
2040.0,2088.0,9.0,-6.0,
2051.0,2106.0,9.0,-6.0,
2053.0,2060.0,9.0,-6.0,
2056.0,2015.0,9.0,-6.0,
2048.0,1978.0,9.0,-6.0,
2067.0,1948.0,9.0,-6.0,
2062.0,1999.0,9.0,-6.0,
2065.0,2066.0,9.0,-6.0,
2046.0,2123.0,9.0,-6.0,
2021.0,2088.0,9.0,-6.0,
2017.0,2022.0,9.0,-6.0,
2048.0,1982.0,9.0,-6.0,
2058.0,1996.0,9.0,-6.0,
2067.0,1990.0,9.0,-6.0,
2101.0,2038.0,9.0,-6.0,
2153.0,2028.0,9.0,-6.0,
2116.0,2051.0,9.0,-6.0,
2061.0,2069.0,9.0,-6.0,
2010.0,2039.0,10.0,-6.0,
1986.0,2070.0,10.0,-6.0,
1989.0,2032.0,10.0,-6.0,
2001.0,1995.0,10.0,-6.0,
2014.0,1979.0,10.0,-6.0,
2028.0,2005.0,10.0,-6.0,
2030.0,2048.0,10.0,-6.0,
2055.0,2042.0,10.0,-6.0,
2048.0,2041.0,10.0,-6.0,
2047.0,2051.0,10.0,-6.0,
2048.0,2030.0,10.0,-6.0,
2064.0,2025.0,10.0,-6.0,
2056.0,2057.0,10.0,-6.0,
2055.0,2060.0,10.0,-6.0,
2051.0,2048.0,9.0,-6.0,
2068.0,2055.0,9.0,-6.0,
2107.0,2053.0,9.0,-6.0,
2117.0,2056.0,9.0,-6.0,
2083.0,2035.0,9.0,-6.0,
2019.0,2057.0,9.0,-6.0,
1977.0,2035.0,9.0,-6.0,
1970.0,1990.0,9.0,-6.0,
2035.0,1987.0,9.0,-6.0,
2050.0,2013.0,9.0,-6.0,
2066.0,2034.0,9.0,-6.0,
2067.0,2007.0,9.0,-6.0,
2049.0,2067.0,9.0,-6.0,
2016.0,2116.0,9.0,-6.0,
2025.0,2139.0,9.0,-6.0,
2045.0,2103.0,9.0,-6.0,
2073.0,2069.0,9.0,-6.0,
2084.0,2012.0,9.0,-6.0,
2079.0,2002.0,10.0,-6.0,
2057.0,1855.0,10.0,-6.0,
2045.0,1877.0,10.0,-6.0,
2056.0,2041.0,10.0,-6.0,
2062.0,2085.0,10.0,-6.0,
2047.0,2043.0,10.0,-6.0,
2060.0,2032.0,10.0,-6.0,
2057.0,1998.0,10.0,-6.0,
2061.0,2000.0,10.0,-6.0,
2071.0,2034.0,10.0,-6.0,
2057.0,2061.0,10.0,-6.0,
2053.0,2030.0,10.0,-6.0,
2037.0,1964.0,10.0,-6.0,
2031.0,1989.0,10.0,-6.0,
2026.0,2029.0,10.0,-6.0,
2020.0,2079.0,10.0,-6.0,
2031.0,2071.0,10.0,-6.0,
2054.0,2090.0,10.0,-6.0,
2070.0,2094.0,10.0,-6.0,
2055.0,2085.0,10.0,-6.0,
2030.0,2077.0,10.0,-6.0,
2045.0,2042.0,10.0,-6.0,
2049.0,2075.0,10.0,-6.0,
2050.0,2090.0,10.0,-6.0,
2028.0,2079.0,10.0,-6.0,
2049.0,2054.0,10.0,-6.0,
2059.0,2104.0,10.0,-6.0,
2075.0,2022.0,10.0,-6.0,
2070.0,2029.0,10.0,-6.0,
2067.0,1981.0,10.0,-7.0,
2062.0,2016.0,10.0,-7.0,
2038.0,2028.0,10.0,-6.0,
2022.0,2048.0,10.0,-6.0,
2025.0,2091.0,10.0,-6.0,
2022.0,2081.0,10.0,-6.0,
2071.0,2041.0,10.0,-6.0,
2082.0,1988.0,10.0,-6.0,
2066.0,1940.0,10.0,-6.0,
2045.0,2018.0,10.0,-6.0,
2029.0,2129.0,10.0,-6.0,
2055.0,2138.0,10.0,-6.0,
2046.0,2058.0,10.0,-6.0,
2099.0,2062.0,10.0,-6.0,
2087.0,2025.0,10.0,-6.0,
2070.0,1974.0,10.0,-6.0,
2061.0,1975.0,9.0,-6.0,
2019.0,2031.0,9.0,-6.0,
2001.0,1994.0,9.0,-6.0,
2005.0,2031.0,9.0,-6.0,
2014.0,2066.0,9.0,-6.0,
2014.0,2053.0,9.0,-6.0,
2021.0,2051.0,10.0,-6.0,
2052.0,2084.0,10.0,-6.0,
2050.0,2026.0,10.0,-6.0,
2081.0,2022.0,10.0,-6.0,
2073.0,2085.0,10.0,-6.0,
2056.0,2096.0,10.0,-6.0,
2061.0,2119.0,10.0,-6.0,
2058.0,2066.0,10.0,-6.0,
2036.0,2080.0,10.0,-6.0,
2057.0,2054.0,10.0,-6.0,
2054.0,2008.0,11.0,-6.0,
2073.0,1842.0,11.0,-5.0,
2082.0,1920.0,11.0,-5.0,
2077.0,1999.0,11.0,-5.0,
2056.0,2023.0,11.0,-5.0,
2052.0,2075.0,11.0,-5.0,
2039.0,2114.0,10.0,-5.0,
2034.0,2094.0,10.0,-5.0,
2024.0,2050.0,10.0,-5.0,
2042.0,1976.0,10.0,-5.0,
2037.0,2019.0,9.0,-5.0,
2039.0,2090.0,9.0,-5.0,
2041.0,2063.0,9.0,-5.0,
2043.0,2039.0,9.0,-6.0,
2032.0,2040.0,9.0,-6.0,
2028.0,2085.0,9.0,-6.0,
2049.0,2096.0,9.0,-6.0,
2049.0,2116.0,8.0,-6.0,
2064.0,2049.0,8.0,-6.0,
2068.0,2033.0,8.0,-6.0,
2130.0,2060.0,8.0,-6.0,
2118.0,1995.0,8.0,-6.0,
2071.0,2056.0,8.0,-6.0,
1991.0,2051.0,8.0,-6.0,
1955.0,2053.0,8.0,-7.0,
1961.0,2048.0,7.0,-7.0,
1995.0,2052.0,7.0,-7.0,
2013.0,2038.0,7.0,-7.0,
2018.0,2063.0,7.0,-7.0,
2043.0,2062.0,7.0,-7.0,
2047.0,2075.0,7.0,-7.0,
2054.0,2069.0,7.0,-7.0,
2042.0,2045.0,6.0,-7.0,
2047.0,1970.0,6.0,-7.0,
2054.0,1967.0,6.0,-7.0,
2061.0,1899.0,6.0,-7.0,
2069.0,2021.0,6.0,-7.0,
2091.0,2053.0,5.0,-7.0,
2073.0,2038.0,5.0,-7.0,
2070.0,2030.0,5.0,-7.0,
2062.0,1988.0,5.0,-8.0,
2032.0,1948.0,5.0,-8.0,
2041.0,2013.0,5.0,-8.0,
2036.0,2063.0,5.0,-8.0,
2036.0,2097.0,5.0,-8.0,
2042.0,2075.0,4.0,-8.0,
2044.0,2040.0,4.0,-8.0,
2044.0,2011.0,4.0,-8.0,
2059.0,2042.0,4.0,-8.0,
2087.0,2096.0,4.0,-8.0,
2082.0,2080.0,4.0,-8.0,
2047.0,2070.0,4.0,-8.0,
2002.0,2027.0,4.0,-8.0,
1970.0,2017.0,4.0,-8.0,
2001.0,2050.0,4.0,-8.0,
2032.0,2042.0,4.0,-8.0,
2034.0,2086.0,3.0,-8.0,
2052.0,2064.0,3.0,-8.0,
2118.0,2009.0,3.0,-8.0,
2116.0,2028.0,3.0,-8.0,
2090.0,2039.0,3.0,-7.0,
2055.0,2062.0,3.0,-7.0,
2047.0,2071.0,3.0,-7.0,
2058.0,2008.0,3.0,-7.0,
2049.0,1945.0,3.0,-7.0,
2046.0,1947.0,4.0,-7.0,
2104.0,1974.0,4.0,-7.0,
2127.0,2059.0,4.0,-7.0,
2075.0,2137.0,4.0,-7.0,
2031.0,2134.0,4.0,-7.0,
1984.0,2091.0,4.0,-7.0,
1989.0,2033.0,4.0,-7.0,
1982.0,2012.0,0,
2005.0,1984.0,4.0,-7.0,
2023.0,2039.0,4.0,-7.0,
2050.0,2034.0,4.0,-7.0,
2059.0,1849.0,4.0,-7.0,
2050.0,1999.0,4.0,-7.0,
2049.0,2068.0,4.0,-7.0,
2022.0,2046.0,4.0,-7.0,
2037.0,2043.0,4.0,-7.0,
2043.0,2082.0,4.0,-7.0,
2064.0,2097.0,4.0,-7.0,
2071.0,2119.0,4.0,-7.0,
2061.0,2077.0,4.0,-7.0,
2044.0,2039.0,4.0,-6.0,
2035.0,1981.0,4.0,-6.0,
2063.0,2051.0,4.0,-6.0,
2038.0,2091.0,4.0,-6.0,
2045.0,2074.0,4.0,-6.0,
2033.0,2069.0,4.0,-6.0,
2026.0,2028.0,4.0,-6.0,
2028.0,2038.0,3.0,-6.0,
2049.0,2035.0,3.0,-6.0,
2033.0,2044.0,3.0,-7.0,
2023.0,2053.0,3.0,-7.0,
2021.0,2046.0,3.0,-7.0,
2060.0,1988.0,2.0,-7.0,
2069.0,2014.0,2.0,-7.0,
2076.0,2073.0,2.0,-7.0,
2070.0,2100.0,2.0,-7.0,
2068.0,2052.0,2.0,-7.0,
2065.0,1981.0,1.0,-7.0,
2056.0,1933.0,1.0,-7.0,
2047.0,1945.0,1.0,-7.0,
2044.0,2062.0,1.0,-7.0,
2016.0,2068.0,1.0,-8.0,
2033.0,2083.0,1.0,-8.0,
2050.0,2087.0,0.0,-8.0,
2039.0,2054.0,0.0,-8.0,
2042.0,2048.0,0.0,-8.0,
2026.0,2012.0,0.0,-8.0,
2010.0,2053.0,0.0,-8.0,
2009.0,2104.0,0.0,-8.0,
2004.0,2147.0,0.0,-8.0,
2006.0,2089.0,0.0,-8.0,
2064.0,2001.0,0.0,-8.0,
2091.0,1920.0,0.0,-8.0,
2150.0,1960.0,0.0,-8.0,
2124.0,1955.0,0.0,-8.0,
2086.0,1943.0,0.0,-8.0,
2035.0,1945.0,0.0,-8.0,
2003.0,2037.0,0.0,-8.0,
1999.0,2060.0,0.0,-8.0,
2016.0,2084.0,0.0,-8.0,
1976.0,2117.0,0.0,-8.0,
2024.0,2051.0,0.0,-8.0,
2036.0,2010.0,0.0,-8.0,
2056.0,2045.0,0.0,-8.0,
2045.0,2045.0,0.0,-8.0,
2029.0,2123.0,0.0,-7.0,
