2080.0,2090.0,72.0,-5.0,
2127.0,2108.0,72.0,-5.0,
2113.0,2114.0,72.0,-5.0,
2125.0,2104.0,72.0,-5.0,
2106.0,2086.0,72.0,-5.0,
2075.0,2070.0,72.0,-5.0,
2064.0,2069.0,72.0,-5.0,
2048.0,2063.0,72.0,-5.0,
2070.0,2025.0,72.0,-5.0,
2083.0,2083.0,72.0,-5.0,
2108.0,2086.0,72.0,-5.0,
2096.0,2093.0,72.0,-5.0,
2087.0,2120.0,72.0,-5.0,
2093.0,2105.0,72.0,-6.0,
2066.0,2057.0,72.0,-5.0,
2040.0,2030.0,72.0,-5.0,
2048.0,2011.0,72.0,-6.0,
2059.0,2033.0,72.0,-5.0,
2062.0,2053.0,72.0,-5.0,
2091.0,2094.0,72.0,-5.0,
2092.0,2083.0,72.0,-6.0,
2070.0,2115.0,72.0,-6.0,
2053.0,1995.0,72.0,-6.0,
2061.0,2051.0,72.0,-6.0,
2065.0,2059.0,72.0,-6.0,
2082.0,2072.0,72.0,-6.0,
2079.0,2076.0,72.0,-6.0,
2079.0,2089.0,72.0,-6.0,
2092.0,2099.0,72.0,-6.0,
2094.0,2105.0,72.0,-6.0,
2076.0,2101.0,72.0,-6.0,
2074.0,2086.0,72.0,-6.0,
2055.0,2073.0,72.0,-6.0,
2066.0,2074.0,72.0,-6.0,
2052.0,2095.0,72.0,-6.0,
2084.0,2113.0,72.0,-6.0,
2080.0,2096.0,72.0,-6.0,
2088.0,2100.0,72.0,-6.0,
2102.0,2088.0,72.0,-6.0,
2089.0,2083.0,72.0,-5.0,
2072.0,2088.0,72.0,-5.0,
2070.0,2083.0,72.0,-5.0,
2057.0,2011.0,72.0,-5.0,
2066.0,2056.0,72.0,-5.0,
2084.0,2085.0,72.0,-5.0,
2080.0,2083.0,72.0,-5.0,
2096.0,2144.0,72.0,-5.0,
2101.0,2110.0,72.0,-5.0,
2083.0,2031.0,72.0,-5.0,
2062.0,2044.0,72.0,-5.0,
2063.0,2063.0,72.0,-5.0,
2058.0,2059.0,72.0,-5.0,
2068.0,2060.0,72.0,-5.0,
2088.0,2072.0,72.0,-5.0,
2093.0,2089.0,72.0,-5.0,
2100.0,2117.0,72.0,-5.0,
2081.0,2096.0,72.0,-5.0,
2117.0,2108.0,72.0,-5.0,
2073.0,2056.0,72.0,-5.0,
2055.0,2039.0,72.0,-5.0,
2071.0,2076.0,72.0,-5.0,
2069.0,2055.0,72.0,-5.0,
2092.0,2059.0,72.0,-5.0,
2101.0,2074.0,72.0,-5.0,
2084.0,2080.0,72.0,-5.0,
2092.0,2093.0,72.0,-5.0,
2076.0,2104.0,72.0,-5.0,
2055.0,2065.0,72.0,-5.0,
2070.0,2107.0,72.0,-5.0,
2074.0,2103.0,72.0,-5.0,
2064.0,2006.0,72.0,-5.0,
2090.0,2060.0,72.0,-5.0,
2097.0,2118.0,72.0,-5.0,
2111.0,2141.0,72.0,-5.0,
2086.0,2098.0,72.0,-5.0,
2067.0,1992.0,72.0,-5.0,
2062.0,2057.0,72.0,-5.0,
2067.0,2066.0,72.0,-6.0,
2081.0,2060.0,72.0,-5.0,
2071.0,2117.0,72.0,-6.0,
2095.0,2065.0,72.0,-6.0,
2093.0,2048.0,72.0,-5.0,
2101.0,2094.0,72.0,-5.0,
2089.0,2083.0,72.0,-5.0,
2072.0,2073.0,72.0,-5.0,
2061.0,2038.0,72.0,-5.0,
2064.0,2076.0,72.0,-5.0,
2072.0,2086.0,72.0,-5.0,
2084.0,2087.0,72.0,-5.0,
2098.0,2097.0,72.0,-5.0,
2105.0,2108.0,72.0,-5.0,
2084.0,2091.0,72.0,-5.0,
2063.0,2087.0,72.0,-5.0,
2064.0,2081.0,72.0,-5.0,
2058.0,2065.0,72.0,-5.0,
2055.0,2049.0,72.0,-5.0,
2089.0,2067.0,72.0,-5.0,
2087.0,2077.0,72.0,-5.0,
2108.0,2089.0,72.0,-5.0,
2116.0,2111.0,72.0,-5.0,
2102.0,2078.0,72.0,-5.0,
2076.0,2046.0,72.0,-5.0,
2070.0,2058.0,72.0,-5.0,
2059.0,2051.0,72.0,-5.0,
2051.0,2067.0,72.0,-5.0,
2075.0,2070.0,72.0,-5.0,
2090.0,2091.0,72.0,-5.0,
2102.0,2112.0,72.0,-6.0,
2093.0,2070.0,73.0,-6.0,
2098.0,2086.0,73.0,-6.0,
2087.0,2091.0,72.0,-5.0,
2070.0,2084.0,72.0,-5.0,
2064.0,2085.0,72.0,-5.0,
2062.0,2066.0,73.0,-5.0,
2066.0,2085.0,73.0,-5.0,
2088.0,2110.0,73.0,-5.0,
2088.0,2119.0,73.0,-5.0,
2095.0,2084.0,73.0,-5.0,
2090.0,2092.0,73.0,-5.0,
2072.0,2099.0,73.0,-5.0,
2067.0,2113.0,73.0,-5.0,
2062.0,2073.0,73.0,-5.0,
2074.0,2018.0,73.0,-6.0,
2048.0,2028.0,73.0,-6.0,
2088.0,2089.0,72.0,-6.0,
2094.0,2126.0,72.0,-6.0,
2088.0,2059.0,72.0,-6.0,
2067.0,2012.0,72.0,-6.0,
2073.0,2066.0,72.0,-6.0,
2077.0,2069.0,72.0,-6.0,
2072.0,2080.0,72.0,-5.0,
2076.0,2069.0,72.0,-5.0,
2081.0,2132.0,72.0,-5.0,
2102.0,2059.0,72.0,-5.0,
2101.0,2057.0,72.0,-5.0,
2102.0,2066.0,72.0,-5.0,
2092.0,2058.0,72.0,-5.0,
2084.0,2068.0,72.0,-5.0,
2075.0,2079.0,72.0,-5.0,
2076.0,2064.0,72.0,-5.0,
2086.0,2074.0,72.0,-5.0,
2091.0,2100.0,72.0,-5.0,
2097.0,2079.0,72.0,-5.0,
2084.0,2095.0,72.0,-5.0,
2088.0,2081.0,72.0,-5.0,
2067.0,2069.0,72.0,-5.0,
2068.0,2073.0,72.0,-5.0,
2055.0,2055.0,72.0,-5.0,
2064.0,2076.0,72.0,-5.0,
2078.0,2080.0,72.0,-5.0,
2097.0,2105.0,72.0,-5.0,
2107.0,2121.0,72.0,-5.0,
2106.0,2114.0,72.0,-5.0,
2084.0,2064.0,72.0,-5.0,
2073.0,2081.0,72.0,-5.0,
2055.0,2053.0,72.0,-5.0,
2047.0,2065.0,72.0,-5.0,
2059.0,2089.0,72.0,-5.0,
2089.0,2080.0,72.0,-5.0,
2086.0,2087.0,72.0,-5.0,
2100.0,2099.0,72.0,-5.0,
2106.0,2110.0,72.0,-5.0,
2082.0,2087.0,72.0,-5.0,
2061.0,2059.0,72.0,-5.0,
2073.0,2062.0,72.0,-5.0,
2063.0,2070.0,72.0,-5.0,
2057.0,2078.0,72.0,-5.0,
2082.0,2069.0,72.0,-5.0,
2107.0,2115.0,72.0,-5.0,
2106.0,2142.0,72.0,-5.0,
2098.0,2090.0,72.0,-5.0,
2086.0,2020.0,72.0,-5.0,
2050.0,2024.0,72.0,-5.0,
2063.0,2045.0,72.0,-5.0,
2086.0,2047.0,72.0,-5.0,
2077.0,2062.0,72.0,-6.0,
2104.0,2097.0,72.0,-6.0,
2091.0,2082.0,72.0,-5.0,
2079.0,2082.0,72.0,-5.0,
2099.0,2114.0,72.0,-5.0,
2074.0,2083.0,72.0,-6.0,
2082.0,2088.0,72.0,-6.0,
2076.0,2042.0,72.0,-6.0,
2074.0,2086.0,72.0,-6.0,
2069.0,2107.0,72.0,-6.0,
2076.0,2056.0,72.0,-5.0,
2099.0,2106.0,72.0,-6.0,
2099.0,2107.0,72.0,-6.0,
2083.0,2045.0,72.0,-6.0,
2075.0,2075.0,72.0,-6.0,
2067.0,2065.0,72.0,-6.0,
2072.0,2062.0,72.0,-5.0,
2086.0,2075.0,72.0,-5.0,
2087.0,2080.0,72.0,-5.0,
2098.0,2086.0,72.0,-5.0,
2097.0,2093.0,72.0,-5.0,
2095.0,2100.0,72.0,-5.0,
2100.0,2095.0,72.0,-5.0,
2068.0,2086.0,72.0,-6.0,
2068.0,2097.0,72.0,-6.0,
2090.0,2115.0,72.0,-6.0,
2067.0,2004.0,72.0,-6.0,
2072.0,2058.0,72.0,-6.0,
2090.0,2088.0,72.0,-6.0,
2097.0,2146.0,72.0,-6.0,
2110.0,2114.0,72.0,-6.0,
2069.0,1985.0,72.0,-6.0,
2051.0,2054.0,72.0,-6.0,
2062.0,2035.0,72.0,-6.0,
2055.0,2026.0,72.0,-6.0,
2078.0,2068.0,72.0,-6.0,
2092.0,2088.0,72.0,-6.0,
2096.0,2110.0,72.0,-6.0,
2097.0,2106.0,72.0,-6.0,
2093.0,2093.0,72.0,-6.0,
2075.0,2094.0,72.0,-6.0,
2072.0,2083.0,72.0,-6.0,
2064.0,2069.0,72.0,-6.0,
2072.0,2080.0,72.0,-6.0,
2078.0,2091.0,72.0,-6.0,
2091.0,2085.0,72.0,-6.0,
2098.0,2091.0,72.0,-6.0,
2103.0,2101.0,72.0,-6.0,
2092.0,2071.0,72.0,-6.0,
2079.0,2084.0,72.0,-6.0,
2062.0,2065.0,72.0,-5.0,
2051.0,2086.0,72.0,-5.0,
2083.0,2121.0,72.0,-5.0,
2088.0,2076.0,72.0,-6.0,
2093.0,2101.0,0,
2056.0,2029.0,72.0,-5.0,
2075.0,2072.0,72.0,-5.0,
2076.0,2108.0,72.0,-5.0,
2063.0,2077.0,72.0,-5.0,
2043.0,1962.0,72.0,-5.0,
2068.0,2035.0,72.0,-5.0,
2062.0,2064.0,72.0,-5.0,
2100.0,2102.0,72.0,-5.0,
2095.0,2114.0,72.0,-6.0,
2117.0,2055.0,72.0,-6.0,
2090.0,2068.0,72.0,-6.0,
2093.0,2086.0,72.0,-6.0,
2071.0,2092.0,72.0,-6.0,
2078.0,2116.0,72.0,-5.0,
2083.0,2087.0,72.0,-6.0,
2073.0,2054.0,72.0,-5.0,
2079.0,2111.0,72.0,-5.0,
2097.0,2093.0,72.0,-5.0,
2090.0,2105.0,72.0,-5.0,
2094.0,2080.0,72.0,-5.0,
2077.0,2060.0,72.0,-5.0,
2072.0,2035.0,72.0,-5.0,
2071.0,2080.0,72.0,-5.0,
2073.0,2071.0,72.0,-6.0,
2075.0,2082.0,72.0,-6.0,
2083.0,2093.0,72.0,-6.0,
2096.0,2099.0,72.0,-6.0,
2110.0,2104.0,72.0,-6.0,
2096.0,2103.0,72.0,-6.0,
2086.0,2099.0,72.0,-6.0,
2069.0,2077.0,72.0,-6.0,
2080.0,2062.0,72.0,-6.0,
2061.0,2070.0,72.0,-6.0,
2068.0,2074.0,72.0,-6.0,
2081.0,2081.0,72.0,-6.0,
2098.0,2086.0,72.0,-6.0,
2096.0,2086.0,72.0,-6.0,
2071.0,2063.0,72.0,-6.0,
2078.0,2068.0,72.0,-6.0,
2045.0,2058.0,72.0,-6.0,
2051.0,2057.0,72.0,-6.0,
2066.0,2060.0,72.0,-6.0,
2079.0,2088.0,72.0,-6.0,
2099.0,2086.0,72.0,-5.0,
2073.0,2074.0,72.0,-5.0,
2074.0,2090.0,72.0,-5.0,
2074.0,2075.0,72.0,-5.0,
2067.0,2062.0,72.0,-5.0,
2057.0,2076.0,72.0,-5.0,
2063.0,2082.0,72.0,-5.0,
2068.0,2022.0,72.0,-5.0,
2078.0,2077.0,72.0,-5.0,
2091.0,2058.0,72.0,-5.0,
2092.0,2099.0,72.0,-5.0,
2089.0,2080.0,72.0,-5.0,
2088.0,2093.0,72.0,-5.0,
2066.0,2056.0,72.0,-5.0,
2081.0,2056.0,72.0,-5.0,
2076.0,2045.0,72.0,-5.0,
2083.0,2055.0,72.0,-5.0,
2104.0,2074.0,72.0,-5.0,
2103.0,2092.0,72.0,-5.0,
2102.0,2125.0,72.0,-5.0,
2093.0,2059.0,72.0,-5.0,
2083.0,2137.0,72.0,-5.0,
2092.0,2122.0,72.0,-5.0,
2065.0,2015.0,72.0,-5.0,
2056.0,2089.0,72.0,-5.0,
2085.0,2094.0,72.0,-5.0,
2074.0,2068.0,72.0,-5.0,
2081.0,2061.0,72.0,-5.0,
2087.0,2049.0,72.0,-5.0,
2092.0,2093.0,72.0,-6.0,
2058.0,2083.0,72.0,-5.0,
2060.0,2101.0,71.0,-6.0,
2060.0,2040.0,71.0,-6.0,
2077.0,2086.0,71.0,-5.0,
2081.0,2074.0,72.0,-5.0,
2074.0,2083.0,72.0,-5.0,
2095.0,2108.0,72.0,-5.0,
2089.0,2109.0,72.0,-5.0,
2080.0,2095.0,72.0,-5.0,
2058.0,2085.0,72.0,-5.0,
2070.0,2088.0,72.0,-5.0,
2063.0,2063.0,72.0,-5.0,
2066.0,2071.0,72.0,-5.0,
2077.0,2080.0,72.0,-6.0,
2097.0,2083.0,72.0,-6.0,
2098.0,2071.0,72.0,-5.0,
2084.0,2080.0,72.0,-5.0,
2070.0,2070.0,72.0,-5.0,
2068.0,2067.0,72.0,-5.0,
2071.0,2065.0,72.0,-5.0,
2053.0,2070.0,72.0,-6.0,
2070.0,2074.0,72.0,-6.0,
2070.0,2082.0,72.0,-6.0,
2096.0,2089.0,72.0,-5.0,
2094.0,2094.0,72.0,-5.0,
2082.0,2096.0,72.0,-6.0,
2093.0,2117.0,72.0,-5.0,
2065.0,2036.0,72.0,-6.0,
2067.0,2061.0,72.0,-5.0,
2062.0,2073.0,72.0,-5.0,
2088.0,2075.0,72.0,-5.0,
2108.0,2084.0,72.0,-5.0,
2109.0,2086.0,72.0,-5.0,
2106.0,2101.0,72.0,-5.0,
2094.0,2101.0,72.0,-5.0,
2078.0,2085.0,72.0,-5.0,
2065.0,2045.0,72.0,-5.0,
2067.0,2055.0,72.0,-5.0,
2080.0,2091.0,72.0,-5.0,
2085.0,2045.0,72.0,-5.0,
2101.0,2077.0,72.0,-5.0,
2113.0,2099.0,72.0,-5.0,
2097.0,2087.0,72.0,-5.0,
2070.0,2078.0,72.0,-5.0,
2072.0,2018.0,72.0,-5.0,
2053.0,2064.0,72.0,-5.0,
2042.0,2057.0,72.0,-5.0,
2084.0,2061.0,72.0,-5.0,
2084.0,2106.0,72.0,-5.0,
2080.0,2077.0,72.0,-5.0,
2093.0,2127.0,72.0,-5.0,
2089.0,2087.0,72.0,-5.0,
2090.0,2117.0,72.0,-5.0,
2058.0,2027.0,72.0,-5.0,
2054.0,2092.0,72.0,-5.0,
2069.0,1986.0,72.0,-5.0,
2085.0,2085.0,72.0,-5.0,
2075.0,2058.0,72.0,-5.0,
2092.0,2101.0,72.0,-5.0,
2103.0,2125.0,72.0,-5.0,
2071.0,2059.0,72.0,-6.0,
2075.0,2085.0,72.0,-6.0,
2065.0,2086.0,72.0,-6.0,
2049.0,2032.0,72.0,-6.0,
2055.0,2070.0,72.0,-6.0,
2080.0,2102.0,72.0,-6.0,
2076.0,2084.0,71.0,-6.0,
2092.0,2091.0,71.0,-6.0,
2093.0,2077.0,71.0,-6.0,
2083.0,2072.0,71.0,-5.0,
2071.0,2077.0,71.0,-5.0,
2058.0,2104.0,71.0,-5.0,
2058.0,2097.0,71.0,-5.0,
2066.0,2027.0,71.0,-5.0,
2076.0,2069.0,71.0,-5.0,
2085.0,2074.0,71.0,-5.0,
2097.0,2086.0,71.0,-5.0,
2103.0,2090.0,71.0,-6.0,
2096.0,2090.0,72.0,-6.0,
2079.0,2092.0,72.0,-6.0,
2051.0,2061.0,72.0,-6.0,
2073.0,2061.0,72.0,-6.0,
2080.0,2068.0,72.0,-6.0,
2082.0,2075.0,72.0,-6.0,
2084.0,2084.0,72.0,-6.0,
2093.0,2099.0,72.0,-6.0,
2086.0,2093.0,72.0,-6.0,
2088.0,2083.0,72.0,-6.0,
2065.0,2029.0,72.0,-6.0,
2063.0,2057.0,72.0,-6.0,
2080.0,2088.0,72.0,-6.0,
2075.0,2072.0,72.0,-6.0,
2083.0,2056.0,72.0,-6.0,
2108.0,2057.0,72.0,-6.0,
2107.0,2090.0,72.0,-6.0,
2086.0,2088.0,72.0,-6.0,
2078.0,2069.0,72.0,-6.0,
2056.0,2061.0,72.0,-5.0,
2053.0,2074.0,72.0,-5.0,
2067.0,2071.0,72.0,-5.0,
2080.0,2096.0,72.0,-5.0,
2102.0,2170.0,72.0,-5.0,
2098.0,2073.0,72.0,-5.0,
2103.0,2052.0,72.0,-5.0,
2094.0,2096.0,72.0,-5.0,
2062.0,2054.0,72.0,-5.0,
2058.0,2047.0,72.0,-5.0,
2063.0,2037.0,72.0,-5.0,
2082.0,2091.0,72.0,-5.0,
2058.0,2063.0,72.0,-5.0,
2101.0,2080.0,72.0,-5.0,
2094.0,2054.0,72.0,-5.0,
2085.0,2076.0,72.0,-5.0,
2084.0,2076.0,72.0,-5.0,
2071.0,2080.0,72.0,-5.0,
2057.0,2056.0,72.0,-5.0,
2058.0,2075.0,72.0,-5.0,
2063.0,2095.0,72.0,-5.0,
2083.0,2089.0,72.0,-5.0,
2099.0,2106.0,72.0,-5.0,
2082.0,2095.0,72.0,-5.0,
2097.0,2139.0,72.0,-5.0,
2078.0,2030.0,72.0,-6.0,
2068.0,2068.0,72.0,-5.0,
2063.0,2075.0,72.0,-5.0,
2070.0,2053.0,72.0,-5.0,
2058.0,2083.0,72.0,-6.0,
2086.0,2116.0,72.0,-6.0,
2093.0,2198.0,72.0,-6.0,
2085.0,2086.0,72.0,-6.0,
2072.0,1986.0,72.0,-6.0,
2083.0,2047.0,72.0,-5.0,
2072.0,2054.0,72.0,-5.0,
2038.0,2039.0,72.0,-6.0,
2068.0,2071.0,72.0,-6.0,
2079.0,2120.0,72.0,-6.0,
2077.0,2092.0,72.0,-5.0,
2094.0,2060.0,72.0,-5.0,
2105.0,2128.0,72.0,-5.0,
2083.0,2155.0,72.0,-5.0,
2082.0,2083.0,72.0,-5.0,
2047.0,2056.0,72.0,-5.0,
2048.0,1958.0,72.0,-6.0,
2035.0,2029.0,72.0,-6.0,
2086.0,2042.0,72.0,-6.0,
2100.0,2067.0,72.0,-5.0,
2109.0,2097.0,72.0,-5.0,
2108.0,2096.0,72.0,-5.0,
2095.0,2079.0,72.0,-5.0,
2078.0,2086.0,72.0,-5.0,
2064.0,2084.0,72.0,-5.0,
2077.0,2089.0,72.0,-5.0,
2069.0,2098.0,72.0,-5.0,
2070.0,2105.0,72.0,-5.0,
2096.0,2121.0,72.0,-5.0,
2104.0,2123.0,72.0,-5.0,
2073.0,2014.0,72.0,-5.0,
2056.0,2096.0,72.0,-5.0,
2057.0,2042.0,72.0,-5.0,
2054.0,2062.0,72.0,-5.0,
2073.0,2079.0,72.0,-5.0,
2094.0,2155.0,72.0,-6.0,
2101.0,1956.0,72.0,-5.0,
2082.0,2069.0,72.0,-5.0,
2079.0,2062.0,72.0,-5.0,
2076.0,2104.0,72.0,-5.0,
2096.0,2093.0,72.0,-6.0,
2072.0,2088.0,72.0,-6.0,
2075.0,2054.0,72.0,-6.0,
2050.0,2045.0,72.0,-6.0,
2061.0,1911.0,72.0,-6.0,
2054.0,2107.0,72.0,-5.0,
2091.0,2071.0,72.0,-5.0,
2115.0,2117.0,72.0,-5.0,
2081.0,2089.0,72.0,-5.0,
2069.0,2111.0,72.0,-5.0,
2050.0,2102.0,72.0,-5.0,
2041.0,2030.0,72.0,-5.0,
2037.0,2053.0,72.0,-5.0,
2082.0,2080.0,72.0,-5.0,
2079.0,2106.0,72.0,-5.0,
2090.0,2037.0,72.0,-5.0,
2075.0,2060.0,72.0,-5.0,
2078.0,2098.0,72.0,-5.0,
2079.0,2100.0,72.0,-6.0,
2094.0,2114.0,71.0,-6.0,
2080.0,2082.0,71.0,-5.0,
2062.0,2083.0,71.0,-5.0,
2086.0,2052.0,71.0,-5.0,
2091.0,2085.0,71.0,-6.0,
2101.0,2145.0,71.0,-6.0,
2111.0,2144.0,0,
2099.0,2015.0,71.0,-6.0,
2104.0,2075.0,71.0,-6.0,
2117.0,2125.0,71.0,-5.0,
2073.0,1998.0,71.0,-5.0,
2056.0,2002.0,71.0,-6.0,
2084.0,2069.0,71.0,-6.0,
2116.0,2093.0,71.0,-6.0,
2104.0,2092.0,71.0,-6.0,
2080.0,2237.0,71.0,-6.0,
2108.0,2163.0,71.0,-6.0,
2035.0,2107.0,71.0,-6.0,
1977.0,2039.0,72.0,-6.0,
1953.0,1860.0,72.0,-6.0,
2047.0,2000.0,72.0,-6.0,
2153.0,2098.0,72.0,-6.0,
2189.0,2085.0,72.0,-6.0,
2165.0,2112.0,72.0,-6.0,
2083.0,2087.0,72.0,-6.0,
2067.0,2116.0,72.0,-6.0,
2064.0,2202.0,72.0,-6.0,
2058.0,2062.0,72.0,-6.0,
2033.0,1990.0,72.0,-6.0,
2059.0,2068.0,73.0,-6.0,
2099.0,2097.0,73.0,-6.0,
2100.0,1964.0,73.0,-6.0,
2110.0,2081.0,73.0,-6.0,
2101.0,2070.0,73.0,-6.0,
2081.0,2141.0,73.0,-6.0,
2017.0,2137.0,73.0,-6.0,
2063.0,1993.0,73.0,-6.0,
2102.0,2122.0,73.0,-6.0,
2103.0,2134.0,73.0,-6.0,
2062.0,2013.0,73.0,-6.0,
2071.0,2077.0,73.0,-6.0,
2094.0,2015.0,73.0,-6.0,
2066.0,2089.0,73.0,-6.0,
2053.0,2104.0,73.0,-6.0,
2058.0,2041.0,73.0,-6.0,
2038.0,2048.0,73.0,-6.0,
2081.0,2156.0,73.0,-6.0,
2058.0,2148.0,73.0,-6.0,
2059.0,2204.0,73.0,-6.0,
2088.0,2113.0,74.0,-6.0,
1992.0,1989.0,74.0,-6.0,
2108.0,1966.0,74.0,-6.0,
2117.0,2079.0,74.0,-6.0,
2123.0,2041.0,74.0,-6.0,
2096.0,2026.0,74.0,-6.0,
2092.0,2144.0,74.0,-6.0,
2146.0,2191.0,74.0,-6.0,
2081.0,2135.0,74.0,-6.0,
2127.0,1996.0,74.0,-6.0,
2088.0,2065.0,75.0,-6.0,
2058.0,2098.0,75.0,-6.0,
2024.0,2064.0,75.0,-6.0,
2055.0,1988.0,75.0,-6.0,
2066.0,2115.0,75.0,-6.0,
2063.0,2147.0,75.0,-6.0,
2090.0,2100.0,75.0,-6.0,
2087.0,2075.0,75.0,-6.0,
2077.0,2034.0,75.0,-6.0,
2107.0,2149.0,75.0,-6.0,
2114.0,2152.0,75.0,-6.0,
2046.0,1988.0,75.0,-6.0,
2054.0,1994.0,75.0,-6.0,
2063.0,2053.0,76.0,-6.0,
2067.0,2137.0,76.0,-6.0,
2072.0,2186.0,76.0,-6.0,
2101.0,2001.0,76.0,-6.0,
2112.0,2069.0,76.0,-6.0,
2136.0,2043.0,76.0,-6.0,
2104.0,2125.0,76.0,-6.0,
2085.0,2062.0,77.0,-6.0,
2052.0,2005.0,77.0,-6.0,
2064.0,2042.0,77.0,-6.0,
2106.0,2179.0,77.0,-6.0,
2081.0,2023.0,77.0,-6.0,
2101.0,2126.0,78.0,-6.0,
2066.0,2027.0,78.0,-6.0,
2070.0,2043.0,78.0,-6.0,
2063.0,2074.0,78.0,-6.0,
2044.0,2036.0,78.0,-6.0,
2047.0,1980.0,78.0,-6.0,
2049.0,2057.0,79.0,-6.0,
2061.0,2191.0,79.0,-6.0,
2044.0,2150.0,79.0,-6.0,
2101.0,2065.0,79.0,-7.0,
2119.0,2183.0,79.0,-7.0,
2104.0,2156.0,79.0,-7.0,
2072.0,1938.0,79.0,-7.0,
2024.0,1973.0,79.0,-7.0,
2102.0,2126.0,79.0,-6.0,
2121.0,2126.0,79.0,-6.0,
2078.0,1922.0,80.0,-6.0,
2075.0,2027.0,80.0,-7.0,
2132.0,2194.0,80.0,-6.0,
2100.0,2143.0,80.0,-6.0,
2051.0,1988.0,80.0,-6.0,
2068.0,1978.0,80.0,-6.0,
2060.0,2072.0,80.0,-6.0,
2063.0,2116.0,80.0,-6.0,
2059.0,2288.0,80.0,-6.0,
2115.0,1905.0,80.0,-6.0,
2119.0,2210.0,80.0,-6.0,
2107.0,2047.0,80.0,-6.0,
2041.0,2154.0,80.0,-6.0,
2027.0,1977.0,80.0,-6.0,
2033.0,1976.0,80.0,-6.0,
2053.0,2249.0,80.0,-6.0,
2035.0,2000.0,80.0,-6.0,
2064.0,1920.0,80.0,-6.0,
2116.0,1895.0,79.0,-6.0,
2080.0,2039.0,79.0,-6.0,
2124.0,2155.0,79.0,-7.0,
2069.0,2096.0,79.0,-7.0,
2078.0,2032.0,79.0,-7.0,
2105.0,2183.0,79.0,-7.0,
2156.0,2252.0,79.0,-7.0,
2106.0,2045.0,79.0,-7.0,
2063.0,2174.0,79.0,-7.0,
2048.0,2177.0,79.0,-7.0,
2089.0,2091.0,79.0,-7.0,
2026.0,2031.0,80.0,-7.0,
2065.0,1901.0,80.0,-7.0,
2074.0,2088.0,80.0,-7.0,
2063.0,2070.0,80.0,-7.0,
2049.0,2027.0,80.0,-7.0,
2044.0,2120.0,80.0,-7.0,
2076.0,2114.0,80.0,-8.0,
2079.0,2236.0,80.0,-8.0,
2098.0,2260.0,81.0,-8.0,
2107.0,2065.0,81.0,-8.0,
2101.0,1960.0,81.0,-8.0,
2064.0,1904.0,81.0,-8.0,
2065.0,2124.0,81.0,-8.0,
2028.0,1980.0,0,
2025.0,2097.0,82.0,-9.0,
2148.0,1968.0,82.0,-9.0,
2142.0,2099.0,82.0,-8.0,
2133.0,2127.0,83.0,-8.0,
2192.0,2267.0,83.0,-8.0,
2111.0,2088.0,83.0,-8.0,
2049.0,2081.0,83.0,-8.0,
2052.0,1928.0,84.0,-8.0,
1991.0,1972.0,84.0,-8.0,
2008.0,2176.0,84.0,-8.0,
2057.0,1905.0,85.0,-7.0,
2062.0,2013.0,85.0,-8.0,
2120.0,2045.0,85.0,-8.0,
2082.0,2162.0,85.0,-8.0,
2023.0,2056.0,85.0,-8.0,
2029.0,2196.0,85.0,-8.0,
2068.0,2150.0,85.0,-8.0,
2042.0,2108.0,85.0,-8.0,
2065.0,1970.0,86.0,-7.0,
2114.0,2065.0,86.0,-8.0,
2114.0,2136.0,86.0,-8.0,
2032.0,1969.0,86.0,-8.0,
2084.0,2096.0,86.0,-8.0,
2085.0,2080.0,86.0,-7.0,
2083.0,2203.0,87.0,-7.0,
2053.0,2198.0,86.0,-7.0,
2024.0,1982.0,87.0,-7.0,
2066.0,1933.0,87.0,-7.0,
2047.0,2128.0,87.0,-7.0,
2141.0,2055.0,87.0,-7.0,
2161.0,2173.0,87.0,-7.0,
2106.0,2066.0,87.0,-7.0,
2059.0,1939.0,87.0,-7.0,
2096.0,2038.0,88.0,-7.0,
1990.0,2158.0,88.0,-7.0,
2047.0,1972.0,88.0,-7.0,
2124.0,2040.0,88.0,-7.0,
2107.0,2125.0,89.0,-7.0,
2213.0,2201.0,89.0,-7.0,
2088.0,1893.0,89.0,-7.0,
2109.0,2135.0,89.0,-7.0,
2062.0,2192.0,89.0,-6.0,
2027.0,2028.0,89.0,-6.0,
2014.0,2072.0,90.0,-6.0,
2063.0,1988.0,90.0,-7.0,
2151.0,2124.0,90.0,-6.0,
2148.0,2075.0,90.0,-6.0,
2094.0,2172.0,90.0,-6.0,
2049.0,1991.0,90.0,-6.0,
2097.0,2018.0,90.0,-6.0,
2082.0,2185.0,90.0,-7.0,
2062.0,2131.0,90.0,-7.0,
2036.0,2124.0,91.0,-7.0,
1968.0,2003.0,91.0,-7.0,
2088.0,2230.0,91.0,-6.0,
2160.0,1815.0,91.0,-7.0,
2110.0,2007.0,91.0,-7.0,
2093.0,2078.0,92.0,-7.0,
2073.0,2103.0,92.0,-7.0,
1975.0,2072.0,92.0,-7.0,
2081.0,2131.0,92.0,-7.0,
2039.0,2220.0,93.0,-7.0,
2094.0,2159.0,92.0,-7.0,
2052.0,1879.0,93.0,-7.0,
2063.0,2157.0,93.0,-7.0,
2040.0,2080.0,93.0,-6.0,
2065.0,1930.0,94.0,-7.0,
2090.0,1987.0,94.0,-7.0,
2112.0,2223.0,94.0,-7.0,
2097.0,2207.0,95.0,-7.0,
2075.0,2030.0,95.0,-6.0,
2061.0,2190.0,95.0,-7.0,
2120.0,1969.0,95.0,-7.0,
2127.0,2005.0,96.0,-7.0,
2090.0,2202.0,96.0,-7.0,
2063.0,2111.0,96.0,-7.0,
2063.0,2152.0,95.0,-6.0,
2041.0,2192.0,96.0,-7.0,
2148.0,2228.0,96.0,-7.0,
2153.0,2264.0,96.0,-7.0,
2083.0,1815.0,96.0,-7.0,
2079.0,1950.0,96.0,-7.0,
2102.0,2190.0,96.0,-7.0,
1998.0,2174.0,97.0,-7.0,
2017.0,1948.0,97.0,-7.0,
2119.0,1897.0,97.0,-7.0,
2075.0,2029.0,97.0,-7.0,
2100.0,1907.0,97.0,-7.0,
2115.0,2184.0,97.0,-6.0,
2131.0,2043.0,97.0,-6.0,
2122.0,2246.0,97.0,-6.0,
2051.0,2243.0,97.0,-6.0,
2039.0,2044.0,98.0,-7.0,
2117.0,2236.0,98.0,-6.0,
2022.0,2037.0,98.0,-6.0,
2041.0,1775.0,98.0,-6.0,
2066.0,1946.0,98.0,-6.0,
2009.0,2078.0,98.0,-6.0,
2146.0,2121.0,98.0,-7.0,
2084.0,2223.0,98.0,-6.0,
2070.0,2165.0,98.0,-6.0,
2043.0,2239.0,99.0,-7.0,
2076.0,2111.0,98.0,-6.0,
2072.0,2038.0,98.0,-6.0,
2222.0,1914.0,98.0,-6.0,
2009.0,1970.0,98.0,-6.0,
2047.0,2139.0,98.0,-6.0,
2157.0,2096.0,98.0,-6.0,
2115.0,2141.0,98.0,-6.0,
2072.0,2073.0,98.0,-6.0,
2030.0,1933.0,98.0,-6.0,
2111.0,2022.0,98.0,-6.0,
2059.0,2031.0,99.0,-7.0,
2032.0,2183.0,99.0,-6.0,
2139.0,2317.0,99.0,-7.0,
2021.0,1994.0,99.0,-6.0,
2110.0,2020.0,99.0,-7.0,
2109.0,2050.0,99.0,-6.0,
2083.0,1965.0,99.0,-7.0,
2061.0,1920.0,99.0,-6.0,
2090.0,2219.0,99.0,-6.0,
2051.0,2236.0,100.0,-6.0,
2116.0,2028.0,100.0,-6.0,
2013.0,2010.0,100.0,-6.0,
2016.0,2055.0,100.0,-6.0,
2105.0,1989.0,101.0,-6.0,
2031.0,2215.0,101.0,-6.0,
2149.0,2304.0,100.0,-6.0,
2087.0,2322.0,101.0,-6.0,
2016.0,1804.0,101.0,-6.0,
2116.0,1718.0,101.0,-6.0,
2157.0,2055.0,101.0,-6.0,
2122.0,2115.0,101.0,-6.0,
2073.0,1974.0,101.0,-6.0,
2079.0,2304.0,101.0,-7.0,
2082.0,2064.0,102.0,-7.0,
2143.0,2166.0,102.0,-7.0,
2110.0,2399.0,102.0,-7.0,
2026.0,1983.0,102.0,-7.0,
2049.0,1630.0,102.0,-7.0,
2015.0,2133.0,102.0,-7.0,
2134.0,2046.0,103.0,-7.0,
2061.0,2019.0,103.0,-7.0,
2050.0,2156.0,103.0,-7.0,
2047.0,2035.0,103.0,-7.0,
2125.0,2077.0,103.0,-7.0,
2068.0,2021.0,103.0,-7.0,
2025.0,2235.0,103.0,-7.0,
2053.0,2222.0,103.0,-7.0,
2057.0,2429.0,104.0,-7.0,
2189.0,1997.0,104.0,-7.0,
2139.0,1760.0,104.0,-7.0,
2055.0,1919.0,105.0,-7.0,
2045.0,2013.0,105.0,-7.0,
2068.0,2097.0,105.0,-7.0,
2063.0,2128.0,105.0,-7.0,
2053.0,2127.0,105.0,-6.0,
2097.0,2096.0,105.0,-7.0,
2101.0,2526.0,105.0,-6.0,
2056.0,2243.0,105.0,-6.0,
2080.0,1876.0,105.0,-6.0,
2120.0,2000.0,105.0,-6.0,
2069.0,1867.0,104.0,-6.0,
2083.0,1866.0,104.0,-6.0,
2080.0,2303.0,104.0,-6.0,
2066.0,2256.0,104.0,-6.0,
2028.0,1868.0,104.0,-6.0,
2082.0,2152.0,104.0,-6.0,
2099.0,2095.0,104.0,-6.0,
2106.0,1897.0,104.0,-6.0,
2090.0,2021.0,104.0,-6.0,
2109.0,2055.0,104.0,-6.0,
2082.0,2105.0,104.0,-6.0,
2007.0,2131.0,104.0,-6.0,
2098.0,2318.0,104.0,-6.0,
2153.0,2028.0,104.0,-6.0,
2027.0,2140.0,105.0,-7.0,
2072.0,1952.0,105.0,-6.0,
2155.0,1804.0,105.0,-7.0,
2143.0,2109.0,105.0,-7.0,
2021.0,2085.0,105.0,-7.0,
2046.0,2225.0,106.0,-7.0,
2170.0,1910.0,106.0,-7.0,
2031.0,1939.0,106.0,-7.0,
2091.0,2089.0,106.0,-7.0,
2080.0,2244.0,106.0,-7.0,
2118.0,2507.0,106.0,-7.0,
2058.0,1654.0,106.0,-7.0,
2068.0,1924.0,107.0,-7.0,
2018.0,2099.0,106.0,-6.0,
1988.0,2421.0,106.0,-6.0,
2126.0,2120.0,107.0,-7.0,
2074.0,1925.0,107.0,-7.0,
2065.0,1927.0,107.0,-7.0,
2018.0,2434.0,107.0,-6.0,
2130.0,2057.0,107.0,-7.0,
2103.0,1798.0,107.0,-7.0,
2041.0,2088.0,107.0,-7.0,
2033.0,1926.0,107.0,-7.0,
2069.0,2229.0,108.0,-7.0,
2057.0,2192.0,108.0,-7.0,
2219.0,2235.0,108.0,-7.0,
2086.0,2437.0,108.0,-7.0,
2030.0,1860.0,108.0,-7.0,
2176.0,1774.0,108.0,-8.0,
2098.0,1910.0,108.0,-7.0,
2080.0,2265.0,108.0,-7.0,
2022.0,1871.0,109.0,-7.0,
1976.0,1854.0,109.0,-7.0,
2155.0,1903.0,109.0,-7.0,
2106.0,2152.0,109.0,-7.0,
2065.0,2095.0,109.0,-7.0,
2037.0,2271.0,109.0,-7.0,
2123.0,2344.0,109.0,-7.0,
2118.0,2842.0,108.0,-7.0,
2081.0,1536.0,109.0,-7.0,
1981.0,1510.0,109.0,-7.0,
2081.0,1978.0,108.0,-6.0,
2095.0,2102.0,109.0,-7.0,
2069.0,2352.0,109.0,-7.0,
1955.0,2076.0,109.0,-7.0,
2169.0,2081.0,109.0,-7.0,
2055.0,2493.0,109.0,-7.0,
2052.0,1676.0,109.0,-6.0,
2185.0,2119.0,109.0,-6.0,
2078.0,1853.0,109.0,-7.0,
2138.0,2292.0,109.0,-7.0,
2004.0,2674.0,110.0,-7.0,
2102.0,1948.0,109.0,-6.0,
2103.0,1693.0,110.0,-6.0,
2074.0,2610.0,110.0,-6.0,
2059.0,1882.0,110.0,-6.0,
1957.0,1386.0,110.0,-6.0,
2136.0,1783.0,110.0,-6.0,
2128.0,1943.0,110.0,-7.0,
2108.0,2063.0,110.0,-6.0,
2151.0,2249.0,111.0,-7.0,
2100.0,2325.0,110.0,-6.0,
2019.0,2249.0,111.0,-7.0,
2110.0,2082.0,111.0,-7.0,
2069.0,2318.0,111.0,-7.0,
2082.0,1956.0,111.0,-7.0,
2068.0,1910.0,112.0,-7.0,
2035.0,1955.0,112.0,-7.0,
2084.0,2136.0,112.0,-7.0,
2007.0,2157.0,112.0,-7.0,
2149.0,2162.0,113.0,-7.0,
2130.0,1951.0,113.0,-7.0,
2087.0,2122.0,113.0,-7.0,
2074.0,2104.0,112.0,-7.0,
2018.0,2326.0,113.0,-6.0,
2118.0,1928.0,113.0,-7.0,
2004.0,1888.0,112.0,-6.0,
1996.0,2311.0,112.0,-6.0,
2027.0,2196.0,112.0,-6.0,
2160.0,1919.0,111.0,-6.0,
2098.0,1905.0,111.0,-6.0,
2182.0,2379.0,111.0,-6.0,
1900.0,2411.0,111.0,-6.0,
2197.0,2263.0,111.0,-6.0,
2194.0,1532.0,111.0,-6.0,
2077.0,1823.0,111.0,-6.0,
2129.0,2022.0,112.0,-7.0,
1980.0,1732.0,112.0,-7.0,
2135.0,2412.0,112.0,-7.0,
2031.0,1937.0,112.0,-6.0,
1981.0,2020.0,112.0,-6.0,
2176.0,2256.0,112.0,-6.0,
2068.0,1994.0,112.0,-6.0,
2101.0,1896.0,112.0,-6.0,
1977.0,2351.0,113.0,-6.0,
2028.0,2529.0,113.0,-6.0,
2150.0,1712.0,113.0,-6.0,
2110.0,1933.0,113.0,-6.0,
2127.0,2212.0,113.0,-6.0,
2096.0,2121.0,113.0,-6.0,
1994.0,2119.0,113.0,-6.0,
1980.0,2046.0,0,
2101.0,1980.0,113.0,-6.0,
2154.0,2019.0,113.0,-6.0,
2095.0,2333.0,113.0,-7.0,
2068.0,2073.0,113.0,-7.0,
2071.0,2114.0,113.0,-7.0,
2080.0,2107.0,113.0,-7.0,
2116.0,2042.0,113.0,-7.0,
2080.0,2204.0,113.0,-7.0,
1989.0,2112.0,113.0,-7.0,
2091.0,2023.0,113.0,-7.0,
2005.0,1971.0,113.0,-7.0,
2078.0,2199.0,113.0,-7.0,
2196.0,2123.0,113.0,-7.0,
2153.0,2004.0,113.0,-7.0,
2062.0,1989.0,113.0,-7.0,
2065.0,2053.0,113.0,-7.0,
2027.0,2055.0,113.0,-7.0,
2066.0,2095.0,113.0,-7.0,
2077.0,2158.0,113.0,-7.0,
2115.0,2268.0,113.0,-7.0,
2125.0,2092.0,113.0,-7.0,
2112.0,2111.0,113.0,-7.0,
2098.0,2023.0,113.0,-7.0,
2024.0,1972.0,113.0,-7.0,
2126.0,2146.0,113.0,-7.0,
1964.0,1944.0,113.0,-7.0,
2120.0,2002.0,113.0,-7.0,
2122.0,2001.0,113.0,-7.0,
2101.0,2160.0,113.0,-7.0,
2129.0,2140.0,113.0,-7.0,
2107.0,2087.0,113.0,-7.0,
2006.0,2045.0,113.0,-7.0,
2060.0,2116.0,113.0,-7.0,
2082.0,1926.0,0,
2085.0,2129.0,113.0,-7.0,
2076.0,1986.0,113.0,-7.0,
2023.0,1912.0,113.0,-7.0,
2132.0,1972.0,113.0,-7.0,
2054.0,2151.0,113.0,-7.0,
2119.0,2162.0,113.0,-7.0,
1989.0,2133.0,113.0,-7.0,
2046.0,2076.0,113.0,-7.0,
2166.0,1940.0,113.0,-7.0,
2105.0,2026.0,113.0,-7.0,
2053.0,2089.0,113.0,-7.0,
2124.0,2148.0,113.0,-7.0,
2092.0,2056.0,113.0,-7.0,
2085.0,2255.0,113.0,-7.0,
2137.0,2023.0,113.0,-7.0,
2026.0,1921.0,113.0,-7.0,
2022.0,2074.0,113.0,-7.0,
2038.0,1919.0,113.0,-7.0,
2098.0,2099.0,113.0,-7.0,
2067.0,2155.0,112.0,-7.0,
2131.0,2037.0,112.0,-7.0,
2096.0,2162.0,112.0,-7.0,
2119.0,2095.0,112.0,-7.0,
2046.0,2045.0,112.0,-7.0,
2103.0,2206.0,112.0,-7.0,
2022.0,2000.0,112.0,-7.0,
2081.0,2018.0,112.0,-7.0,
1979.0,1966.0,112.0,-7.0,
2049.0,1953.0,112.0,-7.0,
2185.0,2129.0,112.0,-7.0,
2144.0,2040.0,112.0,-7.0,
2135.0,2089.0,112.0,-7.0,
2078.0,2154.0,112.0,-7.0,
1997.0,2066.0,112.0,-7.0,
2077.0,1989.0,112.0,-7.0,
2126.0,2192.0,112.0,-7.0,
2070.0,2002.0,112.0,-7.0,
2089.0,2044.0,112.0,-7.0,
2124.0,2075.0,112.0,-7.0,
2107.0,2096.0,112.0,-7.0,
2090.0,2177.0,111.0,-7.0,
2016.0,2068.0,112.0,-7.0,
2091.0,2266.0,111.0,-7.0,
2060.0,1935.0,111.0,-7.0,
2079.0,2157.0,111.0,-7.0,
2071.0,1937.0,111.0,-7.0,
2112.0,2024.0,111.0,-7.0,
2058.0,2330.0,0,
2147.0,2065.0,111.0,-7.0,
2069.0,1941.0,111.0,-7.0,
2079.0,2007.0,111.0,-7.0,
2046.0,2052.0,111.0,-7.0,
2086.0,2059.0,111.0,-7.0,
2088.0,2115.0,111.0,-7.0,
2103.0,2153.0,111.0,-7.0,
2120.0,2211.0,111.0,-7.0,
2134.0,2198.0,111.0,-7.0,
2082.0,1962.0,111.0,-7.0,
2017.0,1976.0,111.0,-7.0,
2055.0,1982.0,111.0,-7.0,
2070.0,2034.0,111.0,-7.0,
2076.0,2115.0,111.0,-7.0,
2082.0,2138.0,111.0,-7.0,
2062.0,2097.0,111.0,-7.0,
2125.0,2019.0,111.0,-7.0,
2137.0,2147.0,111.0,-7.0,
2097.0,2098.0,111.0,-7.0,
2069.0,2079.0,111.0,-7.0,
2051.0,2184.0,110.0,-7.0,
2035.0,2089.0,110.0,-7.0,
2036.0,1948.0,110.0,-7.0,
2119.0,2189.0,110.0,-7.0,
2134.0,2071.0,110.0,-7.0,
2067.0,2017.0,110.0,-7.0,
2074.0,2018.0,110.0,-7.0,
2024.0,2056.0,110.0,-7.0,
2068.0,2094.0,110.0,-7.0,
2072.0,2051.0,110.0,-7.0,
2114.0,2029.0,110.0,-7.0,
2075.0,2109.0,110.0,-7.0,
2078.0,2112.0,110.0,-7.0,
2096.0,2135.0,110.0,-8.0,
2046.0,2037.0,110.0,-8.0,
2086.0,2032.0,110.0,-8.0,
2087.0,2091.0,110.0,-8.0,
2081.0,2095.0,110.0,-8.0,
2082.0,2159.0,110.0,-8.0,
2026.0,2045.0,109.0,-8.0,
2038.0,2057.0,109.0,-8.0,
2073.0,2103.0,109.0,-8.0,
2093.0,2121.0,109.0,-8.0,
2092.0,2033.0,109.0,-8.0,
2134.0,2139.0,109.0,-8.0,
2100.0,2059.0,109.0,-8.0,
2081.0,2180.0,109.0,-8.0,
2053.0,1919.0,109.0,-8.0,
2040.0,1991.0,108.0,-7.0,
2071.0,2021.0,108.0,-7.0,
2164.0,2082.0,108.0,-7.0,
2100.0,2043.0,108.0,-7.0,
2086.0,2119.0,108.0,-7.0,
2107.0,2123.0,108.0,-7.0,
2100.0,2249.0,108.0,-7.0,
2054.0,2004.0,108.0,-7.0,
2069.0,2048.0,108.0,-7.0,
2111.0,2097.0,108.0,-7.0,
2036.0,2107.0,107.0,-7.0,
2094.0,2079.0,107.0,-7.0,
2090.0,2122.0,107.0,-7.0,
2090.0,2089.0,107.0,-7.0,
2088.0,2076.0,107.0,-7.0,
2091.0,2070.0,107.0,-7.0,
2063.0,2075.0,107.0,-7.0,
2084.0,2171.0,107.0,-7.0,
2047.0,2062.0,107.0,-7.0,
2105.0,2039.0,107.0,-8.0,
2102.0,2049.0,107.0,-8.0,
2094.0,2132.0,106.0,-8.0,
2076.0,2156.0,106.0,-8.0,
2049.0,2002.0,106.0,-8.0,
2075.0,2179.0,106.0,-8.0,
2055.0,2025.0,106.0,-8.0,
2062.0,1982.0,106.0,-8.0,
2050.0,1992.0,106.0,-8.0,
2120.0,2061.0,106.0,-8.0,
2107.0,2097.0,106.0,-8.0,
2131.0,2217.0,106.0,-8.0,
2091.0,1917.0,106.0,-8.0,
2058.0,2098.0,106.0,-8.0,
2048.0,1908.0,106.0,-8.0,
2069.0,2116.0,106.0,-8.0,
2069.0,1982.0,106.0,-8.0,
2040.0,2071.0,106.0,-8.0,
2100.0,2076.0,106.0,-8.0,
2098.0,2058.0,106.0,-8.0,
2096.0,2098.0,106.0,-7.0,
2088.0,2116.0,105.0,-7.0,
2072.0,2163.0,105.0,-7.0,
2067.0,2101.0,105.0,-7.0,
2038.0,2092.0,105.0,-7.0,
2066.0,2034.0,105.0,-7.0,
2105.0,2097.0,105.0,-7.0,
2092.0,2099.0,105.0,-7.0,
2084.0,2131.0,105.0,-7.0,
2081.0,2083.0,104.0,-7.0,
2083.0,2108.0,104.0,-7.0,
2059.0,2011.0,104.0,-7.0,
2033.0,2013.0,104.0,-7.0,
2059.0,2061.0,104.0,-7.0,
2099.0,2105.0,104.0,-7.0,
2077.0,2110.0,103.0,-7.0,
2070.0,2156.0,103.0,-7.0,
2096.0,2184.0,103.0,-7.0,
2071.0,2034.0,103.0,-7.0,
2066.0,2239.0,103.0,-7.0,
2053.0,1931.0,103.0,-8.0,
2049.0,2065.0,103.0,-8.0,
2065.0,1844.0,103.0,-8.0,
2076.0,1999.0,103.0,-8.0,
2102.0,2090.0,103.0,-8.0,
2062.0,2263.0,102.0,-8.0,
2105.0,2102.0,102.0,-8.0,
2056.0,2030.0,102.0,-8.0,
2055.0,2037.0,102.0,-8.0,
2056.0,2049.0,102.0,-8.0,
2055.0,2061.0,102.0,-8.0,
2103.0,2087.0,102.0,-8.0,
2085.0,2174.0,102.0,-8.0,
2079.0,2168.0,102.0,-8.0,
2109.0,2051.0,102.0,-8.0,
2114.0,2186.0,101.0,-8.0,
2074.0,2011.0,101.0,-8.0,
2066.0,2017.0,101.0,-8.0,
2020.0,2069.0,101.0,-8.0,
2047.0,2041.0,101.0,-8.0,
2105.0,2073.0,101.0,-8.0,
2118.0,2040.0,100.0,-8.0,
2121.0,2040.0,100.0,-8.0,
2103.0,2120.0,100.0,-8.0,
2074.0,2206.0,100.0,-8.0,
2096.0,2225.0,100.0,-8.0,
2060.0,2085.0,99.0,-8.0,
2080.0,2050.0,99.0,-8.0,
2013.0,2078.0,99.0,-8.0,
2042.0,1991.0,99.0,-7.0,
2076.0,2106.0,99.0,-7.0,
2040.0,2041.0,98.0,-7.0,
2103.0,2054.0,98.0,-7.0,
2115.0,2088.0,98.0,-7.0,
2102.0,2078.0,98.0,-7.0,
2064.0,2128.0,97.0,-7.0,
2075.0,2055.0,97.0,-7.0,
2087.0,2064.0,97.0,-7.0,
2102.0,2006.0,97.0,-8.0,
2095.0,2120.0,97.0,-8.0,
2102.0,2022.0,97.0,-8.0,
2077.0,2060.0,97.0,-8.0,
2077.0,2078.0,96.0,-7.0,
2074.0,2097.0,96.0,-7.0,
2068.0,2137.0,96.0,-7.0,
2053.0,2015.0,96.0,-8.0,
2036.0,2065.0,96.0,-8.0,
2091.0,2114.0,96.0,-8.0,
2103.0,2104.0,95.0,-8.0,
2093.0,2105.0,95.0,-8.0,
2082.0,2104.0,95.0,-8.0,
2102.0,2073.0,95.0,-8.0,
2062.0,2068.0,95.0,-8.0,
2060.0,2067.0,95.0,-8.0,
2071.0,2092.0,95.0,-8.0,
2073.0,2136.0,94.0,-7.0,
2081.0,2059.0,94.0,-7.0,
2072.0,2056.0,93.0,-7.0,
2045.0,2090.0,93.0,-7.0,
2045.0,2130.0,92.0,-7.0,
2042.0,2079.0,92.0,-8.0,
2041.0,2086.0,91.0,-8.0,
2078.0,2051.0,91.0,-8.0,
2092.0,2120.0,91.0,-8.0,
2074.0,2146.0,90.0,-8.0,
2104.0,2049.0,90.0,-8.0,
2142.0,2085.0,90.0,-9.0,
2104.0,2006.0,90.0,-8.0,
2085.0,2079.0,90.0,-9.0,
2063.0,2054.0,90.0,-8.0,
2033.0,2028.0,89.0,-8.0,
2074.0,2075.0,89.0,-8.0,
2079.0,2041.0,89.0,-8.0,
2066.0,2099.0,89.0,-8.0,
2088.0,2144.0,89.0,-8.0,
2083.0,2041.0,89.0,-8.0,
2072.0,2122.0,89.0,-8.0,
2074.0,2153.0,89.0,-8.0,
2067.0,2167.0,89.0,-8.0,
2074.0,2103.0,89.0,-8.0,
2024.0,1996.0,89.0,-8.0,
2084.0,1983.0,89.0,-8.0,
2033.0,2030.0,89.0,-8.0,
2104.0,2073.0,89.0,-8.0,
2090.0,2169.0,89.0,-8.0,
2100.0,2060.0,89.0,-8.0,
2068.0,1984.0,89.0,-7.0,
2076.0,2056.0,89.0,-8.0,
2058.0,2073.0,89.0,-7.0,
2078.0,2108.0,89.0,-7.0,
2105.0,2089.0,89.0,-7.0,
2127.0,2092.0,89.0,-7.0,
2112.0,2120.0,89.0,-7.0,
2110.0,2113.0,88.0,-7.0,
2083.0,2116.0,88.0,-6.0,
2071.0,2100.0,88.0,-6.0,
2052.0,2083.0,88.0,-6.0,
2057.0,2046.0,87.0,-6.0,
2062.0,2068.0,87.0,-6.0,
2078.0,2080.0,87.0,-6.0,
2083.0,2110.0,86.0,-6.0,
2095.0,2081.0,86.0,-6.0,
2075.0,2090.0,86.0,-6.0,
2123.0,2067.0,85.0,-7.0,
2091.0,2064.0,85.0,-7.0,
2061.0,2055.0,84.0,-7.0,
2083.0,2047.0,84.0,-7.0,
2092.0,2073.0,84.0,-7.0,
2086.0,2076.0,84.0,-7.0,
2092.0,2083.0,83.0,-7.0,
2080.0,2078.0,83.0,-7.0,
2096.0,2077.0,83.0,-8.0,
2078.0,2065.0,83.0,-8.0,
2062.0,2065.0,83.0,-8.0,
2054.0,2092.0,83.0,-8.0,
2066.0,2067.0,83.0,-8.0,
2052.0,2078.0,83.0,-8.0,
2068.0,2086.0,83.0,-8.0,
2105.0,2089.0,83.0,-8.0,
2094.0,2107.0,83.0,-8.0,
2077.0,2092.0,83.0,-7.0,
2100.0,2090.0,83.0,-7.0,
2073.0,2097.0,83.0,-7.0,
2058.0,2079.0,83.0,-6.0,
2045.0,2081.0,83.0,-8.0,
2077.0,2048.0,83.0,-8.0,
2089.0,2088.0,83.0,-8.0,
2064.0,2028.0,83.0,-8.0,
2103.0,2155.0,83.0,-7.0,
2087.0,2078.0,83.0,-7.0,
2054.0,2030.0,84.0,-7.0,
2036.0,2031.0,84.0,-7.0,
2044.0,2099.0,84.0,-8.0,
2074.0,2037.0,84.0,-8.0,
2083.0,2089.0,84.0,-6.0,
2079.0,2070.0,84.0,-6.0,
2090.0,2060.0,85.0,-6.0,
2104.0,2118.0,84.0,-6.0,
2105.0,2114.0,84.0,-6.0,
2073.0,2002.0,84.0,-6.0,
2053.0,1995.0,84.0,-6.0,
2050.0,2048.0,83.0,-5.0,
2068.0,2093.0,84.0,-5.0,
2113.0,2116.0,84.0,-4.0,
2102.0,2086.0,83.0,-5.0,
2107.0,2155.0,83.0,-6.0,
2116.0,2059.0,82.0,-5.0,
2056.0,2086.0,82.0,-5.0,
2062.0,2089.0,82.0,-4.0,
2045.0,2075.0,82.0,-4.0,
2049.0,2071.0,81.0,-5.0,
2066.0,2097.0,81.0,-5.0,
2077.0,2078.0,80.0,-5.0,
2094.0,2100.0,79.0,-6.0,
2092.0,2102.0,79.0,-6.0,
2083.0,2097.0,79.0,-5.0,
2099.0,2116.0,78.0,-6.0,
2079.0,2093.0,78.0,-6.0,
2042.0,2118.0,77.0,-6.0,
2035.0,2066.0,77.0,-6.0,
2029.0,2006.0,76.0,-7.0,
2064.0,2053.0,76.0,-7.0,
2095.0,2060.0,76.0,-7.0,
2117.0,2077.0,75.0,-7.0,
2119.0,2099.0,75.0,-7.0,
2082.0,2048.0,75.0,-7.0,
2077.0,2036.0,75.0,-7.0,
2053.0,2049.0,75.0,-8.0,
2083.0,2068.0,75.0,-7.0,
2084.0,2078.0,75.0,-7.0,
2078.0,2093.0,75.0,-7.0,
2098.0,2096.0,75.0,-7.0,
2109.0,2082.0,75.0,-7.0,
2083.0,2077.0,75.0,-7.0,
2073.0,2073.0,75.0,-7.0,
2066.0,2063.0,75.0,-7.0,
2035.0,2061.0,76.0,-7.0,
2061.0,2050.0,76.0,-7.0,
2064.0,2066.0,76.0,-7.0,
2084.0,2106.0,76.0,-7.0,
2098.0,2148.0,76.0,-7.0,
2087.0,2050.0,76.0,-6.0,
2091.0,2107.0,76.0,-6.0,
2050.0,2040.0,76.0,-6.0,
2051.0,2072.0,76.0,-6.0,
2060.0,2158.0,76.0,-6.0,
2051.0,2035.0,75.0,-6.0,
2038.0,2030.0,75.0,-6.0,
2095.0,2080.0,75.0,-6.0,
2096.0,2143.0,75.0,-6.0,
2090.0,2095.0,75.0,-6.0,
2044.0,2012.0,75.0,-6.0,
2080.0,2125.0,75.0,-6.0,
2075.0,2135.0,75.0,-6.0,
2047.0,1931.0,75.0,-6.0,
2087.0,2009.0,75.0,-6.0,
2098.0,2105.0,75.0,-6.0,
2120.0,2023.0,75.0,-6.0,
2095.0,2094.0,75.0,-6.0,
2081.0,2096.0,75.0,-6.0,
2101.0,2145.0,75.0,-6.0,
2101.0,2116.0,75.0,-6.0,
2032.0,2052.0,75.0,-5.0,
2017.0,2030.0,74.0,-5.0,
2059.0,2059.0,74.0,-5.0,
2063.0,2029.0,74.0,-5.0,
2090.0,2090.0,74.0,-5.0,
2103.0,2111.0,74.0,-5.0,
2091.0,2106.0,74.0,-5.0,
2081.0,2093.0,73.0,-5.0,
2103.0,2104.0,73.0,-5.0,
2085.0,2087.0,73.0,-5.0,
2071.0,2096.0,73.0,-5.0,
2093.0,2114.0,73.0,-5.0,
2086.0,2132.0,72.0,-5.0,
2085.0,2071.0,72.0,-5.0,
2080.0,2090.0,72.0,-6.0,
2060.0,2089.0,72.0,-6.0,
2058.0,2084.0,72.0,-6.0,
2071.0,2057.0,72.0,-6.0,
2089.0,2058.0,72.0,-6.0,
2080.0,2069.0,73.0,-6.0,
2090.0,2083.0,73.0,-6.0,
2094.0,2078.0,73.0,-6.0,
2100.0,2078.0,73.0,-6.0,
2084.0,2082.0,73.0,-6.0,
2076.0,2082.0,73.0,-6.0,
2057.0,2088.0,74.0,-6.0,
2053.0,2062.0,74.0,-6.0,
2055.0,2067.0,74.0,-6.0,
2077.0,2062.0,74.0,-6.0,
2087.0,2078.0,74.0,-6.0,
2094.0,2076.0,75.0,-6.0,
2101.0,2081.0,75.0,-6.0,
2120.0,2071.0,75.0,-6.0,
2078.0,2070.0,75.0,-6.0,
2072.0,2063.0,75.0,-6.0,
2062.0,2062.0,75.0,-6.0,
2059.0,2068.0,75.0,-6.0,
2083.0,2082.0,75.0,-6.0,
2082.0,2086.0,75.0,-6.0,
2095.0,2096.0,75.0,-6.0,
2094.0,2089.0,75.0,-6.0,
2073.0,2085.0,75.0,-6.0,
2072.0,2070.0,76.0,-6.0,
2071.0,2072.0,76.0,-6.0,
2072.0,2072.0,76.0,-6.0,
2076.0,2098.0,75.0,-6.0,
2090.0,2062.0,76.0,-6.0,
2105.0,2075.0,76.0,-5.0,
2093.0,2097.0,76.0,-5.0,
2085.0,2041.0,76.0,-5.0,
2085.0,2124.0,76.0,-5.0,
2058.0,2060.0,76.0,-5.0,
2056.0,2047.0,76.0,-5.0,
2065.0,2080.0,76.0,-5.0,
2069.0,1997.0,76.0,-5.0,
2055.0,2117.0,76.0,-5.0,
2064.0,1953.0,76.0,-5.0,
2087.0,2090.0,76.0,-5.0,
2098.0,2101.0,76.0,-5.0,
2086.0,2121.0,76.0,-5.0,
2045.0,2059.0,76.0,-5.0,
2070.0,2056.0,76.0,-5.0,
2083.0,2064.0,76.0,-5.0,
2075.0,2087.0,76.0,-5.0,
2101.0,2125.0,76.0,-5.0,
2106.0,2108.0,76.0,-5.0,
2093.0,2088.0,75.0,-5.0,
2101.0,2100.0,75.0,-5.0,
2105.0,2093.0,75.0,-5.0,
2070.0,2081.0,75.0,-5.0,
2070.0,2111.0,75.0,-5.0,
2074.0,2053.0,74.0,-5.0,
2089.0,2116.0,74.0,-5.0,
2090.0,2027.0,74.0,-5.0,
2068.0,2091.0,74.0,-5.0,
2084.0,2085.0,74.0,-5.0,
2075.0,2069.0,73.0,-5.0,
2103.0,2080.0,73.0,-5.0,
2061.0,2083.0,73.0,-5.0,
2067.0,2067.0,73.0,-5.0,
2075.0,2080.0,73.0,-5.0,
2080.0,2082.0,73.0,-5.0,
2088.0,2092.0,73.0,-5.0,
2106.0,2100.0,73.0,-5.0,
2122.0,2089.0,73.0,-6.0,
2092.0,2091.0,72.0,-6.0,
2086.0,2062.0,72.0,-6.0,
2064.0,2064.0,72.0,-6.0,
2065.0,2058.0,72.0,-6.0,
2060.0,2067.0,72.0,-6.0,
2082.0,2082.0,73.0,-6.0,
2099.0,2096.0,73.0,-6.0,
2091.0,2095.0,73.0,-6.0,
2090.0,2099.0,73.0,-6.0,
2072.0,2071.0,73.0,-6.0,
2068.0,2080.0,73.0,-6.0,
2043.0,2057.0,73.0,-6.0,
2047.0,2072.0,73.0,-6.0,
2049.0,2099.0,73.0,-6.0,
2082.0,2069.0,73.0,-6.0,
2085.0,2119.0,73.0,-6.0,
2106.0,2046.0,73.0,-6.0,
2085.0,2049.0,73.0,-6.0,
2082.0,2058.0,73.0,-5.0,
2087.0,2051.0,72.0,-5.0,
2060.0,2055.0,73.0,-5.0,
2068.0,2046.0,73.0,-5.0,
2070.0,2076.0,73.0,-5.0,
2076.0,2072.0,73.0,-5.0,
2090.0,2077.0,73.0,-5.0,
2116.0,2139.0,73.0,-5.0,
2106.0,2077.0,73.0,-5.0,
2064.0,2063.0,73.0,-5.0,
2067.0,2066.0,73.0,-5.0,
2072.0,2038.0,73.0,-5.0,
2050.0,2097.0,73.0,-5.0,
2076.0,2095.0,73.0,-5.0,
2077.0,2178.0,73.0,-5.0,
2087.0,2079.0,73.0,-5.0,
2089.0,2008.0,73.0,-5.0,
2078.0,2062.0,73.0,-5.0,
2074.0,2071.0,72.0,-5.0,
2056.0,2082.0,72.0,-5.0,
2058.0,2110.0,72.0,-5.0,
2083.0,2043.0,72.0,-5.0,
2100.0,2080.0,72.0,-5.0,
2097.0,2081.0,72.0,-5.0,
2120.0,2101.0,72.0,-5.0,
2124.0,2155.0,72.0,-5.0,
2091.0,2044.0,72.0,-6.0,
2067.0,1979.0,72.0,-5.0,
2045.0,2053.0,72.0,-5.0,
2061.0,2049.0,72.0,-5.0,
2057.0,2065.0,72.0,-5.0,
2073.0,2085.0,72.0,-5.0,
2093.0,2100.0,72.0,-5.0,
2110.0,2109.0,72.0,-5.0,
2097.0,2107.0,72.0,-5.0,
2083.0,2095.0,72.0,-5.0,
2071.0,2087.0,71.0,-5.0,
2054.0,2081.0,71.0,-6.0,
2065.0,2059.0,71.0,-6.0,
2070.0,2062.0,72.0,-6.0,
2140.0,2069.0,72.0,-5.0,
2118.0,2084.0,72.0,-5.0,
2108.0,2077.0,72.0,-6.0,
2109.0,2073.0,72.0,-5.0,
2101.0,2070.0,72.0,-6.0,
2083.0,2064.0,72.0,-6.0,
2070.0,2060.0,72.0,-6.0,
2069.0,2065.0,72.0,-6.0,
2076.0,2072.0,72.0,-5.0,
2090.0,2083.0,72.0,-6.0,
2091.0,2082.0,72.0,-6.0,
2095.0,2086.0,72.0,-6.0,
2093.0,2072.0,72.0,-6.0,
2067.0,2071.0,72.0,-6.0,
2067.0,2061.0,72.0,-6.0,
2061.0,2070.0,72.0,-6.0,
2070.0,2068.0,72.0,-5.0,
2074.0,2089.0,72.0,-6.0,
2079.0,2090.0,73.0,-6.0,
2090.0,2086.0,73.0,-6.0,
2094.0,2085.0,73.0,-6.0,
2098.0,2084.0,73.0,-5.0,
2088.0,2084.0,73.0,-5.0,
2065.0,2035.0,73.0,-5.0,
2058.0,2059.0,73.0,-5.0,
2073.0,2076.0,73.0,-5.0,
2089.0,2091.0,73.0,-5.0,
2103.0,2072.0,73.0,-5.0,
2081.0,2086.0,73.0,-5.0,
2085.0,2085.0,73.0,-5.0,
2072.0,2082.0,73.0,-5.0,
2074.0,2095.0,73.0,-5.0,
2071.0,2053.0,73.0,-5.0,
2077.0,2049.0,73.0,-5.0,
2089.0,2091.0,73.0,-5.0,
2101.0,2099.0,73.0,-5.0,
2094.0,2095.0,74.0,-5.0,
2115.0,2098.0,74.0,-5.0,
2087.0,1980.0,74.0,-5.0,
2062.0,2027.0,74.0,-5.0,
2065.0,2038.0,74.0,-5.0,
2087.0,2055.0,74.0,-5.0,
2076.0,2109.0,74.0,-5.0,
2088.0,2158.0,73.0,-5.0,
2076.0,2115.0,73.0,-5.0,
2090.0,2067.0,73.0,-5.0,
2097.0,2057.0,73.0,-5.0,
2094.0,2053.0,73.0,-5.0,
2081.0,2080.0,73.0,-5.0,
2064.0,2064.0,73.0,-5.0,
2075.0,2072.0,73.0,-5.0,
2053.0,2077.0,73.0,-5.0,
2089.0,2127.0,73.0,-5.0,
2104.0,2127.0,73.0,-5.0,
2092.0,2075.0,72.0,-5.0,
2115.0,2074.0,72.0,-5.0,
2099.0,2084.0,72.0,-5.0,
2081.0,2109.0,72.0,-5.0,
2071.0,2102.0,72.0,-5.0,
2041.0,1999.0,72.0,-5.0,
2070.0,2076.0,72.0,-5.0,
2102.0,2071.0,72.0,-5.0,
2088.0,2055.0,72.0,-5.0,
2076.0,2074.0,72.0,-5.0,
2104.0,2075.0,72.0,-5.0,
2096.0,2071.0,71.0,-5.0,
2082.0,2082.0,71.0,-5.0,
2073.0,2071.0,71.0,-5.0,
2078.0,2079.0,71.0,-5.0,
2064.0,2084.0,71.0,-5.0,
2071.0,2080.0,71.0,-5.0,
2096.0,2093.0,71.0,-5.0,
2097.0,2100.0,71.0,-5.0,
2096.0,2101.0,71.0,-5.0,
2090.0,2088.0,71.0,-5.0,
2070.0,2082.0,71.0,-5.0,
2063.0,2079.0,71.0,-5.0,
2061.0,2072.0,71.0,-5.0,
2087.0,2081.0,71.0,-5.0,
2097.0,2081.0,71.0,-5.0,
2105.0,2109.0,71.0,-6.0,
2095.0,2117.0,71.0,-6.0,
2094.0,2066.0,71.0,-6.0,
2081.0,2065.0,71.0,-6.0,
2064.0,2057.0,71.0,-6.0,
2064.0,2059.0,71.0,-5.0,
2072.0,2069.0,71.0,-6.0,
2086.0,2075.0,71.0,-6.0,
2092.0,2091.0,71.0,-5.0,
2105.0,2093.0,71.0,-5.0,
2088.0,2092.0,71.0,-5.0,
2097.0,2081.0,71.0,-5.0,
2075.0,2086.0,72.0,-5.0,
2073.0,2059.0,72.0,-5.0,
2075.0,2043.0,72.0,-5.0,
2079.0,2062.0,72.0,-5.0,
2081.0,2085.0,72.0,-5.0,
2089.0,2084.0,72.0,-5.0,
2099.0,2079.0,72.0,-5.0,
2101.0,2112.0,72.0,-5.0,
2080.0,2063.0,72.0,-5.0,
2062.0,2054.0,72.0,-5.0,
2089.0,2087.0,72.0,-5.0,
2083.0,2120.0,72.0,-5.0,
2068.0,2078.0,72.0,-5.0,
2078.0,1932.0,72.0,-5.0,
2059.0,2037.0,72.0,-5.0,
2073.0,2100.0,72.0,-5.0,
2095.0,2072.0,72.0,-5.0,
2087.0,2119.0,72.0,-5.0,
2069.0,2101.0,72.0,-5.0,
2050.0,2049.0,72.0,-5.0,
2061.0,2060.0,72.0,-5.0,
2070.0,2087.0,72.0,-5.0,
2112.0,2134.0,72.0,-5.0,
2116.0,2125.0,72.0,-5.0,
2073.0,2113.0,72.0,-5.0,
2123.0,2059.0,72.0,-5.0,
2129.0,2085.0,72.0,-5.0,
2073.0,2088.0,72.0,-5.0,
2078.0,2092.0,72.0,-5.0,
2070.0,2067.0,72.0,-5.0,
2081.0,2109.0,72.0,-5.0,
2092.0,2033.0,72.0,-5.0,
2082.0,2038.0,72.0,-5.0,
2087.0,2098.0,72.0,-5.0,
2074.0,2034.0,72.0,-5.0,
2063.0,2094.0,71.0,-5.0,
2076.0,2072.0,71.0,-5.0,
2047.0,2072.0,71.0,-5.0,
2071.0,2045.0,71.0,-5.0,
2093.0,2078.0,71.0,-5.0,
2119.0,2093.0,71.0,-6.0,
2125.0,2096.0,71.0,-5.0,
2108.0,2099.0,71.0,-6.0,
2102.0,2090.0,71.0,-6.0,
2074.0,2096.0,71.0,-6.0,
2049.0,2087.0,71.0,-5.0,
2038.0,2075.0,71.0,-5.0,
2057.0,2072.0,71.0,-5.0,
2064.0,2078.0,71.0,-5.0,
2069.0,2088.0,71.0,-5.0,
2078.0,2094.0,71.0,-5.0,
2079.0,2091.0,71.0,-5.0,
2061.0,2085.0,71.0,-5.0,
2053.0,2079.0,71.0,-5.0,
2057.0,2074.0,71.0,-5.0,
2042.0,2065.0,71.0,-5.0,
2068.0,2074.0,71.0,-5.0,
2075.0,2091.0,71.0,-5.0,
2087.0,2075.0,71.0,-5.0,
2102.0,2076.0,71.0,-5.0,
2092.0,2083.0,72.0,-5.0,
2080.0,2067.0,72.0,-5.0,
2066.0,2063.0,72.0,-5.0,
2047.0,2060.0,72.0,-5.0,
2051.0,2066.0,72.0,-5.0,
2068.0,2075.0,72.0,-5.0,
2080.0,2087.0,72.0,-5.0,
2112.0,2103.0,72.0,-5.0,
2088.0,2094.0,72.0,-5.0,
2080.0,2089.0,72.0,-5.0,
2060.0,2076.0,72.0,-5.0,
2063.0,2077.0,72.0,-5.0,
2064.0,2063.0,72.0,-5.0,
2063.0,2071.0,72.0,-5.0,
2080.0,2081.0,72.0,-5.0,
2084.0,2097.0,72.0,-5.0,
2105.0,2099.0,72.0,-5.0,
2102.0,2105.0,72.0,-5.0,
2102.0,2072.0,72.0,-5.0,
2088.0,2084.0,72.0,-5.0,
2061.0,2079.0,72.0,-5.0,
2046.0,2093.0,72.0,-5.0,
2086.0,2023.0,72.0,-5.0,
2070.0,2088.0,72.0,-5.0,
2104.0,2100.0,72.0,-5.0,
2123.0,2077.0,72.0,-5.0,
2096.0,2046.0,72.0,-5.0,
2088.0,2037.0,72.0,-5.0,
2066.0,2102.0,72.0,-5.0,
2034.0,2097.0,72.0,-5.0,
2032.0,2019.0,72.0,-5.0,
2035.0,1993.0,72.0,-5.0,
2078.0,2088.0,72.0,-5.0,
2072.0,2012.0,72.0,-5.0,
2130.0,2091.0,72.0,-5.0,
2158.0,2052.0,72.0,-5.0,
2134.0,2058.0,72.0,-5.0,
2082.0,2068.0,72.0,-5.0,
2083.0,2084.0,72.0,-5.0,
2078.0,2075.0,72.0,-5.0,
2077.0,2097.0,72.0,-5.0,
2086.0,2107.0,71.0,-5.0,
2112.0,2112.0,71.0,-5.0,
2105.0,2151.0,71.0,-5.0,
2080.0,2210.0,71.0,-5.0,
2072.0,2006.0,71.0,-5.0,
2061.0,2011.0,71.0,-5.0,
2068.0,2031.0,71.0,-5.0,
2053.0,2064.0,71.0,-5.0,
2065.0,2069.0,71.0,-5.0,
2079.0,2079.0,71.0,-5.0,
2088.0,2088.0,71.0,-5.0,
2085.0,2097.0,71.0,-5.0,
2075.0,2078.0,71.0,-5.0,
2064.0,2077.0,71.0,-5.0,
2064.0,2082.0,71.0,-5.0,
2046.0,2079.0,71.0,-5.0,
2057.0,2066.0,71.0,-5.0,
2082.0,2078.0,71.0,-5.0,
2082.0,2084.0,71.0,-5.0,
2094.0,2097.0,71.0,-5.0,
2093.0,2098.0,71.0,-5.0,
2098.0,2082.0,71.0,-5.0,
2075.0,2072.0,71.0,-5.0,
2064.0,2073.0,71.0,-5.0,
2065.0,2074.0,71.0,-5.0,
2086.0,2083.0,71.0,-5.0,
2097.0,2105.0,71.0,-5.0,
2101.0,2106.0,71.0,-5.0,
2104.0,2090.0,71.0,-5.0,
2090.0,2092.0,71.0,-5.0,
2072.0,2072.0,71.0,-5.0,
2068.0,2073.0,71.0,-5.0,
2062.0,2073.0,71.0,-5.0,
2070.0,2052.0,71.0,-5.0,
2075.0,2069.0,71.0,-5.0,
2094.0,2097.0,71.0,-5.0,
2102.0,2100.0,71.0,-5.0,
2110.0,2105.0,71.0,-5.0,
2083.0,2093.0,71.0,-5.0,
2055.0,2073.0,71.0,-5.0,
2075.0,2067.0,71.0,-5.0,
2077.0,2071.0,71.0,-5.0,
2076.0,2054.0,71.0,-5.0,
2073.0,2079.0,72.0,-5.0,
2081.0,2080.0,72.0,-5.0,
2080.0,2116.0,72.0,-5.0,
2109.0,2139.0,72.0,-5.0,
2080.0,2041.0,72.0,-5.0,
2063.0,2057.0,72.0,-5.0,
2039.0,2059.0,72.0,-5.0,
2053.0,2058.0,72.0,-5.0,
2063.0,2092.0,72.0,-5.0,
2089.0,2086.0,72.0,-5.0,
2097.0,2090.0,72.0,-5.0,
2116.0,2089.0,72.0,-5.0,
2072.0,2057.0,72.0,-5.0,
2085.0,2013.0,72.0,-5.0,
2071.0,2048.0,72.0,-5.0,
2051.0,2060.0,72.0,-5.0,
2077.0,2060.0,72.0,-5.0,
2084.0,2087.0,72.0,-5.0,
2051.0,2032.0,72.0,-5.0,
2088.0,2103.0,72.0,-5.0,
2100.0,2103.0,72.0,-5.0,
2084.0,2111.0,72.0,-5.0,
2071.0,2122.0,72.0,-5.0,
2063.0,2096.0,72.0,-5.0,
2044.0,2025.0,71.0,-5.0,
2047.0,2024.0,71.0,-5.0,
2076.0,2076.0,71.0,-5.0,
2100.0,2148.0,71.0,-5.0,
2086.0,2129.0,71.0,-5.0,
2088.0,2051.0,71.0,-5.0,
2092.0,2008.0,71.0,-5.0,
2063.0,2058.0,71.0,-5.0,
2077.0,2085.0,71.0,-5.0,
2067.0,2106.0,71.0,-5.0,
2057.0,2038.0,71.0,-5.0,
2078.0,2070.0,71.0,-5.0,
2072.0,2051.0,71.0,-5.0,
2103.0,2092.0,71.0,-5.0,
2083.0,2086.0,71.0,-5.0,
2096.0,2089.0,71.0,-5.0,
2082.0,2088.0,71.0,-5.0,
2061.0,2084.0,70.0,-5.0,
2061.0,2079.0,70.0,-5.0,
2121.0,2082.0,70.0,-5.0,
2092.0,2096.0,70.0,-5.0,
2087.0,2095.0,70.0,-5.0,
2095.0,2097.0,70.0,-5.0,
2101.0,2092.0,70.0,-5.0,
2093.0,2085.0,70.0,-5.0,
2076.0,2072.0,71.0,-5.0,
2079.0,2070.0,71.0,-5.0,
2056.0,2060.0,71.0,-5.0,
2066.0,2072.0,71.0,-5.0,
2062.0,2088.0,71.0,-5.0,
2073.0,2087.0,71.0,-5.0,
2081.0,2095.0,71.0,-5.0,
2096.0,2084.0,71.0,-5.0,
2092.0,2080.0,71.0,-5.0,
2070.0,2062.0,71.0,-5.0,
2068.0,2065.0,71.0,-5.0,
2060.0,2059.0,71.0,-5.0,
2070.0,2069.0,71.0,-5.0,
2082.0,2070.0,71.0,-5.0,
2095.0,2083.0,71.0,-5.0,
2102.0,2086.0,71.0,-5.0,
2080.0,2073.0,72.0,-5.0,
2079.0,2066.0,72.0,-5.0,
2071.0,2064.0,72.0,-5.0,
2063.0,2069.0,72.0,-5.0,
2058.0,2078.0,72.0,-5.0,
2084.0,2052.0,72.0,-5.0,
2091.0,2084.0,72.0,-5.0,
2098.0,2078.0,72.0,-5.0,
2109.0,2108.0,72.0,-5.0,
2106.0,2146.0,72.0,-5.0,
2092.0,2145.0,72.0,-5.0,
2064.0,1991.0,72.0,-5.0,
2049.0,2013.0,72.0,-5.0,
2080.0,2131.0,72.0,-5.0,
2064.0,2028.0,72.0,-5.0,
2091.0,2146.0,72.0,-5.0,
2106.0,2048.0,72.0,-5.0,
2083.0,2021.0,72.0,-5.0,
2085.0,2065.0,72.0,-5.0,
2082.0,2073.0,72.0,-5.0,
2066.0,2092.0,72.0,-5.0,
2071.0,2055.0,72.0,-5.0,
2056.0,2094.0,72.0,-5.0,
2089.0,2050.0,71.0,-5.0,
2098.0,2074.0,71.0,-5.0,
2095.0,2086.0,71.0,-5.0,
2109.0,2093.0,71.0,-5.0,
2087.0,2091.0,71.0,-5.0,
2079.0,2113.0,71.0,-5.0,
2079.0,2101.0,71.0,-5.0,
2059.0,2045.0,71.0,-5.0,
2051.0,2067.0,71.0,-5.0,
2095.0,2094.0,71.0,-5.0,
2092.0,2069.0,71.0,-5.0,
2094.0,2091.0,71.0,-5.0,
2104.0,2127.0,71.0,-5.0,
2069.0,2075.0,71.0,-5.0,
2065.0,2026.0,71.0,-5.0,
2069.0,2054.0,71.0,-5.0,
2061.0,2070.0,71.0,-5.0,
2078.0,2089.0,71.0,-5.0,
2091.0,2081.0,71.0,-5.0,
2097.0,2091.0,71.0,-5.0,
2095.0,2099.0,71.0,-5.0,
2104.0,2096.0,71.0,-5.0,
2090.0,2080.0,71.0,-5.0,
2065.0,2075.0,71.0,-5.0,
2066.0,2072.0,71.0,-5.0,
2067.0,2082.0,71.0,-5.0,
2077.0,2082.0,71.0,-5.0,
2098.0,2083.0,71.0,-5.0,
2095.0,2083.0,71.0,-5.0,
2117.0,2086.0,71.0,-5.0,
2099.0,2080.0,71.0,-5.0,
2095.0,2069.0,71.0,-5.0,
2071.0,2062.0,71.0,-5.0,
2080.0,2064.0,71.0,-5.0,
2067.0,2069.0,71.0,-5.0,
2070.0,2076.0,71.0,-5.0,
2103.0,2090.0,71.0,-5.0,
2099.0,2097.0,71.0,-5.0,
2094.0,2094.0,71.0,-5.0,
2084.0,2079.0,71.0,-5.0,
2078.0,2073.0,71.0,-5.0,
2056.0,2065.0,71.0,-5.0,
2063.0,2065.0,71.0,-5.0,
2064.0,2077.0,71.0,-5.0,
2086.0,2078.0,71.0,-5.0,
2106.0,2078.0,71.0,-5.0,
2096.0,2084.0,71.0,-5.0,
2091.0,2082.0,71.0,-5.0,
2076.0,2069.0,72.0,-5.0,
2077.0,2069.0,71.0,-5.0,
2085.0,2082.0,71.0,-5.0,
2035.0,2101.0,71.0,-5.0,
2071.0,2049.0,72.0,-5.0,
2091.0,2120.0,71.0,-5.0,
2119.0,2107.0,72.0,-5.0,
2082.0,2025.0,72.0,-5.0,
2106.0,2034.0,72.0,-5.0,
2062.0,2051.0,72.0,-5.0,
2076.0,2047.0,72.0,-5.0,
2070.0,2022.0,72.0,-5.0,
2073.0,2056.0,72.0,-5.0,
2077.0,2090.0,72.0,-5.0,
2092.0,2119.0,71.0,-5.0,
2116.0,2113.0,71.0,-5.0,
2105.0,2093.0,71.0,-5.0,
2102.0,2112.0,71.0,-5.0,
2089.0,2072.0,71.0,-5.0,
2066.0,2073.0,71.0,-5.0,
2058.0,2082.0,71.0,-5.0,
2065.0,2085.0,71.0,-5.0,
2064.0,2100.0,71.0,-5.0,
2084.0,2095.0,71.0,-5.0,
2103.0,2142.0,71.0,-5.0,
2107.0,2088.0,71.0,-5.0,
2076.0,2037.0,71.0,-5.0,
2066.0,2057.0,71.0,-5.0,
2066.0,2066.0,71.0,-5.0,
2062.0,2070.0,71.0,-5.0,
2075.0,2070.0,71.0,-5.0,
2076.0,2074.0,71.0,-5.0,
2105.0,2089.0,71.0,-5.0,
2102.0,2093.0,71.0,-5.0,
2100.0,2092.0,71.0,-5.0,
2086.0,2082.0,71.0,-5.0,
2077.0,2075.0,71.0,-5.0,
2061.0,2068.0,71.0,-5.0,
2072.0,2069.0,71.0,-5.0,
2087.0,2083.0,71.0,-5.0,
2082.0,2082.0,71.0,-5.0,
2102.0,2082.0,71.0,-5.0,
2089.0,2100.0,71.0,-5.0,
2092.0,2090.0,71.0,-5.0,
2088.0,2085.0,71.0,-5.0,
2070.0,2071.0,71.0,-5.0,
2066.0,2068.0,71.0,-5.0,
2054.0,2068.0,71.0,-5.0,
2072.0,2063.0,71.0,-5.0,
2077.0,2086.0,71.0,-5.0,
2092.0,2087.0,71.0,-5.0,
2083.0,2094.0,71.0,-5.0,
2082.0,2082.0,71.0,-5.0,
2062.0,2076.0,71.0,-5.0,
2064.0,2068.0,71.0,-5.0,
2067.0,2069.0,71.0,-5.0,
2080.0,2073.0,71.0,-5.0,
2079.0,2087.0,71.0,-5.0,
2116.0,2084.0,71.0,-5.0,
2097.0,2095.0,71.0,-5.0,
2105.0,2120.0,71.0,-5.0,
2086.0,2084.0,71.0,-5.0,
2073.0,2050.0,71.0,-5.0,
2047.0,2093.0,71.0,-5.0,
2066.0,2051.0,71.0,-5.0,
2067.0,2073.0,71.0,-5.0,
2071.0,1992.0,71.0,-5.0,
2098.0,2084.0,71.0,-5.0,
2100.0,2137.0,71.0,-5.0,
2100.0,2074.0,71.0,-5.0,
2122.0,2113.0,71.0,-5.0,
2076.0,2000.0,71.0,-5.0,
2073.0,2120.0,71.0,-5.0,
2060.0,2075.0,71.0,-5.0,
2042.0,2009.0,0,
2060.0,1991.0,71.0,-5.0,
2085.0,2041.0,71.0,-5.0,
2097.0,2093.0,71.0,-5.0,
2079.0,2008.0,71.0,-5.0,
2087.0,2103.0,71.0,-5.0,
2085.0,2150.0,71.0,-5.0,
2078.0,2042.0,71.0,-5.0,
2067.0,2052.0,71.0,-5.0,
2084.0,2071.0,71.0,-5.0,
2099.0,2082.0,71.0,-5.0,
2115.0,2107.0,71.0,-5.0,
2119.0,2116.0,70.0,-5.0,
2101.0,2109.0,70.0,-5.0,
2089.0,2100.0,70.0,-5.0,
2074.0,2091.0,70.0,-5.0,
2074.0,2085.0,0,
2064.0,2088.0,70.0,-5.0,
2089.0,2089.0,70.0,-5.0,
2093.0,2099.0,70.0,-5.0,
2093.0,2105.0,70.0,-5.0,
2089.0,2097.0,70.0,-5.0,
2076.0,2091.0,70.0,-5.0,
2077.0,2083.0,70.0,-5.0,
2079.0,2076.0,70.0,-5.0,
2080.0,2079.0,70.0,-5.0,
2073.0,2071.0,70.0,-5.0,
2073.0,2072.0,70.0,-5.0,
2091.0,2079.0,70.0,-5.0,
2096.0,2075.0,71.0,-5.0,
2093.0,2071.0,71.0,-5.0,
2094.0,2057.0,71.0,-5.0,
2084.0,2057.0,71.0,-5.0,
2050.0,2043.0,71.0,-5.0,
2054.0,2059.0,71.0,-5.0,
2074.0,2068.0,71.0,-5.0,
2077.0,2074.0,71.0,-5.0,
2092.0,2080.0,71.0,-5.0,
2094.0,2092.0,71.0,-5.0,
2099.0,2091.0,71.0,-5.0,
2075.0,2074.0,71.0,-5.0,
2063.0,2067.0,72.0,-5.0,
2062.0,2062.0,72.0,-5.0,
2068.0,2073.0,72.0,-5.0,
2088.0,2069.0,72.0,-5.0,
2106.0,2081.0,72.0,-5.0,
2102.0,2075.0,72.0,-5.0,
2090.0,2090.0,72.0,-5.0,
2093.0,2090.0,72.0,-5.0,
2083.0,2074.0,72.0,-5.0,
2084.0,2079.0,72.0,-5.0,
2055.0,2083.0,72.0,-5.0,
2072.0,2078.0,72.0,-5.0,
2089.0,2089.0,72.0,-5.0,
2091.0,2104.0,72.0,-5.0,
2096.0,2111.0,72.0,-5.0,
2098.0,2086.0,72.0,-5.0,
2089.0,2078.0,72.0,-5.0,
2076.0,2079.0,72.0,-5.0,
2058.0,2038.0,72.0,-5.0,
2077.0,2075.0,72.0,-5.0,
2086.0,2091.0,72.0,-5.0,
2071.0,2044.0,72.0,-5.0,
2067.0,2047.0,72.0,-5.0,
2096.0,2093.0,72.0,-5.0,
2092.0,2091.0,72.0,-5.0,
2091.0,2091.0,72.0,-5.0,
2069.0,2026.0,72.0,-5.0,
2066.0,2048.0,72.0,-5.0,
2056.0,2067.0,72.0,-5.0,
2074.0,2069.0,72.0,-5.0,
2080.0,2082.0,72.0,-5.0,
2102.0,2104.0,71.0,-5.0,
2102.0,2103.0,71.0,-5.0,
2121.0,2060.0,71.0,-5.0,
2094.0,2121.0,71.0,-5.0,
2062.0,2158.0,71.0,-5.0,
2090.0,2058.0,71.0,-5.0,
2065.0,2003.0,71.0,-5.0,
2054.0,2019.0,71.0,-5.0,
2096.0,2077.0,71.0,-5.0,
2118.0,2074.0,71.0,-5.0,
2095.0,2070.0,71.0,-5.0,
2088.0,2081.0,71.0,-5.0,
2083.0,2086.0,71.0,-5.0,
2068.0,2072.0,71.0,-5.0,
2062.0,2076.0,71.0,-5.0,
2054.0,2082.0,71.0,-5.0,
2083.0,2137.0,71.0,-5.0,
2101.0,2113.0,71.0,-5.0,
2093.0,2045.0,71.0,-5.0,
2086.0,2049.0,70.0,-5.0,
2101.0,2074.0,70.0,-5.0,
2079.0,2084.0,70.0,-5.0,
2072.0,2072.0,70.0,-5.0,
2060.0,2056.0,70.0,-5.0,
2063.0,2109.0,70.0,-5.0,
2074.0,2113.0,70.0,-5.0,
2087.0,2119.0,70.0,-5.0,
2081.0,1995.0,70.0,-5.0,
2104.0,2056.0,0,
2102.0,2090.0,70.0,-5.0,
2078.0,2085.0,70.0,-5.0,
2070.0,2065.0,70.0,-5.0,
2059.0,2012.0,70.0,-5.0,
2073.0,2078.0,70.0,-5.0,
2085.0,2125.0,70.0,-5.0,
2117.0,2071.0,70.0,-5.0,
2101.0,2114.0,70.0,-5.0,
2102.0,2111.0,70.0,-5.0,
2069.0,2061.0,70.0,-5.0,
2093.0,2069.0,70.0,-5.0,
2078.0,2050.0,70.0,-5.0,
2070.0,2080.0,70.0,-5.0,
2083.0,2119.0,70.0,-5.0,
2106.0,2083.0,70.0,-5.0,
2128.0,2118.0,70.0,-5.0,
2106.0,2101.0,70.0,-5.0,
2091.0,2063.0,70.0,-5.0,
2080.0,2087.0,70.0,-5.0,
2060.0,1996.0,70.0,-5.0,
2031.0,2033.0,70.0,-5.0,
2059.0,2090.0,71.0,-5.0,
2113.0,2154.0,71.0,-5.0,
2079.0,1978.0,71.0,-5.0,
2076.0,2067.0,71.0,-5.0,
2091.0,2118.0,71.0,-5.0,
2081.0,2112.0,71.0,-5.0,
2035.0,2147.0,71.0,-5.0,
2035.0,2024.0,71.0,-5.0,
2038.0,1972.0,71.0,-5.0,
2082.0,2010.0,71.0,-5.0,
2121.0,2080.0,71.0,-5.0,
2081.0,2081.0,71.0,-5.0,
2113.0,2122.0,71.0,-5.0,
2125.0,2173.0,0,
2144.0,2038.0,71.0,-5.0,
2123.0,2133.0,71.0,-5.0,
2066.0,2062.0,71.0,-5.0,
2076.0,2015.0,71.0,-5.0,
2096.0,2077.0,71.0,-5.0,
2027.0,2077.0,71.0,-5.0,
2005.0,2039.0,71.0,-5.0,
2047.0,2005.0,71.0,-5.0,
2081.0,2084.0,71.0,-5.0,
2105.0,2104.0,71.0,-5.0,
2068.0,2093.0,71.0,-5.0,
2086.0,2157.0,71.0,-5.0,
2156.0,2136.0,71.0,-5.0,
2144.0,2141.0,70.0,-5.0,
2109.0,2050.0,70.0,-5.0,
2091.0,1997.0,70.0,-5.0,
2079.0,2104.0,70.0,-5.0,
2079.0,2180.0,70.0,-5.0,
2041.0,2033.0,70.0,-5.0,
2003.0,2019.0,70.0,-5.0,
2053.0,1968.0,70.0,-5.0,
2091.0,2021.0,70.0,-5.0,
2193.0,2095.0,70.0,-5.0,
2146.0,2163.0,71.0,-5.0,
2095.0,2094.0,71.0,-5.0,
2071.0,2061.0,71.0,-5.0,
2082.0,2017.0,0,
2063.0,2079.0,71.0,-5.0,
2113.0,2079.0,71.0,-5.0,
2061.0,2072.0,71.0,-5.0,
2046.0,2134.0,71.0,-5.0,
2048.0,2214.0,71.0,-5.0,
2132.0,2231.0,71.0,-5.0,
2045.0,2076.0,71.0,-5.0,
2080.0,1883.0,71.0,-5.0,
2084.0,1988.0,71.0,-5.0,
2075.0,2053.0,71.0,-6.0,
2058.0,2068.0,71.0,-6.0,
2051.0,2045.0,71.0,-6.0,
2068.0,2076.0,71.0,-6.0,
2050.0,2091.0,71.0,-6.0,
2070.0,2131.0,71.0,-5.0,
2070.0,2128.0,71.0,-5.0,
2084.0,2162.0,71.0,-5.0,
2074.0,2074.0,71.0,-5.0,
2101.0,2034.0,71.0,-5.0,
2113.0,2064.0,71.0,-5.0,
2134.0,2104.0,71.0,-5.0,
2113.0,2157.0,72.0,-5.0,
2112.0,2101.0,72.0,-5.0,
2117.0,2060.0,72.0,-5.0,
2094.0,2250.0,72.0,-5.0,
2092.0,2131.0,72.0,-5.0,
2035.0,1896.0,72.0,-6.0,
2066.0,2132.0,72.0,-6.0,
2019.0,2049.0,73.0,-6.0,
2038.0,1954.0,73.0,-6.0,
2101.0,2191.0,73.0,-6.0,
2095.0,2019.0,73.0,-6.0,
2035.0,1927.0,73.0,-6.0,
2070.0,1909.0,73.0,-6.0,
2136.0,2072.0,73.0,-6.0,
2107.0,2049.0,73.0,-6.0,
2031.0,1994.0,73.0,-5.0,
2054.0,2203.0,73.0,-6.0,
2065.0,2038.0,73.0,-5.0,
2042.0,2128.0,73.0,-5.0,
2064.0,2116.0,72.0,-5.0,
2100.0,2054.0,72.0,-5.0,
2107.0,2031.0,72.0,-5.0,
2130.0,2018.0,72.0,-5.0,
2091.0,2125.0,72.0,-5.0,
2059.0,2124.0,72.0,-5.0,
2078.0,2088.0,72.0,-5.0,
2110.0,2100.0,72.0,-5.0,
2075.0,2025.0,72.0,-5.0,
2079.0,2080.0,72.0,-5.0,
2078.0,2138.0,73.0,-5.0,
2088.0,2199.0,73.0,-5.0,
2056.0,2102.0,73.0,-6.0,
2052.0,2120.0,73.0,-6.0,
2046.0,2066.0,73.0,-6.0,
2092.0,2070.0,74.0,-6.0,
2130.0,2119.0,74.0,-6.0,
2126.0,2194.0,74.0,-6.0,
2091.0,2279.0,75.0,-6.0,
2083.0,1932.0,75.0,-7.0,
2079.0,1952.0,75.0,-7.0,
2049.0,2037.0,75.0,-7.0,
2080.0,2068.0,0,
2080.0,2148.0,76.0,-7.0,
2058.0,2098.0,76.0,-7.0,
2067.0,2017.0,77.0,-7.0,
2043.0,2099.0,77.0,-7.0,
2083.0,2184.0,77.0,-7.0,
2102.0,2058.0,77.0,-7.0,
2081.0,1804.0,78.0,-7.0,
2086.0,2009.0,78.0,-7.0,
2076.0,2039.0,78.0,-7.0,
2084.0,2198.0,79.0,-7.0,
2071.0,2222.0,79.0,-7.0,
2096.0,2046.0,79.0,-7.0,
2104.0,1779.0,79.0,-7.0,
2188.0,2077.0,79.0,-7.0,
2185.0,2077.0,80.0,-7.0,
2095.0,1984.0,80.0,-7.0,
2090.0,2176.0,80.0,-7.0,
2117.0,2185.0,80.0,-7.0,
2009.0,2001.0,80.0,-7.0,
1963.0,2153.0,80.0,-7.0,
2071.0,1879.0,80.0,-7.0,
2091.0,2153.0,80.0,-7.0,
2146.0,2094.0,80.0,-7.0,
2094.0,2023.0,80.0,-7.0,
2093.0,2066.0,80.0,-6.0,
2112.0,2161.0,80.0,-6.0,
2040.0,1946.0,80.0,-6.0,
2057.0,1956.0,80.0,-6.0,
2058.0,2041.0,80.0,-6.0,
2079.0,2071.0,80.0,-6.0,
2075.0,2088.0,80.0,-7.0,
2059.0,2125.0,80.0,-7.0,
2057.0,2190.0,81.0,-7.0,
2058.0,2344.0,81.0,-6.0,
1974.0,1857.0,81.0,-6.0,
2010.0,2113.0,81.0,-7.0,
2105.0,2057.0,81.0,-7.0,
2128.0,2073.0,81.0,-7.0,
2153.0,2111.0,82.0,-7.0,
2136.0,2039.0,82.0,-7.0,
2128.0,2030.0,82.0,-7.0,
2131.0,2092.0,82.0,-7.0,
2078.0,2074.0,82.0,-7.0,
2111.0,2116.0,82.0,-7.0,
2063.0,2207.0,83.0,-7.0,
2046.0,2002.0,83.0,-7.0,
2052.0,2041.0,83.0,-7.0,
2056.0,2043.0,83.0,-7.0,
2103.0,1989.0,84.0,-7.0,
2063.0,2126.0,84.0,-7.0,
2124.0,2072.0,84.0,-7.0,
2120.0,1899.0,85.0,-7.0,
2094.0,2103.0,85.0,-7.0,
2113.0,1962.0,85.0,-7.0,
2061.0,2063.0,86.0,-7.0,
2080.0,2050.0,86.0,-7.0,
2063.0,2245.0,86.0,-7.0,
2099.0,2043.0,86.0,-7.0,
2094.0,2007.0,87.0,-7.0,
2135.0,2210.0,87.0,-7.0,
2067.0,2261.0,87.0,-7.0,
2067.0,2120.0,87.0,-7.0,
1982.0,1844.0,88.0,-7.0,
2057.0,2003.0,88.0,-6.0,
2036.0,2103.0,88.0,-6.0,
2088.0,2030.0,88.0,-6.0,
2131.0,2186.0,88.0,-6.0,
2145.0,2055.0,88.0,-6.0,
2068.0,2001.0,89.0,-6.0,
2071.0,2070.0,89.0,-6.0,
2067.0,2131.0,89.0,-6.0,
2053.0,2099.0,89.0,-6.0,
2078.0,2142.0,89.0,-6.0,
2081.0,2158.0,89.0,-7.0,
2085.0,2131.0,89.0,-7.0,
2057.0,2069.0,89.0,-7.0,
2091.0,2137.0,90.0,-7.0,
2124.0,2093.0,90.0,-7.0,
2080.0,2029.0,90.0,-7.0,
2065.0,1973.0,90.0,-6.0,
2024.0,2066.0,90.0,-6.0,
2051.0,2110.0,90.0,-6.0,
2082.0,2086.0,90.0,-6.0,
2107.0,2070.0,90.0,-6.0,
2107.0,2146.0,90.0,-6.0,
2085.0,2085.0,90.0,-6.0,
2063.0,2052.0,90.0,-6.0,
2054.0,2011.0,91.0,-7.0,
2019.0,2038.0,91.0,-7.0,
2097.0,2176.0,91.0,-7.0,
2129.0,2194.0,91.0,-7.0,
2065.0,1965.0,91.0,-7.0,
2093.0,2017.0,91.0,-7.0,
2111.0,1994.0,91.0,-7.0,
2086.0,2056.0,91.0,-7.0,
2118.0,2194.0,92.0,-7.0,
2116.0,2176.0,92.0,-7.0,
1996.0,1947.0,92.0,-7.0,
2043.0,2033.0,92.0,-7.0,
2053.0,2001.0,92.0,-7.0,
2108.0,2041.0,92.0,-7.0,
2078.0,2112.0,92.0,-6.0,
2122.0,2137.0,92.0,-6.0,
2102.0,2039.0,92.0,-7.0,
2073.0,2077.0,92.0,-6.0,
2062.0,2112.0,92.0,-6.0,
2069.0,2052.0,92.0,-6.0,
2106.0,2018.0,93.0,-6.0,
2107.0,2120.0,93.0,-6.0,
2126.0,2217.0,93.0,-6.0,
2046.0,2054.0,93.0,-6.0,
2069.0,2034.0,93.0,-6.0,
2021.0,1979.0,93.0,-6.0,
2062.0,2016.0,92.0,-6.0,
2061.0,2052.0,92.0,-6.0,
2063.0,2140.0,92.0,-7.0,
2092.0,2047.0,92.0,-7.0,
2141.0,2129.0,92.0,-7.0,
2139.0,2070.0,92.0,-7.0,
2141.0,2111.0,92.0,-7.0,
2021.0,2059.0,92.0,-7.0,
2070.0,2072.0,92.0,-7.0,
2051.0,2110.0,92.0,-7.0,
2069.0,2107.0,92.0,-7.0,
2087.0,2051.0,92.0,-7.0,
2095.0,2049.0,92.0,-7.0,
2123.0,2036.0,92.0,-7.0,
2067.0,2064.0,93.0,-7.0,
2092.0,2100.0,93.0,-7.0,
2085.0,2082.0,93.0,-7.0,
2073.0,2087.0,93.0,-7.0,
2059.0,2087.0,93.0,-7.0,
2040.0,2082.0,93.0,-7.0,
2038.0,2108.0,93.0,-7.0,
2079.0,2080.0,93.0,-7.0,
2068.0,2073.0,93.0,-7.0,
2098.0,2119.0,93.0,-7.0,
2106.0,2127.0,93.0,-7.0,
2086.0,2078.0,93.0,-7.0,
2082.0,2070.0,93.0,-7.0,
2060.0,2061.0,93.0,-7.0,
2061.0,2155.0,93.0,-7.0,
2073.0,1932.0,93.0,-7.0,
2115.0,2121.0,93.0,-7.0,
2102.0,2072.0,93.0,-7.0,
2099.0,2031.0,93.0,-7.0,
2101.0,2093.0,93.0,-7.0,
2106.0,2150.0,93.0,-7.0,
2053.0,2035.0,93.0,-7.0,
2045.0,2080.0,93.0,-7.0,
2054.0,2074.0,93.0,-7.0,
2083.0,2002.0,94.0,-7.0,
2039.0,2042.0,94.0,-7.0,
2076.0,2052.0,94.0,-7.0,
2140.0,2100.0,94.0,-7.0,
2107.0,2071.0,94.0,-7.0,
2110.0,2148.0,94.0,-7.0,
2063.0,1974.0,94.0,-7.0,
2043.0,2116.0,94.0,-7.0,
2070.0,2080.0,94.0,-7.0,
2049.0,2125.0,94.0,-7.0,
2108.0,2104.0,94.0,-7.0,
2080.0,1966.0,94.0,-7.0,
2105.0,2093.0,94.0,-7.0,
2098.0,2111.0,93.0,-7.0,
2078.0,2109.0,93.0,-7.0,
2046.0,2121.0,93.0,-7.0,
2054.0,2028.0,93.0,-7.0,
2059.0,2096.0,93.0,-7.0,
2083.0,2042.0,92.0,-7.0,
2099.0,2005.0,92.0,-6.0,
2114.0,2158.0,92.0,-7.0,
2126.0,2150.0,92.0,-7.0,
2057.0,2019.0,92.0,-7.0,
2050.0,2068.0,91.0,-7.0,
2050.0,2089.0,91.0,-7.0,
2042.0,2109.0,91.0,-7.0,
2072.0,2030.0,91.0,-7.0,
2078.0,2078.0,91.0,-7.0,
2142.0,2122.0,90.0,-7.0,
2115.0,2108.0,90.0,-7.0,
2084.0,2062.0,90.0,-7.0,
2074.0,2093.0,90.0,-7.0,
2067.0,2072.0,90.0,-7.0,
2044.0,2072.0,89.0,-7.0,
2050.0,2066.0,89.0,-8.0,
2059.0,2074.0,89.0,-8.0,
2089.0,2084.0,89.0,-8.0,
2110.0,2085.0,89.0,-8.0,
2117.0,2113.0,89.0,-8.0,
2063.0,2062.0,89.0,-8.0,
2107.0,2085.0,89.0,-8.0,
2119.0,2084.0,89.0,-8.0,
2080.0,2039.0,88.0,-8.0,
2061.0,2069.0,88.0,-8.0,
2077.0,2108.0,88.0,-8.0,
2098.0,2134.0,88.0,-8.0,
2101.0,2001.0,88.0,-8.0,
2071.0,2096.0,88.0,-8.0,
2076.0,2034.0,88.0,-8.0,
2059.0,2116.0,88.0,-8.0,
2063.0,2266.0,88.0,-8.0,
2066.0,1980.0,88.0,-8.0,
2058.0,2005.0,88.0,-8.0,
2082.0,2025.0,88.0,-8.0,
2094.0,2025.0,88.0,-8.0,
2085.0,2087.0,89.0,-8.0,
2071.0,2066.0,88.0,-8.0,
2070.0,2093.0,89.0,-8.0,
2075.0,2072.0,89.0,-8.0,
2055.0,2138.0,89.0,-7.0,
2056.0,2019.0,89.0,-7.0,
2073.0,2098.0,88.0,-7.0,
2097.0,2086.0,88.0,-7.0,
2096.0,2099.0,88.0,-7.0,
2094.0,2106.0,88.0,-7.0,
2068.0,2081.0,88.0,-7.0,
2074.0,2072.0,88.0,-7.0,
2066.0,2076.0,88.0,-7.0,
2044.0,2081.0,87.0,-7.0,
2054.0,2076.0,87.0,-7.0,
2084.0,2074.0,87.0,-7.0,
2086.0,2133.0,87.0,-7.0,
2108.0,2111.0,86.0,-7.0,
2115.0,2050.0,86.0,-6.0,
2096.0,2066.0,86.0,-6.0,
2072.0,2055.0,86.0,-6.0,
2069.0,2065.0,85.0,-6.0,
2067.0,2053.0,85.0,-6.0,
2045.0,2067.0,85.0,-6.0,
2055.0,2091.0,84.0,-6.0,
2074.0,2106.0,84.0,-6.0,
2080.0,2095.0,84.0,-6.0,
2101.0,2086.0,84.0,-6.0,
2105.0,2133.0,84.0,-6.0,
2080.0,2062.0,84.0,-7.0,
2068.0,2057.0,83.0,-7.0,
2061.0,2058.0,83.0,-7.0,
2088.0,2067.0,83.0,-7.0,
2078.0,2085.0,83.0,-7.0,
2084.0,2014.0,83.0,-7.0,
2078.0,2126.0,83.0,-7.0,
2109.0,2089.0,82.0,-7.0,
2080.0,2082.0,82.0,-7.0,
2073.0,2093.0,82.0,-7.0,
2080.0,2079.0,82.0,-7.0,
2070.0,2075.0,82.0,-7.0,
2053.0,2076.0,82.0,-7.0,
2069.0,2083.0,82.0,-7.0,
2099.0,2089.0,82.0,-7.0,
2092.0,2082.0,82.0,-7.0,
2066.0,2082.0,82.0,-7.0,
2086.0,2078.0,82.0,-7.0,
2069.0,2073.0,82.0,-7.0,
2048.0,2062.0,82.0,-7.0,
2058.0,2067.0,82.0,-7.0,
2066.0,2075.0,82.0,-7.0,
2084.0,2090.0,82.0,-7.0,
2107.0,2083.0,82.0,-7.0,
2092.0,2093.0,82.0,-7.0,
2084.0,2082.0,82.0,-7.0,
2074.0,2065.0,82.0,-7.0,
2071.0,2053.0,81.0,-6.0,
2047.0,2065.0,81.0,-6.0,
2064.0,2069.0,81.0,-6.0,
2091.0,2077.0,81.0,-6.0,
2085.0,2105.0,80.0,-6.0,
2079.0,2093.0,80.0,-6.0,
2075.0,2049.0,80.0,-6.0,
2044.0,2065.0,80.0,-6.0,
2103.0,2075.0,79.0,-6.0,
2087.0,2043.0,79.0,-6.0,
2065.0,2044.0,79.0,-5.0,
2083.0,2055.0,79.0,-5.0,
2082.0,2076.0,79.0,-5.0,
2081.0,2075.0,78.0,-6.0,
2093.0,2073.0,78.0,-5.0,
2085.0,2084.0,78.0,-5.0,
2070.0,2093.0,78.0,-5.0,
2054.0,2085.0,78.0,-5.0,
2047.0,2083.0,78.0,-5.0,
2056.0,2090.0,78.0,-5.0,
2076.0,2097.0,77.0,-5.0,
2084.0,2187.0,77.0,-5.0,
2067.0,1994.0,77.0,-5.0,
2081.0,1984.0,77.0,-5.0,
2063.0,2066.0,76.0,-5.0,
2060.0,2069.0,76.0,-5.0,
2075.0,2076.0,75.0,-5.0,
2063.0,2056.0,74.0,-5.0,
2067.0,2091.0,74.0,-5.0,
2068.0,2045.0,74.0,-5.0,
2079.0,2100.0,73.0,-5.0,
2091.0,2110.0,72.0,-6.0,
2085.0,2119.0,72.0,-6.0,
2092.0,2087.0,72.0,-6.0,
2071.0,2080.0,71.0,-6.0,
2039.0,2077.0,71.0,-6.0,
2081.0,2089.0,70.0,-6.0,
2112.0,2074.0,70.0,-6.0,
2095.0,2097.0,69.0,-6.0,
2090.0,2054.0,69.0,-6.0,
2066.0,2076.0,69.0,-6.0,
2076.0,2095.0,68.0,-6.0,
2061.0,2083.0,68.0,-6.0,
2069.0,2054.0,68.0,-6.0,
2110.0,2082.0,68.0,-6.0,
2117.0,2096.0,68.0,-6.0,
2075.0,2041.0,67.0,-6.0,
2091.0,2082.0,67.0,-6.0,
2097.0,2063.0,67.0,-6.0,
2101.0,2102.0,67.0,-6.0,
2103.0,2094.0,67.0,-6.0,
2084.0,2065.0,67.0,-6.0,
2052.0,2052.0,66.0,-6.0,
2051.0,2047.0,66.0,-6.0,
2048.0,2055.0,66.0,-6.0,
2068.0,2062.0,66.0,-6.0,
2080.0,2095.0,66.0,-6.0,
2080.0,2115.0,66.0,-6.0,
2084.0,2089.0,66.0,-6.0,
2066.0,2037.0,65.0,-6.0,
2083.0,2114.0,65.0,-6.0,
2064.0,2009.0,65.0,-6.0,
2058.0,2061.0,65.0,-6.0,
2057.0,2043.0,65.0,-6.0,
2081.0,2090.0,65.0,-6.0,
2101.0,2080.0,0,
2109.0,2095.0,65.0,-6.0,
2095.0,2071.0,65.0,-6.0,
2055.0,2090.0,65.0,-6.0,
2044.0,2073.0,65.0,-6.0,
2053.0,2084.0,65.0,-6.0,
2058.0,2054.0,65.0,-6.0,
2098.0,2049.0,65.0,-6.0,
2101.0,2108.0,65.0,-6.0,
2096.0,2109.0,65.0,-6.0,
2087.0,2045.0,65.0,-6.0,
2093.0,2101.0,65.0,-6.0,
2082.0,2091.0,65.0,-5.0,
2066.0,2071.0,65.0,-5.0,
2054.0,2074.0,65.0,-5.0,
2055.0,2074.0,65.0,-5.0,
2082.0,2096.0,66.0,-5.0,
2095.0,2123.0,66.0,-5.0,
2079.0,2085.0,66.0,-5.0,
2089.0,2113.0,66.0,-5.0,
2102.0,2123.0,66.0,-5.0,
2077.0,2044.0,66.0,-5.0,
2053.0,2038.0,66.0,-5.0,
2059.0,2061.0,66.0,-5.0,
2075.0,2071.0,67.0,-5.0,
2090.0,2078.0,67.0,-5.0,
2106.0,2089.0,67.0,-5.0,
2100.0,2092.0,0,
2119.0,2091.0,67.0,-5.0,
2098.0,2076.0,67.0,-5.0,
2066.0,2070.0,67.0,-5.0,
2071.0,2058.0,67.0,-5.0,
2071.0,2080.0,68.0,-5.0,
2099.0,2061.0,68.0,-5.0,
2114.0,2058.0,68.0,-5.0,
2101.0,2079.0,68.0,-5.0,
2100.0,2087.0,68.0,-5.0,
2094.0,2089.0,68.0,-5.0,
2078.0,2075.0,68.0,-5.0,
2062.0,2055.0,68.0,-5.0,
2057.0,2054.0,69.0,-5.0,
2079.0,2058.0,69.0,-5.0,
2081.0,2057.0,69.0,-5.0,
2086.0,2068.0,69.0,-5.0,
2107.0,2082.0,69.0,-5.0,
2113.0,2102.0,69.0,-5.0,
2106.0,2072.0,70.0,-5.0,
2063.0,2068.0,70.0,-5.0,
2100.0,2073.0,70.0,-5.0,
2045.0,2042.0,70.0,-5.0,
2060.0,2073.0,70.0,-5.0,
2075.0,2142.0,70.0,-5.0,
2085.0,2075.0,70.0,-5.0,
2102.0,2009.0,70.0,-5.0,
2056.0,1979.0,71.0,-5.0,
2066.0,2101.0,71.0,-5.0,
2073.0,2077.0,71.0,-5.0,
2063.0,2044.0,71.0,-5.0,
2050.0,2003.0,71.0,-5.0,
2060.0,2075.0,71.0,-5.0,
2065.0,2087.0,71.0,-5.0,
2096.0,2088.0,71.0,-5.0,
2088.0,2166.0,71.0,-5.0,
2097.0,2059.0,71.0,-5.0,
2093.0,2102.0,71.0,-5.0,
2088.0,2110.0,71.0,-5.0,
2069.0,2052.0,71.0,-5.0,
2064.0,2079.0,71.0,-5.0,
2067.0,2074.0,71.0,-5.0,
2080.0,2088.0,71.0,-5.0,
2100.0,2102.0,71.0,-5.0,
2083.0,2094.0,71.0,-5.0,
2084.0,2114.0,71.0,-5.0,
2090.0,2122.0,71.0,-5.0,
2103.0,2113.0,71.0,-5.0,
2084.0,2062.0,70.0,-5.0,
2068.0,2059.0,70.0,-5.0,
2075.0,2024.0,70.0,-5.0,
2078.0,2058.0,70.0,-5.0,
2100.0,2076.0,70.0,-5.0,
2096.0,2079.0,70.0,-5.0,
2083.0,2083.0,70.0,-5.0,
2076.0,2082.0,70.0,-5.0,
2061.0,2074.0,70.0,-5.0,
2068.0,2067.0,70.0,-5.0,
2056.0,2068.0,70.0,-5.0,
2060.0,2075.0,70.0,-5.0,
2085.0,2085.0,70.0,-5.0,
2107.0,2093.0,70.0,-5.0,
2100.0,2091.0,70.0,-5.0,
2082.0,2082.0,70.0,-5.0,
2064.0,2068.0,70.0,-5.0,
2051.0,2061.0,70.0,-5.0,
2056.0,2058.0,70.0,-5.0,
2051.0,2062.0,70.0,-5.0,
2068.0,2069.0,70.0,-5.0,
2071.0,2073.0,70.0,-5.0,
2061.0,2073.0,70.0,-5.0,
2105.0,2090.0,70.0,-5.0,
2048.0,2068.0,70.0,-5.0,
2077.0,2057.0,70.0,-5.0,
2080.0,2058.0,70.0,-5.0,
2064.0,2053.0,70.0,-5.0,
2062.0,2044.0,69.0,-5.0,
2077.0,2080.0,69.0,-5.0,
2126.0,2098.0,69.0,-5.0,
2127.0,2090.0,69.0,-5.0,
2087.0,2090.0,69.0,-5.0,
2083.0,2056.0,69.0,-5.0,
2078.0,2075.0,69.0,-5.0,
2063.0,2061.0,69.0,-5.0,
2057.0,2054.0,69.0,-5.0,
2062.0,2056.0,69.0,-5.0,
2074.0,2065.0,69.0,-5.0,
2086.0,2077.0,70.0,-5.0,
2095.0,2083.0,69.0,-5.0,
2082.0,2101.0,69.0,-5.0,
2094.0,2153.0,70.0,-5.0,
2068.0,2030.0,69.0,-5.0,
2030.0,1984.0,69.0,-5.0,
2047.0,2037.0,70.0,-5.0,
2073.0,2079.0,70.0,-5.0,
2101.0,2097.0,69.0,-5.0,
2089.0,2052.0,69.0,-5.0,
2089.0,2087.0,69.0,-5.0,
2083.0,2091.0,69.0,-5.0,
2089.0,2082.0,69.0,-5.0,
2078.0,2117.0,69.0,-5.0,
2067.0,2111.0,69.0,-5.0,
2064.0,2049.0,69.0,-5.0,
2072.0,2058.0,69.0,-5.0,
2103.0,2085.0,69.0,-5.0,
2113.0,2095.0,68.0,-5.0,
2096.0,2112.0,68.0,-5.0,
2072.0,2075.0,68.0,-5.0,
2075.0,2090.0,68.0,-5.0,
2082.0,2060.0,68.0,-5.0,
2047.0,2053.0,68.0,-5.0,
2063.0,2070.0,68.0,-5.0,
2078.0,2080.0,68.0,-5.0,
2095.0,2098.0,68.0,-5.0,
2086.0,2061.0,68.0,-5.0,
2084.0,2072.0,68.0,-5.0,
2075.0,2074.0,68.0,-5.0,
2054.0,2073.0,68.0,-5.0,
2057.0,2061.0,68.0,-5.0,
2060.0,2071.0,68.0,-5.0,
2088.0,2064.0,68.0,-5.0,
2082.0,2079.0,68.0,-5.0,
2093.0,2087.0,68.0,-5.0,
2086.0,2093.0,68.0,-5.0,
2085.0,2093.0,68.0,-5.0,
2070.0,2082.0,68.0,-5.0,
2054.0,2074.0,68.0,-5.0,
2055.0,2058.0,68.0,-5.0,
2052.0,2065.0,68.0,-5.0,
2063.0,2066.0,68.0,-5.0,
2092.0,2081.0,68.0,-5.0,
2106.0,2093.0,68.0,-5.0,
2089.0,2092.0,68.0,-5.0,
2074.0,2076.0,68.0,-5.0,
2077.0,2074.0,68.0,-5.0,
2058.0,2046.0,69.0,-5.0,
2046.0,2056.0,69.0,-5.0,
2042.0,2065.0,69.0,-5.0,
2055.0,2087.0,69.0,-5.0,
2081.0,2076.0,69.0,-5.0,
2098.0,2093.0,69.0,-5.0,
2118.0,2129.0,69.0,-5.0,
2089.0,2104.0,69.0,-5.0,
2090.0,2028.0,69.0,-5.0,
2073.0,2058.0,69.0,-5.0,
2072.0,2096.0,69.0,-5.0,
2095.0,2086.0,69.0,-5.0,
2080.0,2083.0,69.0,-5.0,
2070.0,2010.0,69.0,-5.0,
2102.0,2094.0,69.0,-5.0,
2113.0,2130.0,69.0,-5.0,
2071.0,2088.0,69.0,-5.0,
2089.0,2065.0,69.0,-5.0,
2082.0,2071.0,69.0,-5.0,
2068.0,2027.0,69.0,-5.0,
2065.0,2065.0,69.0,-5.0,
2108.0,2108.0,69.0,-5.0,
2113.0,2074.0,69.0,-5.0,
2074.0,2103.0,69.0,-5.0,
2099.0,2120.0,69.0,-5.0,
2101.0,2142.0,69.0,-5.0,
2073.0,2149.0,69.0,-5.0,
2042.0,1997.0,69.0,-5.0,
2038.0,2020.0,69.0,-5.0,
2078.0,2066.0,69.0,-5.0,
2067.0,2077.0,69.0,-5.0,
2089.0,2067.0,69.0,-5.0,
2104.0,2019.0,69.0,-5.0,
2092.0,2070.0,69.0,-5.0,
2089.0,2093.0,69.0,-5.0,
2080.0,2068.0,69.0,-5.0,
2061.0,2042.0,69.0,-5.0,
2060.0,2047.0,69.0,-5.0,
2079.0,2080.0,68.0,-5.0,
2084.0,2127.0,68.0,-5.0,
2093.0,2060.0,68.0,-5.0,
2081.0,2057.0,68.0,-5.0,
2086.0,2087.0,68.0,-5.0,
2083.0,2088.0,68.0,-5.0,
2068.0,2057.0,68.0,-5.0,
2056.0,2074.0,68.0,-5.0,
2062.0,2089.0,68.0,-5.0,
2083.0,2087.0,68.0,-5.0,
2081.0,2095.0,68.0,-5.0,
2088.0,2089.0,68.0,-5.0,
2080.0,2098.0,68.0,-5.0,
2081.0,2087.0,68.0,-5.0,
2061.0,2074.0,68.0,-5.0,
2068.0,2075.0,68.0,-5.0,
2058.0,2077.0,68.0,-5.0,
2061.0,2075.0,68.0,-5.0,
2072.0,2079.0,68.0,-5.0,
2073.0,2070.0,68.0,-5.0,
2086.0,2087.0,68.0,-5.0,
2099.0,2098.0,69.0,-5.0,
2089.0,2080.0,69.0,-5.0,
2078.0,2069.0,69.0,-5.0,
2074.0,2068.0,69.0,-5.0,
2052.0,2058.0,69.0,-5.0,
2065.0,2065.0,69.0,-5.0,
2078.0,2077.0,69.0,-5.0,
2104.0,2088.0,69.0,-5.0,
2119.0,2081.0,69.0,-5.0,
2090.0,2077.0,69.0,-5.0,
2090.0,2068.0,69.0,-5.0,
2081.0,2066.0,69.0,-5.0,
2051.0,2060.0,69.0,-5.0,
2057.0,2060.0,69.0,-5.0,
2067.0,2070.0,69.0,-5.0,
2080.0,2077.0,69.0,-5.0,
2090.0,2078.0,69.0,-5.0,
2087.0,2086.0,69.0,-5.0,
2071.0,2082.0,69.0,-5.0,
2049.0,2071.0,69.0,-5.0,
2050.0,2072.0,69.0,-5.0,
2051.0,2065.0,69.0,-5.0,
2051.0,2037.0,69.0,-5.0,
2084.0,2057.0,69.0,-5.0,
2100.0,2071.0,69.0,-5.0,
2116.0,2086.0,69.0,-5.0,
2098.0,2097.0,69.0,-5.0,
2123.0,2090.0,69.0,-5.0,
2099.0,2091.0,69.0,-5.0,
2072.0,2089.0,69.0,-5.0,
2047.0,2062.0,69.0,-5.0,
2055.0,2114.0,69.0,-5.0,
2088.0,2064.0,69.0,-5.0,
2070.0,2055.0,69.0,-5.0,
2090.0,2086.0,69.0,-5.0,
2115.0,2081.0,69.0,-5.0,
2076.0,2080.0,69.0,-5.0,
2075.0,2090.0,69.0,-5.0,
2046.0,2062.0,69.0,-5.0,
2067.0,2051.0,69.0,-5.0,
2071.0,2073.0,69.0,-5.0,
2089.0,2103.0,69.0,-5.0,
2090.0,2106.0,69.0,-5.0,
2096.0,2044.0,69.0,-5.0,
2104.0,2088.0,69.0,-5.0,
2091.0,2082.0,69.0,-5.0,
2075.0,2051.0,69.0,-5.0,
2057.0,2059.0,69.0,-5.0,
2044.0,2069.0,69.0,-5.0,
2075.0,2101.0,68.0,-5.0,
2081.0,2072.0,68.0,-5.0,
2093.0,2066.0,68.0,-5.0,
2108.0,2093.0,68.0,-5.0,
2086.0,2077.0,68.0,-5.0,
2089.0,2088.0,68.0,-5.0,
2073.0,2050.0,68.0,-5.0,
2072.0,2071.0,68.0,-5.0,
2063.0,2058.0,68.0,-5.0,
2068.0,2078.0,68.0,-5.0,
2087.0,2093.0,68.0,-5.0,
2109.0,2100.0,68.0,-5.0,
2098.0,2094.0,68.0,-5.0,
2095.0,2122.0,68.0,-5.0,
2075.0,2123.0,68.0,-5.0,
2048.0,2020.0,68.0,-5.0,
2054.0,2061.0,68.0,-5.0,
2056.0,2063.0,68.0,-5.0,
2072.0,2072.0,68.0,-5.0,
2074.0,2087.0,68.0,-5.0,
2112.0,2084.0,68.0,-5.0,
2094.0,2093.0,68.0,-5.0,
2084.0,2081.0,68.0,-5.0,
2069.0,2076.0,68.0,-5.0,
2063.0,2071.0,68.0,-5.0,
2058.0,2076.0,68.0,-5.0,
2055.0,2086.0,68.0,-5.0,
2077.0,2084.0,68.0,-5.0,
2087.0,2100.0,68.0,-5.0,
2085.0,2108.0,68.0,-5.0,
2068.0,2087.0,68.0,-5.0,
2070.0,2079.0,68.0,-5.0,
2052.0,2070.0,68.0,-5.0,
2061.0,2076.0,68.0,-5.0,
2067.0,2092.0,68.0,-5.0,
2071.0,2075.0,68.0,-5.0,
2068.0,2086.0,68.0,-5.0,
2091.0,2043.0,68.0,-5.0,
2088.0,2058.0,68.0,-5.0,
2087.0,2106.0,68.0,-5.0,
2081.0,2062.0,68.0,-5.0,
2080.0,2046.0,68.0,-5.0,
2039.0,2026.0,68.0,-5.0,
2044.0,2048.0,68.0,-5.0,
2065.0,2049.0,68.0,-5.0,
2080.0,2085.0,68.0,-5.0,
2081.0,2102.0,68.0,-5.0,
2042.0,2096.0,68.0,-5.0,
2099.0,2115.0,68.0,-5.0,
2087.0,2086.0,68.0,-5.0,
2055.0,2047.0,68.0,-5.0,
2057.0,2031.0,68.0,-5.0,
2063.0,2016.0,68.0,-5.0,
2075.0,2052.0,68.0,-5.0,
2084.0,2080.0,68.0,-5.0,
2080.0,2095.0,68.0,-5.0,
2108.0,2111.0,68.0,-5.0,
2098.0,2179.0,68.0,-5.0,
2061.0,2093.0,68.0,-5.0,
2065.0,1987.0,68.0,-5.0,
2075.0,2066.0,68.0,-5.0,
2087.0,2092.0,68.0,-5.0,
2062.0,2046.0,68.0,-5.0,
2084.0,2068.0,68.0,-5.0,
2102.0,2063.0,68.0,-5.0,
2091.0,2067.0,68.0,-5.0,
2086.0,2071.0,68.0,-5.0,
2055.0,2083.0,68.0,-5.0,
2063.0,2085.0,68.0,-5.0,
2043.0,2083.0,68.0,-5.0,
2063.0,2082.0,67.0,-5.0,
2071.0,2088.0,67.0,-5.0,
2093.0,2098.0,67.0,-5.0,
2100.0,2103.0,67.0,-5.0,
2090.0,2100.0,67.0,-5.0,
2090.0,2088.0,67.0,-5.0,
2063.0,2079.0,67.0,-5.0,
2070.0,2074.0,67.0,-5.0,
2093.0,2070.0,67.0,-5.0,
2074.0,2075.0,68.0,-5.0,
2082.0,2085.0,68.0,-5.0,
2095.0,2088.0,68.0,-5.0,
2091.0,2087.0,68.0,-5.0,
2083.0,2090.0,68.0,-5.0,
2066.0,2093.0,68.0,-5.0,
2061.0,2091.0,68.0,-5.0,
2042.0,2039.0,68.0,-5.0,
2075.0,2065.0,68.0,-5.0,
2079.0,2081.0,68.0,-5.0,
2084.0,2092.0,68.0,-5.0,
2095.0,2098.0,68.0,-5.0,
2097.0,2090.0,68.0,-5.0,
2095.0,2073.0,68.0,-5.0,
2068.0,2068.0,68.0,-5.0,
2051.0,2072.0,68.0,-5.0,
2051.0,2065.0,68.0,-5.0,
2083.0,2049.0,68.0,-5.0,
2073.0,2068.0,68.0,-5.0,
2078.0,2072.0,68.0,-5.0,
2103.0,2080.0,68.0,-5.0,
2095.0,2082.0,68.0,-5.0,
2080.0,2071.0,68.0,-5.0,
2063.0,2063.0,68.0,-5.0,
2058.0,2046.0,68.0,-5.0,
2067.0,2056.0,68.0,-5.0,
2069.0,2074.0,68.0,-5.0,
2092.0,2069.0,68.0,-5.0,
2095.0,2109.0,68.0,-5.0,
2108.0,2061.0,68.0,-5.0,
2096.0,2076.0,68.0,-5.0,
2075.0,2078.0,68.0,-5.0,
2044.0,2066.0,68.0,-5.0,
2063.0,2053.0,68.0,-5.0,
2055.0,2049.0,68.0,-5.0,
2074.0,2084.0,68.0,-5.0,
2093.0,2074.0,68.0,-5.0,
2113.0,2130.0,68.0,-5.0,
2114.0,2144.0,68.0,-5.0,
2091.0,2060.0,68.0,-5.0,
2080.0,2031.0,68.0,-5.0,
2058.0,2027.0,68.0,-5.0,
2084.0,2067.0,68.0,-5.0,
2060.0,2088.0,68.0,-5.0,
2073.0,2055.0,68.0,-5.0,
2093.0,2079.0,68.0,-5.0,
2086.0,2105.0,68.0,-5.0,
2108.0,2115.0,68.0,-5.0,
2080.0,2081.0,68.0,-5.0,
2052.0,2123.0,68.0,-5.0,
2049.0,2035.0,68.0,-5.0,
2047.0,2059.0,68.0,-5.0,
2052.0,2073.0,68.0,-5.0,
2068.0,2099.0,68.0,-5.0,
2134.0,2090.0,68.0,-5.0,
2116.0,2075.0,68.0,-5.0,
2090.0,2084.0,68.0,-5.0,
2077.0,2086.0,68.0,-5.0,
2054.0,2076.0,68.0,-5.0,
2067.0,2076.0,68.0,-5.0,
2083.0,2075.0,68.0,-5.0,
2080.0,2094.0,68.0,-5.0,
2085.0,2079.0,67.0,-5.0,
2082.0,2057.0,67.0,-5.0,
2097.0,2070.0,67.0,-5.0,
2083.0,2081.0,67.0,-5.0,
2080.0,2077.0,68.0,-5.0,
2071.0,2069.0,67.0,-5.0,
2066.0,2061.0,67.0,-5.0,
2059.0,2078.0,68.0,-5.0,
2075.0,2084.0,68.0,-5.0,
2087.0,2131.0,68.0,-5.0,
2066.0,2075.0,68.0,-5.0,
2082.0,2079.0,68.0,-5.0,
2097.0,2060.0,68.0,-5.0,
2105.0,2069.0,68.0,-5.0,
2073.0,2070.0,68.0,-5.0,
2057.0,2067.0,68.0,-5.0,
2058.0,2062.0,68.0,-5.0,
2074.0,2040.0,68.0,-5.0,
2099.0,2066.0,68.0,-5.0,
2109.0,2082.0,68.0,-5.0,
2111.0,2081.0,68.0,-5.0,
2087.0,2082.0,68.0,-5.0,
2076.0,2070.0,68.0,-5.0,
2066.0,2068.0,68.0,-5.0,
2054.0,2073.0,68.0,-5.0,
2067.0,2069.0,68.0,-5.0,
2068.0,2082.0,68.0,-5.0,
2086.0,2088.0,68.0,-5.0,
2090.0,2092.0,68.0,-5.0,
2101.0,2097.0,68.0,-5.0,
2094.0,2090.0,68.0,-5.0,
2075.0,2065.0,68.0,-5.0,
2056.0,2076.0,68.0,-5.0,
2059.0,2084.0,68.0,-5.0,
2068.0,2039.0,68.0,-5.0,
2076.0,2077.0,68.0,-5.0,
2073.0,2100.0,68.0,-5.0,
2087.0,2082.0,68.0,-5.0,
2099.0,2062.0,68.0,-5.0,
2076.0,2076.0,68.0,-5.0,
2056.0,2063.0,68.0,-5.0,
2061.0,2055.0,68.0,-5.0,
2045.0,2077.0,68.0,-5.0,
2078.0,2073.0,68.0,-5.0,
2075.0,2070.0,68.0,-5.0,
2085.0,2086.0,68.0,-5.0,
2107.0,2110.0,68.0,-5.0,
2134.0,2110.0,68.0,-5.0,
2095.0,2047.0,68.0,-5.0,
2077.0,2062.0,68.0,-5.0,
2080.0,2069.0,68.0,-5.0,
2059.0,2067.0,68.0,-5.0,
2058.0,2100.0,68.0,-5.0,
2082.0,2093.0,68.0,-5.0,
2092.0,2076.0,68.0,-5.0,
2090.0,2113.0,68.0,-5.0,
2073.0,2086.0,68.0,-5.0,
2061.0,2092.0,68.0,-5.0,
2050.0,2090.0,68.0,-5.0,
2042.0,2079.0,68.0,-5.0,
2078.0,2123.0,68.0,-5.0,
2083.0,2079.0,68.0,-5.0,
2083.0,2086.0,68.0,-5.0,
2085.0,2109.0,68.0,-5.0,
2084.0,2093.0,68.0,-5.0,
2073.0,2097.0,68.0,-5.0,
2061.0,2004.0,68.0,-5.0,
2046.0,2043.0,68.0,-5.0,
2049.0,2036.0,68.0,-5.0,
2062.0,2057.0,68.0,-5.0,
2092.0,2078.0,68.0,-5.0,
2088.0,2098.0,68.0,-5.0,
2086.0,2082.0,68.0,-5.0,
2109.0,2098.0,68.0,-5.0,
2079.0,2129.0,68.0,-5.0,
2057.0,2064.0,68.0,-5.0,
2050.0,2066.0,68.0,-5.0,
2047.0,2076.0,68.0,-5.0,
2085.0,2109.0,68.0,-5.0,
2090.0,2120.0,68.0,-5.0,
2099.0,2065.0,68.0,-5.0,
2075.0,2075.0,67.0,-5.0,
2075.0,2075.0,68.0,-5.0,
2088.0,2120.0,67.0,-5.0,
2073.0,2119.0,67.0,-5.0,
2064.0,2044.0,67.0,-5.0,
2076.0,2057.0,67.0,-5.0,
2068.0,1995.0,67.0,-5.0,
2089.0,2065.0,67.0,-5.0,
2102.0,2100.0,67.0,-5.0,
2105.0,2094.0,68.0,-5.0,
2104.0,2091.0,68.0,-5.0,
2103.0,2119.0,67.0,-5.0,
2064.0,2017.0,67.0,-5.0,
2087.0,2084.0,67.0,-5.0,
2059.0,2050.0,68.0,-5.0,
2059.0,2091.0,68.0,-5.0,
2055.0,2103.0,68.0,-5.0,
2083.0,2051.0,68.0,-5.0,
2075.0,2060.0,68.0,-5.0,
2085.0,2074.0,67.0,-5.0,
2098.0,2053.0,68.0,-5.0,
2071.0,2102.0,68.0,-5.0,
2083.0,2088.0,68.0,-5.0,
2077.0,2020.0,68.0,-5.0,
2065.0,2072.0,68.0,-5.0,
2081.0,2101.0,68.0,-5.0,
2094.0,2081.0,68.0,-5.0,
2092.0,2118.0,68.0,-5.0,
2078.0,2117.0,68.0,-5.0,
2088.0,2065.0,68.0,-5.0,
2059.0,2060.0,68.0,-5.0,
2070.0,2067.0,68.0,-5.0,
2075.0,2060.0,68.0,-5.0,
2090.0,2082.0,68.0,-5.0,
2114.0,2084.0,68.0,-5.0,
2076.0,2079.0,68.0,-5.0,
2075.0,2080.0,68.0,-5.0,
2074.0,2093.0,68.0,-5.0,
2064.0,2073.0,68.0,-5.0,
2052.0,2080.0,68.0,-5.0,
2049.0,2096.0,68.0,-5.0,
2068.0,2075.0,68.0,-5.0,
2076.0,2055.0,68.0,-5.0,
2082.0,2073.0,68.0,-5.0,
2075.0,2084.0,68.0,-5.0,
2065.0,2071.0,68.0,-5.0,
2094.0,2086.0,68.0,-5.0,
2068.0,2105.0,68.0,-5.0,
2062.0,2036.0,68.0,-5.0,
2048.0,2069.0,68.0,-5.0,
2064.0,2096.0,68.0,-5.0,
2063.0,2076.0,68.0,-5.0,
2075.0,2060.0,68.0,-5.0,
2105.0,2142.0,68.0,-5.0,
2138.0,2143.0,68.0,-5.0,
2020.0,1995.0,68.0,-5.0,
2053.0,1979.0,68.0,-5.0,
2093.0,2005.0,68.0,-5.0,
2063.0,2009.0,68.0,-5.0,
2078.0,2096.0,68.0,-5.0,
2121.0,2152.0,68.0,-5.0,
2083.0,2087.0,68.0,-5.0,
2109.0,2016.0,68.0,-5.0,
2094.0,1999.0,68.0,-5.0,
2061.0,2107.0,68.0,-5.0,
2026.0,2100.0,68.0,-5.0,
2039.0,2026.0,68.0,-5.0,
2022.0,2035.0,68.0,-5.0,
2040.0,2031.0,68.0,-5.0,
2116.0,2076.0,68.0,-5.0,
2132.0,2147.0,68.0,-5.0,
2129.0,2140.0,68.0,-5.0,
2081.0,2015.0,67.0,-5.0,
2086.0,2084.0,67.0,-5.0,
2053.0,2155.0,67.0,-5.0,
2019.0,2226.0,67.0,-5.0,
2053.0,1942.0,67.0,-5.0,
2108.0,1984.0,67.0,-5.0,
2109.0,2072.0,67.0,-5.0,
2154.0,2085.0,67.0,-5.0,
2121.0,2089.0,67.0,-5.0,
2098.0,2138.0,66.0,-5.0,
2061.0,2080.0,66.0,-5.0,
2079.0,2058.0,66.0,-5.0,
2065.0,2096.0,66.0,-5.0,
2061.0,2095.0,66.0,-5.0,
2108.0,2088.0,66.0,-5.0,
2102.0,2166.0,66.0,-5.0,
2106.0,2246.0,66.0,-5.0,
2063.0,1998.0,66.0,-5.0,
2019.0,2084.0,66.0,-5.0,
1977.0,1979.0,66.0,-5.0,
1966.0,2019.0,66.0,-5.0,
2007.0,2116.0,66.0,-6.0,
2078.0,2019.0,66.0,-6.0,
2122.0,2059.0,66.0,-6.0,
2136.0,2072.0,66.0,-6.0,
2167.0,2096.0,66.0,-6.0,
2124.0,2205.0,67.0,-6.0,
2100.0,2100.0,67.0,-6.0,
2087.0,2084.0,67.0,-6.0,
2044.0,2102.0,67.0,-6.0,
2045.0,1973.0,67.0,-6.0,
2078.0,2019.0,67.0,-6.0,
2066.0,2000.0,67.0,-6.0,
2117.0,2107.0,67.0,-6.0,
2132.0,2130.0,67.0,-6.0,
2076.0,2034.0,67.0,-6.0,
2073.0,2095.0,68.0,-6.0,
2067.0,2070.0,68.0,-6.0,
2064.0,2074.0,68.0,-6.0,
2083.0,2105.0,68.0,-6.0,
2076.0,2126.0,68.0,-6.0,
2086.0,2094.0,68.0,-6.0,
2050.0,2160.0,68.0,-6.0,
2050.0,2090.0,68.0,-6.0,
2087.0,2110.0,69.0,-6.0,
2128.0,2322.0,69.0,-6.0,
2104.0,1946.0,69.0,-6.0,
1996.0,1903.0,69.0,-6.0,
2029.0,1964.0,69.0,-6.0,
2066.0,2022.0,69.0,-6.0,
2101.0,2150.0,70.0,-6.0,
2115.0,2244.0,70.0,-6.0,
2046.0,1828.0,70.0,-6.0,
2040.0,2047.0,70.0,-6.0,
2073.0,2069.0,70.0,-6.0,
2090.0,2178.0,71.0,-6.0,
2110.0,2366.0,71.0,-6.0,
2057.0,1888.0,71.0,-6.0,
2052.0,1951.0,71.0,-6.0,
2056.0,2020.0,71.0,-6.0,
2080.0,2072.0,71.0,-6.0,
2101.0,1974.0,72.0,-5.0,
2057.0,2005.0,72.0,-5.0,
2065.0,2102.0,72.0,-5.0,
2064.0,2141.0,72.0,-5.0,
2148.0,2130.0,72.0,-6.0,
2067.0,2109.0,72.0,-5.0,
2081.0,2138.0,72.0,-5.0,
2082.0,2274.0,73.0,-5.0,
2086.0,2039.0,73.0,-5.0,
2042.0,2049.0,73.0,-5.0,
2083.0,2176.0,73.0,-5.0,
2112.0,2047.0,73.0,-5.0,
2106.0,2167.0,74.0,-6.0,
2099.0,1870.0,74.0,-6.0,
2111.0,2061.0,74.0,-6.0,
2094.0,2076.0,75.0,-6.0,
2079.0,2029.0,75.0,-6.0,
2075.0,2183.0,75.0,-6.0,
2068.0,2111.0,75.0,-6.0,
2067.0,2061.0,76.0,-6.0,
2074.0,2093.0,76.0,-6.0,
2015.0,2020.0,76.0,-6.0,
2043.0,1991.0,77.0,-6.0,
2098.0,2113.0,77.0,-6.0,
2126.0,2127.0,77.0,-6.0,
2124.0,2116.0,77.0,-7.0,
2137.0,2156.0,78.0,-7.0,
2134.0,2135.0,78.0,-7.0,
2109.0,2152.0,78.0,-7.0,
2014.0,1968.0,78.0,-6.0,
2047.0,1900.0,78.0,-6.0,
2058.0,1992.0,78.0,-7.0,
2110.0,2135.0,78.0,-7.0,
2108.0,2309.0,78.0,-7.0,
2030.0,1826.0,79.0,-7.0,
2080.0,2114.0,79.0,-7.0,
2110.0,2171.0,79.0,-7.0,
2024.0,2019.0,79.0,-7.0,
2057.0,2159.0,79.0,-7.0,
2114.0,2159.0,79.0,-6.0,
2076.0,2185.0,79.0,-6.0,
2075.0,1879.0,79.0,-6.0,
2123.0,2146.0,79.0,-6.0,
2132.0,2141.0,79.0,-6.0,
2033.0,1938.0,79.0,-6.0,
2098.0,2067.0,79.0,-6.0,
2048.0,2049.0,80.0,-6.0,
2088.0,2156.0,80.0,-6.0,
1954.0,1937.0,80.0,-6.0,
2113.0,1995.0,80.0,-6.0,
2113.0,2189.0,80.0,-7.0,
2100.0,2282.0,80.0,-6.0,
2085.0,2215.0,81.0,-6.0,
2073.0,2167.0,81.0,-6.0,
2005.0,2104.0,81.0,-6.0,
2040.0,1782.0,81.0,-6.0,
2054.0,1991.0,82.0,-6.0,
2103.0,2148.0,82.0,-6.0,
2116.0,2065.0,82.0,-6.0,
2171.0,2152.0,82.0,-6.0,
2129.0,2068.0,82.0,-6.0,
2109.0,2110.0,82.0,-6.0,
2042.0,2096.0,82.0,-6.0,
2046.0,2246.0,82.0,-6.0,
2073.0,1997.0,83.0,-7.0,
2037.0,1978.0,83.0,-7.0,
2086.0,2040.0,83.0,-7.0,
2077.0,2194.0,83.0,-7.0,
2093.0,2070.0,83.0,-7.0,
2106.0,2064.0,83.0,-7.0,
2120.0,2047.0,83.0,-7.0,
2038.0,1973.0,83.0,-7.0,
2041.0,1997.0,84.0,-8.0,
2060.0,2089.0,84.0,-8.0,
2048.0,2076.0,84.0,-8.0,
2062.0,2070.0,84.0,-8.0,
2104.0,2138.0,84.0,-8.0,
2102.0,2322.0,84.0,-8.0,
2039.0,2009.0,85.0,-8.0,
2056.0,2015.0,85.0,-8.0,
2004.0,2046.0,85.0,-8.0,
2075.0,2117.0,86.0,-8.0,
2145.0,1962.0,86.0,-7.0,
2138.0,2010.0,86.0,-8.0,
2147.0,2032.0,86.0,-7.0,
2125.0,2204.0,87.0,-7.0,
2153.0,2387.0,87.0,-7.0,
2020.0,1965.0,87.0,-7.0,
2077.0,2074.0,87.0,-7.0,
2060.0,1798.0,88.0,-8.0,
2046.0,2114.0,88.0,-8.0,
2043.0,2012.0,88.0,-7.0,
2121.0,2108.0,88.0,-7.0,
2068.0,2067.0,88.0,-7.0,
2060.0,1975.0,88.0,-7.0,
2080.0,2263.0,89.0,-7.0,
2084.0,2041.0,89.0,-7.0,
2044.0,2012.0,89.0,-7.0,
2081.0,2067.0,89.0,-7.0,
2071.0,1953.0,89.0,-6.0,
2077.0,2078.0,89.0,-6.0,
2089.0,2092.0,90.0,-7.0,
2112.0,2175.0,90.0,-7.0,
2054.0,2356.0,90.0,-7.0,
2063.0,2096.0,90.0,-6.0,
2126.0,2090.0,91.0,-7.0,
2086.0,2133.0,91.0,-7.0,
2093.0,1901.0,91.0,-6.0,
1988.0,2072.0,91.0,-7.0,
2092.0,2074.0,91.0,-7.0,
2053.0,2143.0,91.0,-6.0,
2105.0,2077.0,91.0,-6.0,
2174.0,2192.0,92.0,-7.0,
2122.0,2291.0,92.0,-7.0,
1999.0,1874.0,92.0,-7.0,
2016.0,1937.0,92.0,-7.0,
2062.0,2177.0,92.0,-7.0,
2038.0,1967.0,92.0,-7.0,
2125.0,2374.0,92.0,-7.0,
2172.0,2031.0,92.0,-7.0,
2137.0,1810.0,92.0,-7.0,
2083.0,1853.0,92.0,-6.0,
2087.0,2044.0,92.0,-7.0,
2103.0,2090.0,92.0,-7.0,
2043.0,2134.0,92.0,-7.0,
2039.0,2224.0,93.0,-7.0,
1997.0,2033.0,93.0,-7.0,
2116.0,1969.0,93.0,-7.0,
2184.0,2006.0,93.0,-7.0,
2102.0,2292.0,93.0,-7.0,
2009.0,2239.0,94.0,-7.0,
2122.0,2153.0,94.0,-8.0,
2081.0,1828.0,94.0,-7.0,
2083.0,2038.0,94.0,-7.0,
2089.0,2021.0,95.0,-7.0,
1952.0,1957.0,95.0,-7.0,
2056.0,2154.0,95.0,-7.0,
2137.0,2232.0,96.0,-7.0,
2089.0,2253.0,96.0,-7.0,
2081.0,1867.0,96.0,-7.0,
2082.0,2163.0,96.0,-7.0,
2103.0,1998.0,96.0,-6.0,
2070.0,2098.0,96.0,-7.0,
2069.0,2029.0,96.0,-6.0,
2055.0,2008.0,97.0,-7.0,
2093.0,2084.0,97.0,-6.0,
2149.0,2164.0,97.0,-6.0,
2090.0,2113.0,97.0,-6.0,
2099.0,2117.0,97.0,-6.0,
2036.0,2115.0,97.0,-6.0,
2012.0,2275.0,97.0,-6.0,
2046.0,1690.0,97.0,-7.0,
2068.0,1938.0,97.0,-6.0,
2139.0,2245.0,98.0,-7.0,
2094.0,2093.0,97.0,-7.0,
2078.0,1947.0,98.0,-7.0,
2068.0,2233.0,98.0,-7.0,
2066.0,2237.0,98.0,-7.0,
2077.0,1971.0,98.0,-7.0,
2067.0,1862.0,99.0,-7.0,
2037.0,2062.0,99.0,-7.0,
2129.0,2089.0,99.0,-7.0,
2120.0,2153.0,99.0,-7.0,
1977.0,1923.0,99.0,-7.0,
2103.0,2122.0,100.0,-7.0,
2112.0,2396.0,100.0,-7.0,
2053.0,2026.0,100.0,-7.0,
2112.0,2100.0,100.0,-7.0,
2102.0,1986.0,100.0,-7.0,
2013.0,1823.0,100.0,-7.0,
2021.0,2025.0,100.0,-7.0,
2175.0,2286.0,100.0,-6.0,
2084.0,2306.0,100.0,-6.0,
2091.0,2046.0,101.0,-6.0,
2066.0,2110.0,100.0,-6.0,
2169.0,1905.0,101.0,-6.0,
2099.0,2159.0,101.0,-7.0,
2048.0,2001.0,101.0,-7.0,
2130.0,2333.0,102.0,-7.0,
2109.0,1909.0,102.0,-6.0,
1987.0,1748.0,102.0,-7.0,
2105.0,2087.0,102.0,-7.0,
2084.0,2139.0,102.0,-7.0,
2043.0,2442.0,102.0,-7.0,
2137.0,2273.0,102.0,-7.0,
1986.0,1919.0,102.0,-7.0,
2039.0,1817.0,102.0,-7.0,
2079.0,2332.0,103.0,-7.0,
2025.0,1970.0,102.0,-7.0,
2187.0,2420.0,102.0,-6.0,
2080.0,1814.0,102.0,-6.0,
2124.0,2054.0,102.0,-6.0,
2063.0,1972.0,102.0,-6.0,
2088.0,1945.0,102.0,-6.0,
2100.0,2060.0,102.0,-6.0,
2030.0,1992.0,102.0,-6.0,
2108.0,2165.0,102.0,-6.0,
2076.0,1952.0,102.0,-6.0,
2081.0,2205.0,103.0,-7.0,
2063.0,2494.0,103.0,-7.0,
2069.0,2212.0,103.0,-7.0,
2112.0,2038.0,103.0,-7.0,
2155.0,1818.0,103.0,-7.0,
2095.0,1978.0,103.0,-7.0,
1946.0,2029.0,104.0,-7.0,
2119.0,1791.0,104.0,-7.0,
2099.0,2117.0,104.0,-7.0,
2118.0,2017.0,104.0,-7.0,
2131.0,2247.0,104.0,-7.0,
2109.0,2389.0,104.0,-7.0,
2102.0,2494.0,105.0,-7.0,
2004.0,1527.0,105.0,-7.0,
1952.0,1906.0,105.0,-7.0,
2009.0,2077.0,105.0,-7.0,
2122.0,2336.0,105.0,-7.0,
2072.0,1865.0,105.0,-7.0,
2039.0,2003.0,105.0,-7.0,
2352.0,1901.0,106.0,-7.0,
2078.0,1793.0,106.0,-7.0,
2107.0,2151.0,106.0,-7.0,
2049.0,2040.0,106.0,-7.0,
2079.0,2243.0,106.0,-7.0,
2094.0,2144.0,107.0,-7.0,
2056.0,1845.0,107.0,-7.0,
1994.0,2105.0,107.0,-7.0,
2110.0,2449.0,107.0,-7.0,
2082.0,2674.0,107.0,-6.0,
2008.0,2448.0,107.0,-6.0,
2103.0,1621.0,107.0,-6.0,
2088.0,1527.0,107.0,-6.0,
2107.0,1883.0,107.0,-6.0,
2101.0,2189.0,108.0,-7.0,
2081.0,2002.0,107.0,-6.0,
2124.0,1996.0,108.0,-7.0,
2068.0,2045.0,108.0,-7.0,
2146.0,2491.0,108.0,-6.0,
2108.0,2083.0,108.0,-7.0,
2039.0,2535.0,108.0,-6.0,
2024.0,1746.0,108.0,-6.0,
2107.0,1741.0,108.0,-6.0,
2052.0,1925.0,109.0,-6.0,
2090.0,2013.0,108.0,-6.0,
2052.0,2229.0,109.0,-6.0,
2045.0,1871.0,109.0,-6.0,
2211.0,2222.0,109.0,-6.0,
2128.0,2069.0,109.0,-6.0,
2041.0,2161.0,109.0,-6.0,
2116.0,2141.0,109.0,-6.0,
2116.0,2178.0,110.0,-7.0,
2002.0,2145.0,110.0,-7.0,
2020.0,2107.0,110.0,-7.0,
2063.0,1961.0,110.0,-7.0,
2132.0,2127.0,111.0,-7.0,
2133.0,2364.0,111.0,-7.0,
1939.0,1809.0,111.0,-7.0,
2092.0,1801.0,111.0,-7.0,
2177.0,2151.0,111.0,-7.0,
2092.0,2369.0,112.0,-7.0,
2022.0,2288.0,112.0,-7.0,
2045.0,1937.0,112.0,-6.0,
2193.0,1969.0,112.0,-6.0,
2012.0,1740.0,112.0,-6.0,
2111.0,2278.0,112.0,-7.0,
2122.0,2820.0,112.0,-7.0,
1994.0,1635.0,112.0,-7.0,
2049.0,1684.0,112.0,-7.0,
2053.0,2180.0,112.0,-6.0,
2188.0,2123.0,112.0,-6.0,
2097.0,2000.0,112.0,-6.0,
2156.0,2216.0,112.0,-6.0,
2026.0,2299.0,112.0,-6.0,
2007.0,2235.0,112.0,-6.0,
2008.0,1631.0,112.0,-6.0,
2104.0,1900.0,112.0,-6.0,
2173.0,2423.0,113.0,-6.0,
2090.0,2068.0,113.0,-6.0,
2053.0,1858.0,113.0,-6.0,
1923.0,2289.0,113.0,-6.0,
2082.0,2427.0,113.0,-6.0,
2135.0,2081.0,113.0,-6.0,
2131.0,2363.0,113.0,-6.0,
2133.0,1389.0,113.0,-6.0,
2129.0,2084.0,113.0,-6.0,
2130.0,2251.0,113.0,-6.0,
2177.0,1748.0,113.0,-6.0,
2153.0,2393.0,113.0,-6.0,
2054.0,2192.0,113.0,-6.0,
1968.0,1764.0,113.0,-6.0,
2148.0,2357.0,113.0,-6.0,
1993.0,1997.0,113.0,-6.0,
2028.0,1850.0,113.0,-6.0,
1975.0,1927.0,113.0,-6.0,
2115.0,2128.0,113.0,-6.0,
2072.0,2249.0,113.0,-6.0,
2171.0,2089.0,113.0,-6.0,
2104.0,2133.0,113.0,-6.0,
2049.0,2201.0,113.0,-6.0,
2208.0,2991.0,113.0,-6.0,
1947.0,1304.0,113.0,-6.0,
2080.0,1917.0,113.0,-6.0,
2069.0,2110.0,113.0,-6.0,
2074.0,2593.0,113.0,-6.0,
1975.0,1679.0,113.0,-7.0,
2199.0,1940.0,113.0,-7.0,
2152.0,1662.0,113.0,-7.0,
2108.0,1963.0,113.0,-7.0,
2079.0,2163.0,113.0,-7.0,
2022.0,2133.0,113.0,-7.0,
1988.0,2389.0,113.0,-7.0,
2004.0,2411.0,113.0,-7.0,
2064.0,1922.0,114.0,-7.0,
2189.0,1978.0,114.0,-7.0,
2162.0,1873.0,114.0,-7.0,
2120.0,2050.0,114.0,-7.0,
2102.0,2085.0,114.0,-7.0,
2019.0,2155.0,114.0,-7.0,
1972.0,2287.0,114.0,-7.0,
2009.0,1748.0,114.0,-7.0,
2167.0,2360.0,114.0,-7.0,
2133.0,2004.0,113.0,-7.0,
2126.0,1655.0,113.0,-7.0,
2141.0,1912.0,113.0,-7.0,
2091.0,2241.0,113.0,-7.0,
2149.0,2422.0,113.0,-7.0,
2015.0,2053.0,113.0,-7.0,
2080.0,1997.0,113.0,-7.0,
2124.0,2638.0,113.0,-7.0,
1907.0,2519.0,113.0,-7.0,
1980.0,1332.0,113.0,-6.0,
2167.0,1844.0,113.0,-7.0,
2241.0,1995.0,113.0,-7.0,
2095.0,1991.0,113.0,-7.0,
2133.0,2114.0,113.0,-7.0,
2114.0,2189.0,113.0,-7.0,
2040.0,2097.0,113.0,-7.0,
2134.0,2242.0,113.0,-7.0,
2038.0,2944.0,113.0,-7.0,
1964.0,1833.0,113.0,-7.0,
1969.0,1785.0,113.0,-7.0,
2149.0,1981.0,113.0,-7.0,
2132.0,1786.0,113.0,-7.0,
2147.0,1864.0,113.0,-7.0,
2069.0,1939.0,113.0,-7.0,
2092.0,2224.0,113.0,-7.0,
2110.0,2423.0,113.0,-7.0,
2030.0,2583.0,113.0,-7.0,
1962.0,2037.0,113.0,-7.0,
2114.0,1731.0,113.0,-7.0,
2112.0,1753.0,113.0,-7.0,
2145.0,1991.0,113.0,-7.0,
2070.0,2433.0,114.0,-7.0,
2087.0,2313.0,114.0,-7.0,
2028.0,2081.0,114.0,-7.0,
2163.0,1923.0,114.0,-7.0,
2051.0,1863.0,114.0,-7.0,
2138.0,2390.0,114.0,-7.0,
1945.0,2532.0,114.0,-7.0,
1993.0,1823.0,114.0,-7.0,
2199.0,1866.0,114.0,-7.0,
2118.0,1948.0,114.0,-7.0,
2018.0,2333.0,114.0,-7.0,
2069.0,1952.0,114.0,-7.0,
2122.0,1862.0,114.0,-7.0,
2129.0,2066.0,114.0,-7.0,
2091.0,2304.0,114.0,-7.0,
1995.0,2167.0,114.0,-7.0,
2113.0,1823.0,114.0,-7.0,
2118.0,2087.0,114.0,-7.0,
2100.0,2125.0,114.0,-7.0,
2058.0,2085.0,114.0,-7.0,
2126.0,2279.0,114.0,-7.0,
2069.0,2132.0,114.0,-7.0,
2144.0,2013.0,114.0,-7.0,
2071.0,2040.0,114.0,-7.0,
1963.0,2050.0,114.0,-7.0,
2119.0,2035.0,114.0,-7.0,
2107.0,1894.0,114.0,-7.0,
2028.0,2151.0,114.0,-7.0,
2079.0,2271.0,114.0,-7.0,
1987.0,2379.0,114.0,-7.0,
2048.0,2041.0,114.0,-7.0,
2137.0,1629.0,114.0,-7.0,
2103.0,1863.0,114.0,-7.0,
2163.0,2136.0,114.0,-7.0,
2104.0,2393.0,114.0,-7.0,
2027.0,2019.0,114.0,-7.0,
2093.0,2135.0,114.0,-7.0,
2103.0,1981.0,114.0,-7.0,
2070.0,2017.0,114.0,-7.0,
2052.0,2134.0,114.0,-7.0,
2109.0,2234.0,114.0,-7.0,
2184.0,1969.0,114.0,-7.0,
1957.0,2022.0,114.0,-7.0,
2022.0,2009.0,114.0,-7.0,
2105.0,1990.0,114.0,-7.0,
2098.0,2153.0,114.0,-7.0,
2021.0,2121.0,114.0,-7.0,
2046.0,2699.0,114.0,-7.0,
2112.0,2113.0,114.0,-7.0,
2153.0,1702.0,114.0,-7.0,
2068.0,1810.0,114.0,-7.0,
2120.0,2058.0,114.0,-7.0,
2062.0,1996.0,114.0,-7.0,
2095.0,2416.0,114.0,-7.0,
2035.0,2205.0,114.0,-7.0,
1999.0,2074.0,114.0,-7.0,
2081.0,1671.0,114.0,-7.0,
2179.0,1983.0,114.0,-7.0,
2139.0,2235.0,114.0,-7.0,
2116.0,2002.0,114.0,-7.0,
2081.0,2178.0,114.0,-7.0,
2029.0,2161.0,114.0,-7.0,
2135.0,2189.0,114.0,-7.0,
2025.0,1973.0,114.0,-7.0,
2108.0,2019.0,114.0,-7.0,
2092.0,2115.0,114.0,-7.0,
2106.0,2122.0,114.0,-7.0,
2148.0,2522.0,114.0,-7.0,
1972.0,2301.0,114.0,-7.0,
2061.0,1735.0,114.0,-7.0,
2097.0,1805.0,114.0,-7.0,
2090.0,1941.0,114.0,-7.0,
2108.0,2061.0,114.0,-7.0,
2129.0,2296.0,114.0,-7.0,
2063.0,2041.0,0,
2013.0,2141.0,0,
2146.0,1958.0,114.0,-7.0,
2102.0,2238.0,114.0,-7.0,
2119.0,2178.0,114.0,-7.0,
2131.0,1791.0,114.0,-7.0,
2083.0,2029.0,114.0,-7.0,
2070.0,2028.0,114.0,-7.0,
2112.0,2130.0,114.0,-7.0,
2065.0,2150.0,114.0,-7.0,
2097.0,2356.0,114.0,-7.0,
2035.0,2206.0,114.0,-7.0,
2012.0,2219.0,114.0,-7.0,
2035.0,1557.0,114.0,-7.0,
2091.0,1889.0,114.0,-7.0,
2161.0,2016.0,114.0,-7.0,
2146.0,2298.0,114.0,-7.0,
2024.0,1866.0,114.0,-7.0,
2119.0,2095.0,114.0,-7.0,
2086.0,2021.0,114.0,-7.0,
2068.0,2111.0,114.0,-7.0,
2084.0,2177.0,114.0,-7.0,
2068.0,2025.0,114.0,-7.0,
2039.0,2174.0,114.0,-7.0,
2083.0,2363.0,114.0,-7.0,
2149.0,2030.0,114.0,-7.0,
2128.0,2024.0,114.0,-7.0,
2113.0,1990.0,114.0,-7.0,
2053.0,2060.0,114.0,-7.0,
2076.0,2159.0,114.0,-7.0,
2002.0,1940.0,114.0,-7.0,
2069.0,2115.0,114.0,-7.0,
2065.0,2097.0,114.0,-7.0,
2099.0,2183.0,114.0,-7.0,
2036.0,1999.0,114.0,-7.0,
2094.0,2061.0,114.0,-7.0,
2106.0,2052.0,114.0,-7.0,
2056.0,2079.0,114.0,-7.0,
2048.0,2088.0,114.0,-7.0,
2054.0,2127.0,114.0,-7.0,
2082.0,2314.0,114.0,-7.0,
2147.0,2098.0,114.0,-7.0,
2042.0,1922.0,114.0,-7.0,
2235.0,2152.0,114.0,-7.0,
2035.0,1852.0,114.0,-7.0,
2132.0,1913.0,114.0,-7.0,
2090.0,2161.0,114.0,-7.0,
2123.0,2173.0,114.0,-7.0,
2020.0,2216.0,114.0,-7.0,
2020.0,1739.0,114.0,-7.0,
2052.0,1953.0,114.0,-7.0,
2131.0,1988.0,114.0,-7.0,
2116.0,2225.0,114.0,-7.0,
2063.0,2046.0,114.0,-6.0,
2083.0,2061.0,114.0,-6.0,
2083.0,2114.0,114.0,-6.0,
2089.0,2095.0,114.0,-6.0,
2064.0,2096.0,114.0,-6.0,
2070.0,2180.0,114.0,-6.0,
2093.0,2094.0,113.0,-6.0,
2080.0,2103.0,113.0,-6.0,
2044.0,2181.0,113.0,-6.0,
2072.0,2089.0,113.0,-6.0,
2134.0,2068.0,113.0,-6.0,
2084.0,2006.0,113.0,-6.0,
2091.0,2173.0,113.0,-6.0,
2123.0,1983.0,113.0,-7.0,
2061.0,2050.0,113.0,-7.0,
2113.0,2146.0,113.0,-7.0,
2094.0,2073.0,113.0,-7.0,
2090.0,2062.0,113.0,-7.0,
2083.0,2188.0,113.0,-7.0,
2124.0,1924.0,113.0,-7.0,
2036.0,1951.0,113.0,-7.0,
2026.0,2118.0,113.0,-7.0,
2032.0,2058.0,112.0,-7.0,
2084.0,2127.0,112.0,-7.0,
2133.0,2071.0,112.0,-7.0,
2119.0,2130.0,112.0,-7.0,
2068.0,2138.0,112.0,-7.0,
2076.0,2070.0,112.0,-7.0,
2029.0,2158.0,112.0,-7.0,
2074.0,1803.0,112.0,-7.0,
2087.0,2017.0,112.0,-7.0,
2093.0,2087.0,112.0,-7.0,
2096.0,2135.0,112.0,-7.0,
2101.0,2211.0,112.0,-7.0,
2082.0,2097.0,112.0,-7.0,
2121.0,2198.0,112.0,-7.0,
2061.0,2164.0,112.0,-7.0,
2040.0,2096.0,112.0,-7.0,
2084.0,2231.0,112.0,-7.0,
2080.0,1999.0,112.0,-7.0,
2103.0,2033.0,112.0,-7.0,
2121.0,1767.0,112.0,-7.0,
2099.0,1986.0,112.0,-7.0,
2114.0,2110.0,112.0,-7.0,
2093.0,2130.0,112.0,-7.0,
2060.0,2198.0,112.0,-7.0,
2054.0,1926.0,112.0,-7.0,
2070.0,2160.0,112.0,-7.0,
2044.0,2010.0,112.0,-7.0,
2129.0,2074.0,112.0,-7.0,
2174.0,2191.0,111.0,-7.0,
2089.0,2055.0,111.0,-7.0,
2113.0,2122.0,111.0,-7.0,
2107.0,2060.0,111.0,-7.0,
2045.0,2026.0,111.0,-7.0,
2037.0,2188.0,111.0,-7.0,
2071.0,2321.0,111.0,-7.0,
2065.0,1927.0,111.0,-7.0,
2040.0,1933.0,111.0,-7.0,
2106.0,1971.0,111.0,-7.0,
2122.0,2047.0,111.0,-7.0,
2063.0,2054.0,111.0,-7.0,
2084.0,2118.0,111.0,-7.0,
2040.0,2093.0,111.0,-7.0,
2024.0,2024.0,110.0,-7.0,
2093.0,2088.0,110.0,-7.0,
2134.0,2159.0,110.0,-7.0,
2115.0,2122.0,110.0,-7.0,
2135.0,2068.0,110.0,-7.0,
2102.0,2082.0,110.0,-7.0,
2083.0,2091.0,110.0,-7.0,
2076.0,2055.0,110.0,-7.0,
2056.0,2049.0,110.0,-7.0,
2069.0,2184.0,110.0,-7.0,
2064.0,2038.0,110.0,-7.0,
2063.0,2083.0,110.0,-7.0,
2095.0,2142.0,110.0,-7.0,
2116.0,2172.0,110.0,-7.0,
2095.0,2177.0,110.0,-7.0,
2079.0,2047.0,110.0,-7.0,
2103.0,2041.0,110.0,-7.0,
2077.0,2012.0,111.0,-7.0,
2107.0,1908.0,111.0,-7.0,
2054.0,2149.0,111.0,-7.0,
2086.0,2067.0,111.0,-7.0,
2071.0,1913.0,111.0,-7.0,
2172.0,1961.0,111.0,-7.0,
2147.0,2133.0,111.0,-7.0,
2052.0,2096.0,111.0,-7.0,
2118.0,2139.0,110.0,-7.0,
2098.0,2031.0,110.0,-7.0,
2048.0,1990.0,110.0,-6.0,
2047.0,1962.0,110.0,-6.0,
2068.0,2077.0,110.0,-6.0,
2107.0,2053.0,110.0,-6.0,
2074.0,2163.0,110.0,-6.0,
2070.0,2235.0,110.0,-6.0,
2043.0,2095.0,110.0,-5.0,
2097.0,2072.0,109.0,-5.0,
2074.0,2129.0,109.0,-5.0,
2098.0,2141.0,109.0,-6.0,
2084.0,2050.0,109.0,-6.0,
2091.0,2166.0,109.0,-6.0,
2064.0,2207.0,109.0,-6.0,
2105.0,1970.0,108.0,-6.0,
2087.0,2088.0,108.0,-6.0,
2050.0,2010.0,108.0,-6.0,
2031.0,2008.0,108.0,-6.0,
2089.0,2016.0,108.0,-6.0,
2094.0,2056.0,107.0,-7.0,
2103.0,2083.0,107.0,-7.0,
2109.0,2108.0,107.0,-7.0,
2097.0,2123.0,107.0,-7.0,
2094.0,2149.0,107.0,-7.0,
2065.0,2069.0,107.0,-7.0,
2073.0,2057.0,107.0,-8.0,
2084.0,2045.0,107.0,-8.0,
2091.0,2036.0,107.0,-8.0,
2106.0,2052.0,107.0,-8.0,
2116.0,2041.0,107.0,-8.0,
2127.0,2051.0,108.0,-8.0,
2104.0,2091.0,108.0,-8.0,
2093.0,2082.0,107.0,-8.0,
2059.0,2081.0,107.0,-8.0,
2065.0,2087.0,107.0,-8.0,
2086.0,2129.0,107.0,-8.0,
2057.0,2061.0,107.0,-8.0,
2118.0,1970.0,107.0,-8.0,
2074.0,2103.0,107.0,-8.0,
2109.0,2096.0,107.0,-8.0,
2089.0,2122.0,107.0,-8.0,
2078.0,2160.0,107.0,-8.0,
2033.0,1924.0,107.0,-8.0,
2016.0,2146.0,106.0,-8.0,
2125.0,2045.0,106.0,-8.0,
2110.0,2030.0,106.0,-8.0,
2040.0,1922.0,106.0,-8.0,
2066.0,2117.0,106.0,-8.0,
2089.0,2123.0,106.0,-7.0,
2052.0,1987.0,106.0,-7.0,
2154.0,2025.0,106.0,-7.0,
2076.0,2105.0,104.0,-6.0,
2086.0,2210.0,104.0,-7.0,
2032.0,1982.0,104.0,-7.0,
2121.0,2192.0,104.0,-7.0,
2079.0,2052.0,103.0,-7.0,
2082.0,2092.0,104.0,-6.0,
2087.0,2104.0,104.0,-6.0,
2104.0,2080.0,104.0,-6.0,
2102.0,2133.0,104.0,-6.0,
2099.0,2052.0,104.0,-5.0,
2061.0,2051.0,105.0,-6.0,
2054.0,2014.0,106.0,-5.0,
2092.0,2058.0,106.0,-5.0,
2105.0,2095.0,106.0,-4.0,
2098.0,2101.0,106.0,-5.0,
2088.0,2102.0,106.0,-5.0,
2094.0,1983.0,105.0,-5.0,
2058.0,2163.0,105.0,-5.0,
2065.0,2126.0,104.0,-5.0,
2050.0,2090.0,104.0,-5.0,
2058.0,2096.0,104.0,-5.0,
2067.0,2110.0,103.0,-6.0,
2096.0,2102.0,102.0,-6.0,
2079.0,2065.0,102.0,-6.0,
2105.0,2069.0,102.0,-6.0,
2105.0,2059.0,101.0,-7.0,
2060.0,2072.0,101.0,-7.0,
2066.0,2068.0,101.0,-7.0,
2048.0,2055.0,101.0,-7.0,
2137.0,2021.0,101.0,-8.0,
2141.0,2054.0,101.0,-8.0,
2104.0,2069.0,101.0,-8.0,
2123.0,2094.0,101.0,-8.0,
2112.0,2106.0,101.0,-8.0,
2084.0,2041.0,99.0,-8.0,
2058.0,2020.0,99.0,-8.0,
2055.0,2143.0,98.0,-8.0,
2070.0,2065.0,98.0,-9.0,
2067.0,2165.0,97.0,-8.0,
2089.0,2045.0,97.0,-9.0,
2057.0,2086.0,96.0,-8.0,
2112.0,2062.0,96.0,-8.0,
2090.0,2094.0,95.0,-8.0,
2075.0,2184.0,95.0,-8.0,
2052.0,2116.0,96.0,-9.0,
2079.0,2002.0,95.0,-8.0,
2091.0,1923.0,96.0,-8.0,
2070.0,2016.0,96.0,-7.0,
2100.0,2094.0,97.0,-8.0,
2104.0,2089.0,97.0,-8.0,
2109.0,2134.0,98.0,-8.0,
2091.0,2047.0,98.0,-7.0,
2044.0,2111.0,98.0,-8.0,
2057.0,2028.0,99.0,-8.0,
2027.0,2161.0,100.0,-8.0,
2067.0,2033.0,101.0,-8.0,
2112.0,2096.0,101.0,-7.0,
2112.0,2140.0,102.0,-6.0,
2096.0,2113.0,102.0,-6.0,
2124.0,2112.0,102.0,-6.0,
2081.0,2130.0,102.0,-5.0,
2081.0,2067.0,102.0,-5.0,
2102.0,2064.0,101.0,-5.0,
2058.0,2095.0,100.0,-5.0,
2080.0,2079.0,100.0,-5.0,
2091.0,2082.0,99.0,-5.0,
2110.0,2090.0,98.0,-5.0,
2128.0,2099.0,97.0,-5.0,
2089.0,2085.0,96.0,-5.0,
2067.0,2072.0,95.0,-5.0,
2075.0,2088.0,93.0,-5.0,
2060.0,2070.0,92.0,-6.0,
2055.0,2073.0,91.0,-6.0,
2069.0,2088.0,90.0,-6.0,
2080.0,2100.0,89.0,-7.0,
2085.0,2080.0,89.0,-7.0,
2086.0,2063.0,88.0,-8.0,
2068.0,2085.0,88.0,-8.0,
2044.0,2068.0,88.0,-9.0,
2048.0,2066.0,88.0,-9.0,
2036.0,2048.0,88.0,-9.0,
2069.0,2049.0,88.0,-9.0,
2092.0,2071.0,88.0,-9.0,
2137.0,2093.0,88.0,-9.0,
2124.0,2092.0,88.0,-9.0,
2125.0,2079.0,88.0,-9.0,
2091.0,2076.0,88.0,-9.0,
2059.0,2053.0,88.0,-9.0,
2102.0,2066.0,88.0,-8.0,
2107.0,2122.0,87.0,-8.0,
2074.0,2062.0,87.0,-8.0,
2081.0,2075.0,87.0,-8.0,
2106.0,2023.0,87.0,-8.0,
2114.0,2043.0,87.0,-8.0,
2081.0,2016.0,87.0,-8.0,
2072.0,2056.0,87.0,-8.0,
2072.0,2076.0,87.0,-8.0,
2048.0,2020.0,87.0,-8.0,
2056.0,2078.0,87.0,-8.0,
2064.0,2107.0,87.0,-8.0,
2071.0,2103.0,87.0,-8.0,
2126.0,2159.0,87.0,-8.0,
2108.0,2033.0,88.0,-8.0,
2107.0,2144.0,88.0,-8.0,
2105.0,2127.0,88.0,-8.0,
2066.0,2045.0,88.0,-8.0,
2056.0,2104.0,89.0,-8.0,
2062.0,2046.0,89.0,-7.0,
2056.0,2114.0,90.0,-7.0,
2103.0,2054.0,90.0,-6.0,
2108.0,2090.0,90.0,-6.0,
2114.0,2110.0,91.0,-6.0,
2102.0,2110.0,91.0,-6.0,
2010.0,2035.0,91.0,-5.0,
2056.0,2026.0,90.0,-5.0,
2049.0,2066.0,90.0,-4.0,
2047.0,2077.0,90.0,-4.0,
2074.0,2098.0,89.0,-3.0,
2103.0,2100.0,89.0,-4.0,
2107.0,2103.0,87.0,-5.0,
2098.0,2120.0,87.0,-5.0,
2079.0,2106.0,86.0,-5.0,
2064.0,2090.0,85.0,-5.0,
2065.0,2095.0,84.0,-5.0,
2083.0,2080.0,84.0,-5.0,
2089.0,2069.0,83.0,-5.0,
2083.0,2077.0,82.0,-6.0,
2096.0,2086.0,81.0,-7.0,
2087.0,2088.0,80.0,-6.0,
2101.0,2091.0,80.0,-6.0,
2054.0,2082.0,80.0,-6.0,
2087.0,2100.0,79.0,-6.0,
2072.0,2027.0,79.0,-7.0,
2063.0,2044.0,79.0,-7.0,
2106.0,2077.0,78.0,-7.0,
2091.0,2088.0,78.0,-7.0,
2107.0,2073.0,78.0,-8.0,
2118.0,2111.0,79.0,-8.0,
2098.0,2080.0,79.0,-7.0,
2077.0,2076.0,79.0,-7.0,
2064.0,2086.0,80.0,-8.0,
2071.0,2060.0,80.0,-8.0,
2051.0,2058.0,80.0,-8.0,
2080.0,2074.0,80.0,-8.0,
2103.0,2077.0,80.0,-7.0,
2096.0,2085.0,80.0,-7.0,
2094.0,2090.0,81.0,-7.0,
2081.0,2082.0,81.0,-7.0,
2071.0,2080.0,81.0,-7.0,
2090.0,2061.0,81.0,-7.0,
2074.0,2068.0,81.0,-7.0,
2087.0,2069.0,81.0,-7.0,
2078.0,2076.0,81.0,-7.0,
2098.0,2086.0,81.0,-7.0,
2086.0,2092.0,81.0,-6.0,
2094.0,2092.0,81.0,-7.0,
2078.0,2081.0,81.0,-6.0,
2071.0,2067.0,81.0,-6.0,
2067.0,2072.0,81.0,-6.0,
2061.0,2074.0,81.0,-6.0,
2089.0,2057.0,81.0,-6.0,
2095.0,2048.0,81.0,-6.0,
2088.0,2082.0,81.0,-5.0,
2107.0,2112.0,81.0,-5.0,
2089.0,2120.0,81.0,-5.0,
2113.0,2189.0,81.0,-5.0,
2098.0,2122.0,81.0,-5.0,
2112.0,2099.0,81.0,-5.0,
2033.0,1791.0,81.0,-5.0,
2046.0,1961.0,81.0,-5.0,
2069.0,2041.0,81.0,-5.0,
2109.0,2068.0,81.0,-5.0,
2151.0,2181.0,81.0,-5.0,
2125.0,2102.0,80.0,-6.0,
2057.0,2027.0,79.0,-6.0,
2060.0,2082.0,79.0,-5.0,
2067.0,2083.0,79.0,-5.0,
2072.0,2108.0,79.0,-5.0,
2062.0,2074.0,79.0,-5.0,
2119.0,2113.0,78.0,-5.0,
2134.0,2044.0,78.0,-5.0,
2089.0,2082.0,77.0,-5.0,
2107.0,2099.0,77.0,-4.0,
2091.0,2147.0,77.0,-4.0,
2036.0,2027.0,77.0,-4.0,
2066.0,2048.0,76.0,-4.0,
2060.0,2080.0,76.0,-5.0,
2057.0,2041.0,76.0,-5.0,
2092.0,2092.0,75.0,-5.0,
2119.0,2110.0,75.0,-5.0,
2115.0,2091.0,75.0,-5.0,
2101.0,2082.0,74.0,-5.0,
2085.0,2072.0,74.0,-5.0,
2062.0,2086.0,74.0,-6.0,
2060.0,2080.0,73.0,-6.0,
2071.0,2085.0,73.0,-6.0,
2078.0,2104.0,73.0,-6.0,
2079.0,2099.0,73.0,-6.0,
2089.0,2101.0,73.0,-6.0,
2102.0,2094.0,73.0,-6.0,
2093.0,2092.0,73.0,-6.0,
2072.0,2075.0,73.0,-6.0,
2078.0,2070.0,73.0,-6.0,
2065.0,2069.0,73.0,-6.0,
2080.0,2078.0,73.0,-6.0,
2094.0,2082.0,73.0,-6.0,
2089.0,2091.0,73.0,-6.0,
2085.0,2094.0,73.0,-6.0,
2086.0,2079.0,73.0,-6.0,
2084.0,2069.0,73.0,-6.0,
2059.0,2067.0,73.0,-6.0,
2048.0,2049.0,73.0,-6.0,
2047.0,2062.0,73.0,-6.0,
2075.0,2065.0,73.0,-6.0,
2062.0,2090.0,73.0,-6.0,
2117.0,2094.0,73.0,-6.0,
2103.0,2072.0,73.0,-6.0,
2076.0,2084.0,73.0,-6.0,
2075.0,2053.0,74.0,-6.0,
2067.0,2056.0,74.0,-6.0,
2078.0,2087.0,74.0,-6.0,
2069.0,2083.0,74.0,-6.0,
2089.0,2118.0,74.0,-5.0,
2065.0,2088.0,74.0,-5.0,
2074.0,2010.0,74.0,-5.0,
2090.0,2060.0,74.0,-5.0,
2095.0,2091.0,74.0,-5.0,
2094.0,2091.0,74.0,-5.0,
2083.0,2134.0,74.0,-5.0,
2064.0,1950.0,73.0,-5.0,
2061.0,1996.0,73.0,-5.0,
2047.0,2095.0,73.0,-5.0,
2076.0,2063.0,73.0,-5.0,
2099.0,2079.0,73.0,-5.0,
2091.0,2063.0,73.0,-5.0,
2101.0,1999.0,73.0,-5.0,
2097.0,2084.0,73.0,-5.0,
2043.0,2074.0,73.0,-5.0,
2068.0,2078.0,73.0,-5.0,
2087.0,2094.0,73.0,-5.0,
2082.0,2124.0,73.0,-5.0,
2110.0,2135.0,73.0,-5.0,
2116.0,2138.0,72.0,-5.0,
2108.0,2099.0,72.0,-5.0,
2095.0,2157.0,72.0,-5.0,
2075.0,2017.0,72.0,-4.0,
2075.0,2056.0,72.0,-5.0,
2078.0,2087.0,72.0,-5.0,
2084.0,2063.0,72.0,-5.0,
2083.0,2100.0,72.0,-5.0,
2085.0,2108.0,72.0,-5.0,
2112.0,2097.0,72.0,-5.0,
2084.0,2071.0,72.0,-5.0,
2086.0,2074.0,72.0,-5.0,
2055.0,2076.0,72.0,-5.0,
2082.0,2066.0,72.0,-5.0,
2053.0,2061.0,72.0,-5.0,
2069.0,2028.0,72.0,-6.0,
2077.0,2056.0,72.0,-6.0,
2095.0,2124.0,72.0,-6.0,
2128.0,2102.0,72.0,-6.0,
2106.0,2093.0,72.0,-6.0,
2084.0,2076.0,72.0,-6.0,
2064.0,2071.0,72.0,-6.0,
2070.0,2067.0,72.0,-6.0,
2076.0,2074.0,72.0,-5.0,
2083.0,2076.0,73.0,-5.0,
2094.0,2086.0,73.0,-5.0,
2102.0,2090.0,73.0,-5.0,
2091.0,2095.0,73.0,-5.0,
2083.0,2082.0,73.0,-5.0,
2072.0,2069.0,73.0,-5.0,
2061.0,2061.0,73.0,-5.0,
2052.0,2063.0,73.0,-5.0,
2060.0,2063.0,73.0,-5.0,
2102.0,2089.0,73.0,-5.0,
2101.0,2089.0,73.0,-5.0,
2097.0,2092.0,73.0,-5.0,
2108.0,2089.0,73.0,-5.0,
2096.0,2084.0,73.0,-5.0,
2061.0,2082.0,73.0,-5.0,
2068.0,2079.0,73.0,-5.0,
2074.0,2056.0,73.0,-5.0,
2093.0,2091.0,0,
2093.0,2117.0,73.0,-5.0,
2102.0,2036.0,73.0,-5.0,
2086.0,2075.0,73.0,-5.0,
2071.0,2085.0,74.0,-5.0,
2083.0,2095.0,74.0,-5.0,
2068.0,2099.0,74.0,-5.0,
2042.0,2040.0,74.0,-4.0,
2061.0,2029.0,74.0,-5.0,
2093.0,2083.0,74.0,-5.0,
2088.0,2116.0,74.0,-5.0,
2084.0,2053.0,74.0,-5.0,
2116.0,2028.0,74.0,-5.0,
2077.0,2109.0,74.0,-5.0,
2077.0,2183.0,74.0,-5.0,
2070.0,2054.0,74.0,-5.0,
2033.0,2000.0,74.0,-5.0,
2043.0,2022.0,74.0,-5.0,
2086.0,2033.0,74.0,-5.0,
2091.0,2079.0,74.0,-5.0,
2117.0,2110.0,74.0,-5.0,
2117.0,2116.0,73.0,-5.0,
2094.0,2104.0,73.0,-5.0,
2063.0,2084.0,73.0,-5.0,
2048.0,2084.0,73.0,-5.0,
2062.0,2114.0,73.0,-5.0,
2067.0,2029.0,73.0,-5.0,
2088.0,2094.0,73.0,-5.0,
2100.0,2094.0,73.0,-5.0,
2092.0,2074.0,73.0,-5.0,
2085.0,2069.0,73.0,-5.0,
2062.0,2083.0,72.0,-5.0,
2036.0,2084.0,72.0,-5.0,
2067.0,2062.0,72.0,-5.0,
2061.0,2055.0,72.0,-5.0,
2105.0,2071.0,72.0,-5.0,
2122.0,2080.0,72.0,-5.0,
2107.0,2089.0,71.0,-5.0,
2100.0,2096.0,71.0,-5.0,
2103.0,2092.0,71.0,-5.0,
2089.0,2089.0,71.0,-5.0,
2073.0,2086.0,71.0,-5.0,
2053.0,2092.0,71.0,-5.0,
2064.0,2089.0,71.0,-5.0,
2058.0,2060.0,71.0,-5.0,
2093.0,2108.0,71.0,-5.0,
2108.0,2087.0,71.0,-5.0,
2093.0,2083.0,71.0,-5.0,
2092.0,2100.0,71.0,-5.0,
2072.0,2072.0,71.0,-5.0,
2055.0,2070.0,71.0,-5.0,
2060.0,2061.0,71.0,-5.0,
2064.0,2080.0,71.0,-5.0,
2074.0,2073.0,71.0,-5.0,
2094.0,2087.0,71.0,-5.0,
2098.0,2103.0,71.0,-5.0,
2094.0,2108.0,71.0,-5.0,
2077.0,2004.0,71.0,-5.0,
2065.0,2063.0,71.0,-5.0,
2051.0,2052.0,71.0,-5.0,
2062.0,2076.0,71.0,-5.0,
2091.0,2076.0,71.0,-5.0,
2078.0,2047.0,71.0,-5.0,
2082.0,2066.0,71.0,-5.0,
2092.0,2080.0,71.0,-5.0,
2095.0,2083.0,71.0,-5.0,
2089.0,2083.0,71.0,-5.0,
2079.0,2080.0,71.0,-5.0,
2066.0,2066.0,71.0,-5.0,
2095.0,2059.0,71.0,-5.0,
2072.0,2091.0,71.0,-5.0,
2069.0,2080.0,71.0,-5.0,
2077.0,2125.0,71.0,-5.0,
2115.0,2155.0,71.0,-5.0,
2106.0,2130.0,71.0,-5.0,
2084.0,1982.0,72.0,-5.0,
2045.0,2042.0,72.0,-5.0,
2072.0,2015.0,72.0,-5.0,
2061.0,2033.0,72.0,-5.0,
2068.0,2052.0,71.0,-5.0,
2085.0,2056.0,71.0,-5.0,
2104.0,2055.0,71.0,-5.0,
2082.0,2111.0,71.0,-5.0,
2084.0,2041.0,71.0,-5.0,
2097.0,2035.0,71.0,-5.0,
2085.0,2042.0,71.0,-5.0,
2059.0,1999.0,71.0,-5.0,
2032.0,2041.0,71.0,-5.0,
2087.0,2094.0,71.0,-5.0,
2101.0,2133.0,71.0,-5.0,
2117.0,2216.0,71.0,-5.0,
2118.0,2182.0,71.0,-5.0,
2089.0,2134.0,71.0,-5.0,
2079.0,2040.0,71.0,-5.0,
2052.0,1953.0,71.0,-5.0,
2017.0,2014.0,71.0,-5.0,
2050.0,2103.0,71.0,-5.0,
2094.0,2108.0,71.0,-5.0,
2096.0,2090.0,71.0,-5.0,
2132.0,2095.0,71.0,-5.0,
2111.0,2082.0,71.0,-5.0,
2081.0,2093.0,71.0,-5.0,
2058.0,2098.0,71.0,-5.0,
2063.0,2067.0,71.0,-5.0,
2052.0,2086.0,71.0,-5.0,
2108.0,2096.0,71.0,-5.0,
2116.0,2050.0,71.0,-5.0,
2122.0,2098.0,71.0,-5.0,
2098.0,2102.0,71.0,-5.0,
2090.0,2108.0,71.0,-5.0,
2076.0,2063.0,71.0,-5.0,
2068.0,2072.0,71.0,-5.0,
2044.0,2063.0,71.0,-5.0,
2062.0,2060.0,71.0,-5.0,
2059.0,2067.0,71.0,-5.0,
2071.0,2072.0,71.0,-5.0,
2085.0,2084.0,71.0,-5.0,
2093.0,2089.0,71.0,-5.0,
2081.0,2089.0,71.0,-5.0,
2082.0,2085.0,71.0,-5.0,
2063.0,2079.0,71.0,-5.0,
2058.0,2073.0,71.0,-5.0,
2081.0,2067.0,71.0,-5.0,
2084.0,2062.0,71.0,-5.0,
2086.0,2073.0,71.0,-5.0,
2106.0,2088.0,71.0,-5.0,
2088.0,2086.0,71.0,-5.0,
2083.0,2079.0,71.0,-5.0,
2075.0,2065.0,72.0,-5.0,
2052.0,2050.0,72.0,-5.0,
2070.0,2054.0,72.0,-5.0,
2078.0,2052.0,72.0,-5.0,
2066.0,2060.0,72.0,-5.0,
2094.0,2066.0,72.0,-5.0,
2083.0,2083.0,72.0,-5.0,
2109.0,2090.0,72.0,-5.0,
2102.0,2078.0,72.0,-5.0,
2083.0,2057.0,72.0,-5.0,
2077.0,2047.0,72.0,-5.0,
2067.0,2060.0,72.0,-5.0,
2063.0,2076.0,72.0,-5.0,
2080.0,2087.0,72.0,-5.0,
2093.0,2087.0,72.0,-5.0,
2081.0,2104.0,0,
2121.0,2199.0,72.0,-5.0,
2082.0,2047.0,72.0,-5.0,
2061.0,2019.0,72.0,-5.0,
2058.0,2053.0,72.0,-5.0,
2063.0,1983.0,72.0,-5.0,
2014.0,1997.0,0,
2096.0,2047.0,72.0,-5.0,
2118.0,2143.0,72.0,-5.0,
2108.0,2137.0,72.0,-5.0,
2081.0,2036.0,72.0,-5.0,
2071.0,2056.0,72.0,-5.0,
2067.0,2136.0,72.0,-5.0,
2080.0,2065.0,72.0,-5.0,
2059.0,2009.0,71.0,-5.0,
2066.0,2058.0,71.0,-5.0,
2082.0,2149.0,71.0,-5.0,
2087.0,2115.0,71.0,-5.0,
2085.0,2095.0,71.0,-5.0,
2096.0,2095.0,70.0,-5.0,
2067.0,2055.0,70.0,-5.0,
2095.0,2096.0,70.0,-5.0,
2090.0,2105.0,70.0,-5.0,
2083.0,2024.0,70.0,-5.0,
2084.0,2078.0,70.0,-5.0,
2095.0,2088.0,70.0,-5.0,
2089.0,2109.0,70.0,-5.0,
2107.0,2107.0,69.0,-5.0,
2095.0,2104.0,69.0,-5.0,
2084.0,2093.0,69.0,-5.0,
2059.0,2076.0,69.0,-5.0,
2044.0,2062.0,69.0,-5.0,
2045.0,2070.0,69.0,-5.0,
2065.0,2078.0,69.0,-5.0,
2083.0,2083.0,69.0,-5.0,
2093.0,2085.0,69.0,-5.0,
2120.0,2083.0,70.0,-5.0,
2108.0,2081.0,70.0,-5.0,
2096.0,2068.0,70.0,-5.0,
2081.0,2056.0,70.0,-5.0,
2064.0,2060.0,70.0,-5.0,
2071.0,2081.0,70.0,-5.0,
2071.0,2069.0,70.0,-5.0,
2099.0,2084.0,70.0,-5.0,
2090.0,2090.0,70.0,-5.0,
2091.0,2089.0,70.0,-5.0,
2066.0,2082.0,70.0,-5.0,
2062.0,2076.0,70.0,-5.0,
2062.0,2070.0,71.0,-5.0,
2058.0,2064.0,71.0,-5.0,
2078.0,2075.0,71.0,-5.0,
2074.0,2087.0,71.0,-5.0,
2092.0,2085.0,71.0,-5.0,
2099.0,2095.0,71.0,-5.0,
2092.0,2074.0,71.0,-5.0,
2060.0,2061.0,71.0,-5.0,
2063.0,2060.0,71.0,-5.0,
2049.0,2056.0,71.0,-5.0,
2065.0,2059.0,71.0,-5.0,
2059.0,2074.0,71.0,-5.0,
2065.0,2076.0,72.0,-5.0,
2084.0,2083.0,72.0,-5.0,
2083.0,2094.0,72.0,-5.0,
2074.0,2083.0,72.0,-5.0,
2066.0,2075.0,72.0,-5.0,
2068.0,2072.0,72.0,-5.0,
2080.0,2068.0,72.0,-5.0,
2057.0,2088.0,72.0,-5.0,
2095.0,2101.0,72.0,-5.0,
2084.0,2090.0,72.0,-5.0,
2095.0,2079.0,72.0,-5.0,
2107.0,2088.0,72.0,-5.0,
2085.0,2071.0,72.0,-5.0,
2073.0,2077.0,72.0,-5.0,
2065.0,2086.0,72.0,-5.0,
2069.0,2037.0,72.0,-5.0,
2084.0,2059.0,72.0,-5.0,
2090.0,2077.0,72.0,-5.0,
2117.0,2093.0,72.0,-5.0,
2093.0,2105.0,72.0,-5.0,
2092.0,2100.0,72.0,-5.0,
2086.0,2089.0,72.0,-5.0,
2066.0,2074.0,72.0,-5.0,
2052.0,2071.0,72.0,-5.0,
2047.0,2085.0,72.0,-5.0,
2071.0,2053.0,72.0,-5.0,
2090.0,2077.0,72.0,-5.0,
2085.0,2072.0,72.0,-5.0,
2110.0,2081.0,72.0,-5.0,
2098.0,2098.0,72.0,-5.0,
2098.0,2116.0,72.0,-5.0,
2070.0,1999.0,72.0,-5.0,
2046.0,2056.0,72.0,-5.0,
2072.0,2083.0,71.0,-5.0,
2054.0,2038.0,71.0,-5.0,
2080.0,2096.0,71.0,-5.0,
2119.0,2144.0,71.0,-5.0,
2099.0,2026.0,71.0,-5.0,
2116.0,2086.0,71.0,-5.0,
2083.0,2101.0,71.0,-5.0,
2060.0,2059.0,71.0,-5.0,
2059.0,2051.0,71.0,-5.0,
2057.0,2068.0,71.0,-5.0,
2082.0,2070.0,71.0,-5.0,
2095.0,2064.0,71.0,-5.0,
2125.0,2128.0,71.0,-5.0,
2100.0,2147.0,71.0,-5.0,
2081.0,2102.0,70.0,-5.0,
2094.0,2105.0,70.0,-5.0,
2080.0,2072.0,70.0,-5.0,
2067.0,2055.0,70.0,-5.0,
2070.0,2103.0,70.0,-5.0,
2076.0,2074.0,70.0,-5.0,
2103.0,2087.0,70.0,-5.0,
2098.0,2103.0,70.0,-5.0,
2103.0,2076.0,70.0,-5.0,
2092.0,2083.0,70.0,-5.0,
2070.0,2077.0,70.0,-5.0,
2075.0,2066.0,70.0,-5.0,
2058.0,2037.0,70.0,-5.0,
2092.0,2054.0,70.0,-5.0,
2103.0,2070.0,70.0,-5.0,
2089.0,2075.0,70.0,-5.0,
2098.0,2077.0,70.0,-5.0,
2093.0,2086.0,70.0,-5.0,
2079.0,2075.0,70.0,-5.0,
2074.0,2072.0,70.0,-5.0,
2066.0,2055.0,70.0,-5.0,
2055.0,2078.0,70.0,-5.0,
2081.0,2080.0,70.0,-5.0,
2084.0,2033.0,70.0,-5.0,
2091.0,2074.0,70.0,-5.0,
2097.0,2076.0,70.0,-5.0,
2087.0,2086.0,70.0,-5.0,
2084.0,2042.0,70.0,-5.0,
2067.0,2028.0,70.0,-5.0,
2067.0,2085.0,70.0,-5.0,
2066.0,2059.0,70.0,-5.0,
2085.0,2059.0,70.0,-5.0,
2092.0,2086.0,70.0,-5.0,
2110.0,2132.0,71.0,-5.0,
2103.0,2106.0,71.0,-5.0,
2088.0,2058.0,71.0,-5.0,
2062.0,2005.0,71.0,-5.0,
2056.0,2015.0,71.0,-5.0,
2058.0,2051.0,71.0,-5.0,
2065.0,2071.0,71.0,-5.0,
2082.0,2103.0,71.0,-5.0,
2109.0,2104.0,71.0,-5.0,
2104.0,2098.0,71.0,-5.0,
2100.0,2100.0,71.0,-5.0,
2094.0,2084.0,71.0,-5.0,
2073.0,2095.0,71.0,-5.0,
2094.0,2112.0,71.0,-5.0,
2067.0,2050.0,71.0,-5.0,
2071.0,2066.0,71.0,-5.0,
2090.0,2077.0,71.0,-5.0,
2101.0,2115.0,0,
2099.0,2119.0,71.0,-5.0,
2100.0,2077.0,71.0,-5.0,
2086.0,2094.0,71.0,-5.0,
2065.0,2022.0,71.0,-5.0,
2053.0,2049.0,71.0,-5.0,
2074.0,2062.0,71.0,-5.0,
2081.0,2074.0,71.0,-5.0,
2096.0,2065.0,71.0,-5.0,
2109.0,2084.0,71.0,-5.0,
2106.0,2093.0,71.0,-5.0,
2107.0,2086.0,71.0,-5.0,
2082.0,2084.0,71.0,-5.0,
2076.0,2072.0,71.0,-5.0,
2051.0,2062.0,71.0,-5.0,
2071.0,2069.0,71.0,-5.0,
2092.0,2076.0,71.0,-5.0,
2095.0,2083.0,71.0,-5.0,
2108.0,2091.0,71.0,-5.0,
2122.0,2091.0,71.0,-5.0,
2091.0,2097.0,71.0,-5.0,
2088.0,2067.0,71.0,-5.0,
2069.0,2062.0,0,
2065.0,2060.0,71.0,-5.0,
2078.0,2065.0,71.0,-5.0,
2078.0,2081.0,71.0,-5.0,
2100.0,2094.0,71.0,-5.0,
2091.0,2076.0,71.0,-5.0,
2090.0,2086.0,71.0,-5.0,
2086.0,2107.0,71.0,-5.0,
2082.0,2061.0,71.0,-5.0,
2077.0,2057.0,71.0,-5.0,
2081.0,2075.0,71.0,-5.0,
2056.0,2062.0,71.0,-5.0,
2060.0,2056.0,71.0,-5.0,
2085.0,2110.0,71.0,-5.0,
2094.0,2054.0,71.0,-5.0,
2070.0,2076.0,71.0,-5.0,
2074.0,2135.0,71.0,-5.0,
2074.0,2062.0,71.0,-5.0,
2077.0,2066.0,71.0,-5.0,
2049.0,2021.0,71.0,-5.0,
2080.0,2058.0,71.0,-5.0,
2093.0,2067.0,71.0,-5.0,
2098.0,2104.0,71.0,-5.0,
2103.0,2056.0,70.0,-5.0,
2092.0,2072.0,70.0,-5.0,
2067.0,2041.0,70.0,-5.0,
2069.0,2059.0,70.0,-5.0,
2064.0,2099.0,70.0,-5.0,
2071.0,2077.0,70.0,-5.0,
2102.0,2101.0,70.0,-5.0,
2084.0,2030.0,70.0,-5.0,
2098.0,2065.0,70.0,-5.0,
2103.0,2109.0,70.0,-5.0,
2092.0,2117.0,70.0,-5.0,
2079.0,2077.0,70.0,-5.0,
2069.0,2084.0,70.0,-5.0,
2059.0,2075.0,70.0,-5.0,
2068.0,2078.0,70.0,-5.0,
2071.0,2082.0,70.0,-5.0,
2109.0,2096.0,70.0,-5.0,
2122.0,2101.0,70.0,-5.0,
2101.0,2092.0,70.0,-5.0,
2098.0,2083.0,70.0,-5.0,
2089.0,2071.0,70.0,-5.0,
2077.0,2067.0,70.0,-5.0,
2078.0,2054.0,70.0,-5.0,
2073.0,2073.0,70.0,-5.0,
2091.0,2078.0,70.0,-5.0,
2094.0,2091.0,70.0,-5.0,
2101.0,2092.0,70.0,-5.0,
2096.0,2098.0,70.0,-5.0,
2082.0,2082.0,70.0,-5.0,
2075.0,2072.0,70.0,-5.0,
2062.0,2062.0,70.0,-5.0,
2053.0,2060.0,70.0,-5.0,
2060.0,2063.0,70.0,-5.0,
2071.0,2078.0,70.0,-5.0,
2101.0,2083.0,70.0,-5.0,
2101.0,2086.0,70.0,-5.0,
2107.0,2083.0,70.0,-5.0,
2085.0,2072.0,70.0,-5.0,
2058.0,2060.0,70.0,-5.0,
2062.0,2060.0,70.0,-5.0,
2059.0,2054.0,70.0,-5.0,
2078.0,2064.0,70.0,-5.0,
2091.0,2078.0,70.0,-5.0,
2084.0,2086.0,71.0,-5.0,
2095.0,2094.0,71.0,-5.0,
2104.0,2099.0,71.0,-5.0,
2083.0,2082.0,71.0,-5.0,
2083.0,2084.0,71.0,-5.0,
2048.0,2085.0,71.0,-5.0,
2057.0,2055.0,71.0,-5.0,
2068.0,2076.0,71.0,-5.0,
2102.0,2073.0,71.0,-5.0,
2081.0,2049.0,71.0,-5.0,
2094.0,2120.0,71.0,-5.0,
2084.0,2077.0,71.0,-5.0,
2083.0,2096.0,71.0,-5.0,
2069.0,2051.0,71.0,-5.0,
2065.0,2056.0,71.0,-5.0,
2071.0,2074.0,71.0,-5.0,
2081.0,2071.0,71.0,-5.0,
2094.0,2088.0,71.0,-5.0,
2103.0,2097.0,71.0,-5.0,
2101.0,2106.0,71.0,-5.0,
2080.0,2139.0,71.0,-5.0,
2074.0,2074.0,71.0,-5.0,
2060.0,2078.0,71.0,-5.0,
2081.0,1996.0,71.0,-5.0,
2087.0,2073.0,71.0,-5.0,
2076.0,2030.0,70.0,-5.0,
2092.0,2046.0,70.0,-5.0,
2093.0,2086.0,70.0,-5.0,
2080.0,2110.0,70.0,-5.0,
2091.0,2099.0,70.0,-5.0,
2051.0,2030.0,70.0,-5.0,
2047.0,2058.0,70.0,-5.0,
2064.0,2059.0,70.0,-5.0,
2075.0,2071.0,70.0,-5.0,
2105.0,2072.0,70.0,-5.0,
2118.0,2095.0,70.0,-5.0,
2106.0,2096.0,70.0,-5.0,
2095.0,2107.0,70.0,-5.0,
2082.0,2085.0,70.0,-5.0,
2073.0,2080.0,70.0,-5.0,
2055.0,2083.0,70.0,-5.0,
2071.0,2081.0,70.0,-5.0,
2079.0,2080.0,70.0,-5.0,
2093.0,2098.0,70.0,-5.0,
2119.0,2099.0,70.0,-5.0,
2096.0,2095.0,70.0,-5.0,
2072.0,2089.0,70.0,-5.0,
2075.0,2085.0,70.0,-5.0,
2061.0,2064.0,70.0,-5.0,
2059.0,2056.0,70.0,-5.0,
2050.0,2061.0,70.0,-5.0,
2088.0,2072.0,70.0,-5.0,
2096.0,2079.0,70.0,-5.0,
2109.0,2099.0,70.0,-5.0,
2108.0,2088.0,70.0,-5.0,
2092.0,2083.0,70.0,-5.0,
2073.0,2084.0,70.0,-5.0,
2046.0,2050.0,70.0,-5.0,
2054.0,2053.0,70.0,-5.0,
2062.0,2069.0,70.0,-5.0,
2094.0,2043.0,70.0,-5.0,
2091.0,2071.0,70.0,-5.0,
2112.0,2083.0,70.0,-5.0,
2107.0,2082.0,70.0,-5.0,
2085.0,2062.0,70.0,-5.0,
2074.0,2061.0,70.0,-5.0,
2064.0,2065.0,70.0,-5.0,
2071.0,2053.0,70.0,-5.0,
2071.0,2063.0,70.0,-5.0,
2090.0,2084.0,70.0,-5.0,
2094.0,2093.0,70.0,-5.0,
2102.0,2098.0,70.0,-5.0,
2104.0,2096.0,70.0,-5.0,
2087.0,2086.0,70.0,-5.0,
2085.0,2068.0,70.0,-5.0,
2064.0,2081.0,70.0,-5.0,
2071.0,2097.0,70.0,-5.0,
2078.0,2031.0,71.0,-5.0,
2091.0,2073.0,71.0,-5.0,
2110.0,2084.0,71.0,-5.0,
2108.0,2092.0,71.0,-5.0,
2085.0,2061.0,71.0,-5.0,
2064.0,2086.0,71.0,-5.0,
2089.0,2072.0,71.0,-5.0,
2080.0,2045.0,71.0,-5.0,
2069.0,2058.0,70.0,-5.0,
2080.0,2070.0,70.0,-5.0,
2099.0,2074.0,70.0,-5.0,
2093.0,2083.0,70.0,-5.0,
2104.0,2091.0,70.0,-5.0,
2087.0,2090.0,70.0,-5.0,
2077.0,2080.0,70.0,-5.0,
2066.0,2076.0,70.0,-5.0,
2061.0,2073.0,0,
2084.0,2085.0,70.0,-5.0,
2086.0,2084.0,70.0,-5.0,
2098.0,2090.0,70.0,-5.0,
2093.0,2098.0,70.0,-5.0,
2095.0,2111.0,70.0,-5.0,
2081.0,2116.0,70.0,-5.0,
2076.0,2066.0,70.0,-5.0,
2070.0,2055.0,70.0,-5.0,
2072.0,2096.0,70.0,-5.0,
2106.0,2117.0,70.0,-5.0,
2061.0,2116.0,70.0,-5.0,
2051.0,2012.0,70.0,-5.0,
2083.0,2037.0,70.0,-5.0,
2074.0,2011.0,70.0,-5.0,
2081.0,2041.0,70.0,-5.0,
2048.0,2029.0,70.0,-5.0,
2051.0,2012.0,70.0,-5.0,
2083.0,2057.0,70.0,-5.0,
2090.0,2057.0,70.0,-5.0,
2098.0,2086.0,70.0,-5.0,
2109.0,2094.0,70.0,-5.0,
2120.0,2100.0,70.0,-5.0,
2111.0,2092.0,70.0,-5.0,
2078.0,2094.0,69.0,-5.0,
2068.0,2084.0,69.0,-5.0,
2066.0,2082.0,69.0,-5.0,
2065.0,2083.0,69.0,-5.0,
2082.0,2089.0,69.0,-5.0,
2097.0,2092.0,69.0,-5.0,
2104.0,2098.0,69.0,-5.0,
2119.0,2095.0,69.0,-5.0,
2082.0,2077.0,69.0,-5.0,
2093.0,2072.0,69.0,-5.0,
2086.0,2065.0,69.0,-5.0,
2063.0,2085.0,69.0,-5.0,
2088.0,2097.0,69.0,-5.0,
2063.0,2073.0,69.0,-5.0,
2076.0,2019.0,69.0,-5.0,
2091.0,2072.0,69.0,-5.0,
2097.0,2088.0,70.0,-5.0,
2100.0,2085.0,70.0,-5.0,
2067.0,2078.0,70.0,-5.0,
2054.0,2055.0,70.0,-5.0,
2057.0,2053.0,70.0,-5.0,
2065.0,2067.0,70.0,-5.0,
2088.0,2079.0,70.0,-5.0,
2091.0,2108.0,70.0,-5.0,
2098.0,2101.0,70.0,-5.0,
2095.0,2065.0,70.0,-5.0,
2084.0,2073.0,70.0,-5.0,
2060.0,2064.0,70.0,-5.0,
2065.0,2060.0,70.0,-5.0,
2060.0,2058.0,70.0,-5.0,
2055.0,2071.0,70.0,-5.0,
2072.0,2080.0,70.0,-5.0,
2088.0,2094.0,70.0,-5.0,
2093.0,2088.0,70.0,-5.0,
2090.0,2087.0,70.0,-5.0,
2082.0,2077.0,70.0,-5.0,
2067.0,2060.0,70.0,-5.0,
2074.0,2050.0,70.0,-5.0,
2069.0,2062.0,70.0,-5.0,
2065.0,2069.0,70.0,-5.0,
2099.0,2083.0,70.0,-5.0,
2096.0,2085.0,70.0,-5.0,
2105.0,2097.0,70.0,-5.0,
2086.0,2110.0,70.0,-5.0,
2081.0,2076.0,70.0,-5.0,
2061.0,2058.0,70.0,-5.0,
2048.0,2051.0,70.0,-5.0,
2052.0,2051.0,70.0,-5.0,
2066.0,2067.0,70.0,-5.0,
2094.0,2109.0,70.0,-5.0,
2119.0,2156.0,70.0,-5.0,
2111.0,2125.0,70.0,-5.0,
2061.0,2005.0,70.0,-5.0,
2034.0,1993.0,70.0,-5.0,
2043.0,1986.0,70.0,-5.0,
2051.0,2037.0,70.0,-5.0,
2067.0,2078.0,70.0,-5.0,
2076.0,2066.0,70.0,-5.0,
2094.0,2086.0,70.0,-5.0,
2136.0,2118.0,70.0,-5.0,
2109.0,2092.0,70.0,-5.0,
2079.0,2108.0,70.0,-5.0,
2061.0,2047.0,70.0,-5.0,
2049.0,2068.0,70.0,-5.0,
2069.0,2062.0,70.0,-5.0,
2066.0,2078.0,70.0,-5.0,
2109.0,2100.0,69.0,-5.0,
2111.0,2113.0,69.0,-5.0,
2097.0,2110.0,69.0,-5.0,
2090.0,2101.0,69.0,-5.0,
2072.0,2090.0,69.0,-5.0,
2070.0,2094.0,69.0,-5.0,
2083.0,2081.0,69.0,-5.0,
2094.0,2077.0,69.0,-5.0,
2076.0,2097.0,69.0,-5.0,
2100.0,2079.0,69.0,-5.0,
2099.0,2075.0,69.0,-5.0,
2093.0,2091.0,69.0,-5.0,
2101.0,2083.0,69.0,-5.0,
2089.0,2074.0,69.0,-5.0,
2079.0,2075.0,69.0,-5.0,
2071.0,2069.0,69.0,-5.0,
2056.0,2073.0,69.0,-5.0,
2084.0,2088.0,70.0,-5.0,
2101.0,2090.0,70.0,-5.0,
2109.0,2093.0,70.0,-5.0,
2106.0,2078.0,70.0,-5.0,
2066.0,2071.0,70.0,-5.0,
2080.0,2063.0,70.0,-5.0,
2055.0,2069.0,70.0,-5.0,
2037.0,2074.0,70.0,-5.0,
2044.0,2063.0,70.0,-5.0,
2110.0,2091.0,70.0,-5.0,
2147.0,2103.0,70.0,-5.0,
2109.0,2023.0,70.0,-5.0,
2108.0,2045.0,70.0,-5.0,
2113.0,2074.0,70.0,-5.0,
2063.0,2090.0,70.0,-5.0,
2077.0,2076.0,70.0,-5.0,
2048.0,2068.0,70.0,-5.0,
2054.0,2054.0,70.0,-5.0,
2100.0,2084.0,70.0,-5.0,
2118.0,2018.0,70.0,-5.0,
2107.0,2095.0,70.0,-5.0,
2112.0,2116.0,70.0,-5.0,
2084.0,2105.0,70.0,-5.0,
2077.0,2133.0,70.0,-5.0,
2072.0,2088.0,70.0,-5.0,
2041.0,1930.0,70.0,-5.0,
2046.0,2052.0,70.0,-5.0,
2093.0,2060.0,70.0,-5.0,
2121.0,2088.0,70.0,-5.0,
2149.0,2152.0,70.0,-5.0,
2157.0,2228.0,70.0,-5.0,
2064.0,2050.0,70.0,-5.0,
2015.0,1966.0,70.0,-5.0,
2052.0,1937.0,70.0,-5.0,
2046.0,2029.0,70.0,-5.0,
2064.0,2104.0,70.0,-5.0,
2108.0,2124.0,70.0,-5.0,
2093.0,2073.0,70.0,-5.0,
2077.0,2040.0,70.0,-5.0,
2076.0,2063.0,70.0,-5.0,
2111.0,2082.0,69.0,-5.0,
2136.0,2107.0,69.0,-5.0,
2102.0,2096.0,69.0,-5.0,
2074.0,2088.0,69.0,-5.0,
2109.0,2128.0,69.0,-5.0,
2105.0,2161.0,69.0,-5.0,
2091.0,2025.0,69.0,-5.0,
2113.0,2053.0,69.0,-5.0,
2058.0,2074.0,69.0,-5.0,
2060.0,2088.0,69.0,-5.0,
2036.0,2084.0,69.0,-5.0,
2013.0,2022.0,69.0,-5.0,
2081.0,2087.0,69.0,-5.0,
2067.0,2101.0,69.0,-5.0,
2063.0,2085.0,69.0,-5.0,
2070.0,2095.0,69.0,-5.0,
2099.0,2116.0,69.0,-5.0,
2074.0,2081.0,69.0,-5.0,
2082.0,2033.0,69.0,-5.0,
2066.0,2044.0,69.0,-5.0,
2050.0,2095.0,69.0,-5.0,
2065.0,2047.0,69.0,-5.0,
2135.0,2160.0,69.0,-5.0,
2165.0,2059.0,69.0,-5.0,
2133.0,2208.0,69.0,-5.0,
2170.0,2025.0,69.0,-5.0,
2066.0,1922.0,69.0,-5.0,
2101.0,2213.0,70.0,-5.0,
2054.0,2083.0,70.0,-5.0,
1932.0,1808.0,70.0,-5.0,
1971.0,1953.0,70.0,-5.0,
2052.0,1968.0,70.0,-5.0,
2045.0,2014.0,70.0,-5.0,
2095.0,2223.0,70.0,-5.0,
2077.0,2173.0,70.0,-5.0,
2171.0,1994.0,70.0,-5.0,
2157.0,1848.0,70.0,-5.0,
2054.0,1964.0,70.0,-5.0,
2052.0,2250.0,70.0,-5.0,
2063.0,2141.0,70.0,-5.0,
2073.0,2047.0,70.0,-5.0,
2122.0,2035.0,69.0,-5.0,
2200.0,2161.0,69.0,-4.0,
2107.0,2042.0,69.0,-4.0,
2065.0,2122.0,69.0,-4.0,
2061.0,2093.0,69.0,-5.0,
2105.0,2124.0,68.0,-5.0,
2100.0,2135.0,69.0,-4.0,
2100.0,2188.0,68.0,-4.0,
2122.0,2078.0,68.0,-4.0,
2112.0,2135.0,68.0,-4.0,
2071.0,2120.0,68.0,-5.0,
2074.0,2112.0,68.0,-5.0,
2026.0,2109.0,68.0,-5.0,
2009.0,2129.0,68.0,-5.0,
1993.0,2076.0,68.0,-5.0,
2017.0,2119.0,68.0,-5.0,
2016.0,2148.0,68.0,-6.0,
2062.0,2052.0,68.0,-6.0,
2093.0,1995.0,68.0,-6.0,
2198.0,2107.0,69.0,-6.0,
2095.0,2062.0,69.0,-6.0,
2126.0,1969.0,70.0,-6.0,
2114.0,2062.0,70.0,-7.0,
2106.0,2255.0,70.0,-7.0,
2062.0,1892.0,71.0,-7.0,
2063.0,2065.0,71.0,-7.0,
2081.0,2139.0,72.0,-7.0,
2089.0,1892.0,72.0,-7.0,
2048.0,2030.0,73.0,-7.0,
2044.0,2140.0,74.0,-7.0,
2090.0,1971.0,74.0,-7.0,
2060.0,2029.0,75.0,-7.0,
2049.0,1988.0,75.0,-7.0,
2079.0,2062.0,76.0,-7.0,
2111.0,2181.0,76.0,-7.0,
2134.0,2235.0,76.0,-7.0,
2072.0,2104.0,77.0,-7.0,
2112.0,2031.0,77.0,-7.0,
2077.0,2091.0,78.0,-7.0,
2021.0,1954.0,78.0,-7.0,
2026.0,2347.0,78.0,-6.0,
2034.0,2289.0,78.0,-6.0,
2059.0,1902.0,79.0,-6.0,
2047.0,1817.0,79.0,-6.0,
2086.0,2059.0,79.0,-6.0,
2117.0,2131.0,79.0,-6.0,
2082.0,2040.0,79.0,-6.0,
2073.0,2034.0,80.0,-6.0,
2068.0,2033.0,80.0,-6.0,
2072.0,2051.0,80.0,-6.0,
2090.0,2133.0,79.0,-6.0,
2084.0,2095.0,80.0,-6.0,
2085.0,2171.0,80.0,-6.0,
2060.0,2135.0,80.0,-6.0,
2120.0,2112.0,80.0,-6.0,
2082.0,2095.0,80.0,-6.0,
2114.0,2120.0,80.0,-6.0,
2050.0,2104.0,80.0,-6.0,
2063.0,2054.0,80.0,-6.0,
2094.0,2118.0,80.0,-6.0,
2015.0,2081.0,80.0,-6.0,
2064.0,2180.0,80.0,-6.0,
2090.0,2008.0,81.0,-6.0,
2069.0,1979.0,81.0,-6.0,
2116.0,2079.0,81.0,-7.0,
2058.0,2093.0,81.0,-7.0,
2109.0,2185.0,81.0,-7.0,
2115.0,2081.0,82.0,-7.0,
2088.0,2132.0,82.0,-7.0,
2080.0,2205.0,82.0,-7.0,
2079.0,1894.0,83.0,-7.0,
2095.0,1944.0,83.0,-7.0,
2113.0,2034.0,83.0,-7.0,
2114.0,2029.0,83.0,-7.0,
2101.0,2075.0,84.0,-7.0,
2080.0,2120.0,84.0,-7.0,
2125.0,2171.0,84.0,-7.0,
2068.0,2015.0,84.0,-6.0,
1980.0,1855.0,85.0,-7.0,
2100.0,2037.0,85.0,-7.0,
2115.0,2027.0,85.0,-7.0,
2071.0,2128.0,85.0,-7.0,
2152.0,2244.0,85.0,-7.0,
2049.0,2207.0,85.0,-7.0,
2006.0,2081.0,85.0,-7.0,
2055.0,1616.0,85.0,-7.0,
2089.0,1931.0,85.0,-7.0,
2123.0,2171.0,85.0,-7.0,
2085.0,2039.0,86.0,-7.0,
2127.0,2106.0,86.0,-7.0,
2128.0,2125.0,86.0,-7.0,
2127.0,2226.0,86.0,-7.0,
2087.0,2143.0,86.0,-7.0,
2066.0,2148.0,86.0,-7.0,
2008.0,2113.0,86.0,-7.0,
2049.0,2008.0,86.0,-7.0,
2088.0,2286.0,86.0,-7.0,
2051.0,2113.0,86.0,-7.0,
2030.0,1990.0,86.0,-7.0,
2104.0,2120.0,86.0,-7.0,
1986.0,2016.0,86.0,-7.0,
2028.0,2056.0,86.0,-7.0,
2112.0,2104.0,86.0,-8.0,
2103.0,2037.0,86.0,-8.0,
2093.0,2086.0,86.0,-8.0,
2113.0,2103.0,87.0,-7.0,
2123.0,2078.0,87.0,-7.0,
2139.0,2122.0,87.0,-8.0,
2074.0,2015.0,87.0,-8.0,
2032.0,2049.0,87.0,-8.0,
1992.0,2211.0,87.0,-8.0,
2121.0,2188.0,87.0,-8.0,
2103.0,1844.0,88.0,-8.0,
2042.0,1875.0,88.0,-8.0,
2110.0,2175.0,88.0,-8.0,
2066.0,2087.0,88.0,-8.0,
2083.0,2033.0,88.0,-8.0,
2065.0,2001.0,88.0,-8.0,
2045.0,1997.0,89.0,-9.0,
2086.0,1957.0,89.0,-9.0,
2087.0,2132.0,89.0,-9.0,
2031.0,2044.0,90.0,-8.0,
2165.0,2009.0,90.0,-8.0,
2116.0,2174.0,90.0,-8.0,
2107.0,2096.0,90.0,-8.0,
2121.0,2270.0,91.0,-8.0,
2088.0,1882.0,91.0,-8.0,
2111.0,2135.0,91.0,-8.0,
1960.0,1925.0,91.0,-8.0,
2061.0,1995.0,92.0,-8.0,
2146.0,2112.0,92.0,-8.0,
2136.0,2255.0,92.0,-8.0,
2089.0,2076.0,93.0,-8.0,
1997.0,2087.0,93.0,-8.0,
2142.0,2065.0,94.0,-8.0,
