2098.0,2141.0,65.0,-2.0,
2097.0,2156.0,65.0,-2.0,
2113.0,2137.0,65.0,-2.0,
2085.0,2070.0,65.0,-2.0,
2096.0,2156.0,65.0,-2.0,
2106.0,2121.0,65.0,-2.0,
2110.0,2050.0,65.0,-2.0,
2062.0,2038.0,65.0,-2.0,
2063.0,2067.0,64.0,-2.0,
2088.0,2141.0,64.0,-2.0,
2091.0,2198.0,64.0,-2.0,
2085.0,2155.0,64.0,-2.0,
2088.0,2117.0,64.0,-2.0,
2068.0,2140.0,64.0,-2.0,
2079.0,2132.0,64.0,-2.0,
2075.0,2108.0,64.0,-2.0,
2074.0,2117.0,64.0,-2.0,
2064.0,2122.0,64.0,-2.0,
2073.0,2124.0,64.0,-2.0,
2091.0,2081.0,64.0,-2.0,
2087.0,2107.0,64.0,-2.0,
2089.0,2103.0,64.0,-2.0,
2091.0,2100.0,64.0,-2.0,
2087.0,2064.0,64.0,-2.0,
2087.0,2069.0,64.0,-2.0,
2089.0,2084.0,64.0,-2.0,
2092.0,2117.0,64.0,-2.0,
2089.0,2168.0,64.0,-2.0,
2091.0,2195.0,64.0,-2.0,
2091.0,2196.0,64.0,-2.0,
2097.0,2119.0,64.0,-2.0,
2085.0,2027.0,64.0,-2.0,
2090.0,2027.0,64.0,-2.0,
2073.0,2087.0,65.0,-2.0,
2078.0,2092.0,65.0,-2.0,
2082.0,2097.0,65.0,-2.0,
2080.0,2125.0,65.0,-2.0,
2076.0,2167.0,65.0,-2.0,
2096.0,2138.0,65.0,-2.0,
2085.0,2123.0,65.0,-2.0,
2090.0,2113.0,65.0,-2.0,
2105.0,2105.0,65.0,-2.0,
2109.0,2127.0,65.0,-2.0,
2080.0,2102.0,65.0,-2.0,
2075.0,2084.0,65.0,-2.0,
2099.0,2098.0,65.0,-2.0,
2100.0,2089.0,65.0,-2.0,
2092.0,2115.0,65.0,-2.0,
2095.0,2095.0,65.0,-2.0,
2094.0,2082.0,65.0,-2.0,
2081.0,2090.0,65.0,-2.0,
2088.0,2136.0,65.0,-2.0,
2088.0,2179.0,65.0,-2.0,
2099.0,2128.0,65.0,-2.0,
2092.0,2009.0,65.0,-2.0,
2082.0,2132.0,65.0,-2.0,
2078.0,2148.0,65.0,-2.0,
2101.0,2105.0,65.0,-2.0,
2065.0,2096.0,65.0,-2.0,
2066.0,2046.0,65.0,-2.0,
2071.0,2067.0,65.0,-2.0,
2082.0,2114.0,65.0,-2.0,
2089.0,2128.0,65.0,-2.0,
2076.0,2150.0,65.0,-2.0,
2091.0,2168.0,65.0,-2.0,
2107.0,2102.0,65.0,-2.0,
2081.0,2087.0,64.0,-2.0,
2101.0,2108.0,64.0,-2.0,
2081.0,2123.0,64.0,-2.0,
2066.0,2064.0,64.0,-2.0,
2076.0,2121.0,64.0,-2.0,
2085.0,2132.0,64.0,-2.0,
2094.0,2123.0,64.0,-2.0,
2079.0,2115.0,64.0,-2.0,
2085.0,2113.0,64.0,-2.0,
2076.0,2108.0,64.0,-2.0,
2098.0,2104.0,64.0,-2.0,
2090.0,2104.0,64.0,-2.0,
2089.0,2119.0,64.0,-2.0,
2069.0,2122.0,64.0,-2.0,
2072.0,2142.0,64.0,-2.0,
2092.0,2163.0,64.0,-2.0,
2082.0,2134.0,64.0,-2.0,
2081.0,2087.0,64.0,-2.0,
2076.0,1956.0,64.0,-2.0,
2077.0,2041.0,64.0,-2.0,
2078.0,2099.0,64.0,-2.0,
2080.0,2098.0,64.0,-2.0,
2090.0,2120.0,64.0,-2.0,
2100.0,2134.0,64.0,-2.0,
2101.0,2158.0,64.0,-2.0,
2103.0,2142.0,65.0,-2.0,
2083.0,2134.0,65.0,-2.0,
2095.0,2111.0,65.0,-2.0,
2066.0,2096.0,65.0,-2.0,
2102.0,2053.0,65.0,-2.0,
2080.0,2120.0,65.0,-2.0,
2086.0,2096.0,65.0,-2.0,
2089.0,2109.0,65.0,-2.0,
2091.0,2104.0,65.0,-2.0,
2091.0,2117.0,65.0,-2.0,
2082.0,2166.0,65.0,-2.0,
2084.0,2144.0,65.0,-2.0,
2085.0,2091.0,65.0,-2.0,
2083.0,2099.0,65.0,-2.0,
2090.0,2104.0,65.0,-2.0,
2104.0,2093.0,65.0,-2.0,
2093.0,2108.0,65.0,-2.0,
2113.0,2193.0,65.0,-2.0,
2121.0,2115.0,65.0,-2.0,
2063.0,1989.0,66.0,-2.0,
2073.0,2070.0,66.0,-2.0,
2073.0,2063.0,66.0,-2.0,
2094.0,2103.0,66.0,-2.0,
2073.0,2093.0,65.0,-2.0,
2093.0,2132.0,66.0,-2.0,
2083.0,2115.0,65.0,-2.0,
2082.0,2129.0,65.0,-2.0,
2105.0,2146.0,65.0,-2.0,
2088.0,2106.0,65.0,-2.0,
2069.0,2069.0,65.0,-2.0,
2066.0,2098.0,65.0,-2.0,
2088.0,2122.0,65.0,-2.0,
2080.0,2128.0,65.0,-2.0,
2108.0,2147.0,65.0,-2.0,
2101.0,2099.0,65.0,-2.0,
2073.0,2111.0,65.0,-2.0,
2076.0,2123.0,65.0,-2.0,
2085.0,2119.0,65.0,-2.0,
2084.0,2097.0,65.0,-2.0,
2083.0,2106.0,65.0,-2.0,
2083.0,2119.0,65.0,-2.0,
2088.0,2125.0,65.0,-2.0,
2078.0,2131.0,64.0,-2.0,
2080.0,2118.0,64.0,-2.0,
2089.0,2118.0,64.0,-2.0,
2089.0,2096.0,65.0,-2.0,
2081.0,2113.0,64.0,-2.0,
2086.0,2106.0,65.0,-2.0,
2100.0,2122.0,65.0,-2.0,
2099.0,2129.0,65.0,-2.0,
2088.0,2164.0,65.0,-2.0,
2090.0,2121.0,65.0,-2.0,
2092.0,2136.0,65.0,-2.0,
2098.0,2097.0,65.0,-2.0,
2083.0,2026.0,65.0,-2.0,
2076.0,2080.0,65.0,-2.0,
2080.0,2117.0,65.0,-2.0,
2071.0,2119.0,65.0,-2.0,
2073.0,2124.0,64.0,-2.0,
2066.0,2121.0,64.0,-2.0,
2112.0,2139.0,64.0,-2.0,
2095.0,2129.0,64.0,-2.0,
2091.0,2098.0,64.0,-2.0,
2082.0,2090.0,64.0,-2.0,
2083.0,2099.0,64.0,-2.0,
2093.0,2105.0,64.0,-2.0,
2082.0,2129.0,64.0,-2.0,
2108.0,2136.0,65.0,-2.0,
2109.0,2127.0,65.0,-2.0,
2106.0,2136.0,65.0,-2.0,
2112.0,2116.0,65.0,-2.0,
2080.0,2085.0,65.0,-2.0,
2100.0,2089.0,65.0,-2.0,
2081.0,2085.0,65.0,-2.0,
2092.0,2083.0,65.0,-2.0,
2086.0,2117.0,65.0,-2.0,
2100.0,2124.0,65.0,-2.0,
2091.0,2187.0,65.0,-2.0,
2110.0,2018.0,65.0,-2.0,
2087.0,2097.0,65.0,-2.0,
2079.0,2100.0,65.0,-2.0,
2087.0,2120.0,65.0,-2.0,
2091.0,2098.0,65.0,-2.0,
2079.0,2098.0,65.0,-2.0,
2092.0,2102.0,65.0,-2.0,
2097.0,2107.0,65.0,-2.0,
2097.0,2159.0,65.0,-2.0,
2094.0,2090.0,65.0,-2.0,
2096.0,2090.0,65.0,-2.0,
2087.0,2089.0,65.0,-2.0,
2071.0,2090.0,65.0,-2.0,
2074.0,2072.0,65.0,-2.0,
2070.0,2099.0,65.0,-2.0,
2080.0,2113.0,65.0,-2.0,
2094.0,2113.0,65.0,-2.0,
2087.0,2116.0,65.0,-2.0,
2089.0,2123.0,65.0,-2.0,
2081.0,2144.0,65.0,-2.0,
2082.0,2120.0,65.0,-2.0,
2074.0,2112.0,65.0,-2.0,
2062.0,2091.0,65.0,-2.0,
2066.0,2093.0,65.0,-2.0,
2074.0,2127.0,65.0,-2.0,
2093.0,2111.0,65.0,-2.0,
2089.0,2146.0,65.0,-2.0,
2092.0,2127.0,65.0,-2.0,
2088.0,2104.0,65.0,-2.0,
2077.0,2104.0,65.0,-2.0,
2084.0,2125.0,65.0,-2.0,
2111.0,2097.0,65.0,-2.0,
2092.0,2109.0,65.0,-2.0,
2083.0,2136.0,65.0,-2.0,
2079.0,2115.0,65.0,-2.0,
2091.0,2136.0,65.0,-2.0,
2095.0,2107.0,65.0,-2.0,
2070.0,2037.0,65.0,-2.0,
2063.0,2116.0,65.0,-2.0,
2078.0,2100.0,65.0,-2.0,
2081.0,2110.0,65.0,-2.0,
2091.0,2118.0,65.0,-2.0,
2099.0,2125.0,65.0,-2.0,
2077.0,2111.0,64.0,-2.0,
2093.0,2143.0,64.0,-2.0,
2103.0,2123.0,65.0,-2.0,
2079.0,2085.0,65.0,-2.0,
2081.0,2059.0,65.0,-2.0,
2086.0,2127.0,65.0,-2.0,
2081.0,2208.0,65.0,-2.0,
2096.0,2023.0,65.0,-2.0,
2089.0,2067.0,65.0,-2.0,
2097.0,2112.0,65.0,-2.0,
2075.0,2109.0,65.0,-2.0,
2098.0,2103.0,65.0,-2.0,
2090.0,2102.0,65.0,-2.0,
2103.0,2103.0,65.0,-2.0,
2085.0,2110.0,65.0,-2.0,
2085.0,2131.0,65.0,-2.0,
2093.0,2138.0,65.0,-2.0,
2096.0,2167.0,65.0,-2.0,
2108.0,2121.0,65.0,-2.0,
2102.0,2077.0,65.0,-2.0,
2093.0,2084.0,65.0,-2.0,
2076.0,2102.0,65.0,-2.0,
2070.0,2038.0,65.0,-2.0,
2077.0,2079.0,65.0,-2.0,
2094.0,2076.0,65.0,-2.0,
2095.0,2088.0,65.0,-2.0,
2083.0,2111.0,65.0,-2.0,
2087.0,2142.0,65.0,-2.0,
2094.0,2144.0,65.0,-2.0,
2095.0,2154.0,65.0,-2.0,
2083.0,2077.0,65.0,-2.0,
2086.0,2076.0,65.0,-2.0,
2066.0,2158.0,65.0,-2.0,
2066.0,2108.0,65.0,-2.0,
2102.0,2123.0,65.0,-2.0,
2101.0,2102.0,65.0,-1.0,
2097.0,2123.0,65.0,-2.0,
2090.0,2140.0,65.0,-2.0,
2074.0,2094.0,65.0,-2.0,
2065.0,2099.0,65.0,-2.0,
2066.0,2057.0,65.0,-2.0,
2062.0,2110.0,0,
2074.0,2180.0,65.0,-2.0,
2107.0,2086.0,65.0,-2.0,
2079.0,2137.0,65.0,-2.0,
2110.0,2142.0,65.0,-3.0,
2082.0,2124.0,65.0,-2.0,
2070.0,1967.0,65.0,-2.0,
2067.0,2042.0,65.0,-2.0,
2101.0,2118.0,65.0,-2.0,
2084.0,2127.0,65.0,-2.0,
2083.0,2101.0,65.0,-2.0,
2099.0,2140.0,65.0,-2.0,
2090.0,2119.0,65.0,-2.0,
2101.0,2123.0,64.0,-2.0,
2097.0,2160.0,64.0,-2.0,
2092.0,2116.0,64.0,-2.0,
2066.0,2096.0,64.0,-2.0,
2058.0,2083.0,64.0,-2.0,
2081.0,2100.0,64.0,-2.0,
2097.0,2171.0,64.0,-2.0,
2096.0,2098.0,64.0,-2.0,
2087.0,2095.0,64.0,-2.0,
2074.0,2070.0,64.0,-2.0,
2074.0,2100.0,64.0,-2.0,
2087.0,2132.0,64.0,-2.0,
2088.0,2147.0,64.0,-2.0,
2098.0,2083.0,64.0,-2.0,
2077.0,2124.0,64.0,-2.0,
2103.0,2126.0,64.0,-2.0,
2086.0,2119.0,64.0,-2.0,
2094.0,2129.0,64.0,-1.0,
2082.0,2117.0,64.0,-2.0,
2084.0,2111.0,64.0,-2.0,
2087.0,2115.0,65.0,-2.0,
2083.0,2070.0,65.0,-2.0,
2074.0,2058.0,65.0,-2.0,
2091.0,2104.0,65.0,-2.0,
2095.0,2105.0,65.0,-2.0,
2087.0,2116.0,65.0,-2.0,
2089.0,2126.0,65.0,-3.0,
2091.0,2125.0,65.0,-3.0,
2078.0,2053.0,65.0,-2.0,
2069.0,2104.0,65.0,-2.0,
2070.0,2124.0,65.0,-2.0,
2082.0,2140.0,65.0,-2.0,
2092.0,2138.0,65.0,-2.0,
2091.0,2108.0,65.0,-2.0,
2085.0,2080.0,65.0,-2.0,
2110.0,2094.0,65.0,-2.0,
2084.0,2126.0,65.0,-2.0,
2098.0,2116.0,65.0,-2.0,
2077.0,2112.0,65.0,-2.0,
2091.0,2126.0,66.0,-2.0,
2099.0,2129.0,66.0,-2.0,
2106.0,2152.0,66.0,-2.0,
2106.0,2094.0,66.0,-2.0,
2103.0,2107.0,66.0,-2.0,
2115.0,2127.0,66.0,-2.0,
2096.0,2055.0,66.0,-2.0,
2093.0,2098.0,66.0,-2.0,
2061.0,2099.0,66.0,-2.0,
2082.0,2058.0,66.0,-2.0,
2090.0,2110.0,66.0,-2.0,
2085.0,2112.0,66.0,-2.0,
2067.0,2119.0,66.0,-2.0,
2076.0,2112.0,66.0,-2.0,
2098.0,2152.0,66.0,-2.0,
2095.0,2117.0,65.0,-2.0,
2084.0,2104.0,65.0,-2.0,
2090.0,2109.0,65.0,-2.0,
2091.0,2119.0,65.0,-2.0,
2093.0,2144.0,65.0,-2.0,
2107.0,2103.0,65.0,-2.0,
2106.0,2109.0,65.0,-2.0,
2093.0,2121.0,65.0,-2.0,
2093.0,2111.0,65.0,-2.0,
2095.0,2036.0,65.0,-2.0,
2085.0,2127.0,65.0,-2.0,
2096.0,2135.0,65.0,-2.0,
2122.0,2140.0,65.0,-2.0,
2082.0,2097.0,65.0,-2.0,
2071.0,2044.0,65.0,-2.0,
2098.0,2078.0,65.0,-2.0,
2072.0,2117.0,64.0,-2.0,
2072.0,2117.0,65.0,-2.0,
2080.0,2103.0,64.0,-2.0,
2098.0,2077.0,64.0,-2.0,
2097.0,2117.0,64.0,-2.0,
2097.0,2116.0,64.0,-2.0,
2080.0,2106.0,64.0,-2.0,
2104.0,2070.0,64.0,-2.0,
2106.0,2103.0,64.0,-2.0,
2088.0,2105.0,64.0,-2.0,
2078.0,2102.0,64.0,-2.0,
2092.0,2114.0,64.0,-2.0,
2093.0,2136.0,64.0,-2.0,
2098.0,2103.0,64.0,-2.0,
2083.0,2114.0,64.0,-2.0,
2086.0,2119.0,64.0,-2.0,
2102.0,2111.0,64.0,-2.0,
2088.0,2110.0,64.0,-2.0,
2095.0,2099.0,64.0,-2.0,
2078.0,2109.0,64.0,-2.0,
2109.0,2117.0,64.0,-2.0,
2086.0,2153.0,65.0,-2.0,
2078.0,2129.0,65.0,-2.0,
2087.0,2120.0,65.0,-2.0,
2083.0,2110.0,65.0,-2.0,
2057.0,2111.0,65.0,-2.0,
2084.0,2099.0,65.0,-2.0,
2081.0,2106.0,65.0,-2.0,
2072.0,2108.0,65.0,-2.0,
2076.0,2119.0,65.0,-2.0,
2088.0,2125.0,65.0,-2.0,
2073.0,2131.0,65.0,-2.0,
2087.0,2123.0,65.0,-2.0,
2068.0,2133.0,65.0,-2.0,
2069.0,2110.0,65.0,-2.0,
2066.0,2105.0,65.0,-2.0,
2070.0,2124.0,65.0,-2.0,
2074.0,2130.0,65.0,-2.0,
2077.0,2133.0,65.0,-2.0,
2072.0,2141.0,65.0,-2.0,
2085.0,2099.0,65.0,-2.0,
2087.0,2085.0,66.0,-2.0,
2077.0,2094.0,65.0,-2.0,
2090.0,2058.0,65.0,-2.0,
2085.0,2092.0,65.0,-2.0,
2092.0,2103.0,65.0,-2.0,
2075.0,2110.0,65.0,-2.0,
2083.0,2122.0,65.0,-2.0,
2082.0,2122.0,65.0,-2.0,
2086.0,2126.0,65.0,-2.0,
2082.0,2124.0,65.0,-2.0,
2093.0,2098.0,65.0,-2.0,
2092.0,2100.0,65.0,-2.0,
2081.0,2099.0,65.0,-2.0,
2075.0,2103.0,65.0,-2.0,
2077.0,2122.0,65.0,-2.0,
2085.0,2133.0,65.0,-2.0,
2098.0,2102.0,65.0,-2.0,
2091.0,2115.0,65.0,-2.0,
2105.0,2114.0,65.0,-2.0,
2095.0,2116.0,65.0,-2.0,
2086.0,2079.0,65.0,-2.0,
2084.0,2103.0,65.0,-2.0,
2092.0,2103.0,65.0,-2.0,
2083.0,2117.0,65.0,-2.0,
2080.0,2124.0,65.0,-2.0,
2088.0,2129.0,65.0,-2.0,
2113.0,2131.0,65.0,-2.0,
2099.0,2126.0,65.0,-2.0,
2101.0,2114.0,65.0,-2.0,
2080.0,2102.0,65.0,-2.0,
2076.0,2121.0,65.0,-2.0,
2086.0,2112.0,65.0,-2.0,
2077.0,2113.0,65.0,-2.0,
2099.0,2145.0,65.0,-2.0,
2101.0,2130.0,65.0,-2.0,
2079.0,2073.0,65.0,-2.0,
2078.0,2113.0,65.0,-2.0,
2099.0,2107.0,65.0,-2.0,
2087.0,2105.0,65.0,-2.0,
2074.0,2106.0,65.0,-2.0,
2077.0,2049.0,65.0,-2.0,
2107.0,2135.0,65.0,-2.0,
2113.0,2115.0,65.0,-2.0,
2096.0,2118.0,65.0,-2.0,
2098.0,2125.0,65.0,-2.0,
2089.0,2088.0,65.0,-2.0,
2086.0,2083.0,65.0,-2.0,
2074.0,2093.0,65.0,-2.0,
2080.0,2091.0,65.0,-2.0,
2084.0,2113.0,65.0,-2.0,
2087.0,2117.0,65.0,-2.0,
2098.0,2136.0,65.0,-2.0,
2103.0,2100.0,65.0,-2.0,
2078.0,2108.0,65.0,-2.0,
2075.0,2085.0,65.0,-2.0,
2075.0,2091.0,65.0,-2.0,
2087.0,2094.0,65.0,-2.0,
2072.0,2091.0,65.0,-2.0,
2075.0,2117.0,65.0,-2.0,
2066.0,2136.0,65.0,-2.0,
2084.0,2126.0,65.0,-2.0,
2094.0,2145.0,64.0,-2.0,
2101.0,2109.0,64.0,-2.0,
2091.0,2091.0,64.0,-2.0,
2082.0,2107.0,64.0,-2.0,
2077.0,2104.0,64.0,-2.0,
2094.0,2109.0,64.0,-2.0,
2066.0,2153.0,64.0,-2.0,
2083.0,2132.0,64.0,-2.0,
2079.0,2090.0,64.0,-2.0,
2086.0,2078.0,64.0,-2.0,
2088.0,2100.0,64.0,-2.0,
2087.0,2110.0,64.0,-2.0,
2086.0,2103.0,64.0,-2.0,
2085.0,2126.0,63.0,-2.0,
2082.0,2121.0,63.0,-2.0,
2092.0,2136.0,63.0,-2.0,
2084.0,2140.0,63.0,-2.0,
2085.0,2127.0,63.0,-2.0,
2096.0,2121.0,63.0,-2.0,
2101.0,2107.0,63.0,-2.0,
2092.0,2099.0,63.0,-2.0,
2075.0,2091.0,63.0,-2.0,
2081.0,2111.0,63.0,-2.0,
2070.0,2113.0,63.0,-2.0,
2103.0,2129.0,63.0,-2.0,
2094.0,2151.0,63.0,-2.0,
2104.0,2106.0,63.0,-2.0,
2102.0,2113.0,63.0,-2.0,
2087.0,2107.0,63.0,-2.0,
2094.0,2085.0,63.0,-2.0,
2083.0,2090.0,63.0,-2.0,
2083.0,2095.0,63.0,-2.0,
2077.0,2109.0,64.0,-2.0,
2087.0,2117.0,64.0,-2.0,
2094.0,2124.0,64.0,-2.0,
2080.0,2113.0,64.0,-2.0,
2082.0,2093.0,64.0,-2.0,
2091.0,2096.0,64.0,-2.0,
2085.0,2100.0,64.0,-2.0,
2084.0,2105.0,64.0,-2.0,
2092.0,2115.0,64.0,-2.0,
2092.0,2121.0,64.0,-2.0,
2095.0,2120.0,64.0,-2.0,
2086.0,2116.0,64.0,-2.0,
2123.0,2114.0,64.0,-2.0,
2092.0,2107.0,64.0,-2.0,
2076.0,2095.0,64.0,-2.0,
2070.0,2091.0,65.0,-2.0,
2082.0,2106.0,65.0,-2.0,
2086.0,2106.0,65.0,-2.0,
2091.0,2113.0,65.0,-2.0,
2098.0,2123.0,65.0,-2.0,
2088.0,2108.0,65.0,-2.0,
2087.0,2113.0,65.0,-2.0,
2082.0,2106.0,65.0,-2.0,
2092.0,2055.0,65.0,-2.0,
2074.0,2108.0,65.0,-2.0,
2073.0,2126.0,65.0,-2.0,
2085.0,2108.0,65.0,-2.0,
2089.0,2082.0,65.0,-2.0,
2075.0,2144.0,65.0,-2.0,
2078.0,2108.0,65.0,-2.0,
2067.0,2102.0,65.0,-2.0,
2093.0,2098.0,65.0,-2.0,
2098.0,2096.0,65.0,-2.0,
2091.0,2225.0,65.0,-2.0,
2096.0,2029.0,65.0,-2.0,
2066.0,2007.0,64.0,-2.0,
2078.0,2087.0,64.0,-2.0,
2096.0,2108.0,64.0,-2.0,
2089.0,2111.0,64.0,-2.0,
2094.0,2096.0,64.0,-2.0,
2093.0,2108.0,64.0,-2.0,
2095.0,2102.0,64.0,-2.0,
2099.0,2113.0,63.0,-2.0,
2099.0,2120.0,63.0,-2.0,
2099.0,2129.0,63.0,-2.0,
2084.0,2132.0,63.0,-2.0,
2083.0,2123.0,63.0,-2.0,
2083.0,2117.0,63.0,-2.0,
2095.0,2103.0,62.0,-2.0,
2067.0,2111.0,62.0,-2.0,
2074.0,2102.0,62.0,-2.0,
2074.0,2126.0,62.0,-2.0,
2075.0,2128.0,62.0,-2.0,
2087.0,2119.0,62.0,-2.0,
2070.0,2131.0,62.0,-2.0,
2078.0,2095.0,62.0,-2.0,
2095.0,2114.0,62.0,-2.0,
2077.0,2102.0,62.0,-2.0,
2083.0,2100.0,62.0,-2.0,
2076.0,2101.0,62.0,-2.0,
2081.0,2108.0,62.0,-2.0,
2079.0,2126.0,62.0,-2.0,
2097.0,2130.0,63.0,-2.0,
2088.0,2124.0,63.0,-2.0,
2088.0,2113.0,63.0,-2.0,
2081.0,2105.0,63.0,-2.0,
2070.0,2095.0,63.0,-2.0,
2071.0,2096.0,63.0,-2.0,
2061.0,2093.0,63.0,-2.0,
2072.0,2101.0,63.0,-2.0,
2071.0,2111.0,64.0,-2.0,
2079.0,2122.0,64.0,-2.0,
2084.0,2115.0,64.0,-2.0,
2082.0,2110.0,64.0,-2.0,
2074.0,2101.0,64.0,-2.0,
2077.0,2152.0,0,
2089.0,2110.0,64.0,-2.0,
2085.0,2083.0,64.0,-2.0,
2077.0,2121.0,64.0,-2.0,
2093.0,2141.0,65.0,-2.0,
2088.0,2127.0,65.0,-2.0,
2084.0,2113.0,65.0,-2.0,
2089.0,2139.0,65.0,-2.0,
2086.0,2115.0,65.0,-2.0,
2084.0,2049.0,65.0,-2.0,
2079.0,2085.0,65.0,-2.0,
2069.0,2098.0,65.0,-2.0,
2076.0,2116.0,65.0,-2.0,
2080.0,2131.0,65.0,-2.0,
2093.0,2115.0,65.0,-2.0,
2098.0,2112.0,65.0,-2.0,
2086.0,2107.0,65.0,-2.0,
2082.0,2108.0,65.0,-2.0,
2084.0,2097.0,65.0,-2.0,
2075.0,2107.0,65.0,-2.0,
2099.0,2154.0,65.0,-2.0,
2093.0,2068.0,65.0,-2.0,
2083.0,2157.0,65.0,-2.0,
2091.0,2098.0,65.0,-2.0,
2078.0,2076.0,65.0,-2.0,
2087.0,2102.0,65.0,-2.0,
2072.0,2088.0,65.0,-2.0,
2075.0,2090.0,65.0,-2.0,
2079.0,2148.0,65.0,-2.0,
2096.0,2201.0,64.0,-2.0,
2097.0,2045.0,64.0,-2.0,
2077.0,2067.0,0,
2093.0,2081.0,64.0,-2.0,
2084.0,2116.0,64.0,-2.0,
2079.0,2113.0,64.0,-2.0,
2085.0,2092.0,64.0,-2.0,
2080.0,2101.0,64.0,-2.0,
2075.0,2104.0,64.0,-2.0,
2076.0,2114.0,64.0,-2.0,
2076.0,2142.0,64.0,-2.0,
2079.0,2132.0,64.0,-2.0,
2104.0,2131.0,64.0,-2.0,
2098.0,2113.0,64.0,-2.0,
2090.0,2108.0,64.0,-2.0,
2071.0,2103.0,64.0,-2.0,
2081.0,2110.0,64.0,-2.0,
2083.0,2117.0,63.0,-2.0,
2086.0,2131.0,63.0,-2.0,
2085.0,2130.0,63.0,-2.0,
2086.0,2129.0,63.0,-2.0,
2092.0,2113.0,63.0,-2.0,
2091.0,2113.0,63.0,-2.0,
2095.0,2093.0,63.0,-2.0,
2088.0,2104.0,63.0,-2.0,
2092.0,2096.0,63.0,-2.0,
2078.0,2108.0,64.0,-2.0,
2090.0,2066.0,64.0,-2.0,
2083.0,2125.0,64.0,-2.0,
2097.0,2117.0,64.0,-2.0,
2095.0,2109.0,64.0,-2.0,
2092.0,2104.0,64.0,-2.0,
2091.0,2105.0,64.0,-2.0,
2085.0,2124.0,64.0,-2.0,
2075.0,2112.0,64.0,-2.0,
2089.0,2138.0,64.0,-2.0,
2084.0,2142.0,64.0,-2.0,
2084.0,2102.0,64.0,-2.0,
2084.0,2094.0,64.0,-2.0,
2086.0,2107.0,64.0,-2.0,
2084.0,2097.0,64.0,-2.0,
2064.0,2085.0,64.0,-2.0,
2079.0,2097.0,64.0,-2.0,
2075.0,2119.0,64.0,-2.0,
2083.0,2132.0,64.0,-2.0,
2080.0,2137.0,64.0,-2.0,
2092.0,2127.0,64.0,-2.0,
2082.0,2117.0,64.0,-2.0,
2090.0,2120.0,64.0,-2.0,
2071.0,2080.0,64.0,-2.0,
2071.0,2104.0,64.0,-2.0,
2085.0,2115.0,64.0,-2.0,
2068.0,2127.0,64.0,-2.0,
2072.0,2141.0,64.0,-2.0,
2079.0,2100.0,64.0,-2.0,
2082.0,2111.0,64.0,-2.0,
2086.0,2094.0,64.0,-2.0,
2100.0,2125.0,64.0,-2.0,
2092.0,2103.0,64.0,-2.0,
2084.0,2086.0,64.0,-2.0,
2091.0,2107.0,64.0,-2.0,
2076.0,2144.0,64.0,-2.0,
2064.0,2112.0,64.0,-2.0,
2092.0,2124.0,64.0,-2.0,
2089.0,2107.0,64.0,-2.0,
2077.0,2100.0,64.0,-2.0,
2076.0,2137.0,64.0,-2.0,
2092.0,2125.0,64.0,-2.0,
2096.0,2042.0,64.0,-2.0,
2066.0,2078.0,64.0,-2.0,
2059.0,2125.0,64.0,-2.0,
2081.0,2061.0,64.0,-2.0,
2080.0,2110.0,64.0,-2.0,
2092.0,2124.0,64.0,-2.0,
2064.0,2086.0,64.0,-2.0,
2076.0,2039.0,64.0,-2.0,
2087.0,2097.0,64.0,-2.0,
2079.0,2100.0,64.0,-2.0,
2091.0,2118.0,64.0,-2.0,
2083.0,2152.0,64.0,-2.0,
2074.0,2135.0,64.0,-2.0,
2087.0,2132.0,64.0,-2.0,
2096.0,2133.0,64.0,-2.0,
2082.0,2116.0,64.0,-2.0,
2095.0,2121.0,64.0,-2.0,
2084.0,2102.0,64.0,-2.0,
2090.0,2115.0,64.0,-2.0,
2090.0,2118.0,64.0,-2.0,
2097.0,2120.0,64.0,-2.0,
2082.0,2138.0,64.0,-2.0,
2088.0,2126.0,64.0,-2.0,
2092.0,2117.0,64.0,-2.0,
2092.0,2132.0,64.0,-2.0,
2091.0,2098.0,64.0,-2.0,
2070.0,2080.0,64.0,-2.0,
2076.0,2101.0,64.0,-2.0,
2093.0,2114.0,64.0,-2.0,
2083.0,2116.0,64.0,-2.0,
2093.0,2108.0,64.0,-2.0,
2095.0,2078.0,64.0,-2.0,
2098.0,2120.0,64.0,-2.0,
2092.0,2041.0,64.0,-2.0,
2075.0,2091.0,64.0,-2.0,
2070.0,2106.0,64.0,-2.0,
2091.0,2125.0,64.0,-2.0,
2076.0,2108.0,64.0,-2.0,
2075.0,2075.0,64.0,-2.0,
2082.0,2112.0,64.0,-2.0,
2091.0,2130.0,64.0,-2.0,
2092.0,2137.0,64.0,-2.0,
2085.0,2129.0,64.0,-2.0,
2069.0,2030.0,64.0,-2.0,
2068.0,2091.0,64.0,-2.0,
2075.0,2114.0,64.0,-2.0,
2083.0,2131.0,64.0,-2.0,
2092.0,2152.0,64.0,-2.0,
2102.0,2161.0,64.0,-2.0,
2082.0,2071.0,64.0,-2.0,
2073.0,2097.0,64.0,-2.0,
2086.0,2094.0,64.0,-2.0,
2081.0,2099.0,64.0,-2.0,
2087.0,2112.0,64.0,-2.0,
2092.0,2159.0,64.0,-2.0,
2104.0,2102.0,64.0,-2.0,
2081.0,2085.0,64.0,-2.0,
2102.0,2115.0,64.0,-2.0,
2111.0,2245.0,64.0,-2.0,
2119.0,2067.0,64.0,-2.0,
2048.0,1997.0,64.0,-2.0,
2079.0,2068.0,64.0,-2.0,
2096.0,2094.0,64.0,-2.0,
2080.0,2126.0,64.0,-2.0,
2090.0,2210.0,64.0,-2.0,
2094.0,2089.0,64.0,-2.0,
2068.0,2114.0,64.0,-2.0,
2088.0,2182.0,64.0,-2.0,
2127.0,2069.0,64.0,-2.0,
2074.0,2039.0,64.0,-2.0,
2082.0,2066.0,63.0,-2.0,
2073.0,2149.0,63.0,-2.0,
2104.0,2075.0,63.0,-2.0,
2091.0,2205.0,63.0,-2.0,
2094.0,2096.0,63.0,-2.0,
2080.0,2029.0,63.0,-2.0,
2078.0,2084.0,63.0,-2.0,
2098.0,2131.0,63.0,-2.0,
2092.0,2104.0,63.0,-2.0,
2070.0,2092.0,63.0,-2.0,
2068.0,2126.0,63.0,-2.0,
2071.0,2166.0,63.0,-2.0,
2088.0,2170.0,62.0,-2.0,
2071.0,2161.0,62.0,-2.0,
2075.0,2150.0,62.0,-2.0,
2075.0,2039.0,62.0,-2.0,
2091.0,2017.0,62.0,-2.0,
2081.0,2200.0,62.0,-2.0,
2106.0,2133.0,62.0,-2.0,
2064.0,2018.0,62.0,-2.0,
2045.0,2140.0,62.0,-2.0,
2053.0,2237.0,62.0,-2.0,
2119.0,2142.0,62.0,-2.0,
2089.0,2064.0,62.0,-2.0,
2065.0,2032.0,62.0,-2.0,
2090.0,2036.0,62.0,-2.0,
2150.0,2144.0,62.0,-2.0,
2140.0,2249.0,62.0,-2.0,
2099.0,2060.0,62.0,-2.0,
2079.0,1926.0,62.0,-2.0,
2154.0,2106.0,63.0,-2.0,
2085.0,2126.0,63.0,-2.0,
2103.0,2196.0,63.0,-2.0,
2108.0,2132.0,63.0,-2.0,
2085.0,2090.0,63.0,-2.0,
2072.0,2083.0,63.0,-2.0,
2031.0,2141.0,63.0,-2.0,
2075.0,2148.0,63.0,-2.0,
2098.0,2036.0,63.0,-2.0,
2069.0,2089.0,63.0,-2.0,
2065.0,2027.0,63.0,-2.0,
2080.0,2064.0,63.0,-2.0,
2077.0,2006.0,63.0,-2.0,
2089.0,2080.0,63.0,-2.0,
2081.0,2183.0,63.0,-2.0,
2090.0,2180.0,63.0,-2.0,
2093.0,2245.0,63.0,-2.0,
2072.0,2148.0,62.0,-2.0,
2022.0,2180.0,62.0,-2.0,
2061.0,2144.0,62.0,-2.0,
2026.0,2118.0,62.0,-3.0,
2091.0,2023.0,62.0,-3.0,
2113.0,2135.0,62.0,-3.0,
2078.0,2130.0,62.0,-3.0,
2068.0,2094.0,62.0,-3.0,
2037.0,2128.0,62.0,-3.0,
2082.0,2033.0,62.0,-3.0,
2078.0,2074.0,62.0,-3.0,
2137.0,2171.0,62.0,-3.0,
2109.0,2040.0,62.0,-3.0,
2044.0,2086.0,62.0,-3.0,
2102.0,2134.0,62.0,-2.0,
2159.0,2062.0,62.0,-2.0,
2138.0,2112.0,62.0,-2.0,
2156.0,2086.0,62.0,-2.0,
2119.0,2170.0,63.0,-2.0,
2114.0,2145.0,63.0,-2.0,
2091.0,2388.0,63.0,-2.0,
2149.0,2406.0,63.0,-2.0,
2093.0,2118.0,64.0,-2.0,
2066.0,1900.0,64.0,-2.0,
2092.0,1767.0,64.0,-2.0,
2012.0,2004.0,65.0,-2.0,
2038.0,2089.0,65.0,-2.0,
2070.0,2208.0,65.0,-2.0,
2061.0,2209.0,65.0,-2.0,
2007.0,2099.0,66.0,-3.0,
2033.0,2044.0,66.0,-3.0,
2125.0,2135.0,66.0,-3.0,
2088.0,2056.0,66.0,-3.0,
2094.0,1871.0,67.0,-3.0,
2087.0,2116.0,67.0,-3.0,
2080.0,2235.0,67.0,-3.0,
2088.0,1994.0,67.0,-3.0,
2030.0,2137.0,67.0,-3.0,
2041.0,2310.0,68.0,-3.0,
2053.0,2207.0,68.0,-3.0,
1999.0,1989.0,68.0,-3.0,
2083.0,2069.0,68.0,-3.0,
2154.0,2193.0,69.0,-3.0,
2127.0,2180.0,69.0,-3.0,
2055.0,2004.0,69.0,-3.0,
2161.0,2103.0,69.0,-3.0,
2122.0,2191.0,69.0,-3.0,
2121.0,2005.0,69.0,-3.0,
2120.0,1965.0,70.0,-3.0,
2147.0,2090.0,70.0,-3.0,
2119.0,2208.0,70.0,-3.0,
2102.0,2223.0,70.0,-3.0,
2055.0,2156.0,70.0,-3.0,
2040.0,2206.0,70.0,-3.0,
2094.0,2062.0,70.0,-3.0,
2112.0,2051.0,70.0,-3.0,
2048.0,2107.0,71.0,-3.0,
2074.0,2088.0,71.0,-3.0,
2109.0,2083.0,71.0,-3.0,
2102.0,2152.0,71.0,-3.0,
2093.0,2112.0,71.0,-3.0,
2079.0,2169.0,71.0,-3.0,
2102.0,2092.0,72.0,-3.0,
2078.0,2094.0,72.0,-3.0,
2082.0,2178.0,72.0,-3.0,
2079.0,2082.0,72.0,-3.0,
2073.0,2160.0,72.0,-3.0,
2068.0,2182.0,72.0,-3.0,
2060.0,2302.0,72.0,-3.0,
2057.0,2111.0,72.0,-3.0,
2105.0,2115.0,73.0,-3.0,
2027.0,2010.0,73.0,-3.0,
2041.0,1972.0,73.0,-3.0,
2040.0,2098.0,73.0,-3.0,
2073.0,2031.0,74.0,-3.0,
2064.0,2099.0,74.0,-3.0,
2121.0,2224.0,74.0,-3.0,
2098.0,2117.0,74.0,-3.0,
2048.0,2258.0,74.0,-3.0,
2104.0,2289.0,74.0,-3.0,
2109.0,2020.0,74.0,-4.0,
2114.0,1967.0,74.0,-3.0,
2124.0,2029.0,74.0,-3.0,
2074.0,2258.0,74.0,-3.0,
2088.0,2091.0,74.0,-3.0,
2120.0,2124.0,74.0,-3.0,
2073.0,2012.0,75.0,-3.0,
2053.0,1811.0,75.0,-3.0,
2100.0,2066.0,75.0,-3.0,
2024.0,1938.0,75.0,-3.0,
2097.0,2048.0,75.0,-3.0,
2114.0,2088.0,75.0,-3.0,
2094.0,2178.0,76.0,-3.0,
2016.0,2022.0,76.0,-4.0,
2138.0,2238.0,76.0,-4.0,
2122.0,2197.0,76.0,-4.0,
2012.0,2011.0,77.0,-4.0,
2082.0,2172.0,77.0,-4.0,
2111.0,2130.0,77.0,-4.0,
2125.0,2159.0,77.0,-4.0,
2093.0,2153.0,77.0,-4.0,
2087.0,2106.0,78.0,-4.0,
2099.0,2143.0,78.0,-4.0,
2090.0,2059.0,78.0,-4.0,
2054.0,2132.0,78.0,-4.0,
2141.0,2213.0,78.0,-4.0,
2140.0,2205.0,78.0,-4.0,
2119.0,1922.0,78.0,-4.0,
2080.0,2038.0,78.0,-4.0,
2065.0,2122.0,79.0,-4.0,
2055.0,2252.0,79.0,-4.0,
2078.0,2249.0,79.0,-4.0,
2059.0,2095.0,79.0,-4.0,
2061.0,2303.0,80.0,-4.0,
2096.0,2097.0,80.0,-4.0,
2044.0,1965.0,80.0,-5.0,
2090.0,2064.0,80.0,-5.0,
2140.0,2138.0,80.0,-4.0,
2080.0,2133.0,81.0,-4.0,
2089.0,2291.0,81.0,-4.0,
2089.0,2291.0,81.0,-4.0,
2072.0,1964.0,81.0,-4.0,
2113.0,1777.0,82.0,-4.0,
2080.0,1987.0,82.0,-4.0,
2116.0,1861.0,82.0,-4.0,
2044.0,1916.0,82.0,-4.0,
2074.0,2126.0,82.0,-4.0,
2106.0,2172.0,83.0,-5.0,
2095.0,2170.0,83.0,-5.0,
2073.0,2118.0,83.0,-5.0,
2108.0,2237.0,83.0,-5.0,
2145.0,2078.0,83.0,-5.0,
2116.0,2086.0,83.0,-5.0,
2111.0,2131.0,84.0,-5.0,
2037.0,2295.0,84.0,-5.0,
2039.0,2196.0,84.0,-5.0,
2106.0,2204.0,84.0,-5.0,
2140.0,2161.0,84.0,-5.0,
2065.0,2044.0,84.0,-5.0,
2107.0,2161.0,84.0,-5.0,
2113.0,2070.0,85.0,-5.0,
2051.0,2059.0,85.0,-5.0,
2068.0,2028.0,85.0,-5.0,
2100.0,2009.0,85.0,-5.0,
2111.0,2102.0,85.0,-5.0,
2112.0,2386.0,86.0,-5.0,
2039.0,2133.0,86.0,-5.0,
2060.0,2131.0,86.0,-5.0,
2032.0,1951.0,86.0,-5.0,
2136.0,2004.0,87.0,-5.0,
2137.0,1946.0,87.0,-5.0,
2064.0,2112.0,87.0,-5.0,
2059.0,2315.0,87.0,-5.0,
2045.0,2129.0,88.0,-5.0,
2091.0,1946.0,88.0,-5.0,
2136.0,2102.0,88.0,-5.0,
2051.0,2004.0,88.0,-5.0,
2086.0,2212.0,89.0,-5.0,
2074.0,2165.0,89.0,-5.0,
2087.0,1932.0,89.0,-5.0,
2090.0,2110.0,89.0,-6.0,
2087.0,2219.0,89.0,-6.0,
2099.0,2189.0,89.0,-6.0,
2102.0,2143.0,89.0,-6.0,
2085.0,2229.0,90.0,-6.0,
2090.0,1963.0,90.0,-6.0,
2107.0,2161.0,90.0,-6.0,
2026.0,2109.0,90.0,-6.0,
2077.0,2199.0,90.0,-6.0,
2118.0,2250.0,90.0,-6.0,
2114.0,2293.0,90.0,-7.0,
2102.0,2012.0,91.0,-7.0,
2030.0,1999.0,91.0,-7.0,
2084.0,2003.0,91.0,-6.0,
2077.0,1999.0,91.0,-6.0,
2141.0,2252.0,91.0,-7.0,
2141.0,2006.0,91.0,-7.0,
2029.0,2042.0,91.0,-7.0,
2099.0,2113.0,92.0,-7.0,
2017.0,2128.0,92.0,-7.0,
2089.0,2221.0,92.0,-6.0,
2158.0,2036.0,92.0,-6.0,
2090.0,1979.0,92.0,-7.0,
2107.0,1982.0,92.0,-7.0,
2126.0,2095.0,92.0,-7.0,
2063.0,2135.0,93.0,-7.0,
2089.0,2213.0,93.0,-7.0,
2084.0,2081.0,93.0,-7.0,
2037.0,2075.0,93.0,-7.0,
2119.0,2356.0,93.0,-7.0,
2113.0,2069.0,93.0,-7.0,
2096.0,1996.0,94.0,-7.0,
2088.0,2090.0,94.0,-7.0,
2051.0,2157.0,94.0,-7.0,
2082.0,1974.0,94.0,-7.0,
2103.0,2096.0,95.0,-7.0,
2107.0,2189.0,95.0,-7.0,
2103.0,2125.0,95.0,-7.0,
2050.0,2098.0,96.0,-7.0,
2101.0,2110.0,96.0,-7.0,
2096.0,2265.0,96.0,-7.0,
2129.0,2192.0,97.0,-7.0,
2026.0,2033.0,97.0,-8.0,
2119.0,2098.0,97.0,-7.0,
2133.0,2172.0,97.0,-7.0,
2050.0,2067.0,97.0,-7.0,
2070.0,2046.0,98.0,-7.0,
2053.0,2115.0,98.0,-7.0,
2099.0,2124.0,98.0,-8.0,
2070.0,1970.0,98.0,-8.0,
2035.0,1961.0,98.0,-7.0,
2057.0,2264.0,98.0,-7.0,
2116.0,2519.0,99.0,-7.0,
2084.0,2254.0,99.0,-7.0,
2042.0,2056.0,99.0,-7.0,
2063.0,1893.0,99.0,-7.0,
2089.0,2076.0,100.0,-8.0,
2055.0,1987.0,100.0,-8.0,
2105.0,1996.0,100.0,-8.0,
2071.0,2006.0,101.0,-8.0,
2091.0,2129.0,101.0,-8.0,
2121.0,2026.0,101.0,-8.0,
2126.0,2179.0,101.0,-8.0,
2081.0,2059.0,102.0,-8.0,
2093.0,2171.0,102.0,-8.0,
2111.0,2113.0,102.0,-8.0,
2071.0,2189.0,102.0,-8.0,
2109.0,2106.0,102.0,-8.0,
2104.0,2316.0,102.0,-8.0,
2161.0,1850.0,102.0,-9.0,
2106.0,2015.0,102.0,-9.0,
2068.0,2139.0,102.0,-9.0,
2071.0,2242.0,102.0,-8.0,
2074.0,2162.0,103.0,-9.0,
2102.0,2205.0,103.0,-9.0,
2033.0,2071.0,103.0,-9.0,
2057.0,1947.0,103.0,-9.0,
2127.0,2217.0,103.0,-9.0,
2118.0,2252.0,104.0,-9.0,
2064.0,1913.0,104.0,-9.0,
2034.0,2054.0,104.0,-8.0,
2081.0,2053.0,104.0,-9.0,
2107.0,2093.0,105.0,-9.0,
2127.0,2347.0,105.0,-9.0,
2034.0,1846.0,105.0,-9.0,
2104.0,2098.0,105.0,-9.0,
2083.0,2129.0,105.0,-9.0,
2042.0,2111.0,106.0,-9.0,
2101.0,2151.0,106.0,-9.0,
2113.0,2236.0,106.0,-9.0,
2085.0,2090.0,106.0,-9.0,
2068.0,1950.0,106.0,-9.0,
2107.0,2127.0,106.0,-9.0,
2073.0,2216.0,106.0,-9.0,
2066.0,2271.0,107.0,-9.0,
2154.0,2133.0,107.0,-10.0,
2066.0,1981.0,107.0,-10.0,
2062.0,2029.0,107.0,-10.0,
2053.0,2094.0,107.0,-10.0,
2087.0,2283.0,107.0,-10.0,
2095.0,2129.0,107.0,-10.0,
2095.0,2033.0,107.0,-10.0,
2133.0,2306.0,107.0,-10.0,
2027.0,2064.0,108.0,-10.0,
2186.0,2145.0,108.0,-10.0,
2057.0,1919.0,108.0,-10.0,
2076.0,2069.0,108.0,-10.0,
2067.0,2132.0,108.0,-10.0,
2101.0,2173.0,108.0,-10.0,
2082.0,2115.0,108.0,-10.0,
2109.0,2176.0,108.0,-10.0,
2134.0,2051.0,108.0,-10.0,
2043.0,2122.0,109.0,-10.0,
2086.0,2242.0,109.0,-10.0,
2069.0,2000.0,109.0,-10.0,
2126.0,1979.0,109.0,-11.0,
2126.0,2141.0,109.0,-11.0,
2149.0,2339.0,109.0,-10.0,
2079.0,2107.0,109.0,-10.0,
2100.0,1958.0,110.0,-10.0,
2086.0,2023.0,110.0,-10.0,
2051.0,2181.0,110.0,-10.0,
1964.0,2137.0,110.0,-10.0,
2072.0,2049.0,110.0,-10.0,
2171.0,2072.0,110.0,-10.0,
2112.0,2094.0,110.0,-10.0,
2073.0,2226.0,110.0,-10.0,
2068.0,2118.0,110.0,-10.0,
2119.0,1956.0,110.0,-10.0,
2098.0,2080.0,110.0,-10.0,
2098.0,2229.0,111.0,-10.0,
2181.0,2184.0,111.0,-10.0,
2053.0,2207.0,111.0,-10.0,
2103.0,2172.0,111.0,-10.0,
2073.0,2097.0,111.0,-10.0,
2013.0,2100.0,111.0,-11.0,
2099.0,2071.0,111.0,-11.0,
2097.0,2014.0,111.0,-11.0,
2016.0,2137.0,112.0,-11.0,
2012.0,1992.0,112.0,-11.0,
2180.0,2121.0,112.0,-11.0,
2111.0,2130.0,112.0,-12.0,
2120.0,1914.0,112.0,-12.0,
2034.0,2263.0,112.0,-12.0,
2102.0,2296.0,112.0,-12.0,
2176.0,2147.0,112.0,-12.0,
2074.0,2072.0,113.0,-12.0,
2070.0,2006.0,113.0,-12.0,
2090.0,1958.0,113.0,-12.0,
2075.0,2168.0,113.0,-12.0,
2041.0,2116.0,113.0,-12.0,
2080.0,2090.0,113.0,-12.0,
1995.0,2107.0,113.0,-12.0,
2097.0,2404.0,113.0,-12.0,
2076.0,2252.0,113.0,-12.0,
2152.0,2089.0,114.0,-12.0,
2143.0,2165.0,114.0,-13.0,
2088.0,1803.0,114.0,-13.0,
2022.0,2104.0,114.0,-13.0,
2068.0,2084.0,114.0,-13.0,
2130.0,2288.0,114.0,-12.0,
2054.0,1989.0,114.0,-12.0,
2111.0,2083.0,115.0,-12.0,
2126.0,2100.0,115.0,-12.0,
2089.0,2006.0,115.0,-12.0,
2034.0,1868.0,115.0,-12.0,
2028.0,2021.0,115.0,-13.0,
2098.0,2146.0,116.0,-13.0,
2030.0,2320.0,116.0,-12.0,
2082.0,2300.0,116.0,-12.0,
2099.0,2101.0,116.0,-12.0,
2072.0,1989.0,116.0,-12.0,
2112.0,2305.0,116.0,-12.0,
2082.0,2088.0,116.0,-12.0,
2134.0,2047.0,116.0,-12.0,
2158.0,2306.0,117.0,-12.0,
2060.0,1927.0,117.0,-11.0,
2084.0,2002.0,117.0,-12.0,
2109.0,2092.0,117.0,-12.0,
2043.0,2193.0,117.0,-12.0,
2124.0,2061.0,117.0,-12.0,
2123.0,2341.0,117.0,-12.0,
2041.0,1956.0,117.0,-12.0,
2092.0,2312.0,117.0,-12.0,
1986.0,1891.0,117.0,-12.0,
2008.0,2044.0,117.0,-12.0,
2127.0,2087.0,117.0,-12.0,
2046.0,2070.0,117.0,-12.0,
2159.0,2105.0,117.0,-12.0,
2061.0,2225.0,117.0,-12.0,
2111.0,1794.0,118.0,-12.0,
2078.0,1969.0,118.0,-13.0,
2056.0,2150.0,118.0,-13.0,
2112.0,2349.0,118.0,-13.0,
2121.0,2512.0,118.0,-13.0,
2049.0,1872.0,118.0,-12.0,
2046.0,1913.0,118.0,-12.0,
2113.0,1980.0,118.0,-12.0,
2065.0,2093.0,119.0,-12.0,
2034.0,2502.0,119.0,-13.0,
2114.0,2042.0,119.0,-13.0,
2179.0,2051.0,119.0,-12.0,
2031.0,2107.0,119.0,-12.0,
1974.0,1993.0,119.0,-12.0,
2074.0,1977.0,119.0,-13.0,
2135.0,2174.0,119.0,-13.0,
2081.0,2213.0,119.0,-13.0,
2073.0,2414.0,119.0,-13.0,
2072.0,2108.0,119.0,-14.0,
2117.0,2270.0,119.0,-14.0,
2016.0,1905.0,119.0,-14.0,
2132.0,1845.0,120.0,-14.0,
2115.0,1881.0,120.0,-14.0,
2080.0,2170.0,120.0,-14.0,
2109.0,2242.0,120.0,-14.0,
2037.0,2467.0,120.0,-14.0,
2101.0,1882.0,120.0,-14.0,
2096.0,2226.0,120.0,-15.0,
2077.0,2162.0,121.0,-15.0,
2051.0,2242.0,121.0,-14.0,
2010.0,2151.0,121.0,-14.0,
2023.0,1745.0,121.0,-14.0,
2050.0,1959.0,121.0,-14.0,
2192.0,2134.0,121.0,-14.0,
2159.0,2147.0,121.0,-14.0,
2102.0,2042.0,122.0,-14.0,
2082.0,2145.0,122.0,-13.0,
2098.0,2172.0,122.0,-13.0,
2175.0,2518.0,122.0,-13.0,
2002.0,1888.0,123.0,-14.0,
2044.0,1878.0,123.0,-14.0,
2071.0,2056.0,123.0,-14.0,
2180.0,2360.0,123.0,-13.0,
2074.0,2108.0,123.0,-13.0,
1991.0,2309.0,123.0,-13.0,
2102.0,2127.0,123.0,-13.0,
1995.0,1832.0,123.0,-13.0,
2058.0,2204.0,123.0,-13.0,
2165.0,2144.0,124.0,-13.0,
2081.0,1859.0,124.0,-13.0,
1962.0,2124.0,124.0,-13.0,
2143.0,2164.0,124.0,-13.0,
2108.0,1833.0,124.0,-13.0,
2075.0,2068.0,124.0,-14.0,
2124.0,1958.0,124.0,-14.0,
2054.0,2033.0,124.0,-14.0,
2066.0,2147.0,124.0,-14.0,
2134.0,2796.0,124.0,-14.0,
1958.0,1744.0,125.0,-15.0,
2167.0,2004.0,124.0,-14.0,
2181.0,2088.0,124.0,-14.0,
2126.0,2196.0,124.0,-14.0,
2160.0,2290.0,124.0,-14.0,
2030.0,2312.0,124.0,-14.0,
2045.0,2346.0,124.0,-14.0,
2095.0,2134.0,124.0,-14.0,
2090.0,2116.0,124.0,-14.0,
2162.0,2158.0,125.0,-14.0,
2046.0,1714.0,124.0,-13.0,
2046.0,2070.0,125.0,-14.0,
2098.0,2245.0,125.0,-14.0,
2180.0,2366.0,125.0,-14.0,
1927.0,1925.0,125.0,-14.0,
2050.0,1866.0,125.0,-14.0,
2035.0,2001.0,125.0,-14.0,
2083.0,2331.0,125.0,-14.0,
2005.0,2429.0,125.0,-14.0,
2072.0,1736.0,125.0,-14.0,
2121.0,2073.0,125.0,-14.0,
2181.0,2337.0,125.0,-15.0,
2142.0,1704.0,125.0,-15.0,
2125.0,2031.0,125.0,-15.0,
2084.0,2142.0,126.0,-15.0,
2153.0,1951.0,126.0,-15.0,
2131.0,2386.0,126.0,-15.0,
2085.0,2211.0,126.0,-15.0,
2081.0,2397.0,126.0,-15.0,
2038.0,2100.0,126.0,-15.0,
2060.0,1892.0,126.0,-16.0,
2132.0,2000.0,126.0,-16.0,
2145.0,2255.0,126.0,-16.0,
2086.0,2030.0,126.0,-16.0,
2127.0,2222.0,126.0,-16.0,
2041.0,2617.0,126.0,-16.0,
2127.0,2260.0,126.0,-16.0,
2068.0,2197.0,126.0,-15.0,
2007.0,1994.0,126.0,-15.0,
2149.0,2039.0,126.0,-15.0,
2041.0,1702.0,127.0,-15.0,
2039.0,2011.0,127.0,-15.0,
1971.0,2049.0,127.0,-15.0,
1990.0,1925.0,126.0,-14.0,
2176.0,2073.0,127.0,-15.0,
2067.0,2083.0,127.0,-15.0,
2118.0,2323.0,127.0,-15.0,
2124.0,2239.0,127.0,-15.0,
2074.0,2444.0,127.0,-15.0,
2061.0,1826.0,127.0,-15.0,
2085.0,1953.0,127.0,-14.0,
2010.0,2015.0,127.0,-14.0,
2088.0,2195.0,127.0,-14.0,
2087.0,2196.0,127.0,-15.0,
2080.0,2167.0,127.0,-14.0,
2080.0,2160.0,126.0,-15.0,
2077.0,2143.0,126.0,-15.0,
2139.0,2145.0,126.0,-15.0,
2015.0,2336.0,126.0,-15.0,
2031.0,1772.0,126.0,-15.0,
2087.0,2120.0,126.0,-15.0,
2077.0,1980.0,126.0,-15.0,
2109.0,2077.0,126.0,-15.0,
2184.0,2270.0,126.0,-15.0,
1919.0,2454.0,126.0,-15.0,
1875.0,2400.0,126.0,-15.0,
2153.0,1290.0,126.0,-15.0,
2268.0,1826.0,126.0,-15.0,
2211.0,1991.0,126.0,-15.0,
2222.0,1991.0,126.0,-15.0,
2070.0,2299.0,126.0,-15.0,
2081.0,2113.0,126.0,-15.0,
2081.0,2634.0,126.0,-15.0,
2051.0,2056.0,126.0,-15.0,
2008.0,2088.0,126.0,-16.0,
2046.0,2029.0,126.0,-16.0,
2066.0,2195.0,126.0,-16.0,
2113.0,2111.0,126.0,-16.0,
2075.0,2017.0,126.0,-16.0,
1952.0,2235.0,126.0,-16.0,
2128.0,2104.0,126.0,-16.0,
2031.0,1962.0,126.0,-16.0,
1956.0,2279.0,126.0,-16.0,
2100.0,2108.0,125.0,-16.0,
2172.0,2557.0,125.0,-16.0,
2084.0,2035.0,125.0,-16.0,
2051.0,1817.0,126.0,-16.0,
2069.0,1509.0,126.0,-16.0,
2164.0,2093.0,125.0,-16.0,
2049.0,2160.0,126.0,-16.0,
2082.0,2637.0,126.0,-16.0,
1988.0,2546.0,126.0,-16.0,
2003.0,1244.0,126.0,-16.0,
2287.0,1966.0,126.0,-16.0,
2269.0,2085.0,126.0,-16.0,
2064.0,2274.0,126.0,-16.0,
2169.0,2490.0,126.0,-16.0,
2183.0,2353.0,126.0,-15.0,
2013.0,2202.0,127.0,-15.0,
1912.0,2249.0,127.0,-15.0,
2117.0,1664.0,127.0,-15.0,
2035.0,1819.0,127.0,-15.0,
2140.0,2138.0,127.0,-15.0,
2088.0,2356.0,127.0,-15.0,
2178.0,2467.0,127.0,-15.0,
2065.0,1965.0,127.0,-15.0,
2034.0,1949.0,127.0,-15.0,
2050.0,2004.0,127.0,-15.0,
2188.0,2370.0,127.0,-15.0,
2046.0,2262.0,127.0,-15.0,
2093.0,1971.0,127.0,-15.0,
1992.0,1998.0,127.0,-16.0,
2101.0,2086.0,127.0,-17.0,
2096.0,2186.0,127.0,-16.0,
2030.0,2385.0,127.0,-15.0,
2045.0,2361.0,127.0,-15.0,
2098.0,1809.0,127.0,-15.0,
2101.0,1980.0,127.0,-15.0,
2090.0,2029.0,127.0,-15.0,
2094.0,2277.0,127.0,-15.0,
2132.0,2410.0,128.0,-15.0,
2134.0,2138.0,128.0,-15.0,
2086.0,2018.0,128.0,-14.0,
2033.0,2304.0,128.0,-15.0,
2013.0,1925.0,128.0,-16.0,
2246.0,2048.0,128.0,-16.0,
2082.0,2022.0,128.0,-16.0,
2089.0,1714.0,128.0,-16.0,
2082.0,2184.0,128.0,-16.0,
2040.0,2381.0,128.0,-16.0,
2064.0,1717.0,128.0,-16.0,
2110.0,2198.0,128.0,-16.0,
2122.0,1737.0,128.0,-15.0,
2080.0,1906.0,128.0,-15.0,
2085.0,2155.0,128.0,-15.0,
2076.0,1994.0,128.0,-15.0,
2089.0,2495.0,129.0,-15.0,
2050.0,2285.0,129.0,-15.0,
2026.0,2263.0,129.0,-15.0,
1950.0,1961.0,129.0,-15.0,
2224.0,2131.0,129.0,-15.0,
2217.0,1945.0,129.0,-15.0,
2093.0,2396.0,128.0,-16.0,
2072.0,2566.0,128.0,-16.0,
2057.0,1802.0,128.0,-16.0,
2034.0,1974.0,128.0,-16.0,
2106.0,1928.0,128.0,-16.0,
2063.0,2176.0,128.0,-16.0,
2083.0,1987.0,128.0,-16.0,
1993.0,2229.0,128.0,-16.0,
2198.0,1953.0,128.0,-16.0,
2216.0,2193.0,128.0,-16.0,
2017.0,2136.0,128.0,-16.0,
2013.0,2110.0,128.0,-16.0,
2155.0,2053.0,128.0,-16.0,
2171.0,2432.0,128.0,-16.0,
2088.0,2274.0,128.0,-16.0,
1992.0,2221.0,128.0,-16.0,
1998.0,1680.0,128.0,-16.0,
2088.0,1771.0,128.0,-16.0,
2086.0,1960.0,128.0,-16.0,
2220.0,2248.0,128.0,-16.0,
2038.0,2196.0,128.0,-16.0,
1960.0,2252.0,128.0,-16.0,
2074.0,2165.0,128.0,-16.0,
2180.0,2196.0,127.0,-16.0,
2096.0,2090.0,127.0,-16.0,
2127.0,2057.0,127.0,-16.0,
2040.0,2332.0,127.0,-16.0,
1981.0,2416.0,127.0,-16.0,
2078.0,1766.0,127.0,-16.0,
2185.0,2172.0,127.0,-16.0,
2044.0,1892.0,127.0,-16.0,
2049.0,2088.0,127.0,-16.0,
2094.0,2119.0,127.0,-16.0,
2129.0,2130.0,127.0,-16.0,
2090.0,2026.0,127.0,-16.0,
2102.0,1978.0,127.0,-16.0,
2061.0,2195.0,127.0,-16.0,
1977.0,2467.0,128.0,-16.0,
2014.0,1763.0,128.0,-16.0,
2172.0,2027.0,128.0,-16.0,
2076.0,1972.0,128.0,-16.0,
2034.0,2151.0,128.0,-16.0,
2137.0,2156.0,128.0,-16.0,
2111.0,2184.0,128.0,-16.0,
1968.0,2345.0,128.0,-16.0,
2008.0,2217.0,128.0,-16.0,
2049.0,2282.0,128.0,-16.0,
2128.0,2193.0,128.0,-16.0,
2158.0,1765.0,128.0,-16.0,
2161.0,1951.0,128.0,-16.0,
2215.0,2334.0,128.0,-16.0,
1957.0,2002.0,128.0,-16.0,
2032.0,1900.0,128.0,-16.0,
2242.0,2288.0,128.0,-16.0,
2149.0,1864.0,128.0,-16.0,
2083.0,1959.0,128.0,-16.0,
2050.0,2301.0,128.0,-16.0,
2075.0,2185.0,128.0,-16.0,
2154.0,2533.0,128.0,-16.0,
2103.0,2088.0,128.0,-16.0,
1936.0,1906.0,128.0,-16.0,
2123.0,1975.0,128.0,-16.0,
2121.0,2064.0,128.0,-16.0,
2113.0,1879.0,128.0,-16.0,
1989.0,2023.0,129.0,-16.0,
2055.0,2276.0,129.0,-16.0,
2067.0,2609.0,129.0,-16.0,
2029.0,2322.0,129.0,-16.0,
2061.0,1906.0,129.0,-16.0,
2184.0,1883.0,128.0,-16.0,
2140.0,2163.0,128.0,-16.0,
2047.0,2191.0,128.0,-16.0,
2073.0,2096.0,128.0,-16.0,
2139.0,2060.0,128.0,-16.0,
1951.0,2163.0,128.0,-16.0,
2070.0,2019.0,128.0,-16.0,
2169.0,2041.0,128.0,-16.0,
2071.0,2118.0,128.0,-16.0,
2093.0,2214.0,128.0,-16.0,
2078.0,2170.0,128.0,-16.0,
1998.0,2164.0,128.0,-16.0,
2082.0,2379.0,128.0,-16.0,
2143.0,2057.0,128.0,-16.0,
2037.0,2430.0,128.0,-16.0,
2053.0,1715.0,128.0,-16.0,
2057.0,1710.0,128.0,-16.0,
2155.0,1861.0,128.0,-16.0,
2094.0,1979.0,128.0,-16.0,
2116.0,2138.0,128.0,-16.0,
2008.0,2455.0,128.0,-16.0,
2144.0,2497.0,128.0,-16.0,
2051.0,2088.0,129.0,-16.0,
2020.0,2206.0,129.0,-16.0,
2117.0,1990.0,129.0,-16.0,
2122.0,2143.0,129.0,-16.0,
2079.0,2363.0,129.0,-16.0,
2173.0,2277.0,129.0,-16.0,
2011.0,1628.0,129.0,-16.0,
2037.0,1966.0,129.0,-16.0,
2053.0,2199.0,129.0,-16.0,
2033.0,2368.0,129.0,-16.0,
2124.0,2254.0,129.0,-16.0,
2081.0,1736.0,129.0,-16.0,
2091.0,1972.0,129.0,-16.0,
2072.0,2117.0,129.0,-16.0,
2122.0,2307.0,129.0,-16.0,
2069.0,2013.0,129.0,-16.0,
2074.0,2156.0,129.0,-16.0,
2050.0,2116.0,129.0,-16.0,
2027.0,2105.0,129.0,-16.0,
2156.0,2115.0,129.0,-16.0,
2112.0,2077.0,129.0,-16.0,
2023.0,2325.0,129.0,-16.0,
2070.0,2456.0,129.0,-16.0,
2054.0,1911.0,129.0,-16.0,
2201.0,2459.0,129.0,-16.0,
2129.0,1940.0,129.0,-16.0,
2056.0,2133.0,129.0,-16.0,
2068.0,1914.0,129.0,-16.0,
2063.0,2142.0,128.0,-16.0,
2082.0,1977.0,128.0,-16.0,
2066.0,2211.0,128.0,-16.0,
2048.0,2005.0,128.0,-16.0,
2150.0,1997.0,128.0,-16.0,
2068.0,2204.0,128.0,-16.0,
2086.0,2372.0,128.0,-16.0,
2038.0,2124.0,128.0,-16.0,
2101.0,1932.0,128.0,-16.0,
2041.0,1912.0,128.0,-16.0,
1966.0,2191.0,128.0,-16.0,
2097.0,2138.0,128.0,-16.0,
2154.0,2035.0,128.0,-16.0,
2139.0,2062.0,128.0,-16.0,
2050.0,2083.0,128.0,-16.0,
2034.0,2135.0,128.0,-16.0,
2070.0,2394.0,128.0,-16.0,
2122.0,2050.0,128.0,-16.0,
2053.0,2047.0,128.0,-16.0,
2044.0,2686.0,128.0,-16.0,
2083.0,1661.0,128.0,-16.0,
2162.0,2073.0,128.0,-16.0,
2126.0,1950.0,128.0,-16.0,
2046.0,2075.0,128.0,-16.0,
2115.0,2447.0,128.0,-16.0,
2045.0,2099.0,128.0,-16.0,
2017.0,1954.0,128.0,-16.0,
2154.0,2102.0,128.0,-16.0,
2055.0,2148.0,128.0,-16.0,
2062.0,2084.0,128.0,-16.0,
2122.0,2077.0,128.0,-16.0,
2142.0,2339.0,128.0,-16.0,
2061.0,2091.0,128.0,-16.0,
1947.0,2416.0,0,
2034.0,2082.0,128.0,-16.0,
2058.0,2132.0,128.0,-16.0,
2112.0,2135.0,128.0,-16.0,
2076.0,2162.0,128.0,-16.0,
2189.0,2089.0,128.0,-16.0,
2136.0,2121.0,128.0,-16.0,
2069.0,1979.0,128.0,-16.0,
2070.0,1850.0,128.0,-16.0,
1974.0,1990.0,128.0,-16.0,
2043.0,1982.0,128.0,-16.0,
2140.0,2262.0,128.0,-16.0,
2034.0,2033.0,129.0,-16.0,
2187.0,2093.0,129.0,-16.0,
2092.0,2040.0,129.0,-16.0,
2076.0,2234.0,128.0,-16.0,
2111.0,2173.0,128.0,-16.0,
2045.0,2048.0,128.0,-16.0,
1998.0,2256.0,128.0,-16.0,
2092.0,2009.0,128.0,-16.0,
2196.0,2236.0,128.0,-16.0,
2068.0,1982.0,128.0,-16.0,
2131.0,2003.0,128.0,-16.0,
2084.0,2017.0,128.0,-16.0,
2075.0,2133.0,128.0,-16.0,
2056.0,2213.0,128.0,-16.0,
1987.0,2144.0,127.0,-16.0,
2095.0,2121.0,127.0,-16.0,
2090.0,2201.0,127.0,-16.0,
2081.0,2201.0,127.0,-16.0,
2121.0,2100.0,127.0,-16.0,
2089.0,2104.0,127.0,-16.0,
2126.0,2101.0,127.0,-16.0,
2106.0,2132.0,128.0,-16.0,
2025.0,2114.0,128.0,-16.0,
2030.0,1944.0,128.0,-16.0,
2104.0,2120.0,128.0,-16.0,
2083.0,2101.0,128.0,-16.0,
2060.0,2097.0,128.0,-16.0,
2097.0,2302.0,128.0,-16.0,
2112.0,2168.0,128.0,-16.0,
2008.0,1937.0,128.0,-16.0,
2066.0,2065.0,128.0,-16.0,
2091.0,2117.0,128.0,-16.0,
2128.0,2088.0,128.0,-16.0,
2057.0,2122.0,128.0,-16.0,
2170.0,2259.0,128.0,-16.0,
2102.0,2082.0,128.0,-16.0,
2074.0,2045.0,128.0,-16.0,
2099.0,2120.0,128.0,-16.0,
2080.0,2150.0,128.0,-16.0,
2032.0,2192.0,128.0,-16.0,
2112.0,2174.0,128.0,-16.0,
2106.0,2060.0,128.0,-16.0,
2116.0,2164.0,128.0,-16.0,
2041.0,2077.0,128.0,-16.0,
1984.0,2241.0,128.0,-16.0,
2076.0,2062.0,128.0,-16.0,
2139.0,2144.0,128.0,-16.0,
2113.0,2020.0,128.0,-16.0,
2102.0,2140.0,128.0,-16.0,
2077.0,2074.0,128.0,-16.0,
2079.0,2132.0,128.0,-16.0,
2093.0,2190.0,128.0,-16.0,
2022.0,2051.0,128.0,-16.0,
2191.0,2152.0,128.0,-16.0,
2137.0,1993.0,128.0,-16.0,
2005.0,2073.0,128.0,-16.0,
2043.0,2091.0,127.0,-16.0,
2064.0,2191.0,127.0,-16.0,
2146.0,2165.0,127.0,-16.0,
2086.0,2075.0,127.0,-16.0,
2030.0,2137.0,127.0,-16.0,
2089.0,2035.0,127.0,-16.0,
2054.0,2100.0,127.0,-16.0,
2058.0,2132.0,126.0,-16.0,
2028.0,2134.0,126.0,-16.0,
2025.0,2086.0,126.0,-16.0,
2109.0,2085.0,126.0,-16.0,
2096.0,2104.0,126.0,-16.0,
2085.0,2142.0,126.0,-15.0,
2067.0,1940.0,126.0,-15.0,
2088.0,2241.0,126.0,-15.0,
2104.0,2064.0,126.0,-15.0,
2090.0,2097.0,126.0,-15.0,
2083.0,2166.0,126.0,-15.0,
2087.0,2024.0,125.0,-15.0,
2125.0,2193.0,125.0,-15.0,
2037.0,2132.0,125.0,-15.0,
2055.0,2090.0,125.0,-15.0,
2113.0,2191.0,125.0,-15.0,
2118.0,2233.0,125.0,-15.0,
2089.0,2026.0,126.0,-15.0,
2066.0,2105.0,126.0,-15.0,
2079.0,2039.0,126.0,-15.0,
2059.0,2100.0,126.0,-15.0,
2066.0,2151.0,126.0,-15.0,
2124.0,2114.0,126.0,-15.0,
2110.0,2127.0,126.0,-15.0,
2077.0,2216.0,126.0,-15.0,
2093.0,2120.0,126.0,-15.0,
2089.0,2072.0,126.0,-15.0,
2082.0,2031.0,126.0,-15.0,
2072.0,1909.0,126.0,-15.0,
2083.0,2095.0,126.0,-15.0,
2150.0,2106.0,126.0,-15.0,
2105.0,2085.0,126.0,-15.0,
2080.0,2177.0,126.0,-15.0,
2120.0,2049.0,126.0,-15.0,
2119.0,2033.0,126.0,-15.0,
2078.0,2074.0,126.0,-15.0,
2103.0,2149.0,126.0,-15.0,
2050.0,2110.0,126.0,-15.0,
2076.0,2227.0,126.0,-15.0,
2139.0,2183.0,125.0,-15.0,
2078.0,2200.0,125.0,-15.0,
2072.0,2186.0,125.0,-15.0,
2100.0,2058.0,125.0,-15.0,
2121.0,2107.0,124.0,-15.0,
2092.0,2055.0,124.0,-15.0,
2072.0,2061.0,123.0,-15.0,
2088.0,2115.0,123.0,-15.0,
2060.0,2165.0,123.0,-15.0,
2112.0,2151.0,122.0,-16.0,
2092.0,1909.0,122.0,-16.0,
2089.0,2119.0,122.0,-16.0,
2072.0,2157.0,121.0,-16.0,
2039.0,2097.0,121.0,-16.0,
2019.0,2085.0,120.0,-15.0,
2060.0,2048.0,120.0,-15.0,
2128.0,2121.0,120.0,-15.0,
2119.0,2111.0,120.0,-15.0,
2087.0,2193.0,120.0,-15.0,
2083.0,2136.0,120.0,-15.0,
2074.0,2151.0,120.0,-15.0,
2028.0,2096.0,119.0,-15.0,
2049.0,2059.0,120.0,-15.0,
2074.0,2097.0,120.0,-15.0,
2040.0,2090.0,120.0,-14.0,
2053.0,2099.0,120.0,-14.0,
2089.0,2180.0,120.0,-14.0,
2096.0,2041.0,120.0,-14.0,
2103.0,2074.0,121.0,-14.0,
2125.0,2118.0,121.0,-14.0,
2094.0,2119.0,121.0,-14.0,
2056.0,2124.0,121.0,-14.0,
2058.0,2155.0,121.0,-13.0,
2097.0,2188.0,121.0,-13.0,
2109.0,2095.0,121.0,-13.0,
2138.0,2255.0,121.0,-13.0,
2085.0,2183.0,121.0,-13.0,
2036.0,1943.0,122.0,-12.0,
2092.0,2061.0,122.0,-12.0,
2069.0,2060.0,122.0,-12.0,
2056.0,2086.0,122.0,-12.0,
2105.0,2207.0,122.0,-12.0,
2106.0,2027.0,123.0,-12.0,
2083.0,2156.0,123.0,-12.0,
2115.0,2145.0,123.0,-12.0,
2137.0,2138.0,124.0,-12.0,
2106.0,2076.0,124.0,-12.0,
2070.0,2129.0,124.0,-12.0,
2080.0,2086.0,124.0,-12.0,
2034.0,2089.0,124.0,-13.0,
2021.0,2107.0,124.0,-13.0,
2027.0,2144.0,124.0,-13.0,
2074.0,2180.0,124.0,-13.0,
2073.0,2128.0,123.0,-13.0,
2134.0,2132.0,123.0,-13.0,
2065.0,2071.0,122.0,-14.0,
2058.0,2107.0,121.0,-14.0,
2130.0,1989.0,121.0,-14.0,
2116.0,2022.0,120.0,-14.0,
2075.0,2010.0,119.0,-14.0,
2102.0,2146.0,119.0,-14.0,
2089.0,2093.0,118.0,-13.0,
2072.0,2124.0,118.0,-13.0,
2111.0,2242.0,117.0,-13.0,
2066.0,2086.0,117.0,-13.0,
2074.0,2058.0,117.0,-13.0,
2046.0,2110.0,116.0,-13.0,
2090.0,2133.0,116.0,-13.0,
2105.0,2085.0,116.0,-13.0,
2077.0,2137.0,115.0,-13.0,
2112.0,2229.0,115.0,-13.0,
2122.0,2160.0,114.0,-13.0,
2049.0,2045.0,114.0,-12.0,
2081.0,2015.0,114.0,-12.0,
2096.0,2094.0,113.0,-12.0,
2093.0,2154.0,113.0,-12.0,
2082.0,2140.0,113.0,-12.0,
2062.0,2152.0,113.0,-12.0,
2070.0,2129.0,113.0,-12.0,
2104.0,2110.0,113.0,-11.0,
2062.0,2094.0,113.0,-11.0,
2089.0,2066.0,113.0,-11.0,
2099.0,2076.0,114.0,-11.0,
2059.0,2080.0,114.0,-11.0,
2059.0,2125.0,114.0,-11.0,
2104.0,2210.0,114.0,-11.0,
2077.0,2186.0,113.0,-11.0,
2074.0,2162.0,113.0,-11.0,
2121.0,2117.0,113.0,-11.0,
2118.0,2019.0,113.0,-11.0,
2122.0,2097.0,112.0,-11.0,
2075.0,2120.0,112.0,-11.0,
2107.0,2125.0,111.0,-11.0,
2108.0,2094.0,111.0,-11.0,
2078.0,2036.0,111.0,-11.0,
2124.0,2059.0,111.0,-12.0,
2163.0,2086.0,110.0,-12.0,
2115.0,2107.0,110.0,-12.0,
2074.0,2133.0,110.0,-12.0,
2067.0,2093.0,110.0,-12.0,
2117.0,2150.0,109.0,-12.0,
2072.0,2053.0,109.0,-12.0,
2112.0,2110.0,109.0,-12.0,
2095.0,2080.0,109.0,-12.0,
2072.0,2136.0,109.0,-12.0,
2112.0,2155.0,108.0,-12.0,
2077.0,2021.0,108.0,-12.0,
2093.0,2004.0,108.0,-12.0,
2083.0,1996.0,108.0,-12.0,
2089.0,2173.0,108.0,-12.0,
2083.0,2166.0,107.0,-12.0,
2081.0,2143.0,107.0,-12.0,
2114.0,2141.0,107.0,-12.0,
2116.0,2150.0,106.0,-12.0,
2105.0,1969.0,106.0,-12.0,
2120.0,2248.0,105.0,-12.0,
2132.0,2108.0,105.0,-12.0,
2061.0,2154.0,104.0,-12.0,
2078.0,2104.0,103.0,-12.0,
2054.0,2137.0,103.0,-11.0,
2040.0,2094.0,102.0,-11.0,
2069.0,2091.0,101.0,-11.0,
2060.0,2100.0,101.0,-11.0,
2099.0,2101.0,100.0,-11.0,
2052.0,2173.0,99.0,-11.0,
2022.0,2133.0,99.0,-11.0,
2004.0,1956.0,98.0,-10.0,
2062.0,2040.0,98.0,-10.0,
2065.0,2114.0,97.0,-10.0,
2055.0,2146.0,97.0,-10.0,
2040.0,2153.0,97.0,-10.0,
2024.0,2065.0,97.0,-10.0,
2090.0,2040.0,96.0,-10.0,
2088.0,2029.0,96.0,-9.0,
2108.0,2058.0,96.0,-9.0,
2050.0,2078.0,96.0,-9.0,
2037.0,2210.0,96.0,-9.0,
2065.0,2155.0,96.0,-8.0,
2134.0,2155.0,96.0,-8.0,
2123.0,2090.0,96.0,-8.0,
2060.0,2171.0,96.0,-8.0,
2100.0,2248.0,96.0,-8.0,
2064.0,2056.0,96.0,-8.0,
2048.0,1963.0,96.0,-8.0,
2094.0,1972.0,96.0,-8.0,
2071.0,2050.0,96.0,-8.0,
2058.0,2072.0,96.0,-8.0,
2095.0,2084.0,96.0,-8.0,
2112.0,2140.0,96.0,-8.0,
2090.0,2129.0,96.0,-8.0,
2068.0,2148.0,96.0,-8.0,
2090.0,2156.0,95.0,-8.0,
2118.0,2157.0,95.0,-8.0,
2096.0,2163.0,94.0,-9.0,
2131.0,2195.0,94.0,-9.0,
2078.0,2190.0,93.0,-9.0,
2094.0,2153.0,92.0,-9.0,
2068.0,2096.0,92.0,-9.0,
2136.0,2041.0,91.0,-9.0,
2130.0,1999.0,90.0,-9.0,
2095.0,2052.0,90.0,-9.0,
2088.0,2045.0,89.0,-9.0,
2107.0,2072.0,89.0,-9.0,
2094.0,2159.0,88.0,-9.0,
2121.0,2202.0,88.0,-9.0,
2091.0,2127.0,88.0,-9.0,
2061.0,2028.0,88.0,-9.0,
2132.0,2130.0,88.0,-9.0,
2087.0,2141.0,88.0,-9.0,
2095.0,2097.0,88.0,-9.0,
2077.0,2118.0,88.0,-8.0,
2047.0,2053.0,88.0,-8.0,
2116.0,2155.0,89.0,-8.0,
2071.0,2107.0,89.0,-8.0,
2026.0,2265.0,89.0,-7.0,
2008.0,2132.0,89.0,-7.0,
2073.0,2121.0,90.0,-7.0,
2069.0,2078.0,90.0,-7.0,
2040.0,2161.0,91.0,-6.0,
2110.0,2167.0,91.0,-6.0,
2070.0,2129.0,91.0,-6.0,
2055.0,2076.0,92.0,-6.0,
2118.0,2092.0,92.0,-6.0,
2128.0,2103.0,92.0,-6.0,
2080.0,2090.0,93.0,-6.0,
2107.0,2093.0,93.0,-6.0,
2090.0,2101.0,93.0,-7.0,
2085.0,2076.0,94.0,-6.0,
2114.0,2050.0,94.0,-7.0,
2091.0,2121.0,94.0,-7.0,
2074.0,2148.0,94.0,-7.0,
2050.0,2140.0,94.0,-7.0,
2091.0,2110.0,94.0,-7.0,
2065.0,2048.0,95.0,-7.0,
2103.0,2090.0,95.0,-7.0,
2139.0,2104.0,95.0,-7.0,
2095.0,2052.0,95.0,-7.0,
2077.0,2094.0,95.0,-7.0,
2066.0,2095.0,95.0,-8.0,
2077.0,2123.0,95.0,-8.0,
2082.0,2156.0,95.0,-8.0,
2076.0,2218.0,95.0,-8.0,
2069.0,2130.0,95.0,-8.0,
2091.0,2051.0,95.0,-8.0,
2111.0,2080.0,95.0,-8.0,
2041.0,2125.0,95.0,-8.0,
2022.0,2028.0,95.0,-8.0,
2091.0,2138.0,95.0,-7.0,
2123.0,2100.0,95.0,-7.0,
2063.0,2103.0,95.0,-7.0,
2080.0,2140.0,95.0,-7.0,
2073.0,2156.0,95.0,-7.0,
2093.0,2131.0,95.0,-7.0,
2080.0,2094.0,94.0,-7.0,
2083.0,2030.0,94.0,-7.0,
2090.0,2131.0,94.0,-7.0,
2120.0,2136.0,93.0,-7.0,
2095.0,2141.0,93.0,-7.0,
2101.0,2112.0,93.0,-7.0,
2091.0,2140.0,92.0,-7.0,
2107.0,2137.0,92.0,-7.0,
2076.0,2100.0,92.0,-7.0,
2075.0,2136.0,91.0,-7.0,
2059.0,2092.0,91.0,-7.0,
2066.0,2091.0,90.0,-7.0,
2063.0,2120.0,90.0,-7.0,
2094.0,2122.0,90.0,-7.0,
2097.0,2110.0,90.0,-7.0,
2135.0,2127.0,90.0,-7.0,
2173.0,2116.0,89.0,-6.0,
2039.0,2110.0,89.0,-6.0,
2055.0,2101.0,89.0,-6.0,
2049.0,2108.0,89.0,-6.0,
2065.0,2084.0,89.0,-6.0,
2099.0,2136.0,89.0,-6.0,
2068.0,2084.0,89.0,-6.0,
2021.0,2061.0,89.0,-6.0,
2073.0,2091.0,89.0,-6.0,
2112.0,2072.0,88.0,-6.0,
2066.0,2098.0,88.0,-5.0,
2087.0,1969.0,88.0,-5.0,
2049.0,2185.0,88.0,-5.0,
2122.0,2139.0,88.0,-5.0,
2075.0,2157.0,88.0,-5.0,
2069.0,2177.0,88.0,-5.0,
2084.0,2120.0,88.0,-5.0,
2082.0,2168.0,88.0,-5.0,
2094.0,2075.0,87.0,-6.0,
2138.0,1973.0,87.0,-6.0,
2101.0,2194.0,87.0,-6.0,
2055.0,2151.0,87.0,-6.0,
2082.0,2121.0,86.0,-6.0,
2078.0,2114.0,86.0,-6.0,
2076.0,2082.0,86.0,-6.0,
2144.0,2091.0,86.0,-6.0,
2090.0,2116.0,85.0,-6.0,
2090.0,2118.0,85.0,-6.0,
2108.0,2118.0,84.0,-6.0,
2086.0,2123.0,84.0,-6.0,
2077.0,2092.0,84.0,-6.0,
2081.0,2102.0,83.0,-6.0,
2103.0,2119.0,83.0,-6.0,
2086.0,2131.0,83.0,-6.0,
2115.0,2131.0,82.0,-6.0,
2074.0,2121.0,82.0,-6.0,
2080.0,2140.0,82.0,-6.0,
2104.0,2104.0,81.0,-6.0,
2061.0,2121.0,81.0,-6.0,
2028.0,2118.0,81.0,-5.0,
2073.0,2143.0,81.0,-5.0,
2092.0,2100.0,81.0,-5.0,
2071.0,2096.0,81.0,-5.0,
2117.0,2113.0,81.0,-5.0,
2081.0,2085.0,81.0,-5.0,
2029.0,2096.0,81.0,-5.0,
2092.0,2065.0,81.0,-5.0,
2100.0,2097.0,81.0,-5.0,
2104.0,2100.0,81.0,-5.0,
2119.0,2094.0,81.0,-5.0,
2100.0,2099.0,81.0,-4.0,
2099.0,2129.0,81.0,-4.0,
2078.0,2149.0,81.0,-4.0,
2080.0,2130.0,81.0,-4.0,
2073.0,2071.0,81.0,-4.0,
2103.0,2119.0,81.0,-4.0,
2088.0,2061.0,81.0,-4.0,
2080.0,2033.0,81.0,-4.0,
2077.0,2091.0,81.0,-4.0,
2109.0,2031.0,81.0,-4.0,
2091.0,2145.0,82.0,-4.0,
2100.0,2152.0,82.0,-4.0,
2118.0,2197.0,82.0,-4.0,
2093.0,2104.0,82.0,-4.0,
2069.0,2031.0,82.0,-4.0,
2096.0,2114.0,82.0,-4.0,
2051.0,2114.0,0,
2062.0,2097.0,82.0,-4.0,
2102.0,2134.0,82.0,-4.0,
2081.0,2102.0,81.0,-4.0,
2073.0,2135.0,81.0,-4.0,
2077.0,2122.0,81.0,-4.0,
2080.0,2117.0,81.0,-4.0,
2086.0,2110.0,81.0,-4.0,
2105.0,2176.0,81.0,-4.0,
2069.0,2016.0,81.0,-4.0,
2070.0,2137.0,80.0,-4.0,
2099.0,2130.0,80.0,-4.0,
2077.0,2145.0,80.0,-4.0,
2091.0,2114.0,80.0,-4.0,
2091.0,2108.0,80.0,-4.0,
2091.0,2098.0,80.0,-4.0,
2070.0,2133.0,80.0,-4.0,
2061.0,2150.0,80.0,-4.0,
2072.0,2153.0,80.0,-4.0,
2078.0,2110.0,80.0,-4.0,
2094.0,2047.0,79.0,-4.0,
2102.0,2089.0,79.0,-4.0,
2115.0,2099.0,80.0,-4.0,
2101.0,2093.0,79.0,-4.0,
2082.0,2115.0,79.0,-4.0,
2079.0,2120.0,79.0,-4.0,
2065.0,2098.0,79.0,-4.0,
2042.0,2078.0,79.0,-4.0,
2094.0,2093.0,79.0,-4.0,
2098.0,2135.0,80.0,-4.0,
2111.0,2193.0,80.0,-4.0,
2108.0,2140.0,80.0,-3.0,
2093.0,2075.0,80.0,-3.0,
2097.0,2059.0,80.0,-3.0,
2102.0,2084.0,80.0,-3.0,
2088.0,2121.0,80.0,-4.0,
2098.0,2125.0,80.0,-5.0,
2078.0,2135.0,80.0,-5.0,
2096.0,2128.0,80.0,-4.0,
2089.0,2139.0,80.0,-4.0,
2077.0,2117.0,80.0,-4.0,
2053.0,2132.0,80.0,-4.0,
2067.0,2115.0,80.0,-4.0,
2053.0,2118.0,80.0,-4.0,
2050.0,2056.0,80.0,-5.0,
2107.0,2170.0,80.0,-4.0,
2078.0,2138.0,80.0,-3.0,
2080.0,2106.0,80.0,-3.0,
2075.0,2100.0,80.0,-3.0,
2087.0,2029.0,80.0,-4.0,
2073.0,2070.0,80.0,-4.0,
2069.0,2104.0,80.0,-4.0,
2080.0,2091.0,80.0,-4.0,
2056.0,2144.0,80.0,-3.0,
2077.0,2148.0,79.0,-3.0,
2081.0,2149.0,79.0,-3.0,
2108.0,2132.0,79.0,-3.0,
2087.0,2129.0,79.0,-3.0,
2083.0,2117.0,78.0,-3.0,
2100.0,2110.0,78.0,-3.0,
2083.0,2116.0,78.0,-3.0,
2086.0,2103.0,77.0,-3.0,
2077.0,2120.0,77.0,-3.0,
2082.0,2120.0,77.0,-4.0,
2087.0,2129.0,77.0,-4.0,
2085.0,2121.0,76.0,-4.0,
2101.0,2111.0,76.0,-4.0,
2083.0,2117.0,76.0,-4.0,
2112.0,2100.0,76.0,-4.0,
2076.0,2099.0,75.0,-4.0,
2072.0,2087.0,75.0,-4.0,
2079.0,2104.0,75.0,-4.0,
2118.0,2133.0,75.0,-4.0,
2096.0,2184.0,75.0,-4.0,
2108.0,2098.0,75.0,-4.0,
2068.0,2106.0,75.0,-3.0,
2089.0,2112.0,74.0,-3.0,
2064.0,2055.0,74.0,-3.0,
2094.0,2166.0,74.0,-3.0,
2089.0,2162.0,74.0,-3.0,
2087.0,2014.0,74.0,-3.0,
2006.0,2027.0,74.0,-3.0,
2056.0,2095.0,75.0,-3.0,
2089.0,2113.0,75.0,-3.0,
2090.0,2113.0,75.0,-3.0,
2076.0,2088.0,75.0,-3.0,
2087.0,2093.0,75.0,-2.0,
2079.0,2106.0,74.0,-2.0,
2086.0,2113.0,74.0,-2.0,
2070.0,2125.0,74.0,-2.0,
2096.0,2123.0,74.0,-2.0,
2090.0,2150.0,74.0,-2.0,
2116.0,2161.0,74.0,-2.0,
2101.0,2124.0,74.0,-2.0,
2089.0,2130.0,74.0,-2.0,
2092.0,1894.0,74.0,-2.0,
2094.0,2133.0,74.0,-3.0,
2037.0,2164.0,74.0,-3.0,
2049.0,2128.0,74.0,-3.0,
2120.0,2124.0,73.0,-3.0,
2104.0,2124.0,73.0,-3.0,
2081.0,2112.0,73.0,-3.0,
2098.0,2149.0,73.0,-3.0,
2087.0,2090.0,73.0,-3.0,
2070.0,2104.0,72.0,-2.0,
2073.0,2093.0,72.0,-2.0,
2075.0,2116.0,72.0,-2.0,
2074.0,2122.0,72.0,-2.0,
2085.0,2114.0,72.0,-2.0,
2101.0,2102.0,72.0,-2.0,
2079.0,2093.0,72.0,-2.0,
2077.0,2095.0,72.0,-2.0,
2124.0,2083.0,72.0,-2.0,
2079.0,2076.0,71.0,-2.0,
2075.0,2102.0,71.0,-2.0,
2095.0,2108.0,71.0,-2.0,
2089.0,2075.0,71.0,-2.0,
2093.0,2125.0,71.0,-2.0,
2088.0,2143.0,71.0,-2.0,
2091.0,2131.0,71.0,-2.0,
2074.0,2114.0,71.0,-2.0,
2074.0,2103.0,71.0,-2.0,
2076.0,2104.0,71.0,-2.0,
2081.0,2170.0,71.0,-2.0,
2074.0,2159.0,71.0,-2.0,
2065.0,2084.0,71.0,-2.0,
2076.0,2044.0,71.0,-2.0,
2104.0,2060.0,71.0,-2.0,
2079.0,2061.0,71.0,-2.0,
2083.0,2100.0,71.0,-2.0,
2065.0,2045.0,71.0,-2.0,
2115.0,2145.0,71.0,-2.0,
2106.0,2136.0,71.0,-2.0,
2087.0,2147.0,71.0,-2.0,
2097.0,2119.0,71.0,-2.0,
2087.0,2068.0,71.0,-2.0,
2081.0,2106.0,71.0,-2.0,
2092.0,2144.0,71.0,-2.0,
2072.0,2111.0,71.0,-2.0,
2097.0,2061.0,70.0,-2.0,
2091.0,2098.0,70.0,-2.0,
2052.0,2126.0,70.0,-2.0,
2079.0,2132.0,70.0,-2.0,
2091.0,2146.0,70.0,-2.0,
2053.0,2090.0,70.0,-2.0,
2070.0,2092.0,70.0,-2.0,
2072.0,2104.0,70.0,-2.0,
2074.0,2105.0,70.0,-2.0,
2075.0,2102.0,70.0,-2.0,
2072.0,2111.0,70.0,-3.0,
2087.0,2116.0,70.0,-3.0,
2107.0,2124.0,69.0,-3.0,
2098.0,2119.0,69.0,-3.0,
2092.0,2123.0,69.0,-2.0,
2095.0,2113.0,69.0,-3.0,
2094.0,2109.0,69.0,-3.0,
2106.0,2108.0,69.0,-3.0,
2074.0,2099.0,69.0,-3.0,
2096.0,2100.0,69.0,-3.0,
2083.0,2107.0,69.0,-3.0,
2097.0,2132.0,69.0,-3.0,
2073.0,2101.0,69.0,-3.0,
2075.0,2147.0,69.0,-3.0,
2102.0,2080.0,69.0,-3.0,
2085.0,2089.0,69.0,-3.0,
2080.0,2097.0,69.0,-3.0,
2090.0,2115.0,70.0,-3.0,
2083.0,2114.0,70.0,-2.0,
2061.0,2113.0,70.0,-2.0,
2075.0,2189.0,70.0,-2.0,
2083.0,2068.0,70.0,-2.0,
2072.0,2124.0,70.0,-2.0,
2084.0,2099.0,70.0,-2.0,
2101.0,2129.0,70.0,-2.0,
2078.0,2064.0,70.0,-2.0,
2067.0,2127.0,70.0,-2.0,
2113.0,2144.0,70.0,-2.0,
2101.0,2161.0,70.0,-2.0,
2089.0,2135.0,70.0,-2.0,
2061.0,2049.0,70.0,-2.0,
2081.0,2074.0,70.0,-2.0,
2074.0,2043.0,70.0,-3.0,
2077.0,2076.0,70.0,-2.0,
2082.0,2081.0,70.0,-2.0,
2082.0,2114.0,70.0,-2.0,
2086.0,2153.0,69.0,-2.0,
2094.0,2088.0,69.0,-2.0,
2068.0,2096.0,69.0,-2.0,
2097.0,2113.0,69.0,-2.0,
2087.0,2118.0,68.0,-2.0,
2087.0,2122.0,68.0,-2.0,
2077.0,2127.0,68.0,-2.0,
2064.0,2149.0,67.0,-2.0,
2081.0,2147.0,67.0,-2.0,
2078.0,2147.0,67.0,-2.0,
2085.0,2151.0,66.0,-2.0,
2088.0,2115.0,66.0,-2.0,
2102.0,2116.0,66.0,-2.0,
2088.0,2102.0,66.0,-2.0,
2098.0,2100.0,65.0,-2.0,
2084.0,2094.0,65.0,-2.0,
2059.0,2102.0,65.0,-2.0,
2069.0,2138.0,64.0,-3.0,
2114.0,2118.0,64.0,-3.0,
2103.0,2082.0,63.0,-4.0,
2097.0,2120.0,62.0,-4.0,
2095.0,2102.0,62.0,-4.0,
2090.0,2094.0,61.0,-4.0,
2109.0,2146.0,60.0,-4.0,
2070.0,2078.0,59.0,-4.0,
2053.0,2099.0,59.0,-4.0,
2081.0,2100.0,58.0,-4.0,
2076.0,2092.0,58.0,-3.0,
2102.0,2113.0,58.0,-3.0,
2100.0,2131.0,58.0,-2.0,
2094.0,2096.0,59.0,-2.0,
2086.0,2100.0,59.0,-1.0,
2061.0,2110.0,59.0,-1.0,
2068.0,2124.0,60.0,-1.0,
2088.0,2113.0,60.0,-1.0,
2086.0,2122.0,61.0,-1.0,
2120.0,2171.0,61.0,-1.0,
2068.0,2158.0,61.0,-2.0,
2083.0,2056.0,62.0,-2.0,
2060.0,2073.0,62.0,-2.0,
2084.0,2133.0,62.0,-2.0,
2081.0,2107.0,63.0,-2.0,
2108.0,2138.0,63.0,-2.0,
2079.0,2041.0,0,
2068.0,1993.0,63.0,-2.0,
2069.0,2054.0,63.0,-2.0,
2107.0,2116.0,63.0,-2.0,
2114.0,2108.0,63.0,-2.0,
2096.0,2118.0,63.0,-2.0,
2075.0,2120.0,63.0,-2.0,
2091.0,2110.0,63.0,-2.0,
2092.0,2117.0,63.0,-2.0,
2094.0,2134.0,63.0,-2.0,
2088.0,2152.0,63.0,-2.0,
2070.0,2140.0,63.0,-2.0,
2073.0,2136.0,63.0,-2.0,
2081.0,2128.0,63.0,-2.0,
2075.0,2120.0,63.0,-2.0,
2076.0,2127.0,63.0,-2.0,
2085.0,2107.0,63.0,-2.0,
2089.0,2117.0,63.0,-2.0,
2075.0,2119.0,63.0,-2.0,
2086.0,2131.0,63.0,-2.0,
2091.0,2120.0,63.0,-2.0,
2091.0,2113.0,64.0,-2.0,
2085.0,2105.0,64.0,-2.0,
2082.0,2104.0,64.0,-2.0,
2057.0,2082.0,64.0,-2.0,
2080.0,2096.0,64.0,-2.0,
2073.0,2103.0,65.0,-2.0,
2085.0,2111.0,65.0,-2.0,
2085.0,2119.0,65.0,-2.0,
2108.0,2114.0,65.0,-2.0,
2082.0,2113.0,65.0,-2.0,
2098.0,2092.0,66.0,-2.0,
2086.0,2089.0,66.0,-2.0,
2078.0,2101.0,66.0,-2.0,
2086.0,2107.0,66.0,-2.0,
2086.0,2117.0,66.0,-2.0,
2091.0,2102.0,66.0,-2.0,
2095.0,2109.0,66.0,-2.0,
2082.0,2127.0,66.0,-2.0,
2129.0,2063.0,66.0,-2.0,
2070.0,2100.0,66.0,-2.0,
2079.0,2093.0,66.0,-2.0,
2084.0,2102.0,66.0,-2.0,
2111.0,2100.0,67.0,-2.0,
2065.0,2144.0,67.0,-2.0,
2057.0,2115.0,66.0,-2.0,
2070.0,2130.0,67.0,-2.0,
2082.0,2118.0,67.0,-2.0,
2099.0,2105.0,66.0,-2.0,
2081.0,2091.0,66.0,-2.0,
2070.0,2092.0,66.0,-2.0,
2087.0,2100.0,66.0,-2.0,
2085.0,2115.0,66.0,-2.0,
2072.0,2072.0,66.0,-2.0,
2096.0,2120.0,66.0,-2.0,
2080.0,2119.0,66.0,-2.0,
2104.0,2107.0,66.0,-2.0,
2085.0,2106.0,66.0,-2.0,
2101.0,2098.0,66.0,-2.0,
2075.0,2071.0,66.0,-2.0,
2080.0,2097.0,66.0,-2.0,
2093.0,2103.0,66.0,-2.0,
2081.0,2126.0,66.0,-2.0,
2100.0,2154.0,66.0,-2.0,
2083.0,2160.0,66.0,-2.0,
2086.0,2152.0,66.0,-2.0,
2069.0,2138.0,66.0,-2.0,
2084.0,2129.0,66.0,-2.0,
2071.0,2064.0,66.0,-2.0,
2065.0,2117.0,66.0,-2.0,
2070.0,2099.0,66.0,-2.0,
2101.0,2109.0,66.0,-2.0,
2085.0,2141.0,66.0,-2.0,
2094.0,2110.0,66.0,-2.0,
2089.0,2106.0,66.0,-2.0,
2083.0,2108.0,66.0,-2.0,
2091.0,2086.0,66.0,-2.0,
2070.0,2151.0,66.0,-2.0,
2100.0,2151.0,66.0,-2.0,
2060.0,2015.0,66.0,-2.0,
2064.0,2067.0,66.0,-2.0,
2105.0,2104.0,66.0,-2.0,
2076.0,2046.0,66.0,-2.0,
2092.0,2087.0,65.0,-2.0,
2091.0,2083.0,65.0,-2.0,
2087.0,2097.0,65.0,-2.0,
2097.0,2109.0,65.0,-2.0,
2094.0,2122.0,65.0,-2.0,
2095.0,2131.0,65.0,-2.0,
2105.0,2142.0,65.0,-2.0,
2110.0,2153.0,64.0,-2.0,
2109.0,2144.0,64.0,-2.0,
2095.0,2105.0,64.0,-2.0,
2069.0,2099.0,64.0,-2.0,
2070.0,2108.0,64.0,-2.0,
2081.0,2115.0,63.0,-2.0,
2081.0,2128.0,63.0,-2.0,
2082.0,2141.0,63.0,-2.0,
2080.0,2129.0,63.0,-2.0,
2080.0,2134.0,63.0,-2.0,
2107.0,2112.0,63.0,-2.0,
2078.0,2104.0,63.0,-2.0,
2084.0,2104.0,63.0,-2.0,
2078.0,2103.0,63.0,-2.0,
2070.0,2103.0,63.0,-2.0,
2082.0,2114.0,63.0,-2.0,
2077.0,2115.0,63.0,-2.0,
2089.0,2129.0,63.0,-2.0,
2079.0,2123.0,63.0,-2.0,
2072.0,2104.0,63.0,-2.0,
2081.0,2108.0,63.0,-2.0,
2086.0,2083.0,63.0,-2.0,
2080.0,2116.0,63.0,-2.0,
2087.0,2071.0,63.0,-2.0,
2088.0,2119.0,63.0,-2.0,
2091.0,2139.0,63.0,-2.0,
2067.0,2112.0,64.0,-2.0,
2078.0,2116.0,64.0,-2.0,
2080.0,2101.0,64.0,-2.0,
2077.0,2084.0,64.0,-2.0,
2076.0,2092.0,64.0,-2.0,
2082.0,2115.0,64.0,-2.0,
2079.0,2107.0,64.0,-2.0,
2081.0,2131.0,64.0,-2.0,
2076.0,2092.0,64.0,-2.0,
2085.0,2119.0,64.0,-2.0,
2080.0,2148.0,64.0,-2.0,
2097.0,2121.0,64.0,-2.0,
2079.0,2097.0,64.0,-2.0,
2078.0,2106.0,65.0,-2.0,
2074.0,2106.0,65.0,-2.0,
2080.0,2119.0,65.0,-2.0,
2128.0,2124.0,65.0,-2.0,
2089.0,2118.0,65.0,-2.0,
2065.0,2121.0,65.0,-2.0,
2100.0,2105.0,65.0,-2.0,
2072.0,2074.0,65.0,-2.0,
2065.0,2102.0,65.0,-2.0,
2063.0,2127.0,65.0,-2.0,
2092.0,2150.0,65.0,-2.0,
2083.0,2153.0,65.0,-2.0,
2063.0,2115.0,65.0,-2.0,
2018.0,2085.0,65.0,-2.0,
2055.0,2106.0,65.0,-2.0,
2086.0,2070.0,65.0,-2.0,
2077.0,2114.0,65.0,-2.0,
2067.0,2098.0,65.0,-2.0,
2063.0,2118.0,65.0,-2.0,
2091.0,2177.0,65.0,-2.0,
2115.0,2118.0,65.0,-2.0,
2095.0,2081.0,65.0,-2.0,
2080.0,2074.0,65.0,-2.0,
2078.0,2118.0,65.0,-2.0,
2087.0,2086.0,65.0,-2.0,
2074.0,2081.0,65.0,-2.0,
2075.0,2111.0,65.0,-2.0,
2104.0,2122.0,64.0,-2.0,
2071.0,2124.0,64.0,-2.0,
2093.0,2131.0,64.0,-2.0,
2089.0,2141.0,64.0,-2.0,
2097.0,2136.0,64.0,-2.0,
2082.0,2124.0,64.0,-2.0,
2081.0,2111.0,64.0,-2.0,
2081.0,2099.0,64.0,-2.0,
2080.0,2106.0,64.0,-2.0,
2065.0,2126.0,64.0,-2.0,
2083.0,2099.0,64.0,-2.0,
2084.0,2122.0,0,
2082.0,2113.0,64.0,-2.0,
2086.0,2105.0,64.0,-2.0,
2100.0,2102.0,64.0,-2.0,
2097.0,2093.0,64.0,-2.0,
2088.0,2100.0,64.0,-2.0,
2090.0,2101.0,64.0,-2.0,
2074.0,2103.0,64.0,-2.0,
2086.0,2127.0,64.0,-2.0,
2084.0,2117.0,64.0,-2.0,
2099.0,2117.0,64.0,-2.0,
2089.0,2106.0,64.0,-2.0,
2107.0,2098.0,64.0,-2.0,
2086.0,2097.0,64.0,-2.0,
2085.0,2093.0,64.0,-2.0,
2078.0,2108.0,64.0,-2.0,
2088.0,2109.0,64.0,-2.0,
2088.0,2129.0,65.0,-2.0,
2085.0,2128.0,65.0,-2.0,
2086.0,2122.0,65.0,-2.0,
2103.0,2113.0,65.0,-2.0,
2076.0,2104.0,65.0,-2.0,
2078.0,2090.0,65.0,-2.0,
2097.0,2103.0,65.0,-2.0,
2068.0,2111.0,65.0,-2.0,
2079.0,2123.0,65.0,-2.0,
2076.0,2108.0,65.0,-2.0,
2069.0,2143.0,65.0,-2.0,
2102.0,2097.0,65.0,-2.0,
2094.0,2105.0,65.0,-2.0,
2092.0,2094.0,65.0,-2.0,
2073.0,2100.0,65.0,-2.0,
2094.0,2119.0,65.0,-2.0,
2053.0,2146.0,65.0,-2.0,
2054.0,2128.0,65.0,-2.0,
2091.0,2099.0,65.0,-2.0,
2104.0,2148.0,65.0,-2.0,
2077.0,2133.0,65.0,-2.0,
2103.0,2060.0,65.0,-2.0,
2075.0,2100.0,65.0,-2.0,
2100.0,2157.0,65.0,-2.0,
2073.0,2058.0,65.0,-2.0,
2068.0,2093.0,65.0,-2.0,
2065.0,2097.0,65.0,-2.0,
2122.0,2140.0,64.0,-2.0,
2114.0,2089.0,64.0,-2.0,
2090.0,2112.0,64.0,-2.0,
2098.0,2133.0,64.0,-2.0,
2091.0,2158.0,64.0,-2.0,
2074.0,2059.0,64.0,-2.0,
2070.0,2057.0,64.0,-2.0,
2097.0,2110.0,64.0,-2.0,
2080.0,2130.0,64.0,-2.0,
2094.0,2146.0,64.0,-2.0,
2096.0,2121.0,64.0,-2.0,
2103.0,2110.0,64.0,-2.0,
2105.0,2106.0,64.0,-2.0,
2090.0,2100.0,64.0,-2.0,
2082.0,2107.0,64.0,-2.0,
2077.0,2119.0,64.0,-2.0,
2087.0,2126.0,64.0,-2.0,
2090.0,2130.0,64.0,-2.0,
2092.0,2124.0,64.0,-2.0,
2098.0,2114.0,64.0,-2.0,
2089.0,2106.0,64.0,-2.0,
2094.0,2105.0,64.0,-2.0,
2076.0,2100.0,64.0,-2.0,
2082.0,2123.0,64.0,-2.0,
2090.0,2112.0,64.0,-2.0,
2089.0,2131.0,64.0,-2.0,
2098.0,2109.0,64.0,-2.0,
2095.0,2127.0,64.0,-2.0,
2079.0,2090.0,64.0,-2.0,
2084.0,2084.0,64.0,-2.0,
2084.0,2099.0,64.0,-2.0,
2072.0,2076.0,64.0,-2.0,
2080.0,2103.0,64.0,-2.0,
2079.0,2109.0,64.0,-2.0,
2063.0,2119.0,64.0,-2.0,
2078.0,2119.0,64.0,-2.0,
2094.0,2112.0,64.0,-2.0,
2096.0,2101.0,64.0,-2.0,
2089.0,2087.0,64.0,-2.0,
2091.0,2089.0,64.0,-2.0,
2055.0,2097.0,64.0,-2.0,
2081.0,2113.0,64.0,-2.0,
2085.0,2112.0,64.0,-2.0,
2088.0,2136.0,64.0,-2.0,
2076.0,2119.0,64.0,-2.0,
2091.0,2115.0,64.0,-2.0,
2096.0,2103.0,64.0,-2.0,
2095.0,2102.0,64.0,-2.0,
2085.0,2106.0,64.0,-2.0,
2072.0,2101.0,64.0,-2.0,
2078.0,2116.0,64.0,-2.0,
2098.0,2122.0,64.0,-2.0,
2080.0,2125.0,64.0,-2.0,
2080.0,2125.0,64.0,-2.0,
2096.0,2104.0,64.0,-2.0,
2089.0,2099.0,65.0,-2.0,
2094.0,2102.0,65.0,-2.0,
2102.0,2098.0,65.0,-2.0,
2071.0,2095.0,64.0,-2.0,
2082.0,2117.0,64.0,-2.0,
2082.0,2131.0,64.0,-2.0,
2075.0,2128.0,64.0,-2.0,
2085.0,2120.0,64.0,-2.0,
2078.0,2104.0,64.0,-2.0,
2094.0,2106.0,64.0,-2.0,
2086.0,2091.0,64.0,-2.0,
2081.0,2113.0,64.0,-2.0,
2093.0,2138.0,64.0,-2.0,
2092.0,2070.0,64.0,-2.0,
2074.0,2123.0,64.0,-2.0,
2091.0,2105.0,64.0,-2.0,
2114.0,2113.0,64.0,-2.0,
2088.0,2120.0,64.0,-2.0,
2076.0,2079.0,64.0,-2.0,
2068.0,2092.0,64.0,-2.0,
2048.0,2135.0,64.0,-2.0,
2101.0,2059.0,64.0,-2.0,
2071.0,2122.0,64.0,-2.0,
2085.0,2146.0,64.0,-2.0,
2092.0,2102.0,64.0,-2.0,
2105.0,2122.0,64.0,-2.0,
2064.0,2088.0,64.0,-2.0,
2105.0,2109.0,64.0,-2.0,
2085.0,2086.0,64.0,-2.0,
2084.0,2100.0,64.0,-2.0,
2088.0,2113.0,64.0,-2.0,
2083.0,2121.0,64.0,-2.0,
2103.0,2126.0,64.0,-2.0,
2085.0,2112.0,64.0,-2.0,
2085.0,2110.0,64.0,-2.0,
2080.0,2060.0,64.0,-2.0,
2078.0,2119.0,64.0,-2.0,
2072.0,2106.0,63.0,-2.0,
2093.0,2107.0,63.0,-2.0,
2087.0,2112.0,0,
2067.0,2122.0,63.0,-2.0,
2102.0,2130.0,63.0,-2.0,
2081.0,2120.0,63.0,-2.0,
2076.0,2122.0,63.0,-2.0,
2083.0,2084.0,63.0,-2.0,
2068.0,2096.0,63.0,-2.0,
2063.0,2113.0,63.0,-2.0,
2076.0,2132.0,63.0,-2.0,
2082.0,2075.0,63.0,-2.0,
2095.0,2134.0,63.0,-2.0,
2077.0,2097.0,63.0,-2.0,
2079.0,2094.0,63.0,-2.0,
2073.0,2098.0,63.0,-2.0,
2074.0,2127.0,64.0,-2.0,
2065.0,2076.0,64.0,-2.0,
2065.0,2126.0,64.0,-2.0,
2081.0,2124.0,64.0,-2.0,
2084.0,2091.0,64.0,-2.0,
2083.0,2100.0,64.0,-2.0,
2079.0,2123.0,64.0,-2.0,
2077.0,2106.0,64.0,-2.0,
2087.0,2107.0,64.0,-2.0,
2082.0,2097.0,63.0,-2.0,
2082.0,2109.0,64.0,0.0,
2085.0,2109.0,63.0,-1.0,
2104.0,2122.0,63.0,-2.0,
2090.0,2136.0,63.0,-2.0,
2088.0,2103.0,64.0,-2.0,
2082.0,2108.0,64.0,-2.0,
2081.0,2102.0,63.0,-2.0,
2086.0,2093.0,63.0,-2.0,
2083.0,2097.0,63.0,-2.0,
2076.0,2097.0,63.0,-2.0,
2071.0,2103.0,63.0,-4.0,
2065.0,2113.0,64.0,-4.0,
2080.0,2132.0,64.0,-3.0,
2095.0,2111.0,63.0,-2.0,
2116.0,2107.0,63.0,-2.0,
2087.0,2112.0,63.0,-2.0,
2099.0,2095.0,63.0,-2.0,
2110.0,2113.0,63.0,-2.0,
2090.0,2133.0,63.0,-2.0,
2087.0,2129.0,64.0,-2.0,
2071.0,2145.0,63.0,-2.0,
2072.0,2099.0,64.0,-2.0,
2068.0,2111.0,64.0,-2.0,
2097.0,2104.0,64.0,-2.0,
2107.0,2096.0,64.0,-2.0,
2093.0,2087.0,64.0,-2.0,
2083.0,2101.0,64.0,-2.0,
2073.0,2113.0,64.0,-2.0,
2087.0,2100.0,64.0,-2.0,
2087.0,2171.0,64.0,-2.0,
2084.0,2097.0,64.0,-2.0,
2083.0,2118.0,64.0,-2.0,
2121.0,2097.0,64.0,-2.0,
2080.0,2063.0,63.0,-2.0,
2050.0,2102.0,64.0,-2.0,
2076.0,2097.0,63.0,-2.0,
2096.0,2114.0,63.0,-2.0,
2086.0,2128.0,64.0,-2.0,
2098.0,2176.0,64.0,-2.0,
2108.0,2031.0,63.0,-2.0,
2056.0,2126.0,63.0,-2.0,
2071.0,2113.0,63.0,-2.0,
2088.0,2102.0,63.0,-2.0,
2092.0,2102.0,63.0,-2.0,
2082.0,2113.0,63.0,-2.0,
2083.0,2124.0,63.0,-2.0,
2093.0,2120.0,63.0,-2.0,
2093.0,2135.0,63.0,-2.0,
2090.0,2093.0,63.0,-1.0,
2090.0,2100.0,63.0,-1.0,
2109.0,2152.0,63.0,-2.0,
2076.0,2088.0,63.0,-2.0,
2050.0,2080.0,63.0,-2.0,
2074.0,2099.0,63.0,-2.0,
2074.0,2117.0,63.0,-2.0,
2070.0,2122.0,63.0,-2.0,
2092.0,2116.0,63.0,-2.0,
2087.0,2108.0,63.0,-2.0,
2081.0,2104.0,63.0,-3.0,
2097.0,2085.0,63.0,-3.0,
2091.0,2091.0,63.0,-2.0,
2073.0,2102.0,63.0,-2.0,
2058.0,2114.0,63.0,-2.0,
2082.0,2126.0,63.0,-2.0,
2079.0,2126.0,63.0,-2.0,
2102.0,2129.0,63.0,-2.0,
2102.0,2119.0,63.0,-2.0,
2114.0,2116.0,63.0,-2.0,
2096.0,2093.0,63.0,-2.0,
2081.0,2086.0,63.0,-2.0,
2096.0,2112.0,63.0,-2.0,
2095.0,2114.0,63.0,-2.0,
2069.0,2119.0,63.0,-2.0,
2104.0,2121.0,64.0,-2.0,
2093.0,2139.0,64.0,-2.0,
2115.0,2121.0,64.0,-2.0,
2079.0,2118.0,64.0,-2.0,
2124.0,2107.0,64.0,-2.0,
2060.0,2063.0,64.0,-2.0,
2041.0,2124.0,64.0,-2.0,
2076.0,2119.0,64.0,-2.0,
2097.0,2087.0,64.0,-2.0,
2076.0,2119.0,64.0,-2.0,
2095.0,2110.0,64.0,-2.0,
2072.0,2121.0,64.0,-2.0,
2094.0,2121.0,64.0,-2.0,
2110.0,2100.0,64.0,-2.0,
2083.0,2086.0,64.0,-2.0,
2083.0,2120.0,64.0,-2.0,
2085.0,2135.0,64.0,-2.0,
2101.0,2155.0,64.0,-2.0,
2103.0,2089.0,64.0,-2.0,
2052.0,2131.0,64.0,-2.0,
2090.0,2076.0,64.0,-2.0,
2086.0,2101.0,64.0,-2.0,
2076.0,2140.0,64.0,-2.0,
2083.0,2136.0,63.0,-2.0,
2074.0,2084.0,63.0,-2.0,
2083.0,2123.0,63.0,-2.0,
2087.0,2112.0,63.0,-2.0,
2090.0,2131.0,63.0,-2.0,
2088.0,2049.0,63.0,-2.0,
2072.0,2128.0,63.0,-2.0,
2091.0,2158.0,63.0,-2.0,
2075.0,2041.0,63.0,-2.0,
2083.0,2072.0,63.0,-2.0,
2090.0,2131.0,63.0,-2.0,
2091.0,2105.0,63.0,-2.0,
2092.0,2128.0,63.0,-2.0,
2094.0,2092.0,63.0,-2.0,
2075.0,2115.0,63.0,-2.0,
2089.0,2121.0,63.0,-2.0,
2105.0,2088.0,63.0,-2.0,
2071.0,2104.0,63.0,-2.0,
2093.0,2111.0,63.0,-2.0,
2087.0,2122.0,63.0,-2.0,
2093.0,2128.0,63.0,-2.0,
2097.0,2128.0,63.0,-2.0,
2072.0,2139.0,63.0,-2.0,
2091.0,2120.0,63.0,-2.0,
2118.0,2118.0,63.0,-2.0,
2082.0,2088.0,63.0,-2.0,
2083.0,2102.0,63.0,-2.0,
2070.0,2098.0,63.0,-2.0,
2080.0,2112.0,63.0,-2.0,
2079.0,2140.0,63.0,-2.0,
2093.0,2143.0,63.0,-2.0,
2081.0,2066.0,63.0,-2.0,
2074.0,2114.0,63.0,-2.0,
2089.0,2080.0,63.0,-2.0,
2086.0,2101.0,63.0,-2.0,
2051.0,2079.0,63.0,-2.0,
2077.0,2117.0,63.0,-2.0,
2106.0,2141.0,63.0,-2.0,
2067.0,2138.0,63.0,-2.0,
2093.0,2121.0,64.0,-2.0,
2077.0,2116.0,64.0,-2.0,
2085.0,2099.0,64.0,-2.0,
2081.0,2102.0,64.0,-2.0,
2075.0,2101.0,64.0,-2.0,
2080.0,2108.0,64.0,-2.0,
2072.0,2139.0,64.0,-2.0,
2069.0,2131.0,64.0,-2.0,
2098.0,2128.0,64.0,-2.0,
2079.0,2136.0,64.0,-2.0,
2096.0,2089.0,64.0,-2.0,
2095.0,2121.0,64.0,-2.0,
2113.0,2125.0,64.0,-2.0,
2089.0,2065.0,64.0,-2.0,
2069.0,2109.0,64.0,-2.0,
2056.0,2108.0,64.0,-2.0,
2084.0,2123.0,64.0,-2.0,
2093.0,2132.0,64.0,-2.0,
2106.0,2099.0,64.0,-2.0,
2097.0,2105.0,64.0,-2.0,
2091.0,2091.0,64.0,-2.0,
2132.0,2108.0,64.0,-2.0,
2110.0,2124.0,64.0,-2.0,
2104.0,2117.0,64.0,-2.0,
2074.0,2122.0,64.0,-2.0,
2073.0,2109.0,64.0,-2.0,
2066.0,2102.0,64.0,-2.0,
2065.0,2131.0,64.0,-2.0,
2089.0,2175.0,64.0,-2.0,
2095.0,2008.0,64.0,-2.0,
2054.0,2087.0,64.0,-2.0,
2055.0,2088.0,64.0,-2.0,
2084.0,2134.0,64.0,-2.0,
2082.0,2123.0,63.0,-2.0,
2084.0,2193.0,63.0,-2.0,
2084.0,2075.0,63.0,-2.0,
2092.0,2060.0,63.0,-2.0,
2067.0,2099.0,63.0,-2.0,
2082.0,2091.0,63.0,-2.0,
2072.0,2063.0,63.0,-2.0,
2093.0,2088.0,63.0,-2.0,
2083.0,2077.0,63.0,-2.0,
2071.0,2105.0,63.0,-2.0,
2081.0,2162.0,63.0,-2.0,
2114.0,2154.0,63.0,-2.0,
2092.0,2082.0,63.0,-2.0,
2072.0,2143.0,63.0,-2.0,
2088.0,2132.0,63.0,-2.0,
2097.0,2120.0,63.0,-2.0,
2070.0,2124.0,63.0,-2.0,
2101.0,2146.0,63.0,-2.0,
2078.0,2078.0,63.0,-2.0,
2081.0,2098.0,63.0,-2.0,
2084.0,2124.0,63.0,-2.0,
2070.0,2147.0,63.0,-2.0,
2091.0,2110.0,63.0,-2.0,
2074.0,2039.0,63.0,-2.0,
2071.0,2062.0,63.0,-2.0,
2071.0,2051.0,63.0,-2.0,
2060.0,2181.0,63.0,-2.0,
2090.0,2148.0,63.0,-2.0,
2074.0,2153.0,63.0,-2.0,
2087.0,2132.0,63.0,-2.0,
2097.0,2121.0,63.0,-2.0,
2091.0,2188.0,63.0,-2.0,
2075.0,2125.0,63.0,-2.0,
2077.0,2036.0,63.0,-2.0,
2088.0,1974.0,63.0,-2.0,
2086.0,2099.0,63.0,-2.0,
2081.0,2126.0,63.0,-2.0,
2068.0,2096.0,63.0,-2.0,
2073.0,2153.0,64.0,-2.0,
2084.0,2064.0,64.0,-2.0,
2088.0,2087.0,64.0,-2.0,
2087.0,2136.0,64.0,-2.0,
2104.0,2063.0,64.0,-2.0,
2090.0,2087.0,64.0,-2.0,
2095.0,2190.0,64.0,-2.0,
2098.0,2199.0,64.0,-2.0,
2099.0,2162.0,64.0,-2.0,
2077.0,2028.0,63.0,-2.0,
2091.0,2118.0,63.0,-2.0,
2090.0,2115.0,63.0,-2.0,
2067.0,2126.0,63.0,-2.0,
2094.0,2121.0,63.0,-2.0,
2085.0,2118.0,63.0,-2.0,
2076.0,2039.0,63.0,-2.0,
2142.0,2091.0,63.0,-1.0,
2117.0,2238.0,63.0,-1.0,
2102.0,2246.0,63.0,-2.0,
2087.0,2040.0,63.0,-2.0,
2066.0,1999.0,63.0,-2.0,
2096.0,1984.0,63.0,-2.0,
2069.0,2054.0,63.0,-2.0,
2056.0,2149.0,63.0,-2.0,
2083.0,2173.0,63.0,-2.0,
2063.0,2158.0,63.0,-2.0,
2048.0,2149.0,63.0,-3.0,
2054.0,2129.0,63.0,-3.0,
2072.0,2080.0,63.0,-2.0,
2056.0,2092.0,63.0,-2.0,
2099.0,2105.0,63.0,-2.0,
2089.0,2099.0,63.0,-2.0,
2154.0,2149.0,63.0,-2.0,
2149.0,1985.0,63.0,-2.0,
2092.0,2098.0,63.0,-2.0,
2064.0,2054.0,63.0,-2.0,
2060.0,2124.0,63.0,-2.0,
2080.0,2067.0,63.0,-2.0,
2056.0,2108.0,63.0,-2.0,
2104.0,2119.0,63.0,-2.0,
2071.0,2159.0,63.0,-2.0,
2071.0,2149.0,63.0,-2.0,
2069.0,2142.0,63.0,-2.0,
2063.0,2138.0,63.0,-2.0,
2090.0,2128.0,64.0,-2.0,
2097.0,2079.0,64.0,-2.0,
2077.0,2057.0,64.0,-2.0,
2083.0,2113.0,64.0,-2.0,
2100.0,2231.0,64.0,-2.0,
2034.0,2068.0,64.0,-2.0,
2045.0,2200.0,64.0,-2.0,
2072.0,2134.0,64.0,-2.0,
2046.0,2085.0,64.0,-2.0,
2106.0,2068.0,64.0,-2.0,
2156.0,2022.0,64.0,-2.0,
2089.0,2142.0,64.0,-2.0,
2080.0,2213.0,64.0,-2.0,
2080.0,2049.0,64.0,-2.0,
2066.0,2114.0,64.0,-2.0,
2128.0,2141.0,64.0,-2.0,
2129.0,2077.0,64.0,-2.0,
2127.0,2119.0,64.0,-2.0,
2101.0,2102.0,64.0,-2.0,
2060.0,2135.0,64.0,-2.0,
2049.0,2229.0,64.0,-2.0,
2096.0,2171.0,64.0,-2.0,
2064.0,1959.0,64.0,-2.0,
2108.0,1869.0,64.0,-2.0,
2067.0,2007.0,64.0,-2.0,
2049.0,2162.0,64.0,-2.0,
2045.0,2176.0,64.0,-2.0,
2050.0,2058.0,64.0,-2.0,
2089.0,2147.0,64.0,-2.0,
2121.0,2151.0,64.0,-2.0,
2086.0,2168.0,64.0,-2.0,
2069.0,2140.0,64.0,-2.0,
2068.0,2134.0,64.0,-2.0,
2081.0,2126.0,64.0,-2.0,
2112.0,2112.0,64.0,-2.0,
2104.0,2198.0,64.0,-2.0,
2091.0,2207.0,64.0,-2.0,
2074.0,2133.0,64.0,-2.0,
2057.0,2198.0,64.0,-2.0,
2037.0,2098.0,64.0,-3.0,
2163.0,1961.0,64.0,-3.0,
2099.0,1870.0,64.0,-3.0,
2079.0,1852.0,64.0,-3.0,
2088.0,2059.0,64.0,-3.0,
2090.0,2260.0,64.0,-2.0,
2074.0,2149.0,64.0,-2.0,
2059.0,2122.0,64.0,-2.0,
2029.0,2145.0,64.0,-2.0,
2068.0,2138.0,64.0,-2.0,
2082.0,2101.0,64.0,-2.0,
2075.0,2199.0,64.0,-2.0,
2097.0,2048.0,65.0,-2.0,
2067.0,2116.0,65.0,-2.0,
2126.0,2130.0,65.0,-2.0,
2119.0,2109.0,65.0,-2.0,
2087.0,2183.0,65.0,-2.0,
2073.0,2051.0,65.0,-2.0,
2082.0,2132.0,64.0,-2.0,
2079.0,2119.0,64.0,-2.0,
2094.0,2144.0,64.0,-2.0,
2084.0,2101.0,64.0,-2.0,
2096.0,2060.0,64.0,-2.0,
2068.0,2063.0,64.0,-2.0,
2048.0,2137.0,64.0,-2.0,
2092.0,2155.0,64.0,-2.0,
2095.0,2165.0,64.0,-2.0,
2114.0,2189.0,64.0,-2.0,
2090.0,2126.0,64.0,-2.0,
2065.0,2107.0,64.0,-2.0,
2075.0,2201.0,64.0,-2.0,
2078.0,2090.0,64.0,-2.0,
2066.0,2062.0,64.0,-2.0,
2070.0,1943.0,64.0,-2.0,
2047.0,2112.0,64.0,-2.0,
2104.0,2152.0,64.0,-2.0,
2100.0,2045.0,65.0,-2.0,
2131.0,2039.0,65.0,-2.0,
2110.0,2186.0,65.0,-2.0,
2049.0,2076.0,65.0,-2.0,
2091.0,2089.0,65.0,-2.0,
2097.0,2095.0,65.0,-2.0,
2079.0,2121.0,65.0,-2.0,
2077.0,2022.0,65.0,-2.0,
2107.0,2079.0,65.0,-2.0,
2032.0,2151.0,65.0,-2.0,
2069.0,2173.0,64.0,-2.0,
2065.0,2193.0,64.0,-2.0,
2063.0,2116.0,64.0,-2.0,
2100.0,2176.0,64.0,-2.0,
2124.0,2204.0,64.0,-2.0,
2095.0,2169.0,0,
2073.0,2117.0,64.0,-2.0,
2075.0,1960.0,64.0,-2.0,
2047.0,1911.0,64.0,-2.0,
2094.0,2080.0,64.0,-3.0,
2077.0,2204.0,64.0,-3.0,
2088.0,2109.0,64.0,-3.0,
2078.0,2137.0,64.0,-3.0,
2081.0,2033.0,64.0,-3.0,
2047.0,2158.0,65.0,-3.0,
2034.0,2189.0,65.0,-3.0,
2065.0,2115.0,65.0,-3.0,
2109.0,2192.0,65.0,-3.0,
2134.0,2130.0,65.0,-3.0,
2095.0,2057.0,66.0,-3.0,
2069.0,2102.0,66.0,-3.0,
2077.0,2058.0,66.0,-3.0,
2069.0,2055.0,66.0,-3.0,
2123.0,2053.0,66.0,-3.0,
2088.0,2073.0,67.0,-3.0,
2096.0,2183.0,67.0,-3.0,
2080.0,2091.0,67.0,-3.0,
2089.0,2161.0,67.0,-3.0,
2090.0,2127.0,68.0,-3.0,
2089.0,2113.0,68.0,-3.0,
2109.0,2118.0,68.0,-3.0,
2122.0,2135.0,68.0,-3.0,
2078.0,2140.0,68.0,-3.0,
2087.0,2089.0,69.0,-3.0,
2060.0,2112.0,69.0,-3.0,
2089.0,2101.0,69.0,-3.0,
2111.0,2069.0,70.0,-3.0,
2073.0,2113.0,70.0,-3.0,
2080.0,2155.0,70.0,-3.0,
2074.0,2203.0,70.0,-3.0,
2107.0,2211.0,70.0,-3.0,
2091.0,2077.0,71.0,-3.0,
2043.0,2009.0,71.0,-3.0,
2059.0,2014.0,71.0,-3.0,
2062.0,2100.0,71.0,-3.0,
2063.0,2099.0,71.0,-3.0,
2083.0,2178.0,72.0,-4.0,
2071.0,2274.0,72.0,-3.0,
2049.0,1962.0,72.0,-3.0,
2056.0,2038.0,72.0,-2.0,
2108.0,2003.0,72.0,-2.0,
2105.0,2097.0,72.0,-2.0,
2116.0,2150.0,72.0,-2.0,
2068.0,2151.0,72.0,-3.0,
2121.0,2142.0,73.0,-3.0,
2129.0,2091.0,73.0,-3.0,
2075.0,2131.0,73.0,-2.0,
2085.0,1995.0,72.0,-2.0,
2095.0,2115.0,72.0,-3.0,
2059.0,2188.0,73.0,-3.0,
2086.0,2103.0,73.0,-4.0,
2077.0,2044.0,73.0,-4.0,
2118.0,2036.0,72.0,-4.0,
2088.0,2110.0,72.0,-4.0,
2071.0,2120.0,72.0,-4.0,
2078.0,2062.0,72.0,-4.0,
2080.0,2204.0,72.0,-4.0,
2087.0,2266.0,72.0,-4.0,
2092.0,2147.0,72.0,-4.0,
2066.0,2002.0,73.0,-4.0,
2117.0,2110.0,73.0,-4.0,
2094.0,2104.0,73.0,-4.0,
2098.0,2106.0,73.0,-4.0,
2109.0,2124.0,73.0,-4.0,
2075.0,2184.0,73.0,-4.0,
2124.0,2116.0,73.0,-4.0,
2074.0,2078.0,73.0,-4.0,
2062.0,2127.0,73.0,-4.0,
2103.0,2097.0,73.0,-4.0,
2107.0,2144.0,73.0,-4.0,
2113.0,2188.0,73.0,-4.0,
2092.0,2130.0,73.0,-4.0,
2052.0,2052.0,73.0,-4.0,
2046.0,2006.0,73.0,-4.0,
2082.0,2074.0,0,
2135.0,2140.0,74.0,-4.0,
2092.0,2219.0,74.0,-4.0,
2082.0,2066.0,74.0,-4.0,
2066.0,2156.0,74.0,-4.0,
2072.0,2095.0,74.0,-5.0,
2052.0,2075.0,74.0,-5.0,
2086.0,2090.0,74.0,-4.0,
2078.0,2043.0,75.0,-4.0,
2066.0,2112.0,75.0,-4.0,
2107.0,2174.0,75.0,-4.0,
2116.0,2205.0,75.0,-4.0,
2099.0,2203.0,75.0,-4.0,
2089.0,2130.0,75.0,-4.0,
2070.0,2029.0,76.0,-4.0,
2104.0,2209.0,76.0,-2.0,
2082.0,1961.0,76.0,-3.0,
2077.0,2050.0,76.0,-4.0,
2094.0,2062.0,76.0,-4.0,
2082.0,2096.0,76.0,-4.0,
2107.0,2075.0,76.0,-5.0,
2147.0,2268.0,76.0,-5.0,
2057.0,1941.0,76.0,-4.0,
2058.0,2101.0,76.0,-4.0,
2090.0,2138.0,76.0,-4.0,
2081.0,2115.0,76.0,-4.0,
2102.0,2060.0,76.0,-4.0,
2048.0,2127.0,77.0,-4.0,
2087.0,2175.0,77.0,-4.0,
2096.0,2198.0,77.0,-4.0,
2068.0,2105.0,77.0,-3.0,
2071.0,2075.0,77.0,-4.0,
2135.0,2016.0,77.0,-4.0,
2076.0,2032.0,77.0,-4.0,
2085.0,2091.0,77.0,-4.0,
2079.0,2226.0,77.0,-4.0,
2062.0,2151.0,77.0,-4.0,
2084.0,2135.0,77.0,-4.0,
2094.0,2155.0,77.0,-4.0,
2098.0,2196.0,77.0,-4.0,
2121.0,2270.0,77.0,-5.0,
2104.0,2083.0,77.0,-5.0,
2040.0,2084.0,77.0,-5.0,
2054.0,1951.0,77.0,-5.0,
2078.0,2037.0,77.0,-5.0,
2069.0,2139.0,77.0,-5.0,
2072.0,2073.0,77.0,-5.0,
2083.0,2150.0,78.0,-5.0,
2097.0,2198.0,78.0,-5.0,
2060.0,2165.0,78.0,-6.0,
2086.0,2083.0,78.0,-6.0,
2101.0,2066.0,78.0,-5.0,
2044.0,1982.0,78.0,-5.0,
2062.0,2054.0,78.0,-5.0,
2085.0,2128.0,78.0,-5.0,
2064.0,2147.0,78.0,-5.0,
2089.0,2021.0,78.0,-5.0,
2119.0,2113.0,78.0,-5.0,
2114.0,2192.0,78.0,-5.0,
2104.0,2177.0,79.0,-3.0,
2114.0,2004.0,79.0,-4.0,
2041.0,1994.0,79.0,-4.0,
2084.0,2158.0,79.0,-5.0,
2109.0,2107.0,79.0,-5.0,
2070.0,2134.0,79.0,-5.0,
2096.0,2204.0,79.0,-5.0,
2115.0,2124.0,79.0,-6.0,
2111.0,1999.0,79.0,-5.0,
2042.0,2102.0,79.0,-5.0,
2088.0,2170.0,79.0,-4.0,
2097.0,2210.0,79.0,-4.0,
2111.0,2048.0,80.0,-4.0,
2041.0,2104.0,80.0,-4.0,
2095.0,2192.0,80.0,-5.0,
2138.0,2109.0,80.0,-5.0,
2084.0,2172.0,80.0,-4.0,
2074.0,2074.0,80.0,-4.0,
2074.0,2086.0,80.0,-4.0,
2055.0,2006.0,80.0,-5.0,
2106.0,2180.0,80.0,-5.0,
2104.0,2199.0,80.0,-5.0,
2073.0,2111.0,80.0,-5.0,
2091.0,2078.0,80.0,-5.0,
2079.0,2062.0,80.0,-5.0,
2124.0,2008.0,80.0,-5.0,
2070.0,2016.0,80.0,-5.0,
2035.0,2012.0,80.0,-5.0,
2056.0,2237.0,80.0,-5.0,
2068.0,2217.0,80.0,-5.0,
2083.0,2138.0,80.0,-5.0,
2090.0,2047.0,80.0,-5.0,
2084.0,2103.0,80.0,-5.0,
2093.0,2255.0,80.0,-5.0,
2075.0,2131.0,80.0,-5.0,
2068.0,2156.0,80.0,-5.0,
2068.0,2125.0,80.0,-5.0,
2061.0,2002.0,80.0,-5.0,
2048.0,2068.0,80.0,-5.0,
2061.0,2088.0,80.0,-5.0,
2053.0,2062.0,80.0,-5.0,
2124.0,2074.0,80.0,-5.0,
2096.0,2100.0,80.0,-5.0,
2072.0,2245.0,80.0,-5.0,
2069.0,2076.0,80.0,-5.0,
2091.0,2020.0,80.0,-5.0,
2139.0,2011.0,81.0,-5.0,
2043.0,2014.0,81.0,-5.0,
2116.0,2123.0,81.0,-5.0,
2138.0,2123.0,81.0,-5.0,
2093.0,2074.0,81.0,-5.0,
2082.0,2085.0,81.0,-5.0,
2099.0,2213.0,81.0,-5.0,
2101.0,2213.0,81.0,-5.0,
2099.0,2142.0,0,
2100.0,2185.0,81.0,-5.0,
2147.0,2324.0,81.0,-5.0,
2063.0,2039.0,82.0,-5.0,
2053.0,2047.0,82.0,-5.0,
2092.0,2023.0,82.0,-5.0,
2088.0,2029.0,82.0,-5.0,
2109.0,2134.0,82.0,-5.0,
2137.0,2021.0,82.0,-5.0,
2118.0,2119.0,82.0,-5.0,
2091.0,2054.0,82.0,-5.0,
2028.0,2078.0,82.0,-5.0,
2034.0,2112.0,82.0,-5.0,
2092.0,2213.0,82.0,-5.0,
2053.0,2206.0,82.0,-5.0,
2075.0,2173.0,82.0,-5.0,
2115.0,2209.0,83.0,-5.0,
2111.0,2151.0,83.0,-5.0,
2104.0,2186.0,83.0,-6.0,
2137.0,2171.0,83.0,-6.0,
2082.0,1930.0,83.0,-6.0,
2037.0,2162.0,83.0,-6.0,
2108.0,2239.0,83.0,-6.0,
2054.0,1924.0,83.0,-6.0,
2061.0,1804.0,83.0,-6.0,
2106.0,1989.0,83.0,-7.0,
2077.0,2073.0,83.0,-6.0,
2053.0,2142.0,83.0,-6.0,
2091.0,2135.0,83.0,-5.0,
2060.0,2123.0,83.0,-5.0,
2090.0,2167.0,83.0,-6.0,
2082.0,2074.0,83.0,-6.0,
2034.0,1994.0,83.0,-6.0,
1976.0,2070.0,83.0,-6.0,
2008.0,2127.0,83.0,-6.0,
2058.0,2161.0,83.0,-5.0,
2080.0,2124.0,83.0,-5.0,
2148.0,2294.0,83.0,-6.0,
2120.0,2260.0,83.0,-6.0,
2101.0,2223.0,83.0,-6.0,
2125.0,2185.0,83.0,-6.0,
2120.0,2043.0,83.0,-6.0,
2125.0,2018.0,83.0,-6.0,
2095.0,2106.0,83.0,-6.0,
2107.0,2107.0,83.0,-6.0,
2082.0,2124.0,83.0,-6.0,
2109.0,2284.0,83.0,-6.0,
2054.0,2087.0,83.0,-6.0,
2043.0,2135.0,83.0,-6.0,
2080.0,2052.0,84.0,-6.0,
2126.0,2078.0,84.0,-6.0,
2094.0,1986.0,84.0,-6.0,
2027.0,2059.0,84.0,-6.0,
2059.0,2070.0,84.0,-6.0,
2082.0,2125.0,85.0,-6.0,
2058.0,2168.0,85.0,-6.0,
2035.0,2133.0,85.0,-6.0,
2064.0,1997.0,85.0,-6.0,
2092.0,2093.0,86.0,-6.0,
2116.0,2053.0,86.0,-6.0,
2118.0,2258.0,86.0,-6.0,
2124.0,2007.0,86.0,-6.0,
2088.0,2151.0,87.0,-6.0,
2084.0,2114.0,87.0,-6.0,
2049.0,2065.0,87.0,-6.0,
2088.0,2307.0,87.0,-7.0,
2076.0,2276.0,87.0,-6.0,
2048.0,2036.0,87.0,-6.0,
2067.0,1930.0,87.0,-6.0,
2104.0,1949.0,87.0,-6.0,
2057.0,2087.0,88.0,-6.0,
2024.0,2207.0,88.0,-6.0,
2107.0,2109.0,88.0,-6.0,
2164.0,2092.0,88.0,-6.0,
2092.0,2014.0,88.0,-6.0,
2081.0,2123.0,88.0,-5.0,
2048.0,2305.0,88.0,-5.0,
2080.0,2150.0,88.0,-6.0,
2026.0,2189.0,88.0,-6.0,
2105.0,2084.0,88.0,-7.0,
2105.0,2040.0,88.0,-7.0,
2146.0,2014.0,88.0,-7.0,
2151.0,2036.0,88.0,-7.0,
2165.0,2040.0,88.0,-7.0,
2166.0,2151.0,88.0,-7.0,
2086.0,2178.0,88.0,-7.0,
2076.0,2251.0,88.0,-7.0,
2091.0,2158.0,88.0,-7.0,
2029.0,2109.0,87.0,-7.0,
2043.0,2026.0,87.0,-7.0,
2074.0,2193.0,87.0,-8.0,
2038.0,2158.0,87.0,-8.0,
2070.0,2047.0,87.0,-8.0,
2101.0,1996.0,87.0,-8.0,
2126.0,2131.0,87.0,-8.0,
2108.0,2158.0,88.0,-8.0,
2021.0,2173.0,88.0,-8.0,
2028.0,2072.0,88.0,-8.0,
2052.0,2152.0,88.0,-8.0,
2097.0,2169.0,88.0,-8.0,
1996.0,2058.0,88.0,-7.0,
2053.0,2381.0,89.0,-7.0,
2136.0,2228.0,89.0,-7.0,
2064.0,1989.0,89.0,-7.0,
2120.0,1840.0,90.0,-7.0,
2076.0,1872.0,90.0,-7.0,
2086.0,1974.0,90.0,-7.0,
2041.0,2061.0,90.0,-7.0,
2081.0,2172.0,91.0,-7.0,
2120.0,2250.0,91.0,-8.0,
2063.0,2163.0,91.0,-8.0,
2074.0,2210.0,91.0,-7.0,
2085.0,2174.0,91.0,-7.0,
2060.0,2048.0,91.0,-7.0,
2088.0,2086.0,92.0,-7.0,
2023.0,2135.0,92.0,-7.0,
2052.0,2088.0,92.0,-7.0,
2169.0,1979.0,92.0,-7.0,
2209.0,1934.0,92.0,-7.0,
2080.0,1942.0,92.0,-6.0,
2071.0,1965.0,92.0,-6.0,
2123.0,2138.0,92.0,-8.0,
2073.0,2287.0,92.0,-9.0,
2076.0,2200.0,92.0,-9.0,
2090.0,2166.0,92.0,-8.0,
2072.0,2098.0,92.0,-8.0,
2139.0,2174.0,92.0,-9.0,
2130.0,2248.0,92.0,-9.0,
2099.0,2242.0,92.0,-9.0,
2127.0,2422.0,91.0,-9.0,
2143.0,2154.0,91.0,-9.0,
1990.0,1868.0,91.0,-9.0,
2028.0,2029.0,91.0,-8.0,
2107.0,2012.0,91.0,-9.0,
2008.0,2138.0,91.0,-9.0,
2085.0,2094.0,91.0,-9.0,
2064.0,2064.0,91.0,-9.0,
2046.0,2194.0,91.0,-9.0,
2042.0,2153.0,91.0,-9.0,
2028.0,1993.0,91.0,-9.0,
2079.0,2068.0,91.0,-9.0,
2124.0,2103.0,91.0,-9.0,
2027.0,2187.0,91.0,-9.0,
2050.0,2197.0,91.0,-9.0,
2057.0,2134.0,92.0,-9.0,
2023.0,2059.0,92.0,-9.0,
2046.0,2078.0,92.0,-8.0,
2150.0,2108.0,93.0,-8.0,
2095.0,2045.0,93.0,-8.0,
2147.0,2091.0,94.0,-8.0,
2109.0,2221.0,94.0,-8.0,
2146.0,2155.0,94.0,-9.0,
2095.0,2086.0,95.0,-9.0,
2113.0,2154.0,95.0,-8.0,
2088.0,2219.0,95.0,-8.0,
2120.0,2280.0,95.0,-8.0,
2074.0,2008.0,96.0,-8.0,
2105.0,2042.0,96.0,-9.0,
2119.0,2070.0,97.0,-8.0,
2037.0,1988.0,97.0,-8.0,
2116.0,2013.0,98.0,-8.0,
2123.0,2109.0,98.0,-7.0,
2116.0,1981.0,99.0,-7.0,
2101.0,2118.0,99.0,-9.0,
2102.0,2077.0,99.0,-9.0,
2107.0,2050.0,100.0,-9.0,
2051.0,2088.0,100.0,-9.0,
2016.0,2172.0,100.0,-8.0,
2054.0,2147.0,101.0,-8.0,
2024.0,2193.0,101.0,-9.0,
2111.0,2050.0,101.0,-9.0,
2141.0,2274.0,101.0,-9.0,
2113.0,2063.0,101.0,-9.0,
2094.0,2170.0,101.0,-9.0,
2059.0,2111.0,101.0,-9.0,
2108.0,2355.0,101.0,-9.0,
2069.0,2149.0,102.0,-9.0,
2037.0,2109.0,102.0,-9.0,
2105.0,2108.0,102.0,-10.0,
1987.0,2039.0,102.0,-10.0,
2099.0,1791.0,102.0,-10.0,
2087.0,2029.0,102.0,-10.0,
2072.0,2286.0,102.0,-9.0,
2089.0,2333.0,102.0,-10.0,
2115.0,2205.0,102.0,-10.0,
2070.0,1932.0,102.0,-10.0,
2064.0,2050.0,102.0,-10.0,
2046.0,2032.0,102.0,-10.0,
2103.0,2129.0,102.0,-10.0,
2112.0,2089.0,102.0,-10.0,
2082.0,2110.0,102.0,-10.0,
2125.0,2065.0,102.0,-10.0,
2070.0,2117.0,103.0,-9.0,
2075.0,2133.0,103.0,-9.0,
2136.0,2103.0,103.0,-9.0,
2127.0,2140.0,103.0,-9.0,
2093.0,2188.0,103.0,-10.0,
2108.0,2007.0,104.0,-10.0,
2117.0,2164.0,104.0,-10.0,
2110.0,2147.0,104.0,-10.0,
2102.0,2249.0,104.0,-9.0,
2066.0,2092.0,104.0,-9.0,
2083.0,2170.0,104.0,-10.0,
2045.0,1947.0,105.0,-10.0,
2076.0,2068.0,105.0,-10.0,
2089.0,2067.0,105.0,-10.0,
2088.0,2111.0,105.0,-10.0,
2139.0,2026.0,105.0,-10.0,
2086.0,2168.0,105.0,-10.0,
2128.0,2129.0,105.0,-9.0,
2023.0,2021.0,106.0,-10.0,
2084.0,2156.0,106.0,-10.0,
2105.0,2217.0,106.0,-10.0,
2076.0,1975.0,106.0,-10.0,
2070.0,1995.0,106.0,-10.0,
2098.0,2019.0,106.0,-10.0,
2036.0,2136.0,106.0,-10.0,
2109.0,2468.0,106.0,-10.0,
2003.0,1897.0,106.0,-10.0,
2109.0,2107.0,106.0,-10.0,
2100.0,2154.0,105.0,-10.0,
2102.0,2213.0,105.0,-10.0,
2100.0,2230.0,105.0,-11.0,
2063.0,2199.0,105.0,-11.0,
2103.0,1997.0,105.0,-11.0,
2101.0,2201.0,105.0,-11.0,
2056.0,2067.0,105.0,-11.0,
2036.0,2166.0,105.0,-11.0,
2092.0,2104.0,105.0,-11.0,
2103.0,2035.0,105.0,-11.0,
2108.0,2195.0,105.0,-11.0,
2048.0,2125.0,105.0,-11.0,
2066.0,2114.0,105.0,-11.0,
2119.0,2136.0,105.0,-11.0,
2081.0,2168.0,105.0,-11.0,
2109.0,2124.0,105.0,-11.0,
2091.0,1994.0,105.0,-11.0,
2082.0,2057.0,105.0,-11.0,
2061.0,2220.0,105.0,-11.0,
2013.0,2192.0,105.0,-11.0,
2043.0,1981.0,105.0,-11.0,
2158.0,2225.0,105.0,-11.0,
2144.0,1953.0,106.0,-11.0,
2141.0,1911.0,106.0,-10.0,
2087.0,1864.0,106.0,-10.0,
2041.0,2278.0,106.0,-10.0,
2107.0,2200.0,106.0,-10.0,
2037.0,2131.0,106.0,-11.0,
1990.0,2084.0,107.0,-11.0,
2045.0,2085.0,107.0,-11.0,
2076.0,2128.0,107.0,-11.0,
2118.0,2142.0,107.0,-11.0,
2096.0,2115.0,107.0,-11.0,
2053.0,2079.0,107.0,-11.0,
2014.0,2189.0,108.0,-11.0,
2038.0,2002.0,108.0,-11.0,
2093.0,2085.0,108.0,-11.0,
2054.0,2055.0,108.0,-11.0,
2054.0,2174.0,108.0,-11.0,
2127.0,2181.0,108.0,-11.0,
2032.0,2201.0,108.0,-11.0,
2059.0,2139.0,108.0,-11.0,
2063.0,2123.0,108.0,-11.0,
2109.0,2143.0,108.0,-11.0,
2093.0,1998.0,108.0,-11.0,
2107.0,2079.0,108.0,-11.0,
2155.0,2167.0,108.0,-11.0,
2130.0,2290.0,108.0,-11.0,
2120.0,2169.0,108.0,-11.0,
2053.0,2093.0,108.0,-11.0,
2056.0,2090.0,108.0,-11.0,
2072.0,2167.0,108.0,-11.0,
2049.0,2090.0,108.0,-11.0,
2116.0,2073.0,108.0,-11.0,
2090.0,1998.0,108.0,-11.0,
2144.0,2042.0,108.0,-11.0,
2045.0,2131.0,108.0,-11.0,
2076.0,2184.0,108.0,-11.0,
2078.0,2055.0,108.0,-11.0,
2066.0,1951.0,109.0,-11.0,
2094.0,2110.0,109.0,-11.0,
2104.0,2103.0,109.0,-11.0,
2086.0,2172.0,109.0,-11.0,
2050.0,2264.0,109.0,-11.0,
2074.0,2125.0,110.0,-11.0,
2115.0,2059.0,110.0,-11.0,
2203.0,2088.0,110.0,-11.0,
2103.0,2309.0,110.0,-11.0,
2076.0,1964.0,110.0,-11.0,
2123.0,2307.0,111.0,-11.0,
2022.0,2118.0,111.0,-11.0,
2004.0,1927.0,111.0,-11.0,
2125.0,2070.0,111.0,-11.0,
2082.0,2066.0,111.0,-12.0,
2064.0,2144.0,111.0,-12.0,
2081.0,2145.0,112.0,-12.0,
2055.0,2087.0,112.0,-12.0,
2057.0,2153.0,112.0,-12.0,
2087.0,2323.0,112.0,-12.0,
2078.0,2140.0,112.0,-12.0,
2060.0,2029.0,112.0,-12.0,
2105.0,1999.0,113.0,-12.0,
2078.0,2087.0,113.0,-12.0,
2164.0,2247.0,113.0,-11.0,
2135.0,2236.0,113.0,-12.0,
2042.0,2034.0,113.0,-12.0,
2034.0,2117.0,113.0,-12.0,
2076.0,2087.0,113.0,-12.0,
1996.0,2022.0,113.0,-12.0,
2078.0,2263.0,113.0,-12.0,
2157.0,2168.0,113.0,-12.0,
2107.0,2204.0,113.0,-12.0,
2073.0,2046.0,113.0,-12.0,
2048.0,2186.0,113.0,-12.0,
2102.0,2100.0,113.0,-12.0,
2025.0,1788.0,113.0,-12.0,
2070.0,2072.0,113.0,-12.0,
2128.0,2137.0,113.0,-12.0,
2160.0,2099.0,113.0,-12.0,
2131.0,2046.0,113.0,-12.0,
2113.0,1870.0,113.0,-12.0,
2122.0,2237.0,113.0,-12.0,
2015.0,2274.0,113.0,-12.0,
2038.0,2169.0,113.0,-12.0,
2108.0,2161.0,113.0,-12.0,
2014.0,2266.0,113.0,-12.0,
2088.0,1985.0,114.0,-12.0,
2103.0,2013.0,114.0,-12.0,
2090.0,2101.0,114.0,-12.0,
2114.0,2185.0,114.0,-12.0,
2100.0,2136.0,114.0,-12.0,
2114.0,2121.0,114.0,-12.0,
2057.0,2081.0,114.0,-12.0,
2117.0,2133.0,114.0,-12.0,
2045.0,2140.0,114.0,-12.0,
2075.0,2195.0,114.0,-12.0,
2107.0,2405.0,114.0,-12.0,
2064.0,2001.0,114.0,-12.0,
2080.0,1823.0,114.0,-12.0,
2060.0,2122.0,114.0,-12.0,
2052.0,2024.0,114.0,-12.0,
2059.0,1988.0,114.0,-12.0,
2126.0,2150.0,115.0,-12.0,
2111.0,2139.0,115.0,-12.0,
2118.0,2131.0,115.0,-12.0,
2068.0,1931.0,115.0,-12.0,
2054.0,2140.0,115.0,-12.0,
2114.0,2241.0,116.0,-12.0,
2114.0,1993.0,116.0,-12.0,
2048.0,2118.0,116.0,-12.0,
2105.0,1987.0,116.0,-12.0,
2064.0,2128.0,116.0,-12.0,
2148.0,2270.0,117.0,-12.0,
2041.0,2078.0,117.0,-12.0,
2034.0,2173.0,117.0,-12.0,
1990.0,2101.0,117.0,-12.0,
2122.0,2064.0,117.0,-12.0,
2098.0,2085.0,117.0,-12.0,
2107.0,2059.0,117.0,-12.0,
2073.0,2027.0,117.0,-12.0,
1999.0,2124.0,117.0,-13.0,
2035.0,2170.0,117.0,-13.0,
2191.0,2128.0,117.0,-13.0,
2104.0,2134.0,116.0,-13.0,
2059.0,2118.0,116.0,-13.0,
2161.0,2166.0,116.0,-13.0,
2029.0,2172.0,116.0,-13.0,
2100.0,2252.0,116.0,-13.0,
2042.0,2108.0,116.0,-13.0,
2102.0,2190.0,116.0,-13.0,
2117.0,2091.0,116.0,-13.0,
2170.0,2003.0,116.0,-13.0,
2102.0,2098.0,115.0,-13.0,
2107.0,2172.0,115.0,-13.0,
2108.0,2059.0,115.0,-13.0,
2066.0,2143.0,115.0,-13.0,
2085.0,2412.0,115.0,-13.0,
2036.0,1938.0,115.0,-13.0,
2056.0,1904.0,115.0,-13.0,
2016.0,1817.0,115.0,-13.0,
2055.0,2130.0,115.0,-13.0,
2049.0,2210.0,115.0,-12.0,
2044.0,2038.0,115.0,-12.0,
2096.0,2131.0,115.0,-12.0,
2088.0,2185.0,115.0,-12.0,
2100.0,2236.0,116.0,-12.0,
2188.0,2085.0,116.0,-12.0,
2183.0,2154.0,116.0,-12.0,
2001.0,1997.0,116.0,-12.0,
2145.0,2203.0,116.0,-12.0,
2077.0,2135.0,116.0,-12.0,
2094.0,2172.0,116.0,-12.0,
2085.0,1943.0,116.0,-13.0,
2069.0,2111.0,116.0,-13.0,
2032.0,2199.0,116.0,-13.0,
2069.0,2424.0,116.0,-13.0,
2055.0,1908.0,116.0,-13.0,
2105.0,1996.0,116.0,-13.0,
2043.0,2018.0,116.0,-13.0,
2024.0,2054.0,116.0,-13.0,
2108.0,1954.0,116.0,-13.0,
2117.0,2152.0,116.0,-13.0,
2129.0,2154.0,116.0,-13.0,
2133.0,2172.0,116.0,-13.0,
2091.0,2067.0,116.0,-13.0,
2106.0,2265.0,116.0,-13.0,
2129.0,2192.0,116.0,-13.0,
2032.0,1958.0,116.0,-13.0,
2101.0,2085.0,116.0,-13.0,
2065.0,2083.0,116.0,-13.0,
2136.0,2177.0,116.0,-13.0,
2069.0,1984.0,116.0,-13.0,
2094.0,2134.0,116.0,-13.0,
2058.0,1892.0,116.0,-13.0,
2017.0,2230.0,116.0,-13.0,
2033.0,2042.0,116.0,-13.0,
2129.0,2326.0,116.0,-13.0,
2126.0,2091.0,116.0,-13.0,
1997.0,2125.0,117.0,-13.0,
2053.0,2035.0,117.0,-12.0,
2054.0,1891.0,117.0,-12.0,
2058.0,2156.0,117.0,-12.0,
2079.0,2108.0,117.0,-12.0,
2081.0,2173.0,117.0,-12.0,
2162.0,2226.0,117.0,-12.0,
2203.0,1934.0,117.0,-12.0,
2104.0,2326.0,117.0,-13.0,
2087.0,2238.0,117.0,-13.0,
1992.0,2087.0,117.0,-13.0,
1998.0,1878.0,117.0,-13.0,
2073.0,1942.0,117.0,-13.0,
2111.0,2100.0,117.0,-13.0,
2043.0,2095.0,117.0,-13.0,
2104.0,2353.0,117.0,-13.0,
2050.0,1936.0,117.0,-13.0,
2160.0,2096.0,117.0,-13.0,
2144.0,2054.0,117.0,-13.0,
2078.0,2108.0,117.0,-13.0,
2091.0,2169.0,117.0,-13.0,
2100.0,2153.0,117.0,-13.0,
2125.0,2037.0,117.0,-13.0,
2137.0,2251.0,117.0,-13.0,
2047.0,2192.0,117.0,-13.0,
2045.0,2120.0,117.0,-13.0,
2038.0,2069.0,117.0,-13.0,
2045.0,2125.0,117.0,-13.0,
2044.0,2019.0,117.0,-13.0,
2081.0,2192.0,117.0,-13.0,
2057.0,2198.0,116.0,-13.0,
2038.0,2250.0,116.0,-13.0,
2053.0,2090.0,116.0,-13.0,
2168.0,2200.0,116.0,-13.0,
2069.0,1869.0,116.0,-13.0,
2088.0,2117.0,116.0,-13.0,
2101.0,1939.0,116.0,-13.0,
2081.0,2105.0,116.0,-13.0,
2107.0,2164.0,117.0,-13.0,
2139.0,2210.0,117.0,-13.0,
2089.0,2086.0,117.0,-13.0,
2036.0,1990.0,117.0,-13.0,
2012.0,2076.0,117.0,-13.0,
2054.0,2145.0,117.0,-13.0,
2119.0,2136.0,117.0,-13.0,
2112.0,2267.0,117.0,-13.0,
2017.0,1891.0,117.0,-13.0,
2059.0,2139.0,117.0,-13.0,
2067.0,2025.0,117.0,-13.0,
1984.0,2116.0,117.0,-13.0,
2094.0,2162.0,117.0,-13.0,
2164.0,2307.0,117.0,-13.0,
2054.0,1854.0,117.0,-13.0,
2153.0,2109.0,117.0,-13.0,
2114.0,2363.0,117.0,-13.0,
2159.0,2116.0,117.0,-13.0,
2099.0,2125.0,117.0,-13.0,
2075.0,2094.0,117.0,-13.0,
2021.0,2148.0,117.0,-13.0,
2105.0,2174.0,118.0,-13.0,
2097.0,1988.0,118.0,-13.0,
2067.0,1678.0,118.0,-13.0,
2071.0,2030.0,118.0,-13.0,
2071.0,2422.0,117.0,-13.0,
2156.0,2155.0,117.0,-13.0,
2021.0,2031.0,117.0,-13.0,
2040.0,2064.0,117.0,-13.0,
2098.0,2105.0,117.0,-13.0,
2055.0,2089.0,117.0,-13.0,
2079.0,2119.0,117.0,-13.0,
2069.0,2174.0,117.0,-13.0,
2067.0,2319.0,117.0,-13.0,
2096.0,2019.0,117.0,-13.0,
2145.0,2175.0,117.0,-13.0,
2051.0,2123.0,117.0,-13.0,
2141.0,2150.0,117.0,-13.0,
2111.0,2173.0,117.0,-13.0,
2080.0,2048.0,117.0,-13.0,
2092.0,2082.0,117.0,-13.0,
2055.0,2035.0,117.0,-13.0,
2119.0,2296.0,117.0,-13.0,
2069.0,1964.0,117.0,-13.0,
2067.0,2146.0,117.0,-13.0,
2093.0,2119.0,117.0,-13.0,
2059.0,2204.0,117.0,-13.0,
2029.0,1956.0,117.0,-13.0,
2011.0,2116.0,117.0,-13.0,
2072.0,2127.0,117.0,-13.0,
2050.0,2074.0,117.0,-13.0,
2045.0,2104.0,117.0,-13.0,
2142.0,2048.0,117.0,-13.0,
2022.0,2047.0,117.0,-13.0,
2112.0,2106.0,117.0,-13.0,
2118.0,2299.0,117.0,-13.0,
2135.0,2169.0,117.0,-13.0,
2128.0,1999.0,117.0,-13.0,
2074.0,2050.0,117.0,-13.0,
2023.0,2075.0,117.0,-13.0,
2064.0,2188.0,117.0,-13.0,
2154.0,2156.0,117.0,-13.0,
2094.0,2046.0,117.0,-13.0,
2090.0,2099.0,117.0,-13.0,
2079.0,2158.0,117.0,-13.0,
2118.0,2091.0,117.0,-13.0,
2092.0,1999.0,117.0,-13.0,
2013.0,2170.0,117.0,-13.0,
2097.0,2362.0,117.0,-13.0,
2083.0,2185.0,117.0,-13.0,
2082.0,2067.0,117.0,-13.0,
2067.0,2109.0,117.0,-13.0,
2075.0,2179.0,117.0,-13.0,
2071.0,2220.0,117.0,-13.0,
2043.0,2158.0,117.0,-13.0,
2090.0,2021.0,117.0,-13.0,
2120.0,1943.0,117.0,-13.0,
2088.0,2089.0,117.0,-13.0,
2079.0,2026.0,117.0,-13.0,
2104.0,2179.0,117.0,-13.0,
2053.0,2170.0,117.0,-13.0,
2045.0,2183.0,117.0,-13.0,
2101.0,2068.0,117.0,-13.0,
2070.0,1936.0,118.0,-13.0,
2092.0,2237.0,118.0,-13.0,
2083.0,1943.0,118.0,-13.0,
2133.0,2088.0,118.0,-13.0,
2174.0,2182.0,118.0,-13.0,
2108.0,2015.0,118.0,-13.0,
2028.0,2091.0,118.0,-13.0,
2099.0,2020.0,118.0,-13.0,
2077.0,2172.0,118.0,-13.0,
2093.0,2179.0,118.0,-13.0,
2034.0,1908.0,117.0,-13.0,
2112.0,2139.0,117.0,-13.0,
2091.0,2185.0,117.0,-13.0,
2102.0,2084.0,117.0,-13.0,
2116.0,2087.0,117.0,-13.0,
2077.0,2071.0,117.0,-13.0,
2089.0,2173.0,117.0,-13.0,
2030.0,2224.0,117.0,-13.0,
2056.0,2032.0,117.0,-13.0,
2097.0,2195.0,117.0,-13.0,
2056.0,2176.0,117.0,-13.0,
2096.0,2188.0,117.0,-13.0,
2135.0,2092.0,117.0,-13.0,
2089.0,2050.0,117.0,-13.0,
2088.0,2137.0,117.0,-13.0,
2046.0,2185.0,117.0,-13.0,
1998.0,2054.0,117.0,-13.0,
2032.0,1963.0,117.0,-13.0,
2075.0,2121.0,117.0,-13.0,
2076.0,1925.0,117.0,-13.0,
2131.0,2073.0,117.0,-13.0,
2058.0,2166.0,117.0,-13.0,
2109.0,2198.0,117.0,-13.0,
2079.0,2108.0,117.0,-13.0,
2065.0,2151.0,117.0,-13.0,
2117.0,2120.0,117.0,-13.0,
2052.0,2032.0,117.0,-13.0,
2097.0,1944.0,117.0,-13.0,
2091.0,2059.0,117.0,-13.0,
2126.0,2174.0,117.0,-13.0,
2126.0,2016.0,117.0,-13.0,
2041.0,2073.0,117.0,-13.0,
2105.0,2247.0,117.0,-13.0,
2068.0,2045.0,117.0,-13.0,
2087.0,2002.0,117.0,-13.0,
2044.0,2239.0,117.0,-13.0,
2120.0,2139.0,117.0,-13.0,
2093.0,2185.0,117.0,-13.0,
2074.0,2101.0,117.0,-13.0,
2096.0,2116.0,117.0,-13.0,
2070.0,2103.0,117.0,-13.0,
2031.0,2105.0,117.0,-13.0,
2036.0,1990.0,117.0,-13.0,
2041.0,2221.0,117.0,-13.0,
2111.0,2317.0,117.0,-13.0,
2054.0,2016.0,117.0,-13.0,
2152.0,2106.0,117.0,-13.0,
2154.0,1906.0,117.0,-13.0,
2113.0,2139.0,117.0,-13.0,
2114.0,2217.0,117.0,-13.0,
2061.0,2039.0,117.0,-13.0,
2040.0,2188.0,117.0,-13.0,
2074.0,2067.0,117.0,-13.0,
2108.0,2007.0,117.0,-13.0,
2062.0,2027.0,117.0,-13.0,
2103.0,2189.0,117.0,-13.0,
2123.0,2050.0,117.0,-13.0,
2097.0,2179.0,117.0,-13.0,
2097.0,2150.0,117.0,-13.0,
2107.0,2203.0,117.0,-13.0,
2045.0,2223.0,117.0,-13.0,
2110.0,2076.0,117.0,-13.0,
2055.0,2006.0,117.0,-13.0,
2089.0,2101.0,117.0,-13.0,
2089.0,2077.0,117.0,-13.0,
2063.0,2168.0,117.0,-13.0,
2081.0,2288.0,117.0,-13.0,
2058.0,2169.0,117.0,-13.0,
2065.0,1830.0,117.0,-13.0,
2087.0,2082.0,117.0,-13.0,
2123.0,2063.0,117.0,-13.0,
2009.0,2077.0,117.0,-13.0,
2134.0,1916.0,117.0,-13.0,
2137.0,2129.0,117.0,-13.0,
2104.0,2074.0,117.0,-13.0,
2069.0,2172.0,117.0,-13.0,
2046.0,2150.0,117.0,-13.0,
2104.0,2354.0,117.0,-13.0,
2111.0,1961.0,116.0,-13.0,
2089.0,2299.0,116.0,-13.0,
2064.0,2022.0,116.0,-13.0,
2035.0,2054.0,116.0,-13.0,
2053.0,2138.0,116.0,-13.0,
2075.0,2069.0,116.0,-13.0,
2058.0,1996.0,116.0,-13.0,
2080.0,2113.0,116.0,-13.0,
2062.0,2127.0,116.0,-13.0,
2068.0,2109.0,116.0,-13.0,
2084.0,2080.0,116.0,-13.0,
2120.0,2170.0,116.0,-13.0,
2115.0,2162.0,116.0,-13.0,
2119.0,2038.0,116.0,-13.0,
2079.0,2097.0,116.0,-13.0,
2053.0,2130.0,116.0,-13.0,
2065.0,2326.0,116.0,-13.0,
2043.0,2114.0,117.0,-13.0,
2012.0,1911.0,117.0,-13.0,
2168.0,2126.0,117.0,-13.0,
2141.0,2093.0,117.0,-13.0,
2062.0,1979.0,117.0,-13.0,
2106.0,2112.0,117.0,-13.0,
2062.0,2072.0,117.0,-13.0,
2051.0,2078.0,117.0,-13.0,
2086.0,2002.0,117.0,-13.0,
2072.0,2096.0,117.0,-13.0,
2070.0,2101.0,117.0,-13.0,
2076.0,2126.0,117.0,-13.0,
2113.0,2178.0,117.0,-13.0,
2142.0,2031.0,118.0,-13.0,
2055.0,2129.0,117.0,-13.0,
2102.0,2140.0,117.0,-13.0,
2094.0,2125.0,117.0,-13.0,
2117.0,2149.0,117.0,-13.0,
1972.0,2025.0,117.0,-13.0,
2054.0,2110.0,117.0,-13.0,
2053.0,2138.0,117.0,-13.0,
2118.0,2157.0,117.0,-13.0,
2205.0,2147.0,117.0,-13.0,
2144.0,2012.0,117.0,-13.0,
2131.0,2156.0,117.0,-13.0,
2088.0,2143.0,117.0,-13.0,
2020.0,2054.0,117.0,-13.0,
2059.0,2106.0,117.0,-13.0,
2069.0,2066.0,117.0,-13.0,
2062.0,2052.0,117.0,-13.0,
2109.0,2277.0,117.0,-13.0,
2085.0,2010.0,117.0,-13.0,
2071.0,2272.0,117.0,-13.0,
2135.0,2015.0,117.0,-13.0,
2045.0,2200.0,117.0,-13.0,
2074.0,2070.0,117.0,-13.0,
2047.0,2129.0,117.0,-13.0,
2048.0,2059.0,117.0,-13.0,
2087.0,2153.0,117.0,-13.0,
2068.0,2050.0,117.0,-13.0,
2086.0,2109.0,117.0,-13.0,
2085.0,2039.0,117.0,-13.0,
2065.0,2039.0,117.0,-13.0,
2041.0,2002.0,117.0,-13.0,
2066.0,2049.0,117.0,-13.0,
2071.0,2189.0,117.0,-13.0,
2147.0,2283.0,117.0,-13.0,
2128.0,2303.0,117.0,-13.0,
2095.0,2014.0,117.0,-13.0,
2089.0,1892.0,117.0,-13.0,
2094.0,1976.0,117.0,-13.0,
2111.0,2082.0,117.0,-13.0,
2043.0,2258.0,117.0,-13.0,
2099.0,2310.0,117.0,-13.0,
2084.0,2182.0,117.0,-13.0,
2057.0,2128.0,117.0,-13.0,
2138.0,2121.0,117.0,-13.0,
2071.0,2077.0,117.0,-13.0,
2100.0,2086.0,117.0,-13.0,
2047.0,1988.0,117.0,-13.0,
2107.0,2068.0,117.0,-13.0,
2060.0,1935.0,117.0,-13.0,
2099.0,2066.0,117.0,-13.0,
2064.0,2126.0,117.0,-13.0,
2057.0,2129.0,117.0,-13.0,
2052.0,2132.0,117.0,-13.0,
2085.0,2086.0,117.0,-13.0,
2085.0,2188.0,118.0,-13.0,
2050.0,2098.0,117.0,-13.0,
2103.0,2166.0,118.0,-13.0,
2088.0,2005.0,118.0,-13.0,
2141.0,2209.0,117.0,-13.0,
2129.0,2037.0,117.0,-13.0,
2088.0,2112.0,117.0,-13.0,
2102.0,2253.0,117.0,-13.0,
2082.0,2076.0,117.0,-13.0,
2111.0,2012.0,117.0,-13.0,
2094.0,2112.0,117.0,-13.0,
2053.0,2165.0,117.0,-13.0,
2023.0,2203.0,117.0,-13.0,
2058.0,2118.0,117.0,-13.0,
2129.0,2212.0,117.0,-13.0,
2062.0,1913.0,117.0,-13.0,
2094.0,2110.0,117.0,-13.0,
2088.0,2093.0,117.0,-13.0,
2087.0,2105.0,117.0,-13.0,
2052.0,2163.0,117.0,-13.0,
2057.0,2349.0,117.0,-13.0,
2082.0,2215.0,117.0,-13.0,
2045.0,2125.0,117.0,-13.0,
2031.0,1884.0,117.0,-13.0,
2029.0,1985.0,117.0,-13.0,
2119.0,2091.0,117.0,-13.0,
2115.0,2076.0,117.0,-13.0,
2113.0,2166.0,117.0,-13.0,
2108.0,1997.0,117.0,-13.0,
2067.0,2075.0,117.0,-13.0,
2139.0,2122.0,117.0,-13.0,
2107.0,2180.0,117.0,-13.0,
2083.0,2063.0,117.0,-13.0,
2112.0,2115.0,117.0,-13.0,
2120.0,2112.0,117.0,-13.0,
2079.0,2254.0,117.0,-13.0,
2085.0,2277.0,117.0,-13.0,
2034.0,2085.0,117.0,-13.0,
2083.0,2093.0,117.0,-13.0,
2054.0,2052.0,117.0,-13.0,
2064.0,2081.0,117.0,-13.0,
2113.0,2150.0,117.0,-13.0,
2079.0,2096.0,117.0,-13.0,
2081.0,2159.0,117.0,-13.0,
2076.0,2176.0,117.0,-13.0,
2076.0,2051.0,117.0,-13.0,
2149.0,2183.0,117.0,-13.0,
2087.0,2059.0,117.0,-13.0,
2016.0,2066.0,117.0,-13.0,
2065.0,2132.0,117.0,-13.0,
2054.0,2112.0,117.0,-13.0,
2133.0,2095.0,117.0,-13.0,
2089.0,2176.0,117.0,-13.0,
2097.0,2097.0,117.0,-13.0,
2041.0,2114.0,117.0,-13.0,
2066.0,2057.0,117.0,-13.0,
2089.0,2062.0,117.0,-13.0,
2070.0,1980.0,117.0,-13.0,
2083.0,2186.0,117.0,-13.0,
2071.0,2136.0,117.0,-13.0,
2069.0,1982.0,117.0,-13.0,
2087.0,2034.0,117.0,-13.0,
2104.0,2191.0,117.0,-13.0,
2013.0,2362.0,117.0,-13.0,
2014.0,2014.0,117.0,-13.0,
2065.0,2013.0,117.0,-13.0,
2110.0,2132.0,117.0,-13.0,
2119.0,2057.0,117.0,-13.0,
2137.0,2098.0,117.0,-13.0,
2101.0,2141.0,117.0,-13.0,
2121.0,2050.0,117.0,-12.0,
2015.0,2120.0,117.0,-12.0,
2107.0,2332.0,117.0,-13.0,
2095.0,2073.0,117.0,-13.0,
2050.0,2020.0,117.0,-13.0,
2097.0,2092.0,117.0,-13.0,
2066.0,2106.0,117.0,-13.0,
2107.0,2239.0,117.0,-13.0,
2095.0,2177.0,117.0,-13.0,
2051.0,2237.0,116.0,-13.0,
2013.0,2209.0,116.0,-13.0,
1992.0,2000.0,116.0,-13.0,
2112.0,2024.0,116.0,-13.0,
2162.0,2075.0,116.0,-13.0,
2129.0,2144.0,116.0,-13.0,
2135.0,2107.0,116.0,-13.0,
2130.0,2082.0,116.0,-13.0,
2090.0,2165.0,116.0,-13.0,
2010.0,2162.0,116.0,-13.0,
2047.0,2239.0,116.0,-13.0,
2083.0,2065.0,117.0,-13.0,
2064.0,2035.0,117.0,-13.0,
2071.0,2118.0,117.0,-13.0,
2072.0,2108.0,117.0,-13.0,
2112.0,2183.0,117.0,-13.0,
2073.0,2218.0,117.0,-13.0,
2066.0,2150.0,117.0,-13.0,
2044.0,2065.0,117.0,-13.0,
2088.0,2144.0,117.0,-13.0,
2038.0,2197.0,117.0,-13.0,
2059.0,1755.0,117.0,-13.0,
2099.0,2048.0,117.0,-13.0,
2130.0,1990.0,117.0,-13.0,
2054.0,2122.0,117.0,-13.0,
2084.0,2163.0,117.0,-13.0,
2073.0,2230.0,117.0,-13.0,
2046.0,2100.0,117.0,-13.0,
2095.0,2065.0,117.0,-13.0,
2087.0,1989.0,117.0,-13.0,
2135.0,2148.0,117.0,-13.0,
2068.0,2084.0,117.0,-13.0,
2110.0,2156.0,117.0,-13.0,
2081.0,2193.0,117.0,-13.0,
2015.0,2133.0,117.0,-13.0,
2130.0,2106.0,117.0,-13.0,
2089.0,2041.0,117.0,-13.0,
2046.0,2108.0,117.0,-13.0,
2155.0,2112.0,117.0,-13.0,
2098.0,2148.0,117.0,-13.0,
2059.0,2083.0,117.0,-13.0,
2053.0,2133.0,117.0,-13.0,
2069.0,2215.0,117.0,-13.0,
2088.0,2163.0,117.0,-13.0,
2098.0,2122.0,117.0,-13.0,
2032.0,2068.0,117.0,-13.0,
2080.0,2173.0,117.0,-13.0,
2139.0,2186.0,117.0,-13.0,
2047.0,2019.0,117.0,-13.0,
2060.0,2152.0,117.0,-13.0,
2142.0,2157.0,117.0,-13.0,
2125.0,2193.0,117.0,-13.0,
2075.0,2215.0,117.0,-13.0,
2031.0,2026.0,117.0,-13.0,
2069.0,2042.0,117.0,-13.0,
2052.0,2107.0,117.0,-13.0,
2119.0,2257.0,117.0,-13.0,
2045.0,2115.0,117.0,-13.0,
2063.0,2032.0,117.0,-13.0,
2080.0,2128.0,117.0,-13.0,
2087.0,2074.0,117.0,-13.0,
2038.0,2017.0,117.0,-13.0,
2089.0,2125.0,117.0,-13.0,
2105.0,1966.0,117.0,-13.0,
2110.0,2084.0,117.0,-13.0,
2110.0,2148.0,117.0,-13.0,
2099.0,2082.0,117.0,-13.0,
2075.0,2109.0,117.0,-13.0,
2092.0,2248.0,117.0,-13.0,
2046.0,2046.0,117.0,-13.0,
2094.0,2237.0,117.0,-13.0,
2086.0,2238.0,117.0,-13.0,
2065.0,2013.0,117.0,-13.0,
2036.0,1974.0,117.0,-13.0,
2143.0,2150.0,117.0,-13.0,
2082.0,2190.0,117.0,-13.0,
2048.0,2107.0,117.0,-13.0,
2048.0,2028.0,117.0,-13.0,
2058.0,2156.0,117.0,-13.0,
2099.0,2089.0,117.0,-13.0,
2119.0,2156.0,117.0,-13.0,
2108.0,2091.0,117.0,-13.0,
2085.0,1982.0,117.0,-13.0,
2146.0,2156.0,117.0,-13.0,
2081.0,2062.0,117.0,-13.0,
2054.0,2115.0,117.0,-13.0,
2070.0,2198.0,117.0,-13.0,
2073.0,2150.0,117.0,-13.0,
2087.0,2173.0,117.0,-13.0,
2019.0,2163.0,117.0,-13.0,
2109.0,2127.0,117.0,-13.0,
2109.0,2187.0,117.0,-13.0,
2038.0,1970.0,117.0,-13.0,
2119.0,2122.0,117.0,-13.0,
2064.0,2087.0,117.0,-13.0,
2049.0,2082.0,117.0,-13.0,
2015.0,2130.0,117.0,-13.0,
2042.0,1947.0,117.0,-12.0,
2122.0,1954.0,117.0,-12.0,
2109.0,2242.0,117.0,-12.0,
2108.0,2186.0,117.0,-12.0,
2016.0,2134.0,117.0,-12.0,
2036.0,2117.0,117.0,-12.0,
2090.0,2171.0,117.0,-12.0,
2124.0,2143.0,117.0,-12.0,
2080.0,2201.0,117.0,-12.0,
2045.0,2070.0,117.0,-13.0,
2052.0,2062.0,117.0,-13.0,
2077.0,2043.0,117.0,-13.0,
2096.0,2204.0,117.0,-13.0,
2079.0,2036.0,117.0,-13.0,
2082.0,1999.0,117.0,-13.0,
2119.0,2168.0,117.0,-13.0,
2084.0,2132.0,117.0,-13.0,
2089.0,2162.0,117.0,-13.0,
2037.0,2047.0,117.0,-13.0,
2059.0,1997.0,117.0,-13.0,
2097.0,2002.0,117.0,-13.0,
2104.0,2099.0,117.0,-13.0,
2093.0,2159.0,117.0,-13.0,
2017.0,2155.0,117.0,-13.0,
2072.0,2126.0,117.0,-13.0,
2107.0,2177.0,117.0,-13.0,
2090.0,2204.0,117.0,-13.0,
2098.0,2052.0,117.0,-13.0,
2077.0,2100.0,117.0,-13.0,
2096.0,2118.0,117.0,-13.0,
2128.0,2200.0,117.0,-13.0,
2003.0,2097.0,117.0,-13.0,
2072.0,2033.0,117.0,-13.0,
2113.0,2131.0,117.0,-13.0,
2098.0,2061.0,117.0,-13.0,
2110.0,2174.0,117.0,-13.0,
2095.0,2264.0,117.0,-13.0,
2017.0,2032.0,117.0,-13.0,
2027.0,1974.0,117.0,-13.0,
2055.0,1961.0,117.0,-13.0,
2050.0,2046.0,117.0,-13.0,
2105.0,2098.0,117.0,-13.0,
2104.0,2155.0,117.0,-13.0,
2156.0,2148.0,117.0,-13.0,
2148.0,2230.0,117.0,-13.0,
2047.0,2252.0,117.0,-13.0,
2076.0,2361.0,117.0,-13.0,
2069.0,2067.0,117.0,-13.0,
2120.0,2126.0,117.0,-13.0,
2075.0,2148.0,117.0,-13.0,
2035.0,2053.0,117.0,-13.0,
2098.0,2108.0,117.0,-13.0,
2106.0,2050.0,117.0,-13.0,
2069.0,1970.0,117.0,-13.0,
2100.0,2154.0,117.0,-13.0,
2068.0,2168.0,117.0,-13.0,
2097.0,2137.0,117.0,-13.0,
2080.0,2088.0,117.0,-13.0,
2054.0,2117.0,117.0,-13.0,
2054.0,2159.0,117.0,-13.0,
2088.0,2155.0,117.0,-13.0,
2050.0,2089.0,117.0,-13.0,
2116.0,2003.0,117.0,-13.0,
2073.0,2136.0,117.0,-13.0,
2048.0,2100.0,117.0,-13.0,
2072.0,1978.0,117.0,-13.0,
2045.0,2023.0,117.0,-13.0,
2102.0,2154.0,117.0,-13.0,
2106.0,2019.0,117.0,-13.0,
2069.0,2230.0,117.0,-13.0,
2096.0,2224.0,117.0,-13.0,
2090.0,2342.0,117.0,-13.0,
2083.0,2339.0,117.0,-13.0,
2046.0,1934.0,117.0,-13.0,
2139.0,1833.0,117.0,-13.0,
2035.0,1915.0,117.0,-13.0,
2102.0,1967.0,117.0,-13.0,
2097.0,2068.0,117.0,-13.0,
2058.0,2163.0,117.0,-13.0,
2065.0,2270.0,117.0,-13.0,
2112.0,2107.0,117.0,-13.0,
2040.0,2043.0,117.0,-13.0,
2120.0,2134.0,117.0,-13.0,
2132.0,2248.0,117.0,-13.0,
2104.0,2136.0,117.0,-13.0,
2061.0,2257.0,117.0,-13.0,
2106.0,2075.0,117.0,-13.0,
2075.0,2000.0,117.0,-13.0,
2118.0,1968.0,117.0,-13.0,
2056.0,1932.0,117.0,-13.0,
2080.0,2101.0,117.0,-13.0,
2126.0,2178.0,117.0,-13.0,
2082.0,2204.0,117.0,-13.0,
2079.0,2054.0,117.0,-13.0,
2071.0,2082.0,117.0,-13.0,
2091.0,2199.0,117.0,-13.0,
2089.0,2080.0,117.0,-13.0,
2133.0,2046.0,117.0,-13.0,
2114.0,2386.0,116.0,-13.0,
2083.0,2136.0,116.0,-13.0,
2049.0,2132.0,116.0,-13.0,
2072.0,2061.0,116.0,-13.0,
2095.0,2120.0,116.0,-13.0,
2110.0,2105.0,116.0,-13.0,
2070.0,2141.0,116.0,-13.0,
2107.0,2206.0,116.0,-13.0,
2094.0,2119.0,116.0,-13.0,
2116.0,2016.0,116.0,-13.0,
2101.0,2083.0,116.0,-13.0,
2114.0,2171.0,116.0,-13.0,
2049.0,1960.0,116.0,-13.0,
2099.0,2069.0,116.0,-13.0,
2070.0,2116.0,116.0,-12.0,
2056.0,2101.0,116.0,-12.0,
2029.0,2178.0,116.0,-12.0,
2083.0,2130.0,116.0,-12.0,
2061.0,1980.0,116.0,-12.0,
2102.0,2015.0,116.0,-13.0,
2062.0,2022.0,116.0,-13.0,
2070.0,2146.0,116.0,-13.0,
2063.0,2150.0,116.0,-13.0,
2080.0,2176.0,116.0,-13.0,
2159.0,2147.0,117.0,-13.0,
2047.0,1901.0,117.0,-13.0,
2114.0,2051.0,117.0,-13.0,
2130.0,2218.0,117.0,-13.0,
2084.0,2140.0,117.0,-13.0,
2081.0,2118.0,117.0,-13.0,
2072.0,2213.0,117.0,-13.0,
2101.0,2079.0,117.0,-13.0,
2058.0,2172.0,117.0,-13.0,
2086.0,2039.0,117.0,-13.0,
2077.0,2246.0,117.0,-13.0,
2080.0,2338.0,117.0,-13.0,
2114.0,2218.0,117.0,-13.0,
2093.0,2089.0,117.0,-13.0,
2027.0,1945.0,117.0,-13.0,
2049.0,1950.0,117.0,-13.0,
2088.0,1906.0,117.0,-13.0,
2076.0,1914.0,117.0,-13.0,
2092.0,2127.0,117.0,-13.0,
2143.0,2281.0,117.0,-13.0,
2124.0,1965.0,117.0,-13.0,
2072.0,2129.0,117.0,-13.0,
2097.0,2161.0,117.0,-13.0,
2096.0,2262.0,117.0,-13.0,
2089.0,2244.0,117.0,-13.0,
2071.0,2098.0,117.0,-12.0,
2064.0,2018.0,117.0,-13.0,
2084.0,2201.0,117.0,-13.0,
2095.0,2106.0,117.0,-13.0,
2074.0,2122.0,117.0,-13.0,
2022.0,2096.0,117.0,-13.0,
2040.0,2080.0,117.0,-13.0,
2074.0,2072.0,117.0,-13.0,
2096.0,2164.0,117.0,-13.0,
2072.0,2193.0,117.0,-13.0,
2137.0,2077.0,117.0,-13.0,
2103.0,2042.0,117.0,-13.0,
2068.0,2204.0,117.0,-13.0,
2059.0,2161.0,117.0,-13.0,
2062.0,2130.0,117.0,-13.0,
2058.0,2135.0,117.0,-13.0,
2103.0,2150.0,117.0,-13.0,
2049.0,2211.0,117.0,-13.0,
2009.0,2010.0,117.0,-13.0,
2132.0,1992.0,117.0,-13.0,
2115.0,2092.0,117.0,-13.0,
2118.0,2119.0,117.0,-13.0,
2080.0,2107.0,117.0,-13.0,
2073.0,2096.0,117.0,-13.0,
2065.0,2057.0,117.0,-13.0,
2048.0,2125.0,117.0,-13.0,
2071.0,2072.0,117.0,-13.0,
2119.0,2102.0,117.0,-13.0,
2125.0,2057.0,117.0,-13.0,
2105.0,2156.0,117.0,-13.0,
2080.0,2178.0,117.0,-13.0,
2065.0,2142.0,117.0,-13.0,
2039.0,2127.0,117.0,-13.0,
2071.0,2146.0,117.0,-13.0,
2071.0,2077.0,117.0,-13.0,
2101.0,2242.0,117.0,-13.0,
2088.0,2289.0,117.0,-13.0,
2058.0,2030.0,117.0,-13.0,
2097.0,2000.0,117.0,-13.0,
2083.0,2064.0,117.0,-13.0,
2070.0,2087.0,117.0,-13.0,
2003.0,1967.0,117.0,-13.0,
2120.0,2078.0,117.0,-13.0,
2100.0,2084.0,117.0,-13.0,
2124.0,2026.0,117.0,-13.0,
2095.0,2070.0,117.0,-13.0,
2095.0,2045.0,117.0,-13.0,
2099.0,2233.0,117.0,-13.0,
2056.0,2211.0,117.0,-13.0,
2051.0,2116.0,117.0,-13.0,
2107.0,2159.0,117.0,-13.0,
2100.0,2248.0,117.0,-13.0,
2089.0,1997.0,117.0,-13.0,
2052.0,2069.0,117.0,-13.0,
2075.0,2099.0,117.0,-13.0,
2104.0,2105.0,117.0,-13.0,
2112.0,2075.0,117.0,-13.0,
2115.0,2122.0,117.0,-13.0,
2072.0,2066.0,117.0,-13.0,
2124.0,2121.0,117.0,-13.0,
2066.0,2106.0,117.0,-12.0,
2046.0,2132.0,117.0,-13.0,
2070.0,2157.0,117.0,-12.0,
2067.0,2138.0,117.0,-13.0,
2101.0,2149.0,117.0,-13.0,
2113.0,2095.0,117.0,-13.0,
2085.0,2121.0,117.0,-13.0,
2070.0,2143.0,117.0,-13.0,
2056.0,2032.0,117.0,-13.0,
2069.0,2132.0,117.0,-13.0,
2073.0,2099.0,117.0,-13.0,
2092.0,2097.0,117.0,-13.0,
2138.0,2066.0,117.0,-12.0,
2094.0,2073.0,117.0,-12.0,
2146.0,2185.0,117.0,-12.0,
2107.0,2101.0,117.0,-12.0,
2108.0,2161.0,117.0,-12.0,
2104.0,2023.0,117.0,-12.0,
2093.0,2066.0,118.0,-12.0,
2102.0,1990.0,118.0,-12.0,
2102.0,2104.0,118.0,-12.0,
2085.0,2118.0,118.0,-12.0,
2049.0,2112.0,118.0,-12.0,
2023.0,2110.0,118.0,-12.0,
2071.0,2135.0,118.0,-12.0,
2054.0,2122.0,118.0,-12.0,
2023.0,2153.0,118.0,-12.0,
2059.0,2106.0,118.0,-12.0,
2070.0,2219.0,118.0,-12.0,
2058.0,2235.0,117.0,-12.0,
2083.0,2198.0,117.0,-12.0,
2057.0,1985.0,117.0,-12.0,
2149.0,1956.0,117.0,-12.0,
2088.0,2054.0,117.0,-12.0,
2088.0,2085.0,117.0,-12.0,
2030.0,2160.0,117.0,-12.0,
2055.0,2139.0,117.0,-12.0,
2129.0,2126.0,117.0,-12.0,
2088.0,2140.0,0,
2116.0,2180.0,117.0,-12.0,
2104.0,2097.0,117.0,-12.0,
2059.0,2114.0,117.0,-12.0,
2073.0,2154.0,117.0,-12.0,
2027.0,2126.0,117.0,-12.0,
2070.0,2113.0,117.0,-12.0,
2114.0,2123.0,117.0,-12.0,
2137.0,2138.0,117.0,-12.0,
2109.0,2114.0,117.0,-12.0,
2081.0,2102.0,117.0,-12.0,
2068.0,2108.0,117.0,-12.0,
2078.0,2100.0,117.0,-12.0,
2051.0,2054.0,117.0,-12.0,
2092.0,2066.0,117.0,-12.0,
2127.0,2156.0,117.0,-12.0,
2117.0,2034.0,117.0,-12.0,
2091.0,2119.0,117.0,-12.0,
2075.0,2093.0,117.0,-12.0,
2069.0,2278.0,117.0,-12.0,
2106.0,2092.0,117.0,-12.0,
2005.0,2023.0,117.0,-12.0,
2079.0,1988.0,117.0,-12.0,
2103.0,2141.0,117.0,-11.0,
2125.0,2027.0,117.0,-11.0,
2161.0,1982.0,117.0,-11.0,
2144.0,2096.0,118.0,-11.0,
2117.0,2194.0,118.0,-11.0,
2109.0,2139.0,118.0,-11.0,
2056.0,2109.0,118.0,-11.0,
2075.0,2167.0,118.0,-11.0,
2090.0,2118.0,119.0,-11.0,
2065.0,2147.0,119.0,-11.0,
2059.0,2163.0,118.0,-11.0,
2066.0,2208.0,118.0,-11.0,
2033.0,2044.0,118.0,-11.0,
2114.0,2100.0,117.0,-11.0,
2086.0,2055.0,116.0,-11.0,
2100.0,2052.0,115.0,-11.0,
2096.0,2114.0,114.0,-11.0,
2046.0,2179.0,113.0,-11.0,
2088.0,2209.0,112.0,-12.0,
2060.0,2124.0,111.0,-12.0,
2040.0,2052.0,111.0,-12.0,
2109.0,2127.0,110.0,-12.0,
2115.0,2128.0,109.0,-12.0,
2075.0,2154.0,108.0,-12.0,
2068.0,2069.0,108.0,-12.0,
2123.0,1967.0,107.0,-12.0,
2061.0,2137.0,107.0,-12.0,
2100.0,2099.0,106.0,-12.0,
2086.0,2092.0,106.0,-12.0,
2050.0,2111.0,105.0,-12.0,
2084.0,2093.0,105.0,-12.0,
2110.0,2157.0,105.0,-11.0,
2128.0,2162.0,105.0,-11.0,
2106.0,2107.0,105.0,-11.0,
2148.0,2130.0,105.0,-11.0,
2108.0,2043.0,105.0,-11.0,
2143.0,2115.0,105.0,-11.0,
2140.0,2134.0,105.0,-11.0,
2105.0,2251.0,105.0,-11.0,
2058.0,2069.0,105.0,-11.0,
2133.0,2041.0,105.0,-11.0,
2163.0,2134.0,106.0,-10.0,
2148.0,2071.0,106.0,-10.0,
2074.0,2096.0,106.0,-10.0,
2113.0,2132.0,106.0,-10.0,
2145.0,2125.0,106.0,-10.0,
2140.0,2235.0,107.0,-10.0,
2114.0,2199.0,107.0,-9.0,
2032.0,1862.0,107.0,-9.0,
2014.0,1961.0,107.0,-9.0,
2032.0,2020.0,107.0,-9.0,
2083.0,2070.0,108.0,-9.0,
2024.0,2162.0,108.0,-9.0,
2061.0,2129.0,108.0,-9.0,
2053.0,2141.0,109.0,-9.0,
1999.0,2100.0,109.0,-9.0,
2012.0,2049.0,109.0,-9.0,
2036.0,2094.0,109.0,-9.0,
2028.0,2152.0,109.0,-9.0,
2038.0,2077.0,109.0,-10.0,
2025.0,2166.0,109.0,-10.0,
2054.0,2156.0,109.0,-10.0,
2073.0,2165.0,109.0,-10.0,
2069.0,2230.0,108.0,-10.0,
2075.0,2227.0,108.0,-10.0,
2076.0,2146.0,107.0,-11.0,
2087.0,2131.0,106.0,-11.0,
2053.0,2023.0,105.0,-11.0,
2061.0,2056.0,104.0,-11.0,
2106.0,2069.0,103.0,-11.0,
2078.0,2082.0,102.0,-11.0,
2118.0,2080.0,102.0,-11.0,
2140.0,2133.0,101.0,-11.0,
2133.0,2126.0,100.0,-11.0,
2100.0,2117.0,100.0,-11.0,
2135.0,2136.0,99.0,-11.0,
2100.0,2134.0,99.0,-11.0,
2127.0,2113.0,99.0,-11.0,
2094.0,2145.0,98.0,-11.0,
2078.0,2071.0,98.0,-11.0,
2093.0,2075.0,98.0,-10.0,
2085.0,2032.0,98.0,-10.0,
2127.0,2029.0,98.0,-10.0,
2180.0,2095.0,98.0,-10.0,
2073.0,2170.0,98.0,-10.0,
2092.0,2150.0,98.0,-10.0,
2059.0,2122.0,98.0,-9.0,
2040.0,2145.0,98.0,-9.0,
2065.0,2156.0,98.0,-9.0,
2067.0,2118.0,98.0,-9.0,
2116.0,2116.0,98.0,-8.0,
2076.0,2114.0,98.0,-8.0,
2051.0,2090.0,98.0,-8.0,
2135.0,2069.0,99.0,-8.0,
2063.0,2064.0,99.0,-8.0,
2055.0,2091.0,99.0,-8.0,
2056.0,2195.0,99.0,-8.0,
2034.0,2116.0,99.0,-7.0,
2063.0,2160.0,100.0,-7.0,
2085.0,2005.0,100.0,-7.0,
2146.0,2045.0,100.0,-7.0,
2092.0,2099.0,100.0,-7.0,
2087.0,2182.0,100.0,-7.0,
2078.0,2058.0,101.0,-7.0,
2035.0,2094.0,101.0,-7.0,
2064.0,2159.0,101.0,-7.0,
2075.0,2129.0,101.0,-7.0,
2083.0,2057.0,101.0,-7.0,
2113.0,2163.0,101.0,-8.0,
2072.0,2060.0,101.0,-8.0,
2060.0,2116.0,101.0,-8.0,
2128.0,2189.0,100.0,-8.0,
2039.0,2038.0,100.0,-8.0,
2073.0,2051.0,99.0,-8.0,
2105.0,2110.0,98.0,-9.0,
2092.0,2122.0,98.0,-9.0,
2109.0,2120.0,97.0,-9.0,
2078.0,2165.0,96.0,-9.0,
2079.0,2164.0,94.0,-9.0,
2064.0,2117.0,93.0,-9.0,
2069.0,2090.0,93.0,-9.0,
2126.0,2135.0,92.0,-9.0,
2069.0,2110.0,91.0,-9.0,
2106.0,2132.0,91.0,-9.0,
2101.0,2132.0,90.0,-9.0,
2064.0,2125.0,89.0,-9.0,
2075.0,2112.0,89.0,-9.0,
2075.0,2117.0,89.0,-9.0,
2077.0,2133.0,89.0,-9.0,
2079.0,2101.0,89.0,-9.0,
2072.0,2141.0,89.0,-9.0,
2116.0,2095.0,88.0,-9.0,
2076.0,2064.0,88.0,-8.0,
2095.0,2094.0,88.0,-8.0,
2083.0,2078.0,89.0,-8.0,
2095.0,2102.0,89.0,-8.0,
2086.0,2109.0,89.0,-7.0,
2077.0,2029.0,89.0,-7.0,
2100.0,2050.0,89.0,-7.0,
2089.0,2110.0,89.0,-6.0,
2097.0,2150.0,90.0,-6.0,
2106.0,2163.0,90.0,-6.0,
2102.0,2140.0,90.0,-6.0,
2045.0,2209.0,90.0,-6.0,
2074.0,2106.0,91.0,-6.0,
2058.0,1996.0,91.0,-6.0,
2108.0,2066.0,91.0,-6.0,
2063.0,2117.0,91.0,-6.0,
2078.0,2161.0,91.0,-6.0,
2095.0,2100.0,91.0,-6.0,
2096.0,2100.0,92.0,-6.0,
2065.0,2091.0,92.0,-6.0,
2067.0,2133.0,92.0,-6.0,
2062.0,2091.0,92.0,-6.0,
2062.0,2114.0,92.0,-6.0,
2056.0,2129.0,92.0,-6.0,
2063.0,2064.0,92.0,-6.0,
2104.0,2130.0,92.0,-6.0,
2093.0,2140.0,92.0,-6.0,
2081.0,2069.0,91.0,-6.0,
2070.0,2099.0,91.0,-6.0,
2067.0,2144.0,91.0,-6.0,
2072.0,2136.0,91.0,-6.0,
2068.0,2069.0,90.0,-6.0,
2073.0,2068.0,90.0,-6.0,
2171.0,2131.0,89.0,-6.0,
2075.0,2150.0,89.0,-7.0,
2077.0,2142.0,88.0,-7.0,
2064.0,2150.0,88.0,-7.0,
2089.0,2140.0,88.0,-7.0,
2078.0,2179.0,87.0,-7.0,
2117.0,2086.0,87.0,-7.0,
2080.0,2105.0,87.0,-7.0,
2017.0,2068.0,86.0,-7.0,
2122.0,2068.0,86.0,-7.0,
2099.0,2104.0,86.0,-7.0,
2069.0,2115.0,86.0,-7.0,
2079.0,2083.0,85.0,-7.0,
2114.0,2099.0,85.0,-7.0,
2099.0,2084.0,0,
2059.0,2057.0,85.0,-6.0,
2049.0,2128.0,85.0,-6.0,
2034.0,2067.0,85.0,-6.0,
2066.0,2185.0,85.0,-6.0,
2094.0,2171.0,85.0,-6.0,
2077.0,2124.0,85.0,-6.0,
2073.0,2095.0,85.0,-6.0,
2105.0,2123.0,85.0,-6.0,
2066.0,2112.0,85.0,-6.0,
2093.0,2101.0,86.0,-6.0,
2092.0,2111.0,86.0,-5.0,
2066.0,2135.0,86.0,-5.0,
2083.0,2109.0,86.0,-5.0,
2090.0,2145.0,86.0,-5.0,
2087.0,2128.0,86.0,-6.0,
2076.0,2063.0,86.0,-6.0,
2085.0,2084.0,86.0,-6.0,
2090.0,2152.0,86.0,-6.0,
2052.0,2049.0,86.0,-6.0,
2075.0,2157.0,87.0,-6.0,
2103.0,2057.0,87.0,-6.0,
2122.0,2085.0,87.0,-6.0,
2112.0,2039.0,87.0,-5.0,
2042.0,2061.0,87.0,-5.0,
2063.0,2118.0,87.0,-5.0,
2101.0,2132.0,87.0,-5.0,
2096.0,2069.0,87.0,-5.0,
2075.0,2093.0,87.0,-5.0,
2062.0,2081.0,87.0,-5.0,
2052.0,2098.0,87.0,-5.0,
2059.0,2100.0,87.0,-5.0,
2062.0,2130.0,87.0,-5.0,
2055.0,2143.0,86.0,-5.0,
2061.0,2140.0,86.0,-5.0,
2110.0,2132.0,85.0,-4.0,
2053.0,2129.0,85.0,-4.0,
2070.0,2174.0,84.0,-4.0,
2082.0,2049.0,84.0,-4.0,
2072.0,2065.0,83.0,-4.0,
2088.0,2104.0,82.0,-4.0,
2106.0,2115.0,82.0,-4.0,
2160.0,2114.0,81.0,-5.0,
2100.0,2178.0,81.0,-5.0,
2111.0,2117.0,80.0,-5.0,
2068.0,2056.0,80.0,-5.0,
2095.0,2126.0,79.0,-5.0,
2078.0,2124.0,79.0,-6.0,
2078.0,2117.0,79.0,-6.0,
2098.0,2098.0,78.0,-5.0,
2070.0,2117.0,78.0,-5.0,
2068.0,2139.0,77.0,-5.0,
2042.0,2145.0,77.0,-5.0,
2023.0,2123.0,76.0,-5.0,
2067.0,2129.0,76.0,-5.0,
2058.0,2096.0,76.0,-5.0,
2111.0,2040.0,75.0,-5.0,
2084.0,2109.0,75.0,-5.0,
2139.0,2126.0,75.0,-5.0,
2132.0,2110.0,75.0,-5.0,
2063.0,2102.0,75.0,-5.0,
2076.0,2119.0,75.0,-4.0,
2087.0,2084.0,74.0,-4.0,
2058.0,2075.0,74.0,-4.0,
2063.0,2097.0,74.0,-4.0,
2063.0,2111.0,74.0,-4.0,
2088.0,2157.0,74.0,-4.0,
2065.0,2058.0,74.0,-3.0,
2083.0,2121.0,74.0,-3.0,
2113.0,2119.0,74.0,-3.0,
2087.0,2121.0,75.0,-3.0,
2076.0,2135.0,75.0,-3.0,
2079.0,2120.0,75.0,-3.0,
2111.0,2058.0,75.0,-3.0,
2078.0,2121.0,75.0,-3.0,
2062.0,2081.0,75.0,-3.0,
2079.0,2138.0,75.0,-3.0,
2078.0,2110.0,75.0,-3.0,
2098.0,2123.0,76.0,-3.0,
2111.0,2000.0,76.0,-3.0,
2059.0,2159.0,76.0,-3.0,
2103.0,2133.0,76.0,-3.0,
2093.0,2099.0,76.0,-3.0,
2076.0,2068.0,76.0,-3.0,
2113.0,2132.0,76.0,-3.0,
2087.0,2193.0,76.0,-3.0,
2080.0,2165.0,76.0,-3.0,
2064.0,2113.0,76.0,-3.0,
2088.0,2022.0,76.0,-3.0,
2070.0,2040.0,76.0,-3.0,
2103.0,2095.0,76.0,-3.0,
2118.0,2145.0,76.0,-3.0,
2077.0,2065.0,76.0,-3.0,
2062.0,2166.0,76.0,-3.0,
2077.0,2171.0,76.0,-3.0,
2084.0,2006.0,75.0,-3.0,
2106.0,2136.0,75.0,-3.0,
2089.0,2128.0,75.0,-3.0,
2084.0,2098.0,75.0,-3.0,
2110.0,2120.0,74.0,-3.0,
2097.0,2042.0,74.0,-3.0,
2089.0,2154.0,74.0,-3.0,
2083.0,2063.0,73.0,-3.0,
2079.0,2153.0,73.0,-3.0,
2098.0,2061.0,72.0,-3.0,
2090.0,2082.0,72.0,-3.0,
2079.0,2149.0,71.0,-3.0,
2075.0,2129.0,71.0,-3.0,
2078.0,2133.0,70.0,-3.0,
2043.0,2067.0,70.0,-3.0,
2092.0,2132.0,70.0,-3.0,
2104.0,2077.0,69.0,-3.0,
2056.0,2136.0,69.0,-3.0,
2084.0,2123.0,69.0,-3.0,
2086.0,2117.0,69.0,-3.0,
2093.0,2059.0,69.0,-3.0,
2080.0,2124.0,69.0,-3.0,
2079.0,2124.0,68.0,-3.0,
2084.0,2122.0,68.0,-3.0,
2104.0,2134.0,68.0,-3.0,
2102.0,2143.0,68.0,-3.0,
2077.0,2135.0,69.0,-3.0,
2070.0,2112.0,69.0,-3.0,
2090.0,2108.0,69.0,-3.0,
2077.0,2105.0,69.0,-3.0,
2084.0,2106.0,69.0,-3.0,
2088.0,2101.0,70.0,-3.0,
2088.0,2113.0,70.0,-3.0,
2094.0,2118.0,70.0,-3.0,
2107.0,2146.0,70.0,-3.0,
2125.0,2057.0,71.0,-3.0,
2104.0,2148.0,71.0,-3.0,
2049.0,2113.0,71.0,-2.0,
2075.0,2115.0,72.0,-2.0,
2085.0,2104.0,72.0,-2.0,
2083.0,2095.0,73.0,-2.0,
2074.0,2105.0,73.0,-2.0,
2088.0,2110.0,73.0,-2.0,
2094.0,2123.0,74.0,-2.0,
2093.0,2115.0,74.0,-2.0,
2080.0,2098.0,74.0,-2.0,
2075.0,2103.0,75.0,-2.0,
2078.0,2103.0,75.0,-2.0,
2087.0,2114.0,75.0,-2.0,
2087.0,2117.0,76.0,-2.0,
2072.0,2139.0,76.0,-2.0,
2064.0,2087.0,76.0,-2.0,
2092.0,2070.0,76.0,-2.0,
2064.0,2112.0,77.0,-2.0,
2078.0,2128.0,77.0,-3.0,
2077.0,2104.0,77.0,-3.0,
2115.0,2051.0,77.0,-3.0,
2104.0,2087.0,78.0,-3.0,
2096.0,2100.0,78.0,-3.0,
2082.0,2114.0,78.0,-3.0,
2076.0,2123.0,78.0,-3.0,
2076.0,2151.0,78.0,-3.0,
2103.0,2160.0,78.0,-3.0,
2059.0,2076.0,78.0,-2.0,
2088.0,2114.0,78.0,-2.0,
2104.0,2081.0,78.0,-2.0,
2102.0,2044.0,78.0,-2.0,
2043.0,2130.0,78.0,-2.0,
2086.0,2120.0,78.0,-2.0,
2099.0,2106.0,78.0,-2.0,
2077.0,2136.0,78.0,-2.0,
2067.0,2117.0,78.0,-3.0,
2063.0,2103.0,78.0,-2.0,
2071.0,2108.0,77.0,-3.0,
2079.0,2087.0,77.0,-3.0,
2085.0,2116.0,77.0,-3.0,
2090.0,2122.0,77.0,-3.0,
2098.0,2114.0,77.0,-3.0,
2066.0,2123.0,77.0,-3.0,
2070.0,2122.0,77.0,-3.0,
2089.0,2104.0,76.0,-3.0,
2098.0,2098.0,76.0,-3.0,
2084.0,2098.0,76.0,-3.0,
2080.0,2091.0,76.0,-4.0,
2088.0,2110.0,76.0,-4.0,
2111.0,2095.0,76.0,-3.0,
2095.0,2193.0,75.0,-3.0,
2118.0,2145.0,75.0,-3.0,
2077.0,2062.0,75.0,-4.0,
2062.0,2033.0,75.0,-4.0,
2062.0,2078.0,75.0,-3.0,
2078.0,2150.0,75.0,-4.0,
2079.0,2066.0,74.0,-4.0,
2059.0,2085.0,74.0,-4.0,
2068.0,2094.0,74.0,-4.0,
2091.0,2088.0,74.0,-3.0,
2087.0,2145.0,74.0,-3.0,
2092.0,2145.0,74.0,-3.0,
2093.0,2080.0,74.0,-3.0,
2088.0,2107.0,73.0,-3.0,
2082.0,2065.0,73.0,-3.0,
2071.0,2127.0,73.0,-3.0,
2092.0,2114.0,72.0,-3.0,
2103.0,2131.0,72.0,-3.0,
2104.0,2164.0,72.0,-3.0,
2146.0,2139.0,71.0,-3.0,
2090.0,2099.0,71.0,-3.0,
2102.0,2080.0,71.0,-3.0,
2070.0,2089.0,70.0,-2.0,
2063.0,2090.0,70.0,-2.0,
2072.0,2111.0,69.0,-3.0,
2092.0,2140.0,69.0,-3.0,
2073.0,2130.0,69.0,-3.0,
2089.0,2144.0,68.0,-2.0,
2091.0,2121.0,68.0,-2.0,
2081.0,2104.0,67.0,-2.0,
2087.0,2115.0,67.0,-2.0,
2070.0,2064.0,66.0,-2.0,
2062.0,2124.0,66.0,-3.0,
2082.0,2100.0,65.0,-3.0,
2073.0,2102.0,65.0,-3.0,
2083.0,2138.0,65.0,-3.0,
2098.0,2139.0,64.0,-3.0,
2098.0,2134.0,64.0,-3.0,
2088.0,2126.0,63.0,-3.0,
2112.0,2105.0,63.0,-3.0,
2105.0,2109.0,62.0,-3.0,
2084.0,2109.0,62.0,-4.0,
2082.0,2095.0,61.0,-4.0,
2110.0,2145.0,60.0,-4.0,
2065.0,2103.0,59.0,-5.0,
2082.0,2122.0,58.0,-5.0,
2093.0,2105.0,58.0,-5.0,
2098.0,2111.0,57.0,-5.0,
2074.0,2082.0,56.0,-5.0,
2089.0,2105.0,55.0,-5.0,
2082.0,2096.0,55.0,-4.0,
2098.0,2114.0,55.0,-4.0,
2089.0,2108.0,55.0,-3.0,
2070.0,2110.0,55.0,-3.0,
2087.0,2152.0,55.0,-2.0,
2094.0,2123.0,56.0,-2.0,
2100.0,2115.0,56.0,-2.0,
2081.0,2094.0,57.0,-1.0,
2070.0,2066.0,57.0,-1.0,
2088.0,2123.0,58.0,-1.0,
2077.0,2130.0,58.0,-2.0,
2096.0,2126.0,59.0,-2.0,
2093.0,2106.0,60.0,-2.0,
2133.0,2090.0,60.0,-2.0,
2106.0,2040.0,61.0,-2.0,
2092.0,2051.0,61.0,-2.0,
2070.0,2123.0,61.0,-2.0,
2110.0,2171.0,62.0,-2.0,
2092.0,2090.0,62.0,-2.0,
2053.0,2021.0,62.0,-2.0,
2076.0,2064.0,62.0,-2.0,
2120.0,2109.0,62.0,-2.0,
2105.0,2117.0,62.0,-2.0,
2102.0,2115.0,62.0,-2.0,
2113.0,2128.0,62.0,-2.0,
2115.0,2145.0,62.0,-2.0,
2102.0,2123.0,62.0,-2.0,
2073.0,2169.0,62.0,-2.0,
2087.0,2121.0,62.0,-2.0,
2065.0,2172.0,62.0,-2.0,
2093.0,2126.0,62.0,-2.0,
2083.0,2125.0,62.0,-2.0,
2089.0,2117.0,62.0,-2.0,
2098.0,2109.0,62.0,-2.0,
2096.0,2115.0,62.0,-2.0,
2089.0,2107.0,62.0,-2.0,
2087.0,2125.0,62.0,-2.0,
2078.0,2114.0,62.0,-2.0,
2083.0,2130.0,62.0,-2.0,
2082.0,2114.0,62.0,-2.0,
2087.0,2103.0,62.0,-2.0,
2084.0,2095.0,62.0,-2.0,
2075.0,2083.0,63.0,-2.0,
2067.0,2092.0,63.0,-2.0,
2074.0,2088.0,63.0,-2.0,
2068.0,2107.0,63.0,-2.0,
2076.0,2113.0,64.0,-2.0,
2097.0,2108.0,64.0,-2.0,
2095.0,2103.0,64.0,-2.0,
2086.0,2046.0,64.0,-2.0,
2099.0,2125.0,65.0,-3.0,
2066.0,2084.0,65.0,-3.0,
2078.0,2084.0,65.0,-3.0,
2080.0,2118.0,65.0,-3.0,
2050.0,2140.0,66.0,-3.0,
2050.0,2096.0,66.0,-3.0,
2071.0,2116.0,66.0,-3.0,
2081.0,2120.0,66.0,-3.0,
2087.0,2095.0,66.0,-3.0,
2071.0,2099.0,66.0,-3.0,
2093.0,2105.0,66.0,-3.0,
2084.0,2112.0,66.0,-3.0,
2080.0,2133.0,66.0,-3.0,
2072.0,2082.0,67.0,-3.0,
2110.0,2114.0,67.0,-3.0,
2097.0,2120.0,67.0,-3.0,
2077.0,2095.0,67.0,-3.0,
2071.0,2098.0,67.0,-2.0,
2062.0,2098.0,67.0,-2.0,
2130.0,2130.0,67.0,-2.0,
2100.0,2057.0,67.0,-2.0,
2090.0,2092.0,67.0,-2.0,
2095.0,2130.0,67.0,-2.0,
2112.0,2148.0,67.0,-2.0,
2127.0,2172.0,67.0,-2.0,
2103.0,2126.0,67.0,-2.0,
2098.0,2021.0,67.0,-2.0,
2089.0,2072.0,67.0,-2.0,
2065.0,2126.0,67.0,-2.0,
2086.0,2145.0,67.0,-2.0,
2100.0,2052.0,67.0,-2.0,
2052.0,2119.0,67.0,-2.0,
2072.0,2084.0,66.0,-2.0,
2099.0,2137.0,66.0,-2.0,
2115.0,2146.0,66.0,-2.0,
2059.0,2117.0,66.0,-2.0,
2053.0,2070.0,66.0,-2.0,
2107.0,2102.0,66.0,-3.0,
2052.0,2118.0,65.0,-2.0,
2074.0,2138.0,65.0,-2.0,
2107.0,2119.0,65.0,-2.0,
2107.0,2138.0,65.0,-2.0,
2103.0,2133.0,65.0,-2.0,
2078.0,2076.0,64.0,-2.0,
2072.0,2093.0,64.0,-2.0,
2085.0,2111.0,64.0,-2.0,
2069.0,2108.0,64.0,-2.0,
2101.0,2126.0,64.0,-2.0,
2088.0,2132.0,64.0,-2.0,
2101.0,2147.0,64.0,-2.0,
2095.0,2116.0,64.0,-2.0,
2093.0,2107.0,64.0,-2.0,
2083.0,2105.0,64.0,-2.0,
2070.0,2113.0,64.0,-2.0,
2077.0,2094.0,64.0,-3.0,
2077.0,2104.0,64.0,-3.0,
2084.0,2121.0,64.0,-3.0,
2083.0,2123.0,64.0,-3.0,
2084.0,2112.0,64.0,-3.0,
2084.0,2106.0,64.0,-3.0,
2096.0,2095.0,64.0,-3.0,
2088.0,2100.0,64.0,-3.0,
2069.0,2097.0,64.0,-3.0,
2077.0,2095.0,64.0,-3.0,
2081.0,2105.0,64.0,-3.0,
2089.0,2123.0,64.0,-3.0,
2071.0,2100.0,65.0,-3.0,
2075.0,2116.0,65.0,-3.0,
2067.0,2102.0,65.0,-3.0,
2085.0,2091.0,65.0,-3.0,
2088.0,2091.0,65.0,-3.0,
2079.0,2110.0,65.0,-3.0,
2092.0,2099.0,65.0,-3.0,
2092.0,2098.0,65.0,-3.0,
2066.0,2127.0,65.0,-3.0,
2080.0,2105.0,65.0,-3.0,
2090.0,2113.0,65.0,-3.0,
2108.0,2097.0,65.0,-3.0,
2081.0,2053.0,65.0,-3.0,
2077.0,2112.0,65.0,-3.0,
2065.0,2092.0,65.0,-3.0,
2095.0,2111.0,65.0,-3.0,
2099.0,2104.0,66.0,-3.0,
2063.0,2151.0,66.0,-3.0,
2074.0,2134.0,66.0,-3.0,
2116.0,2129.0,66.0,-3.0,
2098.0,2089.0,65.0,-3.0,
2074.0,2088.0,66.0,-3.0,
