2004.0,2038.0,2012.0,2028.0,0.0,-1.0,
1980.0,2017.0,2008.0,2050.0,0.0,-1.0,
1994.0,2053.0,2053.0,2048.0,0.0,-1.0,
2035.0,2063.0,2020.0,2037.0,0.0,-1.0,
2078.0,2093.0,2025.0,2035.0,0.0,-1.0,
2097.0,2125.0,2019.0,2027.0,0.0,-1.0,
2079.0,2096.0,2018.0,2030.0,0.0,-1.0,
2037.0,2065.0,2009.0,2024.0,0.0,-1.0,
2000.0,2030.0,2016.0,2029.0,0.0,-1.0,
1982.0,2038.0,2009.0,2045.0,0.0,-1.0,
2001.0,2061.0,2006.0,2047.0,0.0,-1.0,
2047.0,2079.0,2025.0,2030.0,0.0,-1.0,
2087.0,2063.0,2019.0,2035.0,0.0,-1.0,
2094.0,2035.0,2011.0,2025.0,0.0,-1.0,
2075.0,2105.0,2020.0,2034.0,0.0,-1.0,
2020.0,2137.0,2009.0,1993.0,0.0,-1.0,
1987.0,2044.0,2001.0,2067.0,0.0,-1.0,
1982.0,2036.0,2055.0,2058.0,0.0,-1.0,
2014.0,2025.0,2059.0,2069.0,0.0,-1.0,
2059.0,2048.0,2004.0,2028.0,0,0,
2101.0,2057.0,2115.0,2013.0,0.0,-1.0,
2091.0,2079.0,2045.0,2015.0,0.0,-1.0,
2053.0,2107.0,2020.0,2044.0,0.0,-1.0,
2008.0,2047.0,2081.0,2090.0,0.0,-1.0,
1978.0,2075.0,2105.0,2049.0,0.0,-1.0,
1992.0,2061.0,2094.0,2018.0,0.0,-1.0,
2034.0,2031.0,2105.0,2047.0,0.0,-1.0,
2074.0,2043.0,2037.0,2036.0,0.0,-1.0,
2096.0,2072.0,2040.0,2036.0,0.0,-1.0,
2083.0,2065.0,2063.0,2018.0,0.0,-1.0,
2043.0,2087.0,2026.0,2004.0,0.0,-1.0,
1996.0,2078.0,2025.0,2012.0,0.0,-1.0,
1991.0,2084.0,2032.0,2038.0,0.0,-1.0,
2001.0,2119.0,1984.0,2008.0,0.0,-1.0,
2045.0,2103.0,2008.0,2002.0,0.0,-1.0,
2084.0,2027.0,2017.0,2053.0,0.0,-1.0,
2094.0,2060.0,2077.0,2100.0,0.0,-1.0,
2070.0,2063.0,2039.0,2091.0,0.0,-1.0,
2034.0,2060.0,2043.0,2002.0,0.0,-1.0,
1991.0,2078.0,2018.0,2017.0,0.0,-1.0,
1985.0,2063.0,2018.0,2030.0,0.0,-1.0,
2013.0,2052.0,2037.0,2039.0,0.0,-1.0,
2055.0,2018.0,2071.0,2044.0,0.0,-1.0,
2091.0,2008.0,2056.0,2035.0,0.0,-1.0,
2098.0,2074.0,2025.0,2013.0,0.0,-1.0,
2060.0,2088.0,2027.0,2017.0,0.0,-1.0,
2010.0,2089.0,2030.0,2017.0,0.0,-1.0,
1981.0,2063.0,2013.0,2035.0,0.0,-1.0,
1985.0,2078.0,2032.0,2040.0,0,0,
2022.0,2055.0,2033.0,2043.0,0.0,-1.0,
2077.0,2072.0,2025.0,2046.0,0.0,-1.0,
2096.0,2062.0,2020.0,2053.0,0.0,-1.0,
2085.0,2080.0,2021.0,2035.0,0.0,-1.0,
2046.0,2065.0,2033.0,1978.0,0.0,-1.0,
2000.0,2062.0,2041.0,2022.0,0.0,-1.0,
1978.0,2093.0,2034.0,2030.0,0.0,-1.0,
2005.0,2116.0,2032.0,2062.0,0.0,-1.0,
2041.0,2090.0,2037.0,2042.0,0.0,-1.0,
2081.0,2080.0,2010.0,2073.0,0.0,-1.0,
2095.0,2048.0,2051.0,1995.0,0.0,-1.0,
2073.0,2059.0,2005.0,2026.0,0.0,-1.0,
2030.0,2035.0,2006.0,2022.0,0.0,-1.0,
1997.0,2060.0,2099.0,2040.0,0.0,-1.0,
1982.0,2060.0,2060.0,2035.0,0.0,-1.0,
2009.0,2028.0,2106.0,2056.0,0.0,-1.0,
2053.0,2065.0,2067.0,2068.0,0.0,-1.0,
2092.0,2067.0,2022.0,2039.0,0.0,-1.0,
2092.0,2042.0,2003.0,2039.0,0.0,-1.0,
2073.0,2052.0,2033.0,2050.0,0.0,-1.0,
2019.0,2074.0,2041.0,2028.0,0.0,-1.0,
1984.0,2077.0,2027.0,2030.0,0.0,-1.0,
1986.0,2075.0,2035.0,2036.0,0.0,-1.0,
2021.0,2078.0,2050.0,2039.0,0.0,-1.0,
2065.0,2080.0,2031.0,2025.0,0.0,-1.0,
2097.0,2097.0,2025.0,2021.0,0.0,-1.0,
2090.0,2064.0,2032.0,2010.0,0.0,-1.0,
2048.0,2067.0,2018.0,2014.0,0.0,-1.0,
2004.0,2072.0,2031.0,2028.0,0.0,-1.0,
1981.0,2041.0,2033.0,2044.0,0.0,-1.0,
1991.0,2092.0,2023.0,2034.0,0.0,-1.0,
2034.0,2133.0,2024.0,2046.0,0.0,-1.0,
2078.0,2034.0,1999.0,2025.0,0.0,-1.0,
2095.0,2032.0,1981.0,2047.0,0.0,-1.0,
2079.0,2042.0,1986.0,2028.0,0.0,-1.0,
2034.0,2089.0,2023.0,2039.0,0.0,-1.0,
1992.0,2090.0,2064.0,2046.0,0.0,-1.0,
1977.0,2039.0,2061.0,2040.0,0.0,-1.0,
2007.0,2024.0,2151.0,2059.0,0.0,-1.0,
2051.0,2016.0,2113.0,2056.0,0.0,-1.0,
2090.0,2039.0,2056.0,2040.0,0.0,-1.0,
2094.0,2066.0,2023.0,2028.0,0.0,0,
2063.0,2074.0,2120.0,2038.0,0.0,-1.0,
2021.0,2041.0,2088.0,2029.0,0.0,-1.0,
1987.0,2071.0,2060.0,2031.0,0.0,-1.0,
1984.0,2092.0,2040.0,2030.0,0.0,-1.0,
2021.0,2091.0,2033.0,2030.0,0.0,-1.0,
2062.0,2082.0,2024.0,2029.0,0.0,-1.0,
2096.0,2081.0,2010.0,2028.0,0.0,-1.0,
2088.0,2074.0,2016.0,2033.0,0.0,-1.0,
2055.0,2074.0,1998.0,2027.0,0.0,-1.0,
2009.0,2086.0,1988.0,2020.0,0.0,-1.0,
1980.0,2098.0,2020.0,2007.0,0.0,-1.0,
1988.0,2100.0,2008.0,2005.0,0.0,-1.0,
2029.0,2096.0,1986.0,2018.0,0.0,-1.0,
2075.0,2028.0,2034.0,2055.0,0.0,-1.0,
2101.0,1999.0,2065.0,2049.0,0.0,-1.0,
2084.0,2017.0,2041.0,2101.0,0.0,-1.0,
2048.0,2079.0,2049.0,2094.0,0.0,-1.0,
1993.0,2064.0,2063.0,2043.0,0.0,-1.0,
1980.0,2058.0,2041.0,2028.0,0.0,-1.0,
1998.0,2079.0,2053.0,2030.0,0.0,-1.0,
2028.0,2102.0,2085.0,2032.0,0.0,-1.0,
2085.0,2059.0,2064.0,2035.0,0.0,-1.0,
2093.0,2014.0,2038.0,2052.0,0.0,-1.0,
2070.0,2044.0,2043.0,2021.0,0.0,-1.0,
2023.0,2044.0,2035.0,2042.0,0.0,-1.0,
1985.0,2068.0,2051.0,2033.0,0.0,-1.0,
1992.0,2079.0,2047.0,2032.0,0.0,-1.0,
2015.0,2094.0,2058.0,2033.0,0.0,-1.0,
2056.0,2109.0,2029.0,2020.0,0.0,-1.0,
2095.0,2122.0,2031.0,2028.0,0.0,-1.0,
2090.0,2111.0,2023.0,2021.0,0.0,-1.0,
2061.0,2066.0,2006.0,2031.0,0.0,-1.0,
2011.0,2038.0,2013.0,2076.0,0.0,-1.0,
1983.0,1950.0,1984.0,2061.0,0.0,-1.0,
1987.0,2042.0,1987.0,2012.0,0.0,-1.0,
2024.0,2122.0,1983.0,2011.0,0.0,-1.0,
2069.0,2037.0,1957.0,2041.0,0.0,-1.0,
2097.0,2039.0,2074.0,2048.0,0.0,-1.0,
2083.0,2078.0,2077.0,2046.0,0.0,-1.0,
2047.0,2061.0,2067.0,2033.0,0.0,-1.0,
2002.0,2070.0,2060.0,2032.0,0.0,-1.0,
1979.0,2059.0,2054.0,2043.0,0.0,-1.0,
1993.0,2073.0,2046.0,2024.0,0.0,-1.0,
2037.0,2074.0,2040.0,2036.0,0.0,-1.0,
2081.0,2091.0,2048.0,2055.0,0.0,-1.0,
2098.0,2084.0,2063.0,2045.0,0.0,-1.0,
2077.0,2099.0,2072.0,2030.0,0.0,-1.0,
2033.0,2080.0,2052.0,2024.0,0.0,-1.0,
1994.0,2047.0,2055.0,2026.0,0.0,-1.0,
1982.0,2032.0,2031.0,2028.0,0.0,-1.0,
2009.0,2064.0,2055.0,2034.0,0.0,-1.0,
2056.0,2070.0,2039.0,2038.0,0.0,-1.0,
2090.0,2085.0,2032.0,2027.0,0.0,-1.0,
2094.0,2082.0,2020.0,2032.0,0.0,-1.0,
2065.0,2055.0,2013.0,2018.0,0.0,-1.0,
2018.0,2071.0,2029.0,2022.0,0.0,-1.0,
1982.0,2075.0,2039.0,2036.0,0.0,-1.0,
1986.0,2100.0,2028.0,2044.0,0.0,-1.0,
2017.0,2033.0,2066.0,2037.0,0.0,-1.0,
2066.0,2038.0,2007.0,2060.0,0.0,-1.0,
2091.0,2066.0,2007.0,2043.0,0.0,-1.0,
2088.0,2077.0,2019.0,2047.0,0.0,-1.0,
2047.0,2061.0,2060.0,2050.0,0.0,-1.0,
2007.0,2030.0,2118.0,2064.0,0.0,-1.0,
1984.0,2052.0,2051.0,2035.0,0.0,-1.0,
1992.0,2068.0,2061.0,2058.0,0.0,-1.0,
2034.0,2069.0,2058.0,2050.0,0.0,-1.0,
2077.0,2098.0,2051.0,2030.0,0.0,-1.0,
2097.0,2095.0,2062.0,2029.0,0.0,-1.0,
2081.0,2072.0,2031.0,2018.0,0.0,-1.0,
2036.0,2020.0,2031.0,2027.0,0.0,-1.0,
1996.0,2053.0,1976.0,2038.0,0.0,-1.0,
1980.0,2085.0,1980.0,2034.0,0.0,0.0,
2005.0,2071.0,1963.0,2024.0,0.0,0.0,
2049.0,2041.0,1969.0,2033.0,0.0,0.0,
2089.0,2065.0,2059.0,2060.0,0.0,0.0,
2094.0,2114.0,2113.0,2029.0,0.0,0.0,
2066.0,1989.0,2119.0,2024.0,0.0,0.0,
2018.0,2026.0,2087.0,2053.0,0.0,0.0,
1985.0,2063.0,2103.0,2065.0,0.0,0.0,
1984.0,2066.0,2094.0,2041.0,0.0,0.0,
2022.0,2038.0,2068.0,2028.0,0.0,0.0,
2061.0,2073.0,2035.0,2042.0,0.0,0.0,
2094.0,2100.0,2018.0,2021.0,0.0,0.0,
2092.0,2088.0,2000.0,2019.0,0.0,0.0,
2052.0,2079.0,2023.0,2038.0,0.0,0.0,
2006.0,2082.0,2016.0,2033.0,0.0,0.0,
1981.0,2083.0,2007.0,2031.0,0.0,0.0,
1992.0,2083.0,2030.0,2033.0,0.0,0.0,
2029.0,2088.0,2049.0,2038.0,0.0,0.0,
2076.0,2074.0,2051.0,2029.0,0.0,0.0,
2096.0,2076.0,2009.0,2010.0,0.0,0.0,
2080.0,2077.0,2007.0,2011.0,0.0,0.0,
2043.0,2062.0,1999.0,1986.0,0.0,0.0,
2002.0,2112.0,2035.0,1994.0,0.0,0.0,
1990.0,2112.0,2028.0,2069.0,0.0,0.0,
1989.0,2101.0,2051.0,2142.0,0.0,0.0,
2042.0,2048.0,2075.0,2084.0,0.0,0.0,
2084.0,1990.0,2064.0,2055.0,0.0,0.0,
2105.0,2042.0,2042.0,2030.0,0.0,0.0,
2074.0,1942.0,2066.0,2068.0,0.0,0.0,
2025.0,2031.0,2037.0,2032.0,0.0,0.0,
1990.0,2046.0,2059.0,2026.0,0.0,0.0,
1980.0,2079.0,2054.0,2024.0,0.0,0.0,
2007.0,2093.0,2037.0,2012.0,0.0,0.0,
2058.0,2107.0,2037.0,2015.0,0.0,0.0,
2096.0,2088.0,2032.0,2027.0,0.0,0.0,
2092.0,2061.0,2038.0,2056.0,0.0,0.0,
2061.0,2076.0,2027.0,2028.0,0.0,0.0,
2011.0,2081.0,2038.0,2025.0,0.0,0.0,
1981.0,2080.0,2034.0,2026.0,0.0,0.0,
1987.0,2085.0,2056.0,2034.0,0.0,0.0,
2024.0,2103.0,2047.0,2033.0,0.0,0.0,
2068.0,2093.0,2050.0,2037.0,0.0,0.0,
2094.0,2071.0,2032.0,2034.0,0.0,0.0,
2085.0,2085.0,1999.0,2030.0,0.0,0.0,
2046.0,2056.0,1995.0,2032.0,0.0,0.0,
1997.0,2037.0,1990.0,2044.0,0.0,0.0,
1980.0,2063.0,2014.0,2011.0,0.0,0.0,
1991.0,2048.0,1987.0,2024.0,0.0,0.0,
2037.0,2036.0,2059.0,2060.0,0.0,0.0,
2081.0,2092.0,2082.0,2098.0,0.0,0.0,
2097.0,2110.0,2064.0,2041.0,0.0,0.0,
2075.0,2050.0,2042.0,2000.0,0.0,0.0,
2033.0,2061.0,2012.0,2011.0,0.0,0.0,
1992.0,2053.0,2027.0,2039.0,0.0,0.0,
1981.0,2057.0,2016.0,2037.0,0.0,0.0,
2005.0,2058.0,2059.0,2064.0,0.0,0.0,
2051.0,2062.0,2084.0,2054.0,0.0,0.0,
2089.0,2033.0,2040.0,2061.0,0.0,0.0,
2099.0,2063.0,2067.0,2019.0,0.0,0.0,
2065.0,2069.0,2067.0,2019.0,0.0,0.0,
2021.0,2053.0,2052.0,2025.0,0.0,0.0,
1977.0,2073.0,2048.0,2031.0,0.0,0.0,
1983.0,2070.0,2064.0,2037.0,0.0,0.0,
2018.0,2068.0,2053.0,2056.0,0.0,0.0,
2069.0,2089.0,2062.0,2038.0,0.0,0.0,
2093.0,2092.0,2041.0,2028.0,0.0,0.0,
2088.0,2084.0,2038.0,2027.0,0.0,0.0,
2049.0,2063.0,2024.0,2026.0,0.0,0.0,
2007.0,2065.0,2032.0,2018.0,0.0,0.0,
1979.0,2067.0,2005.0,2006.0,0.0,0.0,
1999.0,2085.0,1997.0,2018.0,0.0,0.0,
2032.0,2064.0,2016.0,2053.0,0.0,0.0,
2071.0,2017.0,2007.0,2052.0,0.0,0.0,
2097.0,2076.0,2054.0,2047.0,0.0,0.0,
2079.0,2071.0,2082.0,2043.0,0.0,0.0,
2037.0,2063.0,2021.0,2046.0,0.0,0.0,
2000.0,2044.0,2043.0,2051.0,0.0,0.0,
1981.0,2057.0,2062.0,2049.0,0.0,0.0,
2001.0,2063.0,2049.0,2037.0,0.0,0.0,
2043.0,2075.0,2030.0,2024.0,0.0,0.0,
2086.0,2066.0,2022.0,2025.0,0.0,0.0,
2094.0,2056.0,2047.0,2025.0,0.0,0.0,
2070.0,2071.0,2072.0,2029.0,0.0,0.0,
2022.0,2070.0,2051.0,2026.0,0.0,0.0,
1986.0,2078.0,2036.0,2024.0,0.0,0.0,
1984.0,2078.0,2025.0,2023.0,0.0,0.0,
2014.0,2061.0,1996.0,2035.0,0.0,0.0,
2060.0,2057.0,2042.0,2032.0,0.0,0.0,
2092.0,2072.0,2053.0,2024.0,0.0,0.0,
2094.0,2084.0,2048.0,2044.0,0.0,0.0,
2056.0,2077.0,2035.0,2043.0,0.0,0.0,
2008.0,2049.0,2020.0,2056.0,0.0,0.0,
1980.0,2034.0,2059.0,2034.0,0.0,0.0,
1988.0,2068.0,2038.0,2030.0,0.0,0.0,
2025.0,2074.0,2059.0,2046.0,0.0,0.0,
2075.0,2036.0,2023.0,2043.0,0.0,0.0,
2095.0,2061.0,2042.0,2039.0,0.0,0.0,
2083.0,2066.0,2055.0,2039.0,0.0,0.0,
2042.0,2069.0,2047.0,2021.0,0.0,0.0,
1997.0,2068.0,2046.0,2027.0,0.0,0.0,
1979.0,2061.0,2037.0,2045.0,0.0,0.0,
1998.0,2062.0,2062.0,2053.0,0.0,0.0,
2039.0,2069.0,2050.0,2040.0,0.0,0.0,
2083.0,2078.0,2052.0,2039.0,0.0,0.0,
2098.0,2051.0,2020.0,2030.0,0.0,0.0,
2075.0,2096.0,2026.0,2024.0,0.0,0.0,
2029.0,2081.0,2011.0,1999.0,0.0,0.0,
1994.0,2062.0,2005.0,2020.0,0.0,0.0,
1982.0,2067.0,1981.0,2061.0,0.0,0.0,
2006.0,2096.0,2002.0,2073.0,0.0,0.0,
2052.0,2066.0,2041.0,2041.0,0.0,0.0,
2088.0,2045.0,2061.0,2019.0,0.0,0.0,
2094.0,2090.0,2008.0,2005.0,0.0,0.0,
2069.0,2049.0,2024.0,2073.0,0.0,0.0,
2018.0,2028.0,2032.0,2098.0,0.0,0.0,
1985.0,2049.0,2074.0,2071.0,0.0,0,
1986.0,2084.0,2059.0,2017.0,0.0,0.0,
2020.0,2063.0,2062.0,2019.0,0.0,0.0,
2067.0,2084.0,2060.0,2039.0,0.0,0.0,
2094.0,2085.0,2050.0,2062.0,0.0,0.0,
2086.0,2055.0,2057.0,2053.0,0.0,0.0,
2052.0,2051.0,2036.0,1967.0,0.0,0.0,
2004.0,2073.0,2065.0,1985.0,0.0,0.0,
1979.0,1998.0,1990.0,2020.0,0.0,0.0,
1993.0,2064.0,2009.0,2033.0,0.0,0.0,
2033.0,2058.0,2099.0,2027.0,0.0,0.0,
2079.0,2037.0,2048.0,2039.0,0.0,0.0,
2099.0,2055.0,2124.0,2071.0,0.0,0.0,
2077.0,2049.0,2036.0,2059.0,0.0,0.0,
2037.0,2069.0,2027.0,2036.0,0.0,0.0,
1992.0,2074.0,2052.0,2021.0,0.0,0.0,
1981.0,2074.0,2053.0,2038.0,0.0,0.0,
2006.0,2076.0,2032.0,2044.0,0.0,0.0,
2049.0,2095.0,2026.0,2074.0,0.0,0.0,
2087.0,2129.0,2011.0,2009.0,0.0,0.0,
2095.0,2104.0,2018.0,2005.0,0.0,0.0,
2070.0,2002.0,2017.0,2035.0,0.0,0.0,
2022.0,2011.0,2014.0,2082.0,0.0,0.0,
1986.0,2061.0,2024.0,2033.0,0.0,0.0,
1985.0,2099.0,1983.0,2029.0,0.0,0.0,
2015.0,2083.0,2007.0,2026.0,0.0,0.0,
2060.0,2102.0,2010.0,2009.0,0.0,0.0,
2096.0,2081.0,2048.0,2035.0,0.0,0.0,
2092.0,2045.0,2039.0,2048.0,0.0,0.0,
2071.0,2061.0,2063.0,2063.0,0.0,0.0,
2011.0,2070.0,2024.0,2048.0,0.0,0.0,
1983.0,2083.0,2027.0,2026.0,0.0,0.0,
1989.0,2066.0,2031.0,2023.0,0.0,0.0,
2028.0,2042.0,2071.0,2043.0,0.0,0.0,
2073.0,2050.0,2051.0,2031.0,0.0,0.0,
2100.0,2068.0,2033.0,2032.0,0.0,0.0,
2087.0,2045.0,2028.0,2038.0,0.0,0.0,
2043.0,2056.0,2042.0,2028.0,0.0,0.0,
1999.0,2091.0,2063.0,2026.0,0.0,0.0,
1979.0,2087.0,2053.0,2026.0,0.0,0.0,
2007.0,2073.0,2064.0,2026.0,0.0,0.0,
2041.0,2065.0,2052.0,2041.0,0.0,0.0,
2086.0,2063.0,2065.0,2047.0,0.0,0.0,
2097.0,2084.0,2014.0,2037.0,0.0,0.0,
2073.0,2082.0,1998.0,2037.0,0.0,0.0,
2027.0,2080.0,2005.0,2026.0,0.0,-1.0,
1990.0,2047.0,2040.0,2023.0,0.0,-1.0,
1981.0,2034.0,2028.0,2038.0,0.0,-1.0,
2014.0,2015.0,2030.0,2062.0,0.0,-1.0,
2059.0,2083.0,2053.0,2047.0,0.0,-1.0,
2093.0,2077.0,2065.0,2042.0,0.0,-1.0,
2096.0,2061.0,2049.0,2029.0,0.0,-1.0,
2059.0,2039.0,2046.0,2018.0,0.0,-1.0,
2014.0,2055.0,2048.0,2029.0,0.0,-1.0,
1983.0,2091.0,2043.0,2038.0,0.0,-1.0,
1986.0,2062.0,2046.0,2053.0,0.0,-1.0,
2027.0,2090.0,2047.0,2035.0,0.0,-1.0,
2069.0,2070.0,2038.0,2044.0,0.0,-1.0,
2097.0,2015.0,2002.0,2068.0,0.0,-1.0,
2087.0,2107.0,2014.0,2034.0,0.0,-1.0,
2046.0,2098.0,2023.0,2000.0,0.0,0,
2002.0,2062.0,2030.0,2032.0,0.0,-1.0,
1982.0,1990.0,2036.0,2065.0,0.0,-1.0,
1993.0,2011.0,2049.0,2043.0,0.0,-1.0,
2035.0,2115.0,2068.0,1978.0,0.0,-1.0,
2077.0,2101.0,2027.0,2023.0,0.0,-1.0,
2098.0,2080.0,2052.0,2057.0,0.0,-1.0,
2080.0,2055.0,2052.0,2084.0,0.0,-1.0,
2035.0,2078.0,2046.0,2073.0,0.0,-1.0,
1995.0,2105.0,2061.0,1992.0,0.0,-1.0,
1981.0,2117.0,2063.0,2006.0,0,0,
2006.0,2100.0,2026.0,2020.0,0.0,-1.0,
2055.0,2078.0,2060.0,2071.0,0.0,-1.0,
2092.0,2027.0,2047.0,2076.0,0.0,-1.0,
2096.0,2003.0,2061.0,2066.0,0.0,-1.0,
2065.0,1979.0,2046.0,2032.0,0.0,-1.0,
2019.0,2029.0,2059.0,2024.0,0.0,-1.0,
1981.0,2063.0,2040.0,2037.0,0.0,-1.0,
1984.0,2063.0,2022.0,2036.0,0.0,-1.0,
2025.0,2091.0,2017.0,2018.0,0.0,-1.0,
2067.0,2074.0,2009.0,2028.0,0.0,-1.0,
2104.0,2062.0,2015.0,2038.0,0.0,-1.0,
2089.0,2030.0,2047.0,2046.0,0.0,-1.0,
2051.0,2071.0,2090.0,2044.0,0.0,-1.0,
2010.0,2117.0,2053.0,2028.0,0.0,-1.0,
1981.0,2113.0,2059.0,2018.0,0.0,0.0,
1994.0,2068.0,2052.0,2036.0,0.0,0.0,
2034.0,2082.0,2035.0,2028.0,0.0,0.0,
2076.0,2105.0,2013.0,2017.0,0.0,0.0,
2096.0,2112.0,2015.0,2028.0,0.0,0.0,
2082.0,2039.0,2009.0,2039.0,0.0,0.0,
2036.0,2062.0,2026.0,2042.0,0.0,0.0,
1996.0,2060.0,2077.0,2048.0,0.0,0.0,
1983.0,2051.0,2038.0,2036.0,0.0,0.0,
2002.0,2067.0,2049.0,2023.0,0.0,0.0,
2049.0,2067.0,2073.0,2030.0,0.0,0.0,
2087.0,2054.0,2037.0,2057.0,0.0,0.0,
2097.0,2063.0,2020.0,2046.0,0.0,0.0,
2067.0,2049.0,2049.0,2056.0,0.0,0.0,
2021.0,2055.0,2011.0,2049.0,0.0,0.0,
1986.0,2062.0,2031.0,2048.0,0.0,0.0,
1983.0,2077.0,2022.0,2021.0,0.0,0.0,
2019.0,2063.0,2065.0,2027.0,0.0,0.0,
2061.0,2039.0,2063.0,2037.0,0.0,0.0,
2094.0,2069.0,1999.0,2036.0,0.0,0.0,
2088.0,2043.0,2020.0,2044.0,0.0,0.0,
2055.0,2035.0,2057.0,2037.0,0.0,0.0,
2007.0,2078.0,2027.0,2022.0,0.0,0.0,
1986.0,2107.0,2056.0,2029.0,0.0,0.0,
1991.0,2092.0,2086.0,2025.0,0.0,0.0,
2030.0,2017.0,2053.0,2045.0,0.0,0.0,
2074.0,2049.0,2077.0,2066.0,0.0,0.0,
2093.0,2066.0,2023.0,2047.0,0.0,0.0,
2082.0,2085.0,2042.0,2033.0,0.0,0.0,
2048.0,2066.0,2026.0,2018.0,0.0,0.0,
1998.0,2057.0,2033.0,2023.0,0.0,0.0,
1979.0,2072.0,2011.0,2024.0,0.0,0.0,
1999.0,2085.0,2030.0,2003.0,0.0,0.0,
2041.0,2069.0,2058.0,2025.0,0.0,0.0,
2083.0,2061.0,2031.0,2040.0,0.0,0.0,
2097.0,2057.0,2032.0,2074.0,0.0,0.0,
2077.0,2072.0,2040.0,2078.0,0.0,0.0,
2027.0,2073.0,2034.0,2027.0,0.0,0.0,
1992.0,2089.0,2025.0,2014.0,0.0,0.0,
1982.0,2108.0,2018.0,2019.0,0.0,0.0,
2009.0,2055.0,2004.0,2059.0,0,0,
2055.0,2055.0,2025.0,2043.0,0.0,0.0,
2093.0,2039.0,2023.0,2016.0,0.0,0.0,
2095.0,2054.0,2041.0,2020.0,0.0,0.0,
2062.0,2053.0,2032.0,2026.0,0.0,0.0,
2016.0,2039.0,2017.0,2038.0,0.0,0.0,
1982.0,2077.0,2004.0,2028.0,0.0,0.0,
1989.0,2088.0,2046.0,2011.0,0.0,0.0,
2026.0,2105.0,2046.0,2040.0,0.0,0.0,
2069.0,2102.0,2060.0,2052.0,0.0,0.0,
2096.0,2003.0,2011.0,2071.0,0.0,0.0,
2088.0,1961.0,2044.0,2037.0,0.0,0.0,
2050.0,2054.0,2021.0,2029.0,0.0,0.0,
2002.0,2076.0,2058.0,2047.0,0.0,0.0,
1985.0,2087.0,2096.0,2044.0,0.0,0.0,
1997.0,2082.0,2106.0,2032.0,0.0,0.0,
2034.0,2100.0,2090.0,2035.0,0.0,0.0,
2079.0,2046.0,2041.0,2043.0,0.0,0.0,
2094.0,2048.0,1998.0,2005.0,0.0,0.0,
2076.0,2060.0,1998.0,2027.0,0.0,0.0,
2044.0,2080.0,2038.0,2070.0,0.0,0.0,
1995.0,2047.0,2011.0,2021.0,0.0,0.0,
1980.0,2062.0,2046.0,2052.0,0.0,0.0,
2006.0,2067.0,2086.0,2027.0,0.0,0.0,
2048.0,2082.0,2057.0,2032.0,0.0,0.0,
2089.0,2087.0,2017.0,2033.0,0.0,0.0,
2094.0,2097.0,2034.0,2024.0,0.0,0.0,
2069.0,2066.0,1980.0,2036.0,0.0,0.0,
2021.0,2067.0,2042.0,2035.0,0.0,0.0,
1986.0,2059.0,2064.0,2031.0,0.0,0.0,
1985.0,2083.0,2032.0,2049.0,0.0,0.0,
2015.0,2094.0,2067.0,2066.0,0.0,0.0,
2063.0,2090.0,2037.0,2045.0,0.0,0.0,
2095.0,2082.0,2033.0,2024.0,0.0,0.0,
2094.0,2046.0,2033.0,2021.0,0.0,0.0,
2053.0,2055.0,2035.0,2010.0,0.0,0.0,
2010.0,2063.0,2037.0,2020.0,0.0,0.0,
1983.0,2052.0,2019.0,2034.0,0.0,0.0,
1990.0,2069.0,2043.0,2076.0,0.0,0.0,
2031.0,2112.0,2063.0,2049.0,0.0,0.0,
2079.0,2080.0,2052.0,2031.0,0.0,0.0,
2099.0,2036.0,2056.0,2032.0,0.0,0.0,
2082.0,2033.0,2035.0,2031.0,0.0,0.0,
2045.0,2060.0,2047.0,2037.0,0.0,0.0,
1997.0,2059.0,2013.0,2037.0,0.0,0.0,
1988.0,2066.0,2004.0,2030.0,0.0,0.0,
2002.0,2078.0,2002.0,2025.0,0.0,0.0,
2045.0,2035.0,2017.0,2034.0,0,0,
2080.0,2027.0,2051.0,2033.0,0.0,0.0,
2096.0,2058.0,2100.0,2036.0,0.0,0.0,
2068.0,2051.0,2083.0,2053.0,0.0,0.0,
2031.0,2069.0,2056.0,2036.0,0.0,0.0,
1991.0,2080.0,2058.0,2020.0,0.0,0.0,
1984.0,2092.0,2033.0,2022.0,0.0,0.0,
2013.0,2092.0,2027.0,2003.0,0.0,0.0,
2059.0,2062.0,2007.0,2006.0,0.0,0.0,
2094.0,2031.0,2059.0,2067.0,0.0,0.0,
2100.0,2051.0,2104.0,2093.0,0.0,0.0,
2062.0,2084.0,2047.0,2099.0,0.0,0.0,
2015.0,2080.0,2052.0,2035.0,0.0,0.0,
1985.0,2076.0,2004.0,2025.0,0.0,0.0,
1986.0,2108.0,2014.0,2046.0,0.0,0.0,
2021.0,2026.0,2005.0,2054.0,0.0,0.0,
2071.0,2080.0,2032.0,2037.0,0.0,0.0,
2104.0,2083.0,2041.0,2009.0,0.0,0.0,
2083.0,2058.0,2019.0,2022.0,0.0,0.0,
2048.0,2028.0,2013.0,2039.0,0.0,0.0,
2003.0,2066.0,2035.0,2053.0,0.0,0.0,
1979.0,2106.0,2036.0,1976.0,0.0,0.0,
1996.0,2076.0,2040.0,2011.0,0.0,0.0,
2041.0,2030.0,2055.0,2067.0,0.0,0.0,
2081.0,2081.0,2043.0,2018.0,0.0,0.0,
2096.0,2112.0,2042.0,2027.0,0.0,0,
2076.0,2025.0,2009.0,2016.0,0.0,0.0,
2034.0,2047.0,2019.0,2069.0,0.0,0.0,
1992.0,2057.0,2024.0,2032.0,0.0,0.0,
1983.0,2040.0,2001.0,2024.0,0.0,0.0,
2007.0,2037.0,1983.0,2054.0,0.0,0.0,
2052.0,2062.0,1987.0,2033.0,0.0,0.0,
2086.0,2070.0,1993.0,2036.0,0.0,0.0,
2094.0,2075.0,2037.0,2031.0,0.0,0.0,
2067.0,2097.0,2058.0,2034.0,0.0,0.0,
2024.0,2070.0,2059.0,2028.0,0.0,0.0,
1986.0,2021.0,2046.0,2043.0,0.0,0.0,
1986.0,2042.0,2027.0,2060.0,0.0,0.0,
2019.0,2100.0,2021.0,2033.0,0.0,0.0,
2060.0,2116.0,2021.0,1987.0,0.0,0.0,
2096.0,2097.0,2022.0,2021.0,0.0,0.0,
2094.0,2091.0,2044.0,2039.0,0.0,0.0,
2052.0,2040.0,2033.0,2046.0,0.0,0.0,
2006.0,2038.0,2028.0,2038.0,0.0,0.0,
1982.0,2054.0,2052.0,2041.0,0.0,0.0,
1989.0,2064.0,2056.0,2029.0,0.0,0.0,
2029.0,2085.0,2048.0,2031.0,0.0,0.0,
2074.0,2076.0,2024.0,2029.0,0.0,0.0,
2104.0,2053.0,2037.0,2042.0,0.0,0.0,
2082.0,2054.0,2066.0,2035.0,0.0,0.0,
2040.0,2054.0,2034.0,2037.0,0.0,0.0,
1997.0,2067.0,2049.0,2035.0,0.0,0.0,
1981.0,2066.0,1991.0,2028.0,0.0,0.0,
1997.0,2113.0,2070.0,2054.0,0.0,0.0,
2046.0,2117.0,2031.0,2011.0,0.0,0.0,
2087.0,2033.0,2018.0,2066.0,0.0,0.0,
2097.0,2066.0,2018.0,2057.0,0.0,0.0,
2068.0,2115.0,2017.0,2045.0,0.0,0.0,
2025.0,2083.0,2104.0,2023.0,0.0,0.0,
1988.0,2002.0,2109.0,2040.0,0.0,0.0,
1985.0,1995.0,2027.0,2033.0,0.0,0.0,
2016.0,2019.0,2006.0,2033.0,0.0,0.0,
2060.0,2030.0,1993.0,2036.0,0.0,0.0,
2094.0,2027.0,2019.0,2033.0,0.0,0.0,
2092.0,2060.0,2092.0,2056.0,0.0,0.0,
2057.0,2071.0,2063.0,2028.0,0.0,0.0,
2015.0,2090.0,2004.0,2023.0,0.0,0.0,
1984.0,2093.0,2022.0,2041.0,0.0,0.0,
1990.0,2032.0,2049.0,2094.0,0,0,
2026.0,2078.0,2083.0,2054.0,0.0,0.0,
2072.0,2098.0,2039.0,2017.0,0.0,0.0,
2095.0,2105.0,2024.0,1982.0,0.0,0.0,
2088.0,2094.0,2011.0,2018.0,0.0,0.0,
2046.0,2049.0,2010.0,2014.0,0.0,0.0,
2001.0,2090.0,2028.0,2028.0,0.0,0.0,
1982.0,2110.0,2010.0,1998.0,0.0,0.0,
1994.0,2049.0,1970.0,2039.0,0.0,0.0,
2037.0,1999.0,1967.0,2065.0,0.0,0.0,
2089.0,2051.0,1993.0,2038.0,0.0,0.0,
2094.0,2029.0,2049.0,2067.0,0.0,0.0,
2072.0,2067.0,2081.0,2066.0,0.0,0.0,
2027.0,2088.0,2050.0,2005.0,0.0,0.0,
1987.0,2097.0,2042.0,1999.0,0.0,0.0,
1979.0,2070.0,2028.0,2050.0,0.0,0.0,
2018.0,2065.0,2055.0,2036.0,0.0,0.0,
2056.0,2092.0,2051.0,2040.0,0.0,0.0,
2089.0,2132.0,2047.0,2024.0,0.0,0.0,
2093.0,2103.0,2030.0,2024.0,0.0,0.0,
2064.0,2061.0,1996.0,1996.0,0.0,0.0,
2017.0,2019.0,2010.0,2006.0,0.0,-1.0,
1992.0,2053.0,2066.0,2033.0,0.0,-1.0,
1985.0,2075.0,2063.0,2071.0,0.0,-1.0,
2018.0,2065.0,2098.0,2087.0,0.0,-1.0,
2067.0,2046.0,2055.0,2058.0,0.0,-1.0,
2097.0,2028.0,2022.0,2037.0,0.0,-1.0,
2086.0,2072.0,2040.0,2026.0,0.0,-1.0,
2054.0,2032.0,2010.0,2039.0,0.0,-1.0,
2006.0,2048.0,2026.0,2029.0,0.0,-1.0,
1979.0,2064.0,1997.0,2024.0,0.0,-1.0,
1996.0,2101.0,2015.0,2022.0,0.0,-1.0,
2035.0,2123.0,2020.0,2024.0,0.0,-1.0,
2079.0,2090.0,2084.0,2044.0,0.0,-1.0,
2106.0,2024.0,2028.0,2042.0,0.0,-1.0,
2080.0,2046.0,2030.0,2032.0,0.0,-1.0,
2035.0,2076.0,1988.0,2027.0,0.0,-1.0,
1994.0,2039.0,2032.0,2031.0,0.0,-1.0,
1981.0,2024.0,2116.0,2054.0,0.0,-1.0,
2006.0,2047.0,2068.0,2057.0,0.0,-1.0,
2058.0,2080.0,2072.0,2037.0,0.0,-1.0,
2092.0,2092.0,2036.0,2030.0,0.0,-1.0,
2078.0,2041.0,2033.0,2028.0,0.0,-1.0,
2067.0,2078.0,2059.0,2076.0,0.0,-1.0,
2026.0,2140.0,2004.0,2047.0,0.0,0.0,
1985.0,2124.0,2020.0,1982.0,0.0,0.0,
1991.0,2104.0,2036.0,2039.0,0.0,0.0,
2017.0,2063.0,2028.0,2047.0,0.0,0.0,
2065.0,1988.0,2025.0,2065.0,0.0,0.0,
2096.0,2001.0,2005.0,2005.0,0.0,0.0,
2089.0,2085.0,2016.0,1997.0,0.0,0.0,
2053.0,2036.0,2008.0,2021.0,0.0,0.0,
2019.0,2031.0,2071.0,2076.0,0.0,0.0,
1985.0,2106.0,2083.0,2072.0,0.0,0.0,
1993.0,2101.0,2062.0,2049.0,0.0,0.0,
2032.0,2042.0,2062.0,2048.0,0.0,0.0,
2074.0,2038.0,2030.0,2027.0,0.0,0.0,
2097.0,2034.0,2011.0,2016.0,0.0,0.0,
2089.0,2044.0,2003.0,2010.0,0.0,0.0,
2040.0,2027.0,1975.0,2036.0,0.0,0.0,
1999.0,2070.0,1957.0,2021.0,0.0,0.0,
1978.0,2095.0,1985.0,2012.0,0.0,0.0,
2001.0,2104.0,2051.0,2041.0,0.0,0.0,
2045.0,2107.0,2056.0,2054.0,0.0,0,
2085.0,2095.0,2110.0,2055.0,0.0,0.0,
2094.0,2081.0,2084.0,2027.0,0.0,0.0,
2078.0,2021.0,2056.0,2021.0,0.0,0.0,
2026.0,2023.0,2039.0,2049.0,0.0,-1.0,
1984.0,2058.0,2041.0,2057.0,0.0,-1.0,
1979.0,2066.0,2011.0,2023.0,0.0,-1.0,
2012.0,2082.0,2043.0,2038.0,0.0,-1.0,
2062.0,2071.0,2041.0,2058.0,0.0,-1.0,
2097.0,2080.0,2063.0,2054.0,0.0,-1.0,
2089.0,2022.0,2032.0,2030.0,0.0,-1.0,
2055.0,2009.0,2000.0,2030.0,0.0,-1.0,
2011.0,2047.0,2061.0,2012.0,0.0,-1.0,
1982.0,2111.0,2055.0,2015.0,0.0,-1.0,
1993.0,2131.0,2075.0,2022.0,0.0,-1.0,
2029.0,2101.0,2024.0,2088.0,0.0,-1.0,
2072.0,2085.0,2066.0,2051.0,0.0,-1.0,
2097.0,2077.0,2007.0,2000.0,0.0,-1.0,
2085.0,2114.0,2046.0,2039.0,0.0,-1.0,
2044.0,1958.0,1999.0,2073.0,0.0,-1.0,
2005.0,2053.0,2029.0,2067.0,0.0,-1.0,
1981.0,2050.0,2027.0,1968.0,0.0,-1.0,
1996.0,2084.0,2033.0,2006.0,0.0,-1.0,
2040.0,2039.0,2031.0,2063.0,0.0,0,
2083.0,2098.0,2055.0,2058.0,0.0,-1.0,
2093.0,2110.0,1988.0,2020.0,0.0,-1.0,
2080.0,2108.0,2033.0,2037.0,0.0,-2.0,
2033.0,2045.0,2027.0,2015.0,0.0,-1.0,
1993.0,2036.0,2093.0,1995.0,0.0,-1.0,
1984.0,2029.0,2109.0,2049.0,0.0,-1.0,
2006.0,2000.0,2067.0,2068.0,0.0,-1.0,
2052.0,2092.0,2035.0,2061.0,0.0,-1.0,
2099.0,2132.0,2035.0,2038.0,0.0,-1.0,
2098.0,2133.0,1985.0,2039.0,0.0,-1.0,
2064.0,2008.0,1968.0,2062.0,0.0,-1.0,
2021.0,1994.0,1986.0,2044.0,0.0,-1.0,
1982.0,2014.0,1993.0,2024.0,0.0,0,
1983.0,2067.0,2037.0,2053.0,0.0,-1.0,
2027.0,2103.0,2071.0,2029.0,0.0,-1.0,
2070.0,2064.0,2028.0,2036.0,0.0,-1.0,
2096.0,2115.0,2073.0,2048.0,0.0,-1.0,
2085.0,2133.0,2068.0,1985.0,0.0,-1.0,
2048.0,2028.0,2023.0,2015.0,0.0,-1.0,
2004.0,1976.0,1991.0,1997.0,0.0,-1.0,
1983.0,2034.0,2054.0,2083.0,0.0,-1.0,
1992.0,2126.0,2085.0,2047.0,0.0,-1.0,
2033.0,2097.0,2099.0,1985.0,0.0,-1.0,
2078.0,2052.0,2112.0,2053.0,0.0,-1.0,
2093.0,2050.0,2068.0,2061.0,0.0,-1.0,
2080.0,2103.0,2044.0,2027.0,0.0,-1.0,
2042.0,2111.0,2028.0,2038.0,0.0,-1.0,
1996.0,2103.0,2060.0,2061.0,0.0,-1.0,
1981.0,2108.0,2077.0,2031.0,0.0,-1.0,
2017.0,1972.0,2040.0,2028.0,0.0,-1.0,
2047.0,1959.0,2021.0,2038.0,0.0,-1.0,
2088.0,1958.0,2028.0,2089.0,0.0,-1.0,
2096.0,2059.0,2009.0,2038.0,0.0,-1.0,
2066.0,2090.0,2001.0,2029.0,0,0,
2021.0,2084.0,1969.0,2052.0,0.0,-2.0,
1985.0,2159.0,2035.0,2050.0,0.0,-2.0,
1982.0,2089.0,2034.0,2010.0,0.0,-2.0,
2013.0,2117.0,2066.0,2042.0,0.0,-2.0,
2064.0,2095.0,2066.0,2008.0,0.0,-2.0,
2096.0,2048.0,2019.0,2004.0,0.0,-2.0,
2088.0,2043.0,2003.0,2067.0,0.0,-2.0,
2055.0,2060.0,2014.0,2043.0,0.0,-3.0,
2005.0,2140.0,2033.0,1996.0,0.0,-3.0,
1984.0,2108.0,2080.0,2001.0,0.0,-3.0,
1991.0,2061.0,2036.0,2025.0,0.0,-3.0,
2030.0,2052.0,2016.0,2019.0,0.0,-3.0,
2086.0,2093.0,1984.0,2041.0,0.0,-3.0,
2094.0,1953.0,2023.0,2051.0,0.0,-3.0,
2082.0,1973.0,2021.0,2077.0,0.0,-4.0,
2038.0,2009.0,1984.0,2043.0,0.0,-4.0,
1993.0,2161.0,2088.0,2016.0,0.0,-4.0,
1982.0,2044.0,2094.0,2002.0,0.0,-4.0,
2000.0,2021.0,2099.0,2060.0,0.0,-4.0,
2043.0,2061.0,2120.0,2063.0,0.0,-4.0,
2083.0,2032.0,2055.0,2070.0,0.0,-4.0,
2093.0,2134.0,2020.0,2052.0,0.0,-4.0,
2070.0,2227.0,2052.0,2002.0,0.0,-4.0,
2028.0,2047.0,2081.0,2025.0,0.0,-4.0,
1989.0,1907.0,1962.0,2069.0,0.0,-4.0,
1984.0,2070.0,1985.0,2039.0,0.0,-4.0,
2013.0,2088.0,2029.0,2027.0,0.0,-4.0,
2054.0,2004.0,2040.0,2018.0,0.0,-4.0,
2090.0,2077.0,2033.0,2005.0,0.0,-4.0,
2102.0,2138.0,2087.0,2013.0,0.0,-4.0,
2059.0,2103.0,2013.0,2004.0,0.0,-4.0,
2013.0,2059.0,2002.0,2045.0,0.0,-4.0,
1983.0,2020.0,1992.0,2028.0,0.0,-4.0,
1986.0,2055.0,2074.0,2083.0,0.0,-4.0,
2025.0,2073.0,2060.0,2085.0,0.0,-4.0,
2069.0,2039.0,2045.0,2075.0,0.0,-4.0,
2100.0,2082.0,2031.0,2032.0,0.0,-4.0,
2089.0,2039.0,2005.0,2002.0,0.0,-4.0,
2048.0,2057.0,2042.0,1996.0,0.0,-4.0,
2001.0,2135.0,2066.0,2024.0,0.0,-4.0,
1980.0,2144.0,2015.0,2019.0,0.0,-4.0,
1996.0,2083.0,1981.0,2030.0,1.0,-5.0,
2039.0,2050.0,1941.0,2039.0,1.0,-5.0,
2080.0,2098.0,2020.0,2027.0,1.0,-5.0,
2098.0,1984.0,2069.0,2043.0,1.0,0,
2076.0,2068.0,2105.0,2086.0,1.0,-5.0,
2033.0,2015.0,2074.0,2073.0,1.0,-5.0,
1993.0,2069.0,2036.0,2071.0,1.0,-6.0,
1984.0,2120.0,2016.0,2018.0,1.0,-6.0,
2007.0,2085.0,2055.0,2006.0,1.0,-6.0,
2055.0,2018.0,2020.0,1997.0,1.0,-6.0,
2093.0,2072.0,2019.0,2002.0,1.0,-7.0,
2098.0,2162.0,2033.0,2032.0,1.0,-7.0,
2061.0,2055.0,2003.0,2058.0,1.0,-7.0,
2017.0,2017.0,2028.0,2051.0,1.0,-7.0,
1985.0,2066.0,2116.0,2068.0,1.0,-7.0,
1987.0,2023.0,2062.0,2001.0,1.0,-8.0,
2022.0,2114.0,2019.0,2019.0,1.0,-8.0,
2069.0,2047.0,2085.0,2032.0,1.0,-8.0,
2103.0,1995.0,2073.0,2080.0,1.0,-9.0,
2091.0,1980.0,2057.0,2037.0,1.0,-9.0,
2051.0,2074.0,1997.0,2041.0,1.0,-10.0,
2004.0,2050.0,2028.0,2023.0,1.0,-10.0,
1978.0,2039.0,2021.0,2033.0,1.0,-10.0,
1993.0,2050.0,2059.0,2025.0,1.0,-10.0,
2040.0,2109.0,2048.0,2029.0,1.0,-11.0,
2081.0,2073.0,2044.0,2052.0,1.0,-11.0,
2100.0,2131.0,2055.0,2023.0,1.0,-11.0,
2077.0,2009.0,1979.0,2029.0,2.0,-11.0,
2031.0,2120.0,1979.0,2013.0,2.0,-12.0,
1995.0,2136.0,2050.0,2027.0,2.0,-12.0,
1987.0,2145.0,2076.0,2028.0,2.0,-12.0,
2007.0,2082.0,2047.0,2072.0,2.0,-12.0,
2054.0,2029.0,2049.0,2057.0,2.0,-12.0,
2089.0,1975.0,2008.0,2062.0,2.0,-13.0,
2091.0,2033.0,2054.0,2043.0,2.0,-13.0,
2063.0,2069.0,2005.0,2031.0,2.0,-13.0,
2026.0,2121.0,2015.0,2022.0,2.0,-13.0,
1985.0,2068.0,2100.0,2040.0,2.0,-13.0,
1986.0,2026.0,2079.0,2024.0,0,0,
2013.0,2006.0,2076.0,2033.0,2.0,-13.0,
2060.0,2031.0,1995.0,2080.0,2.0,-13.0,
2094.0,2124.0,1976.0,2029.0,2.0,-13.0,
2087.0,2079.0,2035.0,2040.0,2.0,-13.0,
2056.0,2026.0,2068.0,2026.0,2.0,-13.0,
2008.0,2083.0,2094.0,2019.0,2.0,-14.0,
1980.0,2119.0,2040.0,2007.0,2.0,-14.0,
1990.0,2065.0,2048.0,2035.0,2.0,-14.0,
2026.0,2064.0,2123.0,2061.0,2.0,-14.0,
2075.0,2134.0,2084.0,2049.0,3.0,-14.0,
2100.0,2003.0,2016.0,2052.0,2.0,-15.0,
2083.0,1930.0,1987.0,2060.0,2.0,-15.0,
2041.0,2002.0,2021.0,2029.0,2.0,-15.0,
2002.0,2114.0,2049.0,2019.0,2.0,-15.0,
1981.0,2133.0,2021.0,2030.0,2.0,-16.0,
2001.0,2150.0,2007.0,2054.0,2.0,-16.0,
2045.0,2120.0,2046.0,2035.0,2.0,-16.0,
2086.0,2069.0,2019.0,2017.0,2.0,-17.0,
2092.0,2032.0,2044.0,1997.0,2.0,-17.0,
2071.0,2023.0,2014.0,2035.0,3.0,-18.0,
2028.0,2091.0,2020.0,2018.0,3.0,0,
1988.0,2047.0,2040.0,2018.0,3.0,-18.0,
1987.0,1965.0,2051.0,2050.0,3.0,-18.0,
2013.0,2035.0,2041.0,2092.0,3.0,-19.0,
2056.0,2169.0,2027.0,2032.0,3.0,-19.0,
2091.0,2091.0,1971.0,1972.0,3.0,-20.0,
2090.0,2064.0,2000.0,2009.0,3.0,-20.0,
2061.0,1916.0,2019.0,2045.0,3.0,-20.0,
2018.0,1903.0,2109.0,2153.0,3.0,-21.0,
1985.0,2046.0,2050.0,2069.0,3.0,-21.0,
1989.0,2125.0,2043.0,2017.0,3.0,-21.0,
2025.0,2167.0,2118.0,2051.0,3.0,-22.0,
2073.0,2010.0,2016.0,2027.0,3.0,-22.0,
2097.0,1998.0,1977.0,2042.0,3.0,-22.0,
2093.0,2130.0,2047.0,2003.0,4.0,-22.0,
2045.0,2131.0,2016.0,2008.0,0,0,
2004.0,2043.0,2035.0,2061.0,4.0,-22.0,
1983.0,2046.0,2029.0,2064.0,4.0,-22.0,
1996.0,2043.0,2072.0,2023.0,4.0,-22.0,
2039.0,2139.0,2091.0,1996.0,4.0,-22.0,
2088.0,2193.0,2055.0,2075.0,4.0,-23.0,
2099.0,2064.0,2086.0,2055.0,4.0,-23.0,
2078.0,2129.0,2044.0,1991.0,4.0,-23.0,
2033.0,2026.0,2031.0,2052.0,4.0,-23.0,
1991.0,2016.0,2065.0,2033.0,4.0,-23.0,
1983.0,1992.0,1973.0,2045.0,4.0,-23.0,
2006.0,2089.0,2025.0,2024.0,4.0,-23.0,
2054.0,2093.0,2017.0,2000.0,4.0,-23.0,
2090.0,2080.0,2063.0,2039.0,4.0,-23.0,
2094.0,2018.0,2028.0,2036.0,4.0,-23.0,
2064.0,2132.0,2043.0,2102.0,4.0,-23.0,
2014.0,2138.0,2048.0,2038.0,4.0,-23.0,
1984.0,2034.0,2061.0,2044.0,4.0,-23.0,
1986.0,2092.0,2062.0,2032.0,4.0,-24.0,
2019.0,2000.0,1964.0,2054.0,4.0,-24.0,
2064.0,1925.0,1979.0,2045.0,4.0,-24.0,
2096.0,2050.0,2082.0,2035.0,5.0,-24.0,
2088.0,2047.0,1987.0,2002.0,5.0,-24.0,
2048.0,2123.0,2048.0,1987.0,5.0,-25.0,
2007.0,2116.0,2072.0,2018.0,5.0,-25.0,
1979.0,2007.0,2040.0,2048.0,5.0,-25.0,
1993.0,2082.0,2070.0,2070.0,5.0,-25.0,
2032.0,2089.0,2062.0,2040.0,5.0,-26.0,
2076.0,2024.0,2029.0,2022.0,5.0,-26.0,
2097.0,2087.0,1991.0,1999.0,5.0,-26.0,
2085.0,2086.0,2077.0,2066.0,5.0,-26.0,
2042.0,2141.0,2040.0,2063.0,5.0,-27.0,
1997.0,2117.0,2054.0,2046.0,5.0,-27.0,
1981.0,2011.0,1930.0,2014.0,5.0,-27.0,
2001.0,1967.0,1991.0,2069.0,5.0,-28.0,
2043.0,1947.0,1993.0,2029.0,6.0,-28.0,
2088.0,2037.0,2075.0,2040.0,6.0,-28.0,
2095.0,2037.0,2013.0,2061.0,6.0,-28.0,
2071.0,2110.0,2028.0,2023.0,6.0,-28.0,
2022.0,2167.0,2068.0,2042.0,6.0,-28.0,
1987.0,2144.0,2067.0,2008.0,6.0,-29.0,
1985.0,2070.0,2083.0,2035.0,6.0,-29.0,
2013.0,2076.0,2034.0,2032.0,6.0,-29.0,
2061.0,2109.0,2068.0,1988.0,6.0,-29.0,
2095.0,2102.0,2041.0,1999.0,6.0,-29.0,
2092.0,2013.0,2008.0,2049.0,6.0,-29.0,
2057.0,2011.0,2028.0,2106.0,6.0,-29.0,
2011.0,2088.0,2034.0,2034.0,6.0,-29.0,
1987.0,2037.0,2053.0,2011.0,6.0,-30.0,
1989.0,2029.0,2079.0,2060.0,6.0,-30.0,
2027.0,2113.0,2111.0,2029.0,6.0,-30.0,
2072.0,1983.0,2077.0,2066.0,6.0,-30.0,
2096.0,1945.0,1965.0,2033.0,6.0,-30.0,
2082.0,2114.0,2075.0,2053.0,6.0,-31.0,
2035.0,2067.0,2017.0,2046.0,6.0,-31.0,
1991.0,2045.0,2030.0,2021.0,6.0,-31.0,
1978.0,2090.0,2012.0,2033.0,6.0,-32.0,
2011.0,2152.0,2085.0,2013.0,6.0,-32.0,
2052.0,2082.0,2050.0,2016.0,6.0,-32.0,
2091.0,2102.0,2018.0,2026.0,7.0,-33.0,
2091.0,2146.0,2024.0,2060.0,7.0,-33.0,
2057.0,2033.0,1916.0,2021.0,7.0,-34.0,
2012.0,2092.0,2005.0,2044.0,7.0,-34.0,
1979.0,2038.0,2087.0,2029.0,7.0,-35.0,
1990.0,2047.0,2061.0,2038.0,7.0,-35.0,
2027.0,2040.0,2126.0,2031.0,7.0,-35.0,
2075.0,2051.0,2074.0,2060.0,7.0,-35.0,
2097.0,2067.0,2039.0,2073.0,7.0,-36.0,
2080.0,1972.0,1966.0,2028.0,7.0,-36.0,
2033.0,2053.0,2057.0,2024.0,7.0,-36.0,
2001.0,2088.0,2037.0,2018.0,7.0,-36.0,
1985.0,2042.0,2043.0,2011.0,7.0,-36.0,
2008.0,2075.0,2026.0,1967.0,7.0,-36.0,
2054.0,2176.0,2025.0,2052.0,7.0,-37.0,
2090.0,2037.0,2079.0,2054.0,8.0,-37.0,
2089.0,2067.0,1932.0,2061.0,8.0,-37.0,
2054.0,2105.0,2024.0,2040.0,8.0,-37.0,
2006.0,2119.0,2151.0,2035.0,8.0,-37.0,
1976.0,2061.0,2059.0,2015.0,0,0,
1995.0,1964.0,2091.0,2040.0,8.0,-37.0,
2032.0,1996.0,1960.0,2037.0,8.0,-37.0,
2075.0,2137.0,2060.0,2109.0,8.0,-37.0,
2094.0,2043.0,2033.0,2008.0,8.0,-37.0,
2082.0,2046.0,1974.0,2028.0,8.0,-37.0,
2035.0,2064.0,2018.0,2018.0,8.0,-37.0,
1991.0,2107.0,2107.0,2030.0,8.0,-37.0,
1979.0,2059.0,2067.0,2051.0,8.0,-37.0,
2010.0,2072.0,2023.0,2079.0,8.0,-37.0,
2061.0,2034.0,2028.0,2011.0,8.0,-37.0,
2095.0,2006.0,2015.0,2011.0,8.0,-37.0,
2092.0,2100.0,2017.0,2022.0,8.0,-37.0,
2054.0,2147.0,2019.0,2014.0,8.0,-38.0,
2009.0,2061.0,2072.0,2069.0,8.0,-38.0,
1981.0,2078.0,2046.0,2043.0,9.0,-38.0,
1993.0,2097.0,2052.0,2032.0,9.0,-38.0,
2037.0,2131.0,1994.0,1997.0,9.0,-39.0,
2087.0,1995.0,2058.0,2010.0,9.0,-39.0,
2097.0,2008.0,2032.0,2068.0,9.0,-39.0,
2075.0,2035.0,1995.0,2091.0,9.0,-39.0,
2029.0,2063.0,2105.0,2042.0,9.0,-40.0,
1988.0,2061.0,2060.0,2019.0,9.0,-40.0,
1987.0,2036.0,2074.0,2001.0,9.0,-40.0,
2011.0,2055.0,2029.0,2026.0,9.0,-40.0,
2058.0,2136.0,1997.0,2045.0,9.0,-41.0,
2098.0,2174.0,2157.0,2076.0,9.0,-41.0,
2096.0,2101.0,2068.0,2029.0,9.0,-41.0,
2052.0,1958.0,2064.0,2060.0,9.0,-42.0,
2006.0,2027.0,2075.0,2038.0,9.0,-42.0,
1977.0,2057.0,2071.0,2047.0,9.0,-42.0,
1990.0,2152.0,2090.0,1999.0,9.0,-43.0,
2036.0,2116.0,2007.0,2052.0,0,0,
2081.0,1977.0,1964.0,2010.0,9.0,-43.0,
2094.0,2037.0,2026.0,1970.0,9.0,-43.0,
2093.0,2054.0,2003.0,2078.0,10.0,-43.0,
2031.0,2065.0,2059.0,2045.0,10.0,-43.0,
1987.0,2098.0,2116.0,2046.0,10.0,-44.0,
1983.0,2024.0,2056.0,2036.0,10.0,-44.0,
2016.0,2013.0,2013.0,2021.0,10.0,-44.0,
2071.0,2042.0,1991.0,2054.0,10.0,-44.0,
2097.0,2089.0,2026.0,2044.0,10.0,-44.0,
2088.0,2099.0,1948.0,2028.0,10.0,-44.0,
2050.0,2054.0,2086.0,2013.0,10.0,-44.0,
2004.0,2048.0,2063.0,2026.0,10.0,-45.0,
1982.0,2058.0,2033.0,2033.0,10.0,-45.0,
1997.0,2090.0,2044.0,2028.0,10.0,-45.0,
2039.0,2072.0,2108.0,2054.0,10.0,-45.0,
2084.0,2102.0,2007.0,2024.0,10.0,-45.0,
2101.0,2052.0,2092.0,2084.0,10.0,-45.0,
2078.0,2117.0,1942.0,2015.0,10.0,-45.0,
2027.0,2071.0,1988.0,1998.0,10.0,-45.0,
1987.0,2040.0,2077.0,2009.0,10.0,-46.0,
1980.0,2086.0,2035.0,2045.0,10.0,-46.0,
2016.0,2052.0,2076.0,2066.0,10.0,-46.0,
2061.0,2074.0,2092.0,2041.0,0,0,
2094.0,2022.0,2066.0,2043.0,11.0,-46.0,
2090.0,2043.0,2053.0,2039.0,11.0,-46.0,
2057.0,2146.0,2084.0,2008.0,11.0,-47.0,
2003.0,1969.0,1976.0,2027.0,11.0,-47.0,
1980.0,2121.0,1951.0,2038.0,11.0,-47.0,
1995.0,2111.0,2044.0,2062.0,11.0,-47.0,
2040.0,2035.0,2109.0,2049.0,11.0,-47.0,
2083.0,2053.0,2028.0,2041.0,11.0,-48.0,
2097.0,2065.0,2039.0,2068.0,11.0,-48.0,
2071.0,2128.0,2036.0,2085.0,11.0,-48.0,
2029.0,2041.0,1951.0,1937.0,11.0,-48.0,
1987.0,2067.0,2021.0,1961.0,11.0,-48.0,
1982.0,1905.0,2058.0,2018.0,11.0,-49.0,
2013.0,2100.0,2151.0,2059.0,11.0,-49.0,
2062.0,1986.0,2087.0,2027.0,11.0,-49.0,
2100.0,2007.0,2059.0,2068.0,11.0,-49.0,
2089.0,2066.0,1979.0,2067.0,11.0,-49.0,
2053.0,2133.0,2088.0,2051.0,12.0,-50.0,
2002.0,2147.0,2149.0,2052.0,12.0,-50.0,
1980.0,2052.0,2032.0,2017.0,12.0,-50.0,
1996.0,2139.0,1958.0,2041.0,12.0,-50.0,
2040.0,1918.0,1915.0,2030.0,12.0,-50.0,
2080.0,2023.0,2037.0,2029.0,12.0,-51.0,
2094.0,2136.0,2055.0,2025.0,12.0,-51.0,
2080.0,2211.0,2100.0,2018.0,12.0,-51.0,
2030.0,2081.0,1984.0,2029.0,12.0,-51.0,
1987.0,2066.0,2039.0,2015.0,12.0,-51.0,
1985.0,2021.0,2071.0,2064.0,12.0,-51.0,
2013.0,2034.0,2073.0,2017.0,12.0,-52.0,
2064.0,2078.0,2065.0,2046.0,12.0,-52.0,
2099.0,2112.0,2050.0,2053.0,12.0,-52.0,
2090.0,2166.0,2081.0,2063.0,12.0,-52.0,
2050.0,2094.0,2045.0,2036.0,12.0,-52.0,
2016.0,1988.0,1949.0,2018.0,12.0,-52.0,
1985.0,1911.0,2012.0,1999.0,12.0,-53.0,
1993.0,1980.0,2060.0,2001.0,12.0,-53.0,
2036.0,2024.0,2046.0,2019.0,12.0,-53.0,
2079.0,2138.0,2058.0,2086.0,12.0,-53.0,
2102.0,2129.0,2037.0,2099.0,12.0,-53.0,
2077.0,2088.0,1937.0,2042.0,12.0,-54.0,
2032.0,2011.0,2052.0,2025.0,12.0,-54.0,
1990.0,2001.0,2066.0,1950.0,12.0,-54.0,
1992.0,2029.0,2122.0,2046.0,12.0,-54.0,
2015.0,2173.0,2074.0,2040.0,12.0,-55.0,
2062.0,2217.0,2069.0,2050.0,12.0,-55.0,
2094.0,1944.0,2020.0,2069.0,12.0,-55.0,
2092.0,2046.0,1972.0,2016.0,13.0,-56.0,
2055.0,2092.0,2009.0,2009.0,13.0,-56.0,
2011.0,2068.0,1972.0,2032.0,13.0,-56.0,
1982.0,2247.0,2143.0,2031.0,13.0,-57.0,
1995.0,1906.0,2062.0,2059.0,13.0,-57.0,
2044.0,2047.0,2039.0,2084.0,13.0,-57.0,
2085.0,1956.0,2012.0,1992.0,13.0,-58.0,
2098.0,2103.0,2036.0,2018.0,13.0,-58.0,
2074.0,2111.0,2072.0,2004.0,13.0,-58.0,
2026.0,2067.0,1993.0,2030.0,13.0,-59.0,
1985.0,2106.0,2031.0,2082.0,13.0,-59.0,
1982.0,2098.0,2162.0,2057.0,13.0,-59.0,
2015.0,2042.0,2071.0,2016.0,13.0,-60.0,
2061.0,2033.0,2015.0,2022.0,13.0,-60.0,
2096.0,2176.0,2041.0,2033.0,13.0,-60.0,
2089.0,2065.0,2069.0,2059.0,13.0,-61.0,
2049.0,2027.0,1967.0,2011.0,13.0,-61.0,
2001.0,1993.0,2009.0,2089.0,13.0,-61.0,
1982.0,2030.0,2029.0,2048.0,13.0,-61.0,
1998.0,2062.0,2090.0,2082.0,13.0,-62.0,
2039.0,2025.0,2045.0,1973.0,13.0,-62.0,
2081.0,2157.0,1992.0,1996.0,13.0,-62.0,
2103.0,2003.0,2044.0,1983.0,13.0,-62.0,
2067.0,2008.0,2061.0,2060.0,13.0,-62.0,
2022.0,2069.0,2056.0,2072.0,13.0,-62.0,
1986.0,2161.0,2043.0,2057.0,13.0,-63.0,
1984.0,2316.0,2174.0,2007.0,14.0,-63.0,
2021.0,1966.0,1927.0,2031.0,14.0,-63.0,
2065.0,2064.0,2017.0,2014.0,14.0,-63.0,
2091.0,2099.0,2122.0,2048.0,14.0,-63.0,
2084.0,1931.0,2010.0,2025.0,14.0,-63.0,
2041.0,2084.0,2039.0,2032.0,14.0,-63.0,
2002.0,2080.0,2070.0,2044.0,14.0,-63.0,
1982.0,1998.0,2039.0,2085.0,14.0,-63.0,
2000.0,2065.0,2070.0,2046.0,14.0,-63.0,
2049.0,2204.0,2032.0,2030.0,14.0,-64.0,
2090.0,1972.0,1889.0,1986.0,14.0,-64.0,
2096.0,2058.0,2017.0,2034.0,14.0,-64.0,
2065.0,2058.0,2066.0,2032.0,14.0,-64.0,
2021.0,2092.0,2129.0,2039.0,14.0,-64.0,
1981.0,2047.0,1975.0,2035.0,14.0,-64.0,
1983.0,2022.0,2082.0,2032.0,14.0,-64.0,
2022.0,1958.0,2055.0,2025.0,14.0,-64.0,
2079.0,2066.0,1966.0,2075.0,14.0,-64.0,
2096.0,2012.0,1946.0,2035.0,14.0,-64.0,
2084.0,2089.0,1955.0,2071.0,15.0,-64.0,
2043.0,2057.0,1991.0,2026.0,15.0,-64.0,
1995.0,2248.0,2184.0,2060.0,15.0,-64.0,
1981.0,2031.0,2017.0,1954.0,15.0,-64.0,
2004.0,2147.0,2044.0,2034.0,15.0,-65.0,
2049.0,2060.0,2032.0,2004.0,15.0,-65.0,
2089.0,1976.0,1899.0,2021.0,15.0,-65.0,
2096.0,2007.0,2043.0,2063.0,15.0,-65.0,
2056.0,2092.0,2062.0,2075.0,0,0,
2015.0,1930.0,1983.0,2025.0,15.0,-65.0,
1985.0,1970.0,2091.0,2025.0,15.0,-65.0,
1990.0,2191.0,2181.0,2034.0,15.0,-65.0,
2030.0,2143.0,2091.0,2050.0,15.0,-65.0,
2075.0,2306.0,2181.0,2086.0,15.0,-65.0,
2095.0,1888.0,1902.0,2037.0,15.0,-65.0,
2087.0,1895.0,2023.0,1930.0,15.0,-66.0,
2036.0,2087.0,2177.0,2037.0,15.0,-66.0,
1993.0,2063.0,2115.0,2077.0,15.0,-66.0,
1978.0,1940.0,1895.0,2070.0,16.0,-66.0,
2008.0,1976.0,1995.0,2005.0,16.0,-66.0,
2054.0,2141.0,2084.0,2005.0,16.0,-66.0,
2093.0,2122.0,1851.0,2000.0,16.0,-66.0,
2094.0,1983.0,2040.0,2059.0,16.0,-66.0,
2058.0,2096.0,2118.0,2083.0,16.0,-66.0,
2013.0,2196.0,2079.0,2033.0,16.0,-66.0,
1982.0,1981.0,2002.0,1996.0,16.0,-66.0,
1991.0,2173.0,2094.0,2077.0,16.0,-66.0,
2030.0,1966.0,2069.0,1989.0,16.0,-66.0,
2077.0,2097.0,2082.0,2053.0,16.0,-66.0,
2094.0,1972.0,2013.0,2027.0,16.0,-66.0,
2073.0,2165.0,2033.0,2008.0,16.0,-66.0,
2032.0,2132.0,1935.0,2061.0,16.0,-66.0,
1993.0,2001.0,2027.0,2101.0,16.0,-67.0,
1984.0,2264.0,2231.0,2056.0,16.0,-67.0,
2010.0,1935.0,1931.0,2034.0,16.0,-67.0,
2059.0,2023.0,2090.0,2038.0,16.0,-67.0,
2098.0,2097.0,2045.0,2065.0,16.0,-67.0,
2092.0,2086.0,2049.0,2043.0,16.0,-67.0,
2051.0,2111.0,1972.0,1995.0,16.0,-67.0,
2005.0,2210.0,1871.0,1995.0,16.0,-67.0,
1978.0,2026.0,2109.0,2003.0,16.0,-67.0,
1995.0,2198.0,2237.0,2075.0,16.0,-67.0,
2038.0,1950.0,2013.0,2088.0,16.0,-68.0,
2079.0,2152.0,2092.0,2028.0,16.0,-68.0,
2094.0,2039.0,1780.0,2011.0,16.0,-68.0,
2076.0,1931.0,2087.0,2025.0,16.0,-68.0,
2029.0,2079.0,2193.0,2050.0,16.0,-68.0,
1985.0,1926.0,2158.0,2076.0,15.0,-68.0,
1982.0,2033.0,2024.0,2024.0,16.0,-68.0,
2019.0,2170.0,1998.0,2118.0,16.0,-68.0,
2062.0,1981.0,1968.0,1997.0,16.0,-69.0,
2095.0,2047.0,2019.0,2028.0,16.0,-69.0,
2088.0,2322.0,2022.0,2005.0,16.0,-69.0,
2050.0,2093.0,2054.0,2028.0,16.0,-69.0,
2003.0,2011.0,2028.0,2035.0,16.0,-69.0,
1975.0,2067.0,2012.0,2034.0,16.0,-69.0,
1993.0,2242.0,2153.0,2014.0,16.0,-69.0,
2038.0,1878.0,1986.0,2058.0,16.0,-69.0,
2081.0,2077.0,1972.0,1997.0,16.0,0,
2094.0,2078.0,2051.0,2028.0,16.0,-69.0,
2068.0,2169.0,2068.0,2039.0,16.0,-69.0,
2026.0,1999.0,2245.0,2101.0,16.0,-69.0,
1983.0,2014.0,2046.0,2066.0,16.0,-69.0,
1985.0,2041.0,2012.0,1982.0,16.0,-69.0,
2018.0,2123.0,2098.0,2052.0,16.0,-69.0,
2065.0,2170.0,2092.0,2074.0,16.0,-70.0,
2093.0,1887.0,1864.0,1977.0,16.0,-70.0,
2090.0,1933.0,1978.0,2044.0,17.0,-70.0,
2046.0,2020.0,2210.0,2074.0,17.0,-70.0,
1998.0,2118.0,2061.0,2012.0,17.0,-70.0,
1989.0,2192.0,2144.0,2074.0,17.0,-70.0,
1989.0,2063.0,2079.0,2003.0,17.0,-70.0,
2046.0,2180.0,2036.0,2079.0,17.0,-70.0,
2085.0,2119.0,2097.0,2097.0,16.0,-70.0,
2094.0,1915.0,2006.0,1990.0,17.0,-70.0,
2065.0,2040.0,1980.0,2005.0,17.0,-70.0,
2017.0,2100.0,1892.0,1935.0,17.0,-70.0,
1982.0,2197.0,1905.0,2055.0,17.0,-70.0,
1984.0,1889.0,2093.0,2036.0,17.0,-70.0,
2023.0,2055.0,2102.0,2067.0,16.0,-70.0,
2069.0,1897.0,2014.0,2030.0,16.0,-70.0,
2098.0,2097.0,2077.0,2051.0,16.0,-71.0,
2079.0,2159.0,2107.0,2041.0,16.0,-71.0,
2041.0,2243.0,2110.0,2023.0,16.0,-71.0,
1995.0,2150.0,2041.0,2031.0,16.0,-71.0,
1982.0,2168.0,1998.0,2009.0,16.0,-70.0,
2010.0,2081.0,1999.0,2051.0,16.0,-70.0,
2055.0,2019.0,2042.0,2058.0,16.0,-71.0,
2089.0,2159.0,2009.0,2066.0,16.0,-71.0,
2093.0,1993.0,1947.0,2091.0,16.0,-71.0,
2061.0,1982.0,2003.0,2021.0,16.0,-71.0,
2015.0,2045.0,2024.0,2004.0,16.0,-70.0,
1982.0,2116.0,2118.0,1992.0,16.0,-70.0,
1991.0,2066.0,1977.0,2034.0,16.0,-70.0,
2024.0,1882.0,2033.0,2062.0,16.0,-70.0,
2069.0,2167.0,2047.0,2029.0,16.0,-70.0,
2096.0,2322.0,2056.0,2033.0,16.0,-70.0,
2080.0,2126.0,1949.0,2016.0,16.0,-70.0,
2036.0,1919.0,2095.0,2055.0,16.0,-70.0,
1989.0,1861.0,2000.0,2045.0,16.0,-70.0,
1984.0,1938.0,2037.0,2044.0,16.0,-70.0,
2010.0,2008.0,2031.0,2083.0,16.0,-70.0,
2055.0,2186.0,1997.0,2037.0,0,0,
2092.0,2098.0,2017.0,2035.0,16.0,-70.0,
2099.0,2147.0,2160.0,2063.0,17.0,-70.0,
2058.0,2076.0,2145.0,2009.0,17.0,-70.0,
2013.0,1928.0,2068.0,2039.0,17.0,-70.0,
1982.0,2139.0,2073.0,2059.0,16.0,-70.0,
1986.0,2040.0,1942.0,2066.0,16.0,-70.0,
2033.0,2063.0,2007.0,2057.0,16.0,-70.0,
2075.0,2148.0,2027.0,2037.0,16.0,-70.0,
2096.0,2044.0,2009.0,2032.0,16.0,-70.0,
2077.0,2056.0,1856.0,2034.0,16.0,-70.0,
2035.0,2258.0,2052.0,2018.0,17.0,-70.0,
1988.0,1955.0,1790.0,2013.0,16.0,-71.0,
1983.0,2117.0,2273.0,2022.0,16.0,-71.0,
2010.0,2001.0,2138.0,2027.0,16.0,-71.0,
2059.0,2012.0,2147.0,2037.0,16.0,-71.0,
2090.0,2072.0,2037.0,2032.0,16.0,-71.0,
2094.0,1937.0,2032.0,2039.0,16.0,-71.0,
2054.0,2143.0,2076.0,2078.0,16.0,-71.0,
2011.0,2102.0,2138.0,2027.0,16.0,-71.0,
1979.0,2119.0,1902.0,2012.0,16.0,-71.0,
1993.0,2060.0,2080.0,2031.0,16.0,-71.0,
2037.0,2044.0,1945.0,1989.0,16.0,-71.0,
2075.0,1976.0,2045.0,2025.0,16.0,-71.0,
2096.0,2103.0,2096.0,2075.0,16.0,-71.0,
2071.0,2273.0,2102.0,2078.0,17.0,-71.0,
2025.0,1944.0,1993.0,2011.0,17.0,-71.0,
1985.0,2148.0,1941.0,2079.0,17.0,-71.0,
1981.0,1981.0,2082.0,2087.0,17.0,-71.0,
2013.0,2092.0,2122.0,1977.0,17.0,-71.0,
2060.0,2126.0,1993.0,1955.0,17.0,0,
2092.0,2240.0,2019.0,2032.0,17.0,-71.0,
2092.0,1826.0,1937.0,1993.0,17.0,-71.0,
2055.0,2044.0,2054.0,2096.0,17.0,-71.0,
2004.0,2085.0,2050.0,2071.0,17.0,-71.0,
1980.0,2157.0,2083.0,2071.0,17.0,-71.0,
2002.0,2113.0,1922.0,2100.0,17.0,-71.0,
2040.0,2159.0,2085.0,2034.0,17.0,-71.0,
2082.0,1889.0,1887.0,1984.0,17.0,-71.0,
2096.0,1894.0,2062.0,2042.0,0,0,
2068.0,1975.0,2098.0,2022.0,17.0,-71.0,
2023.0,2082.0,2062.0,2016.0,17.0,-71.0,
1986.0,2088.0,2106.0,2091.0,17.0,-71.0,
1981.0,2103.0,2066.0,2002.0,17.0,-71.0,
2021.0,2253.0,2025.0,2016.0,17.0,-71.0,
2068.0,2326.0,1843.0,1998.0,17.0,-71.0,
2093.0,1922.0,1990.0,2036.0,17.0,-71.0,
2086.0,1933.0,2196.0,2078.0,17.0,-71.0,
2044.0,2030.0,2117.0,2052.0,17.0,-71.0,
2005.0,2261.0,2180.0,2046.0,17.0,-70.0,
1981.0,1845.0,2001.0,1996.0,0,0,
1998.0,2070.0,2040.0,2018.0,17.0,-70.0,
2043.0,2062.0,2063.0,1992.0,17.0,-70.0,
2084.0,2313.0,1974.0,2007.0,17.0,-70.0,
2095.0,1960.0,1909.0,2064.0,17.0,-70.0,
2067.0,2037.0,2115.0,2107.0,17.0,-70.0,
2018.0,2044.0,1997.0,2021.0,17.0,-70.0,
1984.0,2060.0,2051.0,2043.0,17.0,-70.0,
1987.0,2081.0,2051.0,2065.0,17.0,-70.0,
2024.0,2111.0,1979.0,2006.0,16.0,-70.0,
2066.0,1949.0,2120.0,2049.0,17.0,-70.0,
2094.0,2119.0,2110.0,2029.0,16.0,-70.0,
2090.0,2123.0,2075.0,2040.0,16.0,-70.0,
2045.0,1918.0,1949.0,2013.0,16.0,-70.0,
1996.0,2055.0,2053.0,2036.0,17.0,-70.0,
1980.0,2062.0,2032.0,2001.0,17.0,-70.0,
2007.0,2123.0,2008.0,2043.0,17.0,-70.0,
2048.0,2112.0,1906.0,2050.0,17.0,-70.0,
2089.0,2021.0,2272.0,2085.0,17.0,-70.0,
2092.0,2095.0,2106.0,2034.0,17.0,-70.0,
2062.0,2169.0,2059.0,2055.0,17.0,-70.0,
2016.0,2007.0,2104.0,2014.0,17.0,-70.0,
1980.0,2020.0,1948.0,2047.0,17.0,-70.0,
1986.0,2062.0,2050.0,2031.0,17.0,-70.0,
2021.0,2056.0,2004.0,2003.0,17.0,-70.0,
2074.0,2056.0,1996.0,2035.0,17.0,-70.0,
2096.0,2084.0,2069.0,2038.0,17.0,-70.0,
2081.0,2202.0,2088.0,2033.0,17.0,-70.0,
2037.0,2318.0,2066.0,2123.0,17.0,-70.0,
1996.0,2038.0,1993.0,2055.0,17.0,-70.0,
1982.0,1821.0,1809.0,2040.0,17.0,-70.0,
2004.0,1931.0,1991.0,1961.0,17.0,-70.0,
2047.0,2072.0,2071.0,2026.0,17.0,-70.0,
2101.0,2207.0,2101.0,2019.0,17.0,-70.0,
2096.0,2140.0,2107.0,1993.0,17.0,-70.0,
2059.0,1998.0,2004.0,2036.0,17.0,-70.0,
2014.0,2015.0,2062.0,2104.0,17.0,-70.0,
1978.0,2081.0,2028.0,2036.0,16.0,-70.0,
1991.0,2120.0,2021.0,2009.0,17.0,-70.0,
2028.0,1992.0,1832.0,2043.0,17.0,-70.0,
2075.0,2365.0,2202.0,2072.0,17.0,-70.0,
2097.0,1992.0,2121.0,2041.0,17.0,-70.0,
2080.0,1889.0,2026.0,1992.0,17.0,-70.0,
2031.0,1984.0,2026.0,2070.0,17.0,-70.0,
1993.0,2010.0,2068.0,2046.0,17.0,-70.0,
1981.0,2114.0,2055.0,2039.0,17.0,-70.0,
2009.0,2085.0,2006.0,2051.0,17.0,-70.0,
2054.0,2125.0,2111.0,2021.0,17.0,-70.0,
2091.0,2126.0,1992.0,2037.0,17.0,-70.0,
2093.0,2002.0,1964.0,2014.0,17.0,-70.0,
2060.0,2062.0,2028.0,2044.0,17.0,-70.0,
2008.0,1874.0,1923.0,2016.0,17.0,-70.0,
1978.0,2115.0,2136.0,2057.0,17.0,-70.0,
1989.0,2137.0,2080.0,2059.0,17.0,-70.0,
2031.0,1980.0,1967.0,2065.0,17.0,-71.0,
2081.0,2110.0,2065.0,2051.0,17.0,-71.0,
2092.0,1980.0,1979.0,2019.0,17.0,-71.0,
2073.0,2076.0,2074.0,2009.0,17.0,-71.0,
2029.0,2164.0,2157.0,2008.0,17.0,-71.0,
1991.0,2108.0,1931.0,1996.0,17.0,-71.0,
1981.0,2027.0,2082.0,2042.0,17.0,-71.0,
2008.0,1978.0,2042.0,2045.0,17.0,-71.0,
2059.0,2152.0,2064.0,2056.0,17.0,-71.0,
2096.0,2107.0,2000.0,2066.0,17.0,-71.0,
2091.0,2044.0,2057.0,2038.0,17.0,-71.0,
2052.0,2036.0,2070.0,2064.0,17.0,-71.0,
2007.0,1905.0,1976.0,2041.0,17.0,-71.0,
1985.0,2010.0,2071.0,2041.0,17.0,-71.0,
1994.0,2191.0,2032.0,2003.0,17.0,-71.0,
2037.0,2061.0,2019.0,2019.0,17.0,-71.0,
2080.0,2110.0,2008.0,2024.0,17.0,-71.0,
2096.0,2139.0,1936.0,2083.0,17.0,-71.0,
2074.0,2118.0,2101.0,2024.0,17.0,-71.0,
2026.0,2065.0,1996.0,2028.0,17.0,-71.0,
1987.0,2093.0,2143.0,2051.0,17.0,-71.0,
1981.0,2049.0,2063.0,2020.0,17.0,-71.0,
2016.0,2012.0,2019.0,2039.0,17.0,-71.0,
2068.0,2006.0,1982.0,2004.0,17.0,-71.0,
2095.0,2082.0,2019.0,2046.0,17.0,-71.0,
2087.0,2102.0,1988.0,1989.0,17.0,-71.0,
2051.0,1996.0,2055.0,2073.0,17.0,-71.0,
2003.0,2074.0,1999.0,2086.0,17.0,-71.0,
1981.0,2063.0,2111.0,2059.0,17.0,-71.0,
1997.0,2185.0,2038.0,2002.0,17.0,-71.0,
2049.0,2108.0,2006.0,2046.0,17.0,-71.0,
2087.0,1999.0,2034.0,2025.0,17.0,-71.0,
2095.0,2111.0,2129.0,2025.0,17.0,-71.0,
2068.0,1909.0,2007.0,2041.0,17.0,-71.0,
2024.0,2055.0,2108.0,2056.0,17.0,-71.0,
1984.0,2070.0,2084.0,2016.0,17.0,-71.0,
1982.0,2146.0,1991.0,2084.0,17.0,-71.0,
2018.0,2083.0,2052.0,2047.0,17.0,-71.0,
2067.0,2135.0,2037.0,1964.0,17.0,-70.0,
2100.0,2041.0,2097.0,2022.0,17.0,-70.0,
2085.0,2025.0,2006.0,2034.0,17.0,-70.0,
2046.0,2225.0,2068.0,2074.0,17.0,-70.0,
1998.0,2220.0,1955.0,2038.0,18.0,-70.0,
1981.0,1894.0,1981.0,2067.0,18.0,-70.0,
2000.0,2083.0,2033.0,2054.0,18.0,-70.0,
2044.0,1972.0,1973.0,2029.0,18.0,-70.0,
2085.0,2082.0,2073.0,2007.0,18.0,-70.0,
2101.0,2155.0,1992.0,2010.0,17.0,0,
2063.0,2032.0,1940.0,2030.0,17.0,-70.0,
2015.0,1988.0,2044.0,2022.0,17.0,-70.0,
1980.0,2017.0,2030.0,2035.0,17.0,-70.0,
1984.0,2059.0,2035.0,2034.0,17.0,-70.0,
2022.0,2075.0,2009.0,2044.0,17.0,-70.0,
2068.0,2063.0,1994.0,2038.0,17.0,-70.0,
2096.0,2083.0,2090.0,2001.0,17.0,-70.0,
2081.0,2118.0,2104.0,2021.0,17.0,-70.0,
2044.0,1982.0,2093.0,2034.0,17.0,-70.0,
1994.0,2124.0,2049.0,2040.0,17.0,-70.0,
1981.0,1977.0,2048.0,2053.0,17.0,-70.0,
2004.0,2081.0,1953.0,2026.0,17.0,-70.0,
2056.0,2131.0,2083.0,2063.0,17.0,-70.0,
2090.0,2124.0,2026.0,2041.0,0,0,
2095.0,2086.0,2136.0,2074.0,17.0,-70.0,
2060.0,1981.0,2049.0,2003.0,17.0,-70.0,
2021.0,2108.0,2038.0,2061.0,17.0,-70.0,
1980.0,2033.0,1994.0,2005.0,17.0,-70.0,
1989.0,2035.0,1996.0,2045.0,17.0,-70.0,
2027.0,2062.0,2075.0,2077.0,17.0,-70.0,
2076.0,1997.0,1971.0,2098.0,0,0,
2098.0,2119.0,1936.0,1965.0,17.0,-70.0,
2082.0,2099.0,2078.0,2004.0,17.0,-70.0,
2035.0,2016.0,2044.0,2059.0,17.0,-70.0,
1997.0,2096.0,2091.0,2035.0,17.0,-70.0,
1985.0,2164.0,2120.0,2007.0,17.0,-70.0,
2008.0,2016.0,2050.0,2018.0,17.0,-70.0,
2053.0,1938.0,2035.0,2058.0,17.0,-70.0,
2078.0,2088.0,1992.0,2062.0,17.0,-70.0,
2096.0,2044.0,2046.0,1994.0,17.0,-70.0,
2056.0,2257.0,2029.0,2023.0,17.0,-70.0,
2007.0,2173.0,2071.0,2044.0,17.0,-70.0,
1979.0,2091.0,1992.0,2045.0,16.0,-70.0,
1992.0,1811.0,1991.0,2103.0,17.0,-70.0,
2028.0,2003.0,2086.0,2026.0,17.0,-70.0,
2077.0,2080.0,2017.0,2029.0,16.0,-70.0,
2099.0,2041.0,2026.0,2050.0,17.0,-70.0,
2076.0,2082.0,2054.0,2050.0,17.0,-70.0,
2037.0,2149.0,2060.0,2028.0,16.0,-70.0,
1991.0,2072.0,2038.0,2005.0,16.0,-70.0,
1985.0,2121.0,2138.0,2041.0,16.0,-70.0,
2008.0,1956.0,2017.0,2027.0,16.0,-70.0,
2060.0,2083.0,2027.0,2059.0,16.0,-70.0,
2096.0,2023.0,1999.0,2026.0,16.0,-70.0,
2091.0,2109.0,2022.0,2056.0,16.0,-70.0,
2055.0,2006.0,1988.0,2044.0,16.0,-70.0,
2012.0,2120.0,2009.0,2025.0,16.0,-70.0,
1984.0,2102.0,2029.0,2035.0,16.0,-70.0,
1992.0,2086.0,2052.0,2039.0,16.0,-70.0,
2036.0,2026.0,2096.0,2004.0,16.0,-70.0,
2079.0,2134.0,2058.0,2026.0,16.0,-70.0,
2098.0,2106.0,1984.0,2044.0,17.0,-70.0,
2072.0,2109.0,2059.0,2075.0,17.0,-70.0,
2027.0,1964.0,1973.0,2030.0,16.0,-70.0,
1983.0,2047.0,2028.0,2045.0,16.0,-70.0,
1983.0,2050.0,2087.0,2038.0,17.0,-70.0,
2015.0,2040.0,2006.0,2013.0,17.0,-71.0,
2059.0,2123.0,2038.0,2033.0,17.0,-71.0,
2094.0,2130.0,2044.0,2074.0,17.0,-71.0,
2094.0,2062.0,1965.0,2017.0,17.0,-71.0,
2052.0,2042.0,2092.0,2030.0,17.0,-71.0,
2005.0,2041.0,2054.0,2037.0,17.0,0,
1979.0,1977.0,2036.0,2059.0,17.0,-71.0,
2001.0,2052.0,2051.0,2051.0,17.0,-71.0,
2039.0,2245.0,2116.0,2043.0,17.0,-71.0,
2084.0,2065.0,2099.0,2051.0,17.0,-71.0,
2079.0,1975.0,2045.0,2039.0,17.0,-71.0,
2069.0,1949.0,1971.0,2029.0,17.0,-71.0,
2027.0,2071.0,2077.0,2011.0,17.0,-71.0,
1985.0,1971.0,2030.0,2010.0,17.0,-71.0,
1982.0,2161.0,2018.0,2027.0,17.0,-71.0,
2017.0,2107.0,1983.0,2022.0,17.0,-71.0,
2067.0,2105.0,1982.0,2063.0,17.0,-71.0,
2096.0,2142.0,1972.0,2011.0,17.0,-71.0,
2088.0,2270.0,2093.0,2065.0,17.0,-70.0,
2046.0,1989.0,2094.0,2077.0,17.0,-70.0,
2003.0,1931.0,1994.0,2041.0,17.0,-70.0,
1979.0,2004.0,1985.0,2021.0,17.0,-70.0,
1998.0,2028.0,2001.0,2035.0,17.0,-70.0,
2042.0,2066.0,1995.0,2029.0,17.0,-70.0,
2088.0,2071.0,2038.0,2036.0,17.0,-70.0,
2097.0,2053.0,2018.0,2048.0,17.0,-70.0,
2070.0,2023.0,2044.0,2062.0,17.0,-70.0,
2022.0,2173.0,2006.0,2037.0,17.0,-70.0,
1984.0,2090.0,2006.0,2027.0,17.0,-70.0,
1987.0,2108.0,2036.0,2037.0,17.0,-70.0,
2021.0,2033.0,2032.0,2045.0,17.0,-70.0,
2066.0,2090.0,2039.0,2043.0,17.0,-70.0,
2094.0,2015.0,2043.0,2040.0,17.0,-70.0,
2084.0,2079.0,2078.0,2019.0,17.0,-70.0,
2044.0,2067.0,2000.0,2033.0,17.0,-70.0,
1998.0,2039.0,2053.0,2055.0,17.0,-70.0,
1978.0,2037.0,2085.0,2042.0,17.0,-70.0,
2004.0,2068.0,2007.0,2000.0,17.0,-70.0,
2048.0,2093.0,2054.0,2045.0,17.0,-70.0,
2088.0,2083.0,2020.0,2051.0,17.0,-70.0,
2081.0,2098.0,2036.0,2042.0,17.0,-70.0,
2069.0,2032.0,2029.0,2024.0,17.0,-70.0,
2017.0,2054.0,1983.0,2015.0,16.0,-70.0,
1980.0,2119.0,2042.0,2029.0,16.0,-70.0,
1987.0,2022.0,1964.0,2054.0,16.0,-70.0,
2028.0,2010.0,2004.0,2045.0,17.0,-70.0,
2074.0,2123.0,2094.0,2039.0,16.0,-70.0,
2096.0,2186.0,2079.0,2053.0,16.0,0,
2083.0,2030.0,2019.0,2004.0,17.0,-70.0,
2037.0,2080.0,1970.0,2058.0,17.0,-70.0,
1995.0,1990.0,2033.0,2048.0,17.0,-70.0,
1981.0,2026.0,2085.0,2013.0,17.0,-70.0,
2004.0,2122.0,2062.0,2021.0,17.0,-71.0,
2052.0,1964.0,1954.0,2022.0,17.0,-71.0,
2090.0,2034.0,2041.0,2056.0,17.0,-70.0,
2091.0,2076.0,2050.0,2041.0,17.0,-70.0,
2060.0,2001.0,2021.0,2028.0,17.0,-70.0,
2010.0,2044.0,2065.0,2044.0,17.0,-70.0,
1987.0,2094.0,2097.0,2036.0,17.0,-70.0,
1990.0,2048.0,2129.0,2018.0,17.0,-70.0,
2028.0,2089.0,2016.0,2043.0,17.0,-70.0,
2074.0,2105.0,2044.0,2066.0,17.0,-70.0,
2095.0,2129.0,2023.0,2029.0,18.0,-69.0,
2079.0,2066.0,2053.0,2022.0,18.0,-69.0,
2033.0,2121.0,2054.0,2016.0,18.0,-69.0,
1988.0,2068.0,2090.0,2034.0,18.0,-69.0,
1978.0,2066.0,2098.0,2049.0,18.0,-68.0,
2011.0,2003.0,2023.0,2045.0,18.0,-68.0,
2057.0,2117.0,2050.0,2035.0,18.0,-68.0,
2093.0,2025.0,2018.0,2097.0,18.0,-68.0,
2083.0,2014.0,2011.0,2086.0,18.0,-68.0,
2056.0,2018.0,2004.0,2014.0,18.0,-67.0,
2005.0,2121.0,2068.0,2025.0,18.0,-67.0,
1979.0,2089.0,2012.0,2063.0,18.0,-67.0,
1993.0,2035.0,2035.0,2010.0,18.0,-67.0,
2035.0,2032.0,2039.0,1987.0,18.0,-67.0,
2083.0,2064.0,2037.0,1985.0,17.0,-67.0,
2094.0,2110.0,2019.0,1999.0,17.0,-67.0,
2073.0,2080.0,2011.0,2029.0,17.0,-67.0,
2029.0,2141.0,2015.0,2073.0,17.0,-67.0,
1987.0,2054.0,2004.0,2064.0,17.0,-67.0,
1983.0,2013.0,2006.0,2080.0,17.0,-67.0,
2013.0,2080.0,2014.0,2066.0,17.0,-67.0,
2058.0,2046.0,2064.0,2038.0,18.0,-67.0,
2095.0,2022.0,2055.0,2020.0,17.0,-67.0,
2091.0,2074.0,2042.0,2039.0,17.0,-68.0,
2052.0,2131.0,2043.0,2028.0,18.0,-68.0,
2004.0,2078.0,2042.0,1992.0,18.0,-68.0,
1982.0,2020.0,2061.0,2044.0,0,0,
1994.0,2072.0,2038.0,2031.0,18.0,-68.0,
2037.0,2029.0,1998.0,2044.0,18.0,-68.0,
2077.0,2054.0,1969.0,2016.0,18.0,-68.0,
2099.0,2089.0,2039.0,2041.0,18.0,-68.0,
2071.0,2044.0,2058.0,2055.0,18.0,-68.0,
2024.0,2087.0,2078.0,2022.0,18.0,-68.0,
1986.0,2092.0,2096.0,2059.0,18.0,-68.0,
1980.0,2027.0,2067.0,2027.0,19.0,-68.0,
2017.0,2005.0,2044.0,2034.0,19.0,-68.0,
2064.0,2074.0,2062.0,2031.0,0,0,
2091.0,2096.0,1986.0,2047.0,19.0,-67.0,
2086.0,2068.0,2116.0,2077.0,19.0,-67.0,
2051.0,2066.0,2026.0,2054.0,19.0,-66.0,
2002.0,2102.0,2024.0,2016.0,19.0,-66.0,
1978.0,2102.0,1993.0,1982.0,19.0,-65.0,
2003.0,2115.0,2026.0,1998.0,19.0,-65.0,
2043.0,1996.0,2003.0,2045.0,19.0,-64.0,
2087.0,2036.0,2023.0,2071.0,19.0,-64.0,
2094.0,2042.0,2009.0,2062.0,19.0,-63.0,
2065.0,2091.0,2030.0,2033.0,18.0,-62.0,
2030.0,2095.0,2056.0,2015.0,18.0,-62.0,
1984.0,2116.0,2051.0,2071.0,18.0,-61.0,
1982.0,2041.0,2048.0,2078.0,18.0,-61.0,
2016.0,2073.0,2105.0,2046.0,18.0,-60.0,
2065.0,2078.0,2002.0,2009.0,18.0,-60.0,
2099.0,2044.0,1972.0,2031.0,18.0,-59.0,
2083.0,2066.0,2040.0,2075.0,18.0,-59.0,
2044.0,2021.0,2030.0,2045.0,18.0,-59.0,
2000.0,1999.0,2076.0,2020.0,18.0,-58.0,
1981.0,1989.0,2031.0,2001.0,18.0,-58.0,
2000.0,2118.0,2041.0,2031.0,17.0,-58.0,
2047.0,2041.0,2016.0,2011.0,17.0,-58.0,
2090.0,2027.0,1999.0,2057.0,17.0,-58.0,
2103.0,2034.0,1975.0,2048.0,17.0,-58.0,
2066.0,2094.0,1991.0,2035.0,17.0,-59.0,
2018.0,2092.0,2014.0,2032.0,17.0,-59.0,
1981.0,2131.0,2016.0,1934.0,17.0,-59.0,
1986.0,2031.0,2055.0,2052.0,17.0,-60.0,
2026.0,2083.0,2097.0,2054.0,17.0,-60.0,
2073.0,2110.0,2037.0,2059.0,17.0,-61.0,
2097.0,2081.0,2051.0,2058.0,17.0,-61.0,
2081.0,2084.0,1973.0,2048.0,17.0,-62.0,
2040.0,2055.0,1956.0,1989.0,17.0,-62.0,
1995.0,2053.0,2015.0,2061.0,17.0,-62.0,
1978.0,2061.0,2109.0,2082.0,17.0,-63.0,
2001.0,2000.0,2105.0,2033.0,17.0,-63.0,
2051.0,2071.0,2048.0,2000.0,17.0,-63.0,
2090.0,2055.0,2012.0,2015.0,17.0,-63.0,
2093.0,2054.0,2006.0,2013.0,17.0,-64.0,
2063.0,2058.0,2028.0,2052.0,17.0,-64.0,
2016.0,2021.0,2114.0,2063.0,17.0,-64.0,
1982.0,2127.0,1992.0,2042.0,17.0,-64.0,
1989.0,2061.0,2072.0,2057.0,17.0,-63.0,
2025.0,2081.0,2093.0,2035.0,17.0,-63.0,
2081.0,2050.0,2027.0,2020.0,17.0,-63.0,
2098.0,2084.0,2001.0,2018.0,17.0,-63.0,
2080.0,2101.0,2023.0,2034.0,16.0,-62.0,
2034.0,2012.0,2026.0,2066.0,16.0,-62.0,
1992.0,2058.0,2093.0,2058.0,16.0,-62.0,
1981.0,2078.0,2071.0,2055.0,16.0,-61.0,
2006.0,2061.0,2063.0,2046.0,16.0,-61.0,
2055.0,2076.0,2048.0,2051.0,16.0,-60.0,
2092.0,2086.0,2056.0,2045.0,16.0,-59.0,
2093.0,2047.0,2011.0,2044.0,16.0,-59.0,
2053.0,2129.0,1988.0,1996.0,16.0,-58.0,
2007.0,2026.0,2048.0,2035.0,15.0,-58.0,
1980.0,2080.0,2036.0,2009.0,15.0,-57.0,
1992.0,2049.0,2061.0,2048.0,15.0,-56.0,
2031.0,2098.0,2040.0,2001.0,15.0,-56.0,
2077.0,2110.0,2036.0,1996.0,15.0,-56.0,
2096.0,2092.0,2018.0,2062.0,15.0,-55.0,
2085.0,2057.0,2042.0,2002.0,15.0,-55.0,
2029.0,2006.0,2004.0,2025.0,15.0,-55.0,
1988.0,2112.0,2004.0,2125.0,15.0,-55.0,
1981.0,2088.0,2057.0,2059.0,15.0,-54.0,
2009.0,2080.0,2038.0,2047.0,15.0,-54.0,
2053.0,2026.0,2000.0,2090.0,15.0,-54.0,
2086.0,2060.0,2000.0,2061.0,15.0,-55.0,
2081.0,2002.0,2057.0,2020.0,14.0,-55.0,
2043.0,1959.0,2034.0,1996.0,14.0,-55.0,
2006.0,2110.0,2036.0,1996.0,15.0,-55.0,
1971.0,2108.0,1992.0,2098.0,15.0,-56.0,
1980.0,2111.0,1970.0,1964.0,15.0,-56.0,
2026.0,2056.0,2020.0,1961.0,15.0,0,
2068.0,2085.0,2104.0,2016.0,15.0,-56.0,
2087.0,2076.0,2115.0,2078.0,15.0,-57.0,
2071.0,1978.0,2034.0,2077.0,15.0,-57.0,
2023.0,2073.0,2058.0,2041.0,15.0,-57.0,
1980.0,2097.0,2056.0,2061.0,15.0,-58.0,
1982.0,2100.0,2084.0,2044.0,15.0,-58.0,
2010.0,2042.0,1998.0,2058.0,15.0,-58.0,
2056.0,2043.0,1988.0,2066.0,15.0,-58.0,
2093.0,2060.0,1991.0,2006.0,15.0,-58.0,
2100.0,2080.0,1995.0,1973.0,15.0,-58.0,
2053.0,2040.0,2035.0,2010.0,15.0,-58.0,
2009.0,2100.0,2019.0,2047.0,15.0,-58.0,
1980.0,2041.0,2081.0,2056.0,15.0,-58.0,
1994.0,2071.0,2071.0,2029.0,15.0,-58.0,
2039.0,2090.0,2012.0,2027.0,15.0,-58.0,
2079.0,2119.0,2001.0,2018.0,15.0,-57.0,
2094.0,2020.0,2019.0,2066.0,14.0,-57.0,
2070.0,2057.0,2055.0,2098.0,14.0,-56.0,
2025.0,2038.0,2066.0,2032.0,14.0,-56.0,
1985.0,2085.0,2078.0,2018.0,14.0,-55.0,
1982.0,2075.0,2065.0,2005.0,14.0,-55.0,
2011.0,2078.0,2043.0,2027.0,14.0,-54.0,
2057.0,2096.0,2041.0,2042.0,14.0,-53.0,
2093.0,2082.0,2061.0,2028.0,14.0,-52.0,
2090.0,2124.0,2057.0,2026.0,13.0,-52.0,
2048.0,2085.0,1990.0,2040.0,13.0,-51.0,
2005.0,2074.0,2034.0,2027.0,13.0,-50.0,
1979.0,2001.0,2053.0,2076.0,13.0,-49.0,
1997.0,2033.0,2026.0,2062.0,13.0,-48.0,
2042.0,1979.0,2032.0,2005.0,13.0,-48.0,
2084.0,2015.0,1988.0,2125.0,12.0,-47.0,
2107.0,2088.0,2017.0,1998.0,13.0,-47.0,
2072.0,2051.0,2052.0,2037.0,12.0,-46.0,
2018.0,2028.0,2105.0,2025.0,12.0,-46.0,
1969.0,2021.0,2112.0,2019.0,12.0,-45.0,
1962.0,2096.0,2074.0,1993.0,12.0,-45.0,
1989.0,2209.0,2048.0,2037.0,12.0,-45.0,
2025.0,2156.0,1984.0,2018.0,12.0,-45.0,
2041.0,2059.0,1982.0,2041.0,12.0,-45.0,
2026.0,1997.0,2004.0,2124.0,12.0,-45.0,
1995.0,1923.0,2065.0,2075.0,12.0,-45.0,
1961.0,2007.0,2068.0,2016.0,12.0,-45.0,
1960.0,2067.0,2026.0,2041.0,11.0,-45.0,
1994.0,2052.0,2036.0,2010.0,11.0,-45.0,
2052.0,2066.0,2024.0,2056.0,11.0,-45.0,
2092.0,2098.0,2019.0,2036.0,11.0,-46.0,
2084.0,2123.0,1974.0,1982.0,11.0,-46.0,
2055.0,2087.0,2013.0,1935.0,11.0,-46.0,
2027.0,2102.0,2012.0,2028.0,11.0,-46.0,
2024.0,2040.0,2076.0,2065.0,12.0,-46.0,
2054.0,2052.0,2041.0,2058.0,11.0,-46.0,
2085.0,2049.0,2058.0,2063.0,11.0,-46.0,
2109.0,2111.0,2041.0,2064.0,11.0,-46.0,
2117.0,2051.0,2050.0,2034.0,11.0,-46.0,
2076.0,2142.0,2056.0,2014.0,11.0,-46.0,
2051.0,2027.0,2087.0,2036.0,11.0,-46.0,
2034.0,2118.0,1997.0,2073.0,11.0,-45.0,
2037.0,2120.0,2051.0,2051.0,11.0,-45.0,
2065.0,2073.0,2056.0,2063.0,11.0,0,
2086.0,1945.0,2033.0,2048.0,11.0,-44.0,
2088.0,2029.0,2024.0,1971.0,11.0,-44.0,
2062.0,2033.0,2024.0,2013.0,11.0,-43.0,
2040.0,2071.0,2026.0,2071.0,11.0,-43.0,
2018.0,2086.0,1976.0,2026.0,11.0,-42.0,
2017.0,2074.0,2001.0,2027.0,0,0,
2034.0,2050.0,2038.0,2031.0,11.0,-42.0,
2056.0,2057.0,2081.0,2054.0,11.0,-41.0,
2076.0,2119.0,2039.0,2051.0,11.0,-41.0,
2075.0,2079.0,2091.0,2065.0,10.0,-41.0,
2048.0,2056.0,2064.0,2021.0,10.0,-40.0,
2020.0,2135.0,2005.0,2009.0,10.0,-40.0,
2014.0,2078.0,2068.0,2061.0,10.0,-40.0,
2017.0,2051.0,2092.0,2034.0,10.0,-40.0,
2041.0,2051.0,2105.0,1932.0,10.0,-39.0,
2056.0,2021.0,2053.0,2008.0,10.0,-39.0,
2068.0,2058.0,2010.0,2076.0,10.0,-39.0,
2046.0,2105.0,2038.0,2075.0,10.0,-39.0,
2021.0,2018.0,2034.0,2140.0,10.0,-39.0,
2006.0,2008.0,2077.0,2013.0,10.0,-39.0,
2010.0,2033.0,2064.0,2029.0,10.0,-39.0,
2032.0,2094.0,2052.0,2016.0,10.0,-40.0,
2049.0,2040.0,2026.0,2049.0,10.0,-40.0,
2065.0,2064.0,2043.0,2078.0,10.0,-40.0,
2056.0,2058.0,2018.0,2100.0,10.0,-40.0,
2034.0,2088.0,2012.0,2032.0,10.0,-40.0,
2014.0,2146.0,2000.0,1921.0,10.0,-41.0,
2006.0,2156.0,2022.0,1967.0,10.0,-41.0,
2016.0,1981.0,2047.0,2048.0,10.0,-41.0,
2046.0,2027.0,2020.0,2077.0,10.0,-41.0,
2064.0,2006.0,2066.0,2117.0,10.0,-41.0,
2065.0,2053.0,2037.0,1949.0,10.0,-41.0,
2045.0,2050.0,2037.0,1995.0,10.0,-41.0,
2022.0,2035.0,2042.0,2057.0,10.0,-41.0,
2014.0,2078.0,2026.0,2046.0,10.0,-41.0,
2011.0,2172.0,2029.0,2043.0,10.0,-41.0,
2029.0,2127.0,2011.0,2073.0,10.0,-41.0,
2054.0,2104.0,2028.0,2102.0,10.0,-41.0,
2070.0,2004.0,1992.0,2045.0,10.0,-41.0,
2055.0,2101.0,2006.0,1999.0,10.0,-41.0,
2029.0,2013.0,1993.0,2014.0,10.0,-41.0,
2003.0,2002.0,2075.0,2059.0,10.0,-41.0,
2009.0,2000.0,2101.0,2068.0,10.0,-40.0,
2021.0,2050.0,2029.0,2050.0,10.0,-40.0,
2042.0,2080.0,2040.0,1971.0,10.0,-40.0,
2061.0,2079.0,2036.0,2027.0,9.0,-39.0,
2068.0,2101.0,2085.0,2045.0,9.0,-39.0,
2048.0,2078.0,2037.0,2030.0,9.0,-39.0,
2032.0,2067.0,2042.0,2038.0,9.0,-38.0,
2016.0,2070.0,2034.0,2034.0,0,0,
2019.0,2077.0,2035.0,2045.0,9.0,-38.0,
2037.0,2105.0,2024.0,2014.0,9.0,-38.0,
2059.0,2071.0,2048.0,2043.0,9.0,-38.0,
2065.0,2016.0,2067.0,2047.0,9.0,-37.0,
2060.0,2043.0,2108.0,2014.0,9.0,-37.0,
2043.0,2051.0,2021.0,1996.0,9.0,-37.0,
2013.0,2073.0,2010.0,2021.0,9.0,-36.0,
2003.0,2001.0,2005.0,2097.0,9.0,-36.0,
2010.0,2040.0,2000.0,2099.0,9.0,-36.0,
2033.0,2120.0,2001.0,2011.0,9.0,-36.0,
2067.0,2094.0,2032.0,1968.0,9.0,-36.0,
2073.0,2038.0,2083.0,2009.0,9.0,-36.0,
2044.0,2130.0,1988.0,2046.0,9.0,-36.0,
2027.0,2099.0,2087.0,2040.0,9.0,-36.0,
2011.0,1989.0,1958.0,2042.0,10.0,-35.0,
2017.0,2106.0,2052.0,2058.0,10.0,-35.0,
2042.0,2071.0,2055.0,2018.0,10.0,-35.0,
2053.0,2071.0,2036.0,2023.0,9.0,-35.0,
2067.0,2075.0,1995.0,2031.0,9.0,-35.0,
2058.0,2130.0,2022.0,2053.0,9.0,-35.0,
2033.0,2029.0,1938.0,2038.0,9.0,-35.0,
2006.0,2000.0,2003.0,2047.0,9.0,-35.0,
1999.0,2050.0,1939.0,2038.0,9.0,-35.0,
2013.0,2084.0,2136.0,2052.0,9.0,-34.0,
2048.0,2069.0,2151.0,2036.0,9.0,-34.0,
2068.0,2048.0,2122.0,2069.0,9.0,-34.0,
2069.0,2057.0,2077.0,2040.0,9.0,-34.0,
2054.0,2029.0,2070.0,2015.0,9.0,-34.0,
2024.0,2076.0,2026.0,2036.0,9.0,-34.0,
2001.0,2108.0,2002.0,2000.0,9.0,-34.0,
2004.0,2089.0,1989.0,2081.0,9.0,-34.0,
2031.0,2101.0,1998.0,2043.0,9.0,-33.0,
2060.0,2064.0,2059.0,2007.0,8.0,-33.0,
2098.0,2046.0,2017.0,1996.0,8.0,-32.0,
2106.0,2046.0,2053.0,2037.0,8.0,-32.0,
2087.0,2077.0,2000.0,2046.0,8.0,-32.0,
2035.0,2005.0,2026.0,2105.0,0,0,
1990.0,2001.0,2064.0,2073.0,8.0,-32.0,
1977.0,2054.0,1995.0,2028.0,8.0,-31.0,
2002.0,2077.0,2070.0,1991.0,8.0,-31.0,
2053.0,2053.0,2057.0,2004.0,8.0,-30.0,
2092.0,2042.0,2026.0,2011.0,8.0,-30.0,
2083.0,2084.0,2042.0,2023.0,8.0,-30.0,
2051.0,2092.0,2068.0,2023.0,8.0,-29.0,
2007.0,2108.0,2027.0,2022.0,8.0,-29.0,
1974.0,2080.0,2047.0,2066.0,8.0,-28.0,
1982.0,2074.0,2075.0,2068.0,8.0,-28.0,
2016.0,2022.0,2039.0,2071.0,8.0,-28.0,
2062.0,2010.0,2012.0,2032.0,8.0,-27.0,
2091.0,2072.0,1990.0,2029.0,8.0,-27.0,
2082.0,2081.0,2044.0,2017.0,8.0,-26.0,
2045.0,2069.0,1998.0,2000.0,8.0,-26.0,
2002.0,2091.0,1999.0,2050.0,8.0,-26.0,
1978.0,2095.0,2029.0,2029.0,8.0,-26.0,
1989.0,2083.0,2059.0,2033.0,8.0,-25.0,
2030.0,2056.0,2010.0,2077.0,8.0,-25.0,
2077.0,2097.0,2022.0,1979.0,8.0,-25.0,
2095.0,2077.0,2042.0,2034.0,8.0,-24.0,
2081.0,2027.0,2047.0,2043.0,8.0,-24.0,
2033.0,2052.0,2060.0,2060.0,8.0,-24.0,
1991.0,2084.0,2055.0,2087.0,8.0,-24.0,
1983.0,2043.0,2024.0,1971.0,8.0,-23.0,
2007.0,2014.0,2075.0,2019.0,8.0,-23.0,
2053.0,2056.0,2056.0,2033.0,8.0,-23.0,
2098.0,2112.0,2038.0,2050.0,8.0,-23.0,
2096.0,2096.0,2027.0,2022.0,8.0,-23.0,
2064.0,2096.0,2009.0,2019.0,8.0,-23.0,
2011.0,2041.0,2013.0,2076.0,8.0,-22.0,
1983.0,2071.0,2040.0,2101.0,8.0,-22.0,
1982.0,2043.0,2014.0,2048.0,8.0,-22.0,
2025.0,2073.0,1994.0,2037.0,8.0,-22.0,
2067.0,2089.0,1982.0,2036.0,8.0,-22.0,
2095.0,2091.0,2010.0,1992.0,8.0,-22.0,
2086.0,2036.0,2043.0,2033.0,8.0,-22.0,
2047.0,2071.0,2059.0,2035.0,8.0,-22.0,
2001.0,2044.0,2042.0,2074.0,8.0,-21.0,
1987.0,2067.0,2053.0,2029.0,8.0,-21.0,
1996.0,2105.0,2060.0,2005.0,8.0,-21.0,
2030.0,2068.0,2040.0,1990.0,8.0,-21.0,
2074.0,2066.0,2039.0,2023.0,8.0,-21.0,
2096.0,2085.0,2020.0,2123.0,8.0,-21.0,
2077.0,2020.0,2003.0,2033.0,8.0,-21.0,
2037.0,2077.0,2069.0,1971.0,8.0,-21.0,
1993.0,2086.0,2082.0,1962.0,7.0,-21.0,
1969.0,2083.0,2080.0,2030.0,7.0,-21.0,
2003.0,2062.0,2100.0,2104.0,7.0,-21.0,
2046.0,2108.0,2076.0,2102.0,7.0,-21.0,
2084.0,2038.0,2007.0,2082.0,7.0,-20.0,
2091.0,1980.0,2040.0,1972.0,7.0,-20.0,
2067.0,2089.0,2022.0,2083.0,7.0,-20.0,
2024.0,2011.0,2060.0,2079.0,7.0,-20.0,
1984.0,1998.0,2040.0,1970.0,7.0,-20.0,
1981.0,2053.0,2015.0,2017.0,7.0,-20.0,
2015.0,2062.0,2074.0,2088.0,8.0,-20.0,
2061.0,2088.0,2084.0,2057.0,7.0,-20.0,
2092.0,2080.0,2051.0,2040.0,8.0,-20.0,
2090.0,2103.0,2052.0,2023.0,8.0,-20.0,
2055.0,2092.0,1991.0,1961.0,8.0,-19.0,
2007.0,2088.0,1984.0,2058.0,8.0,-19.0,
1981.0,2102.0,2010.0,2067.0,8.0,-19.0,
1988.0,2072.0,2010.0,2048.0,8.0,-19.0,
2031.0,2101.0,2021.0,2025.0,7.0,-19.0,
2073.0,2096.0,2009.0,1961.0,7.0,-19.0,
2095.0,2062.0,2015.0,2002.0,7.0,-19.0,
2083.0,2060.0,2123.0,2085.0,8.0,-18.0,
2042.0,2073.0,2057.0,2060.0,0,0,
1994.0,2085.0,2059.0,2026.0,8.0,-18.0,
1982.0,2052.0,2037.0,2022.0,7.0,-18.0,
1996.0,2067.0,2002.0,2040.0,7.0,-18.0,
2041.0,2041.0,2020.0,2041.0,7.0,-18.0,
2082.0,2008.0,2020.0,2053.0,7.0,-18.0,
2096.0,2059.0,2054.0,2050.0,7.0,-18.0,
2072.0,2060.0,2007.0,2042.0,7.0,-17.0,
2032.0,2065.0,1998.0,2049.0,7.0,-17.0,
1989.0,2068.0,2000.0,2042.0,7.0,-17.0,
1984.0,2075.0,2032.0,2033.0,7.0,-17.0,
2018.0,2120.0,2059.0,2046.0,7.0,-17.0,
2056.0,2077.0,2105.0,1993.0,7.0,-17.0,
2092.0,2020.0,2071.0,2044.0,7.0,-16.0,
2097.0,2037.0,2037.0,2077.0,7.0,-16.0,
2064.0,2076.0,2003.0,2022.0,7.0,-16.0,
2012.0,2066.0,2037.0,2028.0,7.0,-15.0,
1985.0,2062.0,2055.0,1992.0,7.0,-16.0,
1984.0,2114.0,2124.0,2007.0,7.0,-15.0,
2020.0,2074.0,2079.0,2024.0,7.0,-15.0,
2073.0,2062.0,2016.0,2030.0,7.0,-15.0,
2094.0,2032.0,2031.0,2033.0,7.0,-15.0,
2085.0,2032.0,2039.0,1952.0,7.0,-14.0,
2048.0,2055.0,2039.0,2138.0,7.0,-14.0,
2004.0,2162.0,2027.0,2128.0,7.0,-14.0,
1984.0,2044.0,2007.0,2058.0,7.0,-14.0,
2003.0,2054.0,2035.0,2058.0,7.0,-14.0,
2036.0,1986.0,2036.0,1980.0,7.0,-13.0,
2077.0,2030.0,2023.0,2063.0,7.0,-13.0,
2097.0,2058.0,2022.0,2054.0,7.0,-13.0,
2074.0,2049.0,2026.0,2107.0,7.0,-13.0,
2029.0,2096.0,2050.0,2029.0,7.0,-12.0,
1997.0,2039.0,2025.0,1973.0,7.0,-12.0,
1982.0,2081.0,2100.0,1995.0,6.0,-12.0,
2007.0,2043.0,2082.0,1966.0,6.0,-12.0,
2049.0,2121.0,2028.0,1941.0,6.0,-11.0,
2087.0,2122.0,2051.0,2052.0,6.0,-11.0,
2092.0,2022.0,1998.0,2066.0,6.0,-11.0,
2068.0,2092.0,2008.0,2021.0,6.0,-11.0,
2017.0,2020.0,2020.0,2019.0,7.0,-10.0,
1986.0,2024.0,1975.0,2118.0,7.0,-10.0,
1985.0,2027.0,2039.0,2071.0,6.0,-10.0,
2015.0,2063.0,2079.0,2074.0,6.0,-9.0,
2061.0,2073.0,2045.0,2011.0,6.0,-9.0,
2094.0,2105.0,2033.0,1988.0,6.0,-9.0,
2089.0,2114.0,2035.0,2023.0,6.0,-9.0,
2049.0,2081.0,2018.0,1991.0,6.0,-9.0,
2009.0,2053.0,2026.0,2107.0,6.0,-8.0,
1979.0,2082.0,2009.0,2085.0,6.0,-8.0,
1993.0,2067.0,1990.0,2041.0,6.0,-8.0,
2033.0,2101.0,2026.0,1997.0,6.0,-8.0,
2081.0,2096.0,2107.0,2005.0,6.0,-8.0,
2099.0,2063.0,2050.0,2054.0,6.0,-7.0,
2080.0,2021.0,1989.0,2085.0,6.0,-7.0,
2034.0,2094.0,2040.0,2064.0,6.0,-7.0,
1993.0,2062.0,2014.0,2018.0,6.0,-7.0,
1980.0,2027.0,2044.0,2055.0,6.0,-7.0,
2003.0,2077.0,2062.0,2030.0,6.0,-7.0,
2050.0,2071.0,2053.0,2039.0,6.0,-7.0,
2086.0,2073.0,2038.0,2036.0,6.0,-7.0,
2095.0,2075.0,1999.0,2023.0,6.0,-7.0,
2067.0,2103.0,1951.0,1997.0,6.0,-7.0,
2020.0,2095.0,2061.0,2011.0,6.0,-7.0,
1983.0,1999.0,2052.0,2026.0,6.0,-7.0,
1979.0,2038.0,2079.0,2073.0,6.0,-6.0,
2012.0,2041.0,2034.0,2090.0,6.0,-6.0,
2057.0,2069.0,2011.0,2049.0,6.0,-6.0,
2089.0,2071.0,2061.0,2032.0,6.0,-6.0,
2086.0,2070.0,2031.0,2025.0,6.0,-6.0,
2052.0,2021.0,1990.0,1982.0,5.0,-6.0,
2007.0,2086.0,2021.0,2025.0,5.0,-6.0,
1982.0,2127.0,2036.0,2032.0,5.0,-6.0,
1986.0,2047.0,2045.0,2136.0,5.0,-5.0,
2029.0,1996.0,2006.0,2095.0,5.0,-5.0,
2073.0,2056.0,2046.0,2025.0,5.0,-5.0,
2098.0,2098.0,2029.0,1997.0,5.0,-5.0,
2083.0,2072.0,1998.0,1962.0,5.0,-5.0,
2022.0,2027.0,2103.0,2069.0,5.0,-5.0,
1995.0,2018.0,2033.0,2072.0,5.0,-5.0,
1980.0,2070.0,2070.0,2034.0,5.0,-5.0,
1998.0,2110.0,2032.0,2066.0,5.0,-5.0,
2049.0,2083.0,2049.0,1989.0,5.0,-5.0,
2085.0,2064.0,2132.0,2064.0,6.0,-5.0,
2097.0,2144.0,2050.0,2085.0,0,0,
2072.0,2211.0,1984.0,2009.0,6.0,-5.0,
2025.0,2034.0,1991.0,2083.0,6.0,-5.0,
1986.0,1983.0,2010.0,1983.0,6.0,-5.0,
1984.0,1974.0,2026.0,1950.0,6.0,-5.0,
2009.0,2024.0,2002.0,2037.0,6.0,-5.0,
2071.0,2018.0,1992.0,2068.0,6.0,-5.0,
2090.0,2004.0,1978.0,2038.0,6.0,-5.0,
2092.0,2017.0,2073.0,2081.0,6.0,-5.0,
2058.0,2063.0,2051.0,2043.0,6.0,-5.0,
2014.0,2104.0,2045.0,1972.0,6.0,-5.0,
1982.0,2112.0,2078.0,2009.0,6.0,-5.0,
1987.0,2062.0,2042.0,2033.0,6.0,-5.0,
2023.0,2087.0,2036.0,2045.0,6.0,-5.0,
2068.0,2094.0,2025.0,2074.0,6.0,-5.0,
2094.0,2055.0,2022.0,2046.0,6.0,-5.0,
2088.0,2096.0,2014.0,2037.0,6.0,-5.0,
2045.0,2108.0,2022.0,2040.0,6.0,-5.0,
1999.0,2064.0,2059.0,2032.0,6.0,-5.0,
1978.0,2002.0,2029.0,2029.0,6.0,-5.0,
1991.0,2074.0,2038.0,2062.0,6.0,-5.0,
2035.0,2076.0,2057.0,2052.0,6.0,-5.0,
2084.0,2080.0,2071.0,2036.0,6.0,-5.0,
2095.0,2084.0,2041.0,2036.0,6.0,-5.0,
2074.0,2078.0,2048.0,2037.0,6.0,-5.0,
2032.0,2059.0,2017.0,2032.0,6.0,-5.0,
1989.0,2073.0,2031.0,2042.0,6.0,-5.0,
1982.0,2076.0,2049.0,1994.0,6.0,-5.0,
2013.0,2091.0,2037.0,1988.0,6.0,-4.0,
2056.0,2057.0,2017.0,2023.0,6.0,-4.0,
2092.0,2025.0,2039.0,2050.0,6.0,-4.0,
2092.0,2010.0,2035.0,2059.0,6.0,-4.0,
2066.0,2047.0,2051.0,2042.0,6.0,-4.0,
2017.0,2065.0,2043.0,2029.0,6.0,-4.0,
1992.0,2082.0,2088.0,2040.0,6.0,-4.0,
1988.0,2069.0,2078.0,2064.0,6.0,-4.0,
2020.0,2083.0,2048.0,2047.0,6.0,-4.0,
2066.0,2037.0,2038.0,2019.0,6.0,-4.0,
2092.0,2074.0,2044.0,2040.0,6.0,-4.0,
2088.0,2116.0,2012.0,2011.0,5.0,-4.0,
2056.0,2111.0,1979.0,2027.0,5.0,-4.0,
2007.0,2083.0,1970.0,2072.0,5.0,-4.0,
1977.0,2015.0,1974.0,2031.0,5.0,-4.0,
1991.0,2008.0,2082.0,2016.0,5.0,-4.0,
2031.0,2035.0,2082.0,2061.0,5.0,-4.0,
2072.0,2053.0,2037.0,2041.0,5.0,-4.0,
2095.0,2046.0,2077.0,2058.0,5.0,-4.0,
2077.0,2057.0,2043.0,1992.0,5.0,-4.0,
2035.0,2051.0,2010.0,1999.0,5.0,-4.0,
1994.0,2097.0,2032.0,2017.0,0,0,
1978.0,2065.0,2087.0,2039.0,5.0,-4.0,
2005.0,2118.0,2069.0,2066.0,5.0,-4.0,
2047.0,2139.0,2029.0,2094.0,5.0,-4.0,
2088.0,2067.0,2017.0,2026.0,5.0,-4.0,
2094.0,2055.0,2045.0,1926.0,5.0,-4.0,
2068.0,2011.0,2039.0,1958.0,5.0,-4.0,
2021.0,2074.0,2014.0,2077.0,5.0,-4.0,
1985.0,2123.0,2018.0,2095.0,5.0,-4.0,
1981.0,2099.0,2008.0,2239.0,5.0,-4.0,
2016.0,2069.0,2022.0,2076.0,5.0,-4.0,
2064.0,2133.0,2022.0,1951.0,6.0,-4.0,
2100.0,2139.0,2040.0,1937.0,5.0,-4.0,
2089.0,2088.0,2028.0,2006.0,5.0,-4.0,
2053.0,1912.0,2001.0,2034.0,6.0,-4.0,
2009.0,1950.0,2032.0,2109.0,6.0,-4.0,
1981.0,2028.0,2053.0,2038.0,6.0,-4.0,
1985.0,2055.0,2048.0,1995.0,6.0,-4.0,
2027.0,2051.0,2055.0,1999.0,6.0,-4.0,
2073.0,2056.0,2034.0,2010.0,6.0,-4.0,
2095.0,2093.0,2028.0,2033.0,6.0,-4.0,
2080.0,2082.0,2032.0,2047.0,5.0,-4.0,
2044.0,2081.0,2112.0,2030.0,5.0,-4.0,
1996.0,2068.0,2127.0,2022.0,5.0,-4.0,
1980.0,2064.0,2029.0,2031.0,5.0,-4.0,
1996.0,2063.0,2034.0,2032.0,5.0,-4.0,
2041.0,2074.0,2059.0,2060.0,6.0,-3.0,
2082.0,2075.0,2046.0,2075.0,5.0,-3.0,
2099.0,2091.0,2043.0,2061.0,5.0,-3.0,
2074.0,2080.0,2056.0,2021.0,0,0,
2026.0,2074.0,2041.0,2022.0,5.0,-3.0,
1986.0,2060.0,2040.0,1997.0,5.0,-3.0,
1980.0,2094.0,2010.0,2003.0,5.0,-3.0,
2007.0,2139.0,2029.0,2036.0,5.0,-3.0,
2060.0,2021.0,2038.0,2091.0,5.0,-3.0,
2090.0,1954.0,1989.0,2061.0,5.0,-3.0,
2091.0,2064.0,1989.0,2065.0,5.0,-3.0,
2059.0,2056.0,2023.0,2082.0,5.0,-3.0,
2011.0,2026.0,2058.0,2021.0,5.0,-3.0,
1979.0,2065.0,2085.0,2025.0,5.0,-2.0,
1990.0,2039.0,2053.0,2016.0,5.0,-2.0,
2025.0,2072.0,2050.0,2026.0,5.0,-2.0,
2069.0,2109.0,2061.0,2034.0,5.0,-2.0,
2093.0,2103.0,2019.0,1977.0,5.0,-2.0,
2084.0,2055.0,2000.0,2009.0,5.0,-2.0,
2047.0,2049.0,2010.0,2070.0,5.0,-2.0,
2003.0,2054.0,2016.0,2096.0,5.0,-2.0,
1979.0,2067.0,2011.0,2043.0,5.0,-2.0,
1992.0,2087.0,2041.0,2001.0,5.0,-2.0,
2037.0,2061.0,2028.0,2036.0,5.0,-2.0,
2078.0,2082.0,2024.0,2020.0,5.0,-2.0,
2097.0,2120.0,2020.0,2027.0,5.0,-2.0,
2080.0,2141.0,2019.0,1997.0,5.0,-1.0,
2033.0,2111.0,2033.0,1970.0,5.0,-1.0,
1992.0,2030.0,2047.0,2057.0,5.0,-1.0,
1979.0,2004.0,2006.0,2110.0,5.0,-1.0,
2007.0,2034.0,2006.0,2046.0,5.0,-1.0,
2051.0,1996.0,2023.0,2052.0,5.0,-1.0,
2099.0,2017.0,2017.0,2092.0,5.0,-1.0,
2091.0,2020.0,2003.0,2121.0,5.0,-1.0,
2064.0,2101.0,2008.0,2062.0,5.0,-1.0,
2015.0,2070.0,2027.0,2011.0,6.0,-1.0,
1981.0,2065.0,2041.0,2036.0,6.0,-1.0,
1983.0,2082.0,2058.0,2016.0,6.0,0.0,
2024.0,2089.0,2078.0,1996.0,5.0,0.0,
2065.0,2072.0,2055.0,2008.0,5.0,0.0,
2093.0,2073.0,2017.0,2022.0,6.0,0.0,
2089.0,2072.0,2009.0,2022.0,6.0,0.0,
2050.0,2096.0,2017.0,2037.0,6.0,0.0,
2004.0,2073.0,2053.0,2025.0,6.0,0.0,
1976.0,2082.0,2118.0,2029.0,6.0,0.0,
1996.0,2065.0,2106.0,2026.0,6.0,0.0,
2029.0,2051.0,2071.0,2043.0,6.0,0.0,
2076.0,2054.0,2074.0,2044.0,6.0,0.0,
2096.0,2085.0,2041.0,2030.0,6.0,0.0,
2081.0,2081.0,2026.0,2025.0,6.0,0.0,
2038.0,2068.0,2028.0,2037.0,0,0,
1997.0,2053.0,2015.0,2044.0,6.0,0.0,
1978.0,2026.0,2068.0,2065.0,6.0,0.0,
2001.0,2053.0,2085.0,2061.0,6.0,0.0,
2044.0,2089.0,2049.0,2036.0,6.0,0.0,
2087.0,2098.0,2025.0,2010.0,6.0,0.0,
2092.0,2035.0,1995.0,2036.0,6.0,0.0,
2073.0,2110.0,1993.0,2015.0,6.0,0.0,
2023.0,2101.0,2018.0,1985.0,6.0,0.0,
1984.0,1999.0,2005.0,2071.0,6.0,0.0,
1981.0,1998.0,2036.0,2069.0,6.0,0.0,
2012.0,2052.0,2044.0,2031.0,6.0,0.0,
2057.0,2085.0,2046.0,2024.0,6.0,0.0,
2100.0,2054.0,2028.0,2044.0,6.0,0.0,
2094.0,2054.0,2057.0,2033.0,6.0,0.0,
2057.0,2005.0,2034.0,2037.0,6.0,0.0,
2008.0,2011.0,2015.0,2019.0,6.0,-1.0,
1980.0,2134.0,1990.0,2053.0,6.0,-1.0,
1985.0,2128.0,2001.0,2009.0,6.0,-1.0,
2028.0,2159.0,2025.0,2019.0,5.0,-1.0,
2072.0,2043.0,1982.0,2038.0,6.0,-1.0,
2092.0,2043.0,1978.0,2074.0,5.0,-1.0,
2089.0,2068.0,2001.0,2085.0,6.0,-1.0,
2043.0,2073.0,2088.0,2031.0,6.0,-1.0,
1999.0,2052.0,2055.0,1981.0,6.0,-1.0,
1987.0,2007.0,2027.0,1983.0,5.0,-1.0,
1996.0,2028.0,2005.0,2026.0,5.0,-1.0,
2039.0,2104.0,2013.0,2054.0,5.0,-1.0,
2078.0,2088.0,2007.0,2110.0,5.0,-1.0,
2093.0,2104.0,2039.0,2127.0,5.0,-1.0,
2073.0,2104.0,2070.0,1933.0,5.0,-1.0,
2034.0,2091.0,2044.0,2028.0,5.0,-1.0,
1988.0,2031.0,2080.0,2061.0,5.0,-1.0,
1979.0,2012.0,2055.0,2038.0,5.0,-1.0,
2008.0,2061.0,2014.0,1976.0,5.0,-1.0,
2053.0,2099.0,2018.0,1999.0,5.0,-1.0,
2089.0,2080.0,2075.0,2020.0,5.0,-1.0,
2105.0,2073.0,2048.0,2074.0,5.0,-1.0,
2063.0,2076.0,2003.0,2084.0,5.0,0.0,
2016.0,2061.0,2031.0,2073.0,5.0,0.0,
1982.0,2078.0,2034.0,2020.0,5.0,0.0,
1984.0,2117.0,2080.0,2011.0,5.0,0.0,
2020.0,2102.0,2089.0,2028.0,5.0,0.0,
2073.0,2013.0,2047.0,2068.0,5.0,0.0,
2095.0,2012.0,2068.0,2064.0,5.0,0.0,
2087.0,1983.0,2026.0,2049.0,5.0,0.0,
2045.0,2031.0,2070.0,2077.0,5.0,0.0,
2002.0,2026.0,2058.0,2080.0,5.0,0,
1979.0,2094.0,2011.0,2031.0,5.0,0.0,
1992.0,2095.0,2021.0,1948.0,5.0,0.0,
2034.0,2059.0,2030.0,1953.0,5.0,0.0,
2077.0,2054.0,2044.0,2038.0,5.0,0.0,
2090.0,2068.0,2038.0,2032.0,5.0,0.0,
2073.0,2101.0,2033.0,1997.0,5.0,0.0,
2035.0,2095.0,2014.0,2050.0,5.0,0.0,
1991.0,2075.0,2036.0,2060.0,5.0,0.0,
1976.0,2056.0,2016.0,2068.0,5.0,0.0,
2002.0,2097.0,2015.0,2049.0,5.0,0.0,
2049.0,2089.0,2030.0,2028.0,5.0,0.0,
2087.0,2070.0,2022.0,2026.0,5.0,0.0,
2092.0,2037.0,2014.0,2001.0,5.0,0.0,
2063.0,2054.0,2053.0,2035.0,5.0,0.0,
2023.0,2045.0,2029.0,2031.0,5.0,0.0,
1985.0,2053.0,2038.0,2038.0,5.0,0.0,
1981.0,2088.0,2038.0,2057.0,5.0,0.0,
2016.0,2099.0,2076.0,2035.0,5.0,0.0,
2061.0,2076.0,2008.0,2036.0,5.0,0.0,
2093.0,2073.0,2069.0,2021.0,5.0,0.0,
2093.0,2059.0,2045.0,2047.0,5.0,0.0,
2054.0,2011.0,2034.0,2064.0,5.0,0.0,
2008.0,2097.0,2059.0,1995.0,5.0,0.0,
1980.0,2116.0,2022.0,1976.0,5.0,0.0,
1986.0,2021.0,1999.0,2036.0,5.0,0.0,
2027.0,1993.0,2039.0,2105.0,5.0,0.0,
2078.0,2028.0,2030.0,2071.0,5.0,0.0,
2098.0,2079.0,2064.0,2018.0,5.0,0.0,
2081.0,2053.0,2025.0,2021.0,5.0,0.0,
2037.0,2071.0,2028.0,2072.0,5.0,0.0,
1996.0,2083.0,1994.0,2071.0,5.0,0.0,
1977.0,2061.0,2018.0,2062.0,5.0,0.0,
2002.0,2087.0,2021.0,2066.0,5.0,0.0,
2040.0,2105.0,2020.0,1976.0,5.0,0.0,
2081.0,2110.0,2032.0,1991.0,5.0,0.0,
2092.0,2093.0,2014.0,1999.0,5.0,0.0,
2070.0,2018.0,1999.0,2024.0,5.0,0.0,
2024.0,2023.0,2032.0,2034.0,5.0,0.0,
1992.0,2066.0,2071.0,2033.0,5.0,0.0,
1982.0,2041.0,2052.0,2051.0,5.0,0.0,
2011.0,2086.0,2092.0,2059.0,6.0,0.0,
2057.0,2076.0,2070.0,2037.0,6.0,0.0,
2092.0,2049.0,2021.0,2035.0,5.0,0.0,
2089.0,2078.0,2015.0,2043.0,5.0,0.0,
2064.0,2075.0,2017.0,2034.0,5.0,0.0,
2012.0,2063.0,2035.0,2029.0,0,0,
1981.0,2070.0,2039.0,2039.0,5.0,0.0,
1988.0,2062.0,2037.0,2037.0,5.0,0.0,
2022.0,2072.0,2019.0,2036.0,5.0,0.0,
2069.0,2076.0,2016.0,2012.0,5.0,0.0,
2095.0,2079.0,2030.0,2030.0,5.0,0.0,
2086.0,2037.0,2012.0,2034.0,5.0,0.0,
2046.0,2052.0,2025.0,2039.0,5.0,0.0,
2002.0,2060.0,2034.0,2036.0,5.0,0.0,
1976.0,2054.0,2045.0,2032.0,5.0,0.0,
1994.0,2060.0,2053.0,2036.0,5.0,0.0,
2038.0,2059.0,2023.0,2045.0,5.0,0.0,
2081.0,2066.0,2037.0,2073.0,5.0,0.0,
2096.0,2078.0,2009.0,2029.0,5.0,0.0,
2074.0,2072.0,2016.0,2012.0,5.0,0.0,
2032.0,2058.0,2066.0,2021.0,5.0,0.0,
1993.0,2069.0,2083.0,2032.0,5.0,0.0,
1981.0,2060.0,2069.0,2046.0,5.0,0.0,
2004.0,2091.0,2069.0,2071.0,5.0,0.0,
2050.0,2064.0,2032.0,2067.0,4.0,0.0,
2090.0,2058.0,2000.0,2040.0,4.0,0.0,
2095.0,2079.0,2007.0,2048.0,5.0,0.0,
2062.0,2099.0,2016.0,2043.0,5.0,0.0,
2014.0,2099.0,2030.0,1987.0,5.0,0.0,
1986.0,2007.0,2020.0,2019.0,5.0,0.0,
1983.0,1964.0,2022.0,2086.0,5.0,0.0,
2016.0,2064.0,1989.0,2086.0,5.0,0.0,
2059.0,2080.0,2011.0,2065.0,5.0,0.0,
2093.0,2086.0,2021.0,2012.0,5.0,0.0,
2089.0,2062.0,2007.0,1939.0,5.0,0.0,
2059.0,2074.0,2013.0,1959.0,5.0,0.0,
2003.0,2079.0,2023.0,2018.0,5.0,0.0,
1977.0,2086.0,2044.0,2066.0,5.0,0.0,
1992.0,2113.0,2054.0,2081.0,5.0,0.0,
2027.0,2125.0,2088.0,2046.0,5.0,0.0,
2074.0,2065.0,2040.0,2059.0,5.0,0.0,
2099.0,2068.0,2104.0,2048.0,5.0,0.0,
2081.0,2011.0,2033.0,2044.0,5.0,0,
2036.0,1990.0,2034.0,2090.0,5.0,0.0,
1995.0,2053.0,2029.0,2039.0,5.0,0.0,
1978.0,2017.0,1974.0,1955.0,5.0,0.0,
1997.0,2066.0,2044.0,2034.0,5.0,0.0,
2042.0,2068.0,2011.0,2076.0,5.0,0.0,
2088.0,2069.0,2071.0,2039.0,5.0,0.0,
2097.0,2072.0,2088.0,2042.0,5.0,0.0,
2067.0,2057.0,2055.0,2029.0,5.0,0.0,
2022.0,2079.0,2055.0,2001.0,5.0,0.0,
1981.0,2089.0,2036.0,2020.0,5.0,0.0,
1982.0,2075.0,2047.0,2040.0,5.0,0.0,
2010.0,2093.0,2064.0,2043.0,5.0,0.0,
2067.0,2104.0,2035.0,2033.0,5.0,0.0,
2090.0,2043.0,2014.0,2066.0,5.0,0.0,
2091.0,2049.0,2005.0,2075.0,5.0,0.0,
2052.0,2058.0,1970.0,1971.0,5.0,0.0,
2006.0,2086.0,2012.0,2023.0,5.0,0.0,
1983.0,2080.0,2042.0,2032.0,5.0,0.0,
1986.0,2061.0,2069.0,2030.0,5.0,0.0,
2024.0,2049.0,2057.0,2051.0,5.0,0.0,
2069.0,2060.0,2041.0,2041.0,5.0,0.0,
2093.0,2057.0,2018.0,2050.0,5.0,0.0,
2082.0,2062.0,2010.0,2031.0,5.0,0.0,
2051.0,2061.0,2017.0,2029.0,5.0,0.0,
1999.0,2067.0,2025.0,2037.0,5.0,0.0,
1976.0,2069.0,2045.0,2016.0,5.0,0.0,
1995.0,2063.0,2048.0,2008.0,5.0,0.0,
2033.0,2034.0,2048.0,2049.0,6.0,0.0,
2081.0,2084.0,2033.0,2064.0,6.0,0.0,
2103.0,2070.0,2028.0,2017.0,6.0,0.0,
2073.0,2068.0,2070.0,1990.0,6.0,0.0,
2032.0,2085.0,2026.0,2015.0,6.0,0.0,
1987.0,2062.0,2039.0,2073.0,6.0,0.0,
1978.0,2085.0,2022.0,2099.0,6.0,0.0,
2002.0,2055.0,2025.0,2081.0,6.0,0.0,
2050.0,2082.0,2003.0,2062.0,6.0,0.0,
2090.0,2092.0,2013.0,1983.0,6.0,0.0,
2092.0,2090.0,2028.0,2009.0,6.0,0.0,
2063.0,2029.0,2044.0,2041.0,6.0,0.0,
2013.0,2017.0,2026.0,2053.0,6.0,0.0,
1976.0,2020.0,2075.0,2036.0,6.0,0.0,
1975.0,2080.0,2052.0,1980.0,6.0,0.0,
2016.0,2089.0,2092.0,2011.0,6.0,0.0,
2065.0,2049.0,2074.0,2093.0,0,0,
2094.0,2069.0,2078.0,2063.0,5.0,0.0,
2087.0,2022.0,2079.0,2027.0,6.0,0.0,
2048.0,2067.0,2043.0,2007.0,5.0,0.0,
2003.0,2081.0,2043.0,2035.0,5.0,0.0,
1979.0,2080.0,2017.0,2034.0,5.0,0.0,
1991.0,2047.0,2032.0,2027.0,5.0,0.0,
2030.0,2054.0,2001.0,2038.0,5.0,0.0,
2076.0,2056.0,2033.0,2044.0,0,0,
2094.0,2079.0,2009.0,2023.0,5.0,0.0,
2079.0,2109.0,2059.0,2070.0,5.0,0.0,
2042.0,2073.0,2027.0,2081.0,5.0,0.0,
1998.0,2100.0,1972.0,2081.0,5.0,0.0,
1980.0,2088.0,1997.0,2010.0,5.0,0.0,
1999.0,2100.0,2020.0,1957.0,5.0,0.0,
2046.0,2064.0,2033.0,1950.0,5.0,0.0,
2084.0,2029.0,2058.0,2026.0,5.0,0.0,
2099.0,2025.0,2123.0,2082.0,5.0,0.0,
2068.0,2022.0,2072.0,2056.0,0,0,
2023.0,2033.0,2037.0,2068.0,5.0,0.0,
1985.0,2067.0,2034.0,2052.0,5.0,0.0,
1982.0,2069.0,2069.0,2031.0,5.0,0.0,
2016.0,2071.0,2073.0,2045.0,5.0,0.0,
2061.0,2066.0,2053.0,2025.0,5.0,0.0,
2097.0,2050.0,2018.0,2033.0,5.0,0.0,
2087.0,2066.0,1988.0,2036.0,5.0,0.0,
2051.0,2073.0,2039.0,2069.0,5.0,0.0,
2007.0,2074.0,2007.0,2017.0,5.0,0.0,
1980.0,2063.0,2002.0,2027.0,5.0,0,
1987.0,2073.0,2075.0,2048.0,5.0,0.0,
2027.0,2076.0,2043.0,2040.0,5.0,0.0,
2071.0,2073.0,2017.0,2036.0,5.0,0.0,
2095.0,2071.0,1988.0,2031.0,5.0,0.0,
2084.0,2065.0,1982.0,2031.0,5.0,0.0,
2041.0,2076.0,2028.0,2028.0,5.0,0.0,
1998.0,2088.0,2024.0,2027.0,5.0,0.0,
1982.0,2063.0,2025.0,2010.0,5.0,0.0,
1996.0,2069.0,2023.0,2052.0,5.0,0.0,
2039.0,2038.0,2045.0,2048.0,5.0,0.0,
2077.0,2063.0,2098.0,1975.0,5.0,0.0,
2098.0,2047.0,2114.0,2062.0,4.0,1.0,
2071.0,1985.0,2048.0,2064.0,4.0,1.0,
2029.0,2078.0,2061.0,2081.0,4.0,1.0,
1988.0,2075.0,2054.0,2031.0,4.0,1.0,
1980.0,2085.0,2040.0,2027.0,4.0,1.0,
2004.0,2067.0,2024.0,2039.0,4.0,1.0,
2055.0,2072.0,2027.0,2064.0,4.0,1.0,
2091.0,2056.0,2038.0,2006.0,4.0,1.0,
2101.0,2071.0,2040.0,2015.0,4.0,1.0,
2061.0,2076.0,2032.0,2019.0,4.0,1.0,
2014.0,2075.0,2041.0,2042.0,4.0,1.0,
1982.0,2098.0,2043.0,2028.0,4.0,1.0,
1985.0,2078.0,2039.0,2041.0,4.0,1.0,
2019.0,2026.0,2028.0,2058.0,5.0,1.0,
2071.0,2078.0,2030.0,2027.0,5.0,1.0,
2098.0,2056.0,2019.0,2011.0,4.0,1.0,
2090.0,2006.0,1982.0,2116.0,4.0,1.0,
2049.0,2075.0,1992.0,2073.0,4.0,1.0,
2006.0,2111.0,2005.0,2103.0,5.0,1.0,
1978.0,2074.0,2012.0,1942.0,5.0,1.0,
1990.0,2009.0,2106.0,1977.0,5.0,1.0,
2034.0,2029.0,2048.0,1971.0,5.0,1.0,
2078.0,2095.0,2017.0,2050.0,5.0,1.0,
2099.0,2096.0,2034.0,2042.0,5.0,1.0,
2078.0,2071.0,2076.0,2049.0,5.0,1.0,
2036.0,2073.0,2050.0,2038.0,5.0,0.0,
1988.0,2076.0,2060.0,2052.0,5.0,0.0,
1981.0,2073.0,2041.0,2046.0,5.0,0.0,
2003.0,2072.0,2058.0,2049.0,5.0,0.0,
2047.0,2043.0,2043.0,2052.0,5.0,0.0,
2093.0,2024.0,2030.0,2063.0,5.0,0.0,
2091.0,2064.0,1991.0,2031.0,5.0,0.0,
2067.0,2091.0,1990.0,2025.0,5.0,0.0,
2022.0,2040.0,1998.0,2040.0,5.0,0.0,
1983.0,2075.0,1971.0,2030.0,5.0,0.0,
1978.0,2080.0,2005.0,2032.0,5.0,0.0,
2014.0,2068.0,2027.0,2028.0,5.0,0.0,
2058.0,2069.0,2025.0,2021.0,5.0,0.0,
2091.0,2061.0,2059.0,2054.0,5.0,0.0,
2098.0,2081.0,2088.0,2068.0,5.0,0.0,
2055.0,2061.0,2092.0,2054.0,5.0,0.0,
2009.0,2064.0,2098.0,2040.0,5.0,0.0,
1978.0,2041.0,2076.0,2042.0,5.0,0.0,
1987.0,2052.0,2014.0,2016.0,5.0,0.0,
2023.0,2092.0,2016.0,2005.0,5.0,0.0,
2071.0,2090.0,2028.0,2032.0,5.0,0.0,
2100.0,2057.0,1982.0,2065.0,5.0,0.0,
2083.0,2045.0,1954.0,2070.0,5.0,0.0,
2044.0,2029.0,2038.0,2042.0,5.0,0.0,
1998.0,2026.0,2056.0,2034.0,5.0,0.0,
1977.0,2049.0,2038.0,2016.0,5.0,0.0,
1993.0,2066.0,2050.0,2016.0,5.0,0.0,
2041.0,2072.0,2044.0,2015.0,0,0,
2083.0,2074.0,2042.0,2011.0,5.0,0.0,
2095.0,2075.0,2022.0,2061.0,5.0,0.0,
2075.0,2099.0,2014.0,2080.0,5.0,0.0,
2029.0,2056.0,2029.0,1961.0,5.0,0.0,
1987.0,2079.0,2043.0,1981.0,5.0,0.0,
1983.0,2087.0,2085.0,2125.0,5.0,0.0,
2006.0,2071.0,2027.0,2067.0,5.0,0.0,
2056.0,2052.0,2019.0,2064.0,5.0,0.0,
2092.0,2029.0,2007.0,2004.0,5.0,0.0,
2094.0,2063.0,2036.0,2031.0,5.0,0.0,
2062.0,2087.0,2034.0,2039.0,5.0,0.0,
2020.0,2077.0,2044.0,2049.0,5.0,0.0,
1978.0,2067.0,2071.0,1942.0,5.0,0.0,
1985.0,2057.0,2051.0,2013.0,5.0,0.0,
2017.0,2063.0,2052.0,2031.0,5.0,0.0,
2068.0,2069.0,1994.0,2045.0,5.0,0.0,
2093.0,2058.0,1995.0,2043.0,5.0,0.0,
2091.0,2065.0,2022.0,2043.0,5.0,0.0,
2051.0,2091.0,2060.0,2034.0,5.0,0.0,
2002.0,2061.0,2067.0,2019.0,5.0,0.0,
1978.0,2095.0,2015.0,2032.0,5.0,0.0,
1992.0,2049.0,2009.0,2069.0,5.0,0.0,
2032.0,2045.0,2018.0,2071.0,5.0,0.0,
2086.0,2040.0,2002.0,2051.0,0,0,
2098.0,2053.0,2033.0,2095.0,5.0,0.0,
2081.0,2072.0,2037.0,2023.0,5.0,0.0,
2033.0,2056.0,2009.0,1994.0,5.0,0.0,
1994.0,2082.0,2005.0,1968.0,5.0,0.0,
1980.0,2069.0,2006.0,1994.0,5.0,0.0,
2005.0,2081.0,2052.0,2045.0,4.0,0.0,
2044.0,2080.0,2050.0,2046.0,4.0,0.0,
2085.0,2043.0,2039.0,2046.0,5.0,0.0,
2096.0,2062.0,2031.0,2049.0,5.0,0.0,
2065.0,2075.0,2024.0,2041.0,5.0,0.0,
2021.0,2062.0,2040.0,2036.0,5.0,0.0,
1986.0,2066.0,2043.0,2033.0,5.0,0.0,
1984.0,2068.0,1991.0,2038.0,5.0,0.0,
2016.0,2064.0,2073.0,2059.0,5.0,0.0,
2060.0,2076.0,2055.0,2043.0,5.0,0.0,
2093.0,2064.0,2034.0,2036.0,5.0,0.0,
2091.0,2043.0,1998.0,2026.0,5.0,0.0,
2053.0,2054.0,1985.0,2047.0,5.0,0.0,
2010.0,2085.0,2015.0,2027.0,5.0,0.0,
1981.0,2070.0,2029.0,2025.0,5.0,0.0,
1988.0,2056.0,2041.0,2029.0,5.0,0.0,
2031.0,2064.0,2078.0,2051.0,5.0,0.0,
2073.0,2058.0,2061.0,2049.0,5.0,0.0,
2094.0,2041.0,2012.0,2023.0,5.0,0.0,
2086.0,2045.0,2136.0,2047.0,5.0,0.0,
2047.0,2041.0,2096.0,2047.0,5.0,0.0,
2003.0,2059.0,2104.0,2102.0,5.0,0.0,
1980.0,2082.0,2099.0,2074.0,5.0,0.0,
1996.0,2097.0,2066.0,2018.0,6.0,0.0,
2040.0,2060.0,2033.0,1995.0,5.0,0.0,
2092.0,2098.0,2036.0,2037.0,5.0,0.0,
2097.0,2077.0,2096.0,2046.0,5.0,0.0,
2072.0,2052.0,2068.0,2023.0,5.0,0.0,
2029.0,2053.0,2047.0,2023.0,5.0,0.0,
1987.0,1964.0,1979.0,2055.0,5.0,0.0,
1982.0,2053.0,1988.0,2047.0,5.0,0.0,
2011.0,2069.0,1969.0,2017.0,5.0,0.0,
2054.0,2084.0,1985.0,2012.0,5.0,0.0,
2091.0,2033.0,2023.0,2051.0,5.0,0.0,
2090.0,2035.0,2067.0,2072.0,5.0,0.0,
2061.0,2072.0,2004.0,2024.0,5.0,0.0,
2012.0,2060.0,2021.0,2033.0,5.0,0.0,
1980.0,2037.0,2022.0,2042.0,5.0,0.0,
1983.0,2121.0,2030.0,2047.0,0,0,
2019.0,2094.0,2017.0,1977.0,5.0,0.0,
2067.0,2101.0,2035.0,2047.0,5.0,0.0,
2095.0,2086.0,2009.0,2012.0,5.0,0.0,
2085.0,2108.0,2027.0,2030.0,5.0,0.0,
2048.0,2082.0,2012.0,2034.0,5.0,0.0,
2006.0,2046.0,2019.0,2042.0,5.0,0.0,
1981.0,2050.0,2040.0,2032.0,5.0,0.0,
1991.0,2023.0,2022.0,2053.0,5.0,0.0,
2034.0,2053.0,2033.0,2107.0,5.0,0.0,
2076.0,2081.0,2018.0,2065.0,5.0,0.0,
2097.0,2054.0,2028.0,1991.0,5.0,0.0,
2078.0,2059.0,2033.0,2018.0,5.0,0.0,
2031.0,2070.0,2028.0,2050.0,5.0,0.0,
1992.0,2078.0,2042.0,2032.0,5.0,0.0,
1978.0,2068.0,2055.0,2032.0,5.0,0.0,
2001.0,2041.0,2032.0,2041.0,5.0,0.0,
2045.0,2069.0,2053.0,2049.0,5.0,0.0,
2091.0,2060.0,2028.0,2059.0,5.0,0.0,
2091.0,2051.0,2015.0,2047.0,5.0,0.0,
2066.0,2051.0,1998.0,2038.0,5.0,0.0,
2019.0,2083.0,1990.0,2032.0,5.0,0.0,
1980.0,2083.0,2012.0,2003.0,5.0,0.0,
1980.0,2070.0,2053.0,2015.0,5.0,0.0,
2022.0,2066.0,2077.0,2052.0,5.0,0.0,
2062.0,2063.0,2094.0,2045.0,5.0,0.0,
2097.0,2059.0,2058.0,2031.0,5.0,0.0,
2089.0,2070.0,2051.0,2017.0,5.0,0.0,
2054.0,2068.0,2025.0,2030.0,5.0,0.0,
2009.0,2063.0,2016.0,2041.0,5.0,0.0,
1982.0,2073.0,2012.0,2052.0,5.0,0.0,
1991.0,2069.0,2029.0,2039.0,5.0,0.0,
2028.0,2055.0,2065.0,2038.0,5.0,0.0,
2074.0,2040.0,2045.0,2033.0,5.0,0.0,
2096.0,2059.0,2084.0,2030.0,5.0,0.0,
2079.0,2071.0,2044.0,2051.0,5.0,0.0,
2040.0,2083.0,2015.0,2038.0,5.0,0.0,
2000.0,2070.0,2024.0,2030.0,5.0,0.0,
1979.0,2058.0,2019.0,2041.0,5.0,0.0,
1997.0,2099.0,2022.0,2036.0,5.0,0.0,
2042.0,2097.0,2057.0,2038.0,5.0,0.0,
2082.0,2083.0,2095.0,2026.0,5.0,0.0,
2094.0,2032.0,2034.0,2053.0,5.0,0.0,
2074.0,2001.0,1976.0,2126.0,5.0,0.0,
2024.0,2042.0,1981.0,2066.0,5.0,0.0,
1990.0,2066.0,2018.0,2014.0,5.0,0.0,
1980.0,2080.0,2021.0,1987.0,5.0,0.0,
2007.0,2037.0,2046.0,2043.0,5.0,0.0,
2054.0,2032.0,2051.0,2065.0,5.0,0.0,
2094.0,2043.0,2101.0,2056.0,5.0,0.0,
2092.0,2072.0,2093.0,2028.0,5.0,0.0,
2058.0,2083.0,2035.0,2004.0,5.0,0.0,
2014.0,2057.0,2029.0,1997.0,5.0,0.0,
1979.0,2033.0,2021.0,2032.0,5.0,0.0,
1983.0,2080.0,2046.0,2020.0,5.0,0.0,
2032.0,2116.0,2062.0,2035.0,5.0,0.0,
2069.0,2111.0,2008.0,2022.0,5.0,0.0,
2100.0,2083.0,2023.0,2018.0,5.0,0.0,
2086.0,2059.0,1997.0,2027.0,5.0,0.0,
2043.0,2078.0,2011.0,2045.0,5.0,0.0,
2000.0,2067.0,2014.0,2058.0,5.0,0.0,
1978.0,2085.0,2045.0,2073.0,5.0,0.0,
1995.0,2069.0,2068.0,2055.0,5.0,0.0,
2034.0,2050.0,2110.0,2056.0,5.0,0.0,
2078.0,2032.0,2041.0,2066.0,5.0,0.0,
2094.0,2065.0,2043.0,2007.0,5.0,0.0,
2073.0,2076.0,1991.0,1960.0,5.0,0.0,
2032.0,2073.0,2019.0,2044.0,5.0,0.0,
1989.0,2077.0,2009.0,2042.0,5.0,0.0,
1979.0,2074.0,2017.0,2042.0,5.0,0.0,
2006.0,2060.0,2021.0,2041.0,5.0,0.0,
2048.0,2052.0,2062.0,2050.0,5.0,0.0,
2087.0,2068.0,2044.0,2051.0,5.0,0.0,
2095.0,2071.0,2057.0,2045.0,5.0,0.0,
2065.0,2048.0,2061.0,2041.0,5.0,0.0,
2015.0,2043.0,2048.0,2048.0,5.0,0.0,
1981.0,2056.0,2040.0,2039.0,5.0,0.0,
1982.0,2057.0,2031.0,2036.0,5.0,0.0,
2015.0,2072.0,2027.0,2036.0,5.0,0.0,
2064.0,2085.0,1995.0,2034.0,5.0,0.0,
2097.0,2061.0,2026.0,2031.0,5.0,0.0,
2089.0,2056.0,2053.0,2044.0,5.0,0.0,
2052.0,2055.0,2010.0,2041.0,5.0,0.0,
2006.0,2045.0,2066.0,2042.0,5.0,0.0,
1976.0,2044.0,2054.0,2015.0,5.0,0.0,
1990.0,2069.0,2045.0,2031.0,5.0,0.0,
2031.0,2078.0,2090.0,2022.0,5.0,0.0,
2077.0,2045.0,2025.0,2027.0,5.0,0.0,
2098.0,2076.0,2038.0,2043.0,5.0,0.0,
2082.0,2074.0,2008.0,2076.0,5.0,0.0,
2036.0,2061.0,2018.0,2092.0,5.0,0.0,
1994.0,2086.0,2030.0,2048.0,5.0,0.0,
1985.0,2098.0,2051.0,1955.0,5.0,0.0,
1998.0,2032.0,2082.0,2057.0,5.0,0.0,
2043.0,2035.0,2068.0,2058.0,5.0,0.0,
2084.0,2060.0,2023.0,2053.0,5.0,1.0,
2092.0,2074.0,2019.0,2042.0,5.0,1.0,
2068.0,2074.0,1982.0,2013.0,5.0,1.0,
2036.0,2074.0,2030.0,2020.0,5.0,1.0,
1983.0,2050.0,2007.0,2027.0,5.0,1.0,
1979.0,2065.0,2003.0,2010.0,5.0,1.0,
2012.0,2085.0,2038.0,2041.0,5.0,1.0,
2058.0,2134.0,2030.0,2051.0,5.0,1.0,
2091.0,2048.0,2051.0,2023.0,5.0,1.0,
2099.0,2048.0,2024.0,2002.0,5.0,1.0,
2059.0,2033.0,2017.0,2067.0,5.0,1.0,
2011.0,2045.0,2032.0,2058.0,5.0,1.0,
1981.0,2108.0,2049.0,2055.0,5.0,1.0,
1985.0,2069.0,2030.0,2051.0,5.0,1.0,
2022.0,2068.0,2000.0,2030.0,5.0,1.0,
2078.0,2051.0,2019.0,2006.0,5.0,0.0,
2095.0,2019.0,2065.0,2056.0,5.0,0.0,
2084.0,2059.0,2012.0,2047.0,5.0,0.0,
2046.0,2094.0,2039.0,2013.0,5.0,0.0,
1997.0,2088.0,2058.0,2024.0,5.0,0.0,
1979.0,2050.0,2059.0,2057.0,5.0,0.0,
2003.0,2056.0,2041.0,2057.0,5.0,0.0,
2041.0,2075.0,2047.0,2011.0,5.0,0.0,
2086.0,2086.0,2077.0,2007.0,5.0,0.0,
2095.0,2052.0,2034.0,2036.0,5.0,0.0,
2073.0,2080.0,2059.0,2047.0,5.0,0.0,
2028.0,2057.0,2060.0,2062.0,5.0,0.0,
1995.0,2028.0,2050.0,2065.0,5.0,0.0,
1985.0,2056.0,2041.0,2032.0,5.0,0.0,
2018.0,2073.0,2032.0,2032.0,5.0,0.0,
2052.0,2081.0,2060.0,2052.0,5.0,0.0,
2091.0,2082.0,2019.0,2037.0,5.0,0.0,
2093.0,2073.0,2055.0,2022.0,5.0,0.0,
2067.0,2075.0,2012.0,2040.0,5.0,0.0,
2016.0,2063.0,1981.0,2022.0,5.0,0.0,
1983.0,2053.0,2059.0,2026.0,5.0,0.0,
1982.0,2079.0,2058.0,2041.0,5.0,0.0,
2021.0,2078.0,2046.0,2032.0,5.0,0.0,
2067.0,2074.0,2055.0,2022.0,5.0,0.0,
2095.0,2036.0,2034.0,2050.0,5.0,0.0,
2088.0,2057.0,2042.0,2040.0,5.0,0.0,
2045.0,2076.0,2009.0,2061.0,5.0,0.0,
2003.0,2074.0,2027.0,2037.0,5.0,0.0,
1978.0,2073.0,2021.0,2032.0,5.0,0.0,
1990.0,2070.0,2008.0,2025.0,5.0,0.0,
2033.0,2064.0,2050.0,2041.0,5.0,0.0,
2080.0,2080.0,2060.0,2031.0,5.0,0.0,
2096.0,2039.0,2084.0,2040.0,5.0,0.0,
2077.0,2053.0,2043.0,2024.0,5.0,0.0,
2031.0,2065.0,2039.0,2094.0,5.0,0.0,
1988.0,2070.0,2057.0,2050.0,5.0,0.0,
1978.0,2086.0,2060.0,1980.0,5.0,0.0,
2006.0,2032.0,2053.0,1993.0,5.0,0.0,
2045.0,2051.0,2045.0,2035.0,5.0,0.0,
2092.0,2034.0,2047.0,2061.0,5.0,0.0,
2092.0,2061.0,2035.0,2023.0,5.0,0.0,
2065.0,2096.0,2029.0,2000.0,5.0,0.0,
2019.0,2100.0,2043.0,2035.0,0,0,
1982.0,2098.0,2025.0,2030.0,5.0,0.0,
1982.0,2036.0,1990.0,2060.0,5.0,0.0,
2032.0,2012.0,2001.0,2061.0,5.0,0.0,
2063.0,2057.0,2007.0,2061.0,5.0,0.0,
2093.0,2061.0,2008.0,2032.0,5.0,0.0,
2087.0,2083.0,2109.0,2045.0,5.0,0.0,
2053.0,2079.0,2068.0,2038.0,5.0,0.0,
2007.0,2020.0,2030.0,2026.0,5.0,0.0,
1981.0,2052.0,2045.0,2050.0,5.0,0.0,
1989.0,2096.0,2011.0,2029.0,5.0,0.0,
2028.0,2062.0,1995.0,2045.0,5.0,0.0,
2074.0,2106.0,1985.0,2058.0,5.0,0.0,
2101.0,2092.0,2040.0,2028.0,5.0,0.0,
2081.0,2050.0,2044.0,2010.0,5.0,0.0,
2042.0,2032.0,2052.0,2028.0,5.0,0.0,
1997.0,2020.0,2058.0,2038.0,5.0,0.0,
1979.0,2074.0,2063.0,2056.0,5.0,0.0,
1998.0,2079.0,2040.0,2001.0,5.0,0.0,
2044.0,2045.0,2026.0,2023.0,0,0,
2085.0,2047.0,2035.0,2045.0,5.0,0.0,
2094.0,2059.0,2054.0,2049.0,5.0,0.0,
2071.0,2081.0,2038.0,2013.0,5.0,0.0,
2025.0,2070.0,2016.0,2027.0,5.0,0.0,
1983.0,2085.0,2037.0,2089.0,5.0,0.0,
1989.0,2085.0,2079.0,2052.0,5.0,0.0,
2013.0,2086.0,2057.0,2045.0,5.0,0.0,
2061.0,2076.0,2050.0,2027.0,5.0,0.0,
2092.0,2061.0,2031.0,2018.0,5.0,-1.0,
2090.0,2059.0,2048.0,2004.0,5.0,-1.0,
2054.0,2088.0,2053.0,2035.0,5.0,-1.0,
2012.0,2078.0,2036.0,2031.0,5.0,-1.0,
1981.0,1998.0,2029.0,2057.0,5.0,-1.0,
1988.0,2077.0,2032.0,2048.0,5.0,-1.0,
2026.0,2077.0,2029.0,2044.0,5.0,-1.0,
2068.0,2052.0,2034.0,2043.0,5.0,-1.0,
2095.0,2073.0,2035.0,2001.0,5.0,-1.0,
2090.0,2057.0,2039.0,2021.0,5.0,-1.0,
2045.0,2049.0,2067.0,2040.0,5.0,-1.0,
1999.0,2068.0,2035.0,2032.0,5.0,-1.0,
1978.0,2053.0,2074.0,2042.0,5.0,-1.0,
1996.0,2068.0,2028.0,2037.0,5.0,-1.0,
2037.0,2055.0,2034.0,2067.0,5.0,-1.0,
2089.0,2037.0,2006.0,2040.0,5.0,-1.0,
2099.0,2044.0,2055.0,2025.0,5.0,-1.0,
2072.0,2109.0,2017.0,2013.0,5.0,-1.0,
2028.0,2060.0,2056.0,2026.0,0,0,
1988.0,2078.0,2043.0,2035.0,5.0,-1.0,
1979.0,2109.0,2021.0,2004.0,5.0,-1.0,
2021.0,2068.0,2040.0,2046.0,5.0,-1.0,
2054.0,2058.0,2051.0,2104.0,5.0,-1.0,
2089.0,2059.0,2007.0,2046.0,5.0,-1.0,
2089.0,2034.0,2000.0,2074.0,5.0,-1.0,
2060.0,2060.0,2080.0,1973.0,5.0,-1.0,
2015.0,2047.0,2071.0,2055.0,5.0,-1.0,
1989.0,2082.0,2094.0,2048.0,5.0,-1.0,
1987.0,2071.0,2049.0,2033.0,5.0,-1.0,
2023.0,2045.0,2017.0,2027.0,5.0,-1.0,
2067.0,2055.0,2053.0,2039.0,5.0,-1.0,
2095.0,2065.0,2036.0,2045.0,5.0,0.0,
2086.0,2078.0,2041.0,2026.0,5.0,0.0,
2054.0,2090.0,2039.0,2041.0,5.0,0.0,
2006.0,2084.0,2027.0,2021.0,5.0,0.0,
1978.0,2112.0,2020.0,2030.0,5.0,0.0,
1992.0,2056.0,2030.0,2048.0,5.0,0.0,
2034.0,1999.0,2019.0,2032.0,5.0,0.0,
2081.0,2030.0,1999.0,2017.0,5.0,0.0,
2102.0,2083.0,2011.0,2064.0,5.0,0.0,
2078.0,2077.0,2007.0,2047.0,5.0,0.0,
2035.0,2080.0,2009.0,2034.0,5.0,0.0,
1991.0,2072.0,2015.0,2009.0,5.0,0.0,
1979.0,2047.0,2026.0,2030.0,5.0,0.0,
2000.0,2072.0,2061.0,2063.0,5.0,0.0,
2048.0,2076.0,2048.0,2038.0,5.0,0.0,
2091.0,2074.0,2040.0,2012.0,5.0,0.0,
2094.0,2066.0,2014.0,2035.0,5.0,0.0,
2061.0,2068.0,2041.0,2039.0,4.0,0.0,
2018.0,2037.0,2050.0,2051.0,4.0,0.0,
1986.0,2052.0,2050.0,2092.0,4.0,0.0,
1984.0,2071.0,2055.0,2074.0,5.0,0.0,
2015.0,2053.0,2022.0,2001.0,5.0,0.0,
2065.0,2072.0,2040.0,1946.0,5.0,-1.0,
2096.0,2070.0,2040.0,2022.0,5.0,-1.0,
2091.0,2065.0,2030.0,2010.0,5.0,-1.0,
2053.0,2069.0,2042.0,2050.0,5.0,-1.0,
2010.0,2053.0,2044.0,2053.0,5.0,-1.0,
1979.0,2088.0,2040.0,2059.0,5.0,-1.0,
1988.0,2083.0,2033.0,2038.0,5.0,-1.0,
2031.0,2110.0,2041.0,2032.0,5.0,-1.0,
2075.0,2039.0,1982.0,2008.0,5.0,-1.0,
2096.0,2054.0,2003.0,2050.0,5.0,-1.0,
2081.0,2051.0,2031.0,2053.0,5.0,0.0,
2041.0,2072.0,2084.0,2060.0,5.0,0.0,
1995.0,2056.0,2053.0,2057.0,5.0,0.0,
1979.0,2057.0,2072.0,2039.0,5.0,0.0,
1999.0,2062.0,2041.0,2042.0,5.0,0.0,
2041.0,2060.0,2022.0,2031.0,5.0,0.0,
2083.0,2052.0,2045.0,2041.0,5.0,0.0,
2095.0,2075.0,2045.0,2047.0,4.0,0.0,
2066.0,2071.0,2039.0,2038.0,4.0,0.0,
2024.0,2055.0,2049.0,2015.0,4.0,0.0,
1987.0,2071.0,2080.0,2009.0,5.0,0.0,
1983.0,2079.0,2029.0,2014.0,5.0,0.0,
2010.0,2082.0,2003.0,2050.0,5.0,0.0,
2059.0,2105.0,2018.0,2049.0,5.0,0.0,
2094.0,2047.0,2004.0,2010.0,5.0,0.0,
2089.0,2019.0,2008.0,2025.0,5.0,0.0,
2055.0,2071.0,2020.0,2024.0,5.0,0.0,
2012.0,2028.0,2016.0,2081.0,5.0,0.0,
1981.0,2054.0,2104.0,2090.0,5.0,0.0,
1995.0,2036.0,2075.0,1980.0,5.0,0.0,
2024.0,2046.0,2104.0,2065.0,5.0,0.0,
2069.0,2086.0,2051.0,2076.0,5.0,0.0,
2094.0,2069.0,1975.0,2043.0,5.0,0.0,
2085.0,2098.0,2012.0,1981.0,5.0,0,
2045.0,2100.0,2006.0,1993.0,5.0,0.0,
1997.0,2089.0,1996.0,2030.0,5.0,0.0,
1983.0,1971.0,2004.0,2062.0,5.0,0.0,
1997.0,2051.0,2032.0,2054.0,5.0,0.0,
2039.0,2081.0,2007.0,2006.0,5.0,0.0,
2079.0,2088.0,2041.0,2030.0,5.0,0.0,
2096.0,2057.0,2042.0,2062.0,5.0,0.0,
2073.0,2066.0,2083.0,2015.0,5.0,0.0,
2029.0,2084.0,2079.0,2036.0,5.0,0.0,
1990.0,2067.0,2079.0,2055.0,5.0,-1.0,
1980.0,2081.0,2052.0,2028.0,5.0,-1.0,
2003.0,2089.0,2046.0,2042.0,5.0,-1.0,
2056.0,2106.0,2041.0,2047.0,5.0,-1.0,
2088.0,2101.0,2054.0,2025.0,5.0,-1.0,
2101.0,2037.0,2002.0,2004.0,5.0,-1.0,
2064.0,2066.0,2019.0,2042.0,5.0,-1.0,
2016.0,2074.0,2011.0,2040.0,5.0,-1.0,
1981.0,2073.0,2042.0,2034.0,5.0,-1.0,
1983.0,2051.0,2068.0,2027.0,5.0,-1.0,
2025.0,2036.0,2036.0,2018.0,5.0,-1.0,
2067.0,2059.0,2096.0,2034.0,5.0,-1.0,
2095.0,2033.0,2022.0,2062.0,5.0,-1.0,
2087.0,2050.0,2060.0,2077.0,5.0,-1.0,
2047.0,2089.0,2020.0,2087.0,5.0,-1.0,
2005.0,2086.0,2018.0,2054.0,5.0,-1.0,
1989.0,2037.0,2057.0,2005.0,5.0,-1.0,
1993.0,2049.0,2028.0,2029.0,5.0,0.0,
2032.0,2050.0,2019.0,2042.0,5.0,0.0,
2076.0,2068.0,2015.0,2029.0,5.0,0.0,
2092.0,2093.0,2025.0,2024.0,5.0,0.0,
2076.0,2087.0,1976.0,1998.0,5.0,0.0,
2035.0,2063.0,2013.0,2040.0,5.0,0.0,
1993.0,2056.0,2058.0,2069.0,5.0,0.0,
1981.0,2034.0,2028.0,2039.0,5.0,0.0,
2002.0,2052.0,2049.0,2016.0,5.0,0.0,
2048.0,2076.0,2005.0,2016.0,5.0,0.0,
2086.0,2068.0,2080.0,2040.0,5.0,0.0,
2093.0,2079.0,2127.0,2043.0,5.0,0.0,
2067.0,2065.0,2044.0,2044.0,5.0,0.0,
2016.0,2073.0,2047.0,2040.0,5.0,0.0,
1986.0,2076.0,2035.0,2051.0,5.0,0.0,
1981.0,2077.0,2037.0,2035.0,5.0,0.0,
2018.0,2080.0,2029.0,2033.0,5.0,0.0,
2062.0,2021.0,2069.0,2041.0,5.0,0.0,
2097.0,2058.0,2042.0,2028.0,5.0,0.0,
2090.0,2060.0,2065.0,2051.0,5.0,0.0,
2055.0,2063.0,2057.0,2052.0,5.0,0.0,
2006.0,2091.0,2040.0,2035.0,5.0,0.0,
1982.0,2073.0,2019.0,2025.0,5.0,0.0,
1990.0,2080.0,1975.0,2049.0,5.0,0.0,
2033.0,2049.0,2011.0,2056.0,5.0,0.0,
2078.0,2100.0,2035.0,2063.0,5.0,0.0,
2098.0,2071.0,2112.0,2016.0,5.0,0.0,
2082.0,2030.0,2040.0,2013.0,4.0,0.0,
2038.0,2053.0,2049.0,2030.0,5.0,0.0,
1996.0,2040.0,2037.0,2046.0,5.0,0.0,
1982.0,2063.0,2071.0,2095.0,5.0,0.0,
2003.0,2065.0,2036.0,2047.0,5.0,0.0,
2044.0,2076.0,2025.0,1989.0,4.0,0.0,
2085.0,2073.0,2028.0,2027.0,4.0,0.0,
2095.0,2056.0,2031.0,1964.0,4.0,0.0,
2068.0,2043.0,2041.0,2003.0,5.0,0.0,
2025.0,2018.0,2034.0,2035.0,5.0,0.0,
1986.0,2067.0,2023.0,2042.0,5.0,0.0,
1981.0,2114.0,2020.0,2017.0,5.0,0.0,
2013.0,2085.0,2055.0,2102.0,5.0,0.0,
2058.0,2070.0,2029.0,2053.0,5.0,0.0,
2090.0,2075.0,2016.0,2048.0,5.0,0.0,
2098.0,2092.0,2041.0,2051.0,5.0,0.0,
2059.0,2081.0,2019.0,2026.0,5.0,0.0,
2013.0,2113.0,2026.0,2008.0,5.0,0.0,
1980.0,2081.0,2061.0,2033.0,5.0,0.0,
1984.0,2032.0,2054.0,2068.0,5.0,0.0,
2025.0,2051.0,2081.0,2069.0,5.0,0.0,
2069.0,2070.0,2040.0,2037.0,4.0,0.0,
2098.0,2066.0,2021.0,1991.0,4.0,0.0,
2085.0,2062.0,2012.0,2038.0,4.0,0.0,
2046.0,2056.0,1982.0,2026.0,4.0,0.0,
2001.0,2070.0,2008.0,2021.0,4.0,0.0,
1979.0,1997.0,2021.0,2031.0,4.0,0.0,
1994.0,2045.0,2013.0,2051.0,4.0,0.0,
2036.0,2048.0,2129.0,2072.0,4.0,0.0,
2078.0,2089.0,2075.0,2042.0,4.0,0.0,
2098.0,2125.0,2078.0,2020.0,4.0,0.0,
2078.0,2111.0,2074.0,2010.0,4.0,0.0,
2038.0,2024.0,2028.0,2027.0,4.0,0.0,
1993.0,2036.0,1978.0,2046.0,5.0,0.0,
1983.0,2072.0,2037.0,2044.0,5.0,0.0,
2007.0,2003.0,2038.0,2029.0,5.0,0.0,
2050.0,2108.0,2050.0,2020.0,5.0,0.0,
2088.0,2113.0,2013.0,2021.0,5.0,0.0,
2092.0,2066.0,2041.0,2074.0,5.0,0.0,
2064.0,2047.0,1996.0,1998.0,5.0,0.0,
2023.0,2037.0,2001.0,2096.0,5.0,0.0,
1985.0,2032.0,1976.0,2057.0,5.0,0.0,
1982.0,2008.0,1963.0,2035.0,5.0,1.0,
2016.0,2093.0,2062.0,2012.0,5.0,1.0,
2063.0,2126.0,2020.0,2001.0,5.0,1.0,
2094.0,2008.0,1950.0,2060.0,5.0,1.0,
2095.0,1994.0,2018.0,2093.0,5.0,1.0,
2054.0,2103.0,2039.0,1972.0,5.0,0,
2006.0,2116.0,2069.0,2102.0,5.0,1.0,
1980.0,2097.0,2067.0,2072.0,5.0,1.0,
1990.0,2097.0,2083.0,1975.0,5.0,1.0,
2030.0,2115.0,2053.0,1997.0,5.0,2.0,
2080.0,2129.0,2014.0,2045.0,5.0,2.0,
2098.0,2080.0,2020.0,2000.0,5.0,2.0,
2084.0,1995.0,2045.0,2046.0,5.0,2.0,
2039.0,2003.0,2065.0,2037.0,5.0,2.0,
1996.0,2071.0,2045.0,2009.0,5.0,2.0,
1977.0,2056.0,2005.0,2029.0,5.0,0,
1998.0,2043.0,1990.0,2047.0,5.0,2.0,
2048.0,2065.0,2065.0,2043.0,5.0,2.0,
2085.0,2120.0,2043.0,2037.0,5.0,2.0,
2094.0,2083.0,2045.0,2053.0,5.0,2.0,
2069.0,2049.0,2072.0,2050.0,5.0,2.0,
2027.0,2068.0,2017.0,2040.0,5.0,1.0,
1985.0,2081.0,1988.0,2057.0,5.0,1.0,
1982.0,2121.0,2033.0,2026.0,5.0,1.0,
2012.0,2089.0,2014.0,2022.0,5.0,1.0,
2060.0,2051.0,2008.0,2052.0,5.0,1.0,
2092.0,2033.0,2008.0,2057.0,5.0,0.0,
2088.0,2043.0,2012.0,2039.0,5.0,0.0,
2060.0,2103.0,2105.0,2050.0,5.0,0.0,
2014.0,2106.0,2055.0,2044.0,4.0,0.0,
1980.0,2005.0,2006.0,2029.0,4.0,0.0,
1986.0,2059.0,1991.0,1985.0,4.0,-1.0,
2025.0,2062.0,2024.0,2011.0,4.0,-1.0,
2069.0,1983.0,1973.0,2045.0,4.0,-1.0,
2095.0,2046.0,1959.0,2027.0,4.0,-1.0,
2086.0,2074.0,2066.0,2056.0,4.0,-2.0,
2045.0,2042.0,2055.0,2073.0,5.0,-2.0,
2000.0,2069.0,2075.0,2081.0,5.0,-2.0,
1977.0,2147.0,2098.0,2023.0,5.0,-2.0,
1993.0,2075.0,2099.0,2011.0,4.0,-2.0,
2038.0,1936.0,2013.0,2028.0,5.0,-2.0,
2085.0,2023.0,1988.0,2079.0,5.0,-2.0,
2095.0,2040.0,1953.0,2049.0,5.0,-2.0,
2075.0,2033.0,1996.0,2008.0,5.0,-2.0,
2029.0,2050.0,2032.0,2024.0,5.0,-2.0,
1989.0,2072.0,2105.0,2020.0,5.0,-2.0,
1980.0,2096.0,2067.0,2016.0,5.0,-2.0,
2006.0,2084.0,2089.0,1998.0,5.0,-1.0,
2053.0,2104.0,2076.0,2047.0,5.0,-1.0,
2090.0,2122.0,2073.0,2067.0,5.0,-1.0,
2091.0,2081.0,2061.0,2061.0,5.0,-1.0,
2064.0,2115.0,2064.0,2025.0,5.0,0.0,
2013.0,2095.0,2005.0,2009.0,5.0,0.0,
1991.0,2047.0,1965.0,2028.0,5.0,0.0,
1986.0,2062.0,2002.0,2045.0,5.0,1.0,
2020.0,2056.0,2048.0,2045.0,5.0,1.0,
2064.0,2060.0,2064.0,2049.0,5.0,1.0,
2096.0,2053.0,2040.0,2030.0,5.0,1.0,
2086.0,2069.0,2020.0,2008.0,4.0,1.0,
2056.0,2092.0,1978.0,2023.0,5.0,1.0,
2004.0,2054.0,2062.0,2052.0,5.0,1.0,
1981.0,2039.0,2061.0,2061.0,5.0,1.0,
1997.0,2055.0,2044.0,2060.0,5.0,1.0,
2034.0,2074.0,2051.0,2055.0,5.0,1.0,
2075.0,2047.0,2034.0,1965.0,5.0,1.0,
2106.0,2057.0,2016.0,2032.0,5.0,1.0,
2078.0,2060.0,2010.0,2062.0,5.0,0.0,
2036.0,2042.0,2024.0,2072.0,5.0,0.0,
1991.0,2128.0,2021.0,2027.0,5.0,-1.0,
1978.0,2172.0,1993.0,1965.0,5.0,-1.0,
2004.0,2107.0,2061.0,2037.0,5.0,-2.0,
2054.0,2120.0,2040.0,2084.0,5.0,-3.0,
2089.0,2014.0,2049.0,1997.0,5.0,-3.0,
2096.0,1910.0,2083.0,2030.0,5.0,-4.0,
2064.0,2000.0,2036.0,2061.0,5.0,-4.0,
2016.0,2049.0,1988.0,2043.0,5.0,-5.0,
1980.0,2049.0,1980.0,2025.0,5.0,-6.0,
1987.0,2096.0,1981.0,2039.0,5.0,-6.0,
2017.0,2186.0,2106.0,2026.0,5.0,-7.0,
2063.0,2165.0,2144.0,2074.0,5.0,-7.0,
2093.0,1930.0,1917.0,2040.0,5.0,-7.0,
2086.0,2034.0,2106.0,2013.0,5.0,-7.0,
2052.0,2020.0,2033.0,1976.0,5.0,-8.0,
2007.0,2080.0,1990.0,2045.0,5.0,-8.0,
1984.0,2082.0,2045.0,2091.0,5.0,-9.0,
1990.0,2014.0,2003.0,2105.0,5.0,-9.0,
2031.0,2062.0,2072.0,2033.0,5.0,-9.0,
2075.0,2042.0,2075.0,1997.0,5.0,-9.0,
2097.0,2068.0,2088.0,2044.0,5.0,-9.0,
2091.0,2046.0,2008.0,2025.0,5.0,-9.0,
2041.0,2069.0,2035.0,2046.0,5.0,-9.0,
1997.0,2085.0,1984.0,2037.0,5.0,-9.0,
1982.0,2049.0,2023.0,2033.0,5.0,-9.0,
2000.0,2107.0,2083.0,2027.0,5.0,-8.0,
2047.0,2104.0,2093.0,2046.0,5.0,-8.0,
2096.0,2108.0,2000.0,2025.0,5.0,-8.0,
2096.0,2055.0,2050.0,2035.0,5.0,-7.0,
2076.0,2061.0,2032.0,2039.0,5.0,-7.0,
2024.0,2069.0,2007.0,2036.0,5.0,-7.0,
1989.0,2092.0,1991.0,2029.0,5.0,-7.0,
1983.0,2092.0,2016.0,2037.0,5.0,-7.0,
2015.0,2092.0,2057.0,2054.0,5.0,-7.0,
2059.0,2109.0,2019.0,2037.0,5.0,-7.0,
2094.0,2080.0,2029.0,2026.0,6.0,-7.0,
2093.0,2003.0,2013.0,2034.0,6.0,-7.0,
2053.0,2037.0,2096.0,2026.0,6.0,-7.0,
2005.0,2072.0,2051.0,2031.0,5.0,-7.0,
1984.0,2070.0,2042.0,2025.0,6.0,-7.0,
1984.0,2024.0,2040.0,2029.0,6.0,-7.0,
2025.0,2071.0,2012.0,2020.0,6.0,-7.0,
2071.0,2094.0,2028.0,2037.0,6.0,-8.0,
2093.0,2094.0,1986.0,2045.0,6.0,-8.0,
2080.0,2052.0,2015.0,2067.0,6.0,-9.0,
2042.0,2022.0,2036.0,2036.0,6.0,-10.0,
2000.0,2035.0,2036.0,2064.0,6.0,-11.0,
1978.0,2073.0,1975.0,2070.0,6.0,-12.0,
1996.0,2077.0,1992.0,2059.0,6.0,-13.0,
2038.0,2099.0,2064.0,1937.0,6.0,-14.0,
2081.0,2063.0,2097.0,2002.0,6.0,-15.0,
2097.0,1998.0,1989.0,2021.0,6.0,-16.0,
2069.0,2025.0,2036.0,2040.0,0,-17.0,
2026.0,2048.0,2051.0,2046.0,6.0,-18.0,
1986.0,2062.0,2048.0,2080.0,6.0,-18.0,
1981.0,2127.0,2059.0,2050.0,6.0,-19.0,
2009.0,2082.0,2127.0,2031.0,0,-20.0,
2059.0,2028.0,2046.0,2059.0,6.0,-20.0,
2094.0,1990.0,2038.0,2007.0,6.0,-21.0,
2092.0,2048.0,2009.0,2028.0,6.0,0,
2060.0,2105.0,1986.0,2005.0,6.0,-22.0,
2009.0,2031.0,1973.0,2051.0,6.0,-22.0,
1980.0,2095.0,2004.0,2044.0,7.0,-22.0,
1992.0,2149.0,2048.0,2032.0,7.0,-23.0,
2024.0,2037.0,2044.0,2022.0,7.0,-23.0,
2071.0,2126.0,2208.0,2023.0,7.0,-23.0,
2100.0,2026.0,2136.0,2083.0,7.0,-23.0,
2087.0,2025.0,2005.0,2043.0,7.0,-23.0,
2045.0,2055.0,2032.0,2025.0,7.0,-23.0,
2004.0,2091.0,2105.0,2049.0,7.0,-23.0,
1982.0,2002.0,1983.0,2005.0,7.0,-23.0,
1996.0,2062.0,1992.0,2049.0,7.0,-23.0,
2032.0,2077.0,1963.0,2037.0,7.0,-23.0,
2075.0,2102.0,1972.0,2026.0,7.0,-23.0,
2095.0,2034.0,2016.0,2038.0,7.0,0,
2076.0,2155.0,2063.0,2079.0,7.0,-22.0,
2038.0,2123.0,2175.0,2050.0,7.0,-22.0,
1992.0,1997.0,2017.0,2014.0,7.0,-22.0,
1982.0,2046.0,2037.0,2030.0,7.0,-22.0,
2004.0,2039.0,2014.0,2036.0,7.0,-22.0,
2046.0,2089.0,2018.0,2039.0,7.0,-21.0,
2086.0,2109.0,1988.0,2022.0,7.0,-21.0,
2097.0,2116.0,2030.0,1980.0,7.0,-21.0,
2068.0,2088.0,1979.0,2024.0,7.0,-22.0,
2021.0,2105.0,2036.0,2052.0,7.0,-22.0,
1985.0,2037.0,2079.0,2058.0,7.0,-22.0,
1980.0,2050.0,2028.0,2045.0,7.0,-22.0,
2015.0,2058.0,2000.0,2037.0,7.0,-22.0,
2063.0,2060.0,2024.0,2082.0,7.0,-23.0,
2097.0,2080.0,2056.0,2086.0,7.0,-23.0,
2091.0,2027.0,2031.0,2016.0,7.0,-23.0,
2051.0,2007.0,2028.0,2036.0,7.0,-24.0,
2006.0,2049.0,2074.0,2013.0,8.0,-25.0,
1982.0,2054.0,2022.0,2056.0,8.0,-25.0,
1994.0,2150.0,1971.0,2037.0,8.0,-26.0,
2033.0,2101.0,2030.0,2040.0,8.0,-26.0,
2076.0,2004.0,1980.0,2027.0,8.0,-27.0,
2096.0,2040.0,2027.0,2063.0,8.0,-28.0,
2080.0,2056.0,2092.0,2012.0,8.0,-28.0,
2038.0,2044.0,2066.0,2026.0,8.0,-29.0,
1997.0,2047.0,2070.0,2057.0,8.0,-29.0,
1984.0,2143.0,2108.0,2038.0,8.0,-30.0,
2003.0,2104.0,2040.0,1977.0,8.0,-30.0,
2045.0,2104.0,2040.0,2036.0,8.0,-31.0,
2087.0,2058.0,2035.0,2060.0,8.0,-31.0,
2092.0,2136.0,2018.0,2058.0,8.0,-31.0,
2062.0,2022.0,2067.0,2049.0,8.0,-32.0,
2017.0,2009.0,1953.0,2013.0,8.0,-32.0,
1979.0,2027.0,2022.0,2038.0,9.0,-32.0,
1987.0,2099.0,2110.0,2032.0,9.0,-32.0,
2025.0,2076.0,2089.0,2034.0,9.0,-32.0,
2072.0,2068.0,1987.0,2040.0,9.0,-32.0,
2094.0,2039.0,2001.0,2020.0,9.0,-32.0,
2082.0,2073.0,2006.0,2052.0,9.0,-32.0,
2040.0,2037.0,2044.0,2038.0,9.0,-32.0,
1994.0,2061.0,2060.0,2043.0,9.0,-32.0,
1981.0,2084.0,2013.0,2005.0,9.0,-32.0,
2009.0,2109.0,2054.0,2044.0,9.0,-32.0,
2053.0,2068.0,2044.0,2037.0,9.0,-32.0,
2089.0,2070.0,2075.0,2039.0,9.0,-32.0,
2094.0,1983.0,2013.0,2011.0,9.0,-32.0,
2059.0,2027.0,2022.0,2047.0,9.0,-32.0,
2010.0,2115.0,2003.0,2048.0,9.0,-32.0,
1983.0,2064.0,2025.0,2055.0,9.0,-32.0,
1986.0,2059.0,2045.0,2040.0,9.0,-32.0,
2026.0,2021.0,2055.0,2029.0,9.0,-32.0,
2079.0,2092.0,2002.0,2010.0,9.0,-33.0,
2097.0,2103.0,2032.0,2032.0,9.0,0,
2084.0,2094.0,2059.0,2047.0,9.0,-33.0,
2035.0,2061.0,1978.0,2042.0,9.0,-33.0,
1998.0,2100.0,1992.0,1988.0,9.0,-33.0,
1981.0,2069.0,2057.0,2046.0,9.0,-34.0,
2005.0,2063.0,2057.0,2097.0,9.0,-34.0,
2054.0,2174.0,2125.0,2057.0,9.0,-34.0,
2089.0,2015.0,2068.0,2032.0,9.0,-35.0,
2091.0,2012.0,1961.0,2017.0,9.0,-35.0,
2060.0,1989.0,1963.0,2043.0,9.0,-36.0,
2012.0,2034.0,2034.0,2025.0,9.0,-36.0,
1977.0,2081.0,2039.0,2010.0,9.0,-37.0,
1992.0,2064.0,2030.0,2055.0,9.0,-37.0,
2031.0,2152.0,2060.0,2066.0,9.0,-38.0,
2073.0,2059.0,2036.0,2024.0,10.0,-38.0,
2093.0,2043.0,2053.0,2014.0,10.0,-38.0,
2085.0,2089.0,2058.0,2029.0,10.0,-39.0,
2035.0,2059.0,2072.0,2030.0,10.0,-39.0,
1989.0,2071.0,1980.0,2040.0,10.0,-39.0,
1979.0,2102.0,2025.0,2051.0,10.0,-40.0,
2004.0,2034.0,2011.0,2050.0,10.0,-40.0,
2058.0,2030.0,2036.0,2039.0,10.0,-40.0,
2095.0,2001.0,2017.0,2028.0,10.0,-40.0,
2088.0,2040.0,2021.0,2033.0,10.0,-40.0,
2055.0,2036.0,2052.0,2037.0,10.0,-40.0,
2011.0,2212.0,2085.0,2037.0,10.0,-40.0,
1985.0,2020.0,2015.0,2023.0,10.0,-40.0,
1991.0,2089.0,2079.0,2042.0,10.0,-40.0,
2037.0,2092.0,1988.0,2093.0,10.0,-40.0,
2090.0,2124.0,2024.0,2000.0,10.0,-40.0,
2096.0,2077.0,1946.0,2038.0,10.0,-40.0,
2075.0,2073.0,1951.0,2034.0,10.0,-40.0,
2030.0,1982.0,2054.0,2049.0,10.0,-40.0,
1986.0,2029.0,2082.0,2059.0,10.0,-40.0,
1983.0,2024.0,2037.0,2030.0,10.0,-40.0,
2008.0,2038.0,2038.0,2032.0,10.0,-40.0,
2057.0,2086.0,2042.0,2001.0,10.0,-40.0,
2093.0,2057.0,2031.0,2023.0,10.0,-40.0,
2090.0,2089.0,2055.0,2085.0,10.0,-40.0,
2049.0,2056.0,2025.0,2079.0,10.0,-40.0,
2006.0,2087.0,2088.0,2028.0,11.0,-40.0,
1982.0,2075.0,2039.0,2013.0,11.0,-41.0,
1995.0,2098.0,2021.0,2021.0,11.0,-41.0,
2033.0,2137.0,2026.0,2001.0,11.0,-41.0,
2078.0,2181.0,2110.0,1995.0,11.0,-42.0,
2097.0,1975.0,1915.0,2068.0,11.0,-42.0,
2073.0,1953.0,1941.0,2078.0,11.0,-43.0,
2029.0,2082.0,2018.0,2051.0,11.0,-43.0,
1986.0,2041.0,2008.0,2008.0,11.0,-44.0,
1983.0,2055.0,2034.0,2026.0,11.0,-44.0,
2008.0,2061.0,2011.0,2049.0,11.0,-44.0,
2066.0,2035.0,2044.0,2042.0,11.0,-45.0,
2093.0,2178.0,2109.0,2019.0,11.0,-45.0,
2089.0,1992.0,2064.0,2064.0,11.0,-46.0,
2052.0,2043.0,1914.0,2050.0,11.0,-46.0,
2004.0,2008.0,2100.0,2046.0,11.0,-46.0,
1979.0,2214.0,2153.0,2061.0,11.0,-47.0,
1993.0,2010.0,2027.0,2012.0,11.0,-47.0,
2035.0,2004.0,2073.0,2039.0,11.0,-47.0,
2078.0,2041.0,1995.0,2030.0,11.0,-48.0,
2099.0,2083.0,1951.0,2045.0,11.0,-48.0,
2074.0,2128.0,2120.0,2003.0,11.0,-48.0,
2027.0,2118.0,2111.0,2000.0,11.0,-48.0,
1987.0,2058.0,1950.0,2053.0,10.0,-48.0,
1981.0,2101.0,2023.0,2049.0,11.0,-49.0,
2011.0,2200.0,2078.0,2048.0,10.0,-49.0,
2061.0,1949.0,2027.0,2029.0,11.0,-49.0,
2093.0,1966.0,2012.0,2024.0,11.0,-49.0,
2090.0,2011.0,2059.0,2021.0,0,0,
2056.0,2033.0,2066.0,2035.0,11.0,-49.0,
2008.0,2031.0,2028.0,2056.0,11.0,-49.0,
1979.0,2067.0,2031.0,2066.0,11.0,-49.0,
1992.0,2135.0,2043.0,2016.0,11.0,-49.0,
2032.0,2096.0,1994.0,1987.0,11.0,-49.0,
2084.0,2052.0,2054.0,2047.0,11.0,-49.0,
2093.0,2084.0,2065.0,2052.0,11.0,-49.0,
2072.0,2140.0,2095.0,2063.0,11.0,-49.0,
2022.0,2066.0,2064.0,1989.0,11.0,-49.0,
1992.0,2028.0,2020.0,2022.0,11.0,-49.0,
1978.0,2055.0,2015.0,2017.0,11.0,-49.0,
2007.0,2111.0,2008.0,2042.0,11.0,-50.0,
2057.0,2085.0,2054.0,2042.0,11.0,-50.0,
2093.0,2068.0,2059.0,2024.0,11.0,-50.0,
2093.0,1980.0,2071.0,2021.0,11.0,-51.0,
2053.0,2047.0,2017.0,2075.0,11.0,-51.0,
2004.0,2098.0,2050.0,2034.0,11.0,-51.0,
1980.0,2094.0,2061.0,2021.0,11.0,-52.0,
1995.0,2061.0,2031.0,2072.0,11.0,-52.0,
2036.0,2059.0,2002.0,2062.0,12.0,-52.0,
2079.0,2038.0,2022.0,2040.0,12.0,-53.0,
2096.0,2109.0,2096.0,2011.0,12.0,-53.0,
2090.0,2035.0,1947.0,2049.0,12.0,-54.0,
2029.0,2039.0,2066.0,2056.0,12.0,-54.0,
1982.0,2090.0,2062.0,2050.0,12.0,-55.0,
1982.0,2065.0,2043.0,2039.0,12.0,-55.0,
2014.0,2016.0,2025.0,2000.0,12.0,-56.0,
2063.0,2033.0,2067.0,2056.0,12.0,-56.0,
2094.0,2011.0,1959.0,2005.0,12.0,-56.0,
2090.0,2095.0,2158.0,2039.0,12.0,-56.0,
2050.0,1988.0,1964.0,2024.0,12.0,-57.0,
2004.0,2116.0,2111.0,2058.0,12.0,-57.0,
1979.0,2114.0,2027.0,2028.0,0,0,
1993.0,2123.0,2076.0,2022.0,12.0,-57.0,
2037.0,2169.0,2051.0,2071.0,12.0,-57.0,
2077.0,1996.0,1994.0,2031.0,12.0,-57.0,
2097.0,2136.0,2083.0,2022.0,12.0,-57.0,
2071.0,1959.0,1987.0,2049.0,12.0,-57.0,
2026.0,2174.0,2081.0,2036.0,12.0,-57.0,
1983.0,2063.0,1949.0,1987.0,12.0,-57.0,
1983.0,2008.0,1968.0,2022.0,12.0,-57.0,
2013.0,2111.0,1997.0,2038.0,12.0,-57.0,
2062.0,2018.0,1999.0,2029.0,12.0,-57.0,
2095.0,2107.0,2013.0,2019.0,12.0,-57.0,
2090.0,2087.0,2021.0,2050.0,12.0,-57.0,
2051.0,2174.0,2092.0,2033.0,12.0,-57.0,
2000.0,1979.0,1974.0,2018.0,12.0,-56.0,
1978.0,2004.0,2018.0,2043.0,13.0,-56.0,
1991.0,1974.0,2046.0,2038.0,13.0,-56.0,
2040.0,2152.0,2096.0,2051.0,13.0,-56.0,
2085.0,2214.0,2062.0,2096.0,13.0,-56.0,
2094.0,1998.0,1980.0,2096.0,13.0,-56.0,
2070.0,2049.0,1926.0,2022.0,13.0,-56.0,
2026.0,2001.0,2012.0,1944.0,13.0,-56.0,
1986.0,1990.0,2051.0,1985.0,13.0,-56.0,
1985.0,2098.0,1966.0,1982.0,13.0,-56.0,
2017.0,2110.0,2047.0,2019.0,13.0,-56.0,
2062.0,2104.0,2003.0,2119.0,13.0,-57.0,
2099.0,2076.0,2005.0,2082.0,13.0,-57.0,
2088.0,2038.0,2127.0,2049.0,13.0,-57.0,
2048.0,2055.0,2080.0,1998.0,13.0,-57.0,
1999.0,1972.0,1986.0,2053.0,13.0,-57.0,
1978.0,2053.0,2100.0,2076.0,13.0,-57.0,
1998.0,2140.0,2130.0,2024.0,13.0,-58.0,
2037.0,2115.0,2086.0,2040.0,13.0,-58.0,
2081.0,2057.0,2048.0,2067.0,13.0,-58.0,
2101.0,2083.0,2029.0,2039.0,13.0,-58.0,
2073.0,2055.0,2010.0,1999.0,13.0,-59.0,
2017.0,2060.0,2026.0,2014.0,13.0,-59.0,
1983.0,2056.0,2110.0,2024.0,13.0,-59.0,
1981.0,2030.0,2110.0,2077.0,0,0,
2018.0,2093.0,1971.0,2066.0,13.0,-60.0,
2064.0,2135.0,1904.0,2001.0,14.0,-60.0,
2097.0,2202.0,2062.0,2019.0,13.0,-60.0,
2085.0,2030.0,2014.0,2026.0,14.0,-61.0,
2047.0,1933.0,2067.0,2007.0,14.0,-61.0,
1997.0,2138.0,2077.0,2040.0,14.0,-61.0,
1978.0,2037.0,2064.0,2036.0,14.0,-62.0,
1996.0,2054.0,2084.0,2037.0,14.0,-62.0,
2055.0,2054.0,1969.0,2080.0,0,0,
2090.0,2135.0,2082.0,2094.0,14.0,-62.0,
2095.0,2208.0,2050.0,1963.0,14.0,-62.0,
2067.0,2040.0,1989.0,1989.0,14.0,-62.0,
2017.0,1892.0,1989.0,2042.0,14.0,-62.0,
1987.0,2036.0,1996.0,2014.0,14.0,-62.0,
1986.0,1977.0,2020.0,2074.0,14.0,-62.0,
2020.0,2022.0,2102.0,2103.0,14.0,-63.0,
2067.0,2138.0,2005.0,2078.0,14.0,-63.0,
2096.0,2075.0,1994.0,1994.0,14.0,-63.0,
2084.0,1988.0,1912.0,2002.0,14.0,-63.0,
2037.0,2071.0,2034.0,2003.0,14.0,-63.0,
1995.0,2118.0,2150.0,2073.0,14.0,-63.0,
2000.0,2036.0,1964.0,2054.0,14.0,-63.0,
2000.0,2080.0,2090.0,2065.0,14.0,-63.0,
2047.0,2159.0,1963.0,2020.0,14.0,-63.0,
2089.0,2071.0,2005.0,2048.0,14.0,-63.0,
2101.0,2061.0,2099.0,2034.0,14.0,-63.0,
2061.0,2059.0,2077.0,2010.0,14.0,-63.0,
2013.0,2114.0,2013.0,2001.0,14.0,-63.0,
1979.0,2021.0,2070.0,2060.0,15.0,-63.0,
1987.0,2075.0,2040.0,2097.0,15.0,-64.0,
2025.0,2158.0,2037.0,2055.0,15.0,-64.0,
2068.0,1999.0,2054.0,2004.0,0,0,
2096.0,2068.0,2036.0,2022.0,15.0,-64.0,
2082.0,2154.0,1977.0,2056.0,15.0,-64.0,
2037.0,2021.0,2030.0,2063.0,15.0,-64.0,
1989.0,1911.0,2058.0,2026.0,15.0,-64.0,
1979.0,2191.0,2193.0,2018.0,15.0,-65.0,
2003.0,2007.0,1985.0,2022.0,15.0,-65.0,
2054.0,2142.0,1951.0,2014.0,15.0,-65.0,
2090.0,2046.0,2059.0,2101.0,15.0,-65.0,
2092.0,2012.0,2051.0,2029.0,15.0,-65.0,
2058.0,1999.0,1970.0,2049.0,15.0,-66.0,
2019.0,2073.0,2056.0,2045.0,15.0,-66.0,
1983.0,2039.0,2057.0,2038.0,15.0,-66.0,
1990.0,2288.0,2147.0,2027.0,15.0,-66.0,
2031.0,2100.0,2083.0,2036.0,15.0,-66.0,
2077.0,1912.0,1791.0,1977.0,15.0,-66.0,
2100.0,1944.0,2101.0,2055.0,15.0,-66.0,
2077.0,2066.0,2105.0,2047.0,15.0,-66.0,
2032.0,2113.0,1996.0,2029.0,15.0,-67.0,
1992.0,2381.0,2057.0,2060.0,15.0,-67.0,
1983.0,2236.0,2154.0,2097.0,15.0,-67.0,
2006.0,2015.0,2061.0,2006.0,16.0,-67.0,
2057.0,1722.0,1990.0,1954.0,15.0,-67.0,
2096.0,2003.0,2087.0,2030.0,16.0,-67.0,
2094.0,1981.0,2003.0,2081.0,16.0,-67.0,
2055.0,2056.0,1980.0,2051.0,16.0,-67.0,
2008.0,2134.0,2086.0,2048.0,16.0,-67.0,
1981.0,2294.0,1957.0,2070.0,16.0,-67.0,
1998.0,2006.0,1913.0,2005.0,16.0,-67.0,
2032.0,2125.0,2146.0,1992.0,16.0,-67.0,
2081.0,1995.0,1988.0,2046.0,16.0,-67.0,
2097.0,2020.0,2034.0,2035.0,16.0,-67.0,
2080.0,2026.0,2073.0,1995.0,15.0,-67.0,
2032.0,2124.0,1980.0,2042.0,15.0,-67.0,
1986.0,2386.0,2111.0,2075.0,15.0,-67.0,
1981.0,2007.0,1954.0,2072.0,15.0,-67.0,
2013.0,1841.0,2121.0,2025.0,15.0,-67.0,
2062.0,1952.0,2022.0,2076.0,15.0,0,
2088.0,1998.0,2030.0,2060.0,15.0,-68.0,
2087.0,2042.0,2005.0,2042.0,15.0,-68.0,
2050.0,2130.0,2144.0,1979.0,16.0,-68.0,
2005.0,2160.0,2019.0,2043.0,16.0,-68.0,
1982.0,2089.0,2033.0,2010.0,16.0,-68.0,
1996.0,1977.0,2116.0,2021.0,16.0,-68.0,
2038.0,2070.0,1994.0,2053.0,16.0,-68.0,
2088.0,2127.0,2022.0,2031.0,16.0,-69.0,
2097.0,2063.0,2059.0,2018.0,16.0,-69.0,
2069.0,2179.0,2031.0,2040.0,16.0,-69.0,
2022.0,2092.0,2123.0,2087.0,16.0,-69.0,
1988.0,2034.0,1937.0,2064.0,16.0,-70.0,
1986.0,1945.0,2058.0,2019.0,16.0,-70.0,
2016.0,2001.0,1999.0,2027.0,16.0,-70.0,
2063.0,2072.0,1960.0,2045.0,16.0,-70.0,
2094.0,2043.0,2031.0,2042.0,16.0,-70.0,
2088.0,2353.0,2112.0,2048.0,16.0,-71.0,
2048.0,1911.0,1996.0,1989.0,16.0,-71.0,
2000.0,1963.0,2076.0,2074.0,16.0,-71.0,
1980.0,2076.0,2094.0,2028.0,16.0,-71.0,
2001.0,2028.0,2028.0,2032.0,16.0,-71.0,
2048.0,2152.0,2080.0,2021.0,16.0,-71.0,
2085.0,2148.0,2012.0,2073.0,16.0,-71.0,
2098.0,2171.0,2160.0,2016.0,16.0,-71.0,
2068.0,1949.0,1897.0,2063.0,16.0,-71.0,
2021.0,1975.0,2014.0,2040.0,16.0,-71.0,
1983.0,2044.0,2002.0,2024.0,16.0,-71.0,
1971.0,2120.0,2047.0,2016.0,16.0,-71.0,
2028.0,2085.0,1957.0,2027.0,16.0,-71.0,
2069.0,1961.0,2006.0,2055.0,16.0,-71.0,
2096.0,2137.0,2081.0,2043.0,16.0,-71.0,
2083.0,2298.0,2191.0,2103.0,16.0,-71.0,
2043.0,1959.0,1841.0,1950.0,16.0,-70.0,
1997.0,1992.0,2064.0,2018.0,16.0,-70.0,
1982.0,2017.0,2011.0,2014.0,16.0,-70.0,
2002.0,2033.0,2026.0,2018.0,16.0,-70.0,
2048.0,2050.0,2097.0,2068.0,16.0,-70.0,
2092.0,2285.0,2091.0,2071.0,16.0,-70.0,
2096.0,2132.0,1772.0,2010.0,16.0,-70.0,
2063.0,1914.0,2049.0,2039.0,16.0,-70.0,
2014.0,2017.0,2070.0,2036.0,16.0,-70.0,
1983.0,1998.0,2096.0,1988.0,16.0,-70.0,
1989.0,2085.0,2128.0,2023.0,16.0,-70.0,
2026.0,2102.0,1982.0,2045.0,16.0,-70.0,
2070.0,2008.0,2037.0,2062.0,16.0,-70.0,
2101.0,2266.0,2122.0,2068.0,16.0,-70.0,
2082.0,2100.0,2165.0,2099.0,16.0,-70.0,
2036.0,2118.0,2011.0,2047.0,16.0,-70.0,
1996.0,1918.0,1954.0,2017.0,16.0,-70.0,
1988.0,2037.0,1997.0,2018.0,16.0,-70.0,
2006.0,2063.0,2045.0,2034.0,16.0,-70.0,
2053.0,2080.0,2073.0,2046.0,16.0,-70.0,
2091.0,2142.0,2181.0,2032.0,16.0,-70.0,
2092.0,2047.0,2061.0,2052.0,16.0,-71.0,
2062.0,2087.0,2090.0,2041.0,16.0,-71.0,
2010.0,2055.0,2102.0,2032.0,16.0,-71.0,
1981.0,2091.0,2017.0,2034.0,16.0,-71.0,
1991.0,2082.0,2061.0,2077.0,16.0,-71.0,
2032.0,2272.0,2200.0,2063.0,16.0,-71.0,
2078.0,2246.0,2023.0,1966.0,16.0,-71.0,
2095.0,1918.0,1855.0,2019.0,0,0,
2078.0,1957.0,2076.0,2040.0,16.0,-71.0,
2038.0,1888.0,2018.0,1998.0,16.0,-71.0,
1993.0,2120.0,2090.0,2041.0,16.0,-71.0,
1979.0,2100.0,2060.0,2043.0,17.0,-71.0,
2007.0,2061.0,1954.0,2033.0,17.0,-71.0,
2064.0,2131.0,2148.0,2092.0,17.0,-70.0,
2098.0,2076.0,1831.0,2013.0,17.0,-70.0,
2093.0,2038.0,2061.0,2023.0,17.0,-70.0,
2059.0,2214.0,2014.0,2096.0,17.0,-70.0,
2004.0,1910.0,2001.0,2045.0,17.0,-70.0,
1983.0,2053.0,2104.0,2003.0,17.0,-70.0,
1991.0,2065.0,2145.0,1999.0,17.0,-70.0,
2033.0,2057.0,1950.0,2023.0,17.0,-69.0,
2081.0,2213.0,2028.0,2069.0,17.0,-69.0,
2099.0,1956.0,2073.0,2053.0,17.0,-69.0,
2071.0,2199.0,2060.0,2045.0,17.0,-69.0,
2027.0,2467.0,2030.0,1988.0,17.0,-69.0,
1983.0,1676.0,1912.0,1962.0,17.0,-69.0,
1983.0,1888.0,2060.0,2074.0,17.0,-69.0,
2021.0,1976.0,2113.0,2033.0,17.0,-68.0,
2059.0,2050.0,1984.0,2048.0,17.0,-68.0,
2093.0,2120.0,1995.0,2038.0,17.0,-68.0,
2099.0,2143.0,2028.0,2003.0,17.0,-68.0,
2053.0,2267.0,2038.0,2009.0,17.0,-68.0,
2001.0,2038.0,2055.0,2067.0,17.0,-68.0,
1976.0,1962.0,2123.0,2095.0,17.0,-68.0,
1994.0,2002.0,2069.0,2010.0,17.0,-69.0,
2038.0,2171.0,2191.0,2051.0,17.0,-69.0,
2084.0,2096.0,1948.0,2041.0,17.0,-69.0,
2092.0,2047.0,2157.0,2058.0,17.0,-69.0,
2068.0,2062.0,2049.0,1993.0,17.0,-69.0,
2024.0,2138.0,2055.0,2030.0,17.0,-69.0,
1985.0,2038.0,2030.0,2078.0,17.0,-69.0,
1982.0,2045.0,2081.0,2090.0,17.0,-70.0,
2015.0,2018.0,2013.0,2038.0,17.0,-70.0,
2066.0,2210.0,1925.0,2028.0,17.0,-70.0,
2096.0,2016.0,1801.0,2040.0,17.0,-70.0,
2086.0,2016.0,2046.0,2061.0,17.0,-70.0,
2046.0,2019.0,2121.0,2034.0,0,0,
2005.0,1993.0,2042.0,1990.0,17.0,-70.0,
1984.0,2077.0,2037.0,2013.0,17.0,-71.0,
1998.0,2098.0,2061.0,2066.0,17.0,-71.0,
2045.0,2214.0,2140.0,2017.0,17.0,-71.0,
2088.0,1994.0,1948.0,1974.0,0,0,
2097.0,2029.0,2000.0,2038.0,17.0,-71.0,
2062.0,2186.0,2050.0,2058.0,17.0,-71.0,
2018.0,2105.0,2035.0,2076.0,17.0,-71.0,
1983.0,1927.0,1998.0,2011.0,17.0,-71.0,
1984.0,2180.0,2105.0,2052.0,17.0,-71.0,
2022.0,1971.0,1914.0,2018.0,17.0,-71.0,
2066.0,1980.0,2048.0,2028.0,17.0,-71.0,
2094.0,2101.0,2094.0,2047.0,17.0,-71.0,
2083.0,2053.0,2049.0,2028.0,17.0,-71.0,
2041.0,2092.0,1985.0,2035.0,17.0,-71.0,
1996.0,2035.0,2040.0,2047.0,17.0,-71.0,
1982.0,2112.0,1984.0,2054.0,17.0,-71.0,
2003.0,2168.0,2107.0,2020.0,17.0,-70.0,
2056.0,2332.0,2079.0,2058.0,17.0,-70.0,
2089.0,1804.0,2052.0,2037.0,17.0,-70.0,
2094.0,2052.0,2136.0,2058.0,17.0,-70.0,
2073.0,2054.0,2042.0,2027.0,17.0,-70.0,
2015.0,2090.0,2090.0,2085.0,17.0,-70.0,
1981.0,1931.0,1963.0,1977.0,17.0,-70.0,
1986.0,2052.0,2069.0,1959.0,17.0,-70.0,
2028.0,2207.0,2148.0,1957.0,17.0,-70.0,
2076.0,2245.0,1893.0,2047.0,17.0,-70.0,
2099.0,1771.0,1763.0,2156.0,17.0,-70.0,
2080.0,1988.0,2085.0,2045.0,17.0,-70.0,
2035.0,2036.0,2053.0,2046.0,17.0,-70.0,
1997.0,2043.0,2216.0,2063.0,17.0,-70.0,
1980.0,2089.0,2133.0,2050.0,17.0,0,
2004.0,2144.0,2105.0,2058.0,17.0,-70.0,
2054.0,2109.0,1980.0,2013.0,17.0,-70.0,
2094.0,2016.0,2076.0,2025.0,17.0,-70.0,
2094.0,2021.0,2065.0,2057.0,17.0,-70.0,
2059.0,2064.0,2006.0,2035.0,17.0,-70.0,
2007.0,1975.0,2015.0,2010.0,17.0,-70.0,
1985.0,2126.0,2003.0,1995.0,17.0,-70.0,
1990.0,2155.0,2038.0,2016.0,17.0,-70.0,
2030.0,2132.0,2017.0,2062.0,17.0,-70.0,
2075.0,2011.0,1987.0,2131.0,17.0,-71.0,
2094.0,2064.0,2030.0,1998.0,17.0,-71.0,
2075.0,2096.0,2054.0,1986.0,17.0,-71.0,
