2025.0,2004.0,2051.0,2037.0,0.0,0.0,
2018.0,2005.0,2055.0,2040.0,0.0,0.0,
2018.0,2005.0,2051.0,2040.0,0.0,0,
2020.0,2012.0,2053.0,2037.0,0.0,0.0,
2014.0,2022.0,2051.0,2038.0,0.0,0.0,
2029.0,2020.0,2060.0,2035.0,0.0,0.0,
2043.0,1986.0,2056.0,2042.0,0.0,0.0,
2040.0,2001.0,2054.0,2037.0,0.0,0.0,
2027.0,2010.0,2053.0,2003.0,0.0,0.0,
2036.0,2044.0,2052.0,1998.0,0.0,0.0,
2017.0,2042.0,2050.0,2010.0,0.0,0.0,
2039.0,2028.0,2055.0,2045.0,0.0,0.0,
2039.0,1974.0,2056.0,2074.0,0.0,0.0,
2032.0,1999.0,2054.0,2086.0,0.0,0.0,
2036.0,1995.0,2053.0,2068.0,0.0,0.0,
2021.0,1990.0,2052.0,2071.0,0.0,0.0,
2028.0,2005.0,2053.0,2088.0,0.0,0.0,
2024.0,1996.0,2051.0,2052.0,0.0,0.0,
2027.0,2009.0,2052.0,2009.0,0.0,0.0,
2023.0,2019.0,2049.0,1991.0,0.0,0.0,
2035.0,2013.0,2053.0,2027.0,0.0,0.0,
2041.0,1988.0,2057.0,2040.0,0.0,0.0,
2037.0,1990.0,2055.0,2061.0,0.0,0.0,
2044.0,2008.0,2054.0,2046.0,0.0,0.0,
2028.0,2011.0,2052.0,2031.0,0.0,0.0,
2002.0,2005.0,2048.0,2024.0,0.0,0.0,
2022.0,2023.0,2051.0,2033.0,0.0,0.0,
2016.0,2003.0,2053.0,2038.0,0.0,0.0,
2041.0,2011.0,2057.0,2058.0,0.0,0.0,
2038.0,1992.0,2058.0,2044.0,0.0,0.0,
2046.0,1994.0,2055.0,2032.0,0.0,0.0,
2021.0,2005.0,2053.0,2038.0,0.0,0.0,
2010.0,2014.0,2051.0,2037.0,0.0,0.0,
2023.0,2013.0,2049.0,2039.0,0.0,0.0,
2023.0,1987.0,2052.0,2039.0,0.0,0.0,
2037.0,1995.0,2053.0,2038.0,0.0,0.0,
2037.0,2006.0,2057.0,2041.0,0.0,0.0,
2026.0,2014.0,2055.0,2041.0,0.0,0.0,
2021.0,2020.0,2051.0,2044.0,0.0,0.0,
2017.0,2014.0,2049.0,2047.0,0.0,0.0,
2022.0,2005.0,2052.0,2044.0,0.0,0.0,
2027.0,2007.0,2051.0,2033.0,0.0,0.0,
2041.0,2013.0,2051.0,2034.0,0.0,0.0,
2029.0,2011.0,2054.0,2030.0,0.0,0.0,
2030.0,2010.0,2053.0,2030.0,0.0,0.0,
2030.0,1999.0,2052.0,2034.0,0.0,0.0,
2047.0,1988.0,2054.0,2039.0,0,0,
2043.0,2005.0,2052.0,2055.0,0.0,0.0,
2021.0,2028.0,2049.0,2047.0,0.0,0.0,
2004.0,2013.0,2052.0,2037.0,0.0,0.0,
2015.0,1999.0,2050.0,2054.0,0.0,0.0,
2042.0,1995.0,2059.0,2049.0,0.0,0.0,
2043.0,2005.0,2060.0,2048.0,0.0,0.0,
2030.0,2002.0,2054.0,2033.0,0.0,0.0,
2023.0,1993.0,2064.0,2029.0,0.0,0.0,
2033.0,2004.0,2051.0,2033.0,0.0,0.0,
2027.0,2012.0,2057.0,2031.0,0.0,0.0,
2033.0,2015.0,2056.0,2048.0,0.0,0.0,
2028.0,1983.0,2064.0,2051.0,0.0,0.0,
2032.0,2003.0,2055.0,2052.0,0.0,0.0,
2041.0,2012.0,2055.0,2057.0,0.0,0.0,
2034.0,2022.0,2053.0,2039.0,0.0,0.0,
2037.0,2012.0,2054.0,2007.0,0.0,0.0,
2031.0,2003.0,2052.0,1993.0,0.0,0.0,
2022.0,1976.0,2050.0,2010.0,0.0,0.0,
2026.0,2020.0,2051.0,2075.0,0.0,0.0,
2025.0,2011.0,2060.0,2060.0,0.0,0.0,
2036.0,2011.0,2054.0,2043.0,0.0,0.0,
2043.0,1977.0,2054.0,2050.0,0.0,0.0,
2042.0,1993.0,2053.0,2068.0,0.0,0.0,
2032.0,2003.0,2049.0,2049.0,0.0,0.0,
2044.0,2006.0,2056.0,2046.0,0.0,0.0,
2026.0,2012.0,2050.0,2044.0,0.0,0.0,
2020.0,2010.0,2052.0,2032.0,0.0,0.0,
2020.0,2006.0,2053.0,2043.0,0.0,0.0,
2042.0,2017.0,2053.0,2041.0,0.0,0.0,
2050.0,2016.0,2055.0,2033.0,0.0,0.0,
2033.0,2011.0,2049.0,2015.0,0.0,0.0,
2002.0,2008.0,2051.0,2005.0,0.0,0.0,
2006.0,2000.0,2051.0,2071.0,0.0,0.0,
2029.0,2005.0,2057.0,2069.0,0.0,0.0,
2035.0,1996.0,2057.0,2077.0,0.0,0.0,
2082.0,2007.0,2061.0,2059.0,0.0,0.0,
2046.0,1991.0,2056.0,2024.0,0.0,0.0,
2039.0,2017.0,2057.0,2041.0,0.0,0.0,
2014.0,2023.0,2057.0,2041.0,0.0,0.0,
2028.0,1997.0,2055.0,2035.0,0.0,0.0,
2019.0,1995.0,2056.0,2043.0,0.0,0.0,
2019.0,1998.0,2054.0,2039.0,0.0,0.0,
2032.0,2004.0,2052.0,2038.0,0.0,0.0,
2034.0,2018.0,2054.0,2037.0,0.0,0.0,
2032.0,2017.0,2050.0,2037.0,0.0,0.0,
2030.0,2018.0,2054.0,2032.0,0.0,0.0,
2029.0,2009.0,2051.0,2031.0,0.0,0.0,
2033.0,1999.0,2049.0,2034.0,0.0,0.0,
2025.0,1992.0,2047.0,2022.0,0.0,0.0,
2028.0,2009.0,2051.0,2035.0,0.0,0.0,
2045.0,2013.0,2053.0,2040.0,0.0,0.0,
2057.0,2013.0,2056.0,2034.0,0.0,0.0,
2038.0,2010.0,2052.0,2046.0,0.0,0.0,
2041.0,2018.0,2038.0,2063.0,0.0,0.0,
2034.0,2009.0,2052.0,2033.0,0.0,0.0,
2035.0,1996.0,2049.0,2026.0,0.0,0.0,
2010.0,1995.0,2047.0,2027.0,0.0,0.0,
2035.0,1995.0,2053.0,2049.0,0.0,0.0,
2044.0,1982.0,2059.0,2058.0,0.0,0.0,
2041.0,1993.0,2056.0,2060.0,0.0,0.0,
2038.0,1998.0,2053.0,2041.0,0.0,0.0,
2037.0,1995.0,2054.0,2050.0,0.0,0.0,
2032.0,1997.0,2051.0,2042.0,0.0,0.0,
2019.0,2010.0,2050.0,2034.0,0.0,0.0,
2032.0,2030.0,2054.0,2025.0,0.0,0.0,
2029.0,2047.0,2052.0,2033.0,0.0,0.0,
2042.0,2021.0,2052.0,2035.0,0.0,0.0,
2050.0,1979.0,2055.0,2052.0,0.0,0.0,
2030.0,1987.0,2054.0,2057.0,0.0,0.0,
2026.0,1993.0,2052.0,2045.0,0.0,0.0,
2031.0,2003.0,2056.0,2036.0,0.0,0.0,
2018.0,2006.0,2051.0,2039.0,0.0,0.0,
2009.0,2025.0,2051.0,2032.0,0.0,0.0,
2025.0,2015.0,2055.0,2032.0,0.0,0.0,
2029.0,2012.0,2053.0,2033.0,0.0,0.0,
2018.0,1994.0,2052.0,2034.0,0.0,0.0,
2053.0,2001.0,2054.0,2053.0,0.0,0.0,
2038.0,2015.0,2056.0,2036.0,0.0,0.0,
2028.0,2022.0,2051.0,2023.0,0.0,0.0,
2019.0,2013.0,2052.0,2042.0,0.0,0.0,
2018.0,1982.0,2051.0,2069.0,0.0,0.0,
2044.0,1996.0,2056.0,2067.0,0.0,0.0,
2043.0,2002.0,2053.0,2037.0,0.0,0.0,
2038.0,2009.0,2052.0,2025.0,0.0,0.0,
2021.0,2001.0,2054.0,2026.0,0.0,0.0,
2019.0,2005.0,2052.0,2033.0,0.0,0.0,
2015.0,2005.0,2054.0,2044.0,0.0,0,
2018.0,2006.0,2049.0,2036.0,0.0,0.0,
2020.0,2006.0,2050.0,2036.0,0.0,0.0,
2037.0,2008.0,2054.0,2046.0,0.0,0.0,
2045.0,2005.0,2055.0,2050.0,0.0,0.0,
2037.0,2010.0,2053.0,2043.0,0.0,0.0,
2024.0,2003.0,2050.0,2033.0,0.0,0.0,
2038.0,2013.0,2051.0,2035.0,0.0,0.0,
2013.0,2007.0,2048.0,2024.0,0.0,0.0,
2007.0,2007.0,2059.0,2025.0,0.0,0.0,
2012.0,2010.0,2052.0,2033.0,0,0,
2042.0,2032.0,2056.0,2063.0,0.0,0.0,
2048.0,1998.0,2057.0,2053.0,0.0,0.0,
2062.0,1980.0,2056.0,2049.0,0.0,0.0,
2034.0,1980.0,2056.0,2037.0,0.0,0.0,
2024.0,1989.0,2053.0,2040.0,0.0,0.0,
2021.0,1997.0,2054.0,2046.0,0.0,0.0,
2033.0,2025.0,2059.0,2054.0,0.0,0.0,
2024.0,2025.0,2054.0,2026.0,0.0,0.0,
2034.0,2046.0,2057.0,2028.0,0.0,0.0,
2027.0,2045.0,2071.0,2047.0,0.0,0.0,
2023.0,2012.0,2053.0,2043.0,0.0,0.0,
2027.0,1987.0,2052.0,2050.0,0.0,0.0,
2023.0,2004.0,2053.0,2036.0,0.0,0.0,
2026.0,2002.0,2051.0,2031.0,0.0,0.0,
2023.0,2008.0,2050.0,2041.0,0.0,0,
2024.0,2022.0,2053.0,2062.0,0.0,0.0,
2030.0,2012.0,2052.0,2058.0,0.0,0.0,
2057.0,2017.0,2059.0,2035.0,0.0,0.0,
2050.0,1990.0,2056.0,2001.0,0.0,0.0,
2050.0,1939.0,2054.0,2034.0,0.0,0.0,
2046.0,1983.0,2051.0,2059.0,0.0,0.0,
2039.0,1995.0,2052.0,2029.0,0.0,0.0,
2029.0,2000.0,2050.0,2034.0,0.0,0.0,
2054.0,2020.0,2054.0,2047.0,0.0,0.0,
2039.0,2019.0,2053.0,2028.0,0.0,0.0,
2029.0,1998.0,2049.0,2031.0,0.0,0.0,
2025.0,2013.0,2053.0,2058.0,0.0,0.0,
2015.0,2013.0,2047.0,2025.0,0.0,0.0,
2017.0,2013.0,2050.0,2029.0,0.0,0.0,
2019.0,2029.0,2053.0,2040.0,0.0,0.0,
2031.0,2016.0,2060.0,2056.0,0.0,0.0,
2033.0,2002.0,2056.0,2058.0,0.0,0.0,
2031.0,2008.0,2056.0,2049.0,0.0,0.0,
2029.0,2011.0,2054.0,2043.0,0.0,0.0,
2024.0,2009.0,2050.0,2038.0,0.0,0.0,
2028.0,2007.0,2053.0,2036.0,0.0,0.0,
2019.0,2009.0,2054.0,2037.0,0.0,0.0,
2016.0,2010.0,2052.0,2037.0,0.0,0.0,
2029.0,2009.0,2053.0,2037.0,0.0,0.0,
2045.0,2011.0,2055.0,2035.0,0.0,0.0,
2029.0,2017.0,2052.0,2033.0,0.0,0.0,
2016.0,2008.0,2050.0,2027.0,0.0,0.0,
2023.0,2010.0,2050.0,2052.0,0.0,0.0,
2022.0,2012.0,2054.0,2048.0,0.0,0.0,
2029.0,1988.0,2053.0,2043.0,0.0,0.0,
2027.0,1988.0,2053.0,2052.0,0.0,0.0,
2046.0,2007.0,2056.0,2055.0,0.0,0.0,
2046.0,2003.0,2054.0,2046.0,0.0,0.0,
2042.0,2005.0,2053.0,2043.0,0.0,0.0,
2038.0,2009.0,2056.0,2046.0,0.0,0.0,
2037.0,2007.0,2052.0,2036.0,0.0,0.0,
2028.0,2010.0,2049.0,2036.0,0.0,0.0,
2031.0,2008.0,2055.0,2037.0,0.0,0.0,
2039.0,2007.0,2051.0,2037.0,0.0,0.0,
2052.0,2006.0,2057.0,2041.0,0.0,0.0,
2051.0,2006.0,2054.0,2040.0,0.0,0.0,
2053.0,2005.0,2056.0,2042.0,0.0,0.0,
2039.0,2005.0,2055.0,2042.0,0.0,0.0,
2030.0,2006.0,2054.0,2036.0,0.0,0.0,
2022.0,2011.0,2053.0,2031.0,0.0,0.0,
2014.0,2014.0,2051.0,2029.0,0.0,0.0,
2028.0,2019.0,2056.0,2029.0,0.0,0.0,
2032.0,2020.0,2059.0,2040.0,0.0,0.0,
2041.0,2003.0,2052.0,2037.0,0.0,0.0,
2040.0,1992.0,2051.0,2040.0,0.0,0.0,
2051.0,1995.0,2055.0,2053.0,0.0,0.0,
2040.0,1998.0,2054.0,2065.0,0.0,0.0,
2031.0,1991.0,2053.0,2054.0,0.0,0.0,
2029.0,1982.0,2051.0,2058.0,0.0,0.0,
2052.0,1997.0,2054.0,2074.0,0.0,0.0,
2036.0,2006.0,2054.0,2051.0,0.0,0.0,
2030.0,2009.0,2050.0,2035.0,0.0,0.0,
2020.0,2005.0,2050.0,2037.0,0.0,0.0,
2021.0,2008.0,2049.0,2045.0,0.0,0.0,
2013.0,2017.0,2052.0,2031.0,0.0,0.0,
2021.0,2027.0,2052.0,2025.0,0.0,0.0,
2023.0,2014.0,2055.0,2032.0,0.0,0.0,
2030.0,1981.0,2055.0,2051.0,0.0,0.0,
2035.0,1999.0,2054.0,2055.0,0.0,0.0,
2026.0,2010.0,2052.0,2038.0,0.0,1.0,
2022.0,2014.0,2052.0,2032.0,0.0,1.0,
2026.0,2006.0,2050.0,2032.0,0.0,1.0,
2010.0,2016.0,2050.0,2015.0,0.0,1.0,
2014.0,2018.0,2049.0,2014.0,0.0,1.0,
2020.0,2033.0,2053.0,2011.0,0.0,1.0,
2061.0,1997.0,2054.0,2043.0,0.0,1.0,
2040.0,1990.0,2058.0,2110.0,0.0,1.0,
2049.0,1997.0,2056.0,2069.0,0.0,1.0,
2030.0,2010.0,2054.0,2035.0,0.0,0.0,
2035.0,2016.0,2055.0,2036.0,0.0,0.0,
2018.0,2009.0,2053.0,2035.0,0.0,0.0,
2056.0,2000.0,2056.0,2051.0,0.0,0.0,
2045.0,1972.0,2056.0,2054.0,0.0,0.0,
2036.0,1998.0,2055.0,2055.0,0.0,0.0,
2026.0,2012.0,2054.0,2043.0,0.0,0.0,
2033.0,2017.0,2054.0,2034.0,0.0,0.0,
2013.0,2009.0,2052.0,2030.0,0.0,0.0,
2020.0,1994.0,2047.0,2030.0,0.0,0.0,
2038.0,1978.0,2050.0,2027.0,0.0,0.0,
2026.0,2002.0,2051.0,2032.0,0.0,0.0,
2042.0,2014.0,2055.0,2047.0,0.0,0.0,
2034.0,2018.0,2054.0,2037.0,0.0,0.0,
2023.0,2013.0,2051.0,2037.0,0.0,0.0,
2038.0,2014.0,2053.0,2037.0,0.0,0.0,
2021.0,2015.0,2052.0,2040.0,0.0,0.0,
2032.0,2017.0,2047.0,2037.0,0.0,0.0,
2017.0,2012.0,2048.0,2036.0,0.0,0.0,
2040.0,2013.0,2055.0,2043.0,0.0,0.0,
2037.0,2018.0,2056.0,2038.0,0.0,0.0,
2031.0,2010.0,2052.0,2035.0,0.0,0.0,
2016.0,2007.0,2051.0,2043.0,0.0,0.0,
2027.0,1995.0,2053.0,2035.0,0.0,0.0,
2026.0,2007.0,2053.0,2035.0,0.0,0.0,
2004.0,2025.0,2051.0,2069.0,0.0,0.0,
2027.0,2019.0,2056.0,2056.0,0.0,0.0,
2049.0,2005.0,2056.0,2041.0,0.0,0.0,
2032.0,1977.0,2055.0,2050.0,0.0,0.0,
2051.0,2000.0,2057.0,2052.0,0.0,0.0,
2041.0,2004.0,2057.0,2044.0,0.0,0.0,
2039.0,2005.0,2055.0,2040.0,0.0,0.0,
2023.0,2007.0,2049.0,2029.0,0.0,0.0,
2016.0,2006.0,2049.0,2033.0,0.0,0.0,
2022.0,2010.0,2048.0,2038.0,0.0,0.0,
2058.0,2009.0,2054.0,2040.0,0.0,1.0,
2044.0,2014.0,2054.0,2032.0,0.0,1.0,
2043.0,2010.0,2054.0,2023.0,0.0,1.0,
2040.0,2013.0,2052.0,2037.0,0.0,1.0,
2032.0,2001.0,2052.0,2058.0,0.0,1.0,
2019.0,1989.0,2053.0,2043.0,0.0,1.0,
2028.0,1985.0,2054.0,2046.0,0.0,1.0,
2029.0,1986.0,2055.0,2046.0,0.0,1.0,
2057.0,1989.0,2058.0,2047.0,0.0,1.0,
2056.0,1999.0,2063.0,2043.0,0.0,1.0,
2042.0,2011.0,2053.0,2041.0,0.0,1.0,
2034.0,2039.0,2053.0,2042.0,0.0,1.0,
2022.0,2059.0,2051.0,2039.0,0.0,1.0,
2009.0,2047.0,2047.0,2030.0,0.0,1.0,
2007.0,2028.0,2048.0,2022.0,0.0,1.0,
2025.0,1979.0,2051.0,2039.0,0.0,1.0,
2054.0,1938.0,2061.0,2070.0,0.0,1.0,
2039.0,1984.0,2054.0,2055.0,0.0,1.0,
2046.0,1998.0,2058.0,2043.0,0.0,1.0,
2021.0,1993.0,2053.0,2035.0,0.0,1.0,
2030.0,2016.0,2052.0,2045.0,0.0,1.0,
1998.0,2017.0,2050.0,2040.0,0.0,1.0,
2025.0,2024.0,2053.0,2054.0,0.0,1.0,
2037.0,2024.0,2053.0,2035.0,0,0,
2046.0,2014.0,2055.0,2028.0,0.0,0.0,
2033.0,2009.0,2054.0,2029.0,0.0,0.0,
2031.0,2005.0,2052.0,2034.0,0.0,0.0,
2030.0,2006.0,2051.0,2025.0,0.0,0.0,
2037.0,2000.0,2051.0,2024.0,0.0,0.0,
2023.0,2003.0,2037.0,2033.0,0.0,0.0,
2008.0,2000.0,2052.0,2034.0,0.0,0.0,
2026.0,2002.0,2056.0,2065.0,0.0,0.0,
2035.0,1997.0,2055.0,2058.0,0.0,0.0,
2030.0,1994.0,2051.0,2057.0,0.0,0.0,
2033.0,1995.0,2056.0,2045.0,0.0,0.0,
2030.0,2009.0,2060.0,2045.0,0.0,0.0,
2036.0,2014.0,2056.0,2030.0,0.0,0.0,
2029.0,2016.0,2053.0,2032.0,0.0,0.0,
2038.0,2020.0,2056.0,2029.0,0.0,0.0,
2049.0,2024.0,2057.0,2033.0,0.0,0.0,
2055.0,2002.0,2053.0,2042.0,0.0,0.0,
2029.0,1973.0,2051.0,2049.0,0.0,0.0,
2026.0,1992.0,2056.0,2054.0,0.0,0.0,
2017.0,2000.0,2050.0,2048.0,0.0,0.0,
2014.0,2011.0,2053.0,2044.0,0.0,0.0,
2023.0,2003.0,2056.0,2035.0,0.0,0.0,
2025.0,2009.0,2055.0,2025.0,0.0,0.0,
2022.0,2008.0,2054.0,2032.0,0.0,0.0,
2029.0,2009.0,2054.0,2032.0,0.0,0.0,
2031.0,2017.0,2057.0,2037.0,0.0,0.0,
2027.0,2019.0,2053.0,2038.0,0,0,
2038.0,2027.0,2051.0,2047.0,0.0,0.0,
2024.0,1999.0,2051.0,2046.0,0.0,0.0,
2049.0,1979.0,2059.0,2048.0,0.0,0.0,
2046.0,1979.0,2060.0,2051.0,0.0,0.0,
2046.0,2000.0,2056.0,2045.0,0.0,0.0,
2030.0,1990.0,2055.0,2065.0,0.0,0.0,
2036.0,1996.0,2057.0,2050.0,0.0,0.0,
2029.0,2009.0,2053.0,2028.0,0.0,0.0,
2033.0,2008.0,2052.0,2033.0,0.0,0.0,
2010.0,2010.0,2050.0,2032.0,0.0,0.0,
2009.0,2002.0,2051.0,2031.0,0.0,0.0,
2039.0,2001.0,2054.0,2053.0,0,0,
2034.0,2012.0,2055.0,2046.0,0.0,0.0,
2034.0,2008.0,2053.0,2040.0,0.0,0.0,
2035.0,2007.0,2053.0,2033.0,0.0,0.0,
2030.0,2008.0,2053.0,2029.0,0.0,0.0,
2015.0,2013.0,2060.0,2035.0,0.0,0.0,
2016.0,2009.0,2049.0,2035.0,0.0,0.0,
2031.0,2000.0,2049.0,2040.0,0.0,0.0,
2051.0,2004.0,2054.0,2039.0,0.0,0.0,
2032.0,2011.0,2051.0,2032.0,0.0,0.0,
2032.0,2024.0,2053.0,2027.0,0.0,0.0,
2005.0,2034.0,2049.0,2025.0,0.0,0.0,
2012.0,2010.0,2052.0,2036.0,0.0,0.0,
2021.0,1996.0,2050.0,2060.0,0.0,0.0,
2021.0,1995.0,2050.0,2052.0,0.0,0.0,
2029.0,2009.0,2053.0,2068.0,0.0,0.0,
2038.0,2013.0,2056.0,2047.0,0.0,0.0,
2023.0,2008.0,2050.0,2045.0,0.0,0.0,
2028.0,2005.0,2032.0,2028.0,0.0,0.0,
2047.0,2003.0,2053.0,2044.0,0.0,0.0,
2042.0,1987.0,2050.0,2044.0,0.0,0.0,
2034.0,1992.0,2050.0,2038.0,0.0,0.0,
2020.0,1989.0,2052.0,2045.0,0.0,0.0,
2044.0,1990.0,2055.0,2045.0,0.0,0.0,
2041.0,2008.0,2054.0,2061.0,0.0,0.0,
2032.0,2008.0,2060.0,2049.0,0.0,0.0,
2018.0,2017.0,2052.0,2039.0,0.0,0.0,
2029.0,2012.0,2053.0,2031.0,0.0,0.0,
2018.0,2015.0,2052.0,2014.0,0.0,0.0,
2015.0,2008.0,2047.0,2008.0,0.0,0.0,
2027.0,2023.0,2052.0,2010.0,0.0,0.0,
2039.0,2028.0,2058.0,2024.0,0.0,0.0,
2042.0,2033.0,2052.0,2045.0,0.0,0.0,
2021.0,2015.0,2054.0,2055.0,0.0,0.0,
2013.0,1987.0,2054.0,2065.0,0.0,0.0,
2006.0,1977.0,2050.0,2062.0,0.0,0.0,
2041.0,1973.0,2052.0,2061.0,0.0,0.0,
2055.0,1965.0,2059.0,2069.0,0.0,0.0,
2033.0,1987.0,2058.0,2049.0,0.0,0.0,
2040.0,2005.0,2054.0,2044.0,0.0,0.0,
2045.0,2011.0,2054.0,2042.0,0.0,0.0,
2038.0,2018.0,2054.0,2043.0,0.0,0.0,
2030.0,2021.0,2048.0,2046.0,0.0,0.0,
2031.0,2012.0,2055.0,2051.0,0.0,0.0,
2027.0,2014.0,2052.0,2036.0,0.0,0.0,
2025.0,2024.0,2055.0,2010.0,0.0,0.0,
2033.0,2016.0,2052.0,2023.0,0.0,0.0,
2036.0,2005.0,2056.0,2043.0,0.0,0.0,
2017.0,2008.0,2052.0,2030.0,0.0,0.0,
2039.0,2014.0,2052.0,2030.0,0.0,0.0,
2044.0,2017.0,2054.0,2031.0,0.0,0.0,
2034.0,2022.0,2053.0,2031.0,0.0,0.0,
2024.0,1996.0,2049.0,2030.0,0.0,0.0,
2031.0,2010.0,2052.0,2053.0,0.0,0.0,
2039.0,2005.0,2054.0,2026.0,0.0,0.0,
2046.0,2004.0,2052.0,2041.0,0.0,0.0,
2032.0,2006.0,2053.0,2035.0,0.0,0.0,
2020.0,2006.0,2051.0,2031.0,0.0,0.0,
1997.0,2019.0,2049.0,2035.0,1.0,0.0,
2010.0,1996.0,2048.0,2041.0,1.0,0.0,
2041.0,1984.0,2051.0,2045.0,1.0,0.0,
2041.0,2002.0,2056.0,2043.0,1.0,0.0,
2056.0,2006.0,2059.0,2052.0,1.0,0.0,
2057.0,2005.0,2055.0,2060.0,1.0,0.0,
2037.0,1991.0,2051.0,2050.0,0,0,
2033.0,2006.0,2055.0,2050.0,0.0,0.0,
2017.0,2011.0,2052.0,2029.0,0.0,0.0,
2017.0,1998.0,2051.0,2036.0,0.0,0.0,
2020.0,1984.0,2068.0,2044.0,0.0,0.0,
2030.0,2009.0,2054.0,2058.0,0.0,0.0,
2020.0,2007.0,2056.0,2057.0,0.0,0.0,
2029.0,2017.0,2051.0,2043.0,0.0,0.0,
2019.0,2020.0,2050.0,2038.0,0.0,0.0,
2023.0,2020.0,2051.0,2024.0,0.0,0,
2032.0,2021.0,2049.0,2030.0,0.0,0.0,
2031.0,2013.0,2059.0,2033.0,0.0,0.0,
2014.0,1994.0,2049.0,2024.0,0.0,0.0,
2027.0,1972.0,2053.0,2032.0,0.0,0.0,
2035.0,2004.0,2054.0,2051.0,0.0,0.0,
2038.0,2030.0,2057.0,2046.0,0.0,0.0,
2027.0,2022.0,2052.0,2038.0,0.0,0.0,
2045.0,2008.0,2057.0,2046.0,0.0,0.0,
2031.0,1970.0,2056.0,2064.0,0.0,0.0,
2027.0,1976.0,2056.0,2068.0,0,0,
2036.0,1971.0,2054.0,2049.0,0.0,0.0,
2050.0,1976.0,2052.0,2056.0,0.0,0.0,
2038.0,1998.0,2054.0,2049.0,0.0,0.0,
2047.0,2007.0,2052.0,2042.0,0.0,0.0,
2045.0,2024.0,2054.0,2044.0,0.0,0.0,
2030.0,2019.0,2052.0,2030.0,0.0,0.0,
2019.0,2016.0,2051.0,2031.0,0.0,0.0,
2030.0,2015.0,2050.0,2032.0,0.0,0.0,
2031.0,2016.0,2052.0,2027.0,0.0,0.0,
2034.0,2021.0,2054.0,2031.0,0.0,0.0,
2031.0,2017.0,2052.0,2040.0,0.0,0,
2036.0,2022.0,2054.0,2046.0,0.0,0.0,
2022.0,2016.0,2053.0,2024.0,0.0,0.0,
2020.0,2012.0,2052.0,2015.0,0.0,0.0,
2032.0,2017.0,2053.0,2023.0,0.0,0.0,
2043.0,2004.0,2054.0,2036.0,0.0,0.0,
2041.0,1998.0,2056.0,2037.0,0.0,0.0,
2036.0,2016.0,2055.0,2052.0,0.0,0.0,
2029.0,1980.0,2053.0,2053.0,0.0,0.0,
2034.0,2004.0,2056.0,2070.0,0.0,0.0,
2019.0,2017.0,2054.0,2058.0,0.0,0.0,
2016.0,2015.0,2051.0,2044.0,0.0,0.0,
2018.0,2010.0,2054.0,2038.0,0.0,0.0,
2028.0,2003.0,2060.0,2034.0,0.0,0.0,
2028.0,2004.0,2057.0,2037.0,0.0,0.0,
2032.0,2005.0,2057.0,2029.0,0.0,0.0,
2020.0,2010.0,2057.0,2036.0,0.0,0.0,
2036.0,2009.0,2056.0,2049.0,0.0,0.0,
2027.0,2008.0,2053.0,2046.0,0.0,0.0,
2021.0,2006.0,2050.0,2045.0,0.0,0.0,
2025.0,2004.0,2047.0,2027.0,0.0,0.0,
2033.0,2004.0,2054.0,2012.0,0,0,
2058.0,1999.0,2056.0,2035.0,0.0,0.0,
2047.0,1996.0,2052.0,2032.0,0.0,0.0,
2032.0,1987.0,2050.0,2039.0,0.0,0.0,
2017.0,1991.0,2048.0,2043.0,0.0,0.0,
2014.0,1995.0,2048.0,2047.0,0.0,0.0,
2011.0,1990.0,2048.0,2038.0,0.0,0.0,
2039.0,2010.0,2053.0,2046.0,0.0,0.0,
2048.0,2018.0,2053.0,2050.0,0.0,0.0,
2056.0,2011.0,2057.0,2057.0,0.0,0.0,
2046.0,2014.0,2053.0,2052.0,0.0,1.0,
2045.0,2008.0,2057.0,2048.0,0.0,1.0,
2017.0,1995.0,2050.0,2028.0,0.0,1.0,
2019.0,2008.0,2051.0,2024.0,0.0,1.0,
2029.0,2013.0,2053.0,2031.0,0.0,1.0,
2034.0,2004.0,2056.0,2054.0,0.0,1.0,
2044.0,1962.0,2056.0,2047.0,0.0,1.0,
2017.0,1991.0,2053.0,2055.0,0.0,1.0,
2031.0,2017.0,2057.0,2045.0,0.0,1.0,
2030.0,2025.0,2059.0,2042.0,0.0,1.0,
2030.0,2025.0,2054.0,2037.0,0.0,1.0,
2018.0,2016.0,2053.0,2032.0,0.0,1.0,
2028.0,2004.0,2054.0,2033.0,0.0,1.0,
2046.0,2000.0,2055.0,2035.0,0.0,1.0,
2059.0,1995.0,2058.0,2039.0,0.0,1.0,
2025.0,2021.0,2053.0,2051.0,0.0,1.0,
2029.0,2002.0,2053.0,2047.0,0.0,1.0,
2017.0,2002.0,2053.0,2067.0,0.0,1.0,
2023.0,2012.0,2049.0,2046.0,0.0,1.0,
2013.0,2012.0,2052.0,2031.0,0.0,1.0,
2019.0,2004.0,2055.0,2037.0,0.0,1.0,
2022.0,1992.0,2067.0,2035.0,0.0,1.0,
2050.0,1998.0,2057.0,2039.0,0.0,0.0,
2044.0,2011.0,2056.0,2037.0,0.0,0.0,
2031.0,2012.0,2053.0,2034.0,0.0,0.0,
2037.0,1989.0,2052.0,2034.0,0.0,0.0,
2030.0,2006.0,2053.0,2032.0,0.0,0.0,
2015.0,2018.0,2049.0,2027.0,0.0,0.0,
2023.0,2012.0,2050.0,2029.0,0.0,0.0,
2027.0,2008.0,2049.0,2035.0,0.0,0.0,
2033.0,2004.0,2056.0,2033.0,0.0,0.0,
2047.0,2007.0,2055.0,2040.0,0.0,0.0,
2035.0,2014.0,2052.0,2036.0,0.0,0.0,
2014.0,2019.0,2052.0,2017.0,0.0,0.0,
2019.0,2011.0,2056.0,2039.0,0.0,0.0,
2035.0,2019.0,2056.0,2035.0,0.0,0.0,
2048.0,1996.0,2055.0,2034.0,0.0,0.0,
2043.0,1987.0,2053.0,2043.0,0.0,0.0,
2039.0,1971.0,2052.0,2035.0,0.0,0.0,
2032.0,2003.0,2053.0,2058.0,0.0,0.0,
2033.0,2010.0,2054.0,2056.0,0.0,0.0,
2013.0,2010.0,2059.0,2046.0,0.0,0.0,
2017.0,2007.0,2049.0,2046.0,0.0,0.0,
2031.0,2011.0,2053.0,2050.0,0.0,0.0,
2033.0,1997.0,2052.0,2040.0,0.0,0.0,
2055.0,1993.0,2054.0,2038.0,0.0,0.0,
2026.0,2030.0,2054.0,2046.0,0.0,0.0,
2043.0,2022.0,2057.0,2034.0,0.0,0.0,
2034.0,2021.0,2052.0,2030.0,0.0,0.0,
2034.0,2030.0,2052.0,2030.0,0.0,0.0,
2029.0,2007.0,2051.0,2036.0,0.0,0.0,
2027.0,1984.0,2050.0,2038.0,0.0,0.0,
2018.0,1995.0,2057.0,2048.0,0.0,0.0,
2038.0,1996.0,2053.0,2036.0,0.0,0.0,
2016.0,2007.0,2053.0,2037.0,0.0,0.0,
2022.0,2005.0,2053.0,2033.0,0.0,1.0,
2047.0,2023.0,2053.0,2053.0,0.0,1.0,
2027.0,1992.0,2053.0,2050.0,0,0,
2031.0,1993.0,2052.0,2063.0,0.0,1.0,
2033.0,1999.0,2054.0,2054.0,0.0,1.0,
2043.0,1986.0,2057.0,2051.0,0.0,1.0,
2047.0,1996.0,2055.0,2033.0,0.0,1.0,
2034.0,2005.0,2056.0,2044.0,0.0,1.0,
2029.0,2006.0,2053.0,2061.0,0.0,1.0,
2021.0,2000.0,2054.0,2034.0,0.0,1.0,
2036.0,2013.0,2058.0,2022.0,0.0,1.0,
2021.0,2023.0,2053.0,2024.0,0.0,0,
2021.0,2030.0,2051.0,2029.0,0.0,0.0,
2055.0,2011.0,2054.0,2021.0,0.0,0.0,
2040.0,2014.0,2056.0,2034.0,0.0,0.0,
2034.0,2007.0,2053.0,2035.0,0.0,0.0,
2047.0,2007.0,2055.0,2047.0,0.0,0.0,
2028.0,2007.0,2054.0,2031.0,0,0,
2013.0,2001.0,2051.0,2025.0,0.0,0.0,
2010.0,2022.0,2054.0,2046.0,0.0,0.0,
2033.0,2013.0,2049.0,2044.0,0.0,0.0,
2042.0,2019.0,2054.0,2046.0,0.0,0.0,
2031.0,2031.0,2050.0,2060.0,0.0,0.0,
2028.0,2014.0,2050.0,2045.0,0.0,0.0,
2016.0,1998.0,2047.0,2030.0,0.0,0.0,
2027.0,2001.0,2048.0,2005.0,0.0,0.0,
2020.0,1994.0,2048.0,2044.0,0.0,0.0,
2031.0,1961.0,2049.0,2071.0,0.0,0.0,
2040.0,2009.0,2054.0,2064.0,0.0,0.0,
2034.0,2002.0,2058.0,2055.0,0.0,0.0,
2041.0,2015.0,2055.0,2047.0,0.0,0.0,
2044.0,1991.0,2058.0,2051.0,0.0,0.0,
2035.0,1992.0,2055.0,2043.0,0.0,0.0,
2027.0,2015.0,2051.0,2033.0,0.0,0.0,
2022.0,2026.0,2054.0,2017.0,0.0,0.0,
2025.0,2028.0,2053.0,2005.0,0.0,0.0,
2030.0,2022.0,2055.0,2024.0,0.0,0.0,
2024.0,1978.0,2060.0,2054.0,0.0,0.0,
2035.0,1966.0,2056.0,2062.0,0.0,0.0,
2028.0,1982.0,2053.0,2053.0,0.0,0.0,
2029.0,1995.0,2051.0,2034.0,0.0,0.0,
2032.0,2009.0,2049.0,2028.0,0.0,0.0,
2032.0,2012.0,2053.0,2035.0,0.0,0.0,
2023.0,2013.0,2054.0,2039.0,0.0,0.0,
2054.0,2018.0,2055.0,2056.0,0.0,0.0,
2024.0,2023.0,2050.0,2042.0,0.0,0.0,
2038.0,2020.0,2053.0,2024.0,0.0,0.0,
2039.0,2014.0,2055.0,2045.0,0.0,0.0,
2035.0,1995.0,2061.0,2039.0,1.0,0,
2020.0,1984.0,2053.0,2024.0,1.0,0.0,
2013.0,2000.0,2050.0,2032.0,1.0,0.0,
2033.0,2030.0,2053.0,2067.0,1.0,0.0,
2034.0,2022.0,2057.0,2044.0,0.0,0.0,
2024.0,2012.0,2053.0,2046.0,0.0,0.0,
2031.0,2011.0,2053.0,2047.0,0.0,0.0,
2026.0,2006.0,2051.0,2029.0,0.0,0.0,
2028.0,2000.0,2054.0,2026.0,0.0,0.0,
2034.0,1999.0,2052.0,2040.0,0.0,0.0,
2023.0,1983.0,2050.0,2045.0,0.0,0.0,
2034.0,1996.0,2052.0,2052.0,0.0,0.0,
2031.0,2009.0,2060.0,2054.0,0.0,0.0,
2039.0,1996.0,2057.0,2045.0,0.0,0.0,
2034.0,2003.0,2053.0,2035.0,0.0,0.0,
2022.0,2008.0,2050.0,2032.0,0.0,0.0,
2027.0,2028.0,2053.0,2047.0,0.0,0.0,
2038.0,2006.0,2048.0,2043.0,0.0,0.0,
2015.0,2005.0,2054.0,2040.0,0.0,0.0,
2047.0,2006.0,2059.0,2041.0,0.0,0.0,
2035.0,2004.0,2058.0,2033.0,0.0,0.0,
2032.0,1993.0,2054.0,2044.0,0.0,0.0,
2024.0,2008.0,2052.0,2045.0,0.0,0.0,
2026.0,2012.0,2053.0,2045.0,0.0,0.0,
2017.0,2010.0,2050.0,2038.0,0.0,0.0,
2017.0,2010.0,2052.0,2031.0,0.0,0.0,
2036.0,2005.0,2054.0,2032.0,0.0,0.0,
2050.0,2017.0,2057.0,2032.0,0.0,0.0,
2006.0,2006.0,2051.0,2026.0,0.0,0.0,
2025.0,2008.0,2054.0,2037.0,0.0,0.0,
2036.0,1991.0,2054.0,2058.0,0.0,0.0,
2030.0,1986.0,2053.0,2050.0,0.0,0.0,
2028.0,2022.0,2053.0,2062.0,0.0,0.0,
2013.0,2011.0,2050.0,2051.0,0.0,0.0,
2043.0,1996.0,2056.0,2046.0,0.0,0.0,
2053.0,1994.0,2059.0,2058.0,0.0,0.0,
2040.0,2000.0,2053.0,2050.0,0.0,0.0,
2033.0,2013.0,2053.0,2039.0,0.0,0.0,
2020.0,2020.0,2056.0,2018.0,0.0,0.0,
2029.0,2021.0,2052.0,2009.0,0.0,0.0,
2018.0,2014.0,2053.0,2021.0,0.0,0.0,
2006.0,2004.0,2051.0,2027.0,0.0,0.0,
2031.0,1987.0,2054.0,2065.0,0.0,0.0,
2043.0,1992.0,2056.0,2052.0,0.0,0.0,
2022.0,1997.0,2052.0,2050.0,0.0,0.0,
2063.0,1985.0,2057.0,2036.0,0.0,0.0,
2042.0,1978.0,2055.0,2052.0,0.0,0.0,
2034.0,1998.0,2056.0,2046.0,0.0,0.0,
2027.0,2011.0,2055.0,2038.0,0.0,0.0,
2027.0,2022.0,2054.0,2045.0,0.0,0.0,
2044.0,2001.0,2052.0,2049.0,0.0,0.0,
2035.0,2007.0,2054.0,2045.0,0.0,0.0,
2030.0,2027.0,2051.0,2028.0,0.0,0.0,
2024.0,2035.0,2052.0,2020.0,0.0,0.0,
2019.0,2039.0,2052.0,2026.0,0.0,0.0,
2010.0,2043.0,2051.0,2027.0,0.0,0.0,
2047.0,1981.0,2056.0,2053.0,0.0,0.0,
2041.0,1966.0,2055.0,2082.0,0.0,0.0,
2032.0,1976.0,2049.0,2049.0,0.0,0.0,
2035.0,2001.0,2054.0,2038.0,0.0,0.0,
2021.0,2020.0,2052.0,2039.0,0,0,
2043.0,2016.0,2055.0,2032.0,0.0,0.0,
2023.0,1991.0,2054.0,2029.0,0.0,0.0,
2022.0,1999.0,2046.0,2030.0,0.0,0.0,
2013.0,2016.0,2049.0,2045.0,0.0,0.0,
2036.0,2020.0,2054.0,2042.0,0.0,0.0,
2032.0,2052.0,2057.0,2064.0,0.0,0.0,
2026.0,2042.0,2052.0,2058.0,0.0,0.0,
2020.0,1981.0,2053.0,2053.0,0.0,0.0,
2022.0,1990.0,2053.0,2031.0,0.0,0.0,
2011.0,1974.0,2053.0,2022.0,0.0,0.0,
2043.0,1969.0,2056.0,2035.0,0.0,0.0,
2035.0,1993.0,2055.0,2036.0,0.0,0.0,
2056.0,2010.0,2060.0,2025.0,0.0,0.0,
2042.0,2021.0,2058.0,2008.0,0.0,0.0,
2035.0,1995.0,2054.0,2022.0,0.0,0.0,
2026.0,1988.0,2052.0,2036.0,0.0,0.0,
2014.0,2009.0,2055.0,2043.0,0.0,0.0,
2011.0,2021.0,2050.0,2057.0,0.0,0.0,
2030.0,2031.0,2053.0,2052.0,0.0,0.0,
2044.0,2019.0,2052.0,2022.0,0.0,0.0,
2038.0,2016.0,2053.0,2033.0,0.0,0.0,
2035.0,2028.0,2051.0,2066.0,0.0,0.0,
2018.0,2004.0,2056.0,2049.0,0.0,0.0,
2034.0,2022.0,2054.0,2056.0,0.0,0.0,
2022.0,1999.0,2051.0,2041.0,0.0,0.0,
2019.0,2002.0,2050.0,2032.0,0,0,
2045.0,1991.0,2051.0,2028.0,0.0,0.0,
2056.0,1998.0,2054.0,2053.0,0.0,0.0,
2048.0,1979.0,2052.0,2061.0,0.0,0.0,
2042.0,2006.0,2052.0,2055.0,0.0,0.0,
2034.0,1991.0,2053.0,2043.0,0.0,0.0,
2021.0,2010.0,2051.0,2030.0,0.0,0.0,
2027.0,1993.0,2053.0,2026.0,0.0,0.0,
2011.0,2007.0,2047.0,2031.0,0.0,0.0,
2002.0,2014.0,2048.0,2036.0,0.0,0.0,
2041.0,2016.0,2058.0,2051.0,0.0,0.0,
2055.0,2020.0,2057.0,2008.0,0.0,0.0,
2034.0,2029.0,2052.0,2028.0,0.0,0.0,
2030.0,2022.0,2053.0,2051.0,0.0,0.0,
2027.0,2023.0,2053.0,2065.0,0.0,0.0,
2009.0,1990.0,2047.0,2048.0,0.0,0.0,
2019.0,2020.0,2051.0,2049.0,0.0,0.0,
2026.0,2043.0,2054.0,2036.0,0.0,0.0,
2035.0,1955.0,2049.0,2063.0,0.0,0.0,
2046.0,1942.0,2053.0,2092.0,0.0,0.0,
2046.0,1978.0,2051.0,2054.0,0.0,0.0,
2047.0,1982.0,2053.0,2030.0,0.0,0.0,
2030.0,1999.0,2050.0,1994.0,0.0,0.0,
2025.0,2000.0,2051.0,2011.0,0.0,0.0,
2015.0,2017.0,2048.0,2027.0,0.0,0.0,
2035.0,2023.0,2054.0,2018.0,0.0,0.0,
2047.0,2037.0,2056.0,2016.0,0.0,0.0,
2038.0,2029.0,2051.0,2018.0,0.0,0.0,
2035.0,2020.0,2052.0,2032.0,0.0,0.0,
2022.0,2028.0,2053.0,2048.0,0.0,0.0,
2014.0,1992.0,2052.0,2068.0,0.0,0.0,
2014.0,2014.0,2055.0,2060.0,0.0,0.0,
2019.0,2034.0,2051.0,2048.0,0.0,0.0,
2023.0,1997.0,2055.0,2049.0,0.0,0.0,
2034.0,1978.0,2051.0,2058.0,0.0,0.0,
2050.0,1993.0,2051.0,2063.0,0.0,0.0,
2030.0,2017.0,2056.0,2053.0,0.0,0.0,
2018.0,2009.0,2053.0,2033.0,0.0,0.0,
2011.0,2001.0,2054.0,2053.0,0.0,0.0,
2025.0,2007.0,2054.0,2036.0,0.0,0.0,
2034.0,1983.0,2057.0,2024.0,0,0,
2042.0,1999.0,2058.0,2036.0,0.0,0.0,
2054.0,1959.0,2055.0,2038.0,0.0,0.0,
2050.0,2007.0,2058.0,2046.0,0.0,0.0,
2024.0,2020.0,2054.0,2040.0,0.0,0.0,
2045.0,2023.0,2056.0,2031.0,0.0,0.0,
2037.0,2034.0,2055.0,2020.0,0.0,0.0,
2016.0,2030.0,2052.0,2045.0,0.0,0.0,
2010.0,1987.0,2049.0,2021.0,0.0,0.0,
2061.0,1992.0,2060.0,2042.0,0.0,0.0,
2056.0,2003.0,2061.0,2034.0,0.0,0.0,
2040.0,1998.0,2056.0,2052.0,0.0,0.0,
2009.0,2003.0,2047.0,2064.0,0.0,0.0,
2012.0,2008.0,2049.0,2055.0,0.0,0.0,
2017.0,1995.0,2056.0,2040.0,0.0,0.0,
2018.0,2007.0,2053.0,2020.0,0.0,0.0,
2028.0,1997.0,2054.0,2040.0,0.0,0.0,
2040.0,1994.0,2056.0,2044.0,0.0,0.0,
2047.0,2004.0,2054.0,2032.0,0.0,0.0,
2031.0,2016.0,2056.0,2031.0,0.0,0.0,
2023.0,2019.0,2050.0,2043.0,0.0,0,
2016.0,2007.0,2058.0,2044.0,0.0,0.0,
2015.0,2010.0,2051.0,2053.0,0.0,0.0,
2028.0,2014.0,2054.0,2070.0,0.0,0.0,
2025.0,2020.0,2054.0,2052.0,0.0,0.0,
2051.0,2012.0,2058.0,2025.0,0.0,0.0,
2057.0,2003.0,2055.0,2011.0,0.0,0.0,
2041.0,1996.0,2054.0,2014.0,0.0,0.0,
2029.0,1998.0,2048.0,2035.0,0.0,0.0,
2001.0,2004.0,2044.0,2039.0,0.0,0.0,
2004.0,2002.0,2051.0,2037.0,0.0,0.0,
2032.0,2001.0,2051.0,2032.0,0.0,0.0,
2034.0,2002.0,2052.0,2040.0,0.0,-1.0,
2051.0,2022.0,2063.0,2045.0,0.0,-1.0,
2023.0,2015.0,2051.0,2050.0,0.0,-1.0,
2015.0,2032.0,2048.0,2031.0,0.0,-1.0,
2020.0,2016.0,2053.0,2014.0,0.0,-1.0,
2001.0,2004.0,2049.0,2008.0,0.0,-1.0,
2010.0,1992.0,2052.0,2048.0,0.0,-1.0,
2045.0,1992.0,2056.0,2068.0,0.0,-1.0,
2040.0,1980.0,2056.0,2075.0,0.0,-2.0,
2060.0,2002.0,2054.0,2076.0,0.0,-2.0,
2054.0,1988.0,2051.0,2047.0,0,0,
2048.0,2000.0,2052.0,2045.0,0.0,-2.0,
2035.0,2011.0,2051.0,2035.0,0.0,-2.0,
2013.0,2015.0,2050.0,2030.0,0.0,-2.0,
1999.0,1972.0,2049.0,2068.0,0.0,-2.0,
2030.0,2006.0,2057.0,2066.0,0.0,-2.0,
2029.0,1998.0,2057.0,2038.0,0.0,-2.0,
2018.0,2013.0,2052.0,2033.0,0.0,-2.0,
2024.0,2008.0,2052.0,2040.0,0.0,-2.0,
2026.0,2015.0,2053.0,2034.0,0.0,-2.0,
2032.0,2014.0,2051.0,2027.0,0.0,-2.0,
2026.0,2014.0,2053.0,2013.0,0.0,-2.0,
2009.0,2018.0,2051.0,2018.0,0.0,-2.0,
2045.0,2020.0,2057.0,2026.0,0.0,0,
2058.0,1983.0,2061.0,2027.0,0.0,-2.0,
2044.0,1990.0,2056.0,2037.0,0.0,-2.0,
2074.0,2021.0,2056.0,2042.0,0.0,-2.0,
2032.0,2016.0,2054.0,2041.0,0.0,-2.0,
2008.0,2008.0,2047.0,2067.0,0.0,-2.0,
2016.0,2005.0,2050.0,2086.0,0.0,-2.0,
2015.0,2004.0,2055.0,2051.0,0.0,-2.0,
2012.0,2059.0,2053.0,2011.0,0.0,-2.0,
2023.0,2018.0,2052.0,2006.0,0.0,-2.0,
2041.0,2002.0,2055.0,2034.0,0.0,-2.0,
2041.0,1989.0,2053.0,2036.0,0.0,-2.0,
2027.0,1970.0,2053.0,2025.0,0.0,-2.0,
2039.0,2002.0,2053.0,2043.0,0.0,-2.0,
2034.0,2005.0,2050.0,2038.0,0.0,-1.0,
2022.0,2007.0,2053.0,2060.0,0.0,-1.0,
2029.0,2007.0,2056.0,2067.0,0.0,-1.0,
2036.0,2007.0,2054.0,2038.0,0.0,-1.0,
2030.0,2001.0,2052.0,2049.0,0.0,-1.0,
2021.0,1977.0,2046.0,2045.0,0.0,-1.0,
2028.0,2001.0,2056.0,2046.0,0.0,-1.0,
2037.0,2013.0,2052.0,2043.0,0.0,-1.0,
2028.0,2007.0,2055.0,2034.0,0.0,-1.0,
2044.0,2016.0,2056.0,2038.0,0.0,-1.0,
2038.0,2012.0,2056.0,2030.0,0,0,
2027.0,2021.0,2053.0,2035.0,0.0,-1.0,
2039.0,2000.0,2055.0,2040.0,0.0,-1.0,
2026.0,2010.0,2052.0,2058.0,0.0,-1.0,
2009.0,1998.0,2052.0,2035.0,0.0,-1.0,
2026.0,1990.0,2058.0,2044.0,0.0,-1.0,
2035.0,1986.0,2054.0,2053.0,0.0,-1.0,
2038.0,2013.0,2054.0,2048.0,0.0,-1.0,
2018.0,2013.0,2054.0,2035.0,0.0,-1.0,
2019.0,2014.0,2055.0,2036.0,0.0,-1.0,
2043.0,2003.0,2056.0,2024.0,0.0,-1.0,
2033.0,1996.0,2053.0,2030.0,0.0,-1.0,
2021.0,2026.0,2054.0,2054.0,0.0,-1.0,
2001.0,2023.0,2049.0,2034.0,0.0,-2.0,
2028.0,2024.0,2051.0,2031.0,0.0,-2.0,
2047.0,2035.0,2057.0,2066.0,0.0,-2.0,
2033.0,1986.0,2056.0,2065.0,0.0,-2.0,
2041.0,1974.0,2050.0,2046.0,0.0,-2.0,
2016.0,2014.0,2054.0,2054.0,0.0,-2.0,
2030.0,2019.0,2053.0,2055.0,0.0,-2.0,
2012.0,1978.0,2051.0,2043.0,0.0,-2.0,
2032.0,1994.0,2052.0,2045.0,0.0,-2.0,
2031.0,1998.0,2054.0,2033.0,0.0,-2.0,
2042.0,2017.0,2053.0,2008.0,0.0,-2.0,
2035.0,2026.0,2052.0,2018.0,0.0,-2.0,
2017.0,2082.0,2050.0,2009.0,0.0,-2.0,
2002.0,2055.0,2049.0,2034.0,0.0,-2.0,
1997.0,1977.0,2048.0,2046.0,0.0,-2.0,
2010.0,1946.0,2049.0,2030.0,0.0,-2.0,
2028.0,1971.0,2052.0,2051.0,0.0,-2.0,
2060.0,1989.0,2061.0,2074.0,0.0,-2.0,
2077.0,1958.0,2063.0,2066.0,0.0,-2.0,
2044.0,1992.0,2057.0,2045.0,0.0,-2.0,
2036.0,2018.0,2047.0,2046.0,0.0,-2.0,
2049.0,2011.0,2056.0,2053.0,0.0,-2.0,
2042.0,2003.0,2054.0,2036.0,0.0,-2.0,
2034.0,2025.0,2051.0,2014.0,0.0,-2.0,
2018.0,2058.0,2051.0,2010.0,0.0,-2.0,
2035.0,1982.0,2056.0,2042.0,0.0,-1.0,
2010.0,1960.0,2055.0,2043.0,0.0,-1.0,
2035.0,2020.0,2052.0,2024.0,0.0,-1.0,
2030.0,2047.0,2052.0,2021.0,0.0,-1.0,
2010.0,2038.0,2048.0,2013.0,0.0,-1.0,
2029.0,2004.0,2051.0,2054.0,0.0,-1.0,
2027.0,2016.0,2055.0,2054.0,0.0,-1.0,
2008.0,1996.0,2051.0,2052.0,1.0,-1.0,
2023.0,2007.0,2054.0,2040.0,1.0,-1.0,
2043.0,2007.0,2060.0,2064.0,0.0,0.0,
2040.0,1990.0,2056.0,2079.0,0.0,0.0,
2042.0,1988.0,2057.0,2052.0,0.0,0.0,
2044.0,2002.0,2061.0,2023.0,0.0,0.0,
1992.0,2017.0,2048.0,2025.0,0.0,0.0,
2014.0,1996.0,2049.0,2017.0,0.0,0.0,
2021.0,2014.0,2052.0,2016.0,0.0,0.0,
2040.0,2009.0,2057.0,2036.0,0.0,0.0,
2022.0,2036.0,2055.0,2043.0,0.0,0.0,
2006.0,2002.0,2049.0,2063.0,0.0,0.0,
2006.0,1984.0,2048.0,2055.0,0.0,0.0,
2047.0,1977.0,2054.0,2069.0,0.0,0.0,
2034.0,2001.0,2055.0,2055.0,0.0,0.0,
2059.0,2023.0,2055.0,2048.0,1.0,0.0,
2030.0,2029.0,2051.0,2025.0,1.0,0.0,
1999.0,2001.0,2048.0,2018.0,1.0,0.0,
2029.0,1986.0,2051.0,2023.0,1.0,0.0,
2034.0,1979.0,2056.0,2036.0,1.0,0.0,
2024.0,1987.0,2051.0,2039.0,1.0,0.0,
2011.0,2018.0,2051.0,2053.0,1.0,0.0,
2030.0,2055.0,2055.0,2059.0,1.0,-1.0,
2033.0,2036.0,2052.0,2060.0,1.0,-1.0,
2022.0,1965.0,2057.0,2054.0,1.0,-1.0,
1997.0,2001.0,2050.0,2060.0,1.0,-1.0,
2050.0,2078.0,2055.0,2061.0,1.0,-1.0,
2032.0,1959.0,2051.0,1999.0,1.0,-1.0,
2027.0,1992.0,2046.0,2005.0,1.0,-1.0,
2036.0,1949.0,2053.0,2065.0,1.0,-2.0,
2029.0,1983.0,2055.0,2046.0,1.0,-2.0,
2031.0,2015.0,2055.0,2041.0,1.0,-2.0,
2033.0,2047.0,2052.0,2000.0,0.0,-2.0,
2061.0,2036.0,2057.0,2001.0,0.0,-2.0,
2043.0,1969.0,2061.0,2061.0,0.0,-2.0,
2023.0,2051.0,2054.0,2032.0,0.0,-2.0,
2021.0,2037.0,2051.0,2029.0,0,0,
2037.0,1902.0,2054.0,2065.0,0.0,-2.0,
2026.0,1977.0,2057.0,2063.0,0.0,-2.0,
1998.0,2029.0,2051.0,2056.0,0.0,-2.0,
2008.0,2056.0,2048.0,2051.0,0.0,-2.0,
2035.0,2044.0,2053.0,2037.0,0.0,-2.0,
2044.0,1996.0,2058.0,2027.0,0.0,-2.0,
2057.0,1965.0,2050.0,2074.0,0.0,-2.0,
2036.0,1956.0,2051.0,2080.0,0.0,-2.0,
2026.0,2008.0,2053.0,2017.0,0.0,-2.0,
2009.0,2026.0,2045.0,2023.0,0.0,-2.0,
2042.0,2019.0,2053.0,2046.0,0.0,-2.0,
2048.0,1993.0,2058.0,2051.0,0.0,-1.0,
2070.0,2029.0,2055.0,2028.0,0.0,-1.0,
2064.0,2081.0,2053.0,2016.0,0.0,-1.0,
2008.0,2066.0,2051.0,2015.0,0.0,-1.0,
1993.0,1990.0,2044.0,1992.0,0.0,-1.0,
2030.0,1984.0,2053.0,2013.0,0.0,-1.0,
2041.0,1956.0,2049.0,2023.0,1.0,-1.0,
2061.0,1906.0,2053.0,2061.0,1.0,-2.0,
2058.0,1953.0,2063.0,2105.0,1.0,-2.0,
2036.0,2061.0,2048.0,2084.0,1.0,-2.0,
2014.0,2077.0,2048.0,2069.0,1.0,-2.0,
2019.0,2049.0,2050.0,2057.0,1.0,-2.0,
2030.0,1995.0,2047.0,2052.0,1.0,-2.0,
1981.0,2067.0,2044.0,2042.0,1.0,-2.0,
1997.0,2116.0,2052.0,1988.0,1.0,-2.0,
2055.0,2058.0,2058.0,2017.0,1.0,-2.0,
1992.0,1982.0,2046.0,2032.0,1.0,-2.0,
2104.0,1895.0,2061.0,2021.0,1.0,-2.0,
2113.0,1886.0,2062.0,2053.0,1.0,-3.0,
2036.0,1990.0,2053.0,1992.0,1.0,-3.0,
2035.0,2028.0,2050.0,2019.0,1.0,-3.0,
1988.0,1904.0,2049.0,2027.0,1.0,-3.0,
1993.0,1957.0,2048.0,2053.0,1.0,-4.0,
2004.0,2039.0,2051.0,2129.0,1.0,-4.0,
2123.0,2046.0,2064.0,2137.0,1.0,-4.0,
2037.0,2039.0,2060.0,2125.0,1.0,-4.0,
2031.0,1907.0,2053.0,2079.0,1.0,-4.0,
2025.0,1992.0,2053.0,1999.0,1.0,-5.0,
2011.0,1993.0,2049.0,1998.0,1.0,-5.0,
1999.0,2039.0,2047.0,2075.0,1.0,-5.0,
2032.0,2021.0,2056.0,2002.0,1.0,-5.0,
2034.0,2058.0,2054.0,2013.0,1.0,-5.0,
2014.0,2035.0,2054.0,1919.0,1.0,-5.0,
2083.0,2055.0,2061.0,2014.0,1.0,-5.0,
2053.0,1963.0,2056.0,2009.0,1.0,-5.0,
2021.0,1946.0,2052.0,2046.0,2.0,-5.0,
1999.0,2062.0,2047.0,2089.0,2.0,-5.0,
1971.0,2143.0,2044.0,2073.0,2.0,-5.0,
2044.0,2149.0,2059.0,2048.0,2.0,-5.0,
2053.0,1851.0,2061.0,1996.0,2.0,-5.0,
2004.0,1953.0,2049.0,2012.0,2.0,-5.0,
2001.0,2007.0,2049.0,2016.0,1.0,-5.0,
2069.0,2048.0,2058.0,2045.0,1.0,-5.0,
2054.0,1921.0,2055.0,2007.0,1.0,-5.0,
2065.0,1946.0,2051.0,2071.0,1.0,-5.0,
2091.0,1940.0,2057.0,2081.0,1.0,-6.0,
2057.0,1976.0,2053.0,2055.0,1.0,-6.0,
2052.0,2053.0,2053.0,2055.0,1.0,-6.0,
2056.0,2024.0,2058.0,2016.0,1.0,-6.0,
2009.0,2037.0,2050.0,2050.0,1.0,-6.0,
2025.0,2063.0,2054.0,2050.0,1.0,-8.0,
2038.0,2051.0,2055.0,2052.0,1.0,-8.0,
1985.0,1906.0,2041.0,2050.0,1.0,-9.0,
1987.0,1953.0,2048.0,2052.0,0,0,
1992.0,2020.0,2046.0,2025.0,1.0,-9.0,
1985.0,2029.0,2047.0,1993.0,0.0,-10.0,
2019.0,2030.0,2053.0,2020.0,0.0,-11.0,
2009.0,2059.0,2047.0,2073.0,0.0,-12.0,
2024.0,1938.0,2052.0,2069.0,0.0,-12.0,
2005.0,1933.0,2049.0,2065.0,1.0,-12.0,
2050.0,1973.0,2061.0,2047.0,1.0,-13.0,
2093.0,2079.0,2063.0,2102.0,1.0,-13.0,
2080.0,2293.0,2058.0,2052.0,1.0,-14.0,
2125.0,1982.0,2071.0,1982.0,1.0,-14.0,
2004.0,1822.0,2046.0,1893.0,1.0,-15.0,
1957.0,1928.0,2034.0,2038.0,1.0,-16.0,
1998.0,2036.0,2047.0,2096.0,1.0,-16.0,
2035.0,1933.0,2050.0,2077.0,1.0,-17.0,
2043.0,1985.0,2051.0,2060.0,1.0,-17.0,
2030.0,1985.0,2050.0,2058.0,1.0,-18.0,
2019.0,1986.0,2051.0,2065.0,1.0,-18.0,
2051.0,2005.0,2051.0,2022.0,1.0,-18.0,
2055.0,2049.0,2057.0,2018.0,1.0,-18.0,
1993.0,2047.0,2048.0,2074.0,1.0,-19.0,
1966.0,2005.0,2041.0,2022.0,2.0,-19.0,
2014.0,2051.0,2047.0,2050.0,2.0,-19.0,
2077.0,1957.0,2059.0,2095.0,2.0,-19.0,
2084.0,1931.0,2063.0,2111.0,1.0,-19.0,
2058.0,1973.0,2060.0,2065.0,1.0,-19.0,
2061.0,2015.0,2056.0,1976.0,1.0,-20.0,
2029.0,2178.0,2051.0,2038.0,1.0,-20.0,
2041.0,2035.0,2047.0,2012.0,1.0,-21.0,
1993.0,1993.0,2041.0,1996.0,1.0,-21.0,
2013.0,1994.0,2048.0,1996.0,2.0,-22.0,
2026.0,2029.0,2050.0,2019.0,2.0,-22.0,
2043.0,1970.0,2057.0,1993.0,2.0,-23.0,
2073.0,1973.0,2057.0,2046.0,2.0,-23.0,
2031.0,1996.0,2049.0,2061.0,2.0,-23.0,
2013.0,2068.0,2048.0,2079.0,1.0,-24.0,
2076.0,1943.0,2059.0,2058.0,2.0,-24.0,
2004.0,1953.0,2050.0,2025.0,2.0,-24.0,
2001.0,2101.0,2046.0,2063.0,2.0,-25.0,
2089.0,1976.0,2065.0,2025.0,2.0,-25.0,
2069.0,2066.0,2055.0,2012.0,2.0,-26.0,
1991.0,1961.0,2045.0,1934.0,1.0,-26.0,
1978.0,1978.0,2043.0,2019.0,1.0,-26.0,
2047.0,2031.0,2059.0,2086.0,2.0,-27.0,
2059.0,1939.0,2060.0,2145.0,2.0,-27.0,
1995.0,1962.0,2046.0,2087.0,2.0,-27.0,
2072.0,1994.0,2063.0,1991.0,2.0,-27.0,
2083.0,1976.0,2063.0,2091.0,2.0,-28.0,
2076.0,2004.0,2057.0,2055.0,2.0,-28.0,
2025.0,2107.0,2048.0,2022.0,2.0,-28.0,
2011.0,1986.0,2055.0,2021.0,2.0,-28.0,
1988.0,1980.0,2048.0,2019.0,2.0,-28.0,
1997.0,2029.0,2059.0,2025.0,2.0,-28.0,
2022.0,2051.0,2054.0,2081.0,2.0,-29.0,
2036.0,1956.0,2049.0,2079.0,2.0,-29.0,
2057.0,2008.0,2055.0,2068.0,2.0,-30.0,
2035.0,2067.0,2051.0,2022.0,2.0,-30.0,
2034.0,2016.0,2060.0,2059.0,2.0,-31.0,
1993.0,1982.0,2048.0,2012.0,2.0,-31.0,
1966.0,2061.0,2041.0,2034.0,2.0,-32.0,
2066.0,2099.0,2057.0,2009.0,2.0,-32.0,
2134.0,1863.0,2065.0,2038.0,2.0,-33.0,
2046.0,1945.0,2049.0,2037.0,2.0,-33.0,
2057.0,1945.0,2058.0,2075.0,2.0,-34.0,
2035.0,1904.0,2053.0,2061.0,2.0,-35.0,
2015.0,2042.0,2051.0,2039.0,2.0,-35.0,
2023.0,2030.0,2053.0,2015.0,2.0,-36.0,
2003.0,2085.0,2052.0,2022.0,2.0,-37.0,
1978.0,2024.0,2040.0,1966.0,2.0,-37.0,
2094.0,2046.0,2067.0,2029.0,2.0,-38.0,
2054.0,2015.0,2055.0,2040.0,2.0,-39.0,
2059.0,1947.0,2055.0,2122.0,2.0,-40.0,
1958.0,1928.0,2037.0,2034.0,2.0,-40.0,
2087.0,2065.0,2060.0,1982.0,2.0,-41.0,
2007.0,1963.0,2050.0,1953.0,2.0,-41.0,
2009.0,2057.0,2041.0,2111.0,2.0,-42.0,
1976.0,1907.0,2045.0,2111.0,2.0,-42.0,
2038.0,2034.0,2057.0,2149.0,2.0,-43.0,
1984.0,1997.0,2049.0,2063.0,1.0,-43.0,
2070.0,2000.0,2056.0,2019.0,1.0,-43.0,
2052.0,2063.0,2055.0,2040.0,1.0,-44.0,
2076.0,2112.0,2055.0,2073.0,1.0,-44.0,
2014.0,2005.0,2051.0,2008.0,1.0,-44.0,
1973.0,1996.0,2050.0,1996.0,1.0,-44.0,
2014.0,1986.0,2058.0,2008.0,1.0,-44.0,
2071.0,2012.0,2060.0,2018.0,1.0,-44.0,
2055.0,2108.0,2053.0,2055.0,1.0,-44.0,
2070.0,1935.0,2063.0,1981.0,1.0,-43.0,
2034.0,2022.0,2053.0,2009.0,1.0,-43.0,
1977.0,1968.0,2050.0,2029.0,1.0,-43.0,
2019.0,1972.0,2051.0,2134.0,1.0,-43.0,
2045.0,1933.0,2057.0,2106.0,1.0,-43.0,
2021.0,2042.0,2051.0,2068.0,1.0,-42.0,
2036.0,2065.0,2053.0,2057.0,1.0,-42.0,
2099.0,2096.0,2066.0,2018.0,1.0,-42.0,
2039.0,1883.0,2061.0,1963.0,1.0,-41.0,
1978.0,1967.0,2042.0,2008.0,1.0,-41.0,
2022.0,2119.0,2045.0,2014.0,1.0,-41.0,
2058.0,1943.0,2057.0,2024.0,1.0,-41.0,
2035.0,2009.0,2048.0,2021.0,1.0,-41.0,
2066.0,2042.0,2063.0,2045.0,1.0,-41.0,
1997.0,1962.0,2046.0,2111.0,1.0,-41.0,
2041.0,1962.0,2052.0,2034.0,1.0,-42.0,
2056.0,1864.0,2053.0,2023.0,1.0,-42.0,
2013.0,1989.0,2045.0,2048.0,1.0,-42.0,
2052.0,2089.0,2052.0,2091.0,1.0,-42.0,
2004.0,2072.0,2048.0,2069.0,1.0,-43.0,
2034.0,2109.0,2057.0,2062.0,1.0,-43.0,
1992.0,2086.0,2053.0,2035.0,1.0,-43.0,
2109.0,2022.0,2069.0,2001.0,0.0,-44.0,
1994.0,1926.0,2042.0,2100.0,1.0,-45.0,
2034.0,1965.0,2054.0,2026.0,1.0,-45.0,
2016.0,2111.0,2046.0,2051.0,1.0,-46.0,
1993.0,2086.0,2046.0,2041.0,1.0,-46.0,
2021.0,1955.0,2060.0,2029.0,1.0,-47.0,
2026.0,1906.0,2051.0,2039.0,1.0,-47.0,
2089.0,1943.0,2049.0,2048.0,1.0,-48.0,
2091.0,2070.0,2050.0,2055.0,1.0,-48.0,
2034.0,2063.0,2050.0,1975.0,1.0,-49.0,
1957.0,2051.0,2043.0,1960.0,1.0,-49.0,
2073.0,2032.0,2063.0,2066.0,1.0,-49.0,
2058.0,2149.0,2049.0,2111.0,1.0,-50.0,
2028.0,1775.0,2057.0,2000.0,1.0,-50.0,
2020.0,1918.0,2049.0,2070.0,2.0,-50.0,
2055.0,2051.0,2052.0,1997.0,2.0,-50.0,
2053.0,2042.0,2054.0,2020.0,2.0,-50.0,
2036.0,2133.0,2048.0,2027.0,2.0,-50.0,
2068.0,1932.0,2056.0,2030.0,2.0,-50.0,
2069.0,1911.0,2055.0,2017.0,2.0,-50.0,
2030.0,1931.0,2051.0,2040.0,2.0,-50.0,
2040.0,1976.0,2051.0,2068.0,2.0,-50.0,
2034.0,2076.0,2056.0,2134.0,2.0,-50.0,
2007.0,2014.0,2051.0,2075.0,2.0,-49.0,
2003.0,2003.0,2051.0,2064.0,2.0,-49.0,
2030.0,1984.0,2053.0,2078.0,2.0,-49.0,
2039.0,1990.0,2054.0,2052.0,2.0,-49.0,
1996.0,2004.0,2053.0,2062.0,1.0,-49.0,
2095.0,2077.0,2063.0,1947.0,1.0,-49.0,
1984.0,2084.0,2042.0,1992.0,1.0,-48.0,
2009.0,2001.0,2051.0,1983.0,1.0,-48.0,
2005.0,1953.0,2052.0,2035.0,1.0,-48.0,
2056.0,2011.0,2058.0,2077.0,1.0,-49.0,
2032.0,2076.0,2056.0,2045.0,1.0,-49.0,
2069.0,2028.0,2060.0,2060.0,1.0,-49.0,
2034.0,2021.0,2052.0,2006.0,1.0,-49.0,
2023.0,1917.0,2053.0,1994.0,1.0,-50.0,
2008.0,2075.0,2047.0,2100.0,1.0,-50.0,
2077.0,2081.0,2061.0,2063.0,1.0,-50.0,
1974.0,1872.0,2045.0,2080.0,1.0,-51.0,
1985.0,2033.0,2041.0,2072.0,1.0,-51.0,
2009.0,2020.0,2049.0,1974.0,1.0,-52.0,
1959.0,2009.0,2038.0,2009.0,1.0,-52.0,
2122.0,2074.0,2067.0,2062.0,0.0,-53.0,
2016.0,1998.0,2051.0,2029.0,0.0,-53.0,
2038.0,2014.0,2054.0,2067.0,0.0,-54.0,
2084.0,1894.0,2062.0,2123.0,0.0,-54.0,
1960.0,2049.0,2042.0,2168.0,0.0,-54.0,
2023.0,2056.0,2050.0,2087.0,0.0,-55.0,
2071.0,1968.0,2058.0,1943.0,0.0,-55.0,
2036.0,1994.0,2052.0,1997.0,0.0,-55.0,
1941.0,2025.0,2038.0,2036.0,0.0,-56.0,
2047.0,2013.0,2054.0,2021.0,0.0,-56.0,
2077.0,1972.0,2053.0,1981.0,0.0,-56.0,
2089.0,1914.0,2057.0,2049.0,0.0,-56.0,
2029.0,1959.0,2044.0,2073.0,0.0,-56.0,
2047.0,2034.0,2050.0,2058.0,0.0,-56.0,
1980.0,2046.0,2040.0,1989.0,0.0,-56.0,
2065.0,2053.0,2053.0,2050.0,0.0,-56.0,
2028.0,1968.0,2048.0,2010.0,0.0,-56.0,
1992.0,2078.0,2043.0,2048.0,0.0,-55.0,
2085.0,1987.0,2062.0,2035.0,0.0,-55.0,
2066.0,2005.0,2056.0,2022.0,0.0,-55.0,
1996.0,2012.0,2046.0,2019.0,0.0,-55.0,
2045.0,2010.0,2054.0,2027.0,0.0,-55.0,
2002.0,2003.0,2046.0,2024.0,0.0,-55.0,
1995.0,1915.0,2050.0,2060.0,0.0,-55.0,
2000.0,2018.0,2048.0,2082.0,0.0,-55.0,
2078.0,2075.0,2064.0,2077.0,0.0,-55.0,
2044.0,1912.0,2060.0,2042.0,0.0,-55.0,
1917.0,2080.0,2033.0,2051.0,0,0,
2052.0,2128.0,2059.0,2042.0,0.0,-55.0,
2075.0,1984.0,2053.0,2021.0,0.0,-55.0,
2105.0,1984.0,2063.0,2045.0,0.0,-55.0,
2066.0,2061.0,2061.0,2010.0,0,0,
2011.0,2017.0,2050.0,1981.0,0.0,-55.0,
1985.0,1961.0,2047.0,1970.0,0.0,-56.0,
2015.0,1949.0,2049.0,2077.0,0.0,-56.0,
1984.0,1955.0,2043.0,2105.0,0.0,-56.0,
2035.0,2002.0,2051.0,2120.0,0.0,-56.0,
2042.0,2016.0,2053.0,2051.0,0.0,-56.0,
2025.0,2044.0,2048.0,2051.0,0,0,
2033.0,1971.0,2051.0,2051.0,0.0,-57.0,
2088.0,2026.0,2060.0,2057.0,0.0,-57.0,
2025.0,2006.0,2051.0,2000.0,0.0,-57.0,
2033.0,2036.0,2050.0,2069.0,0.0,-57.0,
2045.0,2024.0,2053.0,1986.0,0.0,-58.0,
2016.0,1979.0,2054.0,1959.0,0.0,-58.0,
2019.0,1928.0,2049.0,2066.0,0.0,-58.0,
2054.0,1994.0,2055.0,2060.0,0.0,-58.0,
2034.0,1915.0,2057.0,2050.0,0.0,-59.0,
2008.0,2012.0,2048.0,2068.0,0.0,-59.0,
2018.0,2089.0,2055.0,2024.0,0.0,-59.0,
2096.0,2033.0,2059.0,1967.0,0.0,-59.0,
2020.0,2044.0,2047.0,2002.0,0.0,0,
2023.0,1981.0,2048.0,2106.0,0.0,-60.0,
2011.0,1985.0,2062.0,2082.0,0.0,-60.0,
2037.0,2039.0,2053.0,2085.0,0.0,-60.0,
2047.0,2014.0,2056.0,2057.0,0.0,-60.0,
2050.0,1965.0,2053.0,1995.0,0.0,-60.0,
2010.0,2005.0,2046.0,2034.0,0.0,-60.0,
1998.0,2035.0,2022.0,2039.0,0.0,-61.0,
2008.0,1989.0,2006.0,2088.0,0.0,-61.0,
2073.0,2029.0,2056.0,2113.0,0.0,-61.0,
2065.0,2017.0,2101.0,1980.0,0.0,-61.0,
1968.0,1923.0,2097.0,2025.0,0.0,-61.0,
2072.0,1980.0,2081.0,2071.0,0.0,-61.0,
2015.0,2014.0,2046.0,2018.0,0.0,-61.0,
2048.0,2021.0,2058.0,2033.0,0.0,-61.0,
2028.0,2079.0,2052.0,2054.0,0.0,-61.0,
1994.0,2021.0,2047.0,2014.0,0.0,-61.0,
2064.0,2052.0,2054.0,2042.0,0.0,-60.0,
2087.0,1914.0,2061.0,2076.0,0.0,-60.0,
2010.0,1960.0,2048.0,2084.0,0.0,-60.0,
2075.0,2011.0,2056.0,1982.0,0.0,-60.0,
1981.0,2057.0,2043.0,1999.0,0.0,-60.0,
2003.0,1968.0,2049.0,1966.0,0.0,-60.0,
2020.0,1963.0,2047.0,2024.0,0.0,-60.0,
2046.0,2034.0,2049.0,2057.0,0.0,-60.0,
2053.0,1985.0,2044.0,1997.0,0.0,-60.0,
2042.0,2074.0,2045.0,2010.0,0.0,-60.0,
2055.0,2005.0,2060.0,2113.0,0.0,-60.0,
2022.0,2022.0,2053.0,2097.0,0.0,-60.0,
2061.0,2001.0,2078.0,2057.0,0.0,-60.0,
2014.0,2084.0,2053.0,2042.0,0.0,-60.0,
2042.0,2035.0,2057.0,2018.0,0.0,-60.0,
2019.0,1995.0,2055.0,2032.0,0.0,-60.0,
2038.0,2009.0,2058.0,2034.0,0.0,-60.0,
1944.0,1955.0,2052.0,2040.0,0.0,-60.0,
2090.0,2013.0,2075.0,2083.0,0.0,-61.0,
2055.0,2128.0,2056.0,2064.0,0.0,-61.0,
2022.0,2020.0,2028.0,2073.0,0.0,-62.0,
2060.0,1852.0,2048.0,1945.0,0.0,-62.0,
2036.0,1993.0,2048.0,2115.0,0.0,-62.0,
2045.0,1987.0,2051.0,2094.0,0.0,-63.0,
2013.0,1990.0,2050.0,2035.0,0.0,-63.0,
2073.0,2104.0,2048.0,2046.0,0.0,-63.0,
1988.0,2037.0,2049.0,1964.0,0.0,-64.0,
2016.0,2068.0,2054.0,2039.0,0.0,-64.0,
1987.0,1925.0,2045.0,2086.0,0.0,-65.0,
2060.0,1956.0,2058.0,2100.0,0.0,-66.0,
2019.0,1982.0,2048.0,2054.0,0.0,0,
2092.0,1974.0,2064.0,2031.0,0.0,-66.0,
2080.0,2046.0,2054.0,2055.0,0.0,-66.0,
2005.0,2031.0,2048.0,2013.0,0.0,-67.0,
1967.0,2038.0,2045.0,2075.0,0.0,-67.0,
1992.0,2016.0,2049.0,2099.0,0.0,-67.0,
1966.0,1960.0,2049.0,2111.0,0.0,-67.0,
2102.0,2001.0,2067.0,1985.0,0.0,-67.0,
2136.0,1976.0,2068.0,2056.0,0.0,-67.0,
2120.0,2022.0,2061.0,2005.0,0.0,-67.0,
2013.0,2000.0,2050.0,2025.0,0.0,-66.0,
1971.0,2035.0,2049.0,2006.0,0.0,-66.0,
1993.0,2019.0,2045.0,1988.0,0.0,-66.0,
2061.0,2084.0,2057.0,2004.0,0.0,0,
2021.0,1995.0,2053.0,2040.0,0.0,-66.0,
2044.0,2042.0,2058.0,2060.0,0.0,-65.0,
2005.0,2036.0,2052.0,2047.0,0.0,-65.0,
2036.0,2017.0,2056.0,2042.0,0.0,-64.0,
2008.0,2014.0,2049.0,2015.0,0.0,-64.0,
2025.0,1989.0,2054.0,2008.0,0.0,-63.0,
2023.0,2037.0,2053.0,2028.0,0.0,-63.0,
2033.0,2059.0,2057.0,2062.0,0.0,-62.0,
2016.0,2008.0,2055.0,2071.0,0.0,-62.0,
2025.0,1941.0,2055.0,2041.0,0.0,-62.0,
1995.0,1984.0,2048.0,2001.0,0.0,-62.0,
2052.0,1921.0,2061.0,2045.0,0.0,-61.0,
2026.0,1982.0,2053.0,2036.0,0.0,-61.0,
1998.0,2003.0,2046.0,2052.0,0.0,-61.0,
1988.0,2044.0,2044.0,2053.0,0.0,-61.0,
2054.0,2063.0,2056.0,2046.0,0.0,-61.0,
2059.0,1984.0,2059.0,2050.0,0.0,-61.0,
2052.0,1990.0,2052.0,2083.0,0.0,-61.0,
2019.0,2002.0,2047.0,2043.0,0.0,-61.0,
2019.0,2092.0,2049.0,2059.0,0.0,-61.0,
2069.0,2003.0,2054.0,2023.0,0.0,-61.0,
2007.0,1974.0,2053.0,2010.0,0.0,-62.0,
2018.0,2002.0,2052.0,2054.0,0.0,-62.0,
2031.0,2021.0,2055.0,2071.0,0.0,-63.0,
2058.0,2032.0,2068.0,2092.0,0.0,-63.0,
2049.0,2036.0,2055.0,2045.0,0.0,0,
1995.0,2026.0,2047.0,2076.0,0.0,-63.0,
2014.0,2049.0,2050.0,2071.0,0.0,-63.0,
2007.0,1967.0,2051.0,2044.0,0.0,-64.0,
2051.0,2000.0,2056.0,1959.0,0.0,-64.0,
2052.0,1993.0,2059.0,2003.0,0.0,-64.0,
2054.0,1982.0,2064.0,1987.0,0.0,-64.0,
1993.0,1963.0,2057.0,2040.0,0.0,-64.0,
2077.0,1986.0,2060.0,2062.0,0.0,-65.0,
2033.0,2004.0,2053.0,2072.0,0.0,-65.0,
2038.0,1993.0,2048.0,2079.0,0.0,-65.0,
1986.0,1959.0,2046.0,2034.0,0.0,-65.0,
2026.0,1945.0,2059.0,2005.0,0.0,-65.0,
2065.0,2002.0,2059.0,2041.0,0.0,-64.0,
2064.0,2035.0,2057.0,2107.0,0.0,-64.0,
2017.0,1988.0,2056.0,2086.0,0.0,-64.0,
2041.0,2023.0,2059.0,1940.0,0.0,-64.0,
2038.0,2017.0,2057.0,2011.0,0.0,-64.0,
2014.0,2022.0,2053.0,2031.0,0.0,-63.0,
2077.0,2107.0,2051.0,2034.0,0.0,-63.0,
2021.0,1913.0,2058.0,1909.0,0.0,-63.0,
2030.0,1996.0,2052.0,2021.0,0.0,-62.0,
2079.0,2029.0,2060.0,2111.0,0.0,-62.0,
2018.0,2007.0,2047.0,2154.0,0.0,-62.0,
1991.0,1994.0,2047.0,2059.0,0.0,-62.0,
2044.0,2068.0,2064.0,2081.0,0.0,-61.0,
2037.0,2057.0,2055.0,2001.0,0.0,-61.0,
1972.0,1968.0,2048.0,2007.0,0.0,-61.0,
2067.0,1885.0,2060.0,2020.0,0.0,-61.0,
2036.0,1981.0,2054.0,2041.0,0.0,-61.0,
2020.0,2022.0,2050.0,2064.0,0.0,-61.0,
2044.0,2026.0,2059.0,2034.0,0,0,
2011.0,2012.0,2052.0,2073.0,0.0,-61.0,
2007.0,2025.0,2050.0,2028.0,0.0,-61.0,
2012.0,2006.0,2051.0,2024.0,0.0,-61.0,
2040.0,2049.0,2057.0,2048.0,0.0,-61.0,
2013.0,1979.0,2053.0,2034.0,0.0,-61.0,
2015.0,2003.0,2050.0,2027.0,0.0,-61.0,
2064.0,2037.0,2058.0,2055.0,0.0,-61.0,
2058.0,1946.0,2057.0,2153.0,0.0,-61.0,
1954.0,2025.0,2041.0,2019.0,0.0,-61.0,
2039.0,1978.0,2053.0,1986.0,0.0,-61.0,
2051.0,2041.0,2050.0,2059.0,0.0,-61.0,
2072.0,2065.0,2059.0,2027.0,0.0,-62.0,
2039.0,1982.0,2058.0,1994.0,0.0,-62.0,
2055.0,2002.0,2056.0,2037.0,0.0,-62.0,
2034.0,1964.0,2054.0,2019.0,0.0,-62.0,
2048.0,2007.0,2056.0,2051.0,0.0,-62.0,
2021.0,2064.0,2049.0,2058.0,0.0,-62.0,
2025.0,2002.0,2052.0,2039.0,0.0,-62.0,
2003.0,1991.0,2061.0,2069.0,0.0,-62.0,
2020.0,2029.0,2064.0,2067.0,0.0,-62.0,
2052.0,2013.0,2053.0,2070.0,0.0,-62.0,
1973.0,2005.0,2027.0,2045.0,0.0,-62.0,
2068.0,1989.0,2048.0,2061.0,0.0,-62.0,
2034.0,1982.0,2046.0,2002.0,0.0,-62.0,
2003.0,1986.0,2048.0,2007.0,0.0,-62.0,
1983.0,2015.0,2044.0,2044.0,0.0,-62.0,
2037.0,2058.0,2052.0,2029.0,0.0,-62.0,
2034.0,2044.0,2053.0,2035.0,0.0,-62.0,
2017.0,2035.0,2053.0,2027.0,0.0,-62.0,
2096.0,1945.0,2065.0,2010.0,0.0,-62.0,
2031.0,1883.0,2053.0,2046.0,0.0,-62.0,
2007.0,1973.0,2056.0,2088.0,0.0,-62.0,
1994.0,1959.0,2046.0,2069.0,0.0,-62.0,
2012.0,2004.0,2052.0,2027.0,0.0,-62.0,
2049.0,2033.0,2059.0,1992.0,0.0,-62.0,
2068.0,2045.0,2056.0,2016.0,0.0,-62.0,
2040.0,1956.0,2058.0,2037.0,0.0,-61.0,
2003.0,2044.0,2054.0,2107.0,0.0,-61.0,
2000.0,2117.0,2051.0,2028.0,0.0,-61.0,
2028.0,2037.0,2054.0,2051.0,0.0,-61.0,
2029.0,1998.0,2059.0,2054.0,0.0,-61.0,
2040.0,1947.0,2060.0,2041.0,0.0,-61.0,
2039.0,2002.0,2058.0,2103.0,0.0,-61.0,
2045.0,1990.0,2061.0,2097.0,0.0,-60.0,
2069.0,2007.0,2061.0,1983.0,0.0,-60.0,
2070.0,1994.0,2063.0,2035.0,0.0,-60.0,
2044.0,2042.0,2057.0,2102.0,0.0,-60.0,
2017.0,2032.0,2050.0,1995.0,0.0,-60.0,
2032.0,1974.0,2053.0,2054.0,0.0,-60.0,
2001.0,1975.0,2050.0,2067.0,0.0,-60.0,
2011.0,2040.0,2054.0,1972.0,0.0,-61.0,
2031.0,2083.0,2054.0,2021.0,0.0,-61.0,
2020.0,2028.0,2053.0,2002.0,0.0,-61.0,
2028.0,1973.0,2051.0,1988.0,0.0,-61.0,
1992.0,1955.0,2051.0,2063.0,0.0,-61.0,
2043.0,2002.0,2058.0,2046.0,0.0,-61.0,
2020.0,2066.0,2050.0,2036.0,0.0,-62.0,
2001.0,1991.0,2048.0,2053.0,0.0,-62.0,
2015.0,1971.0,2050.0,2092.0,0.0,-62.0,
1983.0,1982.0,2045.0,2032.0,0.0,-62.0,
2053.0,2004.0,2056.0,2027.0,0.0,-62.0,
2024.0,2023.0,2049.0,2072.0,0.0,-62.0,
2044.0,2020.0,2053.0,2035.0,0.0,-62.0,
2040.0,2020.0,2049.0,2029.0,0.0,-62.0,
2082.0,2012.0,2061.0,2032.0,0.0,-62.0,
2004.0,1999.0,2048.0,2035.0,0.0,-63.0,
2063.0,1932.0,2055.0,2039.0,0.0,-63.0,
2057.0,1980.0,2055.0,2066.0,0.0,-63.0,
2041.0,2046.0,2055.0,2002.0,0.0,-63.0,
2009.0,2048.0,2049.0,2057.0,0.0,-63.0,
2039.0,1987.0,2051.0,2079.0,0,0,
2024.0,1999.0,2054.0,2049.0,0.0,-63.0,
2020.0,2037.0,2053.0,2059.0,0.0,-62.0,
2052.0,2029.0,2058.0,2041.0,0.0,-62.0,
2015.0,2001.0,2055.0,2025.0,0.0,-62.0,
1994.0,1990.0,2047.0,2043.0,0.0,-62.0,
2015.0,2016.0,2050.0,2041.0,0.0,-62.0,
2061.0,1961.0,2057.0,2035.0,0.0,-62.0,
2039.0,2003.0,2054.0,2088.0,0.0,-62.0,
2044.0,2012.0,2056.0,2096.0,0.0,-62.0,
2018.0,2003.0,2051.0,1944.0,0.0,-62.0,
2028.0,2092.0,2053.0,2006.0,0.0,-62.0,
2075.0,2040.0,2057.0,2002.0,0.0,-62.0,
2060.0,1964.0,2063.0,1986.0,0.0,-62.0,
2034.0,1976.0,2056.0,2039.0,0.0,-61.0,
1994.0,2026.0,2047.0,2094.0,0.0,-61.0,
2036.0,2043.0,2055.0,2030.0,0.0,-61.0,
2037.0,1978.0,2057.0,2006.0,0.0,-61.0,
2074.0,2006.0,2064.0,2033.0,0.0,-61.0,
2041.0,1933.0,2054.0,2071.0,0.0,-61.0,
2038.0,1916.0,2054.0,2105.0,0.0,-61.0,
2007.0,2055.0,2056.0,2042.0,0.0,-61.0,
2008.0,2024.0,2050.0,2029.0,0.0,-61.0,
2020.0,2091.0,2051.0,2034.0,0.0,-61.0,
2042.0,1992.0,2060.0,2045.0,0.0,-61.0,
2032.0,2002.0,2054.0,2080.0,0.0,-61.0,
2023.0,1989.0,2053.0,2075.0,0.0,-61.0,
2061.0,1988.0,2058.0,2060.0,0.0,-62.0,
2028.0,2008.0,2055.0,2009.0,0.0,-62.0,
2022.0,2021.0,2053.0,2012.0,0.0,-62.0,
2033.0,2034.0,2052.0,2011.0,0.0,-62.0,
1986.0,1991.0,2048.0,2024.0,0.0,-62.0,
2046.0,2021.0,2054.0,2070.0,0.0,-62.0,
2032.0,2021.0,2054.0,2049.0,0.0,-62.0,
2071.0,2043.0,2063.0,2085.0,0.0,-62.0,
2029.0,1962.0,2052.0,2112.0,0.0,-62.0,
2011.0,2002.0,2050.0,2031.0,0.0,-62.0,
2044.0,2004.0,2058.0,1926.0,0.0,-63.0,
2019.0,2005.0,2055.0,2021.0,0.0,-63.0,
2050.0,2078.0,2059.0,2015.0,0.0,-63.0,
2103.0,2050.0,2064.0,1993.0,0.0,-63.0,
2022.0,1966.0,2051.0,2079.0,0.0,-63.0,
2015.0,1916.0,2045.0,2052.0,0.0,-63.0,
1985.0,2003.0,2051.0,2090.0,0.0,-63.0,
2014.0,1975.0,2052.0,2061.0,0.0,-63.0,
2025.0,1990.0,2056.0,2064.0,0.0,-63.0,
2033.0,2017.0,2057.0,2050.0,0.0,-63.0,
2041.0,2013.0,2060.0,2038.0,0.0,-63.0,
2051.0,2048.0,2055.0,2030.0,0.0,-63.0,
2043.0,1997.0,2067.0,2045.0,0.0,-63.0,
2063.0,1994.0,2059.0,2039.0,0.0,-63.0,
2001.0,1988.0,2047.0,2046.0,0.0,-63.0,
2023.0,2016.0,2051.0,2050.0,0.0,-63.0,
2070.0,2013.0,2056.0,2039.0,0.0,-63.0,
1984.0,2014.0,2049.0,2003.0,0.0,-62.0,
2006.0,2087.0,2053.0,2037.0,0.0,-62.0,
2006.0,1917.0,2056.0,2025.0,0.0,-62.0,
2017.0,1969.0,2051.0,2075.0,0.0,-62.0,
2030.0,2003.0,2049.0,2083.0,0.0,-62.0,
2026.0,2064.0,2054.0,2043.0,0.0,-62.0,
2041.0,1986.0,2054.0,2038.0,0.0,-62.0,
2033.0,2023.0,2054.0,2014.0,0.0,-62.0,
2065.0,2007.0,2059.0,2031.0,0.0,-62.0,
2033.0,1934.0,2057.0,2004.0,0.0,-62.0,
2044.0,1973.0,2056.0,2041.0,0.0,-62.0,
2044.0,1992.0,2056.0,2056.0,0.0,-61.0,
2031.0,2005.0,2057.0,2030.0,0.0,-61.0,
2019.0,2043.0,2054.0,2052.0,0.0,-61.0,
2017.0,2021.0,2054.0,2058.0,0.0,-61.0,
1998.0,2014.0,2046.0,2056.0,0.0,-61.0,
2072.0,1999.0,2059.0,2046.0,0.0,-61.0,
2049.0,2055.0,2054.0,2058.0,0.0,-61.0,
2026.0,1985.0,2050.0,2034.0,0.0,-61.0,
2035.0,1996.0,2052.0,2027.0,0.0,-61.0,
2057.0,2011.0,2052.0,2031.0,0.0,-61.0,
2025.0,2027.0,2049.0,2028.0,0.0,-61.0,
2018.0,1999.0,2050.0,2039.0,0.0,-61.0,
2013.0,2013.0,2052.0,2029.0,0.0,-61.0,
2046.0,2066.0,2058.0,2051.0,0.0,-61.0,
2011.0,1982.0,2054.0,2075.0,0.0,-61.0,
2039.0,2002.0,2055.0,2129.0,0.0,-61.0,
1976.0,1972.0,2048.0,1972.0,0.0,-61.0,
2049.0,2020.0,2054.0,2009.0,0.0,-61.0,
2008.0,1973.0,2050.0,2030.0,0.0,-61.0,
2030.0,2064.0,2056.0,2031.0,0.0,-61.0,
2039.0,2029.0,2053.0,2048.0,0.0,-61.0,
2033.0,2000.0,2055.0,2050.0,0.0,-61.0,
2032.0,2003.0,2054.0,2061.0,0.0,-61.0,
2051.0,1980.0,2050.0,2036.0,0.0,-62.0,
1985.0,1946.0,2048.0,2037.0,0.0,-62.0,
2023.0,1958.0,2049.0,2097.0,0.0,-62.0,
2036.0,1982.0,2052.0,2063.0,0.0,-62.0,
2040.0,2017.0,2054.0,1994.0,0.0,-62.0,
2063.0,2010.0,2054.0,2002.0,0.0,-62.0,
1997.0,2060.0,2047.0,2079.0,0.0,-62.0,
2048.0,2017.0,2055.0,2045.0,0.0,-62.0,
2033.0,1965.0,2052.0,2045.0,0.0,-62.0,
2000.0,1987.0,2049.0,2032.0,0.0,-62.0,
2064.0,2010.0,2054.0,2002.0,0.0,-62.0,
2054.0,2030.0,2054.0,2033.0,0.0,-62.0,
2042.0,2002.0,2054.0,2017.0,0.0,-61.0,
2054.0,1992.0,2051.0,2044.0,0.0,-61.0,
1983.0,2061.0,2047.0,2075.0,0.0,-61.0,
1998.0,2046.0,2049.0,2059.0,0.0,-61.0,
2039.0,1981.0,2052.0,2042.0,0.0,-61.0,
2031.0,1992.0,2055.0,2058.0,0.0,-61.0,
2034.0,1989.0,2055.0,2027.0,0.0,-61.0,
2047.0,2030.0,2057.0,2052.0,0.0,-61.0,
2021.0,1959.0,2055.0,2026.0,0.0,-61.0,
2060.0,2011.0,2058.0,2054.0,0.0,-61.0,
2036.0,1985.0,2055.0,2060.0,0.0,-61.0,
1998.0,2001.0,2051.0,2012.0,0.0,-61.0,
2029.0,1984.0,2049.0,2031.0,0.0,-60.0,
2044.0,1982.0,2055.0,2046.0,0.0,-60.0,
2082.0,1993.0,2056.0,2046.0,0.0,-60.0,
2046.0,2011.0,2052.0,2047.0,0.0,-60.0,
2008.0,2026.0,2054.0,2060.0,0.0,-60.0,
1995.0,2031.0,2048.0,2044.0,0.0,-60.0,
2067.0,2028.0,2058.0,1999.0,0.0,-60.0,
1988.0,2005.0,2050.0,2011.0,0.0,-60.0,
2019.0,1996.0,2060.0,2059.0,0.0,-60.0,
2049.0,2007.0,2056.0,2058.0,0.0,-60.0,
2020.0,1965.0,2049.0,2028.0,0.0,-60.0,
2057.0,2021.0,2054.0,2028.0,0.0,-60.0,
2000.0,2066.0,2043.0,2061.0,0,0,
1974.0,2009.0,2048.0,2020.0,0.0,-60.0,
2010.0,1975.0,2047.0,2060.0,0.0,-61.0,
1999.0,1954.0,2047.0,2106.0,0.0,-61.0,
2054.0,1984.0,2055.0,2120.0,0.0,-61.0,
2037.0,1978.0,2059.0,2002.0,0.0,-61.0,
2022.0,2042.0,2049.0,2041.0,0.0,-61.0,
2045.0,2041.0,2053.0,2024.0,0.0,-61.0,
2016.0,1973.0,2052.0,2049.0,0.0,-61.0,
2008.0,2015.0,2051.0,2000.0,0.0,-61.0,
2037.0,2014.0,2056.0,2036.0,0.0,-61.0,
2005.0,2055.0,2049.0,2012.0,0.0,-61.0,
2091.0,2007.0,2060.0,2036.0,0.0,-61.0,
2025.0,1940.0,2053.0,2035.0,0.0,-61.0,
2033.0,1963.0,2054.0,2043.0,0.0,-61.0,
2051.0,1986.0,2062.0,2027.0,0.0,-61.0,
2032.0,2032.0,2050.0,2034.0,0.0,-61.0,
2020.0,2015.0,2049.0,2058.0,0.0,-61.0,
2009.0,2041.0,2050.0,2060.0,0.0,-61.0,
2049.0,2073.0,2054.0,2041.0,0.0,-61.0,
2035.0,1919.0,2052.0,2036.0,0.0,-61.0,
2053.0,2008.0,2054.0,2055.0,0.0,-61.0,
2034.0,2026.0,2054.0,2028.0,0.0,-61.0,
2063.0,2012.0,2059.0,2035.0,0.0,-61.0,
2042.0,1979.0,2059.0,2042.0,0,0,
1990.0,2043.0,2051.0,2032.0,0.0,-61.0,
2015.0,2013.0,2052.0,2045.0,0.0,-61.0,
2007.0,1971.0,2049.0,2017.0,0.0,-61.0,
2078.0,1999.0,2061.0,2050.0,0.0,-61.0,
2055.0,2033.0,2058.0,2060.0,0.0,-61.0,
2038.0,1996.0,2054.0,2038.0,0.0,-61.0,
2024.0,1994.0,2050.0,2073.0,0.0,-61.0,
2021.0,1982.0,2052.0,2039.0,0.0,-61.0,
2024.0,1967.0,2057.0,2028.0,0.0,-61.0,
2044.0,2024.0,2058.0,2046.0,0.0,-61.0,
2008.0,2030.0,2053.0,2038.0,0.0,-60.0,
2047.0,2047.0,2055.0,2061.0,0.0,-60.0,
2068.0,1996.0,2059.0,2041.0,0.0,-61.0,
2020.0,2021.0,2049.0,2025.0,0.0,-61.0,
2032.0,1975.0,2055.0,1981.0,0.0,-61.0,
1992.0,2001.0,2051.0,2008.0,0.0,0,
2056.0,2011.0,2057.0,2035.0,0.0,-61.0,
2028.0,2002.0,2053.0,2118.0,0.0,-61.0,
2015.0,2051.0,2055.0,2092.0,0.0,-61.0,
2025.0,2042.0,2052.0,2081.0,0.0,-61.0,
2066.0,1972.0,2053.0,2066.0,0.0,-61.0,
2025.0,1976.0,2052.0,2036.0,0.0,-61.0,
2021.0,2013.0,2048.0,2046.0,0.0,-61.0,
2033.0,1999.0,2044.0,2032.0,0.0,-61.0,
2025.0,2007.0,2051.0,2005.0,0.0,-61.0,
2035.0,2025.0,2054.0,2026.0,0.0,-61.0,
2040.0,2062.0,2057.0,2029.0,0.0,-61.0,
2010.0,1987.0,2049.0,2020.0,0.0,-61.0,
2022.0,2001.0,2055.0,2080.0,0.0,-61.0,
2000.0,2034.0,2051.0,2091.0,0.0,-61.0,
2026.0,1979.0,2053.0,1952.0,0.0,-61.0,
2035.0,1937.0,2054.0,2050.0,0.0,-61.0,
2037.0,1971.0,2055.0,2036.0,0.0,-61.0,
2055.0,2002.0,2055.0,2045.0,0.0,-61.0,
2062.0,1993.0,2056.0,2035.0,0.0,-61.0,
2047.0,2013.0,2058.0,2055.0,0.0,-61.0,
2045.0,2011.0,2051.0,2063.0,0.0,-61.0,
2048.0,1992.0,2055.0,2029.0,0.0,-62.0,
2012.0,2051.0,2056.0,2079.0,0.0,-62.0,
2027.0,2003.0,2051.0,2040.0,0.0,-62.0,
2021.0,2021.0,2052.0,2044.0,0.0,-62.0,
2065.0,2015.0,2058.0,2026.0,0.0,-62.0,
2071.0,2021.0,2059.0,2019.0,0.0,-61.0,
2006.0,2007.0,2046.0,2029.0,0.0,-61.0,
2036.0,2027.0,2036.0,2031.0,0.0,-61.0,
1992.0,2047.0,2047.0,2052.0,0.0,-61.0,
2034.0,2056.0,2055.0,2049.0,0.0,-61.0,
2038.0,1963.0,2050.0,2058.0,0.0,-61.0,
1990.0,2032.0,2041.0,2057.0,0.0,-61.0,
2058.0,1951.0,2058.0,2013.0,0.0,-61.0,
2045.0,1989.0,2056.0,2021.0,0.0,-61.0,
2016.0,1994.0,2049.0,2065.0,0.0,-61.0,
2008.0,1987.0,2048.0,2054.0,0.0,-61.0,
2013.0,2030.0,2055.0,2053.0,0.0,-61.0,
2051.0,2005.0,2054.0,2046.0,0.0,-61.0,
2050.0,2015.0,2055.0,2044.0,0.0,-61.0,
2061.0,2018.0,2054.0,2045.0,0.0,-61.0,
1996.0,1961.0,2046.0,2038.0,0.0,-61.0,
2046.0,2007.0,2058.0,2042.0,0.0,-60.0,
2043.0,2014.0,2055.0,2038.0,0.0,-60.0,
2004.0,1972.0,2048.0,2010.0,0.0,-60.0,
2044.0,2013.0,2051.0,2006.0,0.0,-60.0,
2024.0,2054.0,2051.0,2039.0,0.0,-60.0,
2030.0,2001.0,2055.0,2060.0,0.0,-60.0,
2035.0,2020.0,2057.0,2093.0,0.0,-61.0,
1992.0,1998.0,2054.0,2048.0,0.0,-61.0,
2056.0,1971.0,2062.0,2028.0,0.0,-61.0,
2056.0,1974.0,2059.0,2030.0,0.0,-61.0,
2031.0,1998.0,2051.0,2038.0,0.0,-61.0,
2043.0,2060.0,2059.0,2044.0,0.0,-61.0,
2016.0,2079.0,2051.0,2043.0,0.0,-61.0,
2032.0,2051.0,2054.0,2045.0,0.0,-61.0,
1997.0,1977.0,2052.0,2045.0,0.0,-61.0,
1979.0,1938.0,2045.0,2036.0,0.0,-61.0,
2033.0,1992.0,2053.0,2046.0,0.0,-61.0,
2046.0,2037.0,2055.0,2047.0,0.0,-61.0,
2070.0,2041.0,2054.0,2082.0,0.0,-61.0,
2051.0,2011.0,2056.0,2062.0,0.0,-61.0,
2011.0,2021.0,2045.0,2007.0,0.0,-61.0,
2037.0,1990.0,2058.0,2012.0,0.0,-61.0,
2028.0,1963.0,2055.0,2066.0,0.0,-61.0,
2044.0,1944.0,2057.0,2038.0,0.0,-61.0,
2044.0,2017.0,2058.0,2022.0,0.0,-61.0,
1982.0,1968.0,2050.0,2045.0,0.0,-61.0,
2015.0,2002.0,2051.0,2034.0,0.0,-61.0,
2035.0,2015.0,2056.0,2047.0,0.0,-61.0,
2058.0,2031.0,2058.0,2050.0,0.0,-61.0,
2029.0,2019.0,2050.0,2025.0,0.0,-61.0,
2025.0,2015.0,2051.0,2047.0,0.0,-61.0,
2029.0,2029.0,2052.0,2033.0,0.0,-61.0,
1990.0,2028.0,2045.0,2011.0,0.0,-61.0,
1978.0,2069.0,2049.0,2026.0,0.0,-61.0,
2090.0,1926.0,2062.0,2033.0,0,0,
2060.0,1970.0,2050.0,2037.0,0.0,-61.0,
2038.0,1989.0,2052.0,2055.0,0.0,-61.0,
2049.0,2013.0,2051.0,2048.0,0.0,-61.0,
2056.0,1983.0,2059.0,2077.0,0.0,-61.0,
2012.0,2015.0,2048.0,2066.0,0.0,-61.0,
2031.0,2030.0,2054.0,2062.0,0.0,-61.0,
2026.0,1981.0,2051.0,2017.0,0.0,-61.0,
1991.0,2035.0,2049.0,2022.0,0.0,-61.0,
2022.0,2018.0,2049.0,2018.0,0.0,-61.0,
2013.0,1988.0,2051.0,2033.0,0.0,-61.0,
2053.0,1999.0,2053.0,2048.0,0.0,-61.0,
2057.0,2014.0,2053.0,2062.0,0.0,-61.0,
2040.0,2019.0,2055.0,2025.0,0.0,-61.0,
2034.0,2045.0,2050.0,2033.0,0.0,-61.0,
2037.0,2058.0,2057.0,2055.0,0.0,-61.0,
2021.0,1965.0,2054.0,2041.0,0.0,-61.0,
2054.0,1971.0,2056.0,2059.0,0.0,-61.0,
2058.0,2012.0,2054.0,2059.0,0.0,-60.0,
2035.0,1967.0,2050.0,2027.0,0.0,-60.0,
2027.0,1996.0,2051.0,2029.0,0.0,-60.0,
2037.0,2008.0,2057.0,2030.0,0.0,-60.0,
2004.0,2085.0,2053.0,2059.0,0.0,-61.0,
2019.0,1979.0,2056.0,2030.0,0.0,-61.0,
2031.0,1991.0,2057.0,2040.0,0.0,-61.0,
2066.0,2007.0,2062.0,2059.0,0.0,-61.0,
2051.0,1990.0,2052.0,2049.0,0.0,-61.0,
2055.0,1990.0,2058.0,1983.0,0.0,-61.0,
2042.0,1995.0,2053.0,1990.0,0.0,-61.0,
1978.0,2036.0,2044.0,2076.0,0.0,-61.0,
2011.0,2012.0,2049.0,2070.0,0.0,-61.0,
2062.0,2026.0,2058.0,2083.0,0.0,-61.0,
2015.0,2021.0,2051.0,2045.0,0.0,0,
2030.0,2020.0,2055.0,2060.0,0.0,-61.0,
2010.0,1983.0,2054.0,2042.0,0.0,-61.0,
2029.0,2032.0,2054.0,1975.0,0.0,-61.0,
2043.0,2069.0,2051.0,2054.0,0.0,-61.0,
2007.0,1995.0,2046.0,2032.0,0.0,-61.0,
2098.0,1982.0,2061.0,2036.0,0.0,-61.0,
2020.0,1939.0,2048.0,2024.0,0.0,-61.0,
2034.0,1982.0,2050.0,2075.0,0.0,-61.0,
2028.0,1993.0,2052.0,2049.0,0.0,-61.0,
1997.0,2017.0,2046.0,2047.0,0.0,-61.0,
2062.0,2020.0,2055.0,2044.0,0.0,-61.0,
2054.0,2000.0,2054.0,2035.0,0.0,-61.0,
2043.0,2025.0,2053.0,2036.0,0.0,-61.0,
2028.0,1992.0,2051.0,2030.0,0.0,-61.0,
2034.0,1960.0,2056.0,2050.0,0.0,-61.0,
2043.0,2032.0,2057.0,2052.0,0.0,-61.0,
2037.0,2025.0,2054.0,2027.0,0.0,-61.0,
2066.0,1979.0,2057.0,2039.0,0.0,-61.0,
2006.0,1955.0,2052.0,2057.0,0.0,-61.0,
2055.0,2064.0,2057.0,2071.0,0.0,-60.0,
2024.0,2014.0,2052.0,2046.0,0.0,-60.0,
2006.0,2035.0,2055.0,2046.0,0.0,-60.0,
2047.0,2049.0,2054.0,2047.0,0.0,-60.0,
2025.0,1970.0,2050.0,2019.0,0.0,-60.0,
2006.0,2004.0,2052.0,2001.0,0.0,-60.0,
1982.0,2011.0,2050.0,2038.0,0.0,-60.0,
1982.0,2021.0,2048.0,2054.0,0.0,-60.0,
2057.0,2026.0,2062.0,2050.0,0.0,-60.0,
2077.0,2005.0,2062.0,2029.0,0.0,-60.0,
2041.0,1988.0,2058.0,2040.0,0.0,-60.0,
2053.0,1980.0,2057.0,2052.0,0.0,-60.0,
2066.0,1997.0,2057.0,2054.0,0.0,-60.0,
2052.0,2040.0,2054.0,2043.0,0.0,-60.0,
2041.0,2014.0,2055.0,2038.0,0.0,-60.0,
2001.0,2011.0,2050.0,2013.0,0.0,-60.0,
2077.0,1978.0,2062.0,2006.0,0.0,-60.0,
2036.0,1971.0,2056.0,2038.0,0.0,-60.0,
2019.0,1968.0,2054.0,2047.0,0.0,-60.0,
1990.0,2035.0,2051.0,2066.0,0.0,-60.0,
2019.0,1972.0,2053.0,2073.0,0.0,-60.0,
2040.0,1982.0,2052.0,2054.0,0.0,-60.0,
2062.0,2018.0,2060.0,2025.0,0.0,-60.0,
2063.0,2022.0,2057.0,2028.0,0.0,-60.0,
2029.0,1997.0,2052.0,2053.0,0.0,-60.0,
2026.0,2082.0,2052.0,2064.0,0.0,-60.0,
2051.0,2029.0,2059.0,2030.0,0.0,-60.0,
1974.0,2020.0,2044.0,2028.0,0.0,-61.0,
2014.0,1990.0,2054.0,2009.0,0.0,-61.0,
2025.0,1969.0,2051.0,2061.0,0.0,-61.0,
2026.0,1968.0,2048.0,2019.0,0.0,0,
2013.0,2028.0,2048.0,2030.0,0.0,-61.0,
2037.0,2011.0,2055.0,2046.0,0.0,-61.0,
2040.0,2016.0,2056.0,2098.0,0.0,-61.0,
2034.0,2045.0,2054.0,2048.0,0.0,-61.0,
2005.0,2010.0,2049.0,1971.0,0.0,-61.0,
2060.0,2006.0,2059.0,2032.0,0.0,-61.0,
2008.0,2014.0,2055.0,2057.0,0.0,-61.0,
1988.0,2024.0,2045.0,2033.0,0.0,-61.0,
2090.0,2036.0,2063.0,2051.0,0.0,-61.0,
1979.0,2014.0,2050.0,2039.0,0.0,-61.0,
2033.0,2002.0,2054.0,2054.0,0.0,-61.0,
2055.0,1948.0,2058.0,2035.0,0.0,-61.0,
2024.0,2024.0,2050.0,2078.0,0,0,
2017.0,1990.0,2048.0,2002.0,0.0,-61.0,
2014.0,2005.0,2048.0,2002.0,0.0,-61.0,
2056.0,2002.0,2064.0,2040.0,0.0,-61.0,
2048.0,1991.0,2052.0,2087.0,0.0,-61.0,
2069.0,2007.0,2055.0,2096.0,0.0,-61.0,
2009.0,1992.0,2052.0,2060.0,0.0,-61.0,
2015.0,1990.0,2046.0,2058.0,0.0,-61.0,
2086.0,2027.0,2064.0,2044.0,0.0,-61.0,
2052.0,2004.0,2057.0,2021.0,0.0,-61.0,
2035.0,2031.0,2054.0,2047.0,0.0,-61.0,
2045.0,2006.0,2055.0,2041.0,0.0,-61.0,
2025.0,2012.0,2053.0,2028.0,0.0,-61.0,
2058.0,1991.0,2060.0,2020.0,0.0,-61.0,
2038.0,2011.0,2055.0,1992.0,0.0,-61.0,
2018.0,2022.0,2052.0,2019.0,0.0,-61.0,
2028.0,2004.0,2045.0,2048.0,0.0,-60.0,
2058.0,1987.0,2055.0,2047.0,0.0,-60.0,
2032.0,2004.0,2058.0,2049.0,0.0,-60.0,
2046.0,2050.0,2055.0,2030.0,0.0,-60.0,
2019.0,1993.0,2055.0,2034.0,0.0,-60.0,
2023.0,2031.0,2056.0,2042.0,0.0,-60.0,
1978.0,2012.0,2048.0,2028.0,0.0,-60.0,
2023.0,1982.0,2053.0,2023.0,0.0,-60.0,
2005.0,1983.0,2049.0,2072.0,0.0,-60.0,
2011.0,1996.0,2054.0,2079.0,0.0,-60.0,
2037.0,1989.0,2055.0,2067.0,0.0,-60.0,
2072.0,2040.0,2049.0,2054.0,0.0,-60.0,
2055.0,2018.0,2054.0,2016.0,0.0,-60.0,
2062.0,2047.0,2056.0,2013.0,0.0,-60.0,
2038.0,2008.0,2050.0,2027.0,0.0,-60.0,
2036.0,1968.0,2052.0,2058.0,0.0,-60.0,
2004.0,1980.0,2051.0,2063.0,0.0,-60.0,
2014.0,1993.0,2054.0,2093.0,0.0,-60.0,
2062.0,2025.0,2057.0,2031.0,0.0,-60.0,
2023.0,2046.0,2050.0,2027.0,0.0,-60.0,
2008.0,2029.0,2045.0,2032.0,0.0,-60.0,
2033.0,2011.0,2054.0,2036.0,0.0,-60.0,
2006.0,1981.0,2045.0,2014.0,0.0,-60.0,
2040.0,2017.0,2052.0,2006.0,0.0,-60.0,
2044.0,2012.0,2056.0,2030.0,0.0,-60.0,
2046.0,1976.0,2057.0,2064.0,0.0,-60.0,
2023.0,2005.0,2052.0,2073.0,0.0,-60.0,
2014.0,1989.0,2053.0,2031.0,0.0,-60.0,
2025.0,2000.0,2053.0,2028.0,0.0,-60.0,
2022.0,2089.0,2052.0,2033.0,0.0,-60.0,
2029.0,1986.0,2052.0,2070.0,0.0,-60.0,
2045.0,1969.0,2057.0,2058.0,0.0,-60.0,
2003.0,2001.0,2050.0,2065.0,0.0,-60.0,
2075.0,1981.0,2063.0,2022.0,0.0,-60.0,
2068.0,1967.0,2062.0,2017.0,0.0,-60.0,
2031.0,2059.0,2052.0,2047.0,0.0,-60.0,
2033.0,1971.0,2056.0,2015.0,0,0,
2039.0,2032.0,2061.0,2035.0,0.0,-60.0,
1989.0,1986.0,2051.0,2043.0,0.0,-60.0,
2020.0,1983.0,2054.0,2044.0,0.0,-60.0,
2053.0,2046.0,2059.0,2044.0,0.0,-60.0,
2039.0,2021.0,2054.0,2034.0,0.0,-60.0,
1988.0,1999.0,2047.0,2036.0,0.0,-60.0,
2018.0,2015.0,2054.0,2042.0,0.0,-60.0,
1996.0,2048.0,2046.0,2030.0,0.0,-60.0,
2043.0,1966.0,2055.0,2041.0,0.0,-60.0,
2021.0,1975.0,2059.0,2036.0,0.0,-60.0,
2035.0,2003.0,2055.0,2074.0,0.0,-60.0,
2043.0,2000.0,2056.0,2056.0,0.0,-60.0,
2041.0,2006.0,2051.0,2036.0,0.0,-60.0,
2078.0,2042.0,2058.0,2076.0,0.0,-60.0,
2036.0,2023.0,2047.0,2052.0,0.0,-60.0,
2007.0,1978.0,2052.0,2006.0,0.0,-60.0,
2030.0,1977.0,2052.0,2003.0,0.0,-60.0,
2036.0,1994.0,2053.0,2011.0,0.0,-60.0,
2045.0,1976.0,2057.0,2049.0,0.0,-60.0,
2040.0,2001.0,2056.0,2040.0,0.0,-60.0,
2033.0,2043.0,2055.0,2047.0,0.0,-60.0,
2041.0,2074.0,2056.0,2007.0,0.0,-60.0,
1985.0,2016.0,2045.0,2000.0,0.0,-60.0,
1998.0,1983.0,2053.0,2073.0,0.0,-60.0,
2003.0,1960.0,2051.0,2067.0,0.0,-60.0,
2050.0,1996.0,2053.0,2090.0,0.0,-60.0,
2027.0,2030.0,2053.0,2043.0,0.0,-60.0,
2046.0,2072.0,2054.0,2044.0,0.0,-60.0,
2022.0,2002.0,2050.0,2026.0,0.0,-61.0,
2034.0,1985.0,2052.0,2036.0,0.0,-61.0,
2031.0,2053.0,2049.0,2053.0,0.0,-61.0,
2049.0,1988.0,2053.0,2032.0,0.0,-61.0,
2005.0,2022.0,2048.0,1999.0,0.0,-61.0,
2070.0,2011.0,2060.0,2026.0,0.0,-61.0,
2011.0,1967.0,2052.0,2022.0,0.0,-61.0,
2034.0,2011.0,2051.0,2086.0,0.0,-61.0,
2067.0,1984.0,2055.0,2075.0,0.0,-61.0,
2050.0,1996.0,2055.0,2022.0,0.0,-61.0,
1999.0,1993.0,2046.0,2035.0,0.0,-61.0,
2022.0,1989.0,2054.0,2049.0,0.0,-61.0,
2080.0,2024.0,2071.0,2046.0,0.0,-61.0,
2072.0,1985.0,2059.0,2040.0,0.0,-61.0,
2051.0,2022.0,2058.0,2032.0,0.0,-61.0,
2024.0,2023.0,2050.0,2056.0,0.0,-61.0,
1999.0,2019.0,2041.0,2026.0,0.0,-61.0,
2041.0,2065.0,2026.0,2050.0,0.0,-61.0,
2017.0,1964.0,2054.0,2055.0,0.0,-61.0,
1977.0,1990.0,2047.0,2050.0,0.0,-61.0,
2043.0,1998.0,2056.0,2043.0,0.0,-61.0,
2043.0,2000.0,2053.0,2040.0,0.0,-61.0,
2069.0,2011.0,2052.0,2038.0,0.0,-61.0,
2014.0,2006.0,2046.0,2009.0,0.0,-61.0,
2042.0,1970.0,2053.0,2026.0,0.0,-61.0,
2030.0,1998.0,2050.0,2049.0,0.0,-61.0,
2014.0,2015.0,2050.0,2031.0,0.0,-61.0,
2016.0,2015.0,2056.0,2017.0,0.0,-61.0,
2053.0,2029.0,2057.0,2044.0,0.0,-61.0,
2007.0,2021.0,2050.0,1997.0,0.0,-61.0,
2068.0,1990.0,2053.0,2054.0,0.0,-61.0,
2042.0,2032.0,2052.0,2090.0,0.0,-61.0,
2022.0,2016.0,2057.0,2035.0,0.0,-61.0,
2022.0,1969.0,2051.0,2019.0,0.0,-61.0,
2046.0,2062.0,2054.0,2051.0,0.0,-61.0,
2081.0,1990.0,2060.0,2050.0,0.0,-61.0,
2000.0,1962.0,2052.0,2017.0,0.0,-61.0,
2037.0,1975.0,2051.0,2040.0,0.0,-61.0,
1992.0,2062.0,2046.0,2059.0,0.0,-61.0,
2011.0,1995.0,2049.0,2067.0,0.0,-61.0,
2020.0,2005.0,2049.0,2063.0,0.0,-61.0,
2002.0,2000.0,2047.0,2044.0,0.0,-61.0,
2017.0,2044.0,2051.0,2028.0,0.0,-61.0,
2063.0,1959.0,2057.0,2011.0,0.0,-61.0,
2021.0,1971.0,2051.0,2039.0,0.0,-61.0,
2033.0,1969.0,2056.0,2056.0,0.0,-61.0,
2024.0,2053.0,2054.0,2044.0,0.0,-61.0,
2016.0,1982.0,2053.0,2024.0,0.0,-61.0,
2047.0,1993.0,2056.0,2040.0,0.0,-61.0,
2028.0,1977.0,2050.0,2018.0,0.0,-61.0,
2032.0,2038.0,2055.0,2070.0,0.0,-61.0,
2029.0,2007.0,2051.0,2019.0,0.0,-61.0,
2056.0,1998.0,2053.0,2045.0,0.0,-61.0,
2043.0,2011.0,2059.0,2057.0,0,0,
2012.0,2013.0,2053.0,2003.0,0.0,-61.0,
1999.0,2035.0,2048.0,2030.0,0.0,-61.0,
2030.0,2000.0,2055.0,2061.0,0.0,-61.0,
2048.0,2009.0,2052.0,2056.0,0.0,-61.0,
2073.0,1975.0,2059.0,2037.0,0.0,-60.0,
2020.0,2047.0,2053.0,2056.0,0.0,-60.0,
2013.0,1993.0,2052.0,1997.0,0.0,-60.0,
2011.0,1999.0,2049.0,2034.0,0.0,-60.0,
2013.0,2057.0,2051.0,2087.0,0.0,-60.0,
2030.0,2008.0,2052.0,2062.0,0.0,-60.0,
2034.0,1933.0,2054.0,2043.0,0.0,-60.0,
2067.0,1951.0,2060.0,2031.0,0.0,-60.0,
2041.0,1974.0,2054.0,2068.0,0,0,
2005.0,2046.0,2052.0,2045.0,0.0,-60.0,
2050.0,2036.0,2057.0,2042.0,0.0,-60.0,
2032.0,2034.0,2054.0,2001.0,0.0,-60.0,
2025.0,2053.0,2051.0,2023.0,0.0,-60.0,
2036.0,2032.0,2053.0,2049.0,0.0,-60.0,
2060.0,1977.0,2054.0,2056.0,0.0,-60.0,
2007.0,1989.0,2057.0,2014.0,0.0,-60.0,
2050.0,2029.0,2055.0,2038.0,0.0,-60.0,
2003.0,1993.0,2050.0,2008.0,0.0,-60.0,
2013.0,1965.0,2051.0,2031.0,0.0,-61.0,
2025.0,2001.0,2050.0,2056.0,0.0,-61.0,
2000.0,2023.0,2050.0,2047.0,0.0,-61.0,
2029.0,2000.0,2054.0,2061.0,0.0,-61.0,
2046.0,1993.0,2055.0,2041.0,0.0,-61.0,
2044.0,2007.0,2056.0,2044.0,0.0,-61.0,
2050.0,2008.0,2062.0,2032.0,0.0,-61.0,
2045.0,2027.0,2053.0,2017.0,0.0,-61.0,
2035.0,2014.0,2051.0,2022.0,0.0,-61.0,
2046.0,2035.0,2050.0,2074.0,0.0,-61.0,
1996.0,1998.0,2047.0,2011.0,0.0,-61.0,
2026.0,1971.0,2049.0,2095.0,0.0,-61.0,
2025.0,2027.0,2055.0,2045.0,0.0,-61.0,
2043.0,1998.0,2056.0,2053.0,0,0,
2048.0,1990.0,2054.0,2047.0,0.0,-61.0,
2043.0,2068.0,2056.0,2029.0,0.0,-61.0,
2013.0,2038.0,2050.0,2040.0,0.0,-61.0,
2008.0,1991.0,2060.0,2025.0,0.0,-60.0,
2051.0,2006.0,2060.0,2067.0,0.0,-60.0,
2047.0,2019.0,2056.0,2045.0,0.0,-60.0,
2005.0,1924.0,2049.0,2013.0,0.0,-60.0,
2088.0,1972.0,2060.0,2023.0,0.0,-60.0,
2055.0,2008.0,2056.0,2033.0,0.0,-60.0,
2034.0,2025.0,2054.0,2040.0,0.0,-60.0,
2037.0,1979.0,2056.0,2043.0,0.0,-60.0,
2044.0,1962.0,2054.0,2086.0,0.0,-60.0,
2050.0,2025.0,2059.0,2084.0,0.0,-60.0,
2026.0,2063.0,2045.0,2054.0,0.0,-60.0,
2001.0,1999.0,2047.0,2049.0,0.0,-60.0,
2063.0,2016.0,2057.0,2052.0,0.0,-60.0,
2062.0,2001.0,2057.0,2051.0,0.0,-60.0,
1990.0,2017.0,2047.0,1997.0,0.0,-60.0,
2048.0,2041.0,2055.0,2012.0,0.0,-60.0,
2023.0,1998.0,2059.0,2027.0,0.0,-60.0,
2024.0,1995.0,2053.0,2034.0,0.0,-60.0,
2009.0,1985.0,2049.0,2026.0,0.0,-60.0,
2033.0,1990.0,2055.0,2051.0,0.0,-60.0,
2029.0,2007.0,2049.0,2043.0,0.0,-60.0,
2034.0,2053.0,2052.0,2026.0,0.0,-60.0,
1986.0,1996.0,2049.0,2023.0,0.0,-60.0,
2030.0,1988.0,2050.0,2027.0,0.0,-60.0,
2059.0,2010.0,2058.0,2026.0,0.0,-60.0,
2057.0,2020.0,2059.0,2051.0,0.0,-60.0,
2029.0,2011.0,2051.0,2059.0,0.0,-60.0,
2033.0,2008.0,2053.0,2039.0,0.0,-60.0,
2054.0,2019.0,2057.0,2052.0,0.0,-60.0,
2000.0,2004.0,2050.0,2045.0,0.0,-60.0,
2051.0,2048.0,2054.0,2032.0,0.0,-60.0,
2037.0,1986.0,2053.0,2045.0,0.0,-60.0,
2048.0,1962.0,2057.0,2037.0,0.0,-61.0,
2040.0,2034.0,2054.0,2063.0,0.0,-61.0,
2016.0,2008.0,2052.0,2071.0,0.0,-61.0,
2020.0,1994.0,2056.0,2057.0,0.0,-61.0,
2005.0,1979.0,2050.0,2023.0,0.0,-61.0,
1989.0,1959.0,2048.0,2036.0,0.0,-60.0,
2037.0,1996.0,2057.0,2037.0,0.0,-60.0,
2004.0,2007.0,2057.0,2033.0,0.0,-60.0,
2034.0,1992.0,2058.0,2036.0,0.0,-60.0,
2052.0,2002.0,2056.0,2041.0,0.0,-61.0,
2047.0,2025.0,2055.0,2053.0,0.0,-61.0,
2044.0,1968.0,2051.0,2031.0,0.0,-60.0,
2045.0,2015.0,2054.0,2033.0,0.0,-61.0,
2044.0,2034.0,2055.0,2032.0,0.0,-61.0,
2048.0,2041.0,2058.0,2002.0,0.0,-60.0,
2051.0,1962.0,2067.0,2041.0,0.0,-60.0,
2077.0,1950.0,2064.0,2071.0,0.0,-61.0,
2030.0,2055.0,2053.0,2058.0,0.0,-61.0,
1989.0,2001.0,2046.0,2044.0,0.0,-61.0,
2014.0,2043.0,2051.0,2052.0,0.0,-61.0,
2016.0,1968.0,2053.0,2032.0,0.0,-61.0,
2029.0,2008.0,2052.0,2036.0,0.0,-61.0,
2054.0,2025.0,2058.0,2038.0,0.0,-61.0,
2010.0,2031.0,2049.0,1993.0,0.0,-61.0,
2004.0,1992.0,2049.0,2011.0,0.0,-61.0,
2065.0,1997.0,2055.0,2044.0,0.0,-61.0,
2058.0,2009.0,2053.0,2032.0,0.0,-61.0,
2039.0,1997.0,2049.0,2068.0,0.0,-61.0,
2009.0,2003.0,2047.0,2068.0,0.0,-61.0,
1972.0,2032.0,2045.0,2097.0,0.0,-61.0,
2033.0,1992.0,2053.0,2095.0,0.0,-61.0,
2079.0,1996.0,2058.0,2061.0,0.0,-61.0,
2059.0,2009.0,2057.0,2020.0,0.0,-61.0,
2043.0,2028.0,2055.0,2021.0,0.0,-61.0,
1995.0,2034.0,2047.0,2015.0,0.0,-61.0,
2027.0,1993.0,2053.0,2027.0,0.0,-61.0,
2065.0,2014.0,2055.0,2033.0,0.0,-61.0,
2014.0,1988.0,2053.0,2030.0,0.0,-61.0,
2034.0,1971.0,2055.0,2005.0,0.0,-61.0,
2006.0,2017.0,2055.0,2039.0,0.0,-61.0,
2022.0,2008.0,2052.0,2046.0,0.0,-60.0,
2021.0,2020.0,2055.0,2035.0,0.0,-60.0,
2028.0,2017.0,2054.0,2031.0,0.0,-60.0,
2017.0,2044.0,2052.0,2022.0,0.0,-60.0,
2049.0,2013.0,2062.0,2025.0,0.0,-60.0,
2034.0,2020.0,2053.0,2062.0,0,0,
2021.0,1996.0,2053.0,2039.0,0.0,-60.0,
2028.0,2029.0,2056.0,2017.0,0.0,-60.0,
2004.0,1977.0,2052.0,2035.0,0.0,-60.0,
2020.0,1972.0,2055.0,2053.0,0.0,-60.0,
2053.0,1994.0,2059.0,2123.0,0.0,-60.0,
2049.0,2018.0,2054.0,2096.0,0.0,-60.0,
2019.0,2009.0,2052.0,2026.0,0.0,-60.0,
2054.0,1998.0,2053.0,2030.0,0,0,
2040.0,1992.0,2051.0,2048.0,0.0,-60.0,
2072.0,2007.0,2056.0,2027.0,0.0,-60.0,
2021.0,1989.0,2046.0,2021.0,0.0,-60.0,
2014.0,1991.0,2054.0,2030.0,0.0,-60.0,
2014.0,2015.0,2048.0,2041.0,0.0,-60.0,
2045.0,1999.0,2051.0,2047.0,0.0,-60.0,
2009.0,2007.0,2048.0,2012.0,0.0,-60.0,
2016.0,1987.0,2051.0,2017.0,0.0,-60.0,
2060.0,1999.0,2057.0,2054.0,0.0,-60.0,
1992.0,2001.0,2044.0,2071.0,0.0,-60.0,
1999.0,2035.0,2051.0,2077.0,0.0,-60.0,
2003.0,2019.0,2051.0,2026.0,0.0,-60.0,
2012.0,2016.0,2051.0,2028.0,0.0,-60.0,
2041.0,2012.0,2055.0,2031.0,0.0,-60.0,
2064.0,1992.0,2056.0,2038.0,0.0,-60.0,
2048.0,2042.0,2054.0,2049.0,0.0,-60.0,
2006.0,1976.0,2046.0,2022.0,0.0,-60.0,
2004.0,2011.0,2055.0,2034.0,0.0,-60.0,
2028.0,2058.0,2054.0,2027.0,0.0,-60.0,
2031.0,2025.0,2056.0,1982.0,0,0,
2054.0,1937.0,2054.0,2026.0,0.0,-60.0,
2060.0,1960.0,2057.0,2106.0,0.0,-60.0,
2042.0,1986.0,2052.0,2066.0,0.0,-60.0,
2078.0,2001.0,2057.0,2076.0,0.0,-60.0,
2004.0,2023.0,2050.0,2068.0,0.0,-60.0,
2046.0,2020.0,2055.0,2079.0,0.0,-60.0,
2003.0,1968.0,2057.0,2011.0,0.0,-60.0,
2009.0,2005.0,2056.0,2022.0,0.0,-60.0,
2022.0,1995.0,2055.0,2043.0,0.0,-60.0,
2056.0,2041.0,2057.0,2046.0,0.0,-60.0,
2016.0,1987.0,2046.0,2018.0,0.0,-60.0,
2035.0,1999.0,2053.0,1993.0,0.0,-60.0,
2010.0,2023.0,2053.0,2014.0,0.0,-60.0,
2039.0,2014.0,2055.0,2044.0,0.0,-60.0,
1990.0,1920.0,2050.0,2021.0,0.0,-60.0,
2031.0,2007.0,2051.0,2089.0,0.0,-60.0,
2067.0,2049.0,2062.0,2087.0,0.0,-60.0,
2036.0,2034.0,2054.0,2078.0,0.0,-60.0,
2032.0,2012.0,2054.0,2109.0,0.0,-60.0,
2049.0,1992.0,2056.0,2049.0,0.0,-60.0,
2005.0,1996.0,2050.0,2011.0,0.0,-60.0,
2016.0,2028.0,2052.0,2019.0,0.0,-60.0,
2036.0,1997.0,2058.0,2045.0,0.0,-60.0,
2037.0,2003.0,2054.0,2011.0,0.0,-60.0,
2044.0,2027.0,2055.0,2018.0,0.0,-60.0,
2039.0,2005.0,2058.0,2026.0,0.0,-60.0,
2015.0,2064.0,2050.0,2039.0,0.0,-60.0,
2005.0,1982.0,2051.0,2024.0,0.0,-60.0,
2022.0,1996.0,2052.0,2008.0,0.0,-60.0,
2049.0,1995.0,2049.0,2025.0,0.0,-60.0,
2046.0,1990.0,2056.0,2032.0,0.0,-60.0,
2055.0,2010.0,2055.0,2051.0,0.0,-60.0,
2035.0,2031.0,2051.0,2059.0,0.0,-60.0,
2021.0,2030.0,2053.0,2035.0,0.0,-60.0,
2004.0,1989.0,2048.0,2025.0,0.0,-60.0,
2031.0,1949.0,2056.0,2007.0,0.0,-60.0,
2079.0,2011.0,2054.0,2064.0,0.0,-60.0,
1998.0,1950.0,2051.0,2049.0,0.0,-60.0,
2059.0,2010.0,2059.0,2054.0,0.0,-60.0,
2029.0,1979.0,2055.0,2030.0,0.0,-60.0,
2052.0,2002.0,2054.0,2024.0,0.0,-60.0,
2020.0,2071.0,2051.0,2053.0,0.0,-60.0,
2028.0,2036.0,2052.0,2087.0,0.0,-60.0,
2049.0,2031.0,2056.0,2044.0,0.0,-60.0,
2026.0,1979.0,2054.0,2072.0,0.0,-60.0,
2013.0,1972.0,2053.0,2066.0,0.0,-60.0,
2061.0,2062.0,2058.0,2001.0,0.0,-60.0,
2031.0,2019.0,2059.0,1996.0,0.0,-60.0,
2037.0,1986.0,2051.0,2058.0,0.0,-60.0,
2027.0,1966.0,2050.0,2057.0,0.0,-60.0,
2003.0,1961.0,2049.0,2112.0,0.0,-60.0,
1983.0,1994.0,2047.0,2048.0,0.0,-60.0,
1985.0,2025.0,2052.0,2043.0,0.0,-60.0,
2028.0,2002.0,2057.0,2022.0,0.0,-60.0,
2021.0,2036.0,2052.0,2016.0,0.0,-60.0,
2062.0,2045.0,2052.0,2046.0,0.0,-60.0,
2071.0,1953.0,2055.0,2051.0,0.0,-60.0,
2047.0,2020.0,2049.0,2052.0,0,0,
2015.0,1936.0,2051.0,2030.0,0.0,-60.0,
2008.0,2015.0,2043.0,2038.0,0.0,-60.0,
2031.0,2012.0,2052.0,2049.0,0.0,-60.0,
2044.0,2001.0,2060.0,2041.0,0.0,-60.0,
2030.0,1997.0,2054.0,2040.0,0.0,-60.0,
2024.0,1996.0,2051.0,2035.0,0.0,-60.0,
2054.0,2034.0,2057.0,2031.0,0.0,-60.0,
2016.0,2011.0,2049.0,1987.0,0.0,-60.0,
2021.0,2018.0,2054.0,2014.0,0.0,-60.0,
2059.0,1974.0,2060.0,2021.0,0.0,-60.0,
2017.0,2023.0,2053.0,1999.0,0.0,-60.0,
2035.0,2031.0,2057.0,2060.0,0.0,-60.0,
1976.0,1987.0,2050.0,2110.0,0.0,-60.0,
2055.0,2074.0,2055.0,2119.0,0.0,-60.0,
2054.0,2012.0,2068.0,2105.0,0.0,-60.0,
2021.0,2019.0,2053.0,2051.0,0.0,-60.0,
2029.0,1997.0,2055.0,2020.0,0.0,-60.0,
2027.0,2010.0,2058.0,2009.0,0.0,-60.0,
2037.0,1999.0,2051.0,2031.0,0.0,-60.0,
2031.0,2013.0,2048.0,2019.0,0.0,-60.0,
2022.0,1960.0,2053.0,2049.0,0.0,-60.0,
2030.0,1996.0,2060.0,2066.0,0.0,-60.0,
2023.0,2044.0,2049.0,2040.0,0.0,-60.0,
2002.0,2013.0,2046.0,2035.0,0.0,-60.0,
1996.0,2011.0,2043.0,2061.0,0,0,
2031.0,2001.0,2051.0,2026.0,0.0,-60.0,
2074.0,1968.0,2060.0,2023.0,0.0,-60.0,
1988.0,1980.0,2048.0,2038.0,0.0,-60.0,
2036.0,1972.0,2053.0,2033.0,0.0,-60.0,
2036.0,1992.0,2056.0,2028.0,0.0,-60.0,
2042.0,2059.0,2054.0,2023.0,0.0,-60.0,
2025.0,2038.0,2053.0,2025.0,0.0,-60.0,
2031.0,2035.0,2055.0,2009.0,0.0,-60.0,
2050.0,2037.0,2059.0,2044.0,0.0,0,
2039.0,1978.0,2053.0,2082.0,0.0,-60.0,
2058.0,1961.0,2058.0,2085.0,0.0,-60.0,
2049.0,2021.0,2056.0,2087.0,0.0,-60.0,
2042.0,1989.0,2062.0,2030.0,0.0,-60.0,
1979.0,2045.0,2042.0,2024.0,0.0,-60.0,
2049.0,2013.0,2054.0,2025.0,0.0,-60.0,
2030.0,1993.0,2054.0,2010.0,0.0,-60.0,
2022.0,1961.0,2052.0,2068.0,0.0,-60.0,
2027.0,1999.0,2052.0,2061.0,0.0,-60.0,
2008.0,2016.0,2051.0,2059.0,0.0,-60.0,
2039.0,2012.0,2060.0,2049.0,0.0,-60.0,
2026.0,1984.0,2055.0,1991.0,0.0,-60.0,
2013.0,2001.0,2053.0,2026.0,0.0,-60.0,
2008.0,1996.0,2050.0,2067.0,0.0,-60.0,
2067.0,1948.0,2060.0,2056.0,0,0,
2084.0,2032.0,2056.0,2070.0,0.0,-60.0,
2082.0,2037.0,2060.0,2068.0,0.0,-60.0,
2009.0,2007.0,2049.0,2036.0,0.0,-60.0,
2029.0,2028.0,2054.0,2024.0,0.0,-60.0,
2017.0,2007.0,2055.0,2019.0,0.0,-60.0,
2025.0,2008.0,2052.0,2018.0,0.0,-60.0,
2015.0,2049.0,2052.0,2002.0,0.0,-60.0,
2046.0,2071.0,2054.0,2061.0,0.0,-60.0,
2015.0,1989.0,2047.0,2076.0,0,0,
2047.0,1972.0,2052.0,2042.0,0.0,-60.0,
1996.0,1906.0,2048.0,2008.0,0.0,-60.0,
2007.0,1951.0,2049.0,2023.0,0.0,-60.0,
2023.0,1984.0,2048.0,2024.0,0.0,-60.0,
2041.0,2084.0,2051.0,2046.0,0.0,-60.0,
2062.0,2079.0,2053.0,2057.0,0,0,
2016.0,1972.0,2051.0,2063.0,0.0,-60.0,
2021.0,1982.0,2053.0,2036.0,0.0,-60.0,
2024.0,2002.0,2052.0,2066.0,0.0,-60.0,
2016.0,1989.0,2064.0,2049.0,0.0,-60.0,
2032.0,2010.0,2054.0,2020.0,0.0,-60.0,
2054.0,2014.0,2056.0,2010.0,0.0,-60.0,
2053.0,2017.0,2058.0,2031.0,0.0,-60.0,
2072.0,2020.0,2058.0,2016.0,0.0,-60.0,
2038.0,1987.0,2056.0,2020.0,0.0,-60.0,
2039.0,1985.0,2051.0,2086.0,0.0,-60.0,
2074.0,2050.0,2052.0,2058.0,0.0,-60.0,
2032.0,2005.0,2052.0,2039.0,0.0,-60.0,
2005.0,1964.0,2052.0,2006.0,0.0,-60.0,
2024.0,1992.0,2049.0,2063.0,0.0,-60.0,
2053.0,2057.0,2058.0,2070.0,0.0,-60.0,
2035.0,2023.0,2056.0,2026.0,0,0,
2022.0,1997.0,2050.0,2059.0,0.0,-60.0,
2024.0,2002.0,2051.0,2056.0,0.0,-60.0,
1998.0,1990.0,2049.0,2054.0,0.0,-60.0,
2010.0,2044.0,2051.0,2061.0,0.0,-60.0,
1996.0,1992.0,2050.0,2039.0,0.0,-60.0,
2072.0,2008.0,2057.0,2061.0,0.0,-60.0,
2052.0,1958.0,2062.0,2021.0,0.0,-60.0,
2047.0,2002.0,2056.0,2037.0,0.0,-60.0,
2012.0,1967.0,2051.0,2023.0,0.0,-60.0,
2067.0,2029.0,2060.0,2056.0,0.0,-60.0,
2040.0,2002.0,2057.0,2037.0,0.0,-60.0,
2038.0,2032.0,2051.0,2036.0,0.0,-60.0,
2040.0,2016.0,2053.0,2034.0,0.0,-60.0,
2049.0,1987.0,2055.0,2044.0,0.0,-60.0,
2022.0,2037.0,2051.0,2059.0,0.0,-60.0,
2042.0,1999.0,2054.0,2029.0,0.0,-60.0,
2003.0,2008.0,2049.0,2053.0,0.0,-60.0,
1990.0,1992.0,2045.0,2019.0,0.0,-60.0,
2017.0,2052.0,2043.0,2033.0,0.0,-60.0,
2029.0,2009.0,2051.0,2030.0,0.0,-59.0,
2004.0,2013.0,2051.0,2053.0,0.0,-59.0,
2022.0,1992.0,2053.0,2053.0,0.0,-60.0,
2029.0,2004.0,2054.0,2041.0,0.0,-60.0,
2022.0,1964.0,2052.0,2025.0,0.0,-60.0,
2026.0,2005.0,2051.0,2038.0,0.0,-60.0,
2061.0,2034.0,2053.0,2062.0,0.0,-60.0,
2022.0,2026.0,2054.0,2048.0,0.0,-60.0,
1993.0,2005.0,2052.0,2019.0,0.0,-60.0,
2050.0,2007.0,2056.0,2030.0,0.0,-60.0,
2033.0,1954.0,2056.0,2041.0,0.0,-60.0,
2025.0,2039.0,2058.0,2086.0,0.0,-60.0,
2048.0,2036.0,2055.0,2069.0,0.0,-60.0,
2010.0,1961.0,2049.0,2042.0,0.0,-60.0,
2030.0,1995.0,2053.0,2044.0,0.0,-60.0,
2037.0,1997.0,2055.0,2059.0,0.0,-60.0,
2012.0,1983.0,2052.0,1977.0,0.0,-60.0,
2013.0,2040.0,2048.0,2038.0,0.0,-60.0,
2025.0,2029.0,2053.0,2042.0,0.0,-60.0,
2027.0,2032.0,2048.0,2035.0,0.0,-60.0,
2036.0,2010.0,2054.0,2023.0,0.0,-60.0,
2029.0,2019.0,2048.0,2024.0,0.0,-60.0,
2017.0,1995.0,2046.0,2008.0,0.0,-60.0,
2024.0,1970.0,2051.0,2041.0,0.0,-60.0,
2047.0,2026.0,2057.0,2068.0,0.0,-60.0,
2024.0,2051.0,2048.0,2040.0,0.0,-60.0,
2036.0,1996.0,2051.0,2021.0,0.0,-60.0,
2041.0,1959.0,2048.0,2074.0,0.0,-60.0,
2053.0,1972.0,2056.0,2083.0,0.0,-60.0,
2002.0,2005.0,2050.0,2047.0,0.0,-60.0,
2025.0,1982.0,2054.0,2045.0,0.0,-60.0,
2045.0,1995.0,2058.0,2042.0,0.0,-60.0,
2050.0,2014.0,2058.0,2050.0,0.0,-60.0,
2067.0,2058.0,2057.0,2053.0,0.0,-60.0,
1985.0,1987.0,2051.0,2017.0,0.0,-60.0,
1984.0,2026.0,2047.0,2025.0,0.0,-60.0,
2027.0,2009.0,2059.0,2037.0,0.0,-60.0,
2015.0,1992.0,2047.0,2046.0,0.0,-60.0,
2021.0,2083.0,2051.0,2033.0,0.0,-60.0,
2048.0,2087.0,2057.0,2042.0,0.0,-60.0,
2057.0,1922.0,2054.0,2024.0,0.0,-60.0,
2026.0,1968.0,2051.0,2039.0,0.0,-60.0,
2032.0,1969.0,2049.0,2047.0,0.0,-60.0,
2045.0,2005.0,2050.0,2058.0,0.0,-60.0,
2012.0,2007.0,2049.0,2052.0,0.0,-60.0,
2031.0,2039.0,2056.0,1999.0,0.0,-60.0,
2047.0,2003.0,2056.0,2004.0,0.0,-60.0,
2029.0,1936.0,2052.0,2043.0,0.0,-60.0,
1986.0,1985.0,2048.0,2082.0,0.0,-60.0,
2049.0,2016.0,2055.0,2048.0,0.0,-60.0,
1996.0,2066.0,2047.0,2049.0,0.0,-60.0,
2017.0,2058.0,2051.0,2043.0,0.0,-60.0,
1982.0,2002.0,2047.0,2020.0,0.0,-60.0,
2054.0,1998.0,2054.0,2044.0,0.0,-60.0,
2033.0,1994.0,2053.0,2059.0,0.0,-60.0,
2032.0,2000.0,2054.0,2045.0,0.0,-60.0,
2028.0,1997.0,2054.0,2038.0,0.0,-60.0,
2016.0,2004.0,2052.0,2042.0,0.0,-60.0,
2024.0,2016.0,2050.0,2031.0,0.0,-60.0,
2048.0,2038.0,2058.0,2027.0,0.0,-60.0,
2050.0,2043.0,2051.0,2050.0,0.0,-60.0,
2059.0,2012.0,2051.0,2035.0,0.0,-60.0,
2009.0,1966.0,2051.0,2052.0,0.0,-60.0,
2023.0,2007.0,2052.0,2029.0,0.0,-60.0,
2016.0,2010.0,2051.0,2044.0,0.0,-60.0,
2016.0,2008.0,2051.0,2043.0,0.0,-60.0,
2026.0,2016.0,2052.0,2052.0,0.0,-60.0,
2027.0,2080.0,2047.0,2055.0,0.0,-60.0,
1981.0,1997.0,2048.0,2035.0,0.0,-60.0,
2010.0,1966.0,2051.0,2053.0,0.0,-60.0,
2044.0,1992.0,2056.0,2065.0,0.0,-60.0,
2028.0,1984.0,2051.0,2055.0,0.0,-60.0,
1991.0,2024.0,2045.0,2026.0,0.0,-60.0,
2046.0,2082.0,2058.0,2012.0,0.0,-60.0,
1994.0,2010.0,2052.0,2028.0,0.0,-60.0,
2037.0,1921.0,2055.0,2045.0,0.0,-60.0,
2067.0,1965.0,2059.0,2076.0,0.0,-60.0,
2047.0,1937.0,2072.0,2085.0,0.0,-60.0,
2044.0,1986.0,2056.0,2057.0,0.0,-60.0,
2023.0,2028.0,2054.0,2011.0,0.0,-60.0,
2010.0,2071.0,2052.0,2049.0,0.0,-60.0,
2075.0,2012.0,2060.0,2058.0,0.0,-60.0,
2019.0,2005.0,2051.0,2023.0,0.0,-60.0,
2031.0,2002.0,2053.0,1987.0,0.0,-60.0,
2033.0,1997.0,2053.0,2011.0,0.0,-60.0,
2005.0,1981.0,2049.0,2036.0,0.0,-60.0,
2072.0,2028.0,2053.0,2068.0,0.0,-60.0,
1992.0,2023.0,2048.0,2039.0,0.0,-60.0,
1999.0,2015.0,2045.0,2032.0,0.0,-60.0,
2035.0,1994.0,2053.0,2030.0,0.0,-60.0,
2021.0,2012.0,2049.0,2032.0,0.0,-60.0,
2053.0,2024.0,2060.0,2073.0,0.0,-60.0,
2029.0,2031.0,2054.0,2042.0,0.0,-60.0,
2044.0,1998.0,2060.0,2036.0,0.0,-60.0,
2045.0,2038.0,2058.0,2058.0,0.0,-60.0,
2000.0,1971.0,2048.0,2035.0,0.0,-60.0,
2015.0,2012.0,2051.0,2009.0,0.0,-60.0,
2028.0,2002.0,2054.0,2020.0,0.0,-60.0,
2034.0,1996.0,2055.0,2048.0,0.0,-60.0,
2030.0,2015.0,2053.0,2047.0,0.0,-60.0,
2015.0,2016.0,2053.0,2045.0,0.0,-60.0,
2018.0,1985.0,2053.0,2033.0,0.0,-60.0,
2014.0,2034.0,2051.0,2043.0,0.0,-60.0,
2034.0,1998.0,2053.0,2052.0,0.0,-60.0,
2026.0,2004.0,2054.0,2065.0,0.0,-60.0,
2039.0,1990.0,2056.0,2036.0,0.0,-60.0,
2033.0,2006.0,2055.0,2040.0,0.0,-60.0,
2066.0,2016.0,2060.0,2058.0,0.0,-60.0,
2029.0,1977.0,2050.0,2039.0,0.0,-60.0,
2055.0,2049.0,2053.0,2044.0,0.0,-60.0,
2048.0,2045.0,2055.0,2034.0,0.0,-60.0,
1987.0,1988.0,2048.0,2038.0,0.0,-60.0,
1986.0,1963.0,2045.0,2037.0,0.0,-60.0,
2009.0,1964.0,2052.0,2022.0,0.0,-60.0,
2054.0,2015.0,2056.0,2057.0,0.0,-60.0,
2086.0,2007.0,2058.0,2030.0,0.0,-60.0,
2042.0,1955.0,2049.0,2040.0,0.0,-60.0,
2034.0,2064.0,2051.0,2098.0,0.0,-60.0,
1991.0,1986.0,2052.0,2122.0,0.0,-60.0,
1971.0,2019.0,2047.0,2030.0,0.0,-60.0,
1965.0,2014.0,2043.0,2004.0,0.0,-60.0,
2062.0,2031.0,2051.0,2035.0,0.0,-60.0,
2119.0,2010.0,2060.0,2060.0,0.0,-60.0,
2097.0,1969.0,2062.0,2050.0,0.0,-60.0,
1978.0,1984.0,2043.0,2034.0,0.0,-60.0,
2018.0,2026.0,2049.0,2042.0,0.0,-60.0,
1993.0,2022.0,2050.0,2044.0,0.0,-60.0,
2034.0,1989.0,2055.0,2031.0,0.0,-60.0,
2030.0,1972.0,2059.0,2038.0,0.0,-60.0,
2045.0,2017.0,2057.0,2015.0,0.0,-60.0,
2024.0,2043.0,2052.0,2018.0,0.0,-60.0,
2013.0,1971.0,2054.0,2020.0,0.0,-60.0,
2022.0,2034.0,2053.0,2044.0,0.0,-60.0,
2021.0,2028.0,2053.0,2039.0,0.0,-60.0,
2027.0,2008.0,2055.0,2029.0,0.0,-60.0,
2004.0,2019.0,2052.0,2044.0,0.0,-60.0,
2022.0,2026.0,2051.0,2043.0,0.0,-60.0,
2022.0,2009.0,2056.0,2036.0,0.0,-60.0,
2050.0,2010.0,2053.0,2028.0,0.0,-60.0,
2053.0,2005.0,2053.0,2037.0,0.0,-60.0,
2058.0,2060.0,2055.0,2032.0,0.0,-60.0,
2049.0,1989.0,2061.0,2028.0,0.0,-60.0,
2025.0,1983.0,2054.0,2046.0,0.0,-60.0,
2057.0,2016.0,2053.0,2096.0,0.0,-60.0,
2002.0,2029.0,2052.0,2064.0,0.0,-60.0,
2050.0,1987.0,2054.0,2046.0,0,0,
2025.0,1983.0,2054.0,2039.0,0.0,-60.0,
2002.0,1970.0,2055.0,2055.0,0.0,-60.0,
2008.0,1980.0,2050.0,2061.0,0.0,-60.0,
2019.0,2016.0,2051.0,2042.0,0.0,-60.0,
2043.0,2046.0,2057.0,2034.0,0.0,-60.0,
2040.0,1978.0,2056.0,2040.0,0.0,-60.0,
2004.0,2042.0,2048.0,2019.0,0.0,-60.0,
2033.0,1979.0,2055.0,2054.0,0.0,-60.0,
2035.0,2011.0,2053.0,2040.0,0.0,-60.0,
2022.0,1985.0,2054.0,2052.0,0.0,-60.0,
2028.0,2026.0,2051.0,2059.0,0.0,-60.0,
2002.0,1997.0,2049.0,2035.0,0.0,-60.0,
2000.0,1960.0,2049.0,2022.0,0.0,-60.0,
2017.0,2034.0,2057.0,2032.0,0.0,-60.0,
2013.0,2016.0,2052.0,2003.0,0.0,-60.0,
2035.0,2042.0,2051.0,2023.0,0.0,-60.0,
2051.0,2039.0,2055.0,2061.0,0.0,-60.0,
2014.0,1941.0,2050.0,2069.0,0.0,-60.0,
2045.0,1976.0,2050.0,2059.0,0.0,-60.0,
2031.0,1978.0,2054.0,2052.0,0.0,-60.0,
2050.0,2023.0,2056.0,2027.0,0.0,-60.0,
2049.0,2051.0,2057.0,2034.0,0.0,-60.0,
2059.0,2029.0,2056.0,2030.0,0.0,-60.0,
2024.0,2016.0,2049.0,2057.0,0,0,
2063.0,2016.0,2053.0,2052.0,0.0,-60.0,
1998.0,1942.0,2043.0,2061.0,0.0,-60.0,
2009.0,1999.0,2050.0,2054.0,0.0,-60.0,
2032.0,2011.0,2050.0,2047.0,0.0,-60.0,
2056.0,1940.0,2057.0,2049.0,0.0,-60.0,
2057.0,1979.0,2054.0,2049.0,0.0,-60.0,
2021.0,2011.0,2053.0,2051.0,0.0,-60.0,
2018.0,2057.0,2048.0,2044.0,0.0,-60.0,
2038.0,2052.0,2058.0,2031.0,0.0,-60.0,
2025.0,2008.0,2050.0,2020.0,0.0,-60.0,
1992.0,2015.0,2046.0,2015.0,0.0,-60.0,
2019.0,1975.0,2049.0,2032.0,0,0,
2014.0,2014.0,2050.0,2043.0,0.0,-60.0,
2022.0,2009.0,2052.0,2039.0,0.0,-60.0,
2023.0,2001.0,2053.0,2038.0,0.0,-60.0,
2042.0,2010.0,2052.0,2031.0,0.0,-60.0,
2038.0,2010.0,2052.0,2047.0,0.0,-60.0,
2023.0,2043.0,2052.0,2033.0,0.0,-60.0,
2020.0,2032.0,2054.0,2037.0,0.0,-60.0,
2074.0,1989.0,2059.0,2043.0,0.0,-60.0,
2052.0,2015.0,2053.0,2049.0,0.0,-60.0,
2030.0,1984.0,2053.0,2017.0,0.0,-60.0,
2081.0,2028.0,2060.0,2036.0,0.0,-60.0,
2006.0,1991.0,2047.0,2029.0,0.0,-60.0,
2052.0,1960.0,2055.0,2068.0,0.0,-60.0,
2017.0,1992.0,2049.0,2042.0,0.0,-60.0,
2002.0,1995.0,2048.0,2033.0,0.0,-60.0,
2008.0,2047.0,2046.0,2043.0,0.0,-60.0,
2042.0,1949.0,2052.0,2069.0,0.0,-60.0,
2030.0,2069.0,2050.0,2117.0,0.0,-60.0,
1993.0,1979.0,2052.0,2056.0,0.0,-60.0,
2062.0,1973.0,2053.0,2018.0,0.0,-60.0,
2038.0,2029.0,2052.0,2031.0,0.0,-60.0,
2014.0,1993.0,2050.0,2055.0,0.0,-60.0,
2028.0,2005.0,2054.0,2061.0,0.0,-60.0,
2040.0,2017.0,2055.0,2042.0,0.0,-60.0,
2066.0,1990.0,2058.0,1977.0,0.0,-60.0,
2013.0,1985.0,2048.0,1997.0,0.0,-60.0,
2038.0,1997.0,2056.0,2071.0,0.0,-60.0,
2018.0,2015.0,2059.0,2109.0,0.0,-60.0,
2010.0,2014.0,2047.0,2056.0,0.0,0,
2023.0,2031.0,2054.0,2016.0,0.0,-60.0,
2067.0,2067.0,2056.0,2025.0,0.0,-60.0,
2014.0,1950.0,2055.0,2056.0,0.0,-60.0,
2040.0,1977.0,2054.0,2064.0,0.0,-60.0,
2029.0,1994.0,2051.0,2017.0,0.0,-60.0,
2039.0,2028.0,2047.0,2022.0,0.0,-60.0,
2011.0,1986.0,2049.0,2046.0,0.0,-60.0,
2029.0,2011.0,2056.0,2069.0,0.0,-60.0,
2028.0,2035.0,2059.0,2049.0,0.0,-60.0,
2005.0,2004.0,2052.0,2028.0,0.0,-60.0,
2040.0,2001.0,2057.0,2022.0,0.0,-60.0,
2065.0,2003.0,2056.0,2060.0,0.0,-60.0,
2065.0,2035.0,2054.0,2051.0,0.0,-60.0,
2032.0,2012.0,2052.0,1987.0,0.0,-60.0,
2001.0,2027.0,2048.0,2020.0,0.0,-60.0,
2026.0,2045.0,2050.0,2039.0,0.0,-60.0,
2026.0,1976.0,2054.0,2049.0,0.0,-60.0,
2069.0,1954.0,2055.0,2048.0,0.0,-60.0,
2055.0,1949.0,2055.0,2061.0,0.0,-60.0,
2017.0,1967.0,2047.0,2047.0,0.0,-60.0,
2011.0,2007.0,2047.0,2008.0,0.0,-60.0,
2025.0,2031.0,2051.0,2041.0,0.0,-60.0,
2020.0,2043.0,2050.0,2056.0,0.0,-60.0,
2010.0,2030.0,2053.0,2047.0,0.0,-60.0,
2057.0,2027.0,2060.0,2042.0,0.0,-60.0,
2037.0,2016.0,2047.0,2035.0,-1.0,-60.0,
2047.0,1965.0,2048.0,2038.0,-1.0,-60.0,
2049.0,1935.0,2051.0,2068.0,0.0,-60.0,
2038.0,2032.0,2054.0,2070.0,0.0,-60.0,
2039.0,2005.0,2057.0,2018.0,0.0,-60.0,
2022.0,2031.0,2053.0,2062.0,0.0,-60.0,
2021.0,1968.0,2052.0,2067.0,0.0,-60.0,
2019.0,1992.0,2050.0,2055.0,0.0,-60.0,
1996.0,2013.0,2048.0,2028.0,0.0,-60.0,
1996.0,2006.0,2051.0,2025.0,0.0,-60.0,
2050.0,2020.0,2055.0,2054.0,0.0,-60.0,
2022.0,2037.0,2052.0,2011.0,0.0,-60.0,
2036.0,1986.0,2054.0,2034.0,0.0,-60.0,
2059.0,1998.0,2057.0,2034.0,0.0,-60.0,
2046.0,2001.0,2055.0,2044.0,0.0,-60.0,
2031.0,2046.0,2052.0,2042.0,0.0,-60.0,
2013.0,2018.0,2050.0,2016.0,0.0,-60.0,
2053.0,1982.0,2054.0,2028.0,0.0,-60.0,
2039.0,2019.0,2053.0,2040.0,0.0,-60.0,
2016.0,2012.0,2048.0,2042.0,0.0,-60.0,
2002.0,2027.0,2052.0,2035.0,0.0,-60.0,
2033.0,2013.0,2057.0,2024.0,0.0,-60.0,
2032.0,2008.0,2047.0,2049.0,0.0,-60.0,
2025.0,2009.0,2048.0,2073.0,0.0,-60.0,
2038.0,2008.0,2051.0,2021.0,0.0,-60.0,
2053.0,1989.0,2055.0,2043.0,0.0,-60.0,
2042.0,2024.0,2054.0,2041.0,0.0,-60.0,
2016.0,2046.0,2052.0,2037.0,0.0,-60.0,
2019.0,1970.0,2054.0,2027.0,0.0,-60.0,
2009.0,1945.0,2052.0,2068.0,0.0,-60.0,
2024.0,1995.0,2051.0,2082.0,0.0,-60.0,
2038.0,2006.0,2053.0,2065.0,0.0,-60.0,
2025.0,2000.0,2056.0,2082.0,0.0,-60.0,
2020.0,1989.0,2050.0,2049.0,0.0,-60.0,
2022.0,2024.0,2054.0,2022.0,0.0,-60.0,
2012.0,1991.0,2054.0,2026.0,0.0,-60.0,
2049.0,2004.0,2058.0,2032.0,0.0,-60.0,
2087.0,2053.0,2059.0,2046.0,0.0,-60.0,
2016.0,1972.0,2032.0,2020.0,0.0,-60.0,
2037.0,2000.0,2058.0,2042.0,0.0,-60.0,
2026.0,2001.0,2050.0,2050.0,0.0,-60.0,
2025.0,1985.0,2055.0,2019.0,0.0,-60.0,
2026.0,2025.0,2053.0,2044.0,0.0,-60.0,
2020.0,2040.0,2056.0,2061.0,0.0,-60.0,
1992.0,2001.0,2048.0,2046.0,0.0,-60.0,
2031.0,1986.0,2053.0,2056.0,0.0,-60.0,
2078.0,2009.0,2059.0,2044.0,0.0,-60.0,
2018.0,2034.0,2047.0,2024.0,0.0,-60.0,
2030.0,2024.0,2053.0,2018.0,0.0,-60.0,
2034.0,1973.0,2052.0,2051.0,0.0,-60.0,
2042.0,1957.0,2053.0,2033.0,0.0,-60.0,
2041.0,2007.0,2058.0,2021.0,0.0,-60.0,
2008.0,2019.0,2051.0,2036.0,0.0,-60.0,
2003.0,2046.0,2046.0,2024.0,0.0,-60.0,
2053.0,2041.0,2054.0,2046.0,0.0,-60.0,
2032.0,2068.0,2053.0,2056.0,0.0,-60.0,
2020.0,2028.0,2048.0,2035.0,0.0,-60.0,
2038.0,1982.0,2053.0,2054.0,0.0,-60.0,
2018.0,1976.0,2054.0,2046.0,0.0,-60.0,
2020.0,2016.0,2051.0,2079.0,0.0,-60.0,
2051.0,2027.0,2058.0,2056.0,0.0,-60.0,
2034.0,2060.0,2054.0,2043.0,0.0,-60.0,
2016.0,1987.0,2051.0,1990.0,0.0,-60.0,
1987.0,1977.0,2047.0,2053.0,0.0,-60.0,
2031.0,2006.0,2056.0,2100.0,0.0,-60.0,
2070.0,1971.0,2057.0,2085.0,0.0,-60.0,
2044.0,1990.0,2052.0,2026.0,0.0,-60.0,
2014.0,1985.0,2050.0,2036.0,0.0,-60.0,
2032.0,1983.0,2049.0,2041.0,0.0,-60.0,
2067.0,2018.0,2060.0,2024.0,0.0,-60.0,
2056.0,2026.0,2058.0,2047.0,0.0,-60.0,
1998.0,2033.0,2050.0,2020.0,0.0,-60.0,
2024.0,2035.0,2054.0,2002.0,0.0,-60.0,
2045.0,2017.0,2052.0,2058.0,0.0,-60.0,
2017.0,1942.0,2046.0,2018.0,0.0,-60.0,
1996.0,1969.0,2045.0,2035.0,0.0,-60.0,
2004.0,2011.0,2054.0,2025.0,0.0,-60.0,
1997.0,2070.0,2052.0,2043.0,0.0,-60.0,
2032.0,2050.0,2050.0,2042.0,0.0,-60.0,
2042.0,1954.0,2055.0,2069.0,0.0,-60.0,
2007.0,1950.0,2050.0,2054.0,0.0,-60.0,
2057.0,2004.0,2055.0,2085.0,0.0,-60.0,
2032.0,2007.0,2049.0,2084.0,0.0,-60.0,
1957.0,2085.0,2040.0,2046.0,0.0,-60.0,
2016.0,2017.0,2052.0,2010.0,0.0,-60.0,
1995.0,2025.0,2046.0,2001.0,0.0,-60.0,
2053.0,2016.0,2055.0,2032.0,0.0,-60.0,
2069.0,2019.0,2058.0,2033.0,0.0,-60.0,
2059.0,2033.0,2054.0,1974.0,0.0,-60.0,
2046.0,1949.0,2051.0,2018.0,0.0,-60.0,
2058.0,1919.0,2059.0,2064.0,0.0,-60.0,
2014.0,1967.0,2049.0,2088.0,0.0,-59.0,
2043.0,2053.0,2056.0,2117.0,0.0,-59.0,
2006.0,1977.0,2050.0,2097.0,0.0,-59.0,
2021.0,2037.0,2048.0,2036.0,0.0,-59.0,
1989.0,1978.0,2040.0,2034.0,0.0,-59.0,
2080.0,1949.0,2065.0,2049.0,0.0,-59.0,
2055.0,1964.0,2057.0,2067.0,0.0,-59.0,
1988.0,2074.0,2044.0,2092.0,0.0,-59.0,
2031.0,2039.0,2053.0,2051.0,0.0,-59.0,
2027.0,1988.0,2054.0,1944.0,0.0,-59.0,
2055.0,2031.0,2053.0,1937.0,0.0,-59.0,
2019.0,2055.0,2050.0,1913.0,0.0,-59.0,
1998.0,2129.0,2055.0,2009.0,0.0,-59.0,
2021.0,2007.0,2055.0,2038.0,0.0,-59.0,
2033.0,2000.0,2050.0,2107.0,0.0,-59.0,
1967.0,2074.0,2031.0,2049.0,0.0,-59.0,
1985.0,1965.0,2045.0,2087.0,0.0,-59.0,
2028.0,1970.0,2053.0,2136.0,0.0,-60.0,
2080.0,2040.0,2060.0,2094.0,0.0,-60.0,
2079.0,2005.0,2060.0,1954.0,0.0,-60.0,
2043.0,1915.0,2054.0,1998.0,0.0,-60.0,
1996.0,1884.0,2048.0,2194.0,0.0,-60.0,
2078.0,2029.0,2066.0,2105.0,0.0,-60.0,
1999.0,1959.0,2056.0,2000.0,0.0,-60.0,
2028.0,1959.0,2056.0,2001.0,0.0,-61.0,
2022.0,2070.0,2054.0,2118.0,0.0,-61.0,
1999.0,2046.0,2048.0,2046.0,0.0,-61.0,
2023.0,2070.0,2051.0,1991.0,0.0,-61.0,
2029.0,2099.0,2059.0,1904.0,0.0,-62.0,
2039.0,2101.0,2053.0,1904.0,0.0,-62.0,
2034.0,1958.0,2048.0,2118.0,0.0,-62.0,
2013.0,1835.0,2046.0,2329.0,0.0,-62.0,
2024.0,2036.0,2053.0,2190.0,0.0,-63.0,
2085.0,2102.0,2065.0,2255.0,0.0,-63.0,
2027.0,1974.0,2052.0,1894.0,0.0,-63.0,
2074.0,1774.0,2060.0,1862.0,0.0,-63.0,
2011.0,2037.0,2052.0,2018.0,0.0,-64.0,
2041.0,2146.0,2066.0,1867.0,0.0,-64.0,
2023.0,2012.0,2047.0,2046.0,-1.0,-64.0,
1935.0,2012.0,2038.0,2151.0,-1.0,-64.0,
2002.0,2004.0,2045.0,2110.0,-1.0,-64.0,
2038.0,1899.0,2055.0,1951.0,-1.0,-64.0,
2027.0,1924.0,2052.0,1981.0,-1.0,-63.0,
2066.0,2051.0,2056.0,1984.0,-1.0,-63.0,
2031.0,2094.0,2052.0,2072.0,-1.0,-63.0,
2111.0,2054.0,2066.0,1768.0,-1.0,-62.0,
2040.0,1900.0,2058.0,1731.0,-1.0,-62.0,
2080.0,2040.0,2068.0,2059.0,0,0,
2017.0,2232.0,2045.0,2497.0,-2.0,-61.0,
1950.0,2136.0,2042.0,2302.0,-2.0,-61.0,
2045.0,1988.0,2054.0,1953.0,-2.0,-61.0,
1964.0,2084.0,2052.0,1642.0,-2.0,-60.0,
2025.0,2101.0,2047.0,2192.0,-2.0,-60.0,
1964.0,1801.0,2052.0,1891.0,-2.0,-59.0,
2044.0,1609.0,2059.0,2242.0,-3.0,-59.0,
2069.0,1910.0,2057.0,2117.0,-3.0,-58.0,
2122.0,2265.0,2070.0,2123.0,-3.0,-58.0,
2081.0,2071.0,2053.0,2077.0,-3.0,-58.0,
1954.0,1927.0,2040.0,2273.0,-3.0,-58.0,
2048.0,1781.0,2051.0,2007.0,-4.0,-58.0,
2080.0,1927.0,2054.0,2104.0,-4.0,-58.0,
1988.0,2117.0,2037.0,2022.0,-4.0,-59.0,
1822.0,1807.0,2034.0,1965.0,-4.0,-59.0,
2144.0,1980.0,2068.0,1921.0,-5.0,-59.0,
2087.0,2017.0,2061.0,1910.0,-5.0,-59.0,
2103.0,2051.0,2055.0,1908.0,-5.0,-60.0,
2120.0,2268.0,2052.0,2053.0,-5.0,-60.0,
2019.0,2054.0,2045.0,2142.0,-6.0,-60.0,
2099.0,2058.0,2058.0,2163.0,-6.0,-60.0,
1945.0,1874.0,2039.0,2283.0,-6.0,-61.0,
2021.0,1931.0,2051.0,1792.0,-7.0,-61.0,
2064.0,2058.0,2058.0,1884.0,-7.0,-61.0,
2048.0,1917.0,2055.0,2068.0,-7.0,-60.0,
1988.0,2215.0,2050.0,1950.0,-7.0,-60.0,
1854.0,2184.0,2027.0,1824.0,-8.0,-60.0,
1882.0,2088.0,2039.0,2097.0,-8.0,-60.0,
1975.0,2122.0,2042.0,2011.0,-8.0,-59.0,
2037.0,1886.0,2058.0,1980.0,-9.0,-59.0,
2020.0,1868.0,2052.0,2158.0,-9.0,-59.0,
2125.0,1947.0,2065.0,2166.0,-9.0,-58.0,
2050.0,1911.0,2056.0,2308.0,-10.0,-58.0,
1993.0,2022.0,2048.0,2154.0,-10.0,-57.0,
2040.0,2129.0,2050.0,2066.0,-10.0,-57.0,
2158.0,2025.0,2063.0,2005.0,-10.0,-56.0,
1991.0,1957.0,2043.0,1796.0,-11.0,-56.0,
2140.0,1760.0,2077.0,2014.0,-11.0,-55.0,
2035.0,2095.0,2060.0,2185.0,-11.0,-55.0,
1916.0,1988.0,2041.0,2285.0,-12.0,-55.0,
2048.0,1908.0,2057.0,1998.0,-12.0,-55.0,
1974.0,2011.0,2045.0,2149.0,-12.0,-54.0,
2148.0,2023.0,2065.0,1914.0,-13.0,-54.0,
1984.0,2047.0,2048.0,1960.0,-13.0,-54.0,
2010.0,1870.0,2045.0,2098.0,-13.0,-55.0,
2037.0,1991.0,2057.0,1967.0,-13.0,-55.0,
2068.0,2057.0,2062.0,1887.0,-14.0,-55.0,
2055.0,1975.0,2051.0,1988.0,-14.0,-55.0,
1997.0,2052.0,2041.0,2063.0,-14.0,-56.0,
1953.0,2086.0,2036.0,1861.0,-14.0,-56.0,
2147.0,2020.0,2069.0,1809.0,-15.0,-56.0,
2100.0,1903.0,2050.0,1809.0,-15.0,-56.0,
2096.0,1906.0,2061.0,2479.0,-15.0,-57.0,
2087.0,2251.0,2070.0,2275.0,-15.0,-57.0,
1957.0,1956.0,2045.0,2022.0,-16.0,-57.0,
1882.0,1957.0,2043.0,2053.0,-16.0,-57.0,
2075.0,1903.0,2062.0,2081.0,-16.0,-57.0,
2118.0,2051.0,2073.0,2061.0,-16.0,-57.0,
2082.0,1848.0,2053.0,1998.0,-16.0,-58.0,
2014.0,2007.0,2051.0,2302.0,-17.0,-58.0,
1905.0,1933.0,2039.0,1908.0,-17.0,-58.0,
2017.0,2207.0,2056.0,1955.0,-17.0,-58.0,
1947.0,2173.0,2044.0,2114.0,-17.0,-59.0,
1973.0,1856.0,2049.0,2047.0,-18.0,-59.0,
1776.0,2045.0,2016.0,1824.0,-18.0,-59.0,
1973.0,1856.0,2049.0,2047.0,0,0,
1776.0,2045.0,2016.0,1824.0,0,0,
2213.0,2012.0,2074.0,2108.0,0,0,
1954.0,2098.0,2042.0,2114.0,-18.0,-60.0,
2008.0,2010.0,2045.0,2112.0,-18.0,-60.0,
2040.0,1920.0,2058.0,2031.0,-19.0,-60.0,
1969.0,2066.0,2037.0,2129.0,-19.0,-61.0,
2078.0,1836.0,2052.0,1949.0,-19.0,-61.0,
2254.0,1890.0,2080.0,2193.0,-19.0,-61.0,
2021.0,2188.0,2025.0,2287.0,-19.0,-62.0,
1901.0,2075.0,2038.0,1736.0,-20.0,-62.0,
2089.0,2003.0,2058.0,1858.0,-20.0,-62.0,
2171.0,2062.0,2070.0,1947.0,-20.0,-63.0,
2000.0,2008.0,2060.0,1791.0,-20.0,-63.0,
2198.0,1791.0,2078.0,2142.0,-20.0,-63.0,
2066.0,2003.0,2051.0,2190.0,-21.0,-64.0,
2011.0,2108.0,2042.0,2212.0,-21.0,-64.0,
1914.0,2039.0,2034.0,1959.0,-21.0,-65.0,
2040.0,1872.0,2056.0,1935.0,-21.0,-65.0,
1999.0,1922.0,2043.0,2059.0,-21.0,-65.0,
1968.0,1970.0,2046.0,2115.0,-21.0,-65.0,
2018.0,2035.0,2058.0,2046.0,-22.0,-65.0,
1979.0,1939.0,2044.0,2009.0,0,0,
2115.0,1962.0,2066.0,2101.0,-22.0,-65.0,
2014.0,2083.0,2053.0,2054.0,-22.0,-65.0,
2082.0,2168.0,2058.0,1994.0,-22.0,-65.0,
1968.0,2167.0,2060.0,1897.0,-22.0,-65.0,
2023.0,1894.0,2045.0,1941.0,-22.0,-65.0,
2005.0,1929.0,2050.0,2070.0,-22.0,-65.0,
2016.0,1804.0,2052.0,2025.0,-23.0,-66.0,
2162.0,2058.0,2077.0,2024.0,-23.0,-66.0,
2032.0,2058.0,2057.0,2139.0,-23.0,-66.0,
2023.0,2100.0,2044.0,2282.0,-23.0,-66.0,
1953.0,1872.0,2044.0,2245.0,-23.0,-66.0,
1910.0,1958.0,2039.0,2012.0,-23.0,-66.0,
2026.0,2017.0,2056.0,2035.0,-23.0,-66.0,
1987.0,2182.0,2049.0,2237.0,-23.0,-66.0,
2116.0,2090.0,2066.0,2115.0,-23.0,-66.0,
2104.0,1901.0,2070.0,1467.0,-24.0,-66.0,
2012.0,1804.0,2044.0,2263.0,-24.0,-66.0,
2060.0,1973.0,2062.0,2112.0,-24.0,-67.0,
1958.0,2117.0,2039.0,1991.0,-24.0,-67.0,
1912.0,1903.0,2050.0,1809.0,-24.0,-67.0,
1971.0,2145.0,2044.0,1892.0,-24.0,-67.0,
2222.0,2000.0,2079.0,2117.0,-24.0,-67.0,
1981.0,2072.0,2030.0,2096.0,-24.0,-67.0,
2016.0,1974.0,2060.0,2095.0,-24.0,-68.0,
2002.0,2001.0,2049.0,2280.0,-25.0,-68.0,
2069.0,2011.0,2061.0,1986.0,-25.0,-68.0,
1892.0,2085.0,2025.0,1977.0,-25.0,-69.0,
2063.0,2065.0,2051.0,2025.0,-25.0,-69.0,
2042.0,1835.0,2055.0,2033.0,-25.0,-69.0,
2046.0,2056.0,2046.0,1947.0,-25.0,-69.0,
1997.0,2167.0,2055.0,1876.0,-25.0,-69.0,
1979.0,2015.0,2044.0,1852.0,-25.0,-69.0,
1990.0,2026.0,2049.0,2196.0,-25.0,-70.0,
1973.0,1975.0,2034.0,2166.0,-25.0,-70.0,
2149.0,2073.0,2067.0,2143.0,-25.0,-70.0,
2082.0,1886.0,2066.0,1980.0,-25.0,-70.0,
2030.0,1984.0,2047.0,2084.0,-25.0,-70.0,
2000.0,2010.0,2047.0,1784.0,-25.0,-70.0,
1989.0,2051.0,2043.0,2231.0,-25.0,-70.0,
2189.0,2061.0,2069.0,2212.0,-25.0,-70.0,
1899.0,1679.0,2035.0,2029.0,-26.0,-70.0,
2068.0,1966.0,2059.0,2267.0,-26.0,-70.0,
2019.0,2140.0,2052.0,1900.0,-26.0,-70.0,
2043.0,2094.0,2058.0,1922.0,-26.0,-69.0,
1976.0,2079.0,2053.0,2065.0,-26.0,-69.0,
2007.0,1989.0,2054.0,1946.0,-26.0,-69.0,
1963.0,1806.0,2041.0,2070.0,-26.0,-69.0,
2135.0,2077.0,2071.0,2335.0,-26.0,-69.0,
1997.0,1932.0,2052.0,1916.0,-26.0,-69.0,
1873.0,2041.0,2029.0,1951.0,-26.0,-69.0,
1943.0,2177.0,2042.0,1880.0,-26.0,-69.0,
2082.0,2134.0,2062.0,2107.0,-26.0,-69.0,
2101.0,2028.0,2064.0,2072.0,-26.0,-69.0,
2045.0,1939.0,2046.0,2052.0,-26.0,-69.0,
2080.0,1957.0,2062.0,1893.0,-26.0,-69.0,
1981.0,1961.0,2044.0,2074.0,-27.0,-69.0,
2043.0,1925.0,2049.0,2055.0,-27.0,-69.0,
1990.0,1941.0,2061.0,1865.0,-27.0,-69.0,
2057.0,2193.0,2063.0,2032.0,-27.0,-69.0,
1994.0,2022.0,2045.0,2151.0,-27.0,-69.0,
2043.0,1928.0,2049.0,2084.0,-27.0,-68.0,
2030.0,2037.0,2054.0,2163.0,-27.0,-68.0,
1958.0,2194.0,2041.0,1928.0,-27.0,-68.0,
1965.0,2063.0,2046.0,1898.0,-27.0,-68.0,
2082.0,2186.0,2060.0,2130.0,-27.0,-68.0,
1918.0,1956.0,2042.0,2021.0,-27.0,-68.0,
2064.0,1769.0,2055.0,2235.0,-27.0,-68.0,
2096.0,1872.0,2065.0,1925.0,-27.0,-68.0,
2008.0,1995.0,2053.0,2159.0,-27.0,-68.0,
1987.0,2146.0,2048.0,1962.0,-27.0,-68.0,
2014.0,2010.0,2048.0,2045.0,-27.0,-68.0,
2129.0,2052.0,2065.0,1971.0,-27.0,-68.0,
2062.0,2038.0,2044.0,1874.0,-27.0,-68.0,
2156.0,1971.0,2078.0,2211.0,-27.0,-67.0,
2058.0,1960.0,2052.0,2007.0,-27.0,-67.0,
2041.0,2010.0,2044.0,1794.0,-27.0,-67.0,
2012.0,1802.0,2052.0,2298.0,-27.0,-67.0,
2046.0,2024.0,2051.0,2286.0,-27.0,-67.0,
2068.0,2017.0,2049.0,1994.0,-27.0,-67.0,
1886.0,1980.0,2038.0,1986.0,-27.0,-67.0,
2084.0,1915.0,2060.0,1933.0,-27.0,-67.0,
2007.0,1994.0,2045.0,2059.0,-27.0,-67.0,
2036.0,2168.0,2049.0,1905.0,-27.0,-67.0,
2036.0,2093.0,2064.0,2026.0,-28.0,-67.0,
1874.0,2171.0,2029.0,1787.0,-28.0,-67.0,
1860.0,2107.0,2035.0,1886.0,-28.0,-67.0,
2202.0,1842.0,2070.0,2320.0,-28.0,-67.0,
2178.0,1812.0,2078.0,2358.0,-28.0,-67.0,
2099.0,1907.0,2064.0,2493.0,-28.0,-67.0,
2116.0,2072.0,2067.0,2143.0,-28.0,-67.0,
1965.0,2143.0,2041.0,1722.0,-28.0,-67.0,
2083.0,2103.0,2047.0,1836.0,-28.0,-66.0,
2039.0,1977.0,2062.0,2018.0,-28.0,-66.0,
2078.0,2032.0,2059.0,2100.0,-28.0,-66.0,
1871.0,2037.0,2037.0,1999.0,-28.0,-66.0,
1976.0,2024.0,2047.0,1933.0,-28.0,-66.0,
1979.0,1753.0,2050.0,1947.0,-28.0,-66.0,
2173.0,1960.0,2073.0,2241.0,-28.0,-66.0,
2113.0,2071.0,2060.0,2097.0,-28.0,-66.0,
2071.0,2044.0,2056.0,2055.0,-28.0,-66.0,
2022.0,2090.0,2050.0,2020.0,-28.0,-66.0,
2040.0,2159.0,2054.0,1933.0,-28.0,-66.0,
2079.0,1867.0,2055.0,2150.0,-28.0,-66.0,
1907.0,1846.0,2045.0,1958.0,-28.0,-66.0,
2008.0,2008.0,2053.0,2133.0,-28.0,-66.0,
1944.0,2061.0,2040.0,2084.0,-28.0,-65.0,
2137.0,2008.0,2067.0,2029.0,-28.0,-65.0,
2057.0,2032.0,2054.0,2017.0,-28.0,-65.0,
1978.0,2028.0,2044.0,1930.0,-28.0,-65.0,
2043.0,1914.0,2045.0,2184.0,-28.0,-65.0,
2028.0,1985.0,2051.0,2285.0,-28.0,-65.0,
2023.0,2004.0,2062.0,1889.0,-28.0,-65.0,
2004.0,2033.0,2044.0,2025.0,-28.0,-65.0,
2180.0,2122.0,2062.0,1985.0,-28.0,-65.0,
2045.0,2058.0,2052.0,2010.0,-28.0,-65.0,
1959.0,1989.0,2042.0,2057.0,-28.0,-65.0,
1971.0,2016.0,2048.0,2016.0,-28.0,-65.0,
1941.0,2047.0,2043.0,2072.0,-28.0,-65.0,
2124.0,1885.0,2062.0,2024.0,-28.0,-65.0,
1988.0,1934.0,2042.0,1960.0,-28.0,-65.0,
2128.0,1890.0,2068.0,2159.0,-28.0,-65.0,
2050.0,2053.0,2053.0,2248.0,-29.0,-65.0,
2016.0,2177.0,2048.0,1794.0,-29.0,-65.0,
1903.0,2115.0,2040.0,1843.0,-29.0,-65.0,
2044.0,1995.0,2055.0,2106.0,-29.0,-65.0,
2065.0,1908.0,2054.0,2187.0,-29.0,-65.0,
2127.0,2052.0,2058.0,2109.0,-29.0,-65.0,
2064.0,2038.0,2060.0,2130.0,-29.0,-65.0,
2000.0,2002.0,2043.0,2147.0,-29.0,-65.0,
2023.0,1967.0,2049.0,1909.0,-29.0,-65.0,
2038.0,2017.0,2047.0,1922.0,-29.0,-65.0,
2109.0,2080.0,2061.0,2034.0,-29.0,-66.0,
2031.0,1913.0,2055.0,2177.0,-29.0,-66.0,
1927.0,1885.0,2041.0,1814.0,-29.0,-66.0,
2101.0,1833.0,2059.0,1927.0,-29.0,-66.0,
2057.0,2144.0,2054.0,2136.0,-29.0,-66.0,
1954.0,1944.0,2039.0,2177.0,-29.0,-66.0,
2054.0,2002.0,2048.0,2145.0,-29.0,-66.0,
2031.0,2208.0,2054.0,1830.0,-29.0,-66.0,
1990.0,1972.0,2047.0,1830.0,-29.0,-66.0,
2112.0,1977.0,2059.0,2242.0,-29.0,-66.0,
1977.0,2040.0,2052.0,2170.0,-29.0,-66.0,
1963.0,2102.0,2045.0,2064.0,-29.0,-66.0,
2041.0,2035.0,2058.0,2033.0,-29.0,-66.0,
1985.0,2028.0,2039.0,2067.0,-29.0,-66.0,
2126.0,2087.0,2070.0,1823.0,-29.0,-66.0,
1900.0,1835.0,2034.0,2106.0,-29.0,-66.0,
2044.0,2001.0,2057.0,2021.0,-29.0,-66.0,
2062.0,1994.0,2054.0,2118.0,-29.0,-66.0,
2038.0,2095.0,2056.0,1914.0,-29.0,-67.0,
2037.0,1841.0,2056.0,2045.0,-29.0,-67.0,
1992.0,1980.0,2044.0,2152.0,-29.0,-67.0,
2026.0,1936.0,2048.0,2071.0,-29.0,-67.0,
1956.0,2140.0,2041.0,2050.0,-29.0,-67.0,
2013.0,2080.0,2051.0,2031.0,-29.0,-67.0,
2061.0,2075.0,2053.0,2048.0,-29.0,-67.0,
2028.0,1948.0,2048.0,2155.0,-29.0,-67.0,
2026.0,1979.0,2052.0,1828.0,-29.0,-67.0,
2043.0,1957.0,2053.0,2060.0,-29.0,-67.0,
1973.0,2016.0,2053.0,2159.0,-29.0,-67.0,
2092.0,1945.0,2062.0,2117.0,-29.0,-67.0,
2110.0,1858.0,2069.0,1954.0,-29.0,-67.0,
1996.0,2049.0,2046.0,2044.0,-29.0,-67.0,
1899.0,2059.0,2030.0,2087.0,-29.0,-67.0,
1922.0,2056.0,2037.0,1963.0,-29.0,-67.0,
2189.0,2057.0,2072.0,2122.0,-29.0,-67.0,
2101.0,2123.0,2061.0,2164.0,-29.0,-67.0,
2112.0,2043.0,2063.0,1941.0,-29.0,-67.0,
2022.0,2001.0,2056.0,1978.0,-29.0,-67.0,
1934.0,2095.0,2034.0,2063.0,-29.0,-67.0,
1853.0,1998.0,2030.0,1945.0,-29.0,-67.0,
2015.0,1969.0,2055.0,2059.0,-29.0,-67.0,
2231.0,1983.0,2083.0,2019.0,-29.0,-67.0,
2085.0,1847.0,2062.0,2085.0,-29.0,-67.0,
2076.0,1972.0,2060.0,2066.0,-29.0,-67.0,
1985.0,2062.0,2042.0,2030.0,-29.0,-67.0,
2061.0,1935.0,2050.0,1909.0,-29.0,-67.0,
2144.0,1805.0,2069.0,2262.0,-29.0,-68.0,
2119.0,1938.0,2071.0,2321.0,-29.0,-67.0,
1931.0,1986.0,2037.0,1787.0,-29.0,-67.0,
1944.0,2208.0,2041.0,2066.0,-29.0,-67.0,
1982.0,2135.0,2052.0,2164.0,-29.0,-67.0,
1898.0,2001.0,2035.0,2010.0,-29.0,-67.0,
2017.0,2031.0,2047.0,1913.0,-29.0,-67.0,
1978.0,2061.0,2045.0,1933.0,-29.0,-67.0,
2013.0,2102.0,2035.0,1905.0,-29.0,-67.0,
2111.0,1854.0,2074.0,2227.0,-29.0,-67.0,
2088.0,1978.0,2060.0,1971.0,-29.0,-67.0,
2037.0,2104.0,2051.0,1921.0,-29.0,-67.0,
2024.0,1948.0,2048.0,2030.0,-29.0,-67.0,
2072.0,2005.0,2063.0,2105.0,-29.0,-67.0,
1933.0,1973.0,2038.0,2089.0,-29.0,-67.0,
1999.0,2038.0,2050.0,1982.0,-29.0,-67.0,
2036.0,2056.0,2058.0,2013.0,-29.0,-67.0,
2123.0,2157.0,2064.0,2033.0,-29.0,-67.0,
2065.0,1892.0,2050.0,1967.0,-29.0,-67.0,
1949.0,1940.0,2041.0,2072.0,-29.0,-67.0,
1993.0,2118.0,2048.0,1987.0,-29.0,-67.0,
2050.0,1909.0,2051.0,2047.0,-29.0,-67.0,
2062.0,1952.0,2054.0,2088.0,-29.0,-67.0,
1907.0,1994.0,2036.0,2069.0,-29.0,-67.0,
2048.0,1799.0,2057.0,2362.0,-29.0,-67.0,
2085.0,2004.0,2059.0,2237.0,-29.0,-67.0,
2043.0,2080.0,2065.0,2008.0,-29.0,-67.0,
2074.0,2105.0,2059.0,1941.0,-29.0,-67.0,
1921.0,1978.0,2040.0,2039.0,-29.0,-67.0,
2040.0,2006.0,2048.0,2122.0,-29.0,-67.0,
2174.0,2096.0,2068.0,2075.0,-29.0,-67.0,
1999.0,1978.0,2058.0,2034.0,-29.0,-67.0,
2006.0,1906.0,2049.0,1965.0,-29.0,-67.0,
2002.0,2030.0,2040.0,2003.0,-29.0,-67.0,
2138.0,1974.0,2073.0,2027.0,-29.0,-67.0,
1961.0,2002.0,2046.0,2079.0,-29.0,-67.0,
2091.0,2104.0,2055.0,1956.0,-29.0,-67.0,
2059.0,1878.0,2053.0,2040.0,-29.0,-67.0,
1979.0,2009.0,2054.0,1886.0,-29.0,-67.0,
1998.0,2158.0,2056.0,2196.0,-29.0,-67.0,
1974.0,1951.0,2047.0,1827.0,-29.0,-67.0,
2086.0,1980.0,2057.0,2038.0,-29.0,-67.0,
2060.0,1947.0,2062.0,2084.0,-29.0,-67.0,
1959.0,1939.0,2044.0,2077.0,-29.0,-67.0,
2103.0,2033.0,2061.0,1918.0,-29.0,-67.0,
2089.0,2121.0,2057.0,2049.0,-29.0,-67.0,
1990.0,1956.0,2056.0,2120.0,-29.0,-67.0,
1912.0,1819.0,2036.0,2202.0,-29.0,-67.0,
2104.0,2124.0,2056.0,2139.0,-29.0,-67.0,
1953.0,2261.0,2031.0,1862.0,-29.0,-67.0,
1996.0,1860.0,2056.0,2078.0,-29.0,-67.0,
1999.0,1863.0,2050.0,2132.0,-29.0,-67.0,
2070.0,2009.0,2061.0,2129.0,-29.0,-67.0,
2128.0,2060.0,2068.0,2034.0,-29.0,-67.0,
2056.0,1991.0,2063.0,2041.0,-29.0,-67.0,
2004.0,1970.0,2051.0,1877.0,-29.0,-67.0,
2081.0,2023.0,2059.0,2014.0,-29.0,-67.0,
2065.0,2006.0,2061.0,1996.0,0,0,
2016.0,1951.0,2051.0,2005.0,-29.0,-67.0,
2034.0,2083.0,2050.0,1973.0,-29.0,-67.0,
2132.0,2070.0,2066.0,1999.0,-29.0,-67.0,
1977.0,2055.0,2044.0,2013.0,-29.0,-67.0,
1961.0,2013.0,2047.0,2084.0,-29.0,-66.0,
1961.0,1981.0,2041.0,2118.0,-29.0,-66.0,
1927.0,2046.0,2044.0,2146.0,-29.0,-66.0,
2060.0,1966.0,2056.0,2119.0,-29.0,-66.0,
1984.0,2045.0,2037.0,2041.0,0,0,
1977.0,1967.0,2046.0,1975.0,-29.0,-66.0,
2143.0,1893.0,2067.0,2024.0,-29.0,-66.0,
2124.0,2027.0,2066.0,2104.0,-29.0,-66.0,
2037.0,2076.0,2050.0,1896.0,-29.0,-66.0,
2054.0,2046.0,2047.0,2121.0,-29.0,-66.0,
2000.0,1992.0,2050.0,2083.0,-29.0,-66.0,
2192.0,2105.0,2071.0,2026.0,-29.0,-66.0,
1861.0,1874.0,2037.0,1830.0,-29.0,-66.0,
1926.0,1974.0,2040.0,1982.0,-29.0,-66.0,
2044.0,1889.0,2057.0,2139.0,-29.0,-66.0,
2112.0,1994.0,2060.0,2063.0,-29.0,-66.0,
2098.0,1877.0,2063.0,1970.0,-29.0,-66.0,
2042.0,2026.0,2055.0,2063.0,-29.0,-66.0,
2108.0,2037.0,2058.0,2308.0,-29.0,-66.0,
2049.0,1965.0,2055.0,2047.0,-29.0,-66.0,
2042.0,1991.0,2056.0,2076.0,-29.0,-67.0,
2096.0,1930.0,2067.0,2043.0,-29.0,-67.0,
1982.0,1931.0,2048.0,1940.0,-29.0,-67.0,
1990.0,2219.0,2041.0,1991.0,-29.0,-67.0,
1941.0,2061.0,2042.0,1953.0,-29.0,-67.0,
1977.0,2018.0,2047.0,2219.0,-29.0,-67.0,
2011.0,2159.0,2059.0,1957.0,-29.0,-67.0,
2019.0,2008.0,2050.0,2005.0,-29.0,-67.0,
2046.0,1868.0,2056.0,1978.0,-29.0,-67.0,
2126.0,1984.0,2057.0,2159.0,-29.0,-67.0,
2013.0,1898.0,2054.0,2071.0,-29.0,-67.0,
2065.0,2018.0,2057.0,2052.0,-29.0,-67.0,
2093.0,2013.0,2062.0,2002.0,-29.0,-67.0,
2033.0,1956.0,2052.0,2036.0,-29.0,-67.0,
2028.0,2160.0,2058.0,2020.0,-29.0,-67.0,
1965.0,2027.0,2047.0,1885.0,-29.0,-67.0,
2002.0,1909.0,2052.0,2121.0,-29.0,-67.0,
2039.0,2041.0,2058.0,2077.0,-29.0,-67.0,
1973.0,1969.0,2048.0,1966.0,-29.0,-67.0,
2035.0,1958.0,2054.0,2142.0,-29.0,-67.0,
1998.0,2006.0,2052.0,2045.0,-29.0,-67.0,
2058.0,2089.0,2059.0,1951.0,-29.0,-67.0,
2063.0,1952.0,2060.0,2025.0,-29.0,-67.0,
1962.0,2101.0,2037.0,1965.0,-29.0,-67.0,
2161.0,2139.0,2073.0,2151.0,-29.0,-67.0,
2056.0,2012.0,2060.0,1980.0,-29.0,-67.0,
2011.0,1893.0,2057.0,2030.0,-29.0,-67.0,
1973.0,1968.0,2043.0,2123.0,-29.0,-66.0,
1936.0,1891.0,2039.0,1979.0,-29.0,-66.0,
2030.0,2063.0,2055.0,2114.0,-29.0,-66.0,
2045.0,2182.0,2057.0,2154.0,-29.0,-66.0,
2037.0,1988.0,2054.0,1968.0,-29.0,-66.0,
2056.0,1958.0,2058.0,2075.0,-29.0,-66.0,
2026.0,2033.0,2047.0,2012.0,-29.0,-66.0,
2069.0,1960.0,2053.0,1882.0,-29.0,-66.0,
2100.0,2111.0,2064.0,2073.0,-29.0,-66.0,
1935.0,1903.0,2038.0,1992.0,0,0,
2155.0,2009.0,2068.0,2080.0,-29.0,-66.0,
1947.0,1897.0,2040.0,2024.0,-29.0,-66.0,
2094.0,1959.0,2063.0,2160.0,-29.0,-66.0,
2092.0,1980.0,2050.0,2132.0,-29.0,-66.0,
2020.0,1921.0,2059.0,2021.0,-29.0,-66.0,
2000.0,2038.0,2054.0,2007.0,-29.0,-66.0,
1990.0,2106.0,2020.0,2027.0,-29.0,-66.0,
2095.0,2100.0,2060.0,2115.0,-29.0,-66.0,
1868.0,1931.0,2037.0,1971.0,-29.0,-66.0,
2012.0,2082.0,2054.0,1981.0,-29.0,-66.0,
2045.0,1971.0,2064.0,1935.0,-29.0,-66.0,
2107.0,1913.0,2063.0,1948.0,-29.0,-66.0,
2017.0,2060.0,2046.0,2223.0,-29.0,-66.0,
2031.0,2010.0,2050.0,2066.0,-29.0,-66.0,
2004.0,2021.0,2049.0,2079.0,0,0,
1997.0,2023.0,2048.0,2126.0,-29.0,-66.0,
2025.0,2019.0,2054.0,1986.0,-29.0,-66.0,
2063.0,2072.0,2061.0,2007.0,-29.0,-66.0,
1993.0,1938.0,2053.0,2005.0,-29.0,-67.0,
2062.0,1989.0,2056.0,2004.0,-29.0,-67.0,
1976.0,2071.0,2042.0,2059.0,-29.0,-67.0,
2079.0,1867.0,2065.0,2058.0,-29.0,-67.0,
1829.0,2161.0,2026.0,2014.0,-29.0,-67.0,
2054.0,2106.0,2056.0,2174.0,-29.0,-67.0,
2159.0,1835.0,2076.0,2046.0,-29.0,-67.0,
2049.0,2021.0,2048.0,1967.0,-29.0,-66.0,
2094.0,2101.0,2058.0,1964.0,-29.0,-66.0,
2087.0,2071.0,2055.0,1969.0,-29.0,-66.0,
1992.0,1960.0,2048.0,2047.0,-29.0,-66.0,
2039.0,1926.0,2054.0,2085.0,-29.0,-66.0,
2128.0,1900.0,2071.0,1980.0,-29.0,-66.0,
1910.0,2025.0,2042.0,2004.0,-29.0,-66.0,
1959.0,1976.0,2042.0,2090.0,-29.0,-66.0,
1991.0,1953.0,2045.0,2145.0,-29.0,-66.0,
2124.0,2164.0,2062.0,2223.0,-29.0,-66.0,
1922.0,2025.0,2041.0,2001.0,-29.0,-66.0,
2108.0,1870.0,2066.0,2081.0,-29.0,-66.0,
2016.0,2050.0,2047.0,2129.0,-29.0,-66.0,
2129.0,2096.0,2057.0,1866.0,-29.0,-66.0,
2009.0,2101.0,2055.0,1995.0,-29.0,-66.0,
1982.0,1939.0,2047.0,2121.0,-29.0,-66.0,
2071.0,1967.0,2060.0,2081.0,-29.0,-66.0,
1936.0,1912.0,2042.0,1931.0,-29.0,-66.0,
2020.0,2024.0,2057.0,2003.0,-29.0,-66.0,
2060.0,2037.0,2051.0,1974.0,-29.0,-67.0,
2015.0,2128.0,2049.0,2003.0,-29.0,-67.0,
2060.0,1887.0,2057.0,2029.0,-29.0,-67.0,
2067.0,1967.0,2057.0,2185.0,-29.0,-67.0,
2088.0,1937.0,2057.0,2151.0,-29.0,-67.0,
2128.0,2013.0,2062.0,2070.0,-29.0,-67.0,
2030.0,1966.0,2050.0,2048.0,-29.0,-67.0,
2060.0,1967.0,2056.0,2134.0,-29.0,0,
2014.0,2098.0,2054.0,1974.0,-29.0,-67.0,
1954.0,2191.0,2036.0,1961.0,-29.0,-67.0,
2026.0,1891.0,2058.0,2029.0,-29.0,-67.0,
2138.0,2000.0,2062.0,2045.0,-29.0,-67.0,
1952.0,1988.0,2036.0,2035.0,-29.0,-67.0,
2027.0,2052.0,2050.0,2033.0,-29.0,-67.0,
1959.0,1914.0,2041.0,2036.0,-29.0,-67.0,
2008.0,2021.0,2045.0,2038.0,-29.0,-67.0,
1999.0,1902.0,2053.0,2095.0,-29.0,-67.0,
2077.0,2089.0,2057.0,2016.0,-29.0,-67.0,
1982.0,2145.0,2042.0,1968.0,-29.0,-67.0,
2043.0,2115.0,2058.0,2018.0,-29.0,-67.0,
1987.0,1957.0,2050.0,2091.0,-29.0,-67.0,
2119.0,2022.0,2065.0,2103.0,-29.0,-67.0,
1996.0,2086.0,2046.0,2091.0,-29.0,-67.0,
2031.0,2111.0,2051.0,1913.0,-29.0,-67.0,
1928.0,1949.0,2039.0,1993.0,-29.0,-67.0,
2080.0,1932.0,2052.0,2081.0,-29.0,-67.0,
2050.0,2025.0,2063.0,2125.0,-29.0,-66.0,
2044.0,2009.0,2063.0,1940.0,-29.0,-66.0,
2145.0,1953.0,2060.0,2036.0,-29.0,-66.0,
1984.0,1926.0,2044.0,2001.0,-29.0,-66.0,
2056.0,1896.0,2067.0,1971.0,-29.0,-66.0,
1988.0,1906.0,2047.0,2029.0,-29.0,-66.0,
2013.0,2055.0,2051.0,2080.0,-29.0,-66.0,
2192.0,1997.0,2071.0,2113.0,-29.0,-66.0,
1962.0,2007.0,2043.0,2088.0,-29.0,-66.0,
1998.0,2091.0,2044.0,2073.0,-29.0,-66.0,
2040.0,2110.0,2050.0,2043.0,-29.0,-66.0,
1941.0,1962.0,2041.0,2033.0,-29.0,-66.0,
2108.0,1964.0,2063.0,2205.0,-29.0,-66.0,
2040.0,1968.0,2053.0,1883.0,-29.0,-66.0,
2048.0,1999.0,2064.0,1994.0,-29.0,-66.0,
2077.0,1981.0,2065.0,2044.0,-29.0,-66.0,
2053.0,2040.0,2053.0,2013.0,-29.0,-66.0,
2092.0,1943.0,2059.0,2171.0,-29.0,-66.0,
1992.0,1901.0,2050.0,2117.0,-29.0,-66.0,
1957.0,1985.0,2043.0,2034.0,-29.0,-66.0,
2039.0,2046.0,2058.0,2038.0,-29.0,-66.0,
2008.0,2003.0,2050.0,1865.0,-29.0,-66.0,
2054.0,2170.0,2058.0,1990.0,-29.0,-66.0,
1952.0,2228.0,2044.0,1870.0,-29.0,-66.0,
1948.0,1843.0,2043.0,2057.0,-29.0,-66.0,
2029.0,1958.0,2054.0,2228.0,-29.0,-66.0,
2060.0,1937.0,2054.0,2123.0,-29.0,-66.0,
2075.0,1961.0,2059.0,1959.0,-29.0,-66.0,
2136.0,2050.0,2063.0,2161.0,-29.0,-66.0,
1989.0,2137.0,2040.0,2154.0,-29.0,-66.0,
1996.0,2037.0,2047.0,1901.0,-29.0,-66.0,
2092.0,1939.0,2057.0,1980.0,0,0,
2050.0,1928.0,2054.0,2068.0,-29.0,-66.0,
1958.0,2063.0,2040.0,2023.0,-29.0,-66.0,
2051.0,1951.0,2057.0,1937.0,-29.0,-66.0,
2081.0,2147.0,2065.0,2085.0,-29.0,-66.0,
1935.0,1975.0,2044.0,1935.0,-29.0,-66.0,
2027.0,1955.0,2050.0,2101.0,-29.0,-66.0,
2077.0,2005.0,2059.0,2208.0,-29.0,-66.0,
1985.0,2099.0,2044.0,1972.0,-29.0,-66.0,
2111.0,2017.0,2058.0,2037.0,-29.0,-66.0,
2083.0,1961.0,2060.0,2013.0,-29.0,-66.0,
1965.0,1901.0,2048.0,2017.0,-29.0,-66.0,
2114.0,1969.0,2062.0,2209.0,-29.0,-66.0,
2002.0,1929.0,2049.0,1853.0,-29.0,-66.0,
2102.0,2063.0,2061.0,1960.0,-29.0,-66.0,
2073.0,2163.0,2055.0,2066.0,-29.0,-66.0,
1953.0,1982.0,2042.0,2085.0,-29.0,-66.0,
2094.0,1960.0,2059.0,2216.0,-29.0,-66.0,
2065.0,1974.0,2061.0,1881.0,0,0,
2014.0,2082.0,2048.0,2048.0,-29.0,-66.0,
2024.0,2107.0,2046.0,2060.0,-29.0,-66.0,
2070.0,2109.0,2057.0,1996.0,-29.0,-66.0,
2053.0,1985.0,2055.0,1868.0,-29.0,-66.0,
2053.0,1925.0,2061.0,2139.0,-29.0,-66.0,
2059.0,1843.0,2055.0,2153.0,-29.0,-66.0,
2042.0,1932.0,2051.0,2117.0,-29.0,-66.0,
2066.0,2002.0,2058.0,2155.0,-29.0,-66.0,
1966.0,2042.0,2043.0,2048.0,-29.0,-66.0,
1961.0,1970.0,2047.0,1976.0,-29.0,-66.0,
1982.0,2017.0,2050.0,1893.0,-29.0,-66.0,
2070.0,2072.0,2060.0,2063.0,-29.0,-66.0,
1930.0,1895.0,2027.0,2097.0,-29.0,-66.0,
2072.0,1984.0,2062.0,2060.0,-29.0,-66.0,
2062.0,2016.0,2057.0,1960.0,-29.0,-66.0,
2139.0,1930.0,2063.0,2023.0,-29.0,-66.0,
2045.0,1993.0,2054.0,2187.0,-29.0,-66.0,
2002.0,2037.0,2045.0,1966.0,-29.0,-66.0,
2070.0,2041.0,2055.0,2090.0,-29.0,-66.0,
2029.0,2035.0,2049.0,2024.0,-29.0,-66.0,
1980.0,2093.0,2049.0,1962.0,-29.0,-66.0,
1914.0,2037.0,2040.0,1990.0,-29.0,-66.0,
2080.0,2022.0,2060.0,2088.0,-29.0,-66.0,
2046.0,2212.0,2043.0,1964.0,-29.0,-66.0,
2050.0,1979.0,2056.0,2087.0,-29.0,-66.0,
2032.0,1785.0,2058.0,2005.0,-29.0,-66.0,
2078.0,1983.0,2058.0,2088.0,-29.0,-66.0,
2009.0,2070.0,2047.0,2061.0,-29.0,-66.0,
2083.0,2068.0,2052.0,2130.0,-29.0,-66.0,
2006.0,1984.0,2043.0,1937.0,-29.0,-66.0,
2131.0,2009.0,2065.0,2006.0,-29.0,-66.0,
1930.0,2041.0,2036.0,2009.0,-29.0,-66.0,
2083.0,1915.0,2070.0,2199.0,-29.0,-66.0,
2037.0,1936.0,2057.0,2114.0,-29.0,-66.0,
1987.0,1932.0,2048.0,1948.0,-29.0,-66.0,
1971.0,2067.0,2047.0,2036.0,-29.0,-66.0,
2019.0,2062.0,2057.0,1954.0,-29.0,-66.0,
1990.0,1986.0,2048.0,1959.0,-29.0,-66.0,
2036.0,2055.0,2043.0,2102.0,-29.0,-66.0,
1943.0,1981.0,2040.0,2020.0,-29.0,-66.0,
1964.0,2022.0,2049.0,2102.0,-29.0,-66.0,
2024.0,2065.0,2069.0,2065.0,-29.0,-66.0,
1971.0,2071.0,2040.0,1974.0,-29.0,-66.0,
2105.0,1899.0,2052.0,2163.0,-29.0,-66.0,
2093.0,1921.0,2060.0,2253.0,-29.0,-66.0,
2027.0,2082.0,2050.0,2095.0,-29.0,-66.0,
1920.0,1996.0,2039.0,1806.0,-29.0,-66.0,
2047.0,2054.0,2058.0,1957.0,-29.0,-66.0,
2133.0,1878.0,2061.0,2091.0,-29.0,-66.0,
2084.0,1949.0,2057.0,1994.0,-29.0,-66.0,
1978.0,1980.0,2051.0,2013.0,-29.0,-66.0,
2144.0,1991.0,2063.0,1978.0,-29.0,-66.0,
2068.0,2122.0,2059.0,1944.0,-29.0,-66.0,
1999.0,2055.0,2046.0,1945.0,-29.0,-66.0,
1997.0,1995.0,2047.0,2056.0,-29.0,-66.0,
2062.0,1974.0,2063.0,2267.0,-29.0,-66.0,
2001.0,2030.0,2057.0,2092.0,-29.0,-66.0,
2094.0,1995.0,2061.0,1975.0,-29.0,-66.0,
2105.0,1865.0,2057.0,2053.0,-29.0,-66.0,
1976.0,2027.0,2045.0,2068.0,-29.0,-66.0,
2077.0,2198.0,2047.0,2051.0,-29.0,-66.0,
1898.0,1984.0,2034.0,1989.0,-29.0,-66.0,
2010.0,1939.0,2053.0,2109.0,-29.0,-66.0,
2028.0,2086.0,2045.0,2168.0,-29.0,-66.0,
2058.0,1971.0,2048.0,2021.0,-29.0,-66.0,
2054.0,2057.0,2052.0,1857.0,-29.0,-66.0,
1911.0,2025.0,2040.0,1910.0,-29.0,-66.0,
2033.0,1970.0,2057.0,2127.0,-29.0,-66.0,
1983.0,1956.0,2051.0,2049.0,-29.0,-66.0,
2032.0,2004.0,2056.0,2089.0,-29.0,-66.0,
2112.0,2056.0,2070.0,2002.0,-29.0,-66.0,
1995.0,1942.0,2051.0,1943.0,-29.0,-66.0,
2098.0,2005.0,2064.0,2182.0,-29.0,-66.0,
1907.0,2140.0,2032.0,2129.0,-29.0,-66.0,
2057.0,1940.0,2058.0,1923.0,-29.0,-66.0,
2163.0,1878.0,2072.0,2039.0,-29.0,-66.0,
2052.0,1996.0,2056.0,2074.0,-29.0,-66.0,
1990.0,2093.0,2050.0,2041.0,-29.0,-66.0,
2095.0,2001.0,2064.0,2069.0,-29.0,-66.0,
2076.0,2086.0,2062.0,2070.0,-29.0,-66.0,
1945.0,1949.0,2046.0,1950.0,-29.0,-66.0,
2067.0,1995.0,2063.0,1949.0,-29.0,-66.0,
2091.0,2094.0,2063.0,2121.0,-29.0,-66.0,
1928.0,2123.0,2033.0,1926.0,-29.0,-66.0,
2037.0,1833.0,2052.0,1969.0,-29.0,-66.0,
2086.0,2005.0,2069.0,2126.0,-29.0,-66.0,
1939.0,2045.0,2028.0,2148.0,-29.0,-66.0,
1912.0,2108.0,2041.0,1986.0,-29.0,-66.0,
2093.0,1911.0,2061.0,2068.0,-29.0,-66.0,
2060.0,1970.0,2052.0,2094.0,-29.0,-66.0,
2135.0,2009.0,2060.0,2124.0,-29.0,-66.0,
2055.0,1974.0,2051.0,2087.0,-29.0,-66.0,
1937.0,2156.0,2046.0,2035.0,-29.0,-66.0,
1923.0,2007.0,2045.0,1897.0,-29.0,-66.0,
2192.0,1810.0,2068.0,1962.0,-29.0,-66.0,
2199.0,2017.0,2070.0,2118.0,-29.0,-66.0,
2109.0,1843.0,2063.0,2170.0,-29.0,-66.0,
1941.0,1953.0,2038.0,2017.0,-29.0,-66.0,
2074.0,2007.0,2059.0,1957.0,-29.0,-66.0,
2025.0,2030.0,2055.0,2124.0,-29.0,-66.0,
1981.0,2131.0,2040.0,2119.0,-29.0,-66.0,
1916.0,2093.0,2044.0,1929.0,-29.0,-66.0,
1999.0,2102.0,2047.0,2009.0,-29.0,-66.0,
2010.0,2057.0,2041.0,1932.0,-29.0,-66.0,
1940.0,2025.0,2035.0,1999.0,-29.0,-66.0,
2068.0,1876.0,2058.0,2065.0,-29.0,-66.0,
2107.0,1982.0,2069.0,2086.0,-29.0,-66.0,
2068.0,2022.0,2050.0,2103.0,-29.0,-66.0,
2098.0,1974.0,2062.0,2078.0,-29.0,-66.0,
2027.0,2060.0,2052.0,2083.0,-29.0,-66.0,
1988.0,2062.0,2045.0,2007.0,-29.0,-66.0,
2063.0,1983.0,2053.0,2101.0,-29.0,-66.0,
1998.0,1931.0,2049.0,1901.0,-29.0,-66.0,
2025.0,1880.0,2059.0,2031.0,-29.0,-66.0,
2024.0,2017.0,2053.0,2128.0,-29.0,-66.0,
2026.0,2057.0,2054.0,2038.0,-29.0,-66.0,
2070.0,2159.0,2055.0,1907.0,-29.0,-66.0,
2000.0,2048.0,2047.0,2032.0,-29.0,-66.0,
2121.0,2002.0,2059.0,2166.0,-29.0,-66.0,
1869.0,2025.0,2018.0,2018.0,-29.0,-66.0,
2058.0,2014.0,2049.0,2014.0,-29.0,-66.0,
2020.0,1919.0,2057.0,1992.0,-29.0,-66.0,
2028.0,2034.0,2055.0,2001.0,-29.0,-66.0,
1983.0,1969.0,2045.0,1985.0,-29.0,-66.0,
2093.0,1976.0,2061.0,2128.0,-29.0,-66.0,
2037.0,2087.0,2055.0,2072.0,-29.0,-66.0,
2024.0,2122.0,2053.0,1973.0,-29.0,-66.0,
1962.0,2219.0,2046.0,1977.0,-29.0,-66.0,
2038.0,1778.0,2049.0,2104.0,-29.0,-66.0,
2014.0,1933.0,2052.0,2122.0,-29.0,-66.0,
2081.0,1970.0,2062.0,2088.0,-29.0,-66.0,
2072.0,1985.0,2061.0,2040.0,-29.0,-66.0,
1936.0,2001.0,2042.0,1874.0,-29.0,-66.0,
1982.0,2053.0,2052.0,1983.0,-29.0,-66.0,
1970.0,1988.0,2045.0,2082.0,-29.0,-66.0,
2071.0,2101.0,2059.0,2152.0,-29.0,-66.0,
2127.0,1803.0,2069.0,2106.0,-29.0,-66.0,
1987.0,1968.0,2050.0,2043.0,-29.0,-66.0,
2073.0,2022.0,2052.0,2002.0,-29.0,-66.0,
2122.0,1973.0,2060.0,2117.0,-29.0,-66.0,
2103.0,1967.0,2063.0,2111.0,-29.0,-66.0,
1943.0,2259.0,2028.0,1961.0,-29.0,-66.0,
1930.0,2120.0,2043.0,1987.0,-29.0,-66.0,
2032.0,2015.0,2061.0,2157.0,-29.0,-66.0,
