2009.0,2009.0,2045.0,2003.0,107.0,19.0,
2043.0,2030.0,2057.0,2021.0,0,0,
2048.0,2023.0,2054.0,2073.0,0.0,0.0,
2066.0,1981.0,2056.0,2102.0,0.0,0.0,
2036.0,1932.0,2052.0,2068.0,0.0,0.0,
2047.0,1968.0,2053.0,2062.0,0.0,0.0,
2033.0,2005.0,2048.0,2017.0,0.0,0.0,
2022.0,2036.0,2043.0,2010.0,0.0,0.0,
2017.0,2040.0,2049.0,2015.0,0.0,0.0,
2050.0,2054.0,2055.0,2053.0,0.0,0.0,
2035.0,1965.0,2049.0,2106.0,0.0,0.0,
2039.0,2008.0,2055.0,2063.0,0.0,0.0,
2030.0,2009.0,2053.0,2037.0,0.0,0.0,
2018.0,2006.0,2049.0,2037.0,0.0,0.0,
2023.0,2034.0,2058.0,2035.0,0.0,0.0,
2018.0,2041.0,2053.0,2017.0,0.0,0.0,
2024.0,2046.0,2051.0,1992.0,0.0,0.0,
2026.0,2011.0,2052.0,2031.0,0.0,0.0,
2027.0,1972.0,2053.0,2072.0,0.0,0.0,
2032.0,1998.0,2052.0,2052.0,0.0,0.0,
2034.0,1965.0,2053.0,2032.0,0.0,0.0,
2043.0,1962.0,2050.0,2046.0,0.0,0.0,
2017.0,1992.0,2050.0,2041.0,0.0,0.0,
2022.0,2016.0,2051.0,2024.0,0.0,0.0,
2042.0,2017.0,2050.0,2017.0,0.0,0.0,
2064.0,2025.0,2053.0,2022.0,0.0,0.0,
2044.0,2012.0,2051.0,2021.0,0.0,0.0,
2024.0,2009.0,2054.0,2027.0,0.0,0.0,
2039.0,1990.0,2052.0,2036.0,0.0,1.0,
2033.0,1992.0,2056.0,2038.0,0.0,1.0,
2020.0,2011.0,2051.0,2040.0,0.0,1.0,
2027.0,2019.0,2053.0,2042.0,0.0,1.0,
2053.0,2014.0,2054.0,2036.0,0.0,1.0,
2050.0,2017.0,2056.0,2036.0,0.0,1.0,
2029.0,2025.0,2053.0,2030.0,0.0,1.0,
2020.0,2012.0,2050.0,2032.0,0.0,1.0,
2027.0,2015.0,2046.0,2068.0,0.0,1.0,
2020.0,2013.0,2048.0,2050.0,0.0,1.0,
2019.0,2013.0,2047.0,2017.0,0.0,1.0,
2036.0,2017.0,2051.0,2001.0,0.0,1.0,
2036.0,2020.0,2055.0,2007.0,0.0,1.0,
2046.0,2031.0,2052.0,2038.0,0.0,1.0,
2066.0,1976.0,2053.0,2046.0,0.0,1.0,
2010.0,1981.0,2046.0,2042.0,0.0,1.0,
2024.0,1975.0,2050.0,2045.0,0.0,1.0,
2005.0,1988.0,2049.0,2074.0,0.0,0.0,
2024.0,2001.0,2051.0,2072.0,0.0,0.0,
2038.0,2015.0,2055.0,2044.0,0.0,0.0,
2045.0,2022.0,2055.0,2050.0,0.0,0.0,
2044.0,2000.0,2054.0,2024.0,0.0,0.0,
2031.0,2014.0,2052.0,2060.0,0.0,0.0,
2019.0,2002.0,2052.0,2066.0,0.0,0.0,
2017.0,2020.0,2054.0,2059.0,0.0,0.0,
2013.0,2019.0,2049.0,2040.0,0.0,0.0,
2028.0,2015.0,2053.0,2035.0,0.0,0.0,
2036.0,2003.0,2052.0,2026.0,0.0,0,
2067.0,2011.0,2056.0,2038.0,0.0,0.0,
2056.0,2019.0,2058.0,2037.0,0.0,0.0,
2042.0,2011.0,2051.0,2024.0,0.0,0.0,
2034.0,2002.0,2051.0,2030.0,0.0,0.0,
2028.0,2015.0,2051.0,2016.0,0.0,0.0,
2015.0,2022.0,2051.0,2006.0,0.0,0.0,
2014.0,1992.0,2050.0,2021.0,0.0,0.0,
2017.0,2010.0,2050.0,2046.0,0.0,0.0,
2018.0,2002.0,2053.0,2063.0,0.0,0.0,
2037.0,1991.0,2051.0,2060.0,0.0,0.0,
2053.0,1973.0,2048.0,2100.0,0.0,0.0,
2080.0,1964.0,2053.0,2060.0,0.0,0.0,
2056.0,1974.0,2051.0,2026.0,0.0,0.0,
2040.0,1988.0,2049.0,2018.0,0.0,1.0,
2041.0,2004.0,2050.0,2037.0,0.0,1.0,
2044.0,2017.0,2052.0,2050.0,0.0,1.0,
2036.0,2012.0,2051.0,2054.0,0.0,1.0,
2035.0,2032.0,2052.0,2055.0,0.0,1.0,
2033.0,2029.0,2049.0,2031.0,0.0,1.0,
2029.0,2025.0,2050.0,2017.0,0.0,1.0,
2026.0,2011.0,2052.0,2028.0,0.0,1.0,
2035.0,2024.0,2051.0,2036.0,0.0,1.0,
2028.0,2026.0,2052.0,2058.0,0.0,1.0,
2038.0,2019.0,2057.0,2063.0,0.0,1.0,
2042.0,2027.0,2056.0,2026.0,0.0,1.0,
2027.0,2038.0,2051.0,1970.0,0.0,1.0,
2023.0,2045.0,2051.0,1985.0,0.0,1.0,
2000.0,1960.0,2044.0,2032.0,0.0,1.0,
2029.0,1983.0,2052.0,2062.0,0.0,1.0,
2030.0,2003.0,2051.0,2042.0,0.0,1.0,
2058.0,2018.0,2054.0,2047.0,0.0,1.0,
2061.0,2014.0,2056.0,2050.0,0.0,1.0,
2026.0,1991.0,2050.0,2048.0,0.0,1.0,
2057.0,1976.0,2055.0,2072.0,0.0,1.0,
2042.0,2003.0,2051.0,2050.0,0.0,1.0,
2025.0,2014.0,2051.0,2039.0,0.0,0.0,
2040.0,2009.0,2050.0,2033.0,0.0,0.0,
2042.0,2020.0,2048.0,2025.0,0.0,0.0,
2045.0,2012.0,2056.0,2028.0,0.0,0.0,
2047.0,2006.0,2054.0,2063.0,0,0.0,
2038.0,2007.0,2050.0,2048.0,0.0,0.0,
2029.0,2024.0,2054.0,2059.0,0.0,0.0,
2002.0,2022.0,2045.0,2042.0,0.0,0.0,
2000.0,2021.0,2051.0,2040.0,0.0,0.0,
2013.0,2024.0,2051.0,2020.0,0.0,0.0,
2023.0,1982.0,2051.0,2009.0,0,0,
2086.0,1957.0,2054.0,2062.0,0.0,0.0,
2066.0,1958.0,2055.0,2078.0,0.0,0.0,
2064.0,1958.0,2056.0,2049.0,0.0,0.0,
2067.0,2001.0,2057.0,2076.0,0.0,0.0,
2041.0,2021.0,2054.0,2044.0,0.0,0.0,
2024.0,2029.0,2049.0,2004.0,0.0,0.0,
2024.0,2038.0,2050.0,2003.0,0.0,0.0,
2040.0,2035.0,2052.0,2007.0,0.0,0.0,
2050.0,1995.0,2056.0,2049.0,0.0,0.0,
2030.0,1982.0,2048.0,2068.0,0.0,1.0,
2036.0,2019.0,2052.0,2039.0,0.0,1.0,
2021.0,2025.0,2048.0,2029.0,0.0,1.0,
2027.0,2017.0,2054.0,2028.0,0.0,1.0,
2027.0,2018.0,2051.0,2027.0,0.0,1.0,
2030.0,2020.0,2049.0,2015.0,0.0,1.0,
2026.0,2026.0,2050.0,2018.0,0.0,1.0,
2054.0,2044.0,2056.0,2045.0,0.0,1.0,
2026.0,2021.0,2052.0,2050.0,0.0,1.0,
2015.0,1999.0,2052.0,2074.0,0.0,0,
2028.0,1997.0,2050.0,2035.0,0.0,1.0,
2032.0,1999.0,2053.0,2019.0,0.0,1.0,
2016.0,2012.0,2043.0,2033.0,0.0,0.0,
2024.0,2006.0,2051.0,2031.0,0.0,0.0,
2052.0,1989.0,2053.0,2043.0,0.0,0.0,
2060.0,1968.0,2055.0,2064.0,0.0,0.0,
2060.0,1991.0,2057.0,2079.0,0.0,0.0,
2054.0,1999.0,2052.0,2068.0,0.0,0.0,
2042.0,2004.0,2050.0,2039.0,0.0,0.0,
2013.0,2000.0,2049.0,2014.0,0.0,0.0,
2028.0,2019.0,2051.0,2009.0,0.0,0.0,
2039.0,2024.0,2052.0,2031.0,0.0,0.0,
2048.0,2024.0,2056.0,2028.0,0.0,0.0,
2043.0,2028.0,2052.0,2007.0,0.0,0.0,
2025.0,2019.0,2050.0,2011.0,0.0,0.0,
2033.0,2032.0,2051.0,2028.0,0.0,0.0,
2012.0,2013.0,2051.0,2076.0,0.0,0.0,
2026.0,1998.0,2050.0,2072.0,0.0,0.0,
2038.0,1989.0,2040.0,2053.0,0.0,0.0,
2040.0,1972.0,2052.0,2050.0,0.0,0.0,
2043.0,1987.0,2053.0,2053.0,0.0,0.0,
2064.0,2013.0,2060.0,2059.0,0.0,0.0,
2028.0,1987.0,2054.0,2055.0,0.0,0.0,
2043.0,2007.0,2054.0,2045.0,0.0,0.0,
2025.0,1978.0,2054.0,2051.0,0.0,0.0,
2029.0,2010.0,2053.0,2042.0,0.0,0.0,
2044.0,2000.0,2054.0,2042.0,0.0,0.0,
2046.0,2010.0,2060.0,2043.0,0.0,0.0,
2038.0,2029.0,2051.0,2043.0,0.0,0.0,
2032.0,2032.0,2052.0,2012.0,0.0,0.0,
2012.0,2019.0,2050.0,2017.0,0.0,0.0,
2032.0,2014.0,2051.0,2033.0,0.0,0.0,
2032.0,2019.0,2051.0,2034.0,0.0,0.0,
2038.0,2024.0,2052.0,2020.0,0.0,0.0,
2036.0,2019.0,2053.0,2000.0,0.0,0.0,
2036.0,2002.0,2051.0,2020.0,0.0,0.0,
2052.0,2014.0,2055.0,2054.0,0.0,0.0,
2039.0,2010.0,2053.0,2044.0,0.0,0.0,
1996.0,1990.0,2045.0,2053.0,0.0,0.0,
2003.0,2016.0,2048.0,2042.0,0.0,0.0,
2009.0,2029.0,2048.0,2029.0,0.0,0.0,
2012.0,2007.0,2049.0,2035.0,0.0,0.0,
2062.0,1992.0,2057.0,2054.0,0.0,0.0,
2067.0,2017.0,2059.0,2051.0,0.0,0.0,
2035.0,1996.0,2052.0,2062.0,0.0,0.0,
2044.0,2002.0,2050.0,2068.0,0.0,0.0,
2041.0,1999.0,2050.0,2037.0,0.0,0.0,
2018.0,1992.0,2054.0,2021.0,0.0,0.0,
2021.0,1994.0,2050.0,2047.0,0.0,0.0,
2032.0,2015.0,2052.0,2049.0,0.0,0.0,
2033.0,2019.0,2054.0,2044.0,0.0,0.0,
2047.0,2031.0,2052.0,2036.0,0.0,0.0,
2054.0,2033.0,2055.0,2059.0,0.0,0.0,
2034.0,2016.0,2049.0,2056.0,0.0,0.0,
2008.0,1997.0,2046.0,2033.0,0.0,0.0,
2066.0,1993.0,2047.0,1993.0,0.0,0.0,
2044.0,1997.0,2046.0,1983.0,0.0,0.0,
2032.0,2007.0,2047.0,2002.0,0.0,0.0,
2052.0,1970.0,2051.0,2049.0,0.0,0.0,
2051.0,1971.0,2054.0,2106.0,0.0,0.0,
2038.0,1975.0,2053.0,2089.0,0.0,1.0,
2032.0,2008.0,2054.0,2047.0,0,1.0,
2010.0,2021.0,2048.0,2042.0,0.0,1.0,
2013.0,2035.0,2049.0,2012.0,0.0,1.0,
2007.0,2033.0,2048.0,2023.0,0.0,1.0,
2027.0,2028.0,2052.0,2037.0,0.0,1.0,
2038.0,2004.0,2051.0,2065.0,0.0,0,
2049.0,1996.0,2050.0,2055.0,0.0,1.0,
2041.0,2029.0,2054.0,2046.0,0.0,1.0,
2015.0,2030.0,2047.0,2032.0,0.0,1.0,
2005.0,2036.0,2047.0,2030.0,0.0,1.0,
2004.0,2042.0,2047.0,2021.0,0.0,1.0,
2042.0,1984.0,2049.0,2009.0,0.0,1.0,
2050.0,1991.0,2044.0,2001.0,0.0,1.0,
2108.0,2008.0,2066.0,2035.0,0.0,1.0,
2060.0,1990.0,2051.0,2060.0,0.0,1.0,
2031.0,1973.0,2050.0,2055.0,0.0,1.0,
2019.0,2003.0,2051.0,2065.0,0.0,1.0,
2024.0,1998.0,2050.0,2052.0,0.0,1.0,
2033.0,2012.0,2050.0,2053.0,0.0,1.0,
2041.0,2015.0,2049.0,2041.0,0.0,1.0,
2035.0,2004.0,2055.0,2047.0,0.0,1.0,
2037.0,2012.0,2054.0,2069.0,0.0,1.0,
2034.0,2021.0,2052.0,2037.0,0.0,0.0,
2024.0,2026.0,2053.0,2035.0,0.0,0.0,
2016.0,2017.0,2047.0,2016.0,0.0,0.0,
2036.0,2025.0,2047.0,2018.0,0.0,0.0,
2019.0,2013.0,2051.0,2013.0,0.0,0.0,
2034.0,2008.0,2049.0,2022.0,0.0,0.0,
2065.0,2004.0,2053.0,2053.0,0.0,0.0,
2044.0,2021.0,2051.0,2046.0,0.0,0.0,
2030.0,2004.0,2050.0,2021.0,0.0,0.0,
2042.0,1998.0,2049.0,2024.0,0.0,0.0,
2029.0,2021.0,2053.0,2055.0,0.0,0.0,
2034.0,2015.0,2052.0,2075.0,0.0,0.0,
2013.0,2012.0,2047.0,2048.0,0.0,0.0,
2036.0,2021.0,2048.0,2034.0,0.0,0.0,
2047.0,2020.0,2056.0,2005.0,0.0,0.0,
2036.0,2000.0,2050.0,2058.0,0.0,0.0,
2042.0,1967.0,2054.0,2050.0,0.0,0.0,
2042.0,1967.0,2058.0,2075.0,0.0,0.0,
2029.0,1997.0,2051.0,2014.0,0.0,0.0,
2017.0,1992.0,2051.0,2023.0,0.0,0.0,
2020.0,2006.0,2049.0,2022.0,0.0,0.0,
2034.0,2034.0,2055.0,2010.0,0.0,0.0,
2026.0,2023.0,2054.0,2027.0,0.0,0.0,
2037.0,2039.0,2052.0,2050.0,0.0,0.0,
2028.0,2021.0,2053.0,2048.0,0.0,0.0,
2033.0,1968.0,2056.0,2074.0,0.0,0.0,
2024.0,1993.0,2052.0,2068.0,0.0,0.0,
2019.0,1974.0,2047.0,2052.0,0.0,0.0,
2047.0,1974.0,2052.0,2052.0,0,0,
2055.0,2002.0,2057.0,2071.0,0.0,0.0,
2060.0,2017.0,2061.0,2055.0,0.0,0.0,
2044.0,2010.0,2059.0,2040.0,0.0,0.0,
2049.0,2015.0,2054.0,2030.0,0.0,0.0,
2035.0,2012.0,2049.0,2032.0,0.0,0.0,
2009.0,2020.0,2047.0,2027.0,0.0,0.0,
2002.0,2041.0,2047.0,2022.0,0.0,0.0,
2014.0,2032.0,2051.0,2018.0,0.0,0.0,
2044.0,2014.0,2053.0,2028.0,0.0,0.0,
2057.0,2010.0,2055.0,2037.0,0.0,0.0,
2046.0,2011.0,2057.0,2032.0,0.0,0.0,
2029.0,2030.0,2049.0,2031.0,0.0,0.0,
2037.0,2020.0,2048.0,1999.0,0.0,0.0,
1997.0,1985.0,2042.0,2014.0,0.0,0.0,
2017.0,2007.0,2054.0,2088.0,0.0,0.0,
2029.0,1989.0,2052.0,2087.0,0.0,0.0,
2067.0,1981.0,2053.0,2059.0,0.0,0.0,
2040.0,1986.0,2053.0,2022.0,0.0,0.0,
2043.0,2008.0,2051.0,2024.0,0.0,0.0,
2043.0,2017.0,2048.0,2027.0,0.0,1.0,
2031.0,2006.0,2048.0,2023.0,0.0,1.0,
2021.0,2006.0,2050.0,2043.0,0.0,1.0,
2012.0,2006.0,2045.0,2047.0,0.0,1.0,
2039.0,2011.0,2054.0,2024.0,0.0,1.0,
2054.0,2004.0,2054.0,2037.0,0.0,1.0,
2043.0,2022.0,2051.0,2060.0,0.0,1.0,
2026.0,1999.0,2052.0,2044.0,0.0,1.0,
2022.0,2022.0,2051.0,2040.0,0.0,1.0,
2018.0,2029.0,2048.0,2015.0,0.0,1.0,
2004.0,2021.0,2047.0,2018.0,0.0,1.0,
2017.0,2015.0,2046.0,2027.0,0.0,1.0,
2041.0,1999.0,2053.0,2042.0,0.0,1.0,
2046.0,1982.0,2051.0,2073.0,0.0,1.0,
2050.0,2006.0,2052.0,2093.0,0.0,1.0,
2034.0,2016.0,2050.0,2053.0,0.0,1.0,
2027.0,2018.0,2051.0,2022.0,0.0,1.0,
2015.0,2003.0,2047.0,2020.0,0.0,1.0,
2016.0,2003.0,2048.0,2026.0,0.0,1.0,
2051.0,2018.0,2054.0,2037.0,0.0,1.0,
2054.0,2007.0,2057.0,2043.0,0.0,1.0,
2044.0,2026.0,2055.0,2037.0,0.0,1.0,
2034.0,2037.0,2051.0,2049.0,0.0,1.0,
2027.0,2016.0,2052.0,2010.0,0.0,1.0,
2040.0,2001.0,2049.0,2023.0,0.0,1.0,
2041.0,1962.0,2048.0,2051.0,0.0,1.0,
2038.0,1980.0,2052.0,2066.0,0.0,1.0,
2031.0,1996.0,2058.0,2049.0,0.0,1.0,
2035.0,2031.0,2054.0,2065.0,0.0,1.0,
2040.0,2019.0,2054.0,2053.0,0.0,1.0,
2033.0,2000.0,2052.0,2028.0,0.0,1.0,
2028.0,2016.0,2047.0,2004.0,0.0,1.0,
2041.0,2001.0,2053.0,2032.0,0.0,1.0,
2027.0,2003.0,2052.0,2043.0,0.0,0.0,
2040.0,2011.0,2051.0,2037.0,0.0,0.0,
2043.0,2015.0,2052.0,2037.0,0.0,0.0,
2049.0,2001.0,2053.0,2040.0,0.0,0.0,
2035.0,2011.0,2052.0,2051.0,0.0,0.0,
2030.0,2011.0,2052.0,2050.0,0.0,0.0,
2029.0,2011.0,2052.0,2038.0,0.0,0.0,
2025.0,2012.0,2053.0,2034.0,0.0,0.0,
2024.0,2025.0,2050.0,2035.0,0.0,0.0,
2036.0,2002.0,2051.0,2020.0,0.0,0.0,
2050.0,2014.0,2053.0,2008.0,0.0,0.0,
2032.0,2012.0,2050.0,2034.0,0.0,0.0,
2035.0,2017.0,2050.0,2053.0,0.0,0.0,
2012.0,2002.0,2048.0,2059.0,0.0,0.0,
2046.0,1988.0,2049.0,2064.0,0.0,0.0,
2041.0,1988.0,2050.0,2052.0,0.0,0.0,
2038.0,1999.0,2051.0,2069.0,0.0,0.0,
2046.0,1999.0,2050.0,2061.0,0.0,0.0,
2040.0,2008.0,2050.0,2022.0,0.0,0.0,
2041.0,2022.0,2051.0,2021.0,0.0,0.0,
2038.0,2023.0,2055.0,2026.0,0.0,0.0,
2023.0,1998.0,2051.0,2027.0,0.0,0.0,
2009.0,1996.0,2050.0,2032.0,0.0,1.0,
2023.0,2017.0,2051.0,2027.0,0.0,1.0,
2014.0,2025.0,2046.0,2035.0,0.0,0.0,
2031.0,2019.0,2051.0,2035.0,0.0,0.0,
2036.0,2045.0,2054.0,2025.0,0.0,0.0,
2049.0,2001.0,2054.0,2046.0,0.0,0.0,
2024.0,2026.0,2051.0,2010.0,0.0,0.0,
2019.0,2064.0,2051.0,1992.0,0.0,0.0,
2017.0,2007.0,2050.0,1995.0,0,0,
2010.0,1947.0,2048.0,2042.0,0.0,0.0,
2046.0,1965.0,2054.0,2086.0,0.0,0.0,
2052.0,1964.0,2055.0,2097.0,0.0,0.0,
2069.0,2021.0,2059.0,2108.0,0.0,0.0,
2060.0,2011.0,2055.0,2045.0,0.0,0.0,
2040.0,1966.0,2054.0,2072.0,0.0,0.0,
2030.0,1987.0,2054.0,2054.0,0.0,1.0,
2029.0,1991.0,2048.0,2028.0,0.0,1.0,
2050.0,2001.0,2053.0,2045.0,0.0,0.0,
2033.0,2012.0,2049.0,2053.0,0.0,0.0,
2043.0,2029.0,2053.0,2022.0,0.0,0.0,
2043.0,2015.0,2050.0,2021.0,0.0,0.0,
2041.0,2029.0,2052.0,2027.0,0.0,1.0,
2034.0,2031.0,2052.0,2048.0,0.0,1.0,
2014.0,1997.0,2050.0,2035.0,0.0,1.0,
2028.0,2022.0,2050.0,2046.0,0.0,1.0,
2029.0,2035.0,2050.0,2023.0,0.0,1.0,
2024.0,2010.0,2051.0,2005.0,0.0,0.0,
2037.0,2011.0,2051.0,2000.0,0.0,0.0,
2043.0,2008.0,2052.0,2026.0,0.0,0.0,
2041.0,1995.0,2047.0,2036.0,0.0,0.0,
2041.0,1985.0,2048.0,2056.0,0.0,0.0,
2009.0,1996.0,2053.0,2077.0,0.0,0.0,
2027.0,2001.0,2047.0,2048.0,0.0,0.0,
2023.0,2005.0,2050.0,2034.0,0.0,0.0,
2042.0,2011.0,2053.0,2038.0,0.0,0.0,
2049.0,2015.0,2055.0,2043.0,0.0,0.0,
2062.0,2014.0,2053.0,2050.0,0.0,0.0,
2040.0,2017.0,2052.0,2038.0,0.0,0.0,
2025.0,2022.0,2051.0,2026.0,0.0,0.0,
2016.0,2017.0,2051.0,2032.0,0.0,0.0,
2014.0,2009.0,2048.0,2033.0,0.0,0.0,
2031.0,2001.0,2050.0,2055.0,0.0,0.0,
2047.0,2009.0,2052.0,2057.0,0.0,0.0,
2044.0,2005.0,2056.0,2046.0,0.0,0.0,
2042.0,1998.0,2052.0,2041.0,0.0,0.0,
2047.0,2002.0,2051.0,2041.0,0.0,0.0,
2025.0,2008.0,2048.0,2038.0,0.0,0.0,
2007.0,2010.0,2049.0,2044.0,0.0,0.0,
2012.0,2007.0,2049.0,2030.0,0.0,0.0,
2050.0,1989.0,2059.0,2032.0,0.0,0.0,
2073.0,1990.0,2058.0,2034.0,0.0,0.0,
2069.0,1994.0,2057.0,2044.0,0.0,0.0,
2056.0,1995.0,2054.0,2049.0,0.0,0.0,
2040.0,2005.0,2053.0,2041.0,0.0,0,
2035.0,2013.0,2050.0,2032.0,0.0,0.0,
2025.0,2002.0,2050.0,2023.0,0.0,0.0,
2031.0,2009.0,2050.0,2029.0,0.0,0.0,
2037.0,2017.0,2054.0,2044.0,0.0,0.0,
2039.0,2009.0,2062.0,2035.0,0.0,0.0,
2044.0,2019.0,2051.0,2040.0,0.0,0.0,
2034.0,2030.0,2053.0,2032.0,0.0,0.0,
2024.0,1991.0,2051.0,2034.0,0.0,0.0,
2016.0,1990.0,2049.0,2054.0,0.0,0.0,
2023.0,2002.0,2050.0,2050.0,0.0,0.0,
2011.0,2028.0,2047.0,2039.0,0.0,0.0,
2028.0,2031.0,2049.0,2046.0,0.0,0.0,
2051.0,2020.0,2053.0,2028.0,0.0,0.0,
2055.0,1981.0,2054.0,2028.0,0.0,0.0,
2043.0,1974.0,2055.0,2050.0,0.0,0.0,
2045.0,2028.0,2053.0,2060.0,0.0,0.0,
2026.0,2023.0,2052.0,2033.0,0.0,0.0,
2038.0,1975.0,2058.0,2041.0,0.0,0.0,
2028.0,1969.0,2051.0,2076.0,0.0,0.0,
2035.0,1984.0,2054.0,2106.0,0.0,0.0,
2044.0,2016.0,2057.0,2043.0,0.0,0.0,
2039.0,2021.0,2052.0,2031.0,0.0,0.0,
2027.0,2032.0,2051.0,2013.0,0.0,0.0,
2024.0,2032.0,2050.0,2043.0,0.0,0.0,
2022.0,2038.0,2050.0,2065.0,0.0,0.0,
2031.0,2029.0,2052.0,2032.0,0.0,0.0,
2007.0,1982.0,2044.0,1967.0,0.0,0.0,
2026.0,1983.0,2050.0,2001.0,0.0,0.0,
2043.0,2003.0,2055.0,2040.0,0.0,0.0,
2047.0,2022.0,2052.0,2036.0,0.0,0.0,
2059.0,2000.0,2051.0,2023.0,0.0,0.0,
2050.0,1993.0,2048.0,2036.0,0.0,0.0,
2064.0,2006.0,2051.0,2043.0,0.0,0.0,
2032.0,2006.0,2049.0,2043.0,0.0,0.0,
2042.0,2006.0,2051.0,2051.0,0,0,
2057.0,2003.0,2057.0,2063.0,0.0,0.0,
2037.0,1997.0,2054.0,2052.0,0.0,0.0,
2041.0,1999.0,2053.0,2015.0,0.0,0.0,
2036.0,2004.0,2054.0,2019.0,0.0,0.0,
2029.0,2010.0,2053.0,2029.0,0.0,0.0,
2012.0,2025.0,2052.0,2033.0,0.0,0.0,
2020.0,2032.0,2057.0,2028.0,0.0,0.0,
2036.0,2015.0,2052.0,2033.0,0.0,0.0,
2046.0,2033.0,2056.0,2041.0,0.0,0.0,
2036.0,1996.0,2051.0,2052.0,0.0,0.0,
2039.0,2002.0,2052.0,2057.0,0.0,0.0,
2044.0,2008.0,2053.0,2049.0,0.0,0.0,
2011.0,1991.0,2051.0,2037.0,0.0,0.0,
2015.0,1994.0,2052.0,2044.0,0.0,1.0,
2035.0,1987.0,2049.0,2047.0,0.0,1.0,
2043.0,1995.0,2051.0,2039.0,0.0,1.0,
2047.0,2017.0,2058.0,2041.0,0.0,1.0,
2039.0,2011.0,2053.0,2047.0,0.0,1.0,
2041.0,2017.0,2053.0,2036.0,0.0,1.0,
2026.0,2014.0,2048.0,2027.0,0.0,1.0,
2016.0,2011.0,2046.0,2029.0,0.0,0.0,
2033.0,2014.0,2052.0,2033.0,0.0,0.0,
2038.0,2020.0,2051.0,2042.0,0.0,0.0,
2052.0,2017.0,2057.0,2041.0,0.0,0.0,
2044.0,2004.0,2053.0,2037.0,0.0,0.0,
2042.0,2024.0,2058.0,2023.0,0.0,0.0,
2030.0,2034.0,2051.0,2019.0,0.0,0.0,
2024.0,2009.0,2050.0,2039.0,0.0,0,
2007.0,1988.0,2049.0,2054.0,0.0,0.0,
2017.0,1993.0,2048.0,2053.0,0.0,0.0,
2054.0,1979.0,2053.0,2067.0,0.0,0.0,
2046.0,1997.0,2058.0,2107.0,0.0,0.0,
2064.0,1990.0,2055.0,2061.0,0.0,0.0,
2052.0,2010.0,2054.0,2019.0,0.0,0.0,
2047.0,2025.0,2052.0,2003.0,0.0,0.0,
2057.0,1998.0,2053.0,1999.0,0.0,0.0,
2035.0,1975.0,2051.0,2038.0,0.0,0.0,
2017.0,1967.0,2046.0,2071.0,0.0,0.0,
2035.0,2024.0,2053.0,2066.0,0.0,0.0,
2049.0,2026.0,2054.0,2068.0,0.0,0.0,
2046.0,2029.0,2051.0,2045.0,0.0,0.0,
2036.0,2036.0,2048.0,2028.0,0.0,0.0,
2026.0,2030.0,2049.0,2015.0,0.0,0.0,
2020.0,2033.0,2051.0,2017.0,0.0,0.0,
2018.0,2024.0,2047.0,2013.0,0.0,0.0,
2012.0,1997.0,2050.0,2020.0,0.0,0.0,
2051.0,1972.0,2054.0,2082.0,0.0,0.0,
2032.0,2001.0,2053.0,2034.0,0.0,0.0,
2038.0,2033.0,2054.0,1995.0,0.0,0.0,
2040.0,2004.0,2052.0,2052.0,0.0,0.0,
2021.0,2000.0,2049.0,2058.0,0.0,0.0,
2023.0,1992.0,2052.0,2053.0,0.0,0.0,
2019.0,2007.0,2053.0,2047.0,0.0,0.0,
2031.0,2034.0,2058.0,2034.0,0.0,0.0,
2055.0,1989.0,2059.0,2063.0,0.0,0.0,
2048.0,1993.0,2056.0,2051.0,0.0,0.0,
2052.0,2000.0,2055.0,2039.0,0.0,0.0,
2062.0,1992.0,2053.0,2035.0,0.0,0.0,
2042.0,1992.0,2050.0,2033.0,0.0,0.0,
2025.0,2010.0,2052.0,2033.0,0.0,0.0,
2015.0,2015.0,2052.0,2034.0,0.0,0,
2035.0,2016.0,2057.0,2036.0,0.0,0.0,
2055.0,2026.0,2058.0,2041.0,0.0,0.0,
2028.0,2018.0,2054.0,2043.0,0.0,0.0,
2039.0,2010.0,2055.0,2071.0,0.0,0.0,
2028.0,2008.0,2051.0,2090.0,0.0,0.0,
2018.0,2033.0,2049.0,2039.0,0.0,0.0,
2035.0,2030.0,2049.0,1998.0,0.0,0.0,
2032.0,2018.0,2048.0,1985.0,0.0,0.0,
2038.0,2001.0,2055.0,2031.0,0.0,0.0,
2049.0,2020.0,2055.0,2026.0,0.0,0.0,
2045.0,2019.0,2055.0,2034.0,0.0,0.0,
2039.0,2009.0,2055.0,2026.0,0.0,0.0,
2026.0,2014.0,2051.0,2033.0,0.0,0.0,
2012.0,2001.0,2053.0,2056.0,0.0,0.0,
2017.0,1999.0,2050.0,2061.0,0.0,0,
2026.0,1977.0,2054.0,2055.0,0.0,1.0,
2054.0,2000.0,2061.0,2068.0,0.0,1.0,
2050.0,1987.0,2057.0,2064.0,0.0,1.0,
2053.0,1988.0,2057.0,2035.0,0.0,1.0,
2041.0,2009.0,2054.0,2031.0,0.0,1.0,
2025.0,2023.0,2051.0,2029.0,0.0,1.0,
2013.0,2043.0,2050.0,2033.0,0.0,1.0,
2020.0,2001.0,2050.0,2050.0,0.0,0.0,
2047.0,2023.0,2051.0,2043.0,0.0,0.0,
2048.0,2022.0,2055.0,2035.0,0.0,0.0,
2057.0,2001.0,2052.0,2064.0,0.0,0.0,
2044.0,2023.0,2054.0,2053.0,0.0,0.0,
2032.0,2032.0,2050.0,2016.0,0.0,0.0,
2013.0,1998.0,2047.0,2031.0,0.0,0.0,
2009.0,1995.0,2055.0,2038.0,0.0,0.0,
2017.0,1978.0,2047.0,2032.0,0.0,0.0,
2043.0,2004.0,2052.0,2030.0,0.0,0.0,
2071.0,1999.0,2056.0,2058.0,0.0,0.0,
2064.0,2022.0,2060.0,2035.0,0.0,0.0,
2040.0,2001.0,2054.0,2025.0,0.0,0.0,
2041.0,2028.0,2051.0,2036.0,0.0,0.0,
2016.0,1997.0,2052.0,2021.0,0.0,0.0,
2036.0,1985.0,2051.0,2074.0,0.0,0.0,
2042.0,2013.0,2051.0,2065.0,0.0,0.0,
2043.0,2002.0,2051.0,2062.0,0.0,0.0,
2035.0,2006.0,2053.0,2042.0,0.0,0.0,
2031.0,2034.0,2050.0,2027.0,0.0,0.0,
2042.0,2023.0,2056.0,2001.0,0.0,0.0,
2035.0,2018.0,2054.0,2015.0,0.0,0.0,
2023.0,2014.0,2051.0,2024.0,0.0,0.0,
2017.0,2030.0,2051.0,2023.0,0.0,0.0,
2029.0,2022.0,2050.0,2032.0,0.0,0.0,
2053.0,1995.0,2054.0,2066.0,0.0,0.0,
2034.0,2013.0,2055.0,2057.0,0.0,0.0,
2022.0,2022.0,2050.0,2063.0,0.0,0.0,
2037.0,2008.0,2054.0,2052.0,0.0,0.0,
2010.0,2010.0,2048.0,2029.0,0.0,0.0,
2031.0,1991.0,2051.0,2021.0,0.0,0.0,
2033.0,1987.0,2049.0,2032.0,0.0,0.0,
2042.0,1983.0,2048.0,2063.0,0.0,0.0,
2058.0,2021.0,2058.0,2047.0,0.0,0.0,
2038.0,1997.0,2053.0,2058.0,0.0,0.0,
2032.0,2008.0,2054.0,2062.0,0.0,0.0,
2028.0,1997.0,2049.0,2069.0,0.0,0.0,
2039.0,2006.0,2049.0,2039.0,0.0,0.0,
2009.0,2042.0,2047.0,2004.0,0.0,0.0,
2019.0,2003.0,2046.0,2008.0,0.0,0.0,
2036.0,2018.0,2056.0,2016.0,0.0,0.0,
2066.0,2022.0,2059.0,2042.0,0.0,0.0,
2050.0,2013.0,2055.0,2033.0,0.0,0.0,
2045.0,1991.0,2054.0,2030.0,0.0,0.0,
2040.0,1991.0,2049.0,2039.0,0.0,0.0,
2022.0,1978.0,2043.0,2058.0,0.0,0.0,
2009.0,2010.0,2047.0,2056.0,0.0,0.0,
2029.0,2016.0,2050.0,2058.0,0.0,0.0,
2054.0,1989.0,2051.0,2052.0,0.0,0.0,
2061.0,2008.0,2055.0,2067.0,0.0,1.0,
2040.0,2005.0,2050.0,2010.0,0.0,1.0,
2016.0,2019.0,2049.0,2020.0,0.0,1.0,
2012.0,2041.0,2049.0,2034.0,0.0,1.0,
2011.0,2031.0,2050.0,2033.0,0.0,1.0,
2007.0,2000.0,2050.0,2055.0,0.0,1.0,
2016.0,1989.0,2053.0,2043.0,0.0,1.0,
2072.0,2014.0,2056.0,2030.0,0.0,1.0,
2057.0,1991.0,2053.0,2015.0,0.0,1.0,
2009.0,1982.0,2047.0,2047.0,0.0,1.0,
2031.0,2016.0,2051.0,2068.0,0.0,1.0,
2024.0,2007.0,2049.0,2057.0,0.0,1.0,
2025.0,2012.0,2047.0,2061.0,0.0,1.0,
2029.0,2020.0,2048.0,2025.0,0.0,1.0,
2029.0,2023.0,2050.0,2009.0,0.0,1.0,
2027.0,2020.0,2051.0,2025.0,0.0,1.0,
2053.0,2010.0,2054.0,2016.0,0.0,1.0,
2048.0,1997.0,2053.0,2026.0,0.0,1.0,
2043.0,2002.0,2051.0,2061.0,0.0,1.0,
2024.0,2000.0,2046.0,2056.0,0.0,1.0,
2013.0,2020.0,2049.0,2052.0,0.0,1.0,
2016.0,2001.0,2049.0,2028.0,0.0,1.0,
2024.0,1996.0,2052.0,2034.0,0.0,1.0,
2030.0,2017.0,2054.0,2030.0,0.0,1.0,
2064.0,2011.0,2056.0,2019.0,0.0,1.0,
2039.0,2033.0,2050.0,2030.0,0.0,1.0,
2031.0,2028.0,2053.0,2039.0,0.0,1.0,
2025.0,2016.0,2053.0,2081.0,0.0,1.0,
1990.0,1973.0,2047.0,2061.0,0.0,1.0,
2038.0,1983.0,2053.0,2054.0,0.0,0.0,
2062.0,1971.0,2057.0,2048.0,0.0,0.0,
2056.0,2000.0,2057.0,2086.0,0.0,0.0,
2058.0,2020.0,2056.0,2076.0,0.0,0.0,
2024.0,2019.0,2052.0,2023.0,0.0,0.0,
2027.0,2019.0,2051.0,2015.0,0,0,
2021.0,2021.0,2048.0,2032.0,0.0,0.0,
2019.0,2017.0,2035.0,2045.0,0.0,0.0,
2050.0,1982.0,2054.0,2039.0,0.0,0.0,
2050.0,2012.0,2053.0,2029.0,0.0,0.0,
2041.0,2008.0,2054.0,2023.0,0.0,0.0,
2037.0,2019.0,2051.0,2027.0,0.0,0.0,
2027.0,2015.0,2052.0,2056.0,0.0,0.0,
2014.0,2009.0,2049.0,2045.0,0.0,0.0,
2026.0,2017.0,2051.0,2050.0,0.0,0.0,
2021.0,2016.0,2051.0,2024.0,0.0,0.0,
2026.0,1998.0,2049.0,2025.0,0.0,0.0,
2025.0,2002.0,2052.0,2032.0,0.0,0.0,
2040.0,2001.0,2057.0,2009.0,0.0,0.0,
2030.0,2015.0,2053.0,2047.0,0.0,0.0,
2012.0,2045.0,2048.0,2051.0,0.0,0.0,
2034.0,2023.0,2052.0,2014.0,0.0,0.0,
2017.0,2014.0,2048.0,2030.0,0,0,
2042.0,1983.0,2053.0,2036.0,0.0,0.0,
2072.0,1998.0,2057.0,2045.0,0.0,0.0,
2072.0,2010.0,2057.0,2042.0,0.0,0.0,
2061.0,2026.0,2054.0,2052.0,0.0,0.0,
2046.0,2013.0,2056.0,2046.0,0.0,0.0,
2009.0,2020.0,2046.0,2057.0,0.0,1.0,
2016.0,1997.0,2048.0,2021.0,0.0,0.0,
2026.0,2008.0,2048.0,2043.0,0.0,0.0,
2041.0,1981.0,2054.0,2041.0,0.0,0.0,
2050.0,1970.0,2054.0,2057.0,0.0,0.0,
2031.0,2024.0,2051.0,2022.0,0.0,0.0,
2056.0,2041.0,2054.0,2029.0,0.0,0.0,
2036.0,2014.0,2048.0,2029.0,0.0,1.0,
2024.0,1990.0,2050.0,2097.0,0.0,1.0,
2013.0,2012.0,2048.0,2095.0,0.0,1.0,
2032.0,2021.0,2051.0,2057.0,0.0,1.0,
2054.0,2041.0,2057.0,2021.0,0.0,1.0,
2055.0,1996.0,2058.0,2003.0,0.0,1.0,
2029.0,1958.0,2052.0,2028.0,0.0,1.0,
2042.0,1986.0,2053.0,2064.0,0.0,1.0,
2043.0,1990.0,2051.0,2078.0,0.0,1.0,
2021.0,1998.0,2049.0,2065.0,0.0,1.0,
2020.0,2027.0,2048.0,2025.0,0.0,1.0,
2047.0,2042.0,2052.0,1995.0,0.0,1.0,
2056.0,2033.0,2056.0,1988.0,0.0,0.0,
2041.0,2018.0,2054.0,2017.0,0.0,1.0,
2031.0,1999.0,2053.0,2038.0,0.0,1.0,
2023.0,2010.0,2049.0,2026.0,0,0,
2023.0,2005.0,2049.0,2068.0,0.0,1.0,
2025.0,2006.0,2050.0,2060.0,0.0,1.0,
2003.0,2016.0,2049.0,2037.0,0.0,1.0,
2018.0,2030.0,2050.0,2029.0,0.0,0.0,
2038.0,2019.0,2052.0,2018.0,0.0,0.0,
2051.0,2002.0,2054.0,2045.0,0.0,0.0,
2044.0,1992.0,2049.0,2090.0,0.0,0.0,
2026.0,2003.0,2047.0,2079.0,0.0,0.0,
2006.0,2014.0,2049.0,2060.0,0,0,
2015.0,2006.0,2048.0,1985.0,0.0,0.0,
2019.0,2011.0,2051.0,2030.0,0.0,0.0,
2053.0,2020.0,2052.0,2044.0,0.0,0.0,
2035.0,2019.0,2051.0,2038.0,0.0,0.0,
2029.0,2004.0,2052.0,2026.0,0.0,0.0,
2031.0,1982.0,2052.0,2053.0,0.0,0.0,
2033.0,1990.0,2052.0,2043.0,0.0,0.0,
2050.0,1948.0,2052.0,2091.0,0.0,0.0,
2013.0,2003.0,2049.0,2087.0,0.0,0.0,
2030.0,2032.0,2050.0,2058.0,0.0,0.0,
2013.0,2040.0,2050.0,2065.0,0.0,0.0,
2029.0,2047.0,2051.0,2037.0,0.0,0.0,
2041.0,2047.0,2056.0,2006.0,0.0,0.0,
2069.0,2035.0,2057.0,1990.0,0.0,0.0,
2066.0,1995.0,2053.0,1995.0,0.0,0.0,
2026.0,1985.0,2048.0,2010.0,0.0,0.0,
2028.0,2021.0,2050.0,1978.0,0.0,0.0,
2039.0,2003.0,2052.0,1994.0,0.0,0.0,
2031.0,1999.0,2055.0,2044.0,0.0,0.0,
2034.0,1992.0,2055.0,2091.0,0.0,0.0,
2044.0,1986.0,2057.0,2088.0,0.0,0.0,
2039.0,2000.0,2050.0,2056.0,0.0,0.0,
2024.0,1993.0,2049.0,2037.0,0.0,0.0,
2020.0,2038.0,2048.0,2040.0,0.0,0.0,
2013.0,2034.0,2047.0,2033.0,0.0,0.0,
2014.0,1998.0,2050.0,2026.0,0.0,0.0,
2018.0,1992.0,2050.0,2070.0,0.0,0.0,
2031.0,2027.0,2052.0,2048.0,0.0,0.0,
2039.0,2021.0,2053.0,2020.0,0.0,0.0,
2013.0,2029.0,2056.0,2053.0,0.0,0.0,
2013.0,1967.0,2052.0,2038.0,0.0,0.0,
2034.0,1978.0,2053.0,2048.0,0.0,1.0,
2012.0,1987.0,2050.0,2071.0,0.0,1.0,
2039.0,1980.0,2049.0,2080.0,0.0,1.0,
2069.0,2049.0,2053.0,2068.0,0.0,1.0,
2053.0,2056.0,2054.0,1982.0,0.0,1.0,
2032.0,2042.0,2053.0,1947.0,0.0,1.0,
2015.0,2075.0,2050.0,2038.0,0.0,1.0,
2016.0,2025.0,2053.0,2063.0,0.0,1.0,
2032.0,1969.0,2054.0,2043.0,0.0,1.0,
2059.0,1964.0,2055.0,2023.0,0.0,1.0,
2034.0,2012.0,2052.0,2035.0,0.0,1.0,
2011.0,2085.0,2050.0,2010.0,0.0,1.0,
2026.0,2023.0,2047.0,2018.0,0.0,1.0,
1984.0,1964.0,2045.0,2013.0,0.0,1.0,
2044.0,1920.0,2051.0,2098.0,0.0,1.0,
2040.0,1940.0,2053.0,2137.0,0.0,1.0,
2054.0,2054.0,2052.0,2052.0,0.0,1.0,
2030.0,1997.0,2056.0,2018.0,0.0,1.0,
2084.0,1984.0,2063.0,2054.0,0.0,1.0,
2066.0,2034.0,2055.0,2050.0,0.0,1.0,
2045.0,1967.0,2054.0,2101.0,0.0,1.0,
2046.0,1938.0,2054.0,2072.0,0.0,1.0,
1993.0,2037.0,2048.0,2062.0,0.0,1.0,
1993.0,2058.0,2046.0,1956.0,0.0,1.0,
2027.0,1997.0,2051.0,2022.0,0.0,1.0,
2061.0,2033.0,2054.0,1993.0,0.0,1.0,
2061.0,2041.0,2055.0,1993.0,0.0,1.0,
2042.0,1995.0,2055.0,2023.0,0.0,1.0,
2034.0,2009.0,2056.0,2048.0,0.0,1.0,
2015.0,2005.0,2052.0,2024.0,0.0,1.0,
1976.0,2046.0,2046.0,1966.0,0.0,1.0,
2021.0,2043.0,2051.0,1989.0,0.0,1.0,
2043.0,2023.0,2054.0,2053.0,0.0,1.0,
2048.0,1991.0,2054.0,2141.0,0.0,1.0,
2033.0,1970.0,2053.0,2119.0,0.0,1.0,
2049.0,1985.0,2054.0,2001.0,0.0,1.0,
2040.0,1998.0,2063.0,2036.0,0.0,1.0,
2008.0,2013.0,2049.0,2079.0,0.0,1.0,
1996.0,2035.0,2045.0,2035.0,0.0,1.0,
2017.0,2068.0,2052.0,2081.0,0.0,1.0,
1990.0,2039.0,2045.0,2059.0,0.0,1.0,
2004.0,1976.0,2049.0,2126.0,0.0,0.0,
2025.0,2059.0,2055.0,2024.0,0,0,
2000.0,2065.0,2048.0,1939.0,0.0,0.0,
2026.0,2023.0,2052.0,1948.0,0.0,0.0,
2047.0,2006.0,2053.0,1975.0,0.0,0.0,
2030.0,1957.0,2049.0,2042.0,0.0,0.0,
2078.0,1915.0,2056.0,2052.0,0.0,0.0,
2063.0,1969.0,2054.0,2027.0,0.0,0.0,
2070.0,1925.0,2062.0,2063.0,0.0,0.0,
2070.0,1947.0,2061.0,2070.0,0.0,0.0,
2031.0,2059.0,2049.0,2107.0,0.0,0.0,
2009.0,1977.0,2048.0,2078.0,0,0,
1999.0,2083.0,2046.0,2168.0,0.0,0.0,
1993.0,2110.0,2048.0,2092.0,0.0,0.0,
2004.0,2046.0,2044.0,2094.0,0.0,0.0,
2028.0,1972.0,2050.0,1967.0,0.0,0.0,
2075.0,1951.0,2059.0,1995.0,0.0,0.0,
2045.0,2013.0,2055.0,1945.0,0.0,0.0,
2063.0,2065.0,2054.0,1915.0,0.0,0.0,
2054.0,2058.0,2056.0,1961.0,0.0,0.0,
1995.0,1991.0,2048.0,2008.0,0.0,1.0,
2005.0,1953.0,2052.0,2102.0,0.0,1.0,
2001.0,2031.0,2056.0,2055.0,0.0,1.0,
2006.0,2004.0,2051.0,1886.0,0.0,1.0,
2112.0,2044.0,2060.0,2004.0,0.0,1.0,
2066.0,2005.0,2054.0,2131.0,0.0,1.0,
1985.0,1782.0,2043.0,2236.0,0.0,1.0,
2043.0,1962.0,2056.0,2159.0,0.0,1.0,
2018.0,2005.0,2046.0,2095.0,0.0,1.0,
1956.0,2049.0,2038.0,2043.0,0.0,1.0,
2039.0,2107.0,2053.0,2142.0,0.0,1.0,
2052.0,1982.0,2057.0,2128.0,0.0,1.0,
2077.0,1983.0,2055.0,2182.0,0.0,1.0,
2053.0,2017.0,2055.0,2007.0,0.0,1.0,
2045.0,1990.0,2054.0,1874.0,0.0,1.0,
2059.0,1991.0,2053.0,1791.0,0.0,1.0,
2028.0,2012.0,2050.0,1966.0,0.0,1.0,
2053.0,2064.0,2052.0,2010.0,0.0,1.0,
2045.0,2072.0,2051.0,1995.0,0.0,1.0,
2053.0,2049.0,2054.0,2093.0,0.0,1.0,
2010.0,2015.0,2052.0,2157.0,0.0,1.0,
2016.0,2037.0,2048.0,1958.0,0.0,1.0,
2007.0,2059.0,2050.0,1968.0,0.0,1.0,
2004.0,1890.0,2044.0,2111.0,0.0,1.0,
2018.0,1995.0,2052.0,2047.0,0.0,1.0,
2020.0,1945.0,2050.0,2141.0,0.0,1.0,
2011.0,2009.0,2045.0,2065.0,-1.0,1.0,
2033.0,1947.0,2050.0,1977.0,-1.0,1.0,
2037.0,1851.0,2051.0,2079.0,-1.0,1.0,
2031.0,1944.0,2052.0,1985.0,-1.0,1.0,
2049.0,2055.0,2050.0,2064.0,-1.0,0,
2035.0,2038.0,2051.0,2059.0,-1.0,1.0,
2007.0,2080.0,2048.0,2097.0,-1.0,1.0,
2016.0,2067.0,2055.0,2085.0,-1.0,0.0,
2020.0,2044.0,2053.0,2069.0,-1.0,0.0,
2026.0,2044.0,2056.0,2008.0,-1.0,0.0,
2051.0,2016.0,2057.0,1980.0,-1.0,0.0,
2043.0,2021.0,2055.0,2009.0,-2.0,0.0,
2027.0,2062.0,2049.0,2053.0,-2.0,0.0,
2035.0,2101.0,2053.0,2103.0,-2.0,0.0,
2015.0,2053.0,2051.0,1927.0,0,0,
2004.0,2087.0,2049.0,1913.0,-2.0,0.0,
2066.0,1954.0,2056.0,2095.0,-2.0,1.0,
2062.0,1930.0,2057.0,2020.0,-2.0,1.0,
2044.0,1882.0,2051.0,2138.0,-2.0,1.0,
2042.0,1941.0,2052.0,2077.0,-3.0,1.0,
2047.0,2075.0,2061.0,2125.0,0,0,
2042.0,2091.0,2053.0,2089.0,-3.0,1.0,
1994.0,1945.0,2046.0,2081.0,-3.0,1.0,
2000.0,1998.0,2047.0,2093.0,-3.0,1.0,
2016.0,1998.0,2049.0,1957.0,-3.0,1.0,
2096.0,1957.0,2054.0,1906.0,-3.0,1.0,
2059.0,1943.0,2057.0,1921.0,-3.0,1.0,
2026.0,2011.0,2055.0,2006.0,-3.0,1.0,
1992.0,1946.0,2047.0,2168.0,-3.0,1.0,
2001.0,1963.0,2051.0,1877.0,-3.0,1.0,
2002.0,2076.0,2053.0,1970.0,-4.0,0,
2056.0,2057.0,2057.0,1969.0,-4.0,1.0,
2065.0,2009.0,2061.0,2115.0,-4.0,1.0,
2022.0,2096.0,2050.0,2217.0,-4.0,1.0,
2044.0,2033.0,2053.0,2275.0,-4.0,1.0,
2064.0,1962.0,2058.0,1972.0,-5.0,1.0,
2023.0,1917.0,2048.0,1982.0,0,0,
2029.0,1959.0,2047.0,2059.0,-5.0,1.0,
2036.0,2098.0,2048.0,2062.0,-5.0,1.0,
2056.0,2048.0,2058.0,1986.0,-5.0,1.0,
2063.0,1970.0,2055.0,2003.0,-6.0,0.0,
2050.0,1977.0,2055.0,2002.0,-6.0,0.0,
2029.0,2068.0,2054.0,2029.0,-6.0,0.0,
2002.0,2125.0,2048.0,2001.0,-6.0,0.0,
2032.0,2150.0,2053.0,1999.0,-6.0,0.0,
2034.0,2033.0,2050.0,2013.0,-7.0,0.0,
1983.0,1948.0,2044.0,2112.0,-7.0,-1.0,
2029.0,1935.0,2049.0,2076.0,-7.0,-1.0,
2092.0,1976.0,2060.0,2033.0,-7.0,-1.0,
2018.0,2022.0,2050.0,2023.0,-7.0,-1.0,
2074.0,2019.0,2057.0,2063.0,-8.0,-1.0,
2033.0,1985.0,2052.0,2108.0,-8.0,-1.0,
1976.0,2044.0,2039.0,2056.0,-8.0,0.0,
2005.0,2039.0,2048.0,1956.0,-8.0,0.0,
2042.0,2005.0,2053.0,1972.0,0,0,
2033.0,1949.0,2052.0,1949.0,-8.0,0.0,
2058.0,1951.0,2058.0,2153.0,-9.0,0.0,
2046.0,1924.0,2049.0,2053.0,-9.0,0.0,
2052.0,1982.0,2056.0,2160.0,-9.0,0.0,
2000.0,2104.0,2047.0,2090.0,-9.0,0.0,
2042.0,2071.0,2059.0,2028.0,-9.0,0.0,
2028.0,2046.0,2050.0,1849.0,-9.0,0.0,
2048.0,1996.0,2051.0,2222.0,-9.0,0.0,
2078.0,1954.0,2057.0,2240.0,-10.0,0.0,
2032.0,2047.0,2050.0,1974.0,-10.0,0.0,
2000.0,1985.0,2048.0,1889.0,-10.0,0.0,
1998.0,1953.0,2052.0,2004.0,-10.0,0.0,
2014.0,2062.0,2051.0,1932.0,-10.0,0.0,
2024.0,2075.0,2055.0,2016.0,-10.0,0.0,
2073.0,2007.0,2061.0,2116.0,-10.0,0.0,
2057.0,1919.0,2054.0,2164.0,-11.0,0.0,
2012.0,2075.0,2059.0,1799.0,-11.0,0.0,
2081.0,2262.0,2062.0,1773.0,-11.0,0.0,
2018.0,2152.0,2050.0,1896.0,-11.0,0.0,
2039.0,1782.0,2054.0,2042.0,-11.0,0.0,
1988.0,1687.0,2046.0,2277.0,-11.0,0.0,
2062.0,2041.0,2053.0,2360.0,-11.0,0.0,
2003.0,2130.0,2043.0,2186.0,-12.0,0.0,
2051.0,2014.0,2054.0,2041.0,-12.0,0.0,
2035.0,1896.0,2055.0,1843.0,-12.0,0.0,
2028.0,1865.0,2056.0,2056.0,-12.0,0.0,
1998.0,2040.0,2050.0,2078.0,-12.0,0.0,
2014.0,1897.0,2052.0,2154.0,-13.0,1.0,
2026.0,2067.0,2048.0,2041.0,-13.0,1.0,
2076.0,2032.0,2062.0,1892.0,-13.0,1.0,
2055.0,2115.0,2054.0,1972.0,-13.0,1.0,
2089.0,2085.0,2058.0,2134.0,-13.0,1.0,
2045.0,2028.0,2051.0,2238.0,-14.0,1.0,
2029.0,2012.0,2054.0,2030.0,-14.0,1.0,
1989.0,2024.0,2049.0,1879.0,0,0,
2011.0,2038.0,2064.0,2030.0,-14.0,1.0,
2016.0,2034.0,2053.0,1988.0,-14.0,1.0,
2085.0,1989.0,2051.0,1938.0,-14.0,1.0,
2109.0,1993.0,2059.0,2023.0,-14.0,1.0,
2058.0,1967.0,2056.0,1994.0,-14.0,1.0,
2056.0,1950.0,2055.0,1917.0,-14.0,1.0,
2000.0,2020.0,2045.0,2065.0,-15.0,1.0,
1998.0,2069.0,2047.0,2002.0,-15.0,1.0,
1970.0,1985.0,2039.0,2153.0,-15.0,1.0,
2001.0,2005.0,2049.0,2151.0,-15.0,1.0,
2045.0,1985.0,2054.0,2025.0,-15.0,1.0,
2030.0,2086.0,2052.0,1960.0,-15.0,1.0,
2033.0,2134.0,2055.0,1914.0,-15.0,1.0,
2052.0,2084.0,2055.0,1879.0,-15.0,1.0,
2097.0,1898.0,2057.0,2030.0,-15.0,1.0,
1997.0,1907.0,2050.0,2469.0,-16.0,1.0,
1957.0,1958.0,2045.0,2191.0,-16.0,1.0,
1997.0,1895.0,2052.0,1806.0,-16.0,1.0,
2048.0,2051.0,2056.0,2055.0,-16.0,1.0,
2054.0,2078.0,2054.0,2051.0,-16.0,1.0,
2041.0,1929.0,2051.0,2225.0,-16.0,1.0,
2060.0,2030.0,2057.0,2105.0,-16.0,0,
1999.0,2108.0,2041.0,2040.0,-16.0,1.0,
1998.0,2058.0,2044.0,1920.0,-16.0,1.0,
2019.0,1966.0,2044.0,1940.0,-16.0,1.0,
2027.0,2101.0,2051.0,1928.0,-17.0,1.0,
2078.0,2193.0,2061.0,1963.0,-17.0,1.0,
2040.0,1934.0,2053.0,2150.0,-17.0,1.0,
1993.0,1841.0,2038.0,1944.0,-17.0,1.0,
2036.0,1914.0,2051.0,2205.0,-17.0,1.0,
2065.0,1999.0,2057.0,2033.0,-17.0,1.0,
2062.0,1975.0,2054.0,1943.0,-17.0,1.0,
2011.0,2014.0,2045.0,1959.0,-17.0,1.0,
1994.0,2145.0,2048.0,2224.0,-17.0,1.0,
2017.0,1921.0,2046.0,2224.0,-18.0,1.0,
2078.0,2009.0,2055.0,1963.0,-18.0,1.0,
2084.0,1902.0,2052.0,1836.0,-18.0,1.0,
2065.0,1946.0,2058.0,2138.0,-18.0,1.0,
2060.0,2087.0,2059.0,2110.0,-18.0,1.0,
2027.0,2108.0,2056.0,2065.0,-18.0,1.0,
1968.0,2033.0,2040.0,1853.0,-18.0,1.0,
2022.0,2115.0,2054.0,2101.0,-18.0,1.0,
2006.0,2000.0,2051.0,2133.0,-18.0,2.0,
2067.0,2008.0,2059.0,2127.0,-18.0,2.0,
2087.0,1912.0,2056.0,1942.0,-18.0,2.0,
2033.0,1929.0,2051.0,1827.0,-19.0,2.0,
2024.0,2049.0,2053.0,2027.0,-19.0,2.0,
2035.0,2117.0,2051.0,2006.0,-19.0,2.0,
2009.0,2040.0,2043.0,1838.0,-19.0,2.0,
2154.0,1772.0,2061.0,2120.0,0,0,
2060.0,1818.0,2059.0,2288.0,-19.0,2.0,
2068.0,2009.0,2059.0,2223.0,-19.0,2.0,
2011.0,2131.0,2046.0,1935.0,-19.0,2.0,
2015.0,2186.0,2051.0,2024.0,-19.0,3.0,
2006.0,1964.0,2046.0,2089.0,-20.0,3.0,
1994.0,2000.0,2045.0,2085.0,-20.0,3.0,
2050.0,2093.0,2056.0,2001.0,-20.0,3.0,
2102.0,2031.0,2067.0,1817.0,-20.0,3.0,
1945.0,1949.0,2044.0,1937.0,-20.0,3.0,
2006.0,2016.0,2046.0,2193.0,-20.0,3.0,
1971.0,2048.0,2045.0,1920.0,-20.0,3.0,
2012.0,2084.0,2051.0,2021.0,-20.0,3.0,
2015.0,1989.0,2048.0,2236.0,-21.0,0,
2087.0,1919.0,2060.0,2162.0,-21.0,2.0,
2069.0,2056.0,2063.0,2053.0,-21.0,2.0,
2017.0,1984.0,2067.0,2047.0,-21.0,2.0,
1985.0,1892.0,2042.0,1998.0,-21.0,2.0,
2060.0,2037.0,2056.0,2014.0,-21.0,2.0,
2080.0,2066.0,2060.0,1933.0,-21.0,2.0,
2057.0,2013.0,2056.0,1956.0,-21.0,2.0,
1968.0,1891.0,2041.0,2131.0,-22.0,2.0,
1982.0,1937.0,2048.0,2112.0,-22.0,2.0,
1951.0,2023.0,2045.0,2018.0,-22.0,2.0,
2013.0,2276.0,2052.0,1994.0,-22.0,2.0,
2085.0,1953.0,2057.0,2102.0,-22.0,2.0,
2100.0,1745.0,2059.0,2145.0,-22.0,2.0,
2069.0,2001.0,2056.0,1817.0,-22.0,2.0,
1974.0,2061.0,2045.0,2075.0,-22.0,2.0,
1981.0,2006.0,2044.0,2270.0,-22.0,2.0,
2046.0,2027.0,2051.0,1986.0,-23.0,2.0,
2063.0,2119.0,2053.0,1880.0,-23.0,2.0,
2105.0,1961.0,2065.0,1857.0,0,0,
2026.0,1958.0,2046.0,1871.0,-23.0,2.0,
2062.0,2192.0,2059.0,2301.0,-23.0,2.0,
1949.0,2088.0,2042.0,1998.0,-23.0,2.0,
1955.0,1947.0,2048.0,1846.0,-23.0,2.0,
1970.0,1718.0,2041.0,2285.0,-23.0,2.0,
2093.0,1925.0,2053.0,2198.0,-23.0,2.0,
2171.0,1937.0,2065.0,2133.0,-24.0,3.0,
2066.0,1983.0,2055.0,1875.0,-24.0,3.0,
2020.0,2082.0,2048.0,2089.0,-24.0,3.0,
2025.0,2024.0,2049.0,2015.0,-24.0,3.0,
2072.0,2071.0,2052.0,2039.0,-24.0,3.0,
2020.0,2095.0,2048.0,2222.0,-24.0,3.0,
2013.0,1984.0,2047.0,2145.0,-24.0,3.0,
2010.0,1955.0,2046.0,1890.0,-24.0,3.0,
1980.0,1995.0,2043.0,1752.0,-24.0,3.0,
2082.0,1991.0,2057.0,2258.0,-24.0,3.0,
2007.0,1984.0,2046.0,2261.0,-24.0,3.0,
1999.0,2038.0,2050.0,1915.0,-24.0,3.0,
2021.0,2075.0,2054.0,1752.0,-25.0,3.0,
2019.0,2064.0,2052.0,2001.0,-25.0,3.0,
2000.0,1964.0,2042.0,2034.0,-25.0,3.0,
2037.0,1992.0,2056.0,1897.0,-25.0,3.0,
2023.0,2004.0,2052.0,2214.0,-25.0,3.0,
2047.0,2181.0,2055.0,2080.0,-25.0,3.0,
2097.0,1968.0,2059.0,2073.0,-25.0,3.0,
2052.0,1729.0,2055.0,1985.0,-25.0,3.0,
1976.0,1930.0,2049.0,2088.0,0,0,
1964.0,2065.0,2048.0,2041.0,-25.0,2.0,
2055.0,2079.0,2059.0,2319.0,-25.0,2.0,
2038.0,2042.0,2052.0,2279.0,-26.0,2.0,
2093.0,2024.0,2057.0,1795.0,-26.0,2.0,
2082.0,2009.0,2061.0,1760.0,-26.0,2.0,
2020.0,1856.0,2051.0,2136.0,-26.0,2.0,
1962.0,2010.0,2043.0,2030.0,-26.0,2.0,
2020.0,1994.0,2054.0,2179.0,-26.0,2.0,
2006.0,2097.0,2045.0,2069.0,-26.0,2.0,
2109.0,2115.0,2059.0,2111.0,-26.0,2.0,
2043.0,1929.0,2053.0,2159.0,-26.0,2.0,
2030.0,2082.0,2053.0,2034.0,0,0,
2004.0,1980.0,2046.0,1823.0,-27.0,2.0,
2045.0,2104.0,2056.0,1686.0,-27.0,2.0,
1980.0,1967.0,2042.0,2020.0,-27.0,2.0,
2092.0,1960.0,2056.0,2174.0,-27.0,2.0,
2028.0,2002.0,2047.0,2087.0,-27.0,2.0,
2046.0,2054.0,2047.0,2000.0,-27.0,2.0,
2028.0,2018.0,2051.0,2032.0,-27.0,2.0,
2024.0,2055.0,2056.0,2035.0,-27.0,2.0,
2046.0,1910.0,2050.0,2058.0,0,0,
2009.0,1914.0,2049.0,2019.0,-27.0,2.0,
2044.0,1993.0,2051.0,2158.0,-27.0,2.0,
2032.0,1995.0,2049.0,2238.0,-27.0,2.0,
2076.0,1970.0,2056.0,2266.0,-27.0,2.0,
2033.0,2021.0,2052.0,1941.0,-27.0,2.0,
2057.0,2089.0,2055.0,1870.0,-28.0,0,
2043.0,2160.0,2058.0,2200.0,-28.0,2.0,
2075.0,2145.0,2054.0,2229.0,-28.0,2.0,
1985.0,1998.0,2042.0,1802.0,-28.0,2.0,
1949.0,1980.0,2038.0,1650.0,-28.0,2.0,
1974.0,1938.0,2043.0,2143.0,-28.0,2.0,
2041.0,1885.0,2054.0,2109.0,-28.0,2.0,
2039.0,1937.0,2050.0,1893.0,-28.0,2.0,
2052.0,1992.0,2050.0,2029.0,-28.0,2.0,
2052.0,1926.0,2055.0,1967.0,-28.0,2.0,
2095.0,1962.0,2055.0,1966.0,-28.0,2.0,
2052.0,1953.0,2050.0,2178.0,-28.0,2.0,
2024.0,2030.0,2048.0,2430.0,-28.0,2.0,
1985.0,2123.0,2041.0,1936.0,-28.0,2.0,
2036.0,1936.0,2051.0,1969.0,-28.0,2.0,
2085.0,2145.0,2057.0,1974.0,-28.0,2.0,
1989.0,2241.0,2044.0,2094.0,-29.0,2.0,
1984.0,2012.0,2050.0,1924.0,-29.0,1.0,
1908.0,2017.0,2034.0,2093.0,-29.0,1.0,
2052.0,2159.0,2049.0,2100.0,-29.0,1.0,
1971.0,2147.0,2046.0,1933.0,-29.0,1.0,
2158.0,1757.0,2063.0,1873.0,-29.0,1.0,
2051.0,1793.0,2053.0,2088.0,-29.0,1.0,
2000.0,2036.0,2050.0,2085.0,-29.0,1.0,
2057.0,1977.0,2060.0,1979.0,-29.0,1.0,
2071.0,2094.0,2052.0,1976.0,-29.0,1.0,
2058.0,1868.0,2049.0,2438.0,-29.0,1.0,
2050.0,2063.0,2056.0,2195.0,-29.0,1.0,
1981.0,2231.0,2047.0,1825.0,-29.0,1.0,
1963.0,2041.0,2044.0,2092.0,0,0,
2113.0,1838.0,2070.0,1961.0,-29.0,1.0,
2055.0,1843.0,2056.0,1989.0,-30.0,1.0,
2060.0,1931.0,2060.0,1976.0,-30.0,1.0,
2085.0,2108.0,2059.0,1900.0,-30.0,1.0,
2075.0,2285.0,2061.0,1917.0,-30.0,1.0,
1961.0,1944.0,2034.0,2290.0,-30.0,1.0,
2044.0,1901.0,2049.0,2070.0,-30.0,1.0,
2011.0,1995.0,2049.0,2044.0,-30.0,1.0,
2047.0,2066.0,2052.0,2115.0,-30.0,1.0,
1989.0,1984.0,2047.0,2221.0,-30.0,1.0,
2016.0,1943.0,2051.0,1897.0,-30.0,1.0,
2080.0,1985.0,2061.0,1980.0,-30.0,2.0,
2033.0,1971.0,2050.0,2016.0,-30.0,1.0,
2008.0,1955.0,2049.0,2152.0,-30.0,1.0,
1994.0,1995.0,2048.0,2034.0,-31.0,1.0,
2011.0,2100.0,2050.0,1972.0,-31.0,1.0,
2016.0,2083.0,2054.0,1972.0,0,0,
2060.0,2043.0,2058.0,1972.0,-31.0,1.0,
2095.0,1920.0,2048.0,2044.0,-31.0,1.0,
2008.0,1960.0,2048.0,2066.0,-31.0,1.0,
2006.0,1963.0,2050.0,2007.0,-31.0,1.0,
1985.0,2071.0,2048.0,2098.0,-31.0,1.0,
1946.0,2087.0,2046.0,1919.0,-31.0,1.0,
1981.0,2025.0,2042.0,2045.0,-31.0,1.0,
2149.0,2034.0,2065.0,2144.0,-31.0,1.0,
2081.0,2166.0,2055.0,1996.0,-31.0,1.0,
2076.0,2119.0,2059.0,2064.0,-31.0,1.0,
2047.0,1921.0,2053.0,1905.0,-31.0,1.0,
1991.0,1837.0,2047.0,1983.0,0,0,
2020.0,1973.0,2051.0,2186.0,-31.0,1.0,
2001.0,1998.0,2050.0,1994.0,-32.0,1.0,
2025.0,2018.0,2053.0,2023.0,-32.0,1.0,
2005.0,2147.0,2052.0,2037.0,-32.0,1.0,
2028.0,2024.0,2045.0,2024.0,-32.0,1.0,
2108.0,1741.0,2053.0,2444.0,-32.0,1.0,
2119.0,1876.0,2060.0,2023.0,-32.0,1.0,
2102.0,1848.0,2061.0,2056.0,-32.0,1.0,
2023.0,1964.0,2047.0,1847.0,-32.0,1.0,
2018.0,2025.0,2053.0,2106.0,-32.0,1.0,
2016.0,2083.0,2055.0,1985.0,-32.0,1.0,
1991.0,2201.0,2047.0,2030.0,-32.0,1.0,
2064.0,2058.0,2056.0,2131.0,-32.0,1.0,
1984.0,2147.0,2044.0,1914.0,-32.0,1.0,
1958.0,1829.0,2047.0,2012.0,-32.0,1.0,
1995.0,2013.0,2052.0,1989.0,-32.0,1.0,
2111.0,2029.0,2052.0,1974.0,-32.0,1.0,
2066.0,2065.0,2051.0,2226.0,-32.0,1.0,
1989.0,2116.0,2048.0,2115.0,-32.0,1.0,
2058.0,2023.0,2057.0,2239.0,-32.0,1.0,
2056.0,1805.0,2054.0,1793.0,-32.0,1.0,
2057.0,2170.0,2059.0,1906.0,-32.0,1.0,
2004.0,2183.0,2049.0,1851.0,-32.0,1.0,
2094.0,1807.0,2057.0,2161.0,-32.0,1.0,
2014.0,1928.0,2049.0,2104.0,-32.0,1.0,
2008.0,1910.0,2048.0,2155.0,-32.0,1.0,
2073.0,1999.0,2059.0,1989.0,-32.0,1.0,
2101.0,2039.0,2059.0,2090.0,-32.0,1.0,
2058.0,2054.0,2060.0,2026.0,-32.0,1.0,
1988.0,2054.0,2046.0,1943.0,-33.0,1.0,
1984.0,1886.0,2042.0,1982.0,-33.0,1.0,
1993.0,2012.0,2044.0,2040.0,-33.0,1.0,
2049.0,2153.0,2050.0,2011.0,-33.0,1.0,
1998.0,2069.0,2047.0,2044.0,-33.0,1.0,
2076.0,2040.0,2063.0,2234.0,-33.0,0.0,
2032.0,1917.0,2054.0,2122.0,-33.0,0.0,
2065.0,2154.0,2059.0,1929.0,-33.0,0.0,
2043.0,2133.0,2053.0,2195.0,-33.0,0.0,
2036.0,1779.0,2049.0,2005.0,-33.0,0.0,
2011.0,1833.0,2049.0,2185.0,-33.0,0.0,
2017.0,1998.0,2049.0,1945.0,-33.0,0.0,
2016.0,2188.0,2046.0,1703.0,-33.0,0.0,
2035.0,2042.0,2049.0,1921.0,-33.0,0.0,
2042.0,2027.0,2060.0,2347.0,-33.0,0.0,
2042.0,2038.0,2052.0,1975.0,-33.0,0.0,
2006.0,1995.0,2044.0,1962.0,-33.0,0.0,
2094.0,1936.0,2059.0,2323.0,-33.0,0.0,
1972.0,2178.0,2047.0,2011.0,-33.0,0.0,
1988.0,1927.0,2045.0,1705.0,-33.0,0.0,
2043.0,1761.0,2053.0,2172.0,-33.0,0.0,
2112.0,1968.0,2059.0,2058.0,-33.0,0.0,
2114.0,1992.0,2060.0,2077.0,-33.0,0.0,
2116.0,1934.0,2061.0,2166.0,-33.0,0.0,
2039.0,2094.0,2050.0,1982.0,-33.0,0.0,
2039.0,1996.0,2051.0,1985.0,-33.0,0.0,
2062.0,1979.0,2053.0,2034.0,-33.0,0.0,
2029.0,2067.0,2057.0,1971.0,-33.0,0.0,
1964.0,1953.0,2046.0,2221.0,-33.0,0.0,
1991.0,1951.0,2050.0,2063.0,-33.0,0.0,
2019.0,1982.0,2049.0,2067.0,-33.0,0.0,
2038.0,2103.0,2059.0,2247.0,-33.0,0.0,
1998.0,2125.0,2047.0,1652.0,-33.0,1.0,
1985.0,2020.0,2045.0,1960.0,-33.0,1.0,
2065.0,1969.0,2057.0,2177.0,-33.0,1.0,
1945.0,1891.0,2042.0,2007.0,-33.0,1.0,
2117.0,1972.0,2062.0,2015.0,-33.0,1.0,
2124.0,2143.0,2066.0,2266.0,-33.0,1.0,
2041.0,2072.0,2056.0,2306.0,-33.0,1.0,
1996.0,1981.0,2042.0,2140.0,-33.0,1.0,
2016.0,1940.0,2048.0,1654.0,-33.0,1.0,
2006.0,1994.0,2048.0,2020.0,-33.0,1.0,
1973.0,2036.0,2044.0,2006.0,-33.0,1.0,
1990.0,2013.0,2048.0,2000.0,-33.0,1.0,
2102.0,2025.0,2056.0,1952.0,-33.0,1.0,
2099.0,2051.0,2060.0,2104.0,-33.0,1.0,
1992.0,2013.0,2048.0,2019.0,-33.0,1.0,
2027.0,2070.0,2051.0,1763.0,-33.0,1.0,
2033.0,1986.0,2049.0,1944.0,-33.0,1.0,
2066.0,1970.0,2052.0,2154.0,-33.0,1.0,
2027.0,2002.0,2052.0,2034.0,-33.0,1.0,
2040.0,2006.0,2058.0,2078.0,-33.0,1.0,
2031.0,2128.0,2055.0,2027.0,-33.0,1.0,
1966.0,2136.0,2045.0,2128.0,-33.0,1.0,
2002.0,1919.0,2049.0,2124.0,-33.0,1.0,
2063.0,1950.0,2050.0,1886.0,-33.0,0.0,
2048.0,1892.0,2051.0,1985.0,-33.0,0.0,
1994.0,1939.0,2041.0,2195.0,-34.0,0.0,
2018.0,1966.0,2051.0,2158.0,-34.0,0.0,
2058.0,2087.0,2055.0,2057.0,-34.0,0.0,
2078.0,2188.0,2060.0,2041.0,-34.0,0.0,
1991.0,2046.0,2049.0,1987.0,-34.0,0.0,
2018.0,1870.0,2051.0,1997.0,-34.0,0.0,
2026.0,2113.0,2051.0,2124.0,-34.0,0.0,
2027.0,2023.0,2047.0,2084.0,-34.0,0.0,
1977.0,1989.0,2047.0,2027.0,-34.0,0.0,
2064.0,2101.0,2060.0,2214.0,-34.0,0.0,
2031.0,1689.0,2049.0,2141.0,-34.0,0.0,
2215.0,2037.0,2070.0,1816.0,-34.0,0.0,
2062.0,1999.0,2053.0,2063.0,-34.0,0.0,
1986.0,2085.0,2040.0,2159.0,-34.0,0.0,
1951.0,2167.0,2041.0,1973.0,-34.0,0.0,
2049.0,2086.0,2056.0,1942.0,-34.0,0.0,
2024.0,2074.0,2050.0,2011.0,-34.0,0.0,
1978.0,1953.0,2048.0,1878.0,-34.0,1.0,
1975.0,1876.0,2048.0,2049.0,-34.0,1.0,
2050.0,1952.0,2057.0,2021.0,-34.0,1.0,
2150.0,1928.0,2065.0,2148.0,-34.0,1.0,
2086.0,1981.0,2058.0,2162.0,-34.0,1.0,
1978.0,1964.0,2042.0,2053.0,-34.0,1.0,
2105.0,1953.0,2061.0,1923.0,0,0,
1990.0,2106.0,2047.0,2093.0,-34.0,1.0,
2026.0,2013.0,2048.0,2044.0,-34.0,1.0,
1962.0,2049.0,2044.0,2076.0,-34.0,1.0,
1954.0,1979.0,2043.0,1973.0,-34.0,1.0,
2084.0,2013.0,2061.0,2063.0,-34.0,1.0,
2115.0,2153.0,2059.0,2046.0,-34.0,1.0,
2071.0,1974.0,2055.0,2125.0,-34.0,1.0,
2000.0,2034.0,2050.0,1998.0,-34.0,1.0,
1941.0,1892.0,2044.0,2012.0,-34.0,1.0,
2086.0,2014.0,2060.0,1998.0,-34.0,1.0,
1985.0,2020.0,2045.0,1984.0,-34.0,1.0,
2053.0,1995.0,2053.0,1967.0,-34.0,1.0,
2023.0,1966.0,2052.0,2027.0,-34.0,1.0,
2026.0,2019.0,2051.0,2136.0,-34.0,1.0,
2019.0,1963.0,2048.0,2180.0,-34.0,1.0,
2059.0,2041.0,2052.0,2198.0,-34.0,1.0,
2075.0,2058.0,2055.0,1705.0,-34.0,1.0,
2061.0,1982.0,2055.0,1916.0,-34.0,1.0,
2033.0,2019.0,2053.0,2136.0,0,0,
1992.0,1990.0,2046.0,1975.0,-34.0,1.0,
2037.0,2029.0,2056.0,2133.0,-34.0,1.0,
1940.0,2103.0,2044.0,2145.0,-34.0,1.0,
1980.0,2027.0,2046.0,1967.0,-34.0,0.0,
1997.0,1971.0,2046.0,2083.0,-34.0,0.0,
2089.0,2047.0,2063.0,2001.0,-34.0,0.0,
2054.0,2012.0,2051.0,2108.0,-34.0,0.0,
2037.0,2084.0,2046.0,2177.0,-34.0,0.0,
1981.0,1748.0,2046.0,1918.0,-34.0,1.0,
2192.0,1916.0,2067.0,2074.0,-34.0,0.0,
2128.0,1956.0,2066.0,1960.0,-34.0,0.0,
2041.0,2102.0,2054.0,1872.0,-34.0,1.0,
2065.0,2154.0,2060.0,2041.0,-34.0,1.0,
2008.0,1935.0,2051.0,2413.0,-34.0,1.0,
2012.0,2031.0,2051.0,1969.0,-34.0,1.0,
2065.0,1983.0,2060.0,2021.0,-34.0,1.0,
1992.0,1899.0,2046.0,2073.0,-34.0,1.0,
1957.0,2019.0,2041.0,1937.0,-34.0,1.0,
1945.0,2100.0,2042.0,1873.0,-34.0,1.0,
2067.0,2059.0,2046.0,1977.0,-34.0,1.0,
2039.0,2028.0,2050.0,2122.0,-34.0,1.0,
1970.0,2083.0,2043.0,1993.0,-34.0,1.0,
2095.0,2153.0,2061.0,2049.0,-34.0,1.0,
2062.0,2084.0,2055.0,2057.0,-34.0,1.0,
2083.0,1970.0,2057.0,2088.0,-34.0,1.0,
1978.0,1769.0,2041.0,2145.0,-34.0,1.0,
1930.0,2097.0,2035.0,2107.0,-34.0,1.0,
1981.0,1979.0,2041.0,2026.0,-34.0,1.0,
2120.0,1909.0,2060.0,2106.0,-34.0,1.0,
2130.0,2093.0,2067.0,1989.0,-34.0,1.0,
2032.0,2121.0,2058.0,1901.0,-34.0,1.0,
1945.0,1875.0,2043.0,1990.0,-34.0,1.0,
2139.0,1975.0,2060.0,2234.0,-34.0,1.0,
2058.0,2038.0,2051.0,2041.0,-34.0,1.0,
2015.0,2047.0,2056.0,1893.0,-34.0,1.0,
2059.0,1873.0,2055.0,2071.0,-34.0,1.0,
2006.0,1960.0,2050.0,2059.0,-34.0,1.0,
2035.0,2047.0,2051.0,2076.0,-34.0,1.0,
2044.0,2065.0,2049.0,1981.0,-34.0,1.0,
2065.0,2040.0,2056.0,2263.0,-34.0,0,
2032.0,1967.0,2052.0,2072.0,-34.0,1.0,
2007.0,2062.0,2051.0,1847.0,-34.0,1.0,
2012.0,2070.0,2047.0,1785.0,-34.0,1.0,
2011.0,2156.0,2051.0,1971.0,-34.0,1.0,
2037.0,2049.0,2052.0,2105.0,-34.0,1.0,
2070.0,1900.0,2056.0,2000.0,-34.0,1.0,
2004.0,2003.0,2047.0,1927.0,-34.0,1.0,
2024.0,2003.0,2044.0,2133.0,-34.0,1.0,
2088.0,2095.0,2057.0,2074.0,-34.0,0.0,
2014.0,2066.0,2052.0,2117.0,-34.0,0.0,
2000.0,2035.0,2048.0,2101.0,-34.0,0.0,
2028.0,1871.0,2054.0,2019.0,-34.0,0.0,
2027.0,1971.0,2050.0,2200.0,-34.0,0.0,
2048.0,2081.0,2051.0,2079.0,-34.0,0.0,
2013.0,2103.0,2053.0,1977.0,-34.0,0.0,
2036.0,1929.0,2051.0,2035.0,-34.0,0.0,
2002.0,1888.0,2053.0,1980.0,-34.0,0.0,
2059.0,2067.0,2046.0,1971.0,-34.0,0.0,
2074.0,2058.0,2053.0,2050.0,-34.0,0.0,
2086.0,2205.0,2056.0,2229.0,-34.0,0.0,
2113.0,2003.0,2061.0,2122.0,-34.0,0.0,
2050.0,1887.0,2056.0,1990.0,-34.0,0.0,
2104.0,1871.0,2064.0,2128.0,-34.0,0.0,
2027.0,2039.0,2050.0,1813.0,-34.0,0.0,
2011.0,1978.0,2052.0,2089.0,-34.0,0.0,
1970.0,2045.0,2043.0,1998.0,-34.0,0.0,
2076.0,2042.0,2066.0,2003.0,-34.0,0.0,
2037.0,2045.0,2052.0,1963.0,-34.0,0.0,
2038.0,2105.0,2056.0,1932.0,-34.0,0.0,
2025.0,2082.0,2055.0,1959.0,-34.0,0.0,
1970.0,1963.0,2042.0,1953.0,-34.0,0.0,
1974.0,1767.0,2047.0,2267.0,-34.0,0.0,
2014.0,1948.0,2048.0,2326.0,-34.0,0.0,
2028.0,1987.0,2046.0,2054.0,-34.0,0.0,
2028.0,2130.0,2056.0,1807.0,-34.0,0.0,
1989.0,2039.0,2046.0,2003.0,-34.0,0.0,
2002.0,1995.0,2053.0,2192.0,-34.0,0.0,
2009.0,2016.0,2049.0,2063.0,-34.0,0.0,
2119.0,2009.0,2058.0,2094.0,-34.0,0.0,
2109.0,1908.0,2060.0,2036.0,-34.0,0.0,
2025.0,2037.0,2048.0,1953.0,-34.0,0.0,
2118.0,2058.0,2059.0,1852.0,-34.0,0.0,
2054.0,2066.0,2053.0,2111.0,-34.0,0.0,
2091.0,2097.0,2063.0,2263.0,-34.0,0.0,
2046.0,1858.0,2053.0,2262.0,-34.0,0.0,
1959.0,2006.0,2042.0,1901.0,-34.0,0.0,
2024.0,2089.0,2056.0,1741.0,-34.0,0.0,
2002.0,2084.0,2047.0,1917.0,-34.0,0.0,
2035.0,1862.0,2050.0,2173.0,-34.0,0.0,
1991.0,1998.0,2048.0,2009.0,-34.0,0.0,
2000.0,2052.0,2052.0,1897.0,-34.0,0.0,
2007.0,1855.0,2048.0,2085.0,-34.0,0.0,
2104.0,2003.0,2062.0,2042.0,-34.0,0.0,
2016.0,2057.0,2050.0,2104.0,-34.0,0.0,
2031.0,2022.0,2051.0,2111.0,-34.0,0.0,
2010.0,2037.0,2052.0,1854.0,-34.0,0.0,
2030.0,1986.0,2050.0,1986.0,-34.0,0.0,
2061.0,1901.0,2051.0,2336.0,-34.0,0.0,
2079.0,2054.0,2066.0,2201.0,-34.0,0.0,
2020.0,1993.0,2051.0,1815.0,-34.0,0.0,
2008.0,1989.0,2049.0,2022.0,-34.0,0.0,
2027.0,2088.0,2050.0,2057.0,-34.0,0.0,
2016.0,2022.0,2046.0,2109.0,-34.0,0.0,
1988.0,2095.0,2040.0,2088.0,-34.0,0.0,
2012.0,1977.0,2042.0,1989.0,-34.0,0.0,
2034.0,1933.0,2050.0,2035.0,-34.0,0.0,
2030.0,2012.0,2053.0,2012.0,-34.0,0.0,
2038.0,2090.0,2061.0,2004.0,-34.0,0.0,
2008.0,2111.0,2047.0,1911.0,-34.0,0.0,
2004.0,1985.0,2042.0,1829.0,-34.0,0.0,
2160.0,2082.0,2060.0,2029.0,-34.0,0.0,
2036.0,1874.0,2048.0,2187.0,-34.0,0.0,
2025.0,2023.0,2047.0,2147.0,-34.0,0.0,
2083.0,2006.0,2054.0,1956.0,-34.0,0.0,
2038.0,1919.0,2050.0,2145.0,-34.0,0.0,
2111.0,2042.0,2059.0,2111.0,-34.0,0.0,
2038.0,1952.0,2054.0,2107.0,-34.0,0.0,
2007.0,1972.0,2044.0,1988.0,-34.0,0.0,
2054.0,2135.0,2055.0,1795.0,-34.0,0.0,
1962.0,1997.0,2047.0,2146.0,-34.0,0.0,
2080.0,1870.0,2055.0,2071.0,-34.0,0.0,
1908.0,2177.0,2032.0,1972.0,-34.0,0.0,
1975.0,2040.0,2045.0,2057.0,-34.0,0.0,
2192.0,1851.0,2065.0,2090.0,-34.0,0.0,
2173.0,1934.0,2067.0,2241.0,-34.0,0.0,
2079.0,1982.0,2050.0,2159.0,-34.0,0.0,
1988.0,1952.0,2042.0,2026.0,-34.0,0.0,
2023.0,2069.0,2051.0,1979.0,-34.0,0.0,
1987.0,2101.0,2045.0,1965.0,-34.0,0.0,
1992.0,2018.0,2045.0,1962.0,-34.0,0.0,
2036.0,1981.0,2056.0,2011.0,-34.0,0.0,
2039.0,2021.0,2055.0,2044.0,-34.0,0.0,
2011.0,2061.0,2049.0,2080.0,-34.0,0.0,
2011.0,1983.0,2044.0,2051.0,0,0,
2039.0,2068.0,2051.0,1974.0,-34.0,0.0,
1997.0,1949.0,2052.0,2150.0,-34.0,0.0,
1987.0,2050.0,2053.0,1864.0,-34.0,0.0,
2044.0,2050.0,2055.0,2019.0,-34.0,0.0,
2052.0,2041.0,2052.0,2125.0,-34.0,0.0,
2038.0,1969.0,2050.0,1974.0,-34.0,0.0,
2052.0,1979.0,2051.0,2158.0,-34.0,0.0,
2043.0,2068.0,2057.0,1928.0,-34.0,0.0,
1991.0,1944.0,2047.0,1971.0,-34.0,0.0,
2040.0,1999.0,2052.0,2111.0,-34.0,0.0,
2050.0,1961.0,2056.0,1963.0,-34.0,0.0,
2015.0,2102.0,2049.0,2088.0,-34.0,0.0,
2001.0,2085.0,2048.0,1917.0,-34.0,0.0,
2004.0,2101.0,2050.0,1986.0,-34.0,0.0,
1986.0,2072.0,2048.0,2127.0,-34.0,0.0,
2074.0,1968.0,2060.0,2161.0,-34.0,0.0,
2064.0,1970.0,2052.0,1977.0,-34.0,0.0,
2052.0,2090.0,2050.0,2009.0,-34.0,0.0,
2082.0,1977.0,2059.0,1960.0,-34.0,0.0,
1992.0,1879.0,2045.0,2103.0,-34.0,0.0,
2023.0,1979.0,2050.0,1964.0,-34.0,0.0,
2136.0,1901.0,2062.0,2126.0,-34.0,0.0,
2000.0,1862.0,2051.0,2364.0,-34.0,0.0,
2137.0,1916.0,2067.0,2002.0,-34.0,0.0,
2059.0,1921.0,2053.0,1814.0,-34.0,0.0,
2055.0,2028.0,2058.0,2104.0,-34.0,0.0,
2001.0,2190.0,2047.0,2054.0,-34.0,0.0,
2045.0,2254.0,2050.0,1902.0,-34.0,0.0,
1985.0,2005.0,2042.0,1950.0,-34.0,0.0,
2021.0,1963.0,2048.0,2245.0,-34.0,0.0,
1980.0,2088.0,2042.0,1939.0,-35.0,0.0,
2069.0,1888.0,2052.0,2021.0,-35.0,0.0,
2062.0,1950.0,2050.0,2080.0,-35.0,0.0,
2019.0,2124.0,2058.0,2021.0,-35.0,0.0,
1938.0,2128.0,2043.0,2166.0,0,0,
2097.0,2057.0,2054.0,2188.0,-34.0,0.0,
2094.0,2005.0,2059.0,1967.0,-34.0,0.0,
2009.0,2215.0,2050.0,1766.0,-34.0,0.0,
2033.0,1869.0,2048.0,2021.0,-34.0,0.0,
1979.0,1852.0,2044.0,2120.0,-34.0,0.0,
2003.0,1937.0,2041.0,2032.0,-34.0,0.0,
2125.0,1941.0,2063.0,2019.0,-34.0,0.0,
2094.0,1974.0,2059.0,2264.0,-34.0,0.0,
2077.0,1939.0,2056.0,2013.0,-34.0,0.0,
2051.0,1993.0,2055.0,2043.0,-34.0,0.0,
2069.0,2090.0,2055.0,2039.0,-34.0,0.0,
2029.0,2008.0,2046.0,1913.0,-34.0,0.0,
2033.0,1995.0,2050.0,2079.0,-34.0,0.0,
2012.0,2036.0,2054.0,2078.0,-34.0,0.0,
2052.0,2046.0,2057.0,2105.0,-34.0,0.0,
2042.0,2037.0,2053.0,2099.0,-34.0,0.0,
2022.0,2095.0,2057.0,1811.0,-34.0,0.0,
1991.0,2164.0,2045.0,2090.0,-34.0,0.0,
1947.0,1930.0,2039.0,2161.0,-34.0,0.0,
2004.0,1925.0,2038.0,1855.0,-35.0,0.0,
2059.0,1996.0,2053.0,2041.0,0,0,
2062.0,1989.0,2064.0,2170.0,-34.0,0.0,
2022.0,2028.0,2052.0,2008.0,-34.0,0.0,
2010.0,1972.0,2049.0,1974.0,-34.0,0.0,
2005.0,2013.0,2044.0,1924.0,-35.0,0,
2015.0,2151.0,2049.0,1995.0,-35.0,0.0,
2015.0,2115.0,2051.0,2155.0,-35.0,0.0,
2054.0,2014.0,2053.0,2059.0,-35.0,0.0,
2059.0,1852.0,2048.0,2125.0,-35.0,0.0,
2079.0,2007.0,2055.0,2089.0,-35.0,0.0,
2073.0,1984.0,2058.0,2054.0,-35.0,0.0,
2057.0,1896.0,2062.0,1848.0,-35.0,0.0,
2076.0,2013.0,2058.0,2166.0,-35.0,0.0,
1994.0,1994.0,2046.0,2083.0,-35.0,0.0,
1906.0,2084.0,2036.0,2008.0,-35.0,0.0,
2024.0,2099.0,2049.0,1978.0,-34.0,0.0,
2089.0,1782.0,2059.0,2201.0,-34.0,0.0,
2106.0,1973.0,2065.0,2030.0,-35.0,0.0,
2146.0,2049.0,2066.0,2035.0,-35.0,0.0,
2119.0,1913.0,2064.0,2091.0,-35.0,0.0,
2056.0,1945.0,2047.0,1957.0,-35.0,0.0,
2005.0,2077.0,2044.0,1854.0,-35.0,0.0,
1978.0,1998.0,2046.0,2085.0,-34.0,0.0,
1994.0,2088.0,2044.0,2155.0,-34.0,0.0,
1995.0,2032.0,2051.0,2049.0,-34.0,0.0,
2002.0,2032.0,2045.0,2065.0,-34.0,0.0,
2070.0,2094.0,2058.0,2072.0,-34.0,0.0,
2044.0,2050.0,2052.0,2056.0,-34.0,0.0,
2055.0,1858.0,2056.0,2084.0,-34.0,0.0,
2028.0,1980.0,2044.0,2199.0,-34.0,0.0,
2017.0,2046.0,2049.0,1852.0,-34.0,0.0,
2062.0,2090.0,2052.0,1964.0,-34.0,0.0,
2053.0,1889.0,2054.0,2162.0,-34.0,0.0,
2045.0,1983.0,2049.0,1973.0,-34.0,0.0,
2022.0,2120.0,2046.0,1947.0,-34.0,0.0,
2046.0,2025.0,2051.0,2033.0,-34.0,0.0,
1948.0,1990.0,2038.0,1996.0,-34.0,0.0,
1946.0,1988.0,2040.0,2066.0,-34.0,0.0,
2084.0,1969.0,2053.0,2057.0,-34.0,0.0,
2086.0,2086.0,2055.0,1986.0,-34.0,0.0,
2072.0,1916.0,2057.0,2063.0,-34.0,0.0,
2026.0,1954.0,2063.0,2115.0,-34.0,0.0,
2087.0,2205.0,2064.0,2023.0,-34.0,0.0,
2005.0,1902.0,2052.0,1997.0,-35.0,0.0,
2066.0,1853.0,2057.0,2273.0,-35.0,0.0,
1990.0,2016.0,2044.0,1850.0,-35.0,0.0,
1997.0,2095.0,2050.0,2012.0,-35.0,0.0,
1997.0,2020.0,2046.0,2004.0,-35.0,0.0,
2091.0,2055.0,2055.0,2037.0,-35.0,0.0,
1986.0,2036.0,2044.0,2095.0,-35.0,0.0,
2052.0,1896.0,2049.0,2011.0,-35.0,0.0,
2110.0,1974.0,2058.0,2124.0,-35.0,0.0,
2040.0,2042.0,2049.0,2078.0,-35.0,0.0,
2049.0,1900.0,2069.0,2027.0,-35.0,0.0,
2019.0,2013.0,2051.0,2021.0,-35.0,0.0,
2019.0,2075.0,2052.0,1912.0,-35.0,0.0,
1992.0,2043.0,2049.0,1891.0,-35.0,0.0,
1990.0,2018.0,2051.0,2118.0,-35.0,0.0,
2056.0,1990.0,2059.0,2137.0,-35.0,0.0,
2072.0,1795.0,2057.0,2110.0,-35.0,0.0,
2052.0,2069.0,2052.0,2057.0,-35.0,0.0,
2053.0,2033.0,2052.0,1951.0,-35.0,0.0,
2022.0,2082.0,2051.0,2077.0,-35.0,0.0,
2047.0,2068.0,2057.0,2108.0,-35.0,0.0,
2119.0,1999.0,2058.0,2012.0,-35.0,0.0,
1990.0,1948.0,2046.0,1980.0,-35.0,0.0,
1994.0,1943.0,2050.0,2058.0,-35.0,0.0,
2048.0,2010.0,2047.0,2154.0,-35.0,0.0,
1992.0,2047.0,2048.0,2108.0,0,0,
2025.0,2039.0,2055.0,2009.0,-35.0,0.0,
2038.0,2115.0,2053.0,2034.0,-35.0,0.0,
2012.0,2038.0,2049.0,1896.0,-35.0,0.0,
2004.0,1864.0,2047.0,1858.0,-35.0,0.0,
2017.0,1943.0,2048.0,2401.0,-35.0,0.0,
2154.0,2019.0,2064.0,2209.0,-35.0,0.0,
2065.0,2044.0,2052.0,1771.0,-35.0,0.0,
2041.0,2075.0,2053.0,1901.0,-35.0,0.0,
2032.0,1919.0,2049.0,2084.0,0,0,
2013.0,1945.0,2050.0,2209.0,-35.0,0.0,
2072.0,1990.0,2053.0,2043.0,-35.0,0.0,
2053.0,2033.0,2052.0,1940.0,-35.0,0.0,
2009.0,2080.0,2048.0,1989.0,-34.0,0.0,
2025.0,1934.0,2050.0,2102.0,-34.0,0.0,
2066.0,2019.0,2052.0,2047.0,-34.0,0.0,
2072.0,2043.0,2052.0,2164.0,-34.0,0.0,
2030.0,2041.0,2051.0,2056.0,-34.0,0.0,
2026.0,2034.0,2054.0,1800.0,-34.0,0.0,
2022.0,2034.0,2052.0,2080.0,-34.0,0.0,
2012.0,1997.0,2049.0,1968.0,-34.0,0.0,
2018.0,2168.0,2057.0,1838.0,-34.0,0.0,
1979.0,2156.0,2049.0,1882.0,-34.0,0.0,
2033.0,1761.0,2049.0,2267.0,-34.0,0.0,
2081.0,1968.0,2058.0,2319.0,-35.0,0.0,
2014.0,1963.0,2048.0,2052.0,-35.0,0.0,
2058.0,1956.0,2062.0,2027.0,0,0,
2093.0,2094.0,2064.0,2161.0,-35.0,0.0,
2019.0,1977.0,2048.0,2046.0,-35.0,0.0,
2039.0,2021.0,2055.0,2081.0,-35.0,0.0,
2031.0,2017.0,2047.0,2012.0,-35.0,0.0,
1973.0,2019.0,2037.0,1917.0,-35.0,0.0,
2059.0,2009.0,2055.0,2078.0,-35.0,0.0,
1993.0,1984.0,2046.0,1970.0,-35.0,0.0,
2096.0,2025.0,2062.0,2048.0,-35.0,0.0,
2018.0,2127.0,2050.0,1995.0,-35.0,0.0,
2027.0,2101.0,2053.0,2007.0,-35.0,0.0,
2040.0,1841.0,2046.0,2050.0,-35.0,0.0,
2041.0,2017.0,2054.0,2049.0,-35.0,0.0,
2011.0,1969.0,2046.0,2148.0,-35.0,0.0,
1995.0,2020.0,2046.0,1948.0,-35.0,0.0,
2020.0,2024.0,2050.0,2014.0,0,0,
2079.0,1978.0,2060.0,2091.0,-35.0,0.0,
2065.0,2015.0,2056.0,2024.0,-35.0,0.0,
2009.0,2063.0,2048.0,2092.0,-35.0,0.0,
2038.0,2022.0,2054.0,2101.0,-35.0,0.0,
2057.0,1975.0,2054.0,1947.0,-34.0,0.0,
2061.0,2032.0,2051.0,1993.0,-34.0,0.0,
2042.0,2042.0,2049.0,2022.0,-34.0,0.0,
2042.0,2070.0,2052.0,2081.0,-34.0,0.0,
2049.0,2023.0,2052.0,1915.0,-34.0,0.0,
2008.0,1934.0,2050.0,2031.0,-34.0,0.0,
2075.0,2001.0,2060.0,2167.0,-34.0,0.0,
2012.0,2000.0,2049.0,2085.0,-34.0,0.0,
2006.0,1968.0,2053.0,1943.0,0,0,
2028.0,1992.0,2053.0,2049.0,-34.0,0.0,
2014.0,2012.0,2042.0,2013.0,-34.0,0.0,
2028.0,2009.0,2051.0,2043.0,-34.0,0.0,
2037.0,1995.0,2054.0,2132.0,-34.0,0.0,
2045.0,2040.0,2051.0,2081.0,-34.0,0.0,
2045.0,2016.0,2050.0,1940.0,-35.0,0.0,
2089.0,2038.0,2057.0,2086.0,-35.0,0,
1987.0,1927.0,2048.0,2055.0,-34.0,0.0,
2019.0,1916.0,2047.0,2057.0,-34.0,0.0,
2000.0,2013.0,2055.0,2100.0,-34.0,0.0,
2068.0,2033.0,2057.0,2106.0,-34.0,0.0,
2054.0,2013.0,2055.0,1990.0,-35.0,0.0,
2049.0,2027.0,2058.0,1880.0,-35.0,0.0,
2004.0,2009.0,2048.0,2069.0,-35.0,0.0,
2007.0,1954.0,2044.0,2152.0,-35.0,0.0,
2021.0,2066.0,2052.0,2064.0,-35.0,0.0,
2002.0,2079.0,2046.0,2014.0,-35.0,0.0,
2068.0,2013.0,2054.0,2070.0,-35.0,0.0,
2065.0,2022.0,2056.0,2052.0,-35.0,0.0,
1987.0,1999.0,2045.0,2043.0,-35.0,0.0,
2047.0,1953.0,2052.0,1997.0,-35.0,0.0,
2043.0,2031.0,2055.0,2009.0,-34.0,0.0,
2021.0,2001.0,2050.0,2056.0,-34.0,0.0,
2041.0,1995.0,2048.0,2074.0,-34.0,0.0,
2069.0,2040.0,2053.0,1954.0,0,0,
2016.0,1965.0,2046.0,1927.0,-34.0,0.0,
2069.0,1963.0,2059.0,2143.0,-34.0,0.0,
2038.0,1977.0,2051.0,2093.0,-34.0,0.0,
2059.0,2050.0,2054.0,2025.0,-34.0,0.0,
2024.0,2015.0,2048.0,2080.0,-34.0,0.0,
2009.0,1977.0,2052.0,2064.0,0,0,
2016.0,2038.0,2050.0,2036.0,-34.0,0.0,
2039.0,2056.0,2053.0,2051.0,-34.0,0.0,
2037.0,2025.0,2051.0,2024.0,-34.0,0.0,
2049.0,1969.0,2055.0,2015.0,-34.0,0.0,
2050.0,1966.0,2055.0,2094.0,-34.0,0.0,
2053.0,1990.0,2058.0,2046.0,-34.0,0.0,
2023.0,2025.0,2053.0,2032.0,-34.0,0.0,
2022.0,2039.0,2050.0,2038.0,0,0,
2003.0,2024.0,2051.0,1996.0,-34.0,0.0,
2030.0,2009.0,2038.0,2021.0,-34.0,0.0,
2058.0,2004.0,2056.0,2028.0,-34.0,0.0,
2043.0,2020.0,2055.0,2017.0,-34.0,0.0,
2055.0,1977.0,2053.0,2027.0,-34.0,0.0,
2029.0,1987.0,2049.0,2035.0,-34.0,0.0,
2036.0,2013.0,2051.0,2018.0,-34.0,0.0,
2034.0,2034.0,2054.0,2044.0,-34.0,0.0,
2022.0,1982.0,2052.0,2039.0,-34.0,0.0,
2041.0,2021.0,2053.0,2107.0,-34.0,0.0,
2061.0,1998.0,2055.0,2043.0,-34.0,0.0,
2053.0,2033.0,2057.0,2033.0,-35.0,0.0,
2046.0,2033.0,2053.0,2026.0,-35.0,0.0,
2036.0,2005.0,2053.0,2066.0,-34.0,0.0,
2068.0,2007.0,2057.0,2072.0,-34.0,0.0,
2014.0,2035.0,2048.0,1999.0,-34.0,0.0,
1996.0,2029.0,2044.0,2043.0,-34.0,0.0,
2044.0,1977.0,2052.0,2036.0,-34.0,-1.0,
2039.0,2076.0,2057.0,2002.0,-34.0,-1.0,
2054.0,2056.0,2054.0,2078.0,-34.0,-1.0,
2056.0,1886.0,2064.0,2132.0,-34.0,-1.0,
2040.0,1924.0,2052.0,2016.0,-34.0,-1.0,
2014.0,1944.0,2053.0,1921.0,-34.0,-1.0,
2044.0,2060.0,2053.0,1974.0,-34.0,-2.0,
2017.0,2230.0,2047.0,2018.0,-34.0,-2.0,
2073.0,2102.0,2061.0,2146.0,-34.0,-2.0,
1995.0,2015.0,2043.0,2144.0,-34.0,-2.0,
2021.0,1809.0,2052.0,2156.0,-34.0,-2.0,
2043.0,1890.0,2053.0,1976.0,-34.0,-2.0,
1997.0,1924.0,2046.0,2074.0,-34.0,-2.0,
1997.0,2025.0,2049.0,2073.0,-34.0,-3.0,
2019.0,2042.0,2047.0,2074.0,-34.0,-3.0,
2026.0,2038.0,2050.0,1983.0,-34.0,-3.0,
2067.0,2049.0,2056.0,2085.0,-34.0,-3.0,
2053.0,2052.0,2052.0,1993.0,-34.0,-3.0,
2041.0,2030.0,2050.0,1930.0,-33.0,-3.0,
2035.0,2034.0,2050.0,1953.0,-33.0,-3.0,
2029.0,1993.0,2052.0,2062.0,-33.0,-3.0,
2024.0,2003.0,2044.0,2049.0,-33.0,-3.0,
2047.0,2016.0,2053.0,2030.0,-33.0,-3.0,
2056.0,2014.0,2053.0,2016.0,-33.0,-3.0,
2052.0,2021.0,2053.0,2024.0,-33.0,-2.0,
2043.0,2038.0,2052.0,2037.0,-33.0,-2.0,
2019.0,1998.0,2052.0,2065.0,-33.0,-2.0,
2016.0,1976.0,2046.0,2047.0,-32.0,-2.0,
2063.0,1988.0,2054.0,2038.0,-32.0,-1.0,
2037.0,2002.0,2053.0,2040.0,-32.0,-1.0,
2027.0,2045.0,2056.0,2017.0,-32.0,-1.0,
2063.0,2017.0,2056.0,1990.0,-32.0,0.0,
2043.0,1922.0,2041.0,2135.0,-32.0,0.0,
2060.0,1981.0,2042.0,2089.0,-32.0,0.0,
2065.0,2008.0,2048.0,2056.0,-32.0,1.0,
2050.0,1999.0,2062.0,2013.0,0,0,
2076.0,2015.0,2062.0,2033.0,-32.0,1.0,
2050.0,2003.0,2069.0,2035.0,-31.0,1.0,
2013.0,2017.0,2047.0,2039.0,-31.0,1.0,
2014.0,2013.0,2053.0,2034.0,-31.0,1.0,
2029.0,2025.0,2062.0,2041.0,-31.0,2.0,
2025.0,2032.0,2054.0,2065.0,-31.0,2.0,
2016.0,2000.0,2049.0,1998.0,-31.0,2.0,
2029.0,2022.0,2051.0,2041.0,0,0,
2007.0,2023.0,2042.0,1998.0,-31.0,2.0,
1984.0,1989.0,2048.0,2029.0,-31.0,2.0,
2025.0,2058.0,2055.0,2098.0,-31.0,2.0,
2052.0,2027.0,2062.0,1971.0,-30.0,2.0,
2021.0,1998.0,2052.0,2047.0,-30.0,2.0,
2017.0,2010.0,2053.0,2099.0,-30.0,2.0,
2016.0,2000.0,2052.0,2033.0,0,0,
1994.0,2028.0,2042.0,1986.0,-30.0,2.0,
2007.0,2066.0,2036.0,2029.0,-30.0,2.0,
2047.0,2055.0,2052.0,1985.0,-30.0,1.0,
2046.0,1857.0,2063.0,2058.0,-30.0,1.0,
2066.0,1903.0,2062.0,2079.0,-30.0,0.0,
2020.0,1932.0,2056.0,2205.0,-29.0,0.0,
2014.0,2005.0,2049.0,2039.0,-29.0,-1.0,
2036.0,2044.0,2053.0,2051.0,-29.0,-1.0,
2033.0,2003.0,2051.0,2065.0,-29.0,-2.0,
2042.0,2008.0,2052.0,2038.0,-29.0,-2.0,
2051.0,2036.0,2053.0,2008.0,-29.0,-3.0,
2058.0,2048.0,2054.0,2048.0,-29.0,-3.0,
2059.0,2044.0,2052.0,2047.0,-28.0,-3.0,
2057.0,2046.0,2054.0,2020.0,-28.0,-4.0,
2020.0,2038.0,2045.0,1956.0,-28.0,-4.0,
2029.0,2045.0,2046.0,2003.0,-28.0,-4.0,
2027.0,2077.0,2045.0,2003.0,-28.0,-5.0,
2032.0,2007.0,2050.0,1996.0,-27.0,-5.0,
2044.0,1894.0,2050.0,2100.0,-27.0,-5.0,
2062.0,1995.0,2054.0,2019.0,-27.0,-5.0,
2028.0,1982.0,2046.0,2049.0,-27.0,-5.0,
2039.0,2007.0,2050.0,2079.0,-27.0,-4.0,
2043.0,2013.0,2056.0,2043.0,-27.0,-4.0,
2040.0,2010.0,2050.0,2037.0,-26.0,-4.0,
2019.0,2003.0,2048.0,2032.0,-26.0,-3.0,
2049.0,2020.0,2054.0,2014.0,-26.0,-3.0,
2003.0,2057.0,2045.0,2018.0,-26.0,-2.0,
2043.0,2006.0,2055.0,2054.0,-26.0,-2.0,
2014.0,1932.0,2049.0,2077.0,-26.0,-1.0,
2046.0,1989.0,2054.0,2088.0,-26.0,0.0,
2039.0,1996.0,2052.0,2044.0,-26.0,0.0,
2026.0,2004.0,2054.0,2023.0,-25.0,1.0,
2044.0,1996.0,2055.0,2020.0,-25.0,1.0,
2048.0,2017.0,2055.0,2035.0,-25.0,2.0,
2058.0,2005.0,2053.0,2018.0,-25.0,2.0,
2086.0,2032.0,2062.0,2026.0,-25.0,3.0,
2083.0,2022.0,2055.0,2017.0,-25.0,3.0,
2060.0,2028.0,2054.0,2036.0,-25.0,4.0,
2039.0,2008.0,2053.0,2026.0,-24.0,4.0,
2026.0,1998.0,2040.0,2031.0,-24.0,4.0,
2014.0,2017.0,2043.0,2051.0,-24.0,5.0,
2032.0,2002.0,2050.0,2035.0,-24.0,5.0,
2035.0,2003.0,2055.0,2049.0,-24.0,5.0,
2049.0,2030.0,2066.0,2030.0,-24.0,5.0,
2025.0,1940.0,2058.0,2143.0,-23.0,5.0,
2051.0,2027.0,2067.0,2002.0,-23.0,5.0,
2028.0,2068.0,2055.0,2060.0,-23.0,4.0,
1976.0,2050.0,2030.0,2052.0,-23.0,4.0,
1989.0,1922.0,2039.0,2124.0,0,0,
2028.0,1957.0,2047.0,2031.0,-23.0,4.0,
2060.0,2027.0,2052.0,1988.0,-23.0,3.0,
2056.0,2030.0,2049.0,1987.0,-22.0,3.0,
2023.0,1960.0,2053.0,2047.0,-22.0,2.0,
2018.0,1958.0,2050.0,2098.0,-22.0,2.0,
1995.0,2015.0,2041.0,2074.0,-22.0,1.0,
2014.0,2016.0,2040.0,1979.0,-22.0,1.0,
2039.0,2053.0,2054.0,2012.0,-22.0,0.0,
2072.0,2040.0,2095.0,2072.0,-21.0,-1.0,
2059.0,2018.0,2080.0,2073.0,-21.0,-1.0,
2026.0,1998.0,2055.0,2050.0,-21.0,-2.0,
2028.0,2021.0,2048.0,2028.0,-21.0,-2.0,
2041.0,1991.0,2055.0,2031.0,-21.0,-3.0,
2023.0,1991.0,2041.0,2072.0,-20.0,-3.0,
2028.0,2010.0,2048.0,2018.0,-20.0,-3.0,
2028.0,1995.0,2051.0,1986.0,-20.0,-4.0,
2040.0,2019.0,2049.0,2026.0,-20.0,-4.0,
2026.0,2022.0,2044.0,2020.0,-20.0,-4.0,
2049.0,2026.0,2049.0,2056.0,-20.0,-4.0,
2047.0,1993.0,2048.0,2065.0,-20.0,-4.0,
2026.0,2007.0,2048.0,2015.0,-19.0,-4.0,
2026.0,2027.0,2046.0,2004.0,-19.0,-4.0,
2041.0,2046.0,2050.0,2017.0,-19.0,-3.0,
2050.0,2061.0,2050.0,2038.0,-19.0,-3.0,
2064.0,2005.0,2056.0,2081.0,-19.0,-3.0,
2049.0,1986.0,2053.0,2032.0,-19.0,-2.0,
2028.0,1959.0,2049.0,2049.0,-19.0,-2.0,
2019.0,1971.0,2046.0,1993.0,-19.0,-2.0,
2026.0,1993.0,2050.0,2076.0,-18.0,-1.0,
2017.0,2016.0,2053.0,1986.0,-18.0,-1.0,
2036.0,1997.0,2049.0,2049.0,-18.0,0.0,
2050.0,2000.0,2057.0,2092.0,-18.0,0.0,
2044.0,2036.0,2053.0,2062.0,-18.0,0.0,
2056.0,2067.0,2056.0,2020.0,-18.0,1.0,
2053.0,2075.0,2054.0,2043.0,-18.0,1.0,
2024.0,1907.0,2048.0,2082.0,-17.0,1.0,
2035.0,1984.0,2052.0,2043.0,-17.0,1.0,
2026.0,2027.0,2046.0,2010.0,-17.0,1.0,
2019.0,2012.0,2049.0,2037.0,-17.0,2.0,
2041.0,1942.0,2056.0,2059.0,-17.0,2.0,
2016.0,2018.0,2053.0,2123.0,-17.0,2.0,
2033.0,2045.0,2048.0,1931.0,-16.0,2.0,
2033.0,1892.0,2052.0,2109.0,-16.0,2.0,
2025.0,2045.0,2050.0,2011.0,-16.0,2.0,
2003.0,1978.0,2047.0,2123.0,-16.0,2.0,
2028.0,2030.0,2053.0,2086.0,-16.0,2.0,
2021.0,2017.0,2051.0,2012.0,-16.0,1.0,
2043.0,2014.0,2055.0,2034.0,-15.0,1.0,
2045.0,2028.0,2053.0,2043.0,-15.0,1.0,
2041.0,2039.0,2054.0,2030.0,-15.0,0.0,
2043.0,2045.0,2056.0,2034.0,-15.0,0.0,
2040.0,2011.0,2058.0,2022.0,-15.0,-1.0,
2028.0,2005.0,2062.0,2015.0,-15.0,-1.0,
2030.0,2033.0,2055.0,2022.0,-14.0,-1.0,
2025.0,1995.0,2040.0,2008.0,-14.0,-2.0,
2042.0,2004.0,2048.0,2034.0,-14.0,-2.0,
2023.0,1975.0,2041.0,2106.0,-14.0,-2.0,
2033.0,1971.0,2047.0,2094.0,-14.0,-3.0,
2029.0,1987.0,2048.0,1940.0,-14.0,-3.0,
2009.0,2010.0,2051.0,2022.0,-14.0,-3.0,
2021.0,2017.0,2053.0,2019.0,-13.0,-3.0,
2033.0,2012.0,2050.0,1994.0,-13.0,-3.0,
2041.0,2024.0,2054.0,2001.0,-13.0,-3.0,
2063.0,2041.0,2056.0,2042.0,0,0,
2045.0,2008.0,2057.0,2075.0,-13.0,-3.0,
2019.0,2010.0,2050.0,2085.0,-13.0,-3.0,
2032.0,2005.0,2052.0,2040.0,-13.0,-3.0,
2049.0,2011.0,2052.0,2056.0,-12.0,-2.0,
2048.0,2014.0,2052.0,2033.0,-12.0,-2.0,
2059.0,1988.0,2050.0,1995.0,-12.0,-1.0,
2067.0,2012.0,2053.0,2105.0,0,0,
2057.0,2013.0,2058.0,2120.0,-12.0,-1.0,
2037.0,2013.0,2050.0,2023.0,-12.0,0.0,
1999.0,1857.0,2046.0,1977.0,-12.0,0.0,
2024.0,1945.0,2050.0,2090.0,-12.0,0.0,
2019.0,2020.0,2050.0,2021.0,-12.0,1.0,
2012.0,2033.0,2050.0,2018.0,-11.0,1.0,
2042.0,1995.0,2051.0,2069.0,-11.0,1.0,
2039.0,2038.0,2052.0,2004.0,-11.0,2.0,
2062.0,2032.0,2052.0,2015.0,-11.0,2.0,
2101.0,1955.0,2056.0,2066.0,-11.0,2.0,
2048.0,2003.0,2051.0,2069.0,-11.0,2.0,
2008.0,2034.0,2047.0,2118.0,-11.0,3.0,
2007.0,2036.0,2046.0,2081.0,-11.0,3.0,
2026.0,2032.0,2053.0,2041.0,-11.0,3.0,
2036.0,2040.0,2056.0,2064.0,-10.0,3.0,
2045.0,2038.0,2053.0,2050.0,-10.0,3.0,
2037.0,2034.0,2052.0,2001.0,-10.0,3.0,
2022.0,1948.0,2048.0,1950.0,-10.0,3.0,
2015.0,1998.0,2050.0,2043.0,-10.0,3.0,
2021.0,2021.0,2050.0,2038.0,-10.0,3.0,
2020.0,2024.0,2049.0,1969.0,-10.0,3.0,
2036.0,2031.0,2050.0,1960.0,-10.0,3.0,
2033.0,2004.0,2046.0,2093.0,-10.0,3.0,
2052.0,1991.0,2050.0,2122.0,-10.0,2.0,
2050.0,2003.0,2051.0,2013.0,-10.0,2.0,
2033.0,2004.0,2053.0,2041.0,-9.0,2.0,
2029.0,2022.0,2050.0,2050.0,-9.0,1.0,
2030.0,2015.0,2051.0,2035.0,-9.0,1.0,
2046.0,2012.0,2047.0,2033.0,-9.0,1.0,
2051.0,2017.0,2048.0,2022.0,-9.0,0.0,
2063.0,1985.0,2054.0,2056.0,-9.0,0.0,
2014.0,2002.0,2048.0,2051.0,-9.0,-1.0,
2028.0,2008.0,2049.0,2049.0,-9.0,-1.0,
2033.0,2002.0,2045.0,2026.0,-9.0,-1.0,
2018.0,2002.0,2051.0,2036.0,-9.0,-1.0,
2023.0,2037.0,2052.0,2030.0,-8.0,-2.0,
2016.0,1995.0,2052.0,2027.0,-8.0,-2.0,
2038.0,1990.0,2056.0,2034.0,-8.0,-2.0,
2047.0,1995.0,2054.0,2091.0,-8.0,-2.0,
2043.0,2000.0,2052.0,2077.0,-8.0,-2.0,
2034.0,2004.0,2046.0,2007.0,-8.0,-2.0,
2027.0,1992.0,2047.0,2036.0,-8.0,-2.0,
2034.0,2022.0,2048.0,2054.0,-8.0,-2.0,
2019.0,2024.0,2049.0,2052.0,0,0,
2035.0,2023.0,2056.0,2038.0,-8.0,-2.0,
2043.0,1997.0,2053.0,2012.0,-8.0,-1.0,
2047.0,2007.0,2055.0,2036.0,-8.0,-1.0,
2037.0,2006.0,2051.0,2037.0,-8.0,-1.0,
2045.0,2003.0,2051.0,2032.0,-8.0,-1.0,
2037.0,2015.0,2048.0,2015.0,-8.0,-1.0,
2032.0,2009.0,2055.0,2042.0,-8.0,0.0,
2030.0,2033.0,2053.0,2059.0,-8.0,0.0,
2037.0,2041.0,2052.0,2031.0,-7.0,0.0,
2051.0,2009.0,2053.0,2036.0,-7.0,0.0,
2053.0,2023.0,2051.0,2046.0,-7.0,0.0,
2044.0,1983.0,2049.0,2093.0,-7.0,0.0,
2035.0,2038.0,2050.0,1974.0,-7.0,0.0,
2025.0,2009.0,2049.0,1950.0,0,0,
2029.0,2003.0,2048.0,2084.0,-7.0,1.0,
1999.0,1910.0,2042.0,2130.0,-7.0,1.0,
2035.0,1890.0,2049.0,2217.0,-7.0,1.0,
2057.0,1947.0,2054.0,2101.0,-7.0,1.0,
2045.0,1992.0,2050.0,2032.0,-7.0,1.0,
2015.0,2019.0,2053.0,1996.0,-7.0,1.0,
2038.0,2046.0,2053.0,1979.0,-6.0,1.0,
2044.0,2046.0,2052.0,2078.0,-6.0,1.0,
2020.0,2021.0,2052.0,2042.0,-6.0,1.0,
2023.0,2029.0,2053.0,2024.0,-6.0,1.0,
2052.0,2012.0,2058.0,2014.0,-6.0,1.0,
2040.0,2031.0,2053.0,2013.0,-6.0,0.0,
2049.0,2049.0,2055.0,1984.0,-6.0,0.0,
2033.0,2025.0,2052.0,2007.0,-6.0,0.0,
2033.0,2023.0,2055.0,2023.0,-6.0,-1.0,
2033.0,2028.0,2050.0,2042.0,-6.0,-1.0,
2021.0,2025.0,2051.0,2031.0,-5.0,-2.0,
2030.0,2005.0,2051.0,2034.0,-5.0,-2.0,
2057.0,2031.0,2055.0,2044.0,-5.0,-3.0,
2057.0,2013.0,2054.0,2039.0,-5.0,0,
2021.0,2020.0,2052.0,2049.0,-5.0,-3.0,
2043.0,2030.0,2050.0,2063.0,-5.0,-3.0,
2019.0,1979.0,2048.0,2035.0,-5.0,-3.0,
2028.0,2002.0,2049.0,2031.0,-4.0,-4.0,
2027.0,1998.0,2049.0,2053.0,-4.0,-4.0,
2045.0,2019.0,2053.0,2024.0,-4.0,-4.0,
2059.0,1984.0,2055.0,2038.0,-4.0,-4.0,
2040.0,2003.0,2054.0,2050.0,-4.0,-4.0,
2008.0,2017.0,2048.0,2045.0,-4.0,-4.0,
2024.0,2004.0,2048.0,2033.0,-4.0,-4.0,
1991.0,1969.0,2047.0,2032.0,-4.0,-4.0,
2029.0,1980.0,2046.0,2042.0,-4.0,-3.0,
2074.0,1965.0,2052.0,2051.0,-4.0,-3.0,
2078.0,1986.0,2055.0,2063.0,-3.0,-2.0,
2079.0,2014.0,2054.0,2071.0,-3.0,-2.0,
2065.0,2013.0,2052.0,2053.0,-3.0,-2.0,
2050.0,2022.0,2050.0,2031.0,-3.0,-1.0,
2022.0,2036.0,2053.0,2022.0,-3.0,-1.0,
2016.0,2000.0,2050.0,2090.0,-3.0,0.0,
2014.0,2019.0,2051.0,2031.0,-3.0,0.0,
2020.0,2012.0,2055.0,2030.0,-3.0,0.0,
2022.0,2005.0,2048.0,1967.0,-3.0,1.0,
2068.0,1985.0,2058.0,2079.0,-3.0,1.0,
2050.0,2021.0,2058.0,2090.0,-3.0,1.0,
2045.0,2041.0,2055.0,2012.0,-3.0,1.0,
2036.0,2061.0,2054.0,1933.0,-2.0,1.0,
1993.0,2038.0,2047.0,1981.0,-2.0,1.0,
2005.0,2029.0,2054.0,2049.0,-2.0,2.0,
2031.0,1873.0,2052.0,2061.0,-2.0,2.0,
2049.0,1911.0,2055.0,2169.0,-2.0,2.0,
2047.0,2008.0,2060.0,2049.0,-2.0,2.0,
2042.0,2015.0,2054.0,2048.0,-2.0,2.0,
2024.0,1985.0,2053.0,2099.0,-2.0,2.0,
2017.0,1957.0,2052.0,2171.0,-2.0,2.0,
1992.0,2026.0,2046.0,1958.0,-2.0,2.0,
2023.0,2039.0,2053.0,2002.0,-2.0,2.0,
2006.0,2064.0,2050.0,2059.0,-2.0,2.0,
2037.0,2086.0,2057.0,1960.0,-2.0,2.0,
2037.0,2029.0,2052.0,2005.0,-2.0,2.0,
2030.0,2043.0,2050.0,2067.0,-1.0,1.0,
2020.0,2023.0,2053.0,2080.0,-1.0,1.0,
2021.0,1935.0,2052.0,1974.0,-1.0,1.0,
2027.0,1999.0,2058.0,2018.0,-1.0,1.0,
2016.0,2033.0,2047.0,2075.0,-1.0,1.0,
2042.0,2032.0,2053.0,2035.0,-1.0,0.0,
2034.0,2009.0,2054.0,2034.0,-1.0,0.0,
2053.0,2020.0,2054.0,2016.0,-1.0,0.0,
2022.0,1989.0,2049.0,2045.0,-1.0,-1.0,
2039.0,2002.0,2047.0,2012.0,-1.0,-1.0,
2027.0,2000.0,2046.0,2023.0,-1.0,-1.0,
2049.0,2005.0,2053.0,2040.0,-1.0,-1.0,
2050.0,2000.0,2051.0,2029.0,-1.0,-1.0,
2059.0,1989.0,2052.0,2038.0,-1.0,-1.0,
2059.0,2015.0,2058.0,2043.0,0.0,-2.0,
2070.0,2018.0,2054.0,2055.0,0.0,-2.0,
2066.0,2024.0,2055.0,2051.0,0.0,-2.0,
2037.0,2022.0,2053.0,2038.0,0.0,-1.0,
2041.0,2026.0,2052.0,2028.0,0.0,-1.0,
2013.0,2017.0,2049.0,2039.0,0.0,-1.0,
2018.0,1995.0,2050.0,2042.0,0.0,-1.0,
2050.0,1996.0,2056.0,2052.0,0.0,-1.0,
2054.0,1998.0,2062.0,2039.0,0.0,-1.0,
2035.0,1980.0,2055.0,2053.0,0.0,0.0,
2029.0,1996.0,2054.0,2048.0,0.0,0.0,
2030.0,1999.0,2053.0,2049.0,0.0,0.0,
2005.0,1994.0,2048.0,2050.0,0.0,0.0,
2007.0,1991.0,2047.0,2035.0,0.0,1.0,
2025.0,2004.0,2049.0,2050.0,0.0,1.0,
2056.0,2015.0,2057.0,2047.0,0.0,1.0,
2045.0,2018.0,2053.0,2046.0,0.0,1.0,
2035.0,2020.0,2052.0,2033.0,0.0,1.0,
2036.0,2008.0,2053.0,2008.0,0.0,1.0,
2027.0,2044.0,2049.0,2045.0,0.0,1.0,
2003.0,1993.0,2043.0,2023.0,0.0,1.0,
2048.0,2005.0,2052.0,2040.0,0.0,1.0,
2043.0,1998.0,2055.0,2032.0,0.0,1.0,
2038.0,2009.0,2053.0,2046.0,0.0,1.0,
2050.0,2016.0,2057.0,2090.0,0,0,
2033.0,2024.0,2051.0,2040.0,0.0,1.0,
2029.0,2007.0,2051.0,2022.0,0.0,1.0,
2015.0,1983.0,2055.0,2063.0,0.0,1.0,
2022.0,1986.0,2051.0,2114.0,0.0,1.0,
2029.0,2031.0,2051.0,2038.0,0.0,1.0,
2052.0,2028.0,2059.0,2019.0,0.0,1.0,
2043.0,1993.0,2052.0,2015.0,0.0,1.0,
2034.0,2006.0,2052.0,2035.0,0.0,1.0,
2028.0,2053.0,2049.0,1968.0,0.0,1.0,
2027.0,2044.0,2050.0,1978.0,0.0,1.0,
2011.0,1985.0,2049.0,2114.0,0.0,1.0,
2034.0,1997.0,2052.0,2087.0,0.0,0.0,
2028.0,1987.0,2050.0,2100.0,0.0,0.0,
2054.0,2053.0,2053.0,2096.0,0,0,
2045.0,2022.0,2051.0,1888.0,0.0,0.0,
2041.0,2033.0,2051.0,1978.0,0.0,0.0,
2041.0,2086.0,2048.0,1990.0,0.0,0.0,
2037.0,1971.0,2050.0,2021.0,0.0,0.0,
2017.0,1825.0,2045.0,2117.0,0.0,-1.0,
2034.0,1960.0,2050.0,2110.0,0.0,-1.0,
2048.0,2007.0,2050.0,2052.0,0.0,-1.0,
2046.0,2033.0,2061.0,2015.0,0.0,-1.0,
2049.0,2057.0,2056.0,2005.0,0.0,-1.0,
2039.0,2014.0,2053.0,2009.0,0.0,-1.0,
2007.0,1979.0,2050.0,2075.0,0.0,-1.0,
2014.0,2040.0,2050.0,2101.0,0.0,-1.0,
2016.0,2033.0,2050.0,2092.0,0.0,-1.0,
2026.0,2001.0,2051.0,2037.0,0.0,-1.0,
2083.0,1999.0,2057.0,2042.0,0.0,-1.0,
2069.0,2002.0,2058.0,2001.0,0.0,-1.0,
2081.0,2003.0,2060.0,2049.0,0.0,-1.0,
2033.0,2008.0,2053.0,2036.0,0.0,-1.0,
2029.0,2025.0,2051.0,2027.0,0.0,-1.0,
2022.0,2030.0,2049.0,2027.0,0.0,-1.0,
2004.0,2028.0,2045.0,2028.0,0.0,-1.0,
2032.0,2028.0,2048.0,2030.0,0.0,-1.0,
2027.0,2005.0,2052.0,2025.0,0.0,-1.0,
2041.0,1968.0,2053.0,2069.0,0.0,0.0,
2071.0,1982.0,2056.0,2077.0,0.0,0.0,
2025.0,2007.0,2046.0,2030.0,0.0,0.0,
2012.0,2015.0,2047.0,1986.0,0.0,0.0,
2018.0,2021.0,2046.0,2004.0,0.0,0.0,
2013.0,2031.0,2049.0,2012.0,0.0,0.0,
2028.0,2012.0,2053.0,2029.0,0.0,0.0,
2047.0,1983.0,2055.0,2044.0,0.0,0.0,
2056.0,1995.0,2055.0,2085.0,0.0,0.0,
2031.0,1996.0,2055.0,2036.0,0.0,0.0,
2046.0,2009.0,2053.0,2020.0,0.0,0.0,
2022.0,2011.0,2050.0,2018.0,0.0,0.0,
2039.0,2014.0,2051.0,2080.0,0.0,0.0,
2023.0,1985.0,2050.0,2028.0,0.0,0.0,
2041.0,1982.0,2052.0,2033.0,0.0,0.0,
2047.0,1991.0,2057.0,2087.0,0.0,1.0,
2017.0,2032.0,2051.0,2058.0,0.0,1.0,
2032.0,2067.0,2049.0,2018.0,0.0,1.0,
2022.0,2021.0,2049.0,2038.0,0.0,1.0,
2005.0,1972.0,2045.0,2121.0,0.0,1.0,
2014.0,2000.0,2047.0,2075.0,0.0,0.0,
2021.0,1994.0,2051.0,2051.0,0.0,0.0,
2029.0,1986.0,2052.0,2058.0,0.0,0.0,
2053.0,2019.0,2056.0,2063.0,0.0,0.0,
2036.0,2038.0,2053.0,2043.0,0.0,0.0,
2025.0,2001.0,2050.0,2012.0,0.0,0.0,
2044.0,2022.0,2054.0,1899.0,0.0,0.0,
2016.0,2013.0,2044.0,1978.0,0,0,
2027.0,2028.0,2051.0,1998.0,0.0,0.0,
2015.0,2007.0,2049.0,2132.0,0.0,0.0,
2038.0,1987.0,2052.0,2117.0,0.0,-1.0,
2057.0,2035.0,2054.0,2053.0,0.0,-1.0,
2037.0,2003.0,2052.0,1962.0,0.0,-1.0,
2070.0,2029.0,2054.0,1989.0,0.0,-1.0,
2054.0,1999.0,2056.0,2054.0,0.0,-1.0,
2023.0,1948.0,2051.0,2068.0,0.0,-1.0,
2018.0,1968.0,2055.0,2037.0,0.0,-1.0,
2036.0,2017.0,2055.0,2063.0,0.0,-1.0,
2052.0,2046.0,2056.0,2077.0,0.0,-1.0,
2038.0,2003.0,2053.0,2021.0,0.0,-1.0,
2037.0,2034.0,2048.0,1979.0,0.0,-1.0,
2029.0,1975.0,2054.0,2015.0,0.0,-1.0,
2007.0,1926.0,2049.0,2101.0,0.0,-1.0,
2013.0,2002.0,2049.0,2109.0,0.0,0.0,
2021.0,2009.0,2050.0,2018.0,0.0,0.0,
2037.0,2011.0,2052.0,2002.0,0.0,0.0,
2064.0,2026.0,2059.0,2025.0,0.0,0.0,
2061.0,2032.0,2053.0,2042.0,0.0,0.0,
2036.0,2057.0,2052.0,2065.0,0.0,0.0,
2025.0,1948.0,2052.0,2102.0,0.0,0.0,
2018.0,1962.0,2048.0,2064.0,0.0,0.0,
2034.0,2006.0,2046.0,2019.0,0.0,0.0,
2038.0,2013.0,2050.0,2020.0,0.0,1.0,
2038.0,2018.0,2053.0,2053.0,0.0,1.0,
2063.0,2031.0,2058.0,2047.0,0.0,1.0,
2038.0,2022.0,2049.0,2058.0,0.0,1.0,
2006.0,2017.0,2050.0,2046.0,0.0,1.0,
2005.0,2023.0,2047.0,2038.0,0.0,1.0,
2021.0,2030.0,2047.0,2041.0,0.0,1.0,
2018.0,2003.0,2051.0,2021.0,0.0,1.0,
2020.0,2008.0,2053.0,2016.0,0.0,1.0,
2027.0,2027.0,2052.0,2044.0,0.0,1.0,
2036.0,2037.0,2054.0,2016.0,0.0,1.0,
2036.0,2004.0,2053.0,2030.0,0.0,1.0,
2051.0,1994.0,2054.0,2031.0,0.0,1.0,
2029.0,1943.0,2052.0,2042.0,0.0,1.0,
2009.0,1971.0,2048.0,2095.0,0.0,1.0,
2021.0,2009.0,2051.0,2070.0,0.0,1.0,
2038.0,2009.0,2055.0,2050.0,0.0,1.0,
2040.0,2001.0,2051.0,2004.0,0.0,1.0,
2060.0,2022.0,2056.0,1988.0,0.0,1.0,
2037.0,2014.0,2048.0,2033.0,0.0,1.0,
2016.0,2023.0,2048.0,2029.0,0.0,1.0,
2028.0,2010.0,2052.0,2060.0,0.0,1.0,
2014.0,2011.0,2048.0,2027.0,0.0,1.0,
2050.0,2033.0,2055.0,2040.0,0.0,1.0,
2064.0,2024.0,2053.0,2036.0,0.0,1.0,
2052.0,2003.0,2048.0,2031.0,0.0,0.0,
2024.0,1995.0,2048.0,2043.0,0.0,0.0,
2043.0,2005.0,2054.0,2088.0,0.0,0.0,
2033.0,1993.0,2052.0,2062.0,0.0,0.0,
2033.0,1998.0,2050.0,2012.0,0.0,0.0,
2019.0,1994.0,2048.0,2032.0,0.0,0.0,
2038.0,2011.0,2052.0,2050.0,0.0,0.0,
2042.0,2002.0,2057.0,2082.0,0.0,0.0,
2024.0,1995.0,2055.0,2058.0,0.0,0.0,
2021.0,1984.0,2049.0,2011.0,0.0,0.0,
2036.0,2024.0,2055.0,1990.0,0.0,0.0,
2026.0,2017.0,2055.0,2038.0,0.0,0.0,
2030.0,2014.0,2053.0,2029.0,0.0,0,
2026.0,2035.0,2052.0,2077.0,0.0,0.0,
2030.0,2053.0,2057.0,2056.0,0.0,0.0,
2035.0,2014.0,2056.0,2041.0,0.0,0.0,
2031.0,1994.0,2054.0,2014.0,0.0,0.0,
2031.0,1998.0,2053.0,2080.0,0.0,0.0,
1994.0,1999.0,2049.0,2039.0,0.0,0.0,
1994.0,2047.0,2048.0,1944.0,0.0,0.0,
2003.0,1995.0,2049.0,2018.0,0.0,0.0,
2004.0,1900.0,2044.0,2060.0,0.0,0.0,
2098.0,1931.0,2066.0,2116.0,0.0,0.0,
2078.0,1972.0,2059.0,2077.0,0.0,0.0,
2073.0,1997.0,2059.0,2060.0,0.0,1.0,
2051.0,2027.0,2055.0,2063.0,0.0,1.0,
2036.0,2023.0,2052.0,2050.0,0.0,1.0,
2025.0,2028.0,2054.0,2019.0,0.0,1.0,
2021.0,2019.0,2049.0,2018.0,0.0,1.0,
2021.0,2025.0,2053.0,2023.0,0.0,1.0,
2037.0,2029.0,2056.0,2023.0,0.0,1.0,
2041.0,2041.0,2052.0,2046.0,0.0,1.0,
2031.0,2036.0,2053.0,2044.0,0.0,1.0,
2014.0,1990.0,2050.0,2038.0,0.0,1.0,
2013.0,2024.0,2049.0,2051.0,0.0,1.0,
2019.0,2036.0,2052.0,2023.0,0.0,1.0,
2012.0,2022.0,2051.0,2036.0,0.0,1.0,
2019.0,2025.0,2051.0,2029.0,0.0,1.0,
2029.0,2020.0,2053.0,2027.0,0.0,1.0,
2027.0,2017.0,2052.0,2030.0,0.0,1.0,
2033.0,1989.0,2048.0,2042.0,0.0,1.0,
2049.0,1986.0,2050.0,2070.0,0.0,1.0,
2041.0,1978.0,2048.0,2065.0,0.0,1.0,
2034.0,1996.0,2048.0,2066.0,0.0,1.0,
2032.0,2021.0,2045.0,2038.0,0.0,1.0,
2050.0,2015.0,2051.0,2026.0,0.0,1.0,
2063.0,1995.0,2055.0,2009.0,0.0,1.0,
2051.0,2006.0,2053.0,2023.0,0.0,1.0,
2060.0,1999.0,2056.0,2034.0,0.0,1.0,
2035.0,1983.0,2052.0,2048.0,0.0,0.0,
2008.0,2011.0,2047.0,2042.0,0.0,0.0,
2003.0,2025.0,2048.0,2036.0,0.0,0.0,
2014.0,2028.0,2050.0,2029.0,0.0,0.0,
2029.0,2019.0,2053.0,2053.0,0.0,0.0,
2022.0,2019.0,2055.0,2054.0,0.0,0.0,
2009.0,1982.0,2049.0,2045.0,0.0,0.0,
2035.0,1961.0,2050.0,2034.0,0.0,0.0,
2049.0,1972.0,2054.0,2046.0,0.0,0.0,
2023.0,2070.0,2048.0,2102.0,0.0,0.0,
2016.0,2040.0,2049.0,2061.0,0.0,0.0,
2031.0,2040.0,2052.0,2039.0,0.0,0.0,
2040.0,2011.0,2053.0,1979.0,0.0,0,
2061.0,2021.0,2054.0,2045.0,0.0,0.0,
2044.0,1945.0,2053.0,2038.0,0.0,0.0,
2042.0,1942.0,2052.0,2049.0,0.0,0.0,
2057.0,1985.0,2050.0,2037.0,0.0,0.0,
2044.0,2033.0,2051.0,2025.0,0.0,0.0,
2027.0,1995.0,2051.0,2028.0,0.0,0.0,
2035.0,1998.0,2053.0,2083.0,0.0,0.0,
2052.0,2017.0,2056.0,2086.0,0.0,0.0,
2046.0,2026.0,2055.0,2041.0,0.0,0.0,
2019.0,1980.0,2051.0,2068.0,0.0,0.0,
2012.0,2036.0,2052.0,2040.0,0.0,0.0,
2005.0,2032.0,2054.0,2023.0,0.0,0.0,
2009.0,2004.0,2053.0,1999.0,0.0,0.0,
2013.0,1973.0,2051.0,2037.0,0.0,0.0,
2067.0,1999.0,2061.0,2047.0,0.0,0.0,
2071.0,2007.0,2063.0,2041.0,0.0,0.0,
2044.0,2020.0,2055.0,2031.0,0.0,0.0,
2033.0,2037.0,2054.0,2013.0,0.0,0.0,
2028.0,2014.0,2055.0,2003.0,0.0,0.0,
2012.0,2016.0,2053.0,2038.0,0.0,0.0,
2011.0,2007.0,2051.0,2063.0,0.0,0.0,
2008.0,2043.0,2052.0,2080.0,0.0,0.0,
2033.0,2039.0,2059.0,2009.0,0.0,0.0,
2035.0,2039.0,2057.0,1993.0,0.0,1.0,
2022.0,1992.0,2052.0,2009.0,0.0,1.0,
2045.0,1967.0,2056.0,2043.0,0.0,1.0,
2037.0,1988.0,2056.0,2060.0,0.0,1.0,
2015.0,2009.0,2051.0,2046.0,0.0,1.0,
2015.0,2021.0,2050.0,2052.0,0.0,1.0,
2024.0,1991.0,2048.0,2045.0,0,0,
2059.0,1999.0,2057.0,2049.0,0.0,1.0,
2050.0,2012.0,2053.0,2038.0,0.0,1.0,
2041.0,2032.0,2053.0,2051.0,0.0,1.0,
2019.0,2030.0,2049.0,2028.0,0.0,1.0,
2035.0,2014.0,2052.0,2040.0,0.0,1.0,
2034.0,1959.0,2050.0,2036.0,0.0,1.0,
2015.0,1964.0,2047.0,2040.0,0.0,1.0,
2052.0,2012.0,2051.0,2047.0,0.0,1.0,
2055.0,2028.0,2056.0,2059.0,0.0,1.0,
2062.0,1997.0,2055.0,2065.0,0.0,1.0,
2045.0,1993.0,2055.0,2053.0,0.0,1.0,
2036.0,2006.0,2050.0,1999.0,0.0,1.0,
2028.0,2015.0,2051.0,2002.0,0.0,1.0,
2025.0,2031.0,2049.0,1979.0,0.0,0.0,
2033.0,2020.0,2051.0,2015.0,0.0,0.0,
2039.0,1988.0,2051.0,2060.0,0.0,0.0,
2027.0,2010.0,2049.0,2124.0,0.0,0.0,
2026.0,1999.0,2050.0,2112.0,0.0,0.0,
2031.0,2030.0,2052.0,2030.0,0.0,0.0,
2019.0,2017.0,2048.0,2027.0,0.0,0.0,
2016.0,1996.0,2044.0,2035.0,0.0,0.0,
2027.0,2000.0,2049.0,2048.0,0.0,0.0,
2043.0,1961.0,2053.0,2046.0,0.0,0.0,
2069.0,1986.0,2058.0,2077.0,0.0,0.0,
2061.0,1992.0,2058.0,2066.0,0.0,0.0,
2031.0,2019.0,2051.0,2047.0,0.0,0.0,
2025.0,2016.0,2054.0,2020.0,0,0,
2020.0,2028.0,2049.0,2010.0,0.0,0.0,
2039.0,2033.0,2052.0,2040.0,0.0,1.0,
2019.0,2037.0,2049.0,2035.0,0.0,0.0,
2029.0,2019.0,2047.0,1999.0,0.0,0.0,
2049.0,2034.0,2055.0,2012.0,0.0,0.0,
2049.0,2023.0,2056.0,2028.0,0.0,0.0,
2037.0,1984.0,2061.0,2061.0,0.0,0.0,
2026.0,2004.0,2053.0,2068.0,0.0,0.0,
2014.0,1993.0,2049.0,2030.0,0.0,0.0,
2036.0,2092.0,2051.0,2006.0,0.0,0.0,
2044.0,2088.0,2054.0,2004.0,0.0,0.0,
2037.0,1910.0,2058.0,2039.0,0.0,0.0,
2037.0,1871.0,2057.0,2048.0,0.0,0.0,
2031.0,1936.0,2054.0,2071.0,0.0,0.0,
2020.0,2026.0,2054.0,2076.0,0.0,0.0,
2045.0,2000.0,2052.0,2077.0,0.0,0.0,
2011.0,1992.0,2049.0,2111.0,0.0,0.0,
2028.0,2025.0,2048.0,2056.0,0.0,0.0,
2029.0,2012.0,2050.0,2057.0,0.0,0.0,
2037.0,2020.0,2052.0,2060.0,0.0,0.0,
2047.0,2019.0,2057.0,2045.0,0.0,0.0,
2042.0,2025.0,2056.0,2043.0,0.0,0.0,
2042.0,2019.0,2052.0,2036.0,0.0,0.0,
2037.0,2017.0,2053.0,2007.0,0.0,0.0,
2013.0,2025.0,2050.0,1998.0,0.0,0.0,
2014.0,2025.0,2048.0,1977.0,0.0,0.0,
2043.0,2035.0,2053.0,2000.0,0.0,0.0,
2056.0,2015.0,2054.0,2004.0,0.0,0.0,
2061.0,2005.0,2052.0,2038.0,0.0,0.0,
2042.0,2017.0,2051.0,2019.0,0.0,0.0,
2040.0,2002.0,2053.0,2022.0,0.0,0.0,
2039.0,2006.0,2050.0,2019.0,0.0,0.0,
2032.0,2001.0,2049.0,2049.0,0.0,0.0,
2026.0,2013.0,2051.0,2083.0,0.0,0.0,
2026.0,2009.0,2050.0,2083.0,0.0,0.0,
2027.0,1976.0,2054.0,2089.0,0.0,0.0,
2044.0,2004.0,2052.0,2070.0,0.0,0.0,
2064.0,1980.0,2053.0,2036.0,0.0,0.0,
2028.0,1984.0,2049.0,2025.0,0,0,
2044.0,2013.0,2052.0,2031.0,0.0,0.0,
2018.0,1967.0,2049.0,2041.0,0.0,0.0,
2015.0,2015.0,2049.0,2045.0,0.0,0.0,
2011.0,1994.0,2049.0,2055.0,0.0,0.0,
2049.0,2024.0,2058.0,2032.0,0.0,0.0,
2036.0,2057.0,2052.0,2023.0,0.0,0.0,
2037.0,2032.0,2058.0,2053.0,0.0,0.0,
2009.0,2010.0,2050.0,2029.0,0.0,0.0,
2044.0,2008.0,2050.0,2105.0,0.0,0.0,
2024.0,1979.0,2049.0,2079.0,0.0,0.0,
2020.0,2027.0,2047.0,1995.0,0.0,0.0,
2051.0,2015.0,2054.0,2015.0,0.0,0.0,
2054.0,2014.0,2052.0,2011.0,0.0,0.0,
2050.0,1991.0,2052.0,2066.0,0.0,0.0,
2031.0,1959.0,2050.0,2092.0,0.0,0.0,
2025.0,2009.0,2047.0,2064.0,0.0,0.0,
2029.0,1999.0,2049.0,2031.0,0.0,0.0,
2018.0,2004.0,2051.0,2006.0,0.0,0.0,
2034.0,2004.0,2053.0,2014.0,0.0,0.0,
2045.0,2021.0,2056.0,2034.0,0.0,0.0,
2061.0,2029.0,2056.0,2038.0,0.0,0.0,
2049.0,2016.0,2056.0,2027.0,0.0,0.0,
2047.0,2015.0,2057.0,2009.0,0.0,0.0,
2035.0,2019.0,2054.0,2017.0,0.0,0.0,
2031.0,2000.0,2053.0,2023.0,0.0,0.0,
2031.0,1995.0,2054.0,2055.0,0.0,0.0,
2032.0,1995.0,2056.0,2060.0,0.0,0.0,
2054.0,2010.0,2056.0,2050.0,0.0,0.0,
2044.0,2029.0,2057.0,2045.0,0.0,0.0,
2055.0,2023.0,2054.0,2037.0,0.0,0.0,
2039.0,2022.0,2054.0,2032.0,0.0,0.0,
2040.0,2009.0,2053.0,2045.0,0.0,0.0,
2034.0,2034.0,2062.0,2033.0,0.0,0.0,
2029.0,2017.0,2052.0,2008.0,0.0,0.0,
2031.0,2014.0,2052.0,2001.0,0.0,0.0,
2047.0,1984.0,2053.0,2035.0,0.0,0.0,
2059.0,2028.0,2054.0,2061.0,0.0,0.0,
2028.0,1975.0,2049.0,2085.0,0.0,0.0,
2022.0,2008.0,2051.0,2061.0,0.0,0.0,
2039.0,2013.0,2054.0,2057.0,0.0,0.0,
2022.0,1953.0,2047.0,2073.0,0.0,0.0,
2028.0,1962.0,2047.0,2076.0,0.0,0.0,
2052.0,2000.0,2054.0,2038.0,0.0,0.0,
2054.0,2015.0,2053.0,2022.0,0.0,0.0,
2031.0,2012.0,2047.0,2030.0,0.0,0.0,
2038.0,2030.0,2055.0,2057.0,0.0,0.0,
2041.0,2026.0,2054.0,2037.0,0.0,0.0,
2020.0,1990.0,2050.0,1995.0,0.0,0.0,
2015.0,2013.0,2049.0,2013.0,0.0,0.0,
2028.0,2030.0,2048.0,2005.0,0.0,1.0,
2039.0,2032.0,2057.0,2058.0,0.0,1.0,
2031.0,2024.0,2051.0,2065.0,0.0,1.0,
2022.0,2051.0,2051.0,2049.0,0.0,1.0,
2047.0,2044.0,2056.0,2032.0,0.0,1.0,
2064.0,2023.0,2056.0,2034.0,0.0,1.0,
2025.0,2002.0,2047.0,2014.0,0.0,1.0,
2011.0,1904.0,2048.0,2038.0,0.0,1.0,
2035.0,1992.0,2053.0,2060.0,0.0,1.0,
2047.0,1988.0,2060.0,2086.0,0.0,1.0,
2040.0,1999.0,2056.0,2060.0,0.0,1.0,
2040.0,2007.0,2055.0,2054.0,0.0,1.0,
2035.0,2011.0,2053.0,2051.0,0.0,1.0,
2028.0,2002.0,2050.0,2028.0,0.0,1.0,
2013.0,1995.0,2049.0,2017.0,0.0,0.0,
2020.0,2015.0,2051.0,2028.0,0.0,0.0,
2023.0,2020.0,2055.0,2022.0,0.0,0.0,
2030.0,2072.0,2051.0,2050.0,0.0,0.0,
2035.0,2071.0,2054.0,2017.0,0,0,
2025.0,2033.0,2054.0,1997.0,0.0,0.0,
1999.0,1960.0,2049.0,1995.0,0.0,0.0,
2008.0,1913.0,2046.0,2063.0,0.0,0.0,
2033.0,1976.0,2051.0,2085.0,0.0,0.0,
2030.0,1987.0,2054.0,2088.0,0.0,0.0,
2044.0,2025.0,2056.0,2056.0,0.0,0.0,
2049.0,2021.0,2057.0,2035.0,0.0,0.0,
2048.0,2028.0,2054.0,2046.0,0.0,0.0,
2052.0,2000.0,2052.0,2036.0,0.0,0.0,
2038.0,2016.0,2052.0,2033.0,0.0,0.0,
2010.0,2018.0,2055.0,2024.0,0.0,0.0,
2025.0,2016.0,2053.0,2038.0,0.0,0.0,
2043.0,2009.0,2055.0,2027.0,0.0,0.0,
2074.0,2013.0,2054.0,2028.0,0.0,0.0,
2046.0,2020.0,2053.0,2035.0,0.0,0.0,
2031.0,2017.0,2053.0,2027.0,0.0,0.0,
2023.0,2020.0,2056.0,2033.0,0.0,0.0,
2023.0,2011.0,2054.0,2036.0,0.0,0.0,
2017.0,2005.0,2049.0,2028.0,0.0,0.0,
2016.0,2014.0,2051.0,2043.0,0.0,0.0,
2045.0,2025.0,2049.0,2032.0,0.0,0.0,
2044.0,2016.0,2053.0,2035.0,0.0,0.0,
2041.0,2003.0,2054.0,2041.0,0.0,1.0,
2038.0,1979.0,2055.0,2059.0,0.0,1.0,
2030.0,1992.0,2055.0,2072.0,0.0,1.0,
2028.0,1974.0,2053.0,2045.0,0.0,1.0,
2018.0,2034.0,2050.0,1968.0,0.0,1.0,
2026.0,2036.0,2048.0,1994.0,0.0,1.0,
2044.0,2038.0,2052.0,2043.0,0.0,1.0,
2032.0,1974.0,2054.0,2098.0,0.0,1.0,
2039.0,1973.0,2053.0,2117.0,0.0,1.0,
2026.0,2009.0,2049.0,2028.0,0.0,1.0,
2036.0,2030.0,2054.0,2000.0,0.0,1.0,
2009.0,2048.0,2050.0,2057.0,0.0,1.0,
2007.0,2002.0,2045.0,2063.0,0.0,1.0,
2018.0,1963.0,2050.0,2077.0,0.0,1.0,
2019.0,2017.0,2050.0,2060.0,0.0,1.0,
2046.0,2035.0,2057.0,2036.0,0.0,1.0,
2043.0,2021.0,2054.0,2027.0,0.0,1.0,
2032.0,1960.0,2055.0,2060.0,0.0,1.0,
2059.0,1966.0,2053.0,2038.0,0.0,1.0,
2018.0,1993.0,2046.0,2052.0,0.0,1.0,
2047.0,2020.0,2049.0,2036.0,0.0,1.0,
2059.0,2030.0,2055.0,2009.0,0.0,1.0,
2065.0,2064.0,2057.0,2021.0,0.0,1.0,
2058.0,2018.0,2052.0,1990.0,0.0,0.0,
2038.0,1999.0,2052.0,2041.0,0.0,0.0,
2038.0,2005.0,2052.0,2055.0,0.0,0.0,
2025.0,1977.0,2049.0,2036.0,0.0,0.0,
2005.0,2003.0,2048.0,2014.0,0,0,
2026.0,2009.0,2049.0,2043.0,0.0,0.0,
2038.0,1986.0,2053.0,2049.0,0.0,0.0,
2059.0,1982.0,2057.0,2066.0,0.0,0.0,
2059.0,2040.0,2057.0,2049.0,0.0,0.0,
2037.0,2047.0,2052.0,2035.0,0.0,0.0,
2033.0,1993.0,2042.0,2040.0,0.0,0.0,
2013.0,1992.0,2049.0,2056.0,0.0,0.0,
1991.0,2032.0,2044.0,2056.0,0.0,0.0,
2005.0,1995.0,2047.0,2033.0,0.0,0.0,
2045.0,1986.0,2053.0,2019.0,0.0,0.0,
2047.0,2006.0,2054.0,2016.0,0.0,0.0,
2033.0,2030.0,2055.0,2032.0,0.0,0.0,
2031.0,2038.0,2054.0,2018.0,0.0,0.0,
2043.0,2041.0,2056.0,2024.0,0.0,0.0,
2028.0,1995.0,2055.0,2025.0,0.0,0.0,
2020.0,2003.0,2050.0,2027.0,0.0,0.0,
2029.0,1983.0,2052.0,2038.0,0.0,0.0,
2036.0,1991.0,2054.0,2048.0,0.0,0.0,
2039.0,2010.0,2058.0,2060.0,0.0,0.0,
2026.0,2000.0,2055.0,2070.0,0.0,0.0,
2025.0,1986.0,2051.0,2081.0,0.0,1.0,
2019.0,1999.0,2050.0,2089.0,0.0,1.0,
2028.0,2019.0,2052.0,2062.0,0.0,1.0,
2025.0,2024.0,2050.0,2044.0,0.0,1.0,
2037.0,2003.0,2053.0,2032.0,0.0,1.0,
2063.0,1999.0,2056.0,2028.0,0.0,1.0,
2058.0,2000.0,2055.0,2037.0,0.0,1.0,
2052.0,2026.0,2056.0,2028.0,0.0,1.0,
2021.0,2026.0,2052.0,2013.0,0.0,1.0,
2028.0,2021.0,2053.0,2019.0,0.0,1.0,
2017.0,2025.0,2051.0,2030.0,0.0,1.0,
2025.0,2007.0,2051.0,2054.0,0.0,1.0,
2008.0,2019.0,2053.0,2058.0,0.0,1.0,
2041.0,2006.0,2054.0,2044.0,0.0,1.0,
2050.0,2009.0,2055.0,2042.0,0.0,1.0,
2058.0,1994.0,2057.0,2028.0,0.0,1.0,
2032.0,1987.0,2050.0,2044.0,0.0,1.0,
2031.0,1998.0,2048.0,2034.0,0.0,1.0,
2013.0,2006.0,2051.0,2037.0,0.0,1.0,
2020.0,1998.0,2049.0,2043.0,0.0,1.0,
2039.0,2014.0,2051.0,2046.0,0.0,1.0,
2045.0,2017.0,2054.0,2026.0,0.0,1.0,
2041.0,2000.0,2055.0,2038.0,0.0,1.0,
2031.0,1983.0,2052.0,2074.0,0.0,1.0,
2034.0,2008.0,2051.0,2048.0,0.0,1.0,
2021.0,2043.0,2049.0,2019.0,0.0,1.0,
2023.0,2044.0,2050.0,2000.0,0.0,1.0,
2024.0,2025.0,2052.0,2032.0,0.0,1.0,
2017.0,2005.0,2051.0,2059.0,0.0,1.0,
2030.0,2032.0,2054.0,1984.0,0.0,1.0,
2047.0,2026.0,2056.0,1989.0,0.0,0.0,
2028.0,2022.0,2051.0,2032.0,0.0,0.0,
2060.0,2006.0,2051.0,2093.0,0.0,0.0,
2069.0,1960.0,2056.0,2125.0,0.0,0.0,
2029.0,1979.0,2048.0,2038.0,0.0,0.0,
2015.0,1982.0,2052.0,2055.0,0.0,0.0,
2044.0,1944.0,2053.0,2064.0,0.0,0.0,
2046.0,1977.0,2057.0,2108.0,0.0,0.0,
2047.0,1981.0,2057.0,2060.0,0.0,0.0,
2035.0,1985.0,2055.0,2045.0,0.0,0.0,
2027.0,2016.0,2052.0,2033.0,0.0,0.0,
2020.0,2036.0,2048.0,2031.0,0.0,0.0,
2023.0,2008.0,2052.0,2027.0,0.0,0.0,
2028.0,2026.0,2059.0,2012.0,0.0,0.0,
2050.0,2041.0,2057.0,2021.0,0,0,
2037.0,2029.0,2054.0,2053.0,0.0,0.0,
2040.0,2038.0,2053.0,2045.0,0.0,0.0,
2019.0,2019.0,2049.0,1996.0,0.0,0.0,
2024.0,2038.0,2046.0,1977.0,0.0,1.0,
2013.0,2046.0,2049.0,1982.0,0.0,1.0,
2034.0,2043.0,2054.0,2009.0,0.0,1.0,
2029.0,2003.0,2052.0,2065.0,0.0,1.0,
2027.0,1943.0,2056.0,2104.0,0.0,1.0,
2057.0,1968.0,2056.0,2108.0,0.0,1.0,
2034.0,2022.0,2053.0,2084.0,0.0,1.0,
2020.0,2012.0,2048.0,2022.0,0.0,1.0,
2020.0,1990.0,2052.0,2028.0,0.0,1.0,
2011.0,2007.0,2050.0,2039.0,0.0,1.0,
2023.0,2010.0,2054.0,2053.0,0.0,1.0,
2041.0,2017.0,2056.0,2033.0,0.0,1.0,
2052.0,2018.0,2056.0,2048.0,0.0,1.0,
2054.0,2022.0,2052.0,2041.0,0.0,1.0,
2035.0,1996.0,2053.0,2039.0,0.0,1.0,
2021.0,2000.0,2051.0,2001.0,0.0,1.0,
2025.0,2020.0,2050.0,2026.0,0.0,1.0,
2013.0,1980.0,2048.0,2036.0,0.0,1.0,
2026.0,1997.0,2054.0,2064.0,0,0,
2046.0,2017.0,2055.0,2076.0,0.0,1.0,
2028.0,2029.0,2051.0,2049.0,0.0,1.0,
2030.0,2030.0,2058.0,2030.0,0.0,1.0,
2016.0,1961.0,2051.0,1998.0,0.0,1.0,
2021.0,1995.0,2050.0,2021.0,0.0,1.0,
2030.0,1998.0,2060.0,2036.0,0.0,0.0,
2003.0,1988.0,2049.0,2022.0,0.0,1.0,
2035.0,2020.0,2055.0,2044.0,0.0,1.0,
2047.0,2018.0,2055.0,2044.0,0.0,1.0,
2048.0,2024.0,2057.0,2044.0,0.0,1.0,
2037.0,2022.0,2053.0,2052.0,0.0,1.0,
2035.0,2012.0,2049.0,2049.0,0.0,1.0,
2031.0,2004.0,2049.0,2038.0,0.0,1.0,
2024.0,1993.0,2050.0,2027.0,0.0,1.0,
2029.0,2010.0,2050.0,2024.0,0.0,1.0,
2036.0,2002.0,2056.0,2023.0,0.0,1.0,
2039.0,2014.0,2052.0,2049.0,0.0,1.0,
2046.0,2026.0,2052.0,2067.0,0.0,1.0,
2045.0,2022.0,2055.0,2043.0,0.0,1.0,
2036.0,2012.0,2052.0,2026.0,0.0,1.0,
2020.0,1982.0,2049.0,2039.0,0.0,1.0,
2019.0,1999.0,2035.0,2084.0,0.0,1.0,
2026.0,2016.0,2052.0,2058.0,0.0,1.0,
2044.0,2014.0,2057.0,2030.0,0.0,1.0,
2037.0,2020.0,2055.0,2010.0,0.0,1.0,
2023.0,2001.0,2058.0,2023.0,0.0,1.0,
2016.0,2023.0,2047.0,2042.0,0.0,1.0,
2030.0,2039.0,2053.0,1985.0,0.0,0.0,
2029.0,1990.0,2052.0,1969.0,0.0,0.0,
2005.0,2006.0,2055.0,2031.0,0.0,0.0,
2008.0,1989.0,2046.0,2095.0,0.0,0.0,
2050.0,2000.0,2053.0,2117.0,0.0,0.0,
2046.0,2006.0,2053.0,2059.0,0.0,0.0,
2037.0,1995.0,2053.0,2044.0,0.0,0.0,
2061.0,2014.0,2058.0,2057.0,0.0,0.0,
2043.0,2012.0,2053.0,2057.0,0.0,0.0,
2032.0,1924.0,2048.0,2066.0,0.0,0.0,
2029.0,1984.0,2048.0,2070.0,0.0,0.0,
2028.0,1982.0,2053.0,2074.0,0.0,0.0,
2031.0,2011.0,2058.0,2064.0,0.0,0.0,
2014.0,2021.0,2050.0,2047.0,0.0,0.0,
2026.0,2027.0,2055.0,2065.0,0.0,0.0,
2028.0,2038.0,2054.0,2033.0,0.0,0.0,
2035.0,2041.0,2054.0,2006.0,0.0,0.0,
2023.0,2047.0,2050.0,1969.0,0.0,0.0,
2037.0,2051.0,2053.0,1982.0,0.0,0.0,
2035.0,2018.0,2053.0,2016.0,0.0,0.0,
2015.0,1942.0,2054.0,2041.0,0.0,0.0,
2027.0,1975.0,2052.0,2059.0,0.0,0.0,
2039.0,2009.0,2051.0,1995.0,0.0,0.0,
2062.0,1999.0,2054.0,2015.0,0.0,0.0,
2037.0,2033.0,2050.0,2035.0,0.0,0.0,
2034.0,2008.0,2048.0,2037.0,0.0,1.0,
2049.0,2003.0,2055.0,2046.0,0.0,1.0,
2053.0,2022.0,2054.0,2049.0,0.0,1.0,
2044.0,2010.0,2052.0,2065.0,0.0,1.0,
2052.0,2009.0,2055.0,2066.0,0.0,1.0,
2023.0,2003.0,2052.0,2030.0,0.0,1.0,
2003.0,2004.0,2045.0,2019.0,0.0,1.0,
2019.0,2006.0,2050.0,2044.0,0.0,1.0,
2019.0,2010.0,2057.0,2029.0,0.0,1.0,
2027.0,2003.0,2054.0,2040.0,0.0,1.0,
2054.0,2011.0,2067.0,2043.0,0.0,1.0,
2040.0,2011.0,2057.0,2043.0,0.0,1.0,
2034.0,1999.0,2054.0,2047.0,0.0,1.0,
2018.0,2021.0,2051.0,2035.0,0.0,1.0,
2033.0,2035.0,2056.0,2043.0,0.0,1.0,
2024.0,2040.0,2053.0,2013.0,0.0,1.0,
2019.0,2027.0,2053.0,1989.0,0.0,1.0,
2030.0,2024.0,2053.0,1997.0,0.0,0.0,
2042.0,1947.0,2054.0,2018.0,0.0,0.0,
2040.0,1928.0,2057.0,2099.0,0.0,0.0,
2034.0,1960.0,2053.0,2051.0,0.0,0.0,
2050.0,2042.0,2055.0,2072.0,0.0,0.0,
2027.0,2020.0,2052.0,2116.0,0.0,0,
2051.0,2020.0,2051.0,2096.0,0.0,0.0,
2045.0,1963.0,2052.0,2067.0,0.0,0.0,
2055.0,1980.0,2050.0,2066.0,0.0,0.0,
2058.0,2005.0,2058.0,2064.0,0.0,0.0,
2052.0,2009.0,2058.0,2039.0,0.0,0.0,
2026.0,2012.0,2053.0,2040.0,0.0,0.0,
2030.0,2026.0,2053.0,2024.0,0.0,0.0,
2024.0,2019.0,2052.0,2017.0,0.0,0.0,
2030.0,2032.0,2051.0,2022.0,0.0,0.0,
2023.0,2031.0,2050.0,2020.0,0.0,0.0,
2021.0,1987.0,2050.0,2011.0,0.0,0.0,
2039.0,2026.0,2057.0,2038.0,0.0,0.0,
2040.0,2042.0,2053.0,2030.0,0.0,0.0,
2039.0,2019.0,2054.0,2015.0,0.0,0.0,
2019.0,1999.0,2050.0,2005.0,0.0,0.0,
2001.0,2000.0,2046.0,2023.0,0.0,0.0,
2018.0,1986.0,2048.0,2052.0,0.0,1.0,
2016.0,1988.0,2050.0,2062.0,0.0,1.0,
2055.0,2014.0,2057.0,2012.0,0.0,1.0,
2062.0,2053.0,2054.0,2012.0,0.0,1.0,
2020.0,2039.0,2049.0,2026.0,0.0,1.0,
2017.0,2012.0,2052.0,2090.0,0.0,1.0,
2028.0,1963.0,2051.0,2075.0,0.0,1.0,
2025.0,1972.0,2047.0,2007.0,0.0,1.0,
2013.0,1994.0,2049.0,2040.0,0.0,1.0,
2039.0,2009.0,2057.0,2041.0,0,0,
2053.0,2017.0,2061.0,2037.0,0.0,1.0,
2044.0,2017.0,2035.0,2018.0,0.0,1.0,
2043.0,2022.0,2049.0,2017.0,0.0,1.0,
2023.0,1999.0,2049.0,2013.0,0.0,1.0,
2024.0,1996.0,2047.0,2057.0,0.0,1.0,
2020.0,1980.0,2052.0,2075.0,0.0,1.0,
2022.0,2024.0,2049.0,2095.0,0.0,1.0,
2035.0,2035.0,2054.0,2074.0,0.0,1.0,
2050.0,2014.0,2053.0,2060.0,0.0,1.0,
2023.0,2011.0,2051.0,2035.0,0.0,1.0,
2005.0,2005.0,2048.0,2024.0,0.0,1.0,
2025.0,2011.0,2056.0,2040.0,0.0,1.0,
2032.0,1995.0,2051.0,2043.0,0.0,1.0,
2025.0,2006.0,2047.0,2017.0,0.0,1.0,
2050.0,1996.0,2055.0,2022.0,0.0,1.0,
2060.0,2004.0,2055.0,2019.0,0.0,1.0,
2058.0,2020.0,2049.0,2011.0,0.0,1.0,
2043.0,2003.0,2056.0,2042.0,0.0,1.0,
2037.0,1999.0,2053.0,2048.0,0.0,1.0,
2025.0,1997.0,2051.0,2026.0,0.0,1.0,
2012.0,2030.0,2049.0,2063.0,0.0,0.0,
2029.0,2018.0,2054.0,2063.0,0.0,0.0,
2024.0,2018.0,2053.0,2023.0,0.0,0.0,
2064.0,2018.0,2064.0,2045.0,0.0,0.0,
2044.0,2023.0,2055.0,2061.0,0.0,0.0,
2048.0,1956.0,2056.0,2041.0,0.0,0.0,
2015.0,1990.0,2050.0,2074.0,0.0,0.0,
2033.0,2022.0,2050.0,2074.0,0.0,0.0,
2024.0,1989.0,2049.0,2018.0,0.0,0.0,
2031.0,1992.0,2052.0,2037.0,0.0,0.0,
2032.0,2022.0,2052.0,2038.0,0.0,0.0,
2046.0,2017.0,2050.0,2049.0,0.0,0.0,
2040.0,1976.0,2054.0,2066.0,0.0,0.0,
2040.0,2000.0,2054.0,2062.0,0.0,0.0,
2040.0,2015.0,2057.0,2016.0,0.0,0.0,
2018.0,1999.0,2050.0,2038.0,0.0,0.0,
2003.0,2017.0,2054.0,2035.0,0.0,0.0,
2022.0,2020.0,2053.0,2015.0,0.0,0.0,
2054.0,2008.0,2054.0,2025.0,0.0,0.0,
2070.0,2003.0,2057.0,2044.0,0.0,0.0,
2040.0,2019.0,2055.0,2058.0,0.0,0.0,
2046.0,2017.0,2053.0,2025.0,0.0,0.0,
2022.0,2040.0,2050.0,2024.0,0.0,0.0,
2020.0,2027.0,2049.0,2028.0,0.0,0.0,
2030.0,2018.0,2053.0,2048.0,0.0,0.0,
2027.0,1968.0,2053.0,2050.0,0.0,0.0,
2045.0,2005.0,2054.0,2027.0,0.0,0.0,
2037.0,2010.0,2053.0,2035.0,0.0,0.0,
2036.0,2001.0,2052.0,2038.0,0.0,0.0,
2027.0,1998.0,2054.0,2037.0,0.0,1.0,
2019.0,2007.0,2051.0,2033.0,0.0,1.0,
2029.0,2000.0,2052.0,2038.0,0.0,1.0,
2018.0,1991.0,2049.0,2034.0,0.0,1.0,
2034.0,1998.0,2053.0,2038.0,0.0,1.0,
2038.0,1999.0,2051.0,2036.0,0.0,1.0,
2042.0,2005.0,2072.0,2046.0,0.0,1.0,
2033.0,2005.0,2053.0,2044.0,0.0,1.0,
2025.0,2012.0,2051.0,2041.0,0.0,1.0,
2022.0,2014.0,2048.0,2032.0,0.0,1.0,
2028.0,2005.0,2048.0,2034.0,0.0,1.0,
2028.0,2008.0,2048.0,2029.0,0.0,1.0,
2038.0,2012.0,2052.0,2037.0,0.0,1.0,
2043.0,2004.0,2052.0,2054.0,0.0,1.0,
2035.0,2009.0,2053.0,2049.0,0.0,1.0,
2038.0,2010.0,2050.0,2033.0,0.0,1.0,
2019.0,2010.0,2048.0,2058.0,0.0,1.0,
2045.0,2013.0,2051.0,2044.0,0.0,1.0,
2013.0,2001.0,2045.0,2028.0,0.0,1.0,
2036.0,2011.0,2056.0,2021.0,0.0,0.0,
2046.0,2049.0,2054.0,2022.0,0.0,0.0,
2038.0,2009.0,2049.0,2020.0,0.0,0.0,
2040.0,2004.0,2054.0,2012.0,0.0,0.0,
2020.0,2001.0,2050.0,2023.0,0.0,0.0,
2010.0,1971.0,2043.0,2091.0,0.0,0.0,
1999.0,1975.0,2044.0,2097.0,0.0,0.0,
2055.0,1992.0,2056.0,2098.0,0.0,0.0,
2065.0,2007.0,2054.0,2046.0,0.0,0.0,
2032.0,1967.0,2056.0,2013.0,0.0,0.0,
2030.0,2017.0,2056.0,2058.0,0.0,0.0,
2046.0,2023.0,2056.0,2043.0,0.0,0.0,
2041.0,2017.0,2054.0,2044.0,0,0,
2026.0,2010.0,2050.0,2046.0,0.0,0.0,
2014.0,2014.0,2049.0,2036.0,0.0,0.0,
2021.0,2016.0,2053.0,2038.0,0.0,0.0,
2031.0,2020.0,2054.0,2028.0,0.0,0.0,
2035.0,2021.0,2054.0,2024.0,0.0,0.0,
2035.0,2011.0,2055.0,2028.0,0.0,0.0,
2058.0,2009.0,2053.0,2032.0,0.0,0.0,
2023.0,2009.0,2051.0,2024.0,0.0,0.0,
2027.0,2016.0,2052.0,2021.0,0.0,0.0,
2024.0,2049.0,2049.0,2002.0,0.0,0.0,
2019.0,2062.0,2050.0,2016.0,0.0,0.0,
2060.0,2040.0,2058.0,2023.0,0.0,0.0,
2027.0,1966.0,2052.0,2089.0,0.0,0.0,
2024.0,1973.0,2049.0,2021.0,0.0,0.0,
2029.0,1971.0,2051.0,2042.0,0.0,0.0,
2022.0,1965.0,2046.0,2012.0,0.0,0.0,
2055.0,1984.0,2053.0,2064.0,0.0,0.0,
2056.0,1949.0,2053.0,2067.0,0.0,0.0,
2041.0,1986.0,2049.0,2078.0,0.0,0.0,
2046.0,2010.0,2056.0,2076.0,0.0,0.0,
2044.0,1982.0,2053.0,2060.0,0.0,0.0,
2039.0,2002.0,2052.0,2080.0,0.0,0.0,
2023.0,2014.0,2052.0,2091.0,0.0,0.0,
2016.0,2022.0,2048.0,2045.0,0.0,0.0,
2020.0,2023.0,2049.0,2002.0,0.0,0.0,
2020.0,2028.0,2048.0,2012.0,0.0,0.0,
2040.0,2035.0,2055.0,2028.0,0.0,0.0,
2043.0,2028.0,2049.0,2027.0,0.0,0.0,
2042.0,2026.0,2056.0,2027.0,0.0,0.0,
2036.0,2024.0,2054.0,2023.0,0.0,0.0,
2030.0,2016.0,2052.0,2023.0,0.0,0,
2028.0,2019.0,2051.0,2020.0,0.0,0.0,
2019.0,2030.0,2055.0,2012.0,0.0,0.0,
2025.0,2027.0,2051.0,1999.0,0.0,0.0,
2049.0,2025.0,2056.0,2004.0,0.0,0.0,
2048.0,2002.0,2055.0,2026.0,0.0,0.0,
2027.0,1995.0,2048.0,2053.0,0.0,0.0,
1999.0,2013.0,2051.0,2068.0,0.0,0.0,
1989.0,1972.0,2043.0,2071.0,0.0,0.0,
2032.0,1993.0,2052.0,2079.0,0.0,0.0,
2067.0,1958.0,2053.0,2083.0,0.0,0.0,
2084.0,1957.0,2058.0,2070.0,0.0,0.0,
2067.0,1991.0,2056.0,2064.0,0.0,0.0,
2057.0,2023.0,2057.0,2062.0,0.0,0.0,
2047.0,2017.0,2052.0,2047.0,0.0,0.0,
2035.0,2013.0,2058.0,2022.0,0.0,0.0,
2021.0,1998.0,2050.0,1997.0,0.0,0.0,
2014.0,2012.0,2050.0,2003.0,0.0,0.0,
2014.0,2021.0,2048.0,2019.0,0.0,0.0,
2022.0,2012.0,2048.0,2014.0,0.0,0.0,
2046.0,2012.0,2055.0,2036.0,0.0,0.0,
2034.0,2019.0,2050.0,2040.0,0.0,0.0,
2029.0,2015.0,2053.0,2042.0,0.0,0.0,
2028.0,2012.0,2054.0,2042.0,0.0,0.0,
2007.0,2017.0,2051.0,2041.0,0.0,0.0,
2003.0,2020.0,2048.0,2034.0,0.0,0.0,
2005.0,2037.0,2050.0,2029.0,0.0,0.0,
1998.0,2022.0,2048.0,2010.0,0.0,0.0,
2014.0,2035.0,2055.0,2026.0,0.0,0.0,
2054.0,1995.0,2052.0,2031.0,0.0,0.0,
2079.0,2009.0,2054.0,2037.0,0.0,0.0,
2064.0,1962.0,2054.0,2082.0,0.0,0.0,
2032.0,1918.0,2051.0,2109.0,0.0,0.0,
2017.0,1963.0,2051.0,2105.0,0.0,0.0,
2036.0,1997.0,2053.0,2048.0,0.0,0.0,
2041.0,2023.0,2053.0,2055.0,0.0,0.0,
2054.0,1995.0,2054.0,2046.0,0.0,1.0,
2044.0,1996.0,2053.0,2039.0,0.0,0,
2032.0,2015.0,2052.0,2032.0,0.0,1.0,
2037.0,2022.0,2051.0,2032.0,0.0,1.0,
2024.0,2031.0,2049.0,2022.0,0.0,1.0,
2005.0,2033.0,2051.0,2025.0,0.0,1.0,
2016.0,2026.0,2049.0,2023.0,0.0,1.0,
2032.0,2024.0,2051.0,2036.0,0.0,1.0,
2054.0,2025.0,2057.0,2022.0,0.0,1.0,
2037.0,2058.0,2051.0,2028.0,0.0,1.0,
2017.0,2039.0,2053.0,1982.0,0.0,1.0,
1992.0,2020.0,2045.0,1977.0,0.0,1.0,
2019.0,1966.0,2049.0,2048.0,0.0,1.0,
2033.0,1957.0,2050.0,2024.0,0.0,1.0,
2068.0,1942.0,2055.0,2111.0,0.0,1.0,
2092.0,2022.0,2062.0,2049.0,0.0,1.0,
2055.0,1975.0,2060.0,2078.0,0.0,1.0,
2046.0,2001.0,2053.0,2129.0,0.0,1.0,
2008.0,1975.0,2050.0,2075.0,0.0,1.0,
2036.0,1994.0,2053.0,2110.0,0,0,
2006.0,2002.0,2048.0,2062.0,0.0,1.0,
2016.0,2038.0,2049.0,2040.0,0.0,0.0,
2026.0,2053.0,2050.0,2000.0,0.0,0.0,
2043.0,2039.0,2057.0,2006.0,0.0,0.0,
2031.0,2040.0,2053.0,2004.0,0.0,0.0,
2029.0,2038.0,2052.0,2010.0,0.0,0.0,
2018.0,2010.0,2052.0,2023.0,0.0,0.0,
2017.0,2001.0,2050.0,2025.0,0.0,0.0,
2041.0,2013.0,2050.0,2023.0,0.0,0.0,
2032.0,2008.0,2047.0,2014.0,0.0,0.0,
2043.0,2011.0,2052.0,2035.0,0.0,0.0,
2045.0,2003.0,2055.0,2111.0,0.0,0.0,
2010.0,1978.0,2047.0,2085.0,0.0,0.0,
2007.0,2006.0,2049.0,2042.0,0.0,0.0,
2049.0,2008.0,2048.0,2016.0,0.0,0.0,
2027.0,1989.0,2048.0,2024.0,0,0,
2008.0,1998.0,2044.0,2007.0,0.0,0.0,
2044.0,2010.0,2051.0,1977.0,0.0,0.0,
2035.0,1997.0,2053.0,1994.0,0.0,0.0,
2097.0,2017.0,2058.0,2006.0,0.0,0.0,
2027.0,2042.0,2050.0,2041.0,0.0,0.0,
2046.0,2033.0,2053.0,2088.0,0.0,0.0,
2028.0,1938.0,2047.0,2090.0,0.0,0.0,
1980.0,1977.0,2043.0,2092.0,0.0,0.0,
2007.0,2001.0,2055.0,2087.0,0.0,0,
2038.0,1995.0,2050.0,2041.0,0.0,1.0,
2089.0,2030.0,2060.0,2042.0,0.0,1.0,
2077.0,2037.0,2055.0,2014.0,0.0,1.0,
2048.0,2035.0,2053.0,2012.0,0.0,1.0,
2030.0,2050.0,2047.0,2030.0,0.0,1.0,
2010.0,2011.0,2045.0,2034.0,0.0,1.0,
2052.0,1943.0,2050.0,2109.0,0.0,1.0,
2032.0,1976.0,2051.0,2082.0,0.0,1.0,
2012.0,2003.0,2047.0,2081.0,0.0,1.0,
2032.0,2013.0,2053.0,2060.0,0.0,1.0,
2050.0,1994.0,2047.0,1950.0,0.0,1.0,
2022.0,2002.0,2052.0,2053.0,0.0,1.0,
2028.0,2023.0,2054.0,2082.0,0.0,1.0,
2007.0,2013.0,2052.0,2028.0,0.0,1.0,
2006.0,2027.0,2053.0,1978.0,0.0,1.0,
2010.0,2047.0,2049.0,1995.0,0.0,1.0,
2037.0,2050.0,2053.0,2019.0,0.0,1.0,
2045.0,2039.0,2052.0,2022.0,0,0,
2018.0,2028.0,2048.0,2022.0,0.0,0.0,
2024.0,1954.0,2052.0,2047.0,0.0,0.0,
2068.0,1925.0,2050.0,2127.0,0.0,0.0,
2012.0,2029.0,2049.0,2089.0,0.0,0.0,
2019.0,2076.0,2052.0,1930.0,0.0,0.0,
2029.0,2047.0,2053.0,1930.0,0.0,0.0,
2030.0,2013.0,2055.0,2044.0,0.0,0.0,
2065.0,1996.0,2054.0,2105.0,0.0,0.0,
2045.0,1883.0,2053.0,2118.0,0,0,
2047.0,1915.0,2053.0,2070.0,0.0,0.0,
2019.0,2000.0,2050.0,2064.0,0.0,0.0,
2023.0,2033.0,2049.0,2049.0,0.0,0.0,
2040.0,2099.0,2053.0,1951.0,0.0,0.0,
2023.0,2051.0,2050.0,1958.0,0.0,0.0,
2032.0,1984.0,2049.0,2067.0,0.0,0.0,
2064.0,1961.0,2052.0,2129.0,0.0,0.0,
2039.0,1980.0,2050.0,2079.0,0.0,0.0,
2030.0,2036.0,2049.0,2023.0,0.0,0.0,
2012.0,2046.0,2049.0,1928.0,0.0,0.0,
1999.0,2084.0,2045.0,1983.0,0.0,0.0,
2016.0,2077.0,2057.0,2025.0,0.0,0.0,
2014.0,2006.0,2052.0,2110.0,0.0,0.0,
2065.0,1901.0,2054.0,2146.0,0.0,0.0,
2075.0,2012.0,2057.0,2114.0,0.0,0.0,
2056.0,1987.0,2051.0,2023.0,0.0,0.0,
2063.0,1929.0,2050.0,1998.0,0.0,0.0,
2040.0,1987.0,2049.0,2046.0,0.0,0.0,
2011.0,2020.0,2048.0,2044.0,0.0,0.0,
2035.0,2049.0,2053.0,2050.0,0.0,0.0,
2026.0,2058.0,2052.0,2059.0,0.0,0.0,
2008.0,2122.0,2046.0,2060.0,0.0,0.0,
2061.0,2022.0,2054.0,1955.0,0.0,0.0,
2025.0,1960.0,2049.0,1872.0,0.0,0.0,
2000.0,1867.0,2054.0,2096.0,0.0,1.0,
2003.0,2005.0,2049.0,2097.0,0.0,1.0,
2007.0,2032.0,2051.0,2100.0,0.0,1.0,
2057.0,2061.0,2055.0,2107.0,0.0,1.0,
2091.0,1988.0,2054.0,2028.0,0.0,1.0,
2094.0,1973.0,2059.0,1903.0,0.0,1.0,
2030.0,2031.0,2052.0,1905.0,0.0,1.0,
2033.0,2055.0,2057.0,2045.0,0.0,1.0,
1961.0,1958.0,2044.0,2151.0,0.0,1.0,
2000.0,1995.0,2047.0,2084.0,0.0,1.0,
1983.0,2038.0,2042.0,1989.0,0.0,1.0,
2016.0,2123.0,2050.0,1990.0,0.0,1.0,
2058.0,1999.0,2050.0,2088.0,0.0,1.0,
2071.0,1934.0,2055.0,2205.0,0.0,1.0,
2061.0,1995.0,2053.0,2155.0,0.0,1.0,
2039.0,1998.0,2056.0,2077.0,0.0,1.0,
2008.0,1933.0,2051.0,1969.0,0.0,1.0,
2016.0,2010.0,2047.0,1999.0,0.0,1.0,
2017.0,1984.0,2046.0,1997.0,0.0,1.0,
2050.0,2024.0,2063.0,2068.0,0.0,1.0,
2050.0,1998.0,2059.0,2048.0,0.0,1.0,
2038.0,2015.0,2053.0,2017.0,0,0,
2032.0,1990.0,2054.0,2002.0,0.0,1.0,
2028.0,1988.0,2054.0,2044.0,0.0,1.0,
2019.0,2055.0,2049.0,2022.0,0.0,1.0,
2001.0,1981.0,2047.0,2049.0,0.0,1.0,
2033.0,1999.0,2052.0,2040.0,0.0,1.0,
2039.0,2009.0,2050.0,2026.0,0.0,1.0,
2060.0,2096.0,2053.0,2035.0,0.0,1.0,
2057.0,2085.0,2055.0,2008.0,0.0,1.0,
1999.0,1972.0,2045.0,1974.0,0.0,1.0,
1994.0,1987.0,2047.0,2023.0,0.0,1.0,
1999.0,1963.0,2047.0,2068.0,0.0,1.0,
2016.0,2022.0,2053.0,2067.0,0.0,1.0,
2048.0,1980.0,2053.0,2042.0,0.0,1.0,
2081.0,1979.0,2058.0,2006.0,0.0,1.0,
2039.0,1952.0,2052.0,2066.0,0.0,1.0,
2018.0,2000.0,2051.0,2051.0,0.0,1.0,
2000.0,2090.0,2052.0,2108.0,0.0,1.0,
2021.0,2114.0,2053.0,1980.0,0,0,
2027.0,2003.0,2049.0,1997.0,0.0,1.0,
2029.0,1874.0,2051.0,2055.0,0.0,1.0,
2003.0,1996.0,2046.0,2025.0,0.0,1.0,
2024.0,2052.0,2051.0,2110.0,0.0,1.0,
2040.0,2088.0,2050.0,1993.0,0.0,1.0,
2036.0,2082.0,2053.0,2078.0,0.0,0.0,
2056.0,1968.0,2056.0,2079.0,0.0,0.0,
2016.0,2051.0,2048.0,2168.0,0.0,0.0,
2036.0,1978.0,2051.0,2011.0,0.0,0.0,
1989.0,1897.0,2042.0,2012.0,0.0,0.0,
2017.0,1972.0,2045.0,2047.0,0.0,0.0,
2037.0,2010.0,2054.0,2082.0,0.0,0.0,
2036.0,1971.0,2048.0,2045.0,0.0,0.0,
2041.0,1918.0,2056.0,1896.0,0.0,0.0,
2030.0,1987.0,2051.0,1939.0,0.0,0.0,
2023.0,2078.0,2050.0,2053.0,-1.0,0.0,
2004.0,1996.0,2045.0,2094.0,-1.0,0.0,
2036.0,2020.0,2052.0,2096.0,-1.0,0.0,
2037.0,2036.0,2054.0,2032.0,-1.0,0.0,
2036.0,2050.0,2051.0,1999.0,-1.0,0.0,
2015.0,2081.0,2048.0,1946.0,-1.0,0.0,
2033.0,2060.0,2050.0,1946.0,-1.0,0.0,
2059.0,2024.0,2055.0,2005.0,-1.0,0.0,
2000.0,1937.0,2052.0,2126.0,-1.0,0.0,
1994.0,2040.0,2052.0,2139.0,-2.0,0.0,
1996.0,1965.0,2050.0,2160.0,-2.0,0.0,
2055.0,1988.0,2053.0,2052.0,-2.0,0.0,
2062.0,2025.0,2054.0,2077.0,-2.0,0.0,
2028.0,2077.0,2055.0,2059.0,-2.0,0.0,
2046.0,2064.0,2054.0,2019.0,-2.0,0.0,
2039.0,1970.0,2052.0,2031.0,-3.0,0.0,
2053.0,1958.0,2051.0,1988.0,0,0,
2027.0,2019.0,2047.0,2072.0,-3.0,0.0,
2037.0,1975.0,2050.0,2052.0,-3.0,0.0,
2048.0,1921.0,2053.0,2040.0,-3.0,0.0,
2015.0,1959.0,2050.0,2068.0,-3.0,0.0,
2041.0,1982.0,2051.0,1992.0,-3.0,0.0,
2004.0,2009.0,2047.0,2037.0,-3.0,0.0,
2009.0,2061.0,2050.0,2035.0,-3.0,0.0,
2023.0,1922.0,2052.0,1920.0,-4.0,0.0,
2004.0,2002.0,2045.0,2001.0,-4.0,0.0,
2039.0,2025.0,2051.0,2081.0,-4.0,0.0,
2054.0,2008.0,2052.0,2046.0,-4.0,0.0,
2019.0,2058.0,2046.0,2052.0,-4.0,0.0,
2032.0,2112.0,2053.0,2036.0,-5.0,0.0,
2009.0,2019.0,2048.0,2073.0,-5.0,0.0,
1996.0,1999.0,2047.0,2053.0,0,0,
2021.0,2002.0,2049.0,1999.0,-5.0,0.0,
2066.0,2043.0,2056.0,2048.0,-5.0,0.0,
2063.0,2096.0,2056.0,1996.0,-5.0,0.0,
2024.0,2024.0,2047.0,1956.0,-5.0,0.0,
2067.0,2049.0,2055.0,1994.0,-5.0,0.0,
2041.0,1996.0,2050.0,2078.0,-6.0,0.0,
1991.0,1934.0,2047.0,2057.0,-6.0,-1.0,
2005.0,1898.0,2051.0,2131.0,-6.0,-1.0,
2011.0,1912.0,2049.0,2069.0,0,0,
2093.0,2012.0,2056.0,1979.0,-6.0,-1.0,
2074.0,2063.0,2054.0,2060.0,-6.0,-1.0,
2049.0,1988.0,2054.0,2041.0,-6.0,-1.0,
2041.0,2004.0,2055.0,2073.0,-6.0,-1.0,
1995.0,2040.0,2050.0,2064.0,-7.0,-1.0,
2001.0,2006.0,2050.0,2090.0,-7.0,-1.0,
2026.0,2063.0,2052.0,2079.0,-7.0,-1.0,
2006.0,2055.0,2046.0,2167.0,-7.0,-1.0,
2019.0,1933.0,2049.0,1994.0,-7.0,-1.0,
2029.0,1987.0,2058.0,1957.0,-7.0,-1.0,
2016.0,1990.0,2054.0,1938.0,-7.0,-1.0,
2040.0,1980.0,2059.0,2057.0,-7.0,-1.0,
2054.0,1971.0,2053.0,2075.0,-7.0,-1.0,
2049.0,2062.0,2048.0,2034.0,-8.0,-1.0,
2031.0,2109.0,2051.0,1968.0,-8.0,0.0,
2025.0,2045.0,2052.0,2063.0,-8.0,0.0,
2030.0,1988.0,2050.0,2031.0,-8.0,0.0,
2054.0,1929.0,2057.0,2010.0,-8.0,0.0,
2046.0,1964.0,2055.0,2038.0,-8.0,0.0,
2024.0,2062.0,2050.0,2042.0,-8.0,0.0,
2007.0,2066.0,2049.0,2134.0,-9.0,0.0,
1981.0,2066.0,2040.0,2023.0,-9.0,0.0,
2008.0,2028.0,2052.0,2017.0,-9.0,0.0,
2030.0,1997.0,2050.0,1948.0,-9.0,0.0,
2066.0,1917.0,2062.0,2057.0,-9.0,0.0,
2069.0,1940.0,2052.0,2005.0,-9.0,0.0,
2053.0,1939.0,2055.0,2136.0,-9.0,1.0,
2053.0,2017.0,2052.0,2254.0,-10.0,0.0,
1952.0,2107.0,2034.0,1916.0,-10.0,0.0,
2018.0,2049.0,2044.0,1832.0,-10.0,0.0,
2035.0,1973.0,2052.0,1948.0,-10.0,0.0,
2012.0,1919.0,2048.0,2104.0,-10.0,0.0,
2027.0,2021.0,2052.0,2166.0,-10.0,0.0,
2010.0,2028.0,2048.0,2072.0,-10.0,0.0,
2064.0,2006.0,2054.0,2086.0,-10.0,0.0,
2082.0,2057.0,2052.0,2117.0,-10.0,0.0,
2050.0,1992.0,2051.0,1985.0,-11.0,0.0,
2042.0,2003.0,2052.0,2036.0,-11.0,0.0,
2012.0,2058.0,2049.0,1998.0,-11.0,0.0,
2035.0,2045.0,2052.0,2084.0,-11.0,0.0,
2044.0,2017.0,2051.0,2082.0,-11.0,0.0,
2059.0,1921.0,2050.0,1996.0,-11.0,0.0,
2030.0,1971.0,2050.0,2026.0,-11.0,0.0,
2021.0,1982.0,2056.0,2010.0,-11.0,0.0,
2021.0,1989.0,2055.0,2003.0,-11.0,0.0,
2022.0,2014.0,2053.0,2025.0,-11.0,0.0,
2025.0,2058.0,2051.0,2046.0,-12.0,0.0,
2047.0,2051.0,2057.0,1999.0,-12.0,0.0,
2040.0,2059.0,2058.0,1977.0,-12.0,0.0,
2022.0,2030.0,2050.0,2042.0,-12.0,0.0,
2004.0,2007.0,2046.0,2039.0,-12.0,0.0,
2028.0,2030.0,2053.0,2144.0,-12.0,0.0,
2036.0,2082.0,2051.0,2023.0,-12.0,0.0,
2019.0,1987.0,2050.0,2072.0,-12.0,0.0,
2028.0,1971.0,2052.0,2023.0,-13.0,0.0,
2014.0,1903.0,2055.0,2070.0,-13.0,1.0,
2049.0,2018.0,2058.0,2135.0,-13.0,1.0,
2001.0,1897.0,2051.0,2136.0,-13.0,1.0,
2064.0,1936.0,2055.0,1986.0,-13.0,1.0,
2023.0,1958.0,2051.0,2008.0,-13.0,1.0,
2023.0,2043.0,2042.0,2072.0,-13.0,1.0,
1994.0,2068.0,2042.0,1956.0,-13.0,1.0,
2063.0,2072.0,2047.0,2028.0,-13.0,1.0,
2040.0,2105.0,2052.0,2041.0,-13.0,1.0,
2006.0,2019.0,2049.0,2056.0,-13.0,1.0,
2048.0,1950.0,2051.0,2014.0,-13.0,1.0,
2049.0,1904.0,2055.0,2101.0,-14.0,1.0,
2057.0,2028.0,2052.0,1911.0,-14.0,1.0,
2043.0,2073.0,2050.0,2112.0,-14.0,1.0,
2018.0,1978.0,2047.0,2010.0,-14.0,1.0,
2017.0,1955.0,2048.0,2062.0,-14.0,1.0,
2035.0,1978.0,2056.0,2068.0,-14.0,1.0,
1999.0,2012.0,2048.0,2045.0,-14.0,0.0,
2049.0,2102.0,2053.0,1973.0,-14.0,1.0,
2059.0,2053.0,2050.0,1973.0,-14.0,1.0,
2045.0,1964.0,2052.0,2073.0,-14.0,1.0,
2010.0,1972.0,2050.0,2063.0,-14.0,1.0,
2025.0,1984.0,2051.0,2036.0,-14.0,1.0,
2043.0,1935.0,2056.0,2030.0,-14.0,1.0,
2036.0,1989.0,2051.0,2189.0,-14.0,1.0,
2040.0,2105.0,2052.0,1966.0,-14.0,1.0,
2030.0,2060.0,2045.0,2015.0,-14.0,1.0,
1992.0,1930.0,2047.0,2091.0,-15.0,1.0,
1994.0,1996.0,2049.0,2025.0,-15.0,1.0,
2013.0,1985.0,2049.0,2013.0,-15.0,1.0,
1989.0,2023.0,2049.0,2027.0,-15.0,1.0,
2053.0,2023.0,2055.0,2026.0,-15.0,1.0,
2052.0,2057.0,2052.0,2069.0,-15.0,1.0,
2028.0,1973.0,2050.0,2037.0,-15.0,1.0,
2040.0,2006.0,2055.0,2053.0,-15.0,1.0,
2026.0,1983.0,2050.0,2072.0,-15.0,1.0,
2012.0,2011.0,2043.0,2041.0,-15.0,1.0,
2028.0,2009.0,2050.0,2011.0,-15.0,1.0,
2026.0,2057.0,2051.0,2069.0,-15.0,1.0,
2043.0,2024.0,2054.0,2078.0,-15.0,1.0,
2016.0,1954.0,2051.0,2023.0,-15.0,1.0,
2042.0,1953.0,2056.0,1980.0,-15.0,1.0,
2062.0,2037.0,2054.0,1959.0,-16.0,1.0,
2036.0,2056.0,2054.0,1982.0,-16.0,1.0,
1990.0,1997.0,2046.0,2063.0,0,0,
2045.0,2047.0,2055.0,2150.0,-16.0,1.0,
2036.0,2044.0,2055.0,2076.0,-16.0,1.0,
2043.0,1984.0,2054.0,1967.0,-16.0,1.0,
2053.0,1902.0,2059.0,1959.0,-16.0,1.0,
2050.0,1966.0,2058.0,1986.0,-16.0,1.0,
2018.0,2019.0,2053.0,2056.0,0,0,
2016.0,1977.0,2047.0,2161.0,-16.0,1.0,
2020.0,2086.0,2046.0,2050.0,-16.0,1.0,
1996.0,1970.0,2043.0,2035.0,-16.0,1.0,
2040.0,2098.0,2055.0,2064.0,-16.0,1.0,
2012.0,1947.0,2052.0,2105.0,-16.0,1.0,
2053.0,1997.0,2057.0,1984.0,-16.0,1.0,
2057.0,1967.0,2048.0,2066.0,-16.0,1.0,
2032.0,1973.0,2050.0,2034.0,-16.0,1.0,
2069.0,1847.0,2054.0,2042.0,-16.0,1.0,
2042.0,1919.0,2052.0,2078.0,-16.0,1.0,
2029.0,2076.0,2051.0,2003.0,-16.0,1.0,
2045.0,2011.0,2053.0,2109.0,-16.0,1.0,
2038.0,2097.0,2053.0,2104.0,-16.0,1.0,
2040.0,2051.0,2054.0,2081.0,-16.0,1.0,
2019.0,2026.0,2051.0,2053.0,-16.0,1.0,
2005.0,2011.0,2052.0,2005.0,-16.0,1.0,
2012.0,2040.0,2049.0,1980.0,-16.0,1.0,
2030.0,2015.0,2069.0,2045.0,-16.0,1.0,
2038.0,2017.0,2053.0,1993.0,-16.0,1.0,
2029.0,2050.0,2052.0,1972.0,-16.0,1.0,
2019.0,2052.0,2046.0,1984.0,-16.0,1.0,
2015.0,1985.0,2051.0,2011.0,-16.0,1.0,
2019.0,1998.0,2054.0,2087.0,-17.0,1.0,
2015.0,1965.0,2050.0,2105.0,-17.0,1.0,
2027.0,1970.0,2056.0,1998.0,-17.0,1.0,
2038.0,2026.0,2054.0,2048.0,-17.0,1.0,
2051.0,2005.0,2057.0,2121.0,-17.0,1.0,
2045.0,2049.0,2055.0,1981.0,-17.0,1.0,
2051.0,2071.0,2056.0,1888.0,-17.0,1.0,
2029.0,1965.0,2064.0,2028.0,-17.0,1.0,
2020.0,1886.0,2049.0,2170.0,-17.0,1.0,
2028.0,1988.0,2048.0,2086.0,-17.0,1.0,
1989.0,2054.0,2040.0,2059.0,-17.0,1.0,
2011.0,2051.0,2048.0,1974.0,-17.0,1.0,
2040.0,2042.0,2061.0,2074.0,-17.0,1.0,
2034.0,2051.0,2052.0,2070.0,-17.0,1.0,
2060.0,2026.0,2057.0,1991.0,-17.0,1.0,
2011.0,1986.0,2051.0,1880.0,-17.0,1.0,
1975.0,2012.0,2042.0,2029.0,-17.0,1.0,
2004.0,1969.0,2050.0,2121.0,-17.0,1.0,
2000.0,1985.0,2048.0,2047.0,-17.0,1.0,
2047.0,1986.0,2050.0,2028.0,-17.0,1.0,
2060.0,1970.0,2060.0,1982.0,-17.0,1.0,
2030.0,1999.0,2050.0,2089.0,-17.0,1.0,
2067.0,2086.0,2052.0,2169.0,-17.0,1.0,
2032.0,2015.0,2049.0,2038.0,-17.0,1.0,
2050.0,2013.0,2053.0,2072.0,-17.0,1.0,
2026.0,1893.0,2051.0,2156.0,-17.0,0,
2040.0,2035.0,2045.0,2035.0,-17.0,1.0,
2031.0,1971.0,2053.0,1972.0,-17.0,1.0,
2079.0,1962.0,2059.0,2008.0,-17.0,1.0,
2038.0,1991.0,2053.0,1962.0,-17.0,1.0,
1983.0,2092.0,2044.0,1991.0,-17.0,1.0,
1960.0,2047.0,2045.0,2064.0,-17.0,1.0,
1961.0,2030.0,2045.0,1955.0,-17.0,1.0,
2041.0,2004.0,2044.0,2123.0,-17.0,1.0,
2081.0,1943.0,2054.0,2149.0,-17.0,1.0,
2077.0,2019.0,2061.0,2190.0,-17.0,1.0,
2038.0,2067.0,2053.0,2060.0,-17.0,1.0,
2036.0,1997.0,2055.0,1949.0,-17.0,1.0,
2105.0,1936.0,2062.0,2059.0,-17.0,1.0,
2037.0,1915.0,2055.0,2056.0,-17.0,1.0,
1984.0,2064.0,2044.0,2015.0,-17.0,1.0,
1999.0,2102.0,2050.0,1925.0,-17.0,1.0,
2030.0,2030.0,2048.0,1908.0,-17.0,1.0,
1976.0,1978.0,2045.0,1986.0,-17.0,1.0,
2034.0,1985.0,2060.0,2117.0,-17.0,1.0,
2038.0,1975.0,2059.0,2122.0,-17.0,1.0,
2043.0,2014.0,2057.0,2027.0,-17.0,1.0,
2069.0,1996.0,2056.0,2118.0,-17.0,1.0,
2019.0,1968.0,2049.0,2081.0,-17.0,1.0,
2022.0,2004.0,2049.0,2105.0,-17.0,1.0,
2030.0,2000.0,2047.0,2050.0,0,0,
2050.0,1996.0,2056.0,1947.0,-17.0,1.0,
2056.0,2038.0,2057.0,2038.0,-17.0,1.0,
2013.0,2134.0,2046.0,2010.0,-17.0,1.0,
2019.0,2017.0,2047.0,2004.0,-17.0,1.0,
2011.0,1990.0,2048.0,2003.0,-17.0,1.0,
2011.0,2003.0,2046.0,2028.0,-17.0,1.0,
2031.0,1954.0,2050.0,2082.0,-17.0,1.0,
2036.0,2037.0,2051.0,2036.0,-18.0,1.0,
2057.0,2042.0,2057.0,1996.0,-18.0,1.0,
2040.0,2035.0,2053.0,2023.0,-18.0,1.0,
2015.0,1872.0,2050.0,2069.0,-18.0,1.0,
1982.0,2071.0,2044.0,2138.0,-18.0,1.0,
2015.0,2104.0,2052.0,2041.0,-18.0,1.0,
2013.0,2013.0,2053.0,2037.0,-18.0,1.0,
2040.0,1887.0,2056.0,2041.0,-18.0,1.0,
2061.0,2038.0,2061.0,2055.0,-18.0,1.0,
1993.0,2024.0,2046.0,1970.0,-18.0,1.0,
1972.0,2097.0,2044.0,1838.0,-18.0,1.0,
2058.0,2067.0,2053.0,2026.0,-18.0,1.0,
2053.0,1952.0,2048.0,2121.0,-18.0,0,
2038.0,2036.0,2050.0,1920.0,-18.0,1.0,
1987.0,2029.0,2043.0,2062.0,-18.0,1.0,
1991.0,1933.0,2046.0,2239.0,-18.0,1.0,
2020.0,1905.0,2050.0,2138.0,-18.0,1.0,
2077.0,1828.0,2058.0,2101.0,-18.0,1.0,
2101.0,1979.0,2060.0,1974.0,0,0,
2064.0,2276.0,2052.0,2100.0,-18.0,1.0,
1991.0,2016.0,2049.0,2167.0,-18.0,1.0,
1961.0,1871.0,2043.0,2151.0,-18.0,1.0,
2028.0,2013.0,2052.0,1926.0,-18.0,1.0,
2048.0,2058.0,2057.0,1959.0,-18.0,1.0,
2042.0,2065.0,2055.0,2138.0,-18.0,1.0,
1995.0,2059.0,2044.0,2058.0,-18.0,1.0,
2030.0,1926.0,2032.0,1909.0,-18.0,1.0,
2047.0,1994.0,2056.0,1984.0,-18.0,1.0,
2054.0,1985.0,2054.0,2032.0,-18.0,1.0,
2038.0,2008.0,2050.0,2007.0,-18.0,1.0,
2044.0,1970.0,2053.0,1963.0,-18.0,1.0,
2047.0,2015.0,2052.0,2019.0,-18.0,1.0,
2047.0,2019.0,2053.0,2106.0,-18.0,0,
2053.0,1971.0,2051.0,2046.0,-18.0,1.0,
2040.0,1996.0,2048.0,1960.0,-18.0,1.0,
2030.0,2049.0,2049.0,1970.0,-19.0,1.0,
2014.0,2046.0,2043.0,2031.0,-19.0,1.0,
2011.0,2009.0,2045.0,2038.0,-19.0,1.0,
2033.0,2015.0,2052.0,2048.0,-19.0,1.0,
2052.0,2024.0,2058.0,2052.0,-19.0,1.0,
2038.0,2010.0,2053.0,2050.0,-19.0,1.0,
2040.0,2021.0,2054.0,2022.0,-19.0,1.0,
2029.0,2036.0,2053.0,2007.0,-19.0,1.0,
2010.0,2043.0,2052.0,2044.0,-19.0,1.0,
2013.0,2010.0,2052.0,2094.0,-19.0,1.0,
1994.0,1970.0,2049.0,2045.0,-19.0,1.0,
2007.0,1995.0,2051.0,2007.0,-19.0,1.0,
2053.0,2025.0,2059.0,2086.0,-19.0,1.0,
2028.0,2040.0,2053.0,2064.0,-19.0,1.0,
2006.0,1936.0,2048.0,2129.0,-19.0,1.0,
2025.0,2009.0,2058.0,2099.0,-19.0,1.0,
2041.0,2020.0,2054.0,1875.0,-19.0,1.0,
2048.0,1967.0,2059.0,2032.0,-19.0,1.0,
2021.0,1968.0,2046.0,2173.0,-19.0,1.0,
2054.0,1990.0,2054.0,2195.0,-19.0,1.0,
2077.0,2020.0,2059.0,2101.0,-19.0,1.0,
2064.0,2084.0,2062.0,2031.0,-19.0,1.0,
2019.0,1990.0,2055.0,1938.0,0,0,
2038.0,1970.0,2052.0,1942.0,-19.0,0.0,
2026.0,1950.0,2050.0,2009.0,-19.0,0.0,
2024.0,2000.0,2048.0,2083.0,-19.0,0.0,
2006.0,2018.0,2046.0,2167.0,-20.0,0.0,
2013.0,2121.0,2045.0,2122.0,-20.0,0.0,
2060.0,2048.0,2053.0,1890.0,-20.0,0.0,
2084.0,2030.0,2057.0,1916.0,-20.0,0.0,
2054.0,2110.0,2057.0,1973.0,-20.0,0.0,
1988.0,2044.0,2043.0,1974.0,0,0,
1980.0,1935.0,2042.0,1992.0,-20.0,0.0,
2013.0,1948.0,2048.0,2112.0,-20.0,0.0,
2039.0,1917.0,2052.0,2032.0,-20.0,0.0,
2022.0,2001.0,2050.0,1952.0,-20.0,0.0,
2062.0,2031.0,2052.0,2104.0,-20.0,0.0,
2016.0,2004.0,2050.0,2135.0,-20.0,0.0,
2048.0,2045.0,2051.0,2080.0,-20.0,0.0,
1963.0,1949.0,2041.0,1928.0,-20.0,0.0,
2060.0,1906.0,2053.0,2162.0,-20.0,0.0,
2033.0,2005.0,2052.0,2092.0,-20.0,0.0,
2075.0,2081.0,2059.0,2035.0,-20.0,0.0,
2059.0,2052.0,2055.0,2055.0,-20.0,1.0,
2035.0,1919.0,2050.0,2110.0,0,0,
2015.0,1981.0,2054.0,2002.0,-20.0,1.0,
2001.0,2024.0,2048.0,2010.0,-20.0,1.0,
2005.0,2025.0,2050.0,2055.0,-20.0,1.0,
2004.0,2021.0,2050.0,2062.0,-20.0,1.0,
2003.0,2049.0,2044.0,1923.0,-20.0,1.0,
2032.0,2063.0,2050.0,2007.0,-20.0,1.0,
2020.0,2026.0,2051.0,2013.0,-20.0,1.0,
2026.0,1979.0,2051.0,2100.0,-20.0,1.0,
2025.0,2009.0,2056.0,2032.0,-20.0,1.0,
1996.0,1979.0,2046.0,1990.0,-20.0,1.0,
2012.0,2019.0,2050.0,1992.0,-20.0,1.0,
2043.0,2021.0,2051.0,2043.0,-20.0,1.0,
2018.0,2006.0,2051.0,2054.0,-20.0,1.0,
2053.0,1980.0,2056.0,2062.0,-20.0,0.0,
2048.0,1984.0,2053.0,2055.0,-20.0,0.0,
2043.0,2027.0,2056.0,1995.0,-20.0,0.0,
2038.0,2019.0,2052.0,1970.0,0,0,
2023.0,2099.0,2050.0,2140.0,-20.0,0.0,
2011.0,2059.0,2047.0,2200.0,-20.0,0.0,
2030.0,1909.0,2050.0,2079.0,-20.0,0.0,
1997.0,1978.0,2047.0,1946.0,-20.0,0.0,
2024.0,1972.0,2056.0,2092.0,-20.0,0.0,
2024.0,2025.0,2055.0,2008.0,-20.0,0.0,
2021.0,2055.0,2050.0,1976.0,-20.0,0.0,
2045.0,2055.0,2050.0,1937.0,-20.0,0.0,
2010.0,1858.0,2048.0,2286.0,-21.0,0.0,
2006.0,1998.0,2051.0,2059.0,-21.0,0.0,
1988.0,2037.0,2046.0,1988.0,-21.0,0.0,
2012.0,2057.0,2056.0,1963.0,-21.0,0.0,
2023.0,2017.0,2053.0,2001.0,-21.0,0.0,
2048.0,2025.0,2055.0,2047.0,-21.0,0.0,
2050.0,1913.0,2054.0,2126.0,-21.0,0.0,
2022.0,2013.0,2054.0,2063.0,-21.0,0.0,
2045.0,2047.0,2056.0,2030.0,-21.0,0.0,
2028.0,1990.0,2048.0,2026.0,-21.0,0.0,
2020.0,1937.0,2048.0,1960.0,-21.0,0.0,
2045.0,2046.0,2057.0,2075.0,-21.0,0.0,
2067.0,2128.0,2061.0,1926.0,-21.0,0.0,
2063.0,2121.0,2050.0,1947.0,-21.0,0.0,
2010.0,1787.0,2043.0,2190.0,-21.0,0.0,
2028.0,1912.0,2058.0,2190.0,-21.0,0.0,
2040.0,2043.0,2049.0,1943.0,0,0,
2043.0,2022.0,2052.0,1947.0,-21.0,0.0,
2048.0,1948.0,2048.0,2178.0,-21.0,0.0,
2025.0,1988.0,2053.0,2080.0,-21.0,0.0,
2064.0,2021.0,2060.0,2040.0,-21.0,0.0,
2006.0,2036.0,2050.0,2032.0,-21.0,1.0,
2007.0,2094.0,2047.0,2017.0,-21.0,1.0,
2015.0,2032.0,2048.0,2042.0,-21.0,1.0,
2014.0,1999.0,2050.0,2083.0,-21.0,1.0,
2014.0,2012.0,2047.0,1998.0,-21.0,1.0,
2042.0,2000.0,2054.0,2016.0,-21.0,1.0,
2047.0,2007.0,2056.0,2014.0,-21.0,1.0,
2025.0,2006.0,2051.0,1996.0,-21.0,1.0,
2027.0,2017.0,2051.0,2032.0,-21.0,1.0,
2021.0,2025.0,2053.0,2053.0,-21.0,1.0,
2028.0,1992.0,2051.0,2000.0,-21.0,1.0,
2010.0,1999.0,2052.0,2034.0,-21.0,1.0,
2036.0,1971.0,2054.0,2085.0,-21.0,1.0,
2018.0,2016.0,2056.0,2082.0,-21.0,1.0,
2051.0,2040.0,2058.0,2010.0,-21.0,1.0,
2027.0,2025.0,2052.0,2015.0,-21.0,1.0,
2025.0,2027.0,2050.0,2030.0,-21.0,1.0,
2034.0,2011.0,2053.0,2068.0,-21.0,1.0,
2039.0,2027.0,2052.0,2036.0,-21.0,1.0,
2011.0,1987.0,2045.0,2013.0,-21.0,1.0,
2035.0,1976.0,2057.0,2078.0,-21.0,1.0,
2024.0,2024.0,2052.0,2102.0,-21.0,1.0,
2052.0,2040.0,2058.0,2032.0,-21.0,1.0,
2025.0,1992.0,2053.0,1957.0,-21.0,1.0,
2026.0,2033.0,2053.0,1989.0,-21.0,1.0,
1995.0,2082.0,2046.0,1880.0,-21.0,1.0,
2080.0,2120.0,2060.0,2074.0,-21.0,1.0,
2018.0,1949.0,2047.0,2031.0,-21.0,1.0,
2002.0,1748.0,2044.0,2159.0,-21.0,1.0,
2022.0,1895.0,2051.0,2245.0,-21.0,1.0,
2044.0,2029.0,2051.0,2234.0,-21.0,0,
2057.0,2038.0,2055.0,1848.0,-21.0,1.0,
1994.0,1964.0,2045.0,1982.0,-21.0,1.0,
2068.0,2050.0,2054.0,2102.0,-21.0,1.0,
2015.0,2081.0,2050.0,2117.0,-21.0,1.0,
2036.0,2065.0,2048.0,2063.0,-21.0,1.0,
2039.0,1978.0,2053.0,2009.0,-21.0,1.0,
2048.0,1896.0,2053.0,2173.0,-21.0,1.0,
2087.0,2025.0,2048.0,2140.0,-21.0,1.0,
2055.0,2131.0,2060.0,1869.0,-21.0,1.0,
2042.0,2126.0,2060.0,1939.0,-21.0,1.0,
2005.0,1849.0,2047.0,1987.0,-21.0,1.0,
2025.0,2074.0,2053.0,2106.0,-21.0,1.0,
2001.0,2084.0,2042.0,2066.0,-21.0,1.0,
2051.0,1886.0,2052.0,2139.0,-21.0,1.0,
2032.0,1934.0,2049.0,1907.0,-21.0,1.0,
2018.0,2028.0,2046.0,1980.0,-21.0,1.0,
2016.0,2046.0,2050.0,2028.0,-21.0,1.0,
2010.0,2056.0,2048.0,1993.0,-21.0,1.0,
2030.0,2048.0,2053.0,2033.0,-21.0,1.0,
2001.0,1947.0,2048.0,2050.0,-21.0,1.0,
2057.0,1987.0,2053.0,2021.0,-21.0,1.0,
2041.0,2007.0,2059.0,2039.0,-21.0,1.0,
2042.0,2028.0,2057.0,2063.0,-21.0,1.0,
2039.0,2047.0,2056.0,2026.0,-21.0,1.0,
2026.0,1977.0,2056.0,2047.0,-21.0,1.0,
2033.0,1967.0,2055.0,2057.0,-21.0,1.0,
2020.0,1969.0,2048.0,2046.0,-21.0,1.0,
2017.0,2022.0,2048.0,2038.0,-21.0,1.0,
2027.0,2027.0,2053.0,2044.0,-21.0,1.0,
2024.0,2020.0,2051.0,2047.0,-21.0,1.0,
2064.0,2019.0,2055.0,2036.0,-21.0,1.0,
2049.0,2030.0,2056.0,2040.0,-21.0,1.0,
2033.0,1988.0,2050.0,2026.0,-21.0,1.0,
1994.0,2011.0,2047.0,2025.0,-21.0,1.0,
2027.0,2046.0,2050.0,2067.0,-21.0,1.0,
2011.0,1995.0,2049.0,2085.0,-21.0,1.0,
2038.0,2010.0,2057.0,2095.0,-21.0,1.0,
2032.0,2024.0,2054.0,1953.0,-21.0,1.0,
2033.0,2016.0,2053.0,2016.0,-21.0,1.0,
2053.0,2034.0,2052.0,2022.0,-21.0,1.0,
2034.0,2039.0,2052.0,2025.0,-21.0,1.0,
2002.0,2011.0,2048.0,2060.0,-21.0,1.0,
2027.0,1976.0,2051.0,2148.0,-21.0,1.0,
2027.0,2039.0,2047.0,2036.0,-21.0,1.0,
2063.0,1913.0,2058.0,1937.0,-21.0,1.0,
2032.0,2011.0,2053.0,2016.0,-21.0,1.0,
2022.0,2127.0,2052.0,1963.0,-21.0,1.0,
2031.0,1883.0,2052.0,2014.0,-21.0,1.0,
2021.0,1998.0,2049.0,2145.0,-21.0,1.0,
1972.0,1978.0,2037.0,2214.0,-21.0,1.0,
2019.0,1966.0,2048.0,2149.0,-21.0,1.0,
2040.0,2007.0,2053.0,2028.0,-21.0,1.0,
2017.0,2009.0,2049.0,1869.0,-21.0,1.0,
2037.0,2037.0,2050.0,2025.0,-21.0,1.0,
2055.0,2087.0,2053.0,2025.0,-21.0,1.0,
2012.0,2042.0,2046.0,2027.0,-21.0,1.0,
2010.0,1978.0,2048.0,2023.0,-21.0,1.0,
2022.0,1913.0,2047.0,2070.0,-21.0,1.0,
2048.0,1954.0,2045.0,2091.0,-21.0,1.0,
2041.0,2085.0,2048.0,2063.0,-21.0,1.0,
2012.0,2020.0,2051.0,2031.0,-21.0,1.0,
1999.0,2005.0,2050.0,1981.0,-21.0,1.0,
2115.0,1974.0,2059.0,2054.0,-21.0,1.0,
2089.0,2025.0,2054.0,2056.0,-21.0,1.0,
2057.0,2058.0,2056.0,2101.0,-21.0,1.0,
2032.0,1884.0,2047.0,2053.0,-21.0,1.0,
1993.0,1966.0,2051.0,1937.0,-21.0,1.0,
2018.0,2060.0,2054.0,2038.0,-21.0,1.0,
2025.0,2020.0,2048.0,1968.0,-21.0,1.0,
