24
100 1
0.000019	0.021782	0.187649	0.138715	0.013677	0.131464	0.128619	0.225920	0.193556	0.064484	0.233356	0.088513	0.031537	0.130029	0.155549	0.029162	0.087473	0.146637	0.284409	0.231674	0.016514	0.078927	0.177993	0.072885	0.068259	0.105783	0.205253	0.145506	0.135046	0.045593	0.026264	0.291682	0.280952	0.097263	0.003039	0.058954	0.188839	0.218695	0.217671	0.384858	0.351056	0.312763	0.019367	0.244082	0.105043	0.055162	0.234207	0.053253	0.193668	0.067058	0.128457	0.028856	0.260647	0.454917	0.142586	0.103825	0.112229	0.086157	0.170076	0.072622	0.293803	0.240875	0.156002	0.290859	0.099976	0.270739	0.133017	0.032039	0.046869	0.245343	0.105100	0.008327	0.107420	0.133979	0.058858	0.225544	0.084427	0.026185	0.119227	0.016623	0.270849	0.292222	0.178580	0.140214	0.018271	0.089622	0.006585	0.045358	0.119810	0.193351	0.104248	0.051750	0.390880	0.060904	0.226123	0.089445	0.004646	0.074064	0.000157	0.242440	
100 1
0.000020	0.068615	0.061154	0.059902	0.059566	0.059397	0.059257	0.059120	0.058984	0.058872	0.059879	0.061052	0.062236	0.063422	0.064608	0.065795	0.066981	0.068168	0.069577	0.073159	0.076755	0.080353	0.083953	0.087553	0.091153	0.094753	0.098353	0.102551	0.108539	0.114466	0.120385	0.126302	0.132219	0.138135	0.144052	0.149969	0.156083	0.162408	0.168728	0.175048	0.181368	0.187687	0.194007	0.200326	0.206643	0.212204	0.217490	0.222768	0.228046	0.233323	0.238600	0.243877	0.249154	0.254406	0.258989	0.263511	0.268028	0.272544	0.277060	0.281575	0.286091	0.290606	0.294989	0.298488	0.301997	0.305508	0.309019	0.312529	0.316040	0.319551	0.323062	0.326610	0.330241	0.333869	0.337496	0.341124	0.344751	0.348379	0.352006	0.355633	0.359144	0.362564	0.365985	0.369406	0.372827	0.376248	0.379668	0.383089	0.386512	0.390067	0.393657	0.397248	0.400840	0.404432	0.408023	0.411615	0.415207	0.418838	0.423169	0.427532	
100 1
0.311029	0.096257	0.178014	0.267838	0.305700	0.290168	0.208407	0.080817	0.255238	0.150373	0.172234	0.323310	0.374962	0.086099	0.242337	0.136368	0.143999	0.037113	0.020706	0.255491	0.072941	0.047860	0.048609	0.246505	0.094767	0.150115	0.167678	0.034497	0.146267	0.218213	0.453868	0.346374	0.411531	0.288019	0.162560	0.016449	0.104009	0.229290	0.109716	0.072722	0.397493	0.409188	0.010918	0.049995	0.142765	0.119874	0.103241	0.157838	0.080964	0.325142	0.256676	0.312820	0.301022	0.070045	0.013278	0.132535	0.200843	0.145802	0.451244	0.260215	0.026324	0.303711	0.317863	0.310923	0.266721	0.009213	0.099829	0.369117	0.277039	0.421333	0.415273	0.544954	0.320108	0.039618	0.063579	0.091231	0.146290	0.145678	0.052194	0.130321	0.039409	0.391393	0.157551	0.010491	0.154869	0.141178	0.759779	0.460233	0.094156	0.001443	0.043996	0.189556	0.596266	0.133451	0.002835	0.150335	0.084086	0.015714	0.211505	0.103089	
100 1
0.431898	0.436265	0.440632	0.445000	0.449367	0.453735	0.458183	0.463013	0.467833	0.472652	0.477471	0.482290	0.487108	0.491927	0.496745	0.501270	0.505324	0.509393	0.513463	0.517534	0.521606	0.525677	0.529748	0.533819	0.537308	0.540465	0.543620	0.546775	0.549930	0.553086	0.556241	0.559396	0.562553	0.565858	0.569188	0.572519	0.575851	0.579182	0.582514	0.585846	0.589177	0.592470	0.595336	0.598194	0.601052	0.603909	0.606766	0.609623	0.612480	0.615337	0.618088	0.620481	0.622886	0.625293	0.627700	0.630107	0.632514	0.634921	0.637328	0.639719	0.642092	0.644465	0.646839	0.649212	0.651586	0.653959	0.656332	0.658706	0.661156	0.663636	0.666118	0.668599	0.671081	0.673562	0.676044	0.678526	0.681003	0.683331	0.685644	0.687955	0.690266	0.692577	0.694887	0.697198	0.699509	0.701803	0.703969	0.706137	0.708304	0.710471	0.712639	0.714806	0.716973	0.719141	0.721501	0.724333	0.727150	0.729963	0.732776	0.735589	
100 1
0.335925	0.232300	0.361244	0.353416	0.462192	0.153027	0.581831	0.137554	0.266332	0.565907	0.580182	0.245404	0.270658	0.229982	0.389597	0.036512	0.540489	0.273989	0.254531	0.199968	0.650364	0.813313	0.037840	0.452385	0.055165	0.252538	0.357321	0.194353	0.412759	0.532780	0.245522	0.136566	0.173015	0.023383	0.016449	0.413950	0.741481	0.380233	0.134358	0.189483	0.011449	0.047325	0.146375	0.037045	0.177326	0.145884	0.042594	0.127314	0.189946	0.185463	0.087941	0.097283	0.013842	0.026773	0.128321	0.210482	0.403122	0.073682	0.126394	0.011356	0.079715	0.008123	0.082840	0.104045	0.159951	0.081826	0.118160	0.179341	0.105615	0.144789	0.018067	0.147742	0.003924	0.191474	0.029033	0.126763	0.040806	0.054356	0.019630	0.029064	0.041979	0.096195	0.376289	0.262745	0.286091	0.127091	0.048983	0.008307	0.034977	0.015638	0.020719	0.016025	0.019665	0.093252	0.081670	0.136921	0.053569	0.070551	0.053081	0.015599	
100 1
0.738403	0.741216	0.744028	0.746352	0.748247	0.750148	0.752050	0.753953	0.755855	0.757757	0.759660	0.761557	0.762793	0.763835	0.764870	0.765903	0.766937	0.767970	0.769003	0.770036	0.770993	0.770409	0.769731	0.769042	0.768352	0.767662	0.766971	0.766280	0.765590	0.763951	0.757281	0.750718	0.744169	0.737622	0.731075	0.724528	0.717980	0.711433	0.702284	0.688475	0.674814	0.661178	0.647547	0.633918	0.620288	0.606659	0.593028	0.577206	0.559984	0.542761	0.525538	0.508316	0.491094	0.473871	0.456649	0.439477	0.425979	0.413212	0.400486	0.387767	0.375050	0.362333	0.349617	0.336900	0.324493	0.316112	0.307838	0.299577	0.291319	0.283062	0.274805	0.266548	0.258291	0.250343	0.243558	0.236738	0.229913	0.223088	0.216262	0.209437	0.202611	0.195786	0.189452	0.183768	0.178068	0.172364	0.166660	0.160955	0.155251	0.149546	0.143843	0.138572	0.133502	0.128436	0.123370	0.118304	0.113237	0.108171	0.103105	0.098064	
100 1
0.055287	0.018965	0.014571	0.031785	0.337521	0.065806	0.081496	0.104220	0.038107	0.007836	0.007747	0.020205	0.010547	0.058721	0.003342	0.175533	0.122527	0.154107	0.157617	0.098460	0.067772	0.036036	0.006799	0.017211	0.066443	0.030751	0.067243	0.022333	0.039241	0.002760	0.067297	0.022187	0.043359	0.199221	0.106917	0.028558	0.200729	0.213120	0.123204	0.005558	0.045907	0.023662	0.014063	0.016159	0.044641	0.071829	0.038737	0.026009	0.219880	0.243992	0.054614	0.092893	0.042776	0.221334	0.012556	0.166087	0.069678	0.036027	0.003955	0.170627	0.085202	0.048268	0.091889	0.151990	0.022391	0.039093	0.050026	0.091901	0.177327	0.196369	0.248888	0.155560	0.028436	0.019053	0.017840	0.005425	0.015614	0.000746	0.082634	0.131235	0.019764	0.086274	0.031414	0.036789	0.066646	0.000672	0.004873	0.019344	0.041957	0.086560	0.127201	0.059158	0.060178	0.010912	0.052191	0.053082	0.143718	0.029513	0.053249	0.001068	
100 1
0.094050	0.090168	0.086296	0.082426	0.078556	0.074686	0.070817	0.066947	0.063227	0.060838	0.058449	0.056060	0.053671	0.051282	0.048893	0.046505	0.044116	0.041919	0.040250	0.038562	0.036871	0.035180	0.033489	0.031797	0.030106	0.028415	0.027021	0.025917	0.024808	0.023698	0.022588	0.021478	0.020368	0.019258	0.018150	0.017447	0.016879	0.016316	0.015753	0.015190	0.014627	0.014064	0.013501	0.012945	0.012537	0.012141	0.011747	0.011352	0.010958	0.010563	0.010169	0.009774	0.009399	0.009141	0.008881	0.008621	0.008361	0.008101	0.007841	0.007581	0.007320	0.007099	0.006953	0.006806	0.006658	0.006510	0.006361	0.006213	0.006065	0.005917	0.005877	0.005914	0.005951	0.005988	0.006025	0.006062	0.006099	0.006136	0.006175	0.006392	0.006650	0.006910	0.007170	0.007430	0.007691	0.007951	0.008211	0.008471	0.008719	0.008966	0.009213	0.009460	0.009707	0.009954	0.010201	0.010448	0.010677	0.010831	0.010986	0.011142	
100 1
0.085053	0.045681	0.063575	0.012263	0.052632	0.041532	0.031525	0.001555	0.046404	0.085187	0.147569	0.053105	0.025413	0.003758	0.186253	0.008328	0.035177	0.017489	0.142426	0.074598	0.066112	0.085385	0.023930	0.049852	0.061136	0.013432	0.095268	0.137997	0.031891	0.001338	0.005183	0.165228	0.138419	0.072679	0.133233	0.354298	0.041876	0.140943	0.043972	0.061127	0.106333	0.152825	0.153952	0.163482	0.074890	0.179495	0.122657	0.090895	0.050681	0.209692	0.298661	0.393616	0.044304	0.003292	0.052529	0.084397	0.044026	0.078053	0.104903	0.004840	0.045045	0.010351	0.210750	0.238809	0.244346	0.136125	0.072599	0.310675	0.192427	0.065017	0.012897	0.030813	0.240212	0.265637	0.058844	0.207889	0.066664	0.398688	0.066407	0.178780	0.091685	0.106184	0.211084	0.233995	0.225770	0.388692	0.081585	0.045149	0.067777	0.100941	0.225638	0.019948	0.108097	0.180269	0.182708	0.210761	0.075935	0.070492	0.165776	0.032267	
100 1
0.011297	0.011453	0.011609	0.011764	0.011920	0.012115	0.012369	0.012621	0.012873	0.013125	0.013376	0.013628	0.013880	0.014132	0.014525	0.014992	0.015459	0.015927	0.016394	0.016862	0.017330	0.017797	0.018271	0.019055	0.019886	0.020720	0.021555	0.022389	0.023224	0.024059	0.024894	0.025799	0.027408	0.029023	0.030639	0.032256	0.033873	0.035490	0.037106	0.038723	0.040684	0.043702	0.046685	0.049662	0.052639	0.055615	0.058591	0.061567	0.064544	0.068632	0.073927	0.079199	0.084466	0.089731	0.094997	0.100262	0.105528	0.110799	0.117595	0.124960	0.132341	0.139724	0.147108	0.154491	0.161875	0.169259	0.176649	0.184247	0.191864	0.199483	0.207102	0.214721	0.222340	0.229959	0.237578	0.245138	0.252295	0.259456	0.266617	0.273778	0.280940	0.288101	0.295262	0.302424	0.309197	0.315105	0.321042	0.326983	0.332926	0.338868	0.344811	0.350754	0.356696	0.361834	0.366328	0.370827	0.375328	0.379829	0.384330	0.388831	
100 1
0.021540	0.262580	0.469364	0.204157	0.197095	0.160927	0.021027	0.012620	0.200803	0.000542	0.099026	0.034877	0.022502	0.113482	0.049378	0.264175	0.141331	0.076680	0.063118	0.332516	0.033074	0.240164	0.513226	0.255309	0.232842	0.291510	0.213152	0.027182	0.135095	0.039546	0.230737	0.013651	0.324771	0.224635	0.217508	0.126223	0.173793	0.601370	0.246634	0.189481	0.027898	0.007571	0.403160	0.147273	0.248778	0.034776	0.072313	0.297816	0.072213	0.043664	0.134154	0.173778	0.012915	0.181431	0.083418	0.038317	0.081075	0.048425	0.237574	0.074248	0.081933	0.125046	0.086974	0.285891	0.012284	0.496615	0.404187	0.291216	0.044724	0.521785	0.073166	0.404489	0.024274	0.148518	0.211881	0.370987	0.003139	0.036167	0.073830	0.154117	0.180103	0.074609	0.080164	0.183884	0.131618	0.127960	0.325497	0.145116	0.095985	0.013763	0.232855	0.116926	0.077763	0.024713	0.339230	0.036523	0.255136	0.410969	0.389566	0.352613	
100 1
0.393333	0.397830	0.401888	0.405830	0.409768	0.413704	0.417641	0.421577	0.425513	0.429449	0.433378	0.437164	0.440943	0.444721	0.448499	0.452278	0.456056	0.459834	0.463612	0.467383	0.471119	0.474857	0.478594	0.482332	0.486069	0.489807	0.493544	0.497282	0.500884	0.504266	0.507654	0.511043	0.514432	0.517821	0.521211	0.524600	0.527989	0.531029	0.533863	0.536697	0.539530	0.542364	0.545197	0.548031	0.550864	0.553696	0.556406	0.559095	0.561783	0.564470	0.567157	0.569845	0.572532	0.575219	0.577902	0.580535	0.583167	0.585798	0.588430	0.591062	0.593693	0.596325	0.598957	0.601545	0.603986	0.606431	0.608877	0.611324	0.613770	0.616216	0.618662	0.621109	0.623458	0.625691	0.627927	0.630164	0.632400	0.634636	0.636873	0.639109	0.641346	0.643761	0.646251	0.648743	0.651235	0.653727	0.656219	0.658711	0.661203	0.663680	0.665612	0.667484	0.669350	0.671216	0.673082	0.674947	0.676812	0.678678	0.680477	0.681748	
100 1
0.099054	0.083781	0.299954	0.310960	0.024823	0.288462	0.176943	0.274911	0.215350	0.291666	0.628208	0.171313	0.169365	0.006607	0.317074	0.383305	0.069940	0.148031	0.101028	0.396892	0.082414	0.269361	0.183285	0.644742	0.691295	0.144239	0.008648	0.656075	0.661348	0.390872	0.423921	0.159893	0.596184	0.810563	0.105326	0.276791	0.302175	0.422004	0.343940	0.119338	0.795679	0.496072	0.262171	0.640027	0.812678	0.018414	0.192620	0.018537	0.437667	0.144567	0.436700	0.253480	0.396158	0.440543	0.051276	0.043854	0.367521	0.065483	0.791626	0.435067	0.333511	0.240578	0.311739	0.197610	0.014212	0.439152	0.634242	0.199778	0.344516	0.387295	0.128639	0.166454	0.173371	0.206270	0.177332	0.022232	0.091686	0.154630	0.303216	0.031140	0.038466	0.034836	0.104827	0.070930	0.001991	0.152722	0.283682	0.260711	0.227947	0.328358	0.502064	0.150261	0.006588	0.016175	0.051024	0.056262	0.044702	0.156543	0.060247	0.194994	
100 1
0.683022	0.684296	0.685570	0.686844	0.688118	0.689392	0.690666	0.691965	0.693324	0.694680	0.696037	0.697393	0.698750	0.700106	0.701462	0.702819	0.704109	0.705339	0.706571	0.707802	0.709034	0.710266	0.711497	0.712729	0.713961	0.715266	0.716593	0.717920	0.719248	0.720576	0.721904	0.723231	0.724559	0.725871	0.726837	0.727782	0.728724	0.729665	0.730607	0.731548	0.732490	0.733431	0.734434	0.735774	0.737106	0.738438	0.739769	0.741101	0.742432	0.743763	0.745095	0.746291	0.747239	0.748194	0.749151	0.750109	0.751066	0.752023	0.752980	0.753936	0.751945	0.748025	0.744104	0.740185	0.736266	0.732347	0.728428	0.724510	0.720486	0.708274	0.694382	0.680398	0.666397	0.652393	0.638388	0.624382	0.610377	0.596084	0.577917	0.559638	0.541346	0.523050	0.504754	0.486457	0.468161	0.449864	0.432544	0.418994	0.405335	0.391660	0.377983	0.364305	0.350627	0.336949	0.323271	0.311179	0.301228	0.291221	0.281205	0.271186	
100 1
0.013296	0.200820	0.120172	0.023465	0.061825	0.041137	0.140571	0.418761	0.240168	0.112023	0.329155	0.105645	0.089246	0.072088	0.015982	0.030557	0.021214	0.031086	0.041944	0.077066	0.063652	0.092204	0.242793	0.193685	0.374348	0.264466	0.051882	0.056777	0.043159	0.052130	0.024442	0.083252	0.098400	0.041385	0.024526	0.046839	0.011662	0.043396	0.016826	0.006631	0.259934	0.152435	0.283713	0.001334	0.062826	0.030663	0.022020	0.016868	0.034918	0.039439	0.011421	0.017410	0.009488	0.116746	0.076539	0.059857	0.048295	0.022472	0.004581	0.008972	0.034474	0.044117	0.093410	0.074141	0.038159	0.136316	0.068785	0.035177	0.146444	0.076830	0.092436	0.059545	0.025116	0.154771	0.035395	0.067342	0.158126	0.192014	0.017867	0.204266	0.232637	0.040300	0.008900	0.035955	0.048457	0.004354	0.014986	0.019321	0.018198	0.022831	0.089178	0.148963	0.048593	0.027780	0.054456	0.075666	0.019483	0.050563	0.029101	0.063496	
100 1
0.261167	0.251148	0.241128	0.231111	0.222189	0.213791	0.205400	0.197010	0.188620	0.180230	0.171840	0.163450	0.155109	0.148871	0.142917	0.136982	0.131051	0.125121	0.119192	0.113262	0.107333	0.101627	0.097968	0.094311	0.090656	0.087002	0.083347	0.079693	0.076039	0.072384	0.069129	0.067001	0.064834	0.062662	0.060488	0.058314	0.056139	0.053965	0.051791	0.050167	0.049092	0.048009	0.046923	0.045837	0.044750	0.043664	0.042578	0.041494	0.040915	0.040508	0.040106	0.039705	0.039304	0.038903	0.038502	0.038101	0.037711	0.037568	0.037445	0.037324	0.037203	0.037083	0.036962	0.036842	0.036721	0.036619	0.036628	0.036635	0.036643	0.036650	0.036657	0.036665	0.036672	0.036679	0.036690	0.036705	0.036721	0.036737	0.036752	0.036768	0.036784	0.036799	0.036815	0.036812	0.036795	0.036779	0.036762	0.036745	0.036729	0.036712	0.036696	0.036679	0.036626	0.036565	0.036504	0.036443	0.036382	0.036321	0.036259	0.036198	
100 1
0.058192	0.090373	0.133923	0.016341	0.029801	0.039403	0.072439	0.127057	0.002847	0.006521	0.017639	0.016232	0.001073	0.018799	0.025610	0.036799	0.035707	0.008692	0.090446	0.027861	0.055178	0.143267	0.192007	0.004253	0.014788	0.034083	0.005389	0.083705	0.043635	0.012151	0.032727	0.028961	0.006451	0.021544	0.135622	0.117034	0.022759	0.028894	0.063219	0.062443	0.014863	0.029922	0.033147	0.068202	0.009809	0.070000	0.069906	0.028571	0.048207	0.073866	0.132334	0.046681	0.083866	0.055478	0.070262	0.135667	0.017488	0.026971	0.044785	0.097711	0.076105	0.031231	0.046474	0.028562	0.045218	0.049207	0.010892	0.010000	0.043391	0.010155	0.208945	0.254394	0.019029	0.009112	0.024971	0.157439	0.206676	0.119993	0.105390	0.027564	0.027682	0.034034	0.053339	0.168582	0.085550	0.006917	0.035381	0.007071	0.018549	0.073624	0.031154	0.025603	0.036162	0.210364	0.088771	0.030678	0.056386	0.013610	0.012339	0.001472	
100 1
0.036129	0.035936	0.035738	0.035539	0.035340	0.035141	0.034942	0.034743	0.034544	0.034337	0.034096	0.033855	0.033614	0.033374	0.033134	0.032893	0.032653	0.032412	0.032237	0.032159	0.032079	0.031998	0.031917	0.031836	0.031755	0.031674	0.031593	0.031613	0.031686	0.031760	0.031834	0.031908	0.031981	0.032055	0.032129	0.032204	0.032352	0.032511	0.032671	0.032832	0.032992	0.033152	0.033313	0.033473	0.033641	0.033886	0.034132	0.034378	0.034624	0.034870	0.035116	0.035362	0.035608	0.035859	0.036125	0.036391	0.036657	0.036922	0.037188	0.037453	0.037719	0.037985	0.038221	0.038425	0.038630	0.038835	0.039040	0.039245	0.039450	0.039655	0.039860	0.040011	0.040142	0.040272	0.040403	0.040533	0.040664	0.040794	0.040924	0.041055	0.041202	0.041350	0.041498	0.041646	0.041794	0.041942	0.042091	0.042239	0.042403	0.042678	0.042953	0.043227	0.043502	0.043776	0.044051	0.044325	0.044600	0.044952	0.045481	0.046005	
100 1
0.020305	0.075559	0.035925	0.033537	0.176516	0.220931	0.048077	0.021348	0.029005	0.114523	0.107232	0.076070	0.122445	0.073874	0.188186	0.107806	0.029791	0.074580	0.142965	0.152339	0.119015	0.053070	0.098160	0.047011	0.033465	0.092355	0.049880	0.205871	0.156059	0.045930	0.047978	0.178809	0.135865	0.024347	0.052255	0.015635	0.051882	0.114357	0.066879	0.130565	0.108048	0.100046	0.119991	0.152924	0.397292	0.172308	0.086831	0.036273	0.156578	0.084963	0.043928	0.053674	0.050231	0.028750	0.228197	0.219600	0.181375	0.149661	0.003183	0.116752	0.121237	0.045712	0.059557	0.025921	0.161788	0.127969	0.106867	0.178027	0.287512	0.153122	0.067653	0.056149	0.065013	0.009736	0.056013	0.030982	0.332172	0.298455	0.191432	0.037685	0.267371	0.155749	0.155399	0.027247	0.210156	0.146254	0.076283	0.043088	0.133974	0.131688	0.270280	0.516428	0.290234	0.304407	0.252153	0.153074	0.091934	0.169490	0.013467	0.176865	
100 1
0.046528	0.047050	0.047573	0.048096	0.048618	0.049141	0.049764	0.050470	0.051175	0.051880	0.052585	0.053291	0.053996	0.054701	0.055406	0.056178	0.056967	0.057757	0.058547	0.059337	0.060128	0.060918	0.061708	0.062519	0.063720	0.064941	0.066164	0.067388	0.068612	0.069835	0.071059	0.072283	0.073607	0.075430	0.077242	0.079051	0.080861	0.082670	0.084479	0.086289	0.088098	0.090083	0.092365	0.094638	0.096909	0.099180	0.101451	0.103722	0.105993	0.108263	0.110327	0.112267	0.114206	0.116146	0.118085	0.120024	0.121964	0.123903	0.125844	0.127909	0.129995	0.132084	0.134172	0.136260	0.138349	0.140437	0.142526	0.144645	0.147128	0.149619	0.152110	0.154602	0.157094	0.159586	0.162078	0.164570	0.167264	0.170669	0.174052	0.177433	0.180812	0.184192	0.187572	0.190951	0.194331	0.198273	0.202915	0.207539	0.212161	0.216782	0.221403	0.226024	0.230645	0.235265	0.239648	0.243927	0.248205	0.252482	0.256759	0.261037	
100 1
0.049234	0.174144	0.013149	0.312920	0.059363	0.312043	0.041297	0.135955	0.037514	0.051212	0.040201	0.033200	0.001733	0.051734	0.239006	0.056755	0.314054	0.242999	0.270668	0.010993	0.264046	0.420012	0.007429	0.210422	0.069350	0.178947	0.114753	0.325794	0.021936	0.024866	0.063838	0.093181	0.045327	0.088427	0.185330	0.115060	0.275300	0.255043	0.038770	0.089013	0.071977	0.191235	0.000774	0.036487	0.159010	0.177129	0.103051	0.127906	0.047589	0.035782	0.054414	0.112930	0.126703	0.025408	0.091497	0.075498	0.157430	0.017490	0.073086	0.218188	0.062026	0.014653	0.002256	0.003026	0.128419	0.164097	0.053958	0.035907	0.013530	0.060747	0.014606	0.027480	0.019363	0.002315	0.014244	0.062215	0.075975	0.010296	0.122850	0.033013	0.044457	0.048553	0.128674	0.147859	0.080216	0.059499	0.077401	0.134995	0.108224	0.046125	0.107754	0.008609	0.081794	0.075836	0.094627	0.001062	0.048962	0.053916	0.019083	0.076873	
100 1
0.265314	0.269591	0.273881	0.278640	0.283454	0.288272	0.293091	0.297911	0.302730	0.307550	0.312369	0.317293	0.323077	0.328857	0.334636	0.340416	0.346196	0.351976	0.357756	0.363536	0.368757	0.372540	0.376371	0.380211	0.384052	0.387893	0.391734	0.395575	0.399416	0.400509	0.399080	0.397687	0.396300	0.394916	0.393533	0.392149	0.390766	0.389349	0.382895	0.374877	0.366806	0.358726	0.350643	0.342560	0.334478	0.326395	0.318206	0.307707	0.297049	0.286375	0.275699	0.265022	0.254344	0.243667	0.232989	0.222733	0.214838	0.206898	0.198952	0.191006	0.183060	0.175114	0.167168	0.159222	0.152255	0.147132	0.141949	0.136757	0.131562	0.126367	0.121172	0.115977	0.110783	0.106706	0.103382	0.100057	0.096732	0.093406	0.090080	0.086755	0.083429	0.080118	0.078079	0.076309	0.074553	0.072800	0.071047	0.069295	0.067542	0.065790	0.064173	0.064466	0.064818	0.065176	0.065537	0.065898	0.066259	0.066620	0.066981	0.067974	
100 1
0.000318	0.168770	0.150833	0.148451	0.226367	0.155564	0.077218	0.072760	0.208667	0.140099	0.030273	0.054606	0.065976	0.114940	0.170939	0.092779	0.154552	0.010517	0.111950	0.046343	0.322763	0.068235	0.164026	0.043365	0.296266	0.459507	0.085698	0.035415	0.050165	0.062265	0.083946	0.211947	0.326514	0.041395	0.068610	0.085090	0.263965	0.155608	0.508275	0.370904	0.179468	0.128184	0.050836	0.074696	0.028615	0.082032	0.073160	0.118295	0.054501	0.132818	0.097524	0.033413	0.449667	0.058243	0.225048	0.254242	0.184921	0.092595	0.314792	0.302808	0.028811	0.119979	0.718823	0.405177	0.056878	0.267478	0.515578	0.037220	0.479261	0.809097	0.227573	0.386627	0.382457	0.109780	0.001416	0.009551	0.086218	0.073177	0.050235	0.149744	0.248297	0.009695	0.087939	0.196037	0.200138	0.153619	0.217747	0.191277	0.164965	0.034194	0.105871	0.287325	0.092871	0.124850	0.107523	0.017988	0.038777	0.254359	0.035036	0.118278	
100 1
0.071483	0.074920	0.078346	0.081771	0.085196	0.088620	0.092045	0.095470	0.100316	0.107133	0.113898	0.120653	0.127406	0.134159	0.140912	0.147664	0.154420	0.162601	0.171482	0.180372	0.189263	0.198154	0.207045	0.215936	0.224827	0.233757	0.244420	0.255326	0.266249	0.277175	0.288101	0.299028	0.309955	0.320882	0.331896	0.343732	0.355571	0.367411	0.379251	0.391091	0.402931	0.414771	0.426611	0.437631	0.446275	0.455000	0.463737	0.472477	0.481218	0.489958	0.498698	0.507438	0.512379	0.513426	0.514543	0.515674	0.516809	0.517944	0.519080	0.520215	0.521304	0.512759	0.500831	0.488807	0.476765	0.464721	0.452676	0.440631	0.428586	0.416281	0.397271	0.377690	0.358059	0.338418	0.318774	0.299129	0.279485	0.259840	0.240999	0.227267	0.213464	0.199654	0.185844	0.172033	0.158223	0.144413	0.130602	0.119315	0.113321	0.107153	0.100957	0.094755	0.088552	0.082348	0.076144	0.069942	0.065857	0.063370	0.060872	0.058372	
100 1
0.088399	0.181663	0.251655	0.060871	0.068966	0.004214	0.062965	0.204510	0.027526	0.263863	0.013580	0.072351	0.090611	0.196519	0.063717	0.022702	0.068020	0.029033	0.033468	0.077997	0.076021	0.002895	0.027118	0.081738	0.069199	0.105911	0.181568	0.018624	0.231061	0.353450	0.068754	0.251927	0.171787	0.084249	0.002237	0.006209	0.091227	0.168166	0.193194	0.137364	0.224041	0.030418	0.051439	0.000387	0.120305	0.057870	0.216819	0.085402	0.376693	0.608149	0.196925	0.232251	0.376364	0.280443	0.010304	0.235648	0.109972	0.079912	0.170294	0.573203	0.384929	0.143552	0.039097	0.127383	0.229189	0.023510	0.293538	0.332808	0.292933	0.111999	0.054737	0.275017	0.482117	0.095530	0.092833	0.129342	0.146846	0.209131	0.108893	0.152556	0.190100	0.314502	0.566413	0.552360	0.228386	0.228910	0.080390	0.580089	0.485912	0.072718	0.737862	0.585948	0.429772	0.224289	0.578336	0.152553	0.281023	0.041011	0.021280	0.139497	
100 1
0.055870	0.053369	0.050868	0.048366	0.045878	0.044740	0.043933	0.043141	0.042351	0.041563	0.040774	0.039985	0.039196	0.038475	0.038888	0.039348	0.039813	0.040280	0.040747	0.041214	0.041681	0.042148	0.043059	0.045978	0.048844	0.051703	0.054560	0.057417	0.060275	0.063132	0.065989	0.070707	0.078304	0.085818	0.093317	0.100813	0.108308	0.115803	0.123298	0.130797	0.140715	0.151971	0.163235	0.174500	0.185765	0.197030	0.208295	0.219560	0.230855	0.243731	0.256867	0.270019	0.283174	0.296331	0.309487	0.322643	0.335800	0.348861	0.360905	0.372936	0.384965	0.396993	0.409021	0.421049	0.433077	0.445106	0.456950	0.468204	0.479477	0.490752	0.502028	0.513304	0.524580	0.535856	0.547132	0.556411	0.563406	0.570451	0.577504	0.584560	0.591617	0.598673	0.605730	0.612745	0.606370	0.594711	0.582926	0.571118	0.559307	0.547495	0.535684	0.523872	0.511760	0.489965	0.467187	0.444327	0.421450	0.398569	0.375688	0.352806	
100 1
0.098057	0.100258	0.204205	0.270848	0.210273	0.256726	0.021612	0.069122	0.277305	0.206451	0.144880	0.150037	0.278726	0.550184	0.159631	0.094947	0.087456	0.081756	0.143468	0.050789	0.245267	0.109908	0.192431	0.564822	0.055004	0.099121	0.080910	0.010310	0.035968	0.181819	0.018280	0.002114	0.035228	0.184072	0.174120	0.183342	0.104659	0.244972	0.051260	0.193083	0.049234	0.016561	0.116496	0.225780	0.035984	0.113845	0.106965	0.018896	0.029769	0.149859	0.006200	0.155803	0.120390	0.092358	0.102170	0.072458	0.052132	0.035530	0.025563	0.088585	0.040993	0.176011	0.524184	0.076973	0.071782	0.150637	0.081624	0.058843	0.072559	0.136781	0.200922	0.065325	0.236129	0.294745	0.081716	0.023308	0.144020	0.355570	0.374892	0.200528	0.313951	0.049009	0.271326	0.033091	0.043979	0.002672	0.077668	0.073699	0.255231	0.371233	0.293636	0.016730	0.111667	0.041721	0.285094	0.271397	0.315672	0.412531	0.599440	0.277623	
100 1
0.329924	0.307941	0.292526	0.277056	0.261581	0.246106	0.230631	0.215157	0.199683	0.184208	0.170947	0.162879	0.154638	0.146369	0.138095	0.129819	0.121543	0.113267	0.104992	0.099052	0.095081	0.091089	0.087091	0.083093	0.079094	0.075095	0.071096	0.067114	0.065252	0.063987	0.062744	0.061506	0.060268	0.059031	0.057793	0.056556	0.055378	0.055357	0.055402	0.055453	0.055506	0.055559	0.055612	0.055665	0.055718	0.056290	0.059524	0.062696	0.065860	0.069023	0.072187	0.075350	0.078513	0.081676	0.086775	0.095233	0.103585	0.111918	0.120248	0.128577	0.136906	0.145234	0.153564	0.162779	0.172542	0.182306	0.192069	0.201833	0.211597	0.221360	0.231124	0.240867	0.249265	0.257406	0.265533	0.273656	0.281779	0.289902	0.298025	0.306148	0.314253	0.322138	0.330018	0.337898	0.345777	0.353656	0.361535	0.369414	0.377293	0.385177	0.393077	0.400977	0.408876	0.416776	0.424676	0.432575	0.440475	0.448374	0.455720	0.462359	
100 1
0.183424	0.034612	0.286364	0.416858	0.201518	0.121566	0.156401	0.283495	0.066284	0.015742	0.052817	0.107457	0.119131	0.129888	0.239866	0.120065	0.095974	0.264633	0.083966	0.077445	0.157067	0.621081	0.148771	0.707716	0.160936	0.069796	0.433752	0.552184	0.565265	0.235526	0.318797	0.278601	0.301759	0.007975	0.157325	0.129281	0.013506	0.106851	0.069950	0.123096	0.166768	0.368097	0.094163	0.147971	0.128749	0.035339	0.021385	0.132873	0.281410	0.145360	0.087950	0.177643	0.212971	0.151765	0.090316	0.074238	0.028679	0.053637	0.079702	0.028982	0.097054	0.008401	0.043451	0.208053	0.048478	0.105181	0.071224	0.039635	0.029105	0.004471	0.042721	0.021344	0.055258	0.000604	0.229651	0.158182	0.051247	0.063507	0.112093	0.049917	0.082748	0.013454	0.137763	0.296051	0.218516	0.389025	0.151368	0.157216	0.039988	0.013106	0.071650	0.192866	0.232612	0.090372	0.092714	0.031901	0.047803	0.091463	0.011125	0.056337	
100 1
0.469016	0.475676	0.482337	0.488997	0.495658	0.502319	0.508976	0.514253	0.518910	0.523558	0.528203	0.532849	0.537494	0.542139	0.546785	0.551248	0.548546	0.544972	0.541332	0.537679	0.534023	0.530366	0.526708	0.523051	0.517933	0.500312	0.482734	0.465155	0.447573	0.429991	0.412408	0.394825	0.377242	0.359748	0.342489	0.325222	0.307954	0.290686	0.273418	0.256149	0.238881	0.221613	0.207858	0.197411	0.186914	0.176407	0.165897	0.155386	0.144875	0.134365	0.123878	0.117259	0.111877	0.106534	0.101199	0.095866	0.090532	0.085199	0.079865	0.074693	0.073164	0.071900	0.070659	0.069424	0.068191	0.066957	0.065724	0.064491	0.063804	0.066264	0.068668	0.071066	0.073464	0.075861	0.078258	0.080655	0.083052	0.086541	0.092137	0.097664	0.103180	0.108694	0.114207	0.119720	0.125233	0.130747	0.137755	0.145794	0.153830	0.161866	0.169901	0.177936	0.185971	0.194006	0.202034	0.209443	0.216716	0.223982	0.231247	0.238511	
100 1
0.174468	0.506510	0.018753	0.277745	0.042026	0.019062	0.114391	0.150228	0.054420	0.517017	0.182853	0.124326	0.028084	0.150236	0.153754	0.066902	0.014106	0.349269	0.279084	0.064380	0.092734	0.085877	0.048760	0.161808	0.134148	0.070755	0.282340	0.047384	0.027271	0.251848	0.093490	0.183508	0.208137	0.369838	0.353501	0.563797	0.206863	0.298834	0.205718	0.161383	0.008241	0.015257	0.416274	0.211847	0.043187	0.010442	0.058276	0.027923	0.186332	0.193242	0.097291	0.513078	0.650118	0.130821	0.295794	0.401431	0.024928	0.144710	0.051917	0.023083	0.020615	0.002041	0.273112	0.163617	0.131485	0.125049	0.036346	0.095442	0.043557	0.024218	0.084923	0.013903	0.136256	0.066565	0.050640	0.040155	0.009111	0.043715	0.072928	0.018415	0.179241	0.042040	0.206173	0.006808	0.075189	0.016054	0.087211	0.062452	0.055174	0.097145	0.114276	0.013316	0.108883	0.023649	0.075617	0.046062	0.020541	0.069069	0.001063	0.110609	
100 1
0.245776	0.253040	0.260305	0.267434	0.272581	0.277662	0.282736	0.287807	0.292878	0.297949	0.303020	0.308091	0.313234	0.318669	0.324096	0.329522	0.334948	0.340374	0.345799	0.351225	0.356651	0.361355	0.365032	0.368738	0.372448	0.376160	0.379871	0.383583	0.387295	0.391000	0.391424	0.390190	0.388938	0.387684	0.386429	0.385174	0.383920	0.382665	0.381261	0.372985	0.363706	0.354360	0.345001	0.335639	0.326276	0.316913	0.307550	0.297853	0.284940	0.272006	0.259070	0.246132	0.233193	0.220255	0.207316	0.194377	0.182776	0.175145	0.167379	0.159594	0.151805	0.144015	0.136224	0.128434	0.120644	0.114958	0.111484	0.107968	0.104444	0.100919	0.097392	0.093866	0.090339	0.086822	0.085487	0.084940	0.084415	0.083893	0.083372	0.082851	0.082330	0.081809	0.081397	0.083948	0.086763	0.089600	0.092442	0.095285	0.098128	0.100972	0.103815	0.107033	0.112706	0.118348	0.123987	0.129625	0.135264	0.140903	0.146542	0.152181	
100 1
0.049236	0.060523	0.060499	0.126010	0.365282	0.055000	0.056428	0.057840	0.111757	0.076164	0.112896	0.007056	0.028898	0.051944	0.147634	0.030299	0.163499	0.112435	0.198353	0.009467	0.216441	0.059414	0.225027	0.235571	0.000103	0.064524	0.214603	0.029235	0.100303	0.060324	0.023924	0.000906	0.025923	0.099537	0.272597	0.104696	0.136959	0.021748	0.152802	0.147221	0.006131	0.043671	0.215672	0.121902	0.225599	0.024168	0.099782	0.260098	0.376183	0.327560	0.154482	0.047819	0.334692	0.365010	0.430495	0.408292	0.553757	0.192069	0.057256	0.024015	0.155905	0.263860	0.216473	0.258034	0.068434	0.175629	0.127498	0.198651	0.308172	0.244633	0.153373	0.029509	0.067334	0.059554	0.025644	0.108586	0.069064	0.045106	0.055820	0.030241	0.002148	0.024278	0.206618	0.124510	0.031429	0.066213	0.072783	0.042993	0.009801	0.007861	0.029942	0.054893	0.109512	0.096285	0.085868	0.068255	0.118300	0.041391	0.208211	0.211643	
100 1
0.158656	0.166931	0.175147	0.183353	0.191558	0.199762	0.207966	0.216169	0.224373	0.233175	0.242440	0.251701	0.260961	0.270221	0.279481	0.288741	0.298001	0.307253	0.315672	0.323882	0.332082	0.340280	0.348479	0.356677	0.364875	0.373073	0.381211	0.388302	0.395347	0.402386	0.409425	0.416463	0.423501	0.430538	0.437576	0.444246	0.449191	0.454182	0.459179	0.464176	0.469174	0.474172	0.479170	0.484168	0.485498	0.481002	0.476678	0.472384	0.468097	0.463811	0.459525	0.455240	0.450942	0.438007	0.420176	0.402317	0.384455	0.366594	0.348732	0.330871	0.313010	0.295175	0.278786	0.262643	0.246516	0.230392	0.214268	0.198144	0.182020	0.165897	0.150468	0.142700	0.135054	0.127424	0.119799	0.112175	0.104551	0.096928	0.089304	0.082788	0.079940	0.076975	0.073994	0.071009	0.068024	0.065038	0.062053	0.059068	0.056736	0.055169	0.053586	0.051999	0.050412	0.048824	0.047237	0.045649	0.044066	0.043831	0.044144	0.044470	
100 1
0.019316	0.129270	0.240168	0.027168	0.119093	0.038712	0.068317	0.037342	0.045139	0.057731	0.029780	0.128607	0.082346	0.074472	0.142968	0.055220	0.021456	0.009125	0.214899	0.220739	0.108252	0.007115	0.035372	0.003982	0.098523	0.106924	0.223165	0.101431	0.129868	0.152441	0.012322	0.045123	0.035073	0.053105	0.038801	0.163834	0.465226	0.108515	0.148799	0.049347	0.061332	0.144355	0.261323	0.079736	0.348148	0.096228	0.022698	0.126943	0.013604	0.066449	0.153630	0.261142	0.393396	0.103875	0.043657	0.041604	0.181497	0.052578	0.381828	0.590948	0.581016	0.366723	0.156327	0.214702	0.203944	0.427760	0.057735	0.060543	0.193005	0.121936	0.136570	0.085891	0.184700	0.448587	0.011431	0.060646	0.212046	0.193675	0.235965	0.408261	0.035898	0.736002	0.612026	0.441633	0.288460	0.155243	0.207899	0.066961	0.073727	0.013492	0.123420	0.002071	0.071180	0.015010	0.197344	0.208629	0.070421	0.034163	0.272019	0.264236	
100 1
0.044797	0.045125	0.045453	0.045781	0.046109	0.046555	0.051024	0.055918	0.060846	0.065781	0.070719	0.075656	0.080594	0.085531	0.091190	0.102304	0.113378	0.124449	0.135521	0.146593	0.157665	0.168737	0.179809	0.191127	0.203039	0.214931	0.226819	0.238707	0.250595	0.262483	0.274371	0.286258	0.296811	0.306209	0.315621	0.325036	0.334452	0.343867	0.353283	0.362699	0.372102	0.379796	0.386995	0.394176	0.401353	0.408529	0.415706	0.422882	0.430058	0.437137	0.442250	0.447244	0.452227	0.457208	0.462187	0.467167	0.472147	0.477126	0.480800	0.477603	0.474556	0.471527	0.468501	0.465476	0.462450	0.459425	0.456399	0.447318	0.427480	0.407983	0.388543	0.369117	0.349692	0.330269	0.310846	0.291423	0.272924	0.255010	0.237097	0.219184	0.201270	0.183357	0.165443	0.147530	0.129742	0.120890	0.113800	0.106806	0.099832	0.092862	0.085892	0.078923	0.071953	0.065283	0.062455	0.059726	0.057009	0.054294	0.051580	0.048867	
100 1
0.030685	0.050983	0.297652	0.045357	0.146567	0.002037	0.223426	0.119481	0.046189	0.072697	0.007979	0.033444	0.060775	0.076617	0.201321	0.028798	0.015296	0.137670	0.132423	0.164753	0.300152	0.126707	0.077487	0.016034	0.067806	0.237341	0.010351	0.077079	0.195789	0.180324	0.124919	0.237585	0.217281	0.073904	0.150453	0.078765	0.035254	0.098390	0.023766	0.017172	0.133508	0.347624	0.034255	0.392656	0.281532	0.248711	0.113590	0.265403	0.593874	0.647385	0.011150	0.317681	0.009094	0.175574	0.170566	0.153171	0.400193	0.611784	0.169912	0.106326	0.115031	0.091612	0.113433	0.111687	0.112972	0.159029	0.180865	0.211946	0.103597	0.393017	0.533402	0.012183	0.392600	0.337707	0.231091	0.089040	0.052146	0.047916	0.066922	0.118324	0.076367	0.284092	0.474919	0.047760	0.331454	0.184050	0.097203	0.236890	0.261749	0.256730	0.390661	0.295121	0.096863	0.330402	0.104631	0.118948	0.291362	0.056526	0.227101	0.132104	
100 1
0.046154	0.043440	0.041369	0.041689	0.041938	0.042177	0.042414	0.042650	0.042887	0.043124	0.043360	0.044456	0.046674	0.048864	0.051049	0.053233	0.055416	0.057599	0.059783	0.061971	0.066146	0.071236	0.076340	0.081446	0.086553	0.091659	0.096766	0.101873	0.107065	0.115749	0.124878	0.134038	0.143206	0.152374	0.161544	0.170713	0.179882	0.189275	0.200641	0.212005	0.223368	0.234733	0.246097	0.257462	0.268826	0.280191	0.290787	0.299295	0.307875	0.316466	0.325058	0.333652	0.342245	0.350839	0.359432	0.366375	0.371723	0.377097	0.382476	0.387857	0.393238	0.398619	0.403999	0.409361	0.411434	0.412424	0.413380	0.414331	0.415280	0.416229	0.417178	0.418127	0.418849	0.414243	0.409230	0.404181	0.399124	0.394064	0.389005	0.383945	0.378885	0.372401	0.357475	0.342688	0.327916	0.313146	0.298377	0.283607	0.268838	0.254068	0.239144	0.223914	0.208694	0.193476	0.178258	0.163041	0.147823	0.132605	0.117390	0.107323	
100 1
0.292347	0.716087	0.042945	0.314067	0.212269	0.251531	0.112826	0.031326	0.093455	0.168347	0.206790	0.105900	0.083614	0.053546	0.172803	0.163921	0.079328	0.168545	0.397369	0.100889	0.137310	0.084833	0.150018	0.009011	0.014631	0.007411	0.038627	0.135314	0.005672	0.016837	0.059187	0.090069	0.263702	0.338078	0.020212	0.024029	0.047275	0.031806	0.008415	0.062955	0.001577	0.037076	0.151527	0.065646	0.105076	0.111034	0.015592	0.024075	0.025981	0.000158	0.010775	0.196989	0.222835	0.031286	0.038314	0.009552	0.070477	0.130466	0.007246	0.162012	0.225429	0.076833	0.046529	0.143951	0.107563	0.059738	0.053451	0.042208	0.091492	0.079424	0.042045	0.269444	0.129838	0.029789	0.178836	0.057108	0.280761	0.138416	0.110570	0.031936	0.021053	0.017586	0.042660	0.020209	0.140192	0.193347	0.216030	0.096369	0.046912	0.077283	0.267100	0.007356	0.103653	0.088670	0.087795	0.030038	0.183856	0.037280	0.291068	0.050268	
100 1
0.100909	0.094481	0.088049	0.081616	0.075182	0.068747	0.062313	0.055918	0.053312	0.051558	0.049847	0.048144	0.046443	0.044743	0.043043	0.041342	0.039701	0.038962	0.038255	0.037552	0.036849	0.036147	0.035445	0.034743	0.034042	0.033344	0.032667	0.031989	0.031312	0.030634	0.029956	0.029278	0.028600	0.027923	0.027448	0.027271	0.027085	0.026897	0.026710	0.026522	0.026334	0.026147	0.025959	0.026115	0.026448	0.026782	0.027117	0.027452	0.027787	0.028122	0.028457	0.028790	0.029023	0.029241	0.029458	0.029675	0.029892	0.030108	0.030325	0.030542	0.030759	0.030976	0.031194	0.031412	0.031630	0.031848	0.032066	0.032284	0.032502	0.032873	0.033713	0.034536	0.035358	0.036179	0.037000	0.037821	0.038642	0.039463	0.040920	0.043063	0.045192	0.047319	0.049445	0.051571	0.053697	0.055823	0.057959	0.062627	0.068233	0.073863	0.079499	0.085134	0.090770	0.096406	0.102042	0.107725	0.114746	0.121890	0.129045	0.136203	
100 1
0.394103	0.153877	0.062055	0.000515	0.256789	0.121716	0.101008	0.014301	0.022803	0.133065	0.074708	0.014830	0.017169	0.487359	0.645157	0.157051	0.193093	0.319033	0.440542	0.335453	0.127668	0.047513	0.048030	0.051880	0.141079	0.150691	0.312850	0.311961	0.230395	0.273636	1.000000	0.237378	0.211582	0.059158	0.211031	0.162129	0.241715	0.216363	0.238783	0.072574	0.108514	0.415079	0.306883	0.117608	0.066804	0.268501	0.491739	0.119659	0.306158	0.582134	0.152908	0.230834	0.086355	0.035970	0.037303	0.140084	0.235627	0.535294	0.210842	0.036310	0.081877	0.220447	0.282047	0.061806	0.029411	0.619529	0.432464	0.228685	0.455287	0.450947	0.285529	0.124168	0.638167	0.863717	0.190322	0.211114	0.489069	0.267188	0.199106	0.685838	0.189037	0.306972	0.088339	0.615139	0.188950	0.238763	0.292907	0.124956	0.073830	0.104742	0.098318	0.142850	0.048321	0.039959	0.013462	0.111551	0.065744	0.040051	0.178772	0.316400	
100 1
0.143361	0.150519	0.157677	0.164835	0.172123	0.180292	0.188451	0.196610	0.204768	0.212926	0.221084	0.229242	0.237401	0.245991	0.255536	0.265048	0.274556	0.284063	0.293570	0.303076	0.312583	0.322090	0.332238	0.342897	0.353551	0.364205	0.374858	0.385511	0.396164	0.406817	0.417460	0.426997	0.436246	0.445482	0.454716	0.463950	0.473183	0.482417	0.491651	0.500581	0.504054	0.507263	0.510444	0.513619	0.516792	0.519965	0.523138	0.526311	0.527986	0.522420	0.517043	0.511690	0.506341	0.500993	0.495644	0.490296	0.484948	0.474431	0.455487	0.436797	0.418151	0.399514	0.380880	0.362247	0.343613	0.324979	0.305787	0.286270	0.266752	0.247233	0.227715	0.208197	0.188678	0.169160	0.149806	0.140055	0.132003	0.124051	0.116119	0.108191	0.100264	0.092338	0.084411	0.076943	0.074694	0.072541	0.070399	0.068261	0.066124	0.063987	0.061851	0.059714	0.057998	0.057711	0.057379	0.057041	0.056702	0.056363	0.056023	0.055684	
100 1
0.077740	0.083116	0.035397	0.070001	0.035337	0.055490	0.025285	0.023606	0.046417	0.048695	0.043171	0.111768	0.166751	0.149512	0.048991	0.034013	0.013062	0.240943	0.078436	0.022812	0.318211	0.004799	0.061651	0.069795	0.023220	0.241856	0.112702	0.067711	0.065032	0.091650	0.032617	0.046192	0.082510	0.088964	0.146159	0.226673	0.056169	0.063899	0.107092	0.076663	0.075834	0.161545	0.097373	0.063299	0.067105	0.080097	0.192943	0.185483	0.004235	0.158222	0.045689	0.173072	0.213448	0.067202	0.105985	0.090601	0.049247	0.083780	0.179245	0.355077	0.122195	0.090475	0.232631	0.020610	0.123170	0.190837	0.000147	0.565061	0.777972	0.211147	0.132358	0.025037	0.136259	0.006475	0.338412	0.130620	0.062476	0.024198	0.211043	0.562702	0.010273	0.418826	0.138678	0.031541	0.132914	0.036334	0.332803	0.774423	0.125786	0.093653	0.299546	0.071206	0.398861	0.195490	0.206112	0.184699	0.516278	0.285210	0.346081	0.393006	
100 1
0.055345	0.055467	0.056144	0.056808	0.057470	0.058131	0.058793	0.059454	0.060115	0.060776	0.061172	0.061458	0.061742	0.062025	0.062309	0.062592	0.062876	0.063159	0.063465	0.064601	0.065828	0.067061	0.068297	0.069533	0.070768	0.072004	0.073240	0.074898	0.079866	0.084813	0.089759	0.094706	0.099653	0.104600	0.109546	0.114493	0.120537	0.129297	0.137965	0.146619	0.155270	0.163920	0.172570	0.181221	0.189871	0.199345	0.209552	0.219748	0.229943	0.240137	0.250330	0.260524	0.270718	0.280912	0.291189	0.301491	0.311794	0.322097	0.332400	0.342703	0.353006	0.363309	0.373606	0.383787	0.393960	0.404133	0.414305	0.424477	0.434650	0.444822	0.454994	0.464899	0.473359	0.481848	0.490341	0.498834	0.507327	0.515821	0.524314	0.532807	0.540966	0.548514	0.556081	0.563652	0.571223	0.578795	0.586366	0.593938	0.601509	0.608256	0.614467	0.620677	0.626889	0.633100	0.639311	0.645522	0.651734	0.657878	0.658944	0.658976	
100 1
0.287101	0.112295	0.350838	0.293511	0.578399	0.501209	0.724747	0.177138	0.098778	0.080232	0.579102	0.173576	0.639337	0.111138	0.404013	0.354847	0.135373	0.099697	0.168716	0.137382	0.585467	0.642160	0.019600	0.015079	0.239571	0.097004	0.122606	0.048496	0.175121	0.111726	0.190758	0.128910	0.009763	0.463433	0.670035	0.216238	0.161442	0.219990	0.183240	0.129241	0.165919	0.065484	0.169265	0.855727	0.579822	0.444378	0.420700	0.588656	0.083547	0.430726	0.245558	0.004941	0.044225	0.026493	0.398365	0.332995	0.209576	0.033028	0.063198	0.152170	0.094318	0.143788	0.269791	0.056812	0.261607	0.245127	0.266867	0.138825	0.076159	0.154791	0.211721	0.051579	0.014681	0.091640	0.049234	0.164139	0.069658	0.008361	0.044168	0.148995	0.269177	0.158979	0.050035	0.034580	0.029992	0.066325	0.165537	0.033135	0.035028	0.013940	0.043500	0.055665	0.408733	0.118834	0.121489	0.095272	0.019227	0.068275	0.162398	0.214443	
100 1
0.658953	0.658919	0.658883	0.658846	0.658809	0.658772	0.658296	0.651953	0.645447	0.638921	0.632391	0.625859	0.619327	0.612794	0.606262	0.596995	0.577263	0.557837	0.538453	0.519077	0.499702	0.480328	0.460953	0.441579	0.419778	0.394725	0.369756	0.344801	0.319851	0.294901	0.269951	0.245001	0.220073	0.204106	0.192387	0.180726	0.169075	0.157425	0.145775	0.134125	0.122475	0.110970	0.105542	0.100921	0.096358	0.091806	0.087257	0.082709	0.078160	0.073612	0.069320	0.067347	0.065377	0.063407	0.061439	0.059470	0.057502	0.055533	0.053565	0.052033	0.051722	0.051369	0.051010	0.050649	0.050288	0.049927	0.049566	0.049205	0.049088	0.049213	0.049334	0.049453	0.049573	0.049693	0.049812	0.049932	0.050056	0.050988	0.052193	0.053407	0.054622	0.055837	0.057053	0.058268	0.059483	0.060884	0.066820	0.073119	0.079450	0.085788	0.092128	0.098468	0.104808	0.111148	0.118409	0.131285	0.144076	0.156858	0.169639	0.182419	
100 1
0.155444	0.067804	0.197674	0.000983	0.014647	0.075161	0.114333	0.138687	0.027558	0.036666	0.001813	0.033457	0.177497	0.044744	0.021911	0.131150	0.016499	0.120174	0.066728	0.139242	0.037236	0.249804	0.293046	0.314034	0.373934	0.381502	0.078398	0.429589	0.050276	0.024774	0.196619	0.361777	0.007219	0.233843	0.145287	0.206132	0.182599	0.073772	0.112372	0.003460	0.261253	0.332376	0.124423	0.281851	0.362217	0.080107	0.231291	0.154036	0.379694	0.278791	0.136684	0.104151	0.410296	0.060129	0.165968	0.352465	0.562251	0.331757	0.406200	0.260922	0.105762	0.186352	0.412024	0.044814	0.241898	0.616277	0.579970	0.062969	0.112727	0.187155	0.385457	0.221445	0.280699	0.144449	0.206490	0.205574	0.017106	0.051923	0.259850	0.873751	0.639071	0.429814	0.055583	0.331413	0.742625	0.394682	0.560658	0.029552	0.036406	0.326101	0.385697	0.641564	0.273438	0.113600	0.112670	0.168584	0.536692	0.335201	0.292022	0.440642	
100 1
0.195200	0.207980	0.220761	0.234185	0.248913	0.263598	0.278277	0.292954	0.307631	0.322308	0.336984	0.351660	0.365036	0.377466	0.389899	0.402334	0.414770	0.427205	0.439641	0.452077	0.464499	0.475587	0.486363	0.497125	0.507884	0.518642	0.529400	0.540158	0.550916	0.561581	0.570755	0.579874	0.588985	0.598095	0.607205	0.616315	0.625424	0.634534	0.643302	0.650587	0.657913	0.665244	0.672576	0.679908	0.687240	0.694572	0.701904	0.708977	0.715664	0.722362	0.729062	0.735762	0.742462	0.749162	0.755863	0.762562	0.768616	0.774328	0.780036	0.785744	0.791452	0.797160	0.802868	0.808576	0.814295	0.820579	0.826951	0.833330	0.839709	0.846089	0.852469	0.858849	0.865228	0.871473	0.876332	0.881176	0.886017	0.890858	0.895699	0.900540	0.905381	0.910222	0.914710	0.918097	0.921520	0.924949	0.928378	0.931808	0.935238	0.938668	0.942098	0.946714	0.952640	0.958540	0.964434	0.970328	0.976221	0.982114	0.988007	0.993901	
