48
250 1
0.000019	0.021782	0.187649	0.138715	0.013677	0.131464	0.128619	0.225920	0.193556	0.064484	0.233356	0.088513	0.031537	0.130029	0.155549	0.029162	0.087473	0.146637	0.284409	0.231674	0.016514	0.078927	0.177993	0.072885	0.068259	0.105783	0.205253	0.145506	0.135046	0.045593	0.026264	0.291682	0.280952	0.097263	0.003039	0.058954	0.188839	0.218695	0.217671	0.384858	0.351056	0.312763	0.019367	0.244082	0.105043	0.055162	0.234207	0.053253	0.193668	0.067058	0.128457	0.028856	0.260647	0.454917	0.142586	0.103825	0.112229	0.086157	0.170076	0.072622	0.293803	0.240875	0.156002	0.290859	0.099976	0.270739	0.133017	0.032039	0.046869	0.245343	0.105100	0.008327	0.107420	0.133979	0.058858	0.225544	0.084427	0.026185	0.119227	0.016623	0.270849	0.292222	0.178580	0.140214	0.018271	0.089622	0.006585	0.045358	0.119810	0.193351	0.104248	0.051750	0.390880	0.060904	0.226123	0.089445	0.004646	0.074064	0.000157	0.242440	0.311029	0.096257	0.178014	0.267838	0.305700	0.290168	0.208407	0.080817	0.255238	0.150373	0.172234	0.323310	0.374962	0.086099	0.242337	0.136368	0.143999	0.037113	0.020706	0.255491	0.072941	0.047860	0.048609	0.246505	0.094767	0.150115	0.167678	0.034497	0.146267	0.218213	0.453868	0.346374	0.411531	0.288019	0.162560	0.016449	0.104009	0.229290	0.109716	0.072722	0.397493	0.409188	0.010918	0.049995	0.142765	0.119874	0.103241	0.157838	0.080964	0.325142	0.256676	0.312820	0.301022	0.070045	0.013278	0.132535	0.200843	0.145802	0.451244	0.260215	0.026324	0.303711	0.317863	0.310923	0.266721	0.009213	0.099829	0.369117	0.277039	0.421333	0.415273	0.544954	0.320108	0.039618	0.063579	0.091231	0.146290	0.145678	0.052194	0.130321	0.039409	0.391393	0.157551	0.010491	0.154869	0.141178	0.759779	0.460233	0.094156	0.001443	0.043996	0.189556	0.596266	0.133451	0.002835	0.150335	0.084086	0.015714	0.211505	0.103089	0.335925	0.232300	0.361244	0.353416	0.462192	0.153027	0.581831	0.137554	0.266332	0.565907	0.580182	0.245404	0.270658	0.229982	0.389597	0.036512	0.540489	0.273989	0.254531	0.199968	0.650364	0.813313	0.037840	0.452385	0.055165	0.252538	0.357321	0.194353	0.412759	0.532780	0.245522	0.136566	0.173015	0.023383	0.016449	0.413950	0.741481	0.380233	0.134358	0.189483	0.011449	0.047325	0.146375	0.037045	0.177326	0.145884	0.042594	0.127314	0.189946	0.185463	
250 1
0.000027	0.090633	0.081074	0.079701	0.079535	0.079589	0.079681	0.079773	0.079604	0.079392	0.079177	0.078962	0.078746	0.078531	0.078315	0.078100	0.077885	0.077707	0.077533	0.077360	0.077187	0.077014	0.076840	0.076667	0.076494	0.076374	0.077736	0.079230	0.080737	0.082245	0.083755	0.085264	0.086773	0.088283	0.089927	0.094313	0.098871	0.103446	0.108024	0.112603	0.117182	0.121762	0.126341	0.131088	0.138500	0.146011	0.153534	0.161059	0.168585	0.176111	0.183637	0.191163	0.198729	0.206756	0.214794	0.222832	0.230870	0.238909	0.246948	0.254986	0.263025	0.270936	0.277654	0.284368	0.291081	0.297794	0.304507	0.311219	0.317932	0.324644	0.331239	0.336976	0.342719	0.348463	0.354207	0.359951	0.365695	0.371439	0.377183	0.382736	0.387179	0.391643	0.396108	0.400574	0.405040	0.409506	0.413971	0.418437	0.422930	0.427548	0.432162	0.436777	0.441391	0.446005	0.450619	0.455233	0.459848	0.464405	0.468750	0.473100	0.477451	0.481803	0.486154	0.490506	0.494857	0.499209	0.503615	0.508190	0.512760	0.517329	0.521898	0.526467	0.531036	0.535604	0.540173	0.545029	0.550614	0.556174	0.561731	0.567286	0.572842	0.578398	0.583953	0.589509	0.595255	0.601400	0.607533	0.613663	0.619792	0.625922	0.632051	0.638181	0.644310	0.650083	0.655238	0.660413	0.665591	0.670770	0.675948	0.681127	0.686306	0.691485	0.696174	0.700164	0.704173	0.708186	0.712199	0.716212	0.720226	0.724239	0.728253	0.732370	0.736612	0.740851	0.745089	0.749327	0.753565	0.757803	0.762041	0.766279	0.770209	0.773837	0.777470	0.781104	0.784738	0.788372	0.792006	0.795641	0.799275	0.802591	0.805650	0.808711	0.811772	0.814834	0.817896	0.820958	0.824019	0.827081	0.830117	0.833136	0.836155	0.839174	0.842193	0.845213	0.848232	0.851251	0.854270	0.857378	0.860534	0.863690	0.866847	0.870004	0.873160	0.876317	0.879474	0.882630	0.885637	0.888578	0.891518	0.894457	0.897397	0.900336	0.903275	0.906215	0.909154	0.911960	0.914719	0.917476	0.920233	0.922990	0.925747	0.928503	0.931260	0.934022	0.937409	0.940979	0.944556	0.948134	0.951712	0.955290	0.958869	0.962447	0.966016	0.968661	0.971094	0.973516	0.975937	0.978357	0.980777	0.983197	0.985617	0.988022	0.989514	0.990840	0.992157	0.993471	0.994786	0.996100	0.997414	0.998729	1.000000	0.999401	0.998545	0.997671	0.996794	0.995915	0.995037	0.994158	0.993279	0.992195	
250 1
0.335925	0.232300	0.361244	0.353416	0.462192	0.153027	0.581831	0.137554	0.266332	0.565907	0.580182	0.245404	0.270658	0.229982	0.389597	0.036512	0.540489	0.273989	0.254531	0.199968	0.650364	0.813313	0.037840	0.452385	0.055165	0.252538	0.357321	0.194353	0.412759	0.532780	0.245522	0.136566	0.173015	0.023383	0.016449	0.413950	0.741481	0.380233	0.134358	0.189483	0.011449	0.047325	0.146375	0.037045	0.177326	0.145884	0.042594	0.127314	0.189946	0.185463	0.087941	0.097283	0.013842	0.026773	0.128321	0.210482	0.403122	0.073682	0.126394	0.011356	0.079715	0.008123	0.082840	0.104045	0.159951	0.081826	0.118160	0.179341	0.105615	0.144789	0.018067	0.147742	0.003924	0.191474	0.029033	0.126763	0.040806	0.054356	0.019630	0.029064	0.041979	0.096195	0.376289	0.262745	0.286091	0.127091	0.048983	0.008307	0.034977	0.015638	0.020719	0.016025	0.019665	0.093252	0.081670	0.136921	0.053569	0.070551	0.053081	0.015599	0.055287	0.018965	0.014571	0.031785	0.337521	0.065806	0.081496	0.104220	0.038107	0.007836	0.007747	0.020205	0.010547	0.058721	0.003342	0.175533	0.122527	0.154107	0.157617	0.098460	0.067772	0.036036	0.006799	0.017211	0.066443	0.030751	0.067243	0.022333	0.039241	0.002760	0.067297	0.022187	0.043359	0.199221	0.106917	0.028558	0.200729	0.213120	0.123204	0.005558	0.045907	0.023662	0.014063	0.016159	0.044641	0.071829	0.038737	0.026009	0.219880	0.243992	0.054614	0.092893	0.042776	0.221334	0.012556	0.166087	0.069678	0.036027	0.003955	0.170627	0.085202	0.048268	0.091889	0.151990	0.022391	0.039093	0.050026	0.091901	0.177327	0.196369	0.248888	0.155560	0.028436	0.019053	0.017840	0.005425	0.015614	0.000746	0.082634	0.131235	0.019764	0.086274	0.031414	0.036789	0.066646	0.000672	0.004873	0.019344	0.041957	0.086560	0.127201	0.059158	0.060178	0.010912	0.052191	0.053082	0.143718	0.029513	0.053249	0.001068	0.085053	0.045681	0.063575	0.012263	0.052632	0.041532	0.031525	0.001555	0.046404	0.085187	0.147569	0.053105	0.025413	0.003758	0.186253	0.008328	0.035177	0.017489	0.142426	0.074598	0.066112	0.085385	0.023930	0.049852	0.061136	0.013432	0.095268	0.137997	0.031891	0.001338	0.005183	0.165228	0.138419	0.072679	0.133233	0.354298	0.041876	0.140943	0.043972	0.061127	0.106333	0.152825	0.153952	0.163482	0.074890	0.179495	0.122657	0.090895	0.050681	0.209692	
250 1
0.897397	0.900336	0.903275	0.906215	0.909154	0.911960	0.914719	0.917476	0.920233	0.922990	0.925747	0.928503	0.931260	0.934022	0.937409	0.940979	0.944556	0.948134	0.951712	0.955290	0.958869	0.962447	0.966016	0.968661	0.971094	0.973516	0.975937	0.978357	0.980777	0.983197	0.985617	0.988022	0.989514	0.990840	0.992157	0.993471	0.994786	0.996100	0.997414	0.998729	1.000000	0.999401	0.998545	0.997671	0.996794	0.995915	0.995037	0.994158	0.993279	0.992195	0.984593	0.976334	0.968020	0.959696	0.951368	0.943040	0.934712	0.926384	0.917700	0.901012	0.883743	0.866421	0.849088	0.831752	0.814415	0.797078	0.779741	0.762169	0.740475	0.718594	0.696693	0.674787	0.652880	0.630973	0.609066	0.587158	0.565649	0.549315	0.533116	0.516935	0.500757	0.484580	0.468404	0.452228	0.436052	0.420382	0.409819	0.399306	0.388799	0.378295	0.367791	0.357288	0.346785	0.336282	0.325981	0.317307	0.308625	0.299942	0.291259	0.282577	0.273894	0.265212	0.256529	0.248046	0.240809	0.233555	0.226299	0.219043	0.211786	0.204530	0.197274	0.190017	0.182897	0.176472	0.170030	0.163586	0.157142	0.150697	0.144253	0.137809	0.131365	0.125228	0.120347	0.115430	0.110509	0.105587	0.100664	0.095742	0.090820	0.085897	0.081424	0.078441	0.075411	0.072374	0.069336	0.066297	0.063259	0.060221	0.057182	0.054388	0.052264	0.050117	0.047966	0.045815	0.043664	0.041512	0.039361	0.037209	0.035293	0.033902	0.032493	0.031082	0.029670	0.028258	0.026846	0.025433	0.024021	0.022860	0.022162	0.021449	0.020734	0.020018	0.019302	0.018586	0.017870	0.017154	0.016524	0.016027	0.015526	0.015025	0.014523	0.014021	0.013520	0.013018	0.012516	0.012091	0.011763	0.011433	0.011102	0.010771	0.010440	0.010109	0.009778	0.009447	0.009186	0.009000	0.008812	0.008623	0.008435	0.008246	0.008058	0.007869	0.007681	0.007619	0.007668	0.007715	0.007762	0.007809	0.007856	0.007903	0.007950	0.007997	0.008210	0.008542	0.008874	0.009205	0.009536	0.009867	0.010199	0.010530	0.010861	0.011182	0.011496	0.011810	0.012124	0.012439	0.012753	0.013067	0.013382	0.013696	0.013932	0.014130	0.014329	0.014527	0.014725	0.014923	0.015121	0.015319	0.015517	0.015802	0.016122	0.016442	0.016762	0.017082	0.017402	0.017722	0.018042	0.018364	0.018891	0.019483	0.020078	0.020672	0.021267	0.021862	0.022457	0.023052	0.023650	0.024615	0.025672	0.026733	
250 1
0.085053	0.045681	0.063575	0.012263	0.052632	0.041532	0.031525	0.001555	0.046404	0.085187	0.147569	0.053105	0.025413	0.003758	0.186253	0.008328	0.035177	0.017489	0.142426	0.074598	0.066112	0.085385	0.023930	0.049852	0.061136	0.013432	0.095268	0.137997	0.031891	0.001338	0.005183	0.165228	0.138419	0.072679	0.133233	0.354298	0.041876	0.140943	0.043972	0.061127	0.106333	0.152825	0.153952	0.163482	0.074890	0.179495	0.122657	0.090895	0.050681	0.209692	0.298661	0.393616	0.044304	0.003292	0.052529	0.084397	0.044026	0.078053	0.104903	0.004840	0.045045	0.010351	0.210750	0.238809	0.244346	0.136125	0.072599	0.310675	0.192427	0.065017	0.012897	0.030813	0.240212	0.265637	0.058844	0.207889	0.066664	0.398688	0.066407	0.178780	0.091685	0.106184	0.211084	0.233995	0.225770	0.388692	0.081585	0.045149	0.067777	0.100941	0.225638	0.019948	0.108097	0.180269	0.182708	0.210761	0.075935	0.070492	0.165776	0.032267	0.021540	0.262580	0.469364	0.204157	0.197095	0.160927	0.021027	0.012620	0.200803	0.000542	0.099026	0.034877	0.022502	0.113482	0.049378	0.264175	0.141331	0.076680	0.063118	0.332516	0.033074	0.240164	0.513226	0.255309	0.232842	0.291510	0.213152	0.027182	0.135095	0.039546	0.230737	0.013651	0.324771	0.224635	0.217508	0.126223	0.173793	0.601370	0.246634	0.189481	0.027898	0.007571	0.403160	0.147273	0.248778	0.034776	0.072313	0.297816	0.072213	0.043664	0.134154	0.173778	0.012915	0.181431	0.083418	0.038317	0.081075	0.048425	0.237574	0.074248	0.081933	0.125046	0.086974	0.285891	0.012284	0.496615	0.404187	0.291216	0.044724	0.521785	0.073166	0.404489	0.024274	0.148518	0.211881	0.370987	0.003139	0.036167	0.073830	0.154117	0.180103	0.074609	0.080164	0.183884	0.131618	0.127960	0.325497	0.145116	0.095985	0.013763	0.232855	0.116926	0.077763	0.024713	0.339230	0.036523	0.255136	0.410969	0.389566	0.352613	0.099054	0.083781	0.299954	0.310960	0.024823	0.288462	0.176943	0.274911	0.215350	0.291666	0.628208	0.171313	0.169365	0.006607	0.317074	0.383305	0.069940	0.148031	0.101028	0.396892	0.082414	0.269361	0.183285	0.644742	0.691295	0.144239	0.008648	0.656075	0.661348	0.390872	0.423921	0.159893	0.596184	0.810563	0.105326	0.276791	0.302175	0.422004	0.343940	0.119338	0.795679	0.496072	0.262171	0.640027	0.812678	0.018414	0.192620	0.018537	0.437667	0.144567	
250 1
0.007950	0.007997	0.008210	0.008542	0.008874	0.009205	0.009536	0.009867	0.010199	0.010530	0.010861	0.011182	0.011496	0.011810	0.012124	0.012439	0.012753	0.013067	0.013382	0.013696	0.013932	0.014130	0.014329	0.014527	0.014725	0.014923	0.015121	0.015319	0.015517	0.015802	0.016122	0.016442	0.016762	0.017082	0.017402	0.017722	0.018042	0.018364	0.018891	0.019483	0.020078	0.020672	0.021267	0.021862	0.022457	0.023052	0.023650	0.024615	0.025672	0.026733	0.027794	0.028856	0.029918	0.030980	0.032042	0.033116	0.035001	0.037046	0.039101	0.041157	0.043213	0.045270	0.047326	0.049383	0.051470	0.055014	0.058782	0.062564	0.066349	0.070135	0.073921	0.077707	0.081493	0.085347	0.091734	0.098403	0.105094	0.111791	0.118488	0.125186	0.131884	0.138582	0.145374	0.154548	0.163918	0.173306	0.182697	0.192089	0.201481	0.210873	0.220266	0.229672	0.239347	0.249037	0.258728	0.268420	0.278112	0.287804	0.297496	0.307187	0.316843	0.325972	0.335084	0.344195	0.353304	0.362414	0.371523	0.380633	0.389742	0.398725	0.406310	0.413873	0.421434	0.428993	0.436553	0.444112	0.451671	0.459230	0.466603	0.472328	0.478055	0.483781	0.489507	0.495233	0.500959	0.506685	0.512411	0.518044	0.523043	0.528050	0.533057	0.538064	0.543071	0.548078	0.553085	0.558092	0.563068	0.567870	0.572675	0.577481	0.582287	0.587092	0.591898	0.596704	0.601510	0.606306	0.611059	0.615813	0.620567	0.625322	0.630076	0.634830	0.639584	0.644339	0.648993	0.653292	0.657602	0.661913	0.666224	0.670536	0.674847	0.679159	0.683470	0.687597	0.691179	0.694780	0.698384	0.701988	0.705593	0.709197	0.712801	0.716406	0.719954	0.723366	0.726784	0.730202	0.733620	0.737039	0.740457	0.743875	0.747294	0.750688	0.754033	0.757381	0.760728	0.764076	0.767423	0.770771	0.774118	0.777466	0.780722	0.783828	0.786939	0.790050	0.793162	0.796274	0.799385	0.802497	0.805609	0.808605	0.811445	0.814289	0.817133	0.819978	0.822823	0.825668	0.828513	0.831357	0.834358	0.837532	0.840703	0.843873	0.847043	0.850213	0.853383	0.856553	0.859722	0.862476	0.864841	0.867212	0.869585	0.871958	0.874330	0.876703	0.879076	0.881449	0.883394	0.885012	0.886632	0.888252	0.889873	0.891493	0.893114	0.894735	0.896356	0.898040	0.899766	0.901491	0.903217	0.904942	0.906667	0.908393	0.910118	0.911843	0.913465	0.915032	0.916598	0.918165	0.919732	0.921298	
250 1
0.099054	0.083781	0.299954	0.310960	0.024823	0.288462	0.176943	0.274911	0.215350	0.291666	0.628208	0.171313	0.169365	0.006607	0.317074	0.383305	0.069940	0.148031	0.101028	0.396892	0.082414	0.269361	0.183285	0.644742	0.691295	0.144239	0.008648	0.656075	0.661348	0.390872	0.423921	0.159893	0.596184	0.810563	0.105326	0.276791	0.302175	0.422004	0.343940	0.119338	0.795679	0.496072	0.262171	0.640027	0.812678	0.018414	0.192620	0.018537	0.437667	0.144567	0.436700	0.253480	0.396158	0.440543	0.051276	0.043854	0.367521	0.065483	0.791626	0.435067	0.333511	0.240578	0.311739	0.197610	0.014212	0.439152	0.634242	0.199778	0.344516	0.387295	0.128639	0.166454	0.173371	0.206270	0.177332	0.022232	0.091686	0.154630	0.303216	0.031140	0.038466	0.034836	0.104827	0.070930	0.001991	0.152722	0.283682	0.260711	0.227947	0.328358	0.502064	0.150261	0.006588	0.016175	0.051024	0.056262	0.044702	0.156543	0.060247	0.194994	0.013296	0.200820	0.120172	0.023465	0.061825	0.041137	0.140571	0.418761	0.240168	0.112023	0.329155	0.105645	0.089246	0.072088	0.015982	0.030557	0.021214	0.031086	0.041944	0.077066	0.063652	0.092204	0.242793	0.193685	0.374348	0.264466	0.051882	0.056777	0.043159	0.052130	0.024442	0.083252	0.098400	0.041385	0.024526	0.046839	0.011662	0.043396	0.016826	0.006631	0.259934	0.152435	0.283713	0.001334	0.062826	0.030663	0.022020	0.016868	0.034918	0.039439	0.011421	0.017410	0.009488	0.116746	0.076539	0.059857	0.048295	0.022472	0.004581	0.008972	0.034474	0.044117	0.093410	0.074141	0.038159	0.136316	0.068785	0.035177	0.146444	0.076830	0.092436	0.059545	0.025116	0.154771	0.035395	0.067342	0.158126	0.192014	0.017867	0.204266	0.232637	0.040300	0.008900	0.035955	0.048457	0.004354	0.014986	0.019321	0.018198	0.022831	0.089178	0.148963	0.048593	0.027780	0.054456	0.075666	0.019483	0.050563	0.029101	0.063496	0.058192	0.090373	0.133923	0.016341	0.029801	0.039403	0.072439	0.127057	0.002847	0.006521	0.017639	0.016232	0.001073	0.018799	0.025610	0.036799	0.035707	0.008692	0.090446	0.027861	0.055178	0.143267	0.192007	0.004253	0.014788	0.034083	0.005389	0.083705	0.043635	0.012151	0.032727	0.028961	0.006451	0.021544	0.135622	0.117034	0.022759	0.028894	0.063219	0.062443	0.014863	0.029922	0.033147	0.068202	0.009809	0.070000	0.069906	0.028571	0.048207	0.073866	
250 1
0.811445	0.814289	0.817133	0.819978	0.822823	0.825668	0.828513	0.831357	0.834358	0.837532	0.840703	0.843873	0.847043	0.850213	0.853383	0.856553	0.859722	0.862476	0.864841	0.867212	0.869585	0.871958	0.874330	0.876703	0.879076	0.881449	0.883394	0.885012	0.886632	0.888252	0.889873	0.891493	0.893114	0.894735	0.896356	0.898040	0.899766	0.901491	0.903217	0.904942	0.906667	0.908393	0.910118	0.911843	0.913465	0.915032	0.916598	0.918165	0.919732	0.921298	0.922865	0.924432	0.925999	0.927651	0.929339	0.931028	0.932717	0.934406	0.936095	0.937784	0.939473	0.941160	0.942486	0.943688	0.944886	0.946084	0.947282	0.948479	0.949677	0.950874	0.952075	0.953659	0.955347	0.957040	0.958733	0.960427	0.962121	0.963814	0.965508	0.967197	0.968503	0.969726	0.970945	0.972163	0.973381	0.974598	0.975816	0.977034	0.978157	0.974112	0.969194	0.964223	0.959241	0.954257	0.949272	0.944287	0.939302	0.934045	0.917754	0.900068	0.882279	0.864470	0.846656	0.828840	0.811025	0.793209	0.775225	0.752445	0.729219	0.705956	0.682684	0.659411	0.636137	0.612863	0.589589	0.566566	0.548785	0.531345	0.513936	0.496535	0.479136	0.461737	0.444338	0.426940	0.409797	0.396865	0.384096	0.371345	0.358598	0.345853	0.333108	0.320363	0.307618	0.295028	0.284308	0.273628	0.262954	0.252281	0.241608	0.230936	0.220263	0.209591	0.199215	0.191654	0.184107	0.176563	0.169020	0.161477	0.153935	0.146392	0.138850	0.131651	0.127024	0.122376	0.117728	0.113079	0.108430	0.103782	0.099134	0.094485	0.090114	0.087379	0.084617	0.081852	0.079086	0.076320	0.073555	0.070789	0.068023	0.065500	0.064154	0.062777	0.061395	0.060014	0.058632	0.057250	0.055868	0.054486	0.053289	0.052803	0.052297	0.051788	0.051278	0.050768	0.050258	0.049749	0.049239	0.048817	0.048675	0.048523	0.048370	0.048217	0.048063	0.047910	0.047757	0.047603	0.047497	0.047511	0.047521	0.047531	0.047540	0.047549	0.047559	0.047568	0.047577	0.047590	0.047610	0.047630	0.047650	0.047670	0.047690	0.047710	0.047730	0.047750	0.047754	0.047732	0.047711	0.047690	0.047669	0.047648	0.047626	0.047605	0.047584	0.047539	0.047460	0.047382	0.047304	0.047226	0.047149	0.047071	0.046993	0.046915	0.046756	0.046500	0.046247	0.045993	0.045740	0.045487	0.045234	0.044981	0.044728	0.044448	0.044142	0.043836	0.043530	0.043224	0.042918	0.042612	0.042306	0.042000	
250 1
0.058192	0.090373	0.133923	0.016341	0.029801	0.039403	0.072439	0.127057	0.002847	0.006521	0.017639	0.016232	0.001073	0.018799	0.025610	0.036799	0.035707	0.008692	0.090446	0.027861	0.055178	0.143267	0.192007	0.004253	0.014788	0.034083	0.005389	0.083705	0.043635	0.012151	0.032727	0.028961	0.006451	0.021544	0.135622	0.117034	0.022759	0.028894	0.063219	0.062443	0.014863	0.029922	0.033147	0.068202	0.009809	0.070000	0.069906	0.028571	0.048207	0.073866	0.132334	0.046681	0.083866	0.055478	0.070262	0.135667	0.017488	0.026971	0.044785	0.097711	0.076105	0.031231	0.046474	0.028562	0.045218	0.049207	0.010892	0.010000	0.043391	0.010155	0.208945	0.254394	0.019029	0.009112	0.024971	0.157439	0.206676	0.119993	0.105390	0.027564	0.027682	0.034034	0.053339	0.168582	0.085550	0.006917	0.035381	0.007071	0.018549	0.073624	0.031154	0.025603	0.036162	0.210364	0.088771	0.030678	0.056386	0.013610	0.012339	0.001472	0.020305	0.075559	0.035925	0.033537	0.176516	0.220931	0.048077	0.021348	0.029005	0.114523	0.107232	0.076070	0.122445	0.073874	0.188186	0.107806	0.029791	0.074580	0.142965	0.152339	0.119015	0.053070	0.098160	0.047011	0.033465	0.092355	0.049880	0.205871	0.156059	0.045930	0.047978	0.178809	0.135865	0.024347	0.052255	0.015635	0.051882	0.114357	0.066879	0.130565	0.108048	0.100046	0.119991	0.152924	0.397292	0.172308	0.086831	0.036273	0.156578	0.084963	0.043928	0.053674	0.050231	0.028750	0.228197	0.219600	0.181375	0.149661	0.003183	0.116752	0.121237	0.045712	0.059557	0.025921	0.161788	0.127969	0.106867	0.178027	0.287512	0.153122	0.067653	0.056149	0.065013	0.009736	0.056013	0.030982	0.332172	0.298455	0.191432	0.037685	0.267371	0.155749	0.155399	0.027247	0.210156	0.146254	0.076283	0.043088	0.133974	0.131688	0.270280	0.516428	0.290234	0.304407	0.252153	0.153074	0.091934	0.169490	0.013467	0.176865	0.049234	0.174144	0.013149	0.312920	0.059363	0.312043	0.041297	0.135955	0.037514	0.051212	0.040201	0.033200	0.001733	0.051734	0.239006	0.056755	0.314054	0.242999	0.270668	0.010993	0.264046	0.420012	0.007429	0.210422	0.069350	0.178947	0.114753	0.325794	0.021936	0.024866	0.063838	0.093181	0.045327	0.088427	0.185330	0.115060	0.275300	0.255043	0.038770	0.089013	0.071977	0.191235	0.000774	0.036487	0.159010	0.177129	0.103051	0.127906	0.047589	0.035782	
250 1
0.047540	0.047549	0.047559	0.047568	0.047577	0.047590	0.047610	0.047630	0.047650	0.047670	0.047690	0.047710	0.047730	0.047750	0.047754	0.047732	0.047711	0.047690	0.047669	0.047648	0.047626	0.047605	0.047584	0.047539	0.047460	0.047382	0.047304	0.047226	0.047149	0.047071	0.046993	0.046915	0.046756	0.046500	0.046247	0.045993	0.045740	0.045487	0.045234	0.044981	0.044728	0.044448	0.044142	0.043836	0.043530	0.043224	0.042918	0.042612	0.042306	0.042000	0.041806	0.041705	0.041602	0.041499	0.041396	0.041293	0.041190	0.041087	0.040984	0.040999	0.041093	0.041187	0.041281	0.041375	0.041469	0.041562	0.041656	0.041750	0.041915	0.042118	0.042322	0.042526	0.042730	0.042934	0.043138	0.043342	0.043546	0.043825	0.044137	0.044450	0.044763	0.045076	0.045389	0.045702	0.046015	0.046328	0.046659	0.046997	0.047335	0.047672	0.048010	0.048348	0.048686	0.049024	0.049361	0.049640	0.049902	0.050163	0.050423	0.050684	0.050945	0.051205	0.051466	0.051726	0.051911	0.052078	0.052244	0.052410	0.052575	0.052741	0.052907	0.053073	0.053239	0.053424	0.053612	0.053800	0.053989	0.054177	0.054366	0.054554	0.054743	0.054934	0.055262	0.055610	0.055959	0.056308	0.056657	0.057006	0.057355	0.057704	0.058062	0.058695	0.059357	0.060021	0.060685	0.061350	0.062015	0.062679	0.063344	0.064017	0.064897	0.065792	0.066689	0.067585	0.068482	0.069379	0.070276	0.071173	0.072075	0.073075	0.074079	0.075084	0.076090	0.077095	0.078100	0.079105	0.080110	0.081153	0.082694	0.084248	0.085805	0.087361	0.088918	0.090475	0.092032	0.093588	0.095210	0.097503	0.099803	0.102104	0.104406	0.106707	0.109009	0.111310	0.113612	0.115977	0.118868	0.121756	0.124645	0.127533	0.130422	0.133311	0.136199	0.139088	0.141919	0.144380	0.146846	0.149313	0.151780	0.154247	0.156714	0.159181	0.161648	0.164146	0.166807	0.169464	0.172121	0.174778	0.177434	0.180091	0.182748	0.185404	0.188163	0.191346	0.194518	0.197689	0.200859	0.204028	0.207198	0.210368	0.213538	0.216973	0.221305	0.225609	0.229909	0.234208	0.238507	0.242806	0.247105	0.251404	0.256132	0.262059	0.267945	0.273824	0.279703	0.285581	0.291458	0.297336	0.303214	0.308955	0.314383	0.319822	0.325262	0.330703	0.336144	0.341585	0.347025	0.352466	0.358152	0.364301	0.370435	0.376566	0.382696	0.388827	0.394957	0.401088	0.407218	0.413837	0.421217	0.428574	
250 1
0.049234	0.174144	0.013149	0.312920	0.059363	0.312043	0.041297	0.135955	0.037514	0.051212	0.040201	0.033200	0.001733	0.051734	0.239006	0.056755	0.314054	0.242999	0.270668	0.010993	0.264046	0.420012	0.007429	0.210422	0.069350	0.178947	0.114753	0.325794	0.021936	0.024866	0.063838	0.093181	0.045327	0.088427	0.185330	0.115060	0.275300	0.255043	0.038770	0.089013	0.071977	0.191235	0.000774	0.036487	0.159010	0.177129	0.103051	0.127906	0.047589	0.035782	0.054414	0.112930	0.126703	0.025408	0.091497	0.075498	0.157430	0.017490	0.073086	0.218188	0.062026	0.014653	0.002256	0.003026	0.128419	0.164097	0.053958	0.035907	0.013530	0.060747	0.014606	0.027480	0.019363	0.002315	0.014244	0.062215	0.075975	0.010296	0.122850	0.033013	0.044457	0.048553	0.128674	0.147859	0.080216	0.059499	0.077401	0.134995	0.108224	0.046125	0.107754	0.008609	0.081794	0.075836	0.094627	0.001062	0.048962	0.053916	0.019083	0.076873	0.000318	0.168770	0.150833	0.148451	0.226367	0.155564	0.077218	0.072760	0.208667	0.140099	0.030273	0.054606	0.065976	0.114940	0.170939	0.092779	0.154552	0.010517	0.111950	0.046343	0.322763	0.068235	0.164026	0.043365	0.296266	0.459507	0.085698	0.035415	0.050165	0.062265	0.083946	0.211947	0.326514	0.041395	0.068610	0.085090	0.263965	0.155608	0.508275	0.370904	0.179468	0.128184	0.050836	0.074696	0.028615	0.082032	0.073160	0.118295	0.054501	0.132818	0.097524	0.033413	0.449667	0.058243	0.225048	0.254242	0.184921	0.092595	0.314792	0.302808	0.028811	0.119979	0.718823	0.405177	0.056878	0.267478	0.515578	0.037220	0.479261	0.809097	0.227573	0.386627	0.382457	0.109780	0.001416	0.009551	0.086218	0.073177	0.050235	0.149744	0.248297	0.009695	0.087939	0.196037	0.200138	0.153619	0.217747	0.191277	0.164965	0.034194	0.105871	0.287325	0.092871	0.124850	0.107523	0.017988	0.038777	0.254359	0.035036	0.118278	0.088399	0.181663	0.251655	0.060871	0.068966	0.004214	0.062965	0.204510	0.027526	0.263863	0.013580	0.072351	0.090611	0.196519	0.063717	0.022702	0.068020	0.029033	0.033468	0.077997	0.076021	0.002895	0.027118	0.081738	0.069199	0.105911	0.181568	0.018624	0.231061	0.353450	0.068754	0.251927	0.171787	0.084249	0.002237	0.006209	0.091227	0.168166	0.193194	0.137364	0.224041	0.030418	0.051439	0.000387	0.120305	0.057870	0.216819	0.085402	0.376693	0.608149	
250 1
0.182748	0.185404	0.188163	0.191346	0.194518	0.197689	0.200859	0.204028	0.207198	0.210368	0.213538	0.216973	0.221305	0.225609	0.229909	0.234208	0.238507	0.242806	0.247105	0.251404	0.256132	0.262059	0.267945	0.273824	0.279703	0.285581	0.291458	0.297336	0.303214	0.308955	0.314383	0.319822	0.325262	0.330703	0.336144	0.341585	0.347025	0.352466	0.358152	0.364301	0.370435	0.376566	0.382696	0.388827	0.394957	0.401088	0.407218	0.413837	0.421217	0.428574	0.435928	0.443281	0.450633	0.457985	0.465338	0.472690	0.478945	0.483789	0.488667	0.493551	0.498437	0.503323	0.508209	0.513095	0.517981	0.519611	0.517767	0.515990	0.514226	0.512465	0.510705	0.508945	0.507185	0.505424	0.499103	0.488755	0.478459	0.468173	0.457890	0.447609	0.437327	0.427046	0.416763	0.404565	0.390974	0.377389	0.363805	0.350223	0.336641	0.323059	0.309476	0.295897	0.284485	0.274373	0.264265	0.254158	0.244050	0.233942	0.223835	0.213727	0.203624	0.195853	0.189228	0.182618	0.176009	0.169401	0.162792	0.156184	0.149576	0.142972	0.138054	0.133804	0.129570	0.125339	0.121108	0.116878	0.112647	0.108416	0.104195	0.101465	0.099217	0.096984	0.094755	0.092525	0.090296	0.088067	0.085838	0.083628	0.083518	0.083949	0.084402	0.084861	0.085320	0.085779	0.086238	0.086697	0.087199	0.090871	0.095184	0.099532	0.103886	0.108242	0.112598	0.116955	0.121311	0.125739	0.133724	0.142269	0.150850	0.159437	0.168026	0.176616	0.185205	0.193795	0.202447	0.213458	0.224741	0.236045	0.247353	0.258663	0.269973	0.281283	0.292592	0.303990	0.317673	0.331551	0.345446	0.359344	0.373243	0.387143	0.401042	0.414941	0.428894	0.443888	0.458941	0.474001	0.489061	0.504122	0.519183	0.534244	0.549306	0.564128	0.575386	0.586523	0.597646	0.608765	0.619884	0.631002	0.642120	0.653238	0.663580	0.665201	0.666673	0.668125	0.669572	0.671017	0.672461	0.673906	0.675351	0.675118	0.659815	0.644506	0.629191	0.613871	0.598550	0.583229	0.567907	0.552585	0.536039	0.510957	0.485960	0.460972	0.435984	0.410995	0.386006	0.361017	0.336029	0.312190	0.294763	0.277212	0.259647	0.242080	0.224512	0.206945	0.189378	0.171810	0.156037	0.148399	0.140542	0.132657	0.124766	0.116875	0.108984	0.101092	0.093201	0.086354	0.083306	0.080144	0.076965	0.073784	0.070602	0.067420	0.064238	0.061056	0.058437	0.057500	0.056507	0.055506	0.054503	0.053500	
250 1
0.088399	0.181663	0.251655	0.060871	0.068966	0.004214	0.062965	0.204510	0.027526	0.263863	0.013580	0.072351	0.090611	0.196519	0.063717	0.022702	0.068020	0.029033	0.033468	0.077997	0.076021	0.002895	0.027118	0.081738	0.069199	0.105911	0.181568	0.018624	0.231061	0.353450	0.068754	0.251927	0.171787	0.084249	0.002237	0.006209	0.091227	0.168166	0.193194	0.137364	0.224041	0.030418	0.051439	0.000387	0.120305	0.057870	0.216819	0.085402	0.376693	0.608149	0.196925	0.232251	0.376364	0.280443	0.010304	0.235648	0.109972	0.079912	0.170294	0.573203	0.384929	0.143552	0.039097	0.127383	0.229189	0.023510	0.293538	0.332808	0.292933	0.111999	0.054737	0.275017	0.482117	0.095530	0.092833	0.129342	0.146846	0.209131	0.108893	0.152556	0.190100	0.314502	0.566413	0.552360	0.228386	0.228910	0.080390	0.580089	0.485912	0.072718	0.737862	0.585948	0.429772	0.224289	0.578336	0.152553	0.281023	0.041011	0.021280	0.139497	0.098057	0.100258	0.204205	0.270848	0.210273	0.256726	0.021612	0.069122	0.277305	0.206451	0.144880	0.150037	0.278726	0.550184	0.159631	0.094947	0.087456	0.081756	0.143468	0.050789	0.245267	0.109908	0.192431	0.564822	0.055004	0.099121	0.080910	0.010310	0.035968	0.181819	0.018280	0.002114	0.035228	0.184072	0.174120	0.183342	0.104659	0.244972	0.051260	0.193083	0.049234	0.016561	0.116496	0.225780	0.035984	0.113845	0.106965	0.018896	0.029769	0.149859	0.006200	0.155803	0.120390	0.092358	0.102170	0.072458	0.052132	0.035530	0.025563	0.088585	0.040993	0.176011	0.524184	0.076973	0.071782	0.150637	0.081624	0.058843	0.072559	0.136781	0.200922	0.065325	0.236129	0.294745	0.081716	0.023308	0.144020	0.355570	0.374892	0.200528	0.313951	0.049009	0.271326	0.033091	0.043979	0.002672	0.077668	0.073699	0.255231	0.371233	0.293636	0.016730	0.111667	0.041721	0.285094	0.271397	0.315672	0.412531	0.599440	0.277623	0.183424	0.034612	0.286364	0.416858	0.201518	0.121566	0.156401	0.283495	0.066284	0.015742	0.052817	0.107457	0.119131	0.129888	0.239866	0.120065	0.095974	0.264633	0.083966	0.077445	0.157067	0.621081	0.148771	0.707716	0.160936	0.069796	0.433752	0.552184	0.565265	0.235526	0.318797	0.278601	0.301759	0.007975	0.157325	0.129281	0.013506	0.106851	0.069950	0.123096	0.166768	0.368097	0.094163	0.147971	0.128749	0.035339	0.021385	0.132873	0.281410	0.145360	
250 1
0.659815	0.644506	0.629191	0.613871	0.598550	0.583229	0.567907	0.552585	0.536039	0.510957	0.485960	0.460972	0.435984	0.410995	0.386006	0.361017	0.336029	0.312190	0.294763	0.277212	0.259647	0.242080	0.224512	0.206945	0.189378	0.171810	0.156037	0.148399	0.140542	0.132657	0.124766	0.116875	0.108984	0.101092	0.093201	0.086354	0.083306	0.080144	0.076965	0.073784	0.070602	0.067420	0.064238	0.061056	0.058437	0.057500	0.056507	0.055506	0.054503	0.053500	0.052497	0.051494	0.050491	0.049964	0.050605	0.051207	0.051803	0.052397	0.052992	0.053586	0.054180	0.054774	0.056404	0.060121	0.063769	0.067407	0.071042	0.074677	0.078311	0.081946	0.085580	0.091476	0.101152	0.110711	0.120251	0.129786	0.139320	0.148854	0.158388	0.167922	0.179510	0.193932	0.208279	0.222613	0.236943	0.251273	0.265603	0.279932	0.294262	0.309731	0.326501	0.343243	0.359981	0.376716	0.393452	0.410187	0.426923	0.443658	0.459649	0.474935	0.490232	0.505532	0.520832	0.536132	0.551432	0.566732	0.582032	0.596793	0.611132	0.625474	0.639818	0.654161	0.668505	0.682848	0.697192	0.711533	0.722608	0.731584	0.740559	0.749534	0.758510	0.767486	0.776462	0.785439	0.794386	0.787713	0.772769	0.757754	0.742729	0.727704	0.712679	0.697654	0.682629	0.667577	0.642765	0.613754	0.584662	0.555558	0.526451	0.497344	0.468238	0.439131	0.410059	0.387883	0.368115	0.348416	0.328730	0.309045	0.289362	0.269678	0.249994	0.230366	0.217771	0.207151	0.196606	0.186075	0.175548	0.165020	0.154493	0.143966	0.133486	0.127380	0.122231	0.117132	0.112042	0.106955	0.101868	0.096781	0.091694	0.086659	0.084542	0.082930	0.081348	0.079773	0.078198	0.076624	0.075050	0.073476	0.071936	0.071804	0.071855	0.071919	0.071986	0.072053	0.072121	0.072188	0.072256	0.072441	0.076098	0.080086	0.084101	0.088123	0.092146	0.096170	0.100193	0.104217	0.108514	0.118666	0.129213	0.139796	0.150388	0.160982	0.171576	0.182170	0.192765	0.203457	0.215800	0.228209	0.240627	0.253046	0.265465	0.277885	0.290305	0.302724	0.314992	0.325375	0.335715	0.346050	0.356383	0.366716	0.377049	0.387381	0.397714	0.408018	0.418043	0.428066	0.438088	0.448111	0.458133	0.468156	0.478179	0.488201	0.498227	0.508275	0.518324	0.528373	0.538421	0.548470	0.558518	0.568567	0.578616	0.588436	0.596885	0.605355	0.613827	0.622300	0.630773	0.639246	0.647719	0.656192	
250 1
0.183424	0.034612	0.286364	0.416858	0.201518	0.121566	0.156401	0.283495	0.066284	0.015742	0.052817	0.107457	0.119131	0.129888	0.239866	0.120065	0.095974	0.264633	0.083966	0.077445	0.157067	0.621081	0.148771	0.707716	0.160936	0.069796	0.433752	0.552184	0.565265	0.235526	0.318797	0.278601	0.301759	0.007975	0.157325	0.129281	0.013506	0.106851	0.069950	0.123096	0.166768	0.368097	0.094163	0.147971	0.128749	0.035339	0.021385	0.132873	0.281410	0.145360	0.087950	0.177643	0.212971	0.151765	0.090316	0.074238	0.028679	0.053637	0.079702	0.028982	0.097054	0.008401	0.043451	0.208053	0.048478	0.105181	0.071224	0.039635	0.029105	0.004471	0.042721	0.021344	0.055258	0.000604	0.229651	0.158182	0.051247	0.063507	0.112093	0.049917	0.082748	0.013454	0.137763	0.296051	0.218516	0.389025	0.151368	0.157216	0.039988	0.013106	0.071650	0.192866	0.232612	0.090372	0.092714	0.031901	0.047803	0.091463	0.011125	0.056337	0.174468	0.506510	0.018753	0.277745	0.042026	0.019062	0.114391	0.150228	0.054420	0.517017	0.182853	0.124326	0.028084	0.150236	0.153754	0.066902	0.014106	0.349269	0.279084	0.064380	0.092734	0.085877	0.048760	0.161808	0.134148	0.070755	0.282340	0.047384	0.027271	0.251848	0.093490	0.183508	0.208137	0.369838	0.353501	0.563797	0.206863	0.298834	0.205718	0.161383	0.008241	0.015257	0.416274	0.211847	0.043187	0.010442	0.058276	0.027923	0.186332	0.193242	0.097291	0.513078	0.650118	0.130821	0.295794	0.401431	0.024928	0.144710	0.051917	0.023083	0.020615	0.002041	0.273112	0.163617	0.131485	0.125049	0.036346	0.095442	0.043557	0.024218	0.084923	0.013903	0.136256	0.066565	0.050640	0.040155	0.009111	0.043715	0.072928	0.018415	0.179241	0.042040	0.206173	0.006808	0.075189	0.016054	0.087211	0.062452	0.055174	0.097145	0.114276	0.013316	0.108883	0.023649	0.075617	0.046062	0.020541	0.069069	0.001063	0.110609	0.049236	0.060523	0.060499	0.126010	0.365282	0.055000	0.056428	0.057840	0.111757	0.076164	0.112896	0.007056	0.028898	0.051944	0.147634	0.030299	0.163499	0.112435	0.198353	0.009467	0.216441	0.059414	0.225027	0.235571	0.000103	0.064524	0.214603	0.029235	0.100303	0.060324	0.023924	0.000906	0.025923	0.099537	0.272597	0.104696	0.136959	0.021748	0.152802	0.147221	0.006131	0.043671	0.215672	0.121902	0.225599	0.024168	0.099782	0.260098	0.376183	0.327560	
250 1
0.150388	0.160982	0.171576	0.182170	0.192765	0.203457	0.215800	0.228209	0.240627	0.253046	0.265465	0.277885	0.290305	0.302724	0.314992	0.325375	0.335715	0.346050	0.356383	0.366716	0.377049	0.387381	0.397714	0.408018	0.418043	0.428066	0.438088	0.448111	0.458133	0.468156	0.478179	0.488201	0.498227	0.508275	0.518324	0.528373	0.538421	0.548470	0.558518	0.568567	0.578616	0.588436	0.596885	0.605355	0.613827	0.622300	0.630773	0.639246	0.647719	0.656192	0.664221	0.670067	0.675968	0.681875	0.687784	0.693693	0.699603	0.705512	0.711421	0.715127	0.710184	0.705490	0.700831	0.696177	0.691525	0.686873	0.682221	0.677569	0.668580	0.645685	0.623237	0.600855	0.578486	0.556119	0.533753	0.511387	0.489020	0.466767	0.444813	0.422849	0.400884	0.378918	0.356952	0.334985	0.313019	0.291053	0.271884	0.258754	0.245424	0.232062	0.218694	0.205324	0.191954	0.178584	0.165214	0.154264	0.147647	0.140892	0.134114	0.127331	0.120547	0.113763	0.106979	0.100195	0.095559	0.094100	0.092551	0.090987	0.089419	0.087850	0.086282	0.084713	0.083144	0.083686	0.086810	0.089874	0.092927	0.095977	0.099026	0.102076	0.105125	0.108175	0.113215	0.120273	0.127295	0.134310	0.141324	0.148337	0.155349	0.162362	0.169376	0.178145	0.188387	0.198613	0.208835	0.219056	0.229277	0.239498	0.249719	0.259939	0.269579	0.278818	0.288058	0.297298	0.306539	0.315780	0.325020	0.334261	0.343499	0.350964	0.357421	0.363871	0.370322	0.376772	0.383222	0.389673	0.396123	0.402574	0.409331	0.416231	0.423132	0.430034	0.436935	0.443837	0.450739	0.457641	0.464537	0.469865	0.474605	0.479330	0.484052	0.488774	0.493496	0.498217	0.502939	0.507627	0.507547	0.506012	0.504428	0.502834	0.501238	0.499642	0.498046	0.496451	0.494776	0.484940	0.473144	0.461255	0.449349	0.437440	0.425530	0.413620	0.401710	0.389743	0.374042	0.357633	0.341185	0.324728	0.308270	0.291812	0.275353	0.258895	0.242558	0.231773	0.221795	0.211872	0.201959	0.192049	0.182139	0.172230	0.162320	0.152549	0.147509	0.142971	0.138474	0.133986	0.129499	0.125013	0.120527	0.116041	0.111698	0.110743	0.110050	0.109381	0.108716	0.108053	0.107391	0.106728	0.106065	0.105613	0.109011	0.112602	0.116212	0.119828	0.123444	0.127061	0.130678	0.134295	0.138146	0.145209	0.152367	0.159536	0.166708	0.173880	0.181053	0.188226	0.195399	0.202851	0.213242	0.223670	
250 1
0.049236	0.060523	0.060499	0.126010	0.365282	0.055000	0.056428	0.057840	0.111757	0.076164	0.112896	0.007056	0.028898	0.051944	0.147634	0.030299	0.163499	0.112435	0.198353	0.009467	0.216441	0.059414	0.225027	0.235571	0.000103	0.064524	0.214603	0.029235	0.100303	0.060324	0.023924	0.000906	0.025923	0.099537	0.272597	0.104696	0.136959	0.021748	0.152802	0.147221	0.006131	0.043671	0.215672	0.121902	0.225599	0.024168	0.099782	0.260098	0.376183	0.327560	0.154482	0.047819	0.334692	0.365010	0.430495	0.408292	0.553757	0.192069	0.057256	0.024015	0.155905	0.263860	0.216473	0.258034	0.068434	0.175629	0.127498	0.198651	0.308172	0.244633	0.153373	0.029509	0.067334	0.059554	0.025644	0.108586	0.069064	0.045106	0.055820	0.030241	0.002148	0.024278	0.206618	0.124510	0.031429	0.066213	0.072783	0.042993	0.009801	0.007861	0.029942	0.054893	0.109512	0.096285	0.085868	0.068255	0.118300	0.041391	0.208211	0.211643	0.019316	0.129270	0.240168	0.027168	0.119093	0.038712	0.068317	0.037342	0.045139	0.057731	0.029780	0.128607	0.082346	0.074472	0.142968	0.055220	0.021456	0.009125	0.214899	0.220739	0.108252	0.007115	0.035372	0.003982	0.098523	0.106924	0.223165	0.101431	0.129868	0.152441	0.012322	0.045123	0.035073	0.053105	0.038801	0.163834	0.465226	0.108515	0.148799	0.049347	0.061332	0.144355	0.261323	0.079736	0.348148	0.096228	0.022698	0.126943	0.013604	0.066449	0.153630	0.261142	0.393396	0.103875	0.043657	0.041604	0.181497	0.052578	0.381828	0.590948	0.581016	0.366723	0.156327	0.214702	0.203944	0.427760	0.057735	0.060543	0.193005	0.121936	0.136570	0.085891	0.184700	0.448587	0.011431	0.060646	0.212046	0.193675	0.235965	0.408261	0.035898	0.736002	0.612026	0.441633	0.288460	0.155243	0.207899	0.066961	0.073727	0.013492	0.123420	0.002071	0.071180	0.015010	0.197344	0.208629	0.070421	0.034163	0.272019	0.264236	0.030685	0.050983	0.297652	0.045357	0.146567	0.002037	0.223426	0.119481	0.046189	0.072697	0.007979	0.033444	0.060775	0.076617	0.201321	0.028798	0.015296	0.137670	0.132423	0.164753	0.300152	0.126707	0.077487	0.016034	0.067806	0.237341	0.010351	0.077079	0.195789	0.180324	0.124919	0.237585	0.217281	0.073904	0.150453	0.078765	0.035254	0.098390	0.023766	0.017172	0.133508	0.347624	0.034255	0.392656	0.281532	0.248711	0.113590	0.265403	0.593874	0.647385	
250 1
0.275353	0.258895	0.242558	0.231773	0.221795	0.211872	0.201959	0.192049	0.182139	0.172230	0.162320	0.152549	0.147509	0.142971	0.138474	0.133986	0.129499	0.125013	0.120527	0.116041	0.111698	0.110743	0.110050	0.109381	0.108716	0.108053	0.107391	0.106728	0.106065	0.105613	0.109011	0.112602	0.116212	0.119828	0.123444	0.127061	0.130678	0.134295	0.138146	0.145209	0.152367	0.159536	0.166708	0.173880	0.181053	0.188226	0.195399	0.202851	0.213242	0.223670	0.234104	0.244539	0.254974	0.265410	0.275845	0.286281	0.296859	0.308642	0.320420	0.332199	0.343978	0.355757	0.367535	0.379314	0.391093	0.402691	0.413102	0.423529	0.433957	0.444385	0.454814	0.465242	0.475670	0.486098	0.496286	0.505207	0.514156	0.523108	0.532060	0.541013	0.549965	0.558918	0.567870	0.576316	0.582604	0.588952	0.595308	0.601665	0.608022	0.614380	0.620737	0.627095	0.630717	0.624923	0.619421	0.613960	0.608507	0.603056	0.597605	0.592153	0.586702	0.576625	0.553364	0.530558	0.507821	0.485098	0.462377	0.439657	0.416937	0.394217	0.372183	0.351736	0.331237	0.310729	0.290220	0.269710	0.249200	0.228690	0.208180	0.191477	0.182064	0.172416	0.162730	0.153034	0.143337	0.133640	0.123943	0.114245	0.106882	0.103219	0.099446	0.095654	0.091857	0.088060	0.084263	0.080465	0.076668	0.073654	0.071666	0.069653	0.067635	0.065616	0.063596	0.061577	0.059557	0.057538	0.056702	0.057152	0.057575	0.057994	0.058412	0.058829	0.059246	0.059664	0.060082	0.063613	0.069942	0.076234	0.082518	0.088799	0.095080	0.101361	0.107642	0.113925	0.124704	0.138814	0.152906	0.166992	0.181077	0.195162	0.209246	0.223330	0.237415	0.252143	0.267264	0.282386	0.297508	0.312630	0.327751	0.342873	0.357995	0.373112	0.386147	0.398138	0.410117	0.422095	0.434072	0.446050	0.458027	0.470004	0.481976	0.491940	0.501090	0.510223	0.519352	0.528481	0.537609	0.546738	0.555867	0.564983	0.572027	0.578387	0.584726	0.591061	0.597395	0.603729	0.610063	0.616398	0.622663	0.621006	0.617265	0.613436	0.609592	0.605744	0.601895	0.598047	0.594198	0.590134	0.569148	0.544674	0.520013	0.495315	0.470610	0.445903	0.421196	0.396488	0.371813	0.348746	0.325939	0.303148	0.280361	0.257574	0.234787	0.212000	0.189213	0.166738	0.156302	0.147298	0.138403	0.129531	0.120665	0.111799	0.102934	0.094068	0.085382	0.081466	0.077968	0.074507	0.071053	0.067601	
250 1
0.030685	0.050983	0.297652	0.045357	0.146567	0.002037	0.223426	0.119481	0.046189	0.072697	0.007979	0.033444	0.060775	0.076617	0.201321	0.028798	0.015296	0.137670	0.132423	0.164753	0.300152	0.126707	0.077487	0.016034	0.067806	0.237341	0.010351	0.077079	0.195789	0.180324	0.124919	0.237585	0.217281	0.073904	0.150453	0.078765	0.035254	0.098390	0.023766	0.017172	0.133508	0.347624	0.034255	0.392656	0.281532	0.248711	0.113590	0.265403	0.593874	0.647385	0.011150	0.317681	0.009094	0.175574	0.170566	0.153171	0.400193	0.611784	0.169912	0.106326	0.115031	0.091612	0.113433	0.111687	0.112972	0.159029	0.180865	0.211946	0.103597	0.393017	0.533402	0.012183	0.392600	0.337707	0.231091	0.089040	0.052146	0.047916	0.066922	0.118324	0.076367	0.284092	0.474919	0.047760	0.331454	0.184050	0.097203	0.236890	0.261749	0.256730	0.390661	0.295121	0.096863	0.330402	0.104631	0.118948	0.291362	0.056526	0.227101	0.132104	0.292347	0.716087	0.042945	0.314067	0.212269	0.251531	0.112826	0.031326	0.093455	0.168347	0.206790	0.105900	0.083614	0.053546	0.172803	0.163921	0.079328	0.168545	0.397369	0.100889	0.137310	0.084833	0.150018	0.009011	0.014631	0.007411	0.038627	0.135314	0.005672	0.016837	0.059187	0.090069	0.263702	0.338078	0.020212	0.024029	0.047275	0.031806	0.008415	0.062955	0.001577	0.037076	0.151527	0.065646	0.105076	0.111034	0.015592	0.024075	0.025981	0.000158	0.010775	0.196989	0.222835	0.031286	0.038314	0.009552	0.070477	0.130466	0.007246	0.162012	0.225429	0.076833	0.046529	0.143951	0.107563	0.059738	0.053451	0.042208	0.091492	0.079424	0.042045	0.269444	0.129838	0.029789	0.178836	0.057108	0.280761	0.138416	0.110570	0.031936	0.021053	0.017586	0.042660	0.020209	0.140192	0.193347	0.216030	0.096369	0.046912	0.077283	0.267100	0.007356	0.103653	0.088670	0.087795	0.030038	0.183856	0.037280	0.291068	0.050268	0.394103	0.153877	0.062055	0.000515	0.256789	0.121716	0.101008	0.014301	0.022803	0.133065	0.074708	0.014830	0.017169	0.487359	0.645157	0.157051	0.193093	0.319033	0.440542	0.335453	0.127668	0.047513	0.048030	0.051880	0.141079	0.150691	0.312850	0.311961	0.230395	0.273636	1.000000	0.237378	0.211582	0.059158	0.211031	0.162129	0.241715	0.216363	0.238783	0.072574	0.108514	0.415079	0.306883	0.117608	0.066804	0.268501	0.491739	0.119659	0.306158	0.582134	
250 1
0.572027	0.578387	0.584726	0.591061	0.597395	0.603729	0.610063	0.616398	0.622663	0.621006	0.617265	0.613436	0.609592	0.605744	0.601895	0.598047	0.594198	0.590134	0.569148	0.544674	0.520013	0.495315	0.470610	0.445903	0.421196	0.396488	0.371813	0.348746	0.325939	0.303148	0.280361	0.257574	0.234787	0.212000	0.189213	0.166738	0.156302	0.147298	0.138403	0.129531	0.120665	0.111799	0.102934	0.094068	0.085382	0.081466	0.077968	0.074507	0.071053	0.067601	0.064149	0.060698	0.057246	0.053963	0.054037	0.054313	0.054608	0.054908	0.055208	0.055509	0.055810	0.056111	0.056558	0.059243	0.062008	0.064783	0.067559	0.070336	0.073113	0.075891	0.078668	0.081737	0.088159	0.094644	0.101137	0.107632	0.114127	0.120623	0.127119	0.133615	0.140618	0.152268	0.163927	0.175588	0.187251	0.198915	0.210578	0.222242	0.233906	0.245916	0.260397	0.274855	0.289311	0.303767	0.318223	0.332679	0.347135	0.361591	0.375510	0.386378	0.397301	0.408232	0.419163	0.430094	0.441025	0.451956	0.462888	0.473074	0.479813	0.486644	0.493486	0.500331	0.507175	0.514020	0.520865	0.527710	0.533323	0.534371	0.535555	0.536758	0.537964	0.539171	0.540379	0.541586	0.542793	0.542053	0.535384	0.528912	0.522468	0.516031	0.509594	0.503158	0.496722	0.490286	0.480210	0.461055	0.442208	0.423408	0.404618	0.385830	0.367042	0.348254	0.329467	0.310487	0.291114	0.271754	0.252396	0.233038	0.213680	0.194323	0.174965	0.155608	0.140487	0.132576	0.124441	0.116267	0.108085	0.099901	0.091716	0.083532	0.075347	0.069718	0.067673	0.065532	0.063374	0.061213	0.059050	0.056887	0.054724	0.052561	0.050994	0.050120	0.049231	0.048339	0.047446	0.046553	0.045661	0.044768	0.043875	0.042998	0.042136	0.041274	0.040411	0.039549	0.038687	0.037825	0.036963	0.036101	0.035587	0.035352	0.035114	0.034875	0.034636	0.034398	0.034159	0.033920	0.033681	0.033845	0.034271	0.034697	0.035124	0.035550	0.035976	0.036402	0.036828	0.037254	0.037582	0.037859	0.038134	0.038410	0.038686	0.038961	0.039237	0.039513	0.039788	0.040065	0.040342	0.040619	0.040897	0.041174	0.041451	0.041728	0.042005	0.042285	0.043124	0.044161	0.045204	0.046248	0.047293	0.048337	0.049381	0.050426	0.051480	0.053803	0.056491	0.059192	0.061896	0.064600	0.067304	0.070008	0.072713	0.075454	0.081772	0.088891	0.096050	0.103217	0.110386	0.117555	0.124724	0.131893	
250 1
0.394103	0.153877	0.062055	0.000515	0.256789	0.121716	0.101008	0.014301	0.022803	0.133065	0.074708	0.014830	0.017169	0.487359	0.645157	0.157051	0.193093	0.319033	0.440542	0.335453	0.127668	0.047513	0.048030	0.051880	0.141079	0.150691	0.312850	0.311961	0.230395	0.273636	1.000000	0.237378	0.211582	0.059158	0.211031	0.162129	0.241715	0.216363	0.238783	0.072574	0.108514	0.415079	0.306883	0.117608	0.066804	0.268501	0.491739	0.119659	0.306158	0.582134	0.152908	0.230834	0.086355	0.035970	0.037303	0.140084	0.235627	0.535294	0.210842	0.036310	0.081877	0.220447	0.282047	0.061806	0.029411	0.619529	0.432464	0.228685	0.455287	0.450947	0.285529	0.124168	0.638167	0.863717	0.190322	0.211114	0.489069	0.267188	0.199106	0.685838	0.189037	0.306972	0.088339	0.615139	0.188950	0.238763	0.292907	0.124956	0.073830	0.104742	0.098318	0.142850	0.048321	0.039959	0.013462	0.111551	0.065744	0.040051	0.178772	0.316400	0.077740	0.083116	0.035397	0.070001	0.035337	0.055490	0.025285	0.023606	0.046417	0.048695	0.043171	0.111768	0.166751	0.149512	0.048991	0.034013	0.013062	0.240943	0.078436	0.022812	0.318211	0.004799	0.061651	0.069795	0.023220	0.241856	0.112702	0.067711	0.065032	0.091650	0.032617	0.046192	0.082510	0.088964	0.146159	0.226673	0.056169	0.063899	0.107092	0.076663	0.075834	0.161545	0.097373	0.063299	0.067105	0.080097	0.192943	0.185483	0.004235	0.158222	0.045689	0.173072	0.213448	0.067202	0.105985	0.090601	0.049247	0.083780	0.179245	0.355077	0.122195	0.090475	0.232631	0.020610	0.123170	0.190837	0.000147	0.565061	0.777972	0.211147	0.132358	0.025037	0.136259	0.006475	0.338412	0.130620	0.062476	0.024198	0.211043	0.562702	0.010273	0.418826	0.138678	0.031541	0.132914	0.036334	0.332803	0.774423	0.125786	0.093653	0.299546	0.071206	0.398861	0.195490	0.206112	0.184699	0.516278	0.285210	0.346081	0.393006	0.287101	0.112295	0.350838	0.293511	0.578399	0.501209	0.724747	0.177138	0.098778	0.080232	0.579102	0.173576	0.639337	0.111138	0.404013	0.354847	0.135373	0.099697	0.168716	0.137382	0.585467	0.642160	0.019600	0.015079	0.239571	0.097004	0.122606	0.048496	0.175121	0.111726	0.190758	0.128910	0.009763	0.463433	0.670035	0.216238	0.161442	0.219990	0.183240	0.129241	0.165919	0.065484	0.169265	0.855727	0.579822	0.444378	0.420700	0.588656	0.083547	0.430726	
250 1
0.035124	0.035550	0.035976	0.036402	0.036828	0.037254	0.037582	0.037859	0.038134	0.038410	0.038686	0.038961	0.039237	0.039513	0.039788	0.040065	0.040342	0.040619	0.040897	0.041174	0.041451	0.041728	0.042005	0.042285	0.043124	0.044161	0.045204	0.046248	0.047293	0.048337	0.049381	0.050426	0.051480	0.053803	0.056491	0.059192	0.061896	0.064600	0.067304	0.070008	0.072713	0.075454	0.081772	0.088891	0.096050	0.103217	0.110386	0.117555	0.124724	0.131893	0.139090	0.147890	0.156974	0.166075	0.175180	0.184285	0.193390	0.202496	0.211601	0.220732	0.230951	0.241315	0.251690	0.262067	0.272445	0.282822	0.293200	0.303578	0.314004	0.325934	0.338011	0.350100	0.362192	0.374285	0.386377	0.398470	0.410563	0.422714	0.436164	0.449704	0.463253	0.476803	0.490354	0.503905	0.517456	0.531007	0.544463	0.556288	0.568044	0.579792	0.591538	0.603284	0.615029	0.626775	0.638520	0.649716	0.653953	0.658017	0.662060	0.666098	0.670134	0.674170	0.678206	0.682242	0.685291	0.678584	0.671800	0.665002	0.658201	0.651398	0.644595	0.637792	0.630989	0.622263	0.598467	0.574763	0.551064	0.527363	0.503661	0.479958	0.456256	0.432553	0.408691	0.383846	0.359016	0.334188	0.309360	0.284532	0.259704	0.234876	0.210048	0.187733	0.178001	0.167964	0.157888	0.147806	0.137723	0.127640	0.117557	0.107474	0.098902	0.096386	0.093696	0.090984	0.088266	0.085548	0.082830	0.080112	0.077394	0.075228	0.074864	0.074443	0.074013	0.073582	0.073150	0.072719	0.072287	0.071855	0.071779	0.072659	0.073507	0.074349	0.075190	0.076031	0.076872	0.077713	0.078555	0.079241	0.079588	0.079946	0.080306	0.080667	0.081027	0.081387	0.081748	0.082108	0.082909	0.084512	0.086090	0.087663	0.089236	0.090808	0.092380	0.093952	0.095524	0.099022	0.105416	0.111727	0.118024	0.124317	0.130610	0.136903	0.143196	0.149488	0.157915	0.168997	0.180015	0.191022	0.202027	0.213030	0.224034	0.235037	0.246041	0.258022	0.271012	0.283984	0.296952	0.309920	0.322887	0.335853	0.348820	0.361787	0.374830	0.387936	0.401042	0.414148	0.427254	0.440360	0.453465	0.466571	0.479677	0.492685	0.505624	0.518563	0.531503	0.544443	0.557382	0.570322	0.583262	0.596199	0.607788	0.618596	0.629400	0.640204	0.651008	0.661811	0.672615	0.683419	0.694221	0.704233	0.713871	0.723503	0.733134	0.742766	0.752397	0.762029	0.771660	0.781287	0.789676	0.797592	
201 1
0.287101	0.112295	0.350838	0.293511	0.578399	0.501209	0.724747	0.177138	0.098778	0.080232	0.579102	0.173576	0.639337	0.111138	0.404013	0.354847	0.135373	0.099697	0.168716	0.137382	0.585467	0.642160	0.019600	0.015079	0.239571	0.097004	0.122606	0.048496	0.175121	0.111726	0.190758	0.128910	0.009763	0.463433	0.670035	0.216238	0.161442	0.219990	0.183240	0.129241	0.165919	0.065484	0.169265	0.855727	0.579822	0.444378	0.420700	0.588656	0.083547	0.430726	0.245558	0.004941	0.044225	0.026493	0.398365	0.332995	0.209576	0.033028	0.063198	0.152170	0.094318	0.143788	0.269791	0.056812	0.261607	0.245127	0.266867	0.138825	0.076159	0.154791	0.211721	0.051579	0.014681	0.091640	0.049234	0.164139	0.069658	0.008361	0.044168	0.148995	0.269177	0.158979	0.050035	0.034580	0.029992	0.066325	0.165537	0.033135	0.035028	0.013940	0.043500	0.055665	0.408733	0.118834	0.121489	0.095272	0.019227	0.068275	0.162398	0.214443	0.155444	0.067804	0.197674	0.000983	0.014647	0.075161	0.114333	0.138687	0.027558	0.036666	0.001813	0.033457	0.177497	0.044744	0.021911	0.131150	0.016499	0.120174	0.066728	0.139242	0.037236	0.249804	0.293046	0.314034	0.373934	0.381502	0.078398	0.429589	0.050276	0.024774	0.196619	0.361777	0.007219	0.233843	0.145287	0.206132	0.182599	0.073772	0.112372	0.003460	0.261253	0.332376	0.124423	0.281851	0.362217	0.080107	0.231291	0.154036	0.379694	0.278791	0.136684	0.104151	0.410296	0.060129	0.165968	0.352465	0.562251	0.331757	0.406200	0.260922	0.105762	0.186352	0.412024	0.044814	0.241898	0.616277	0.579970	0.062969	0.112727	0.187155	0.385457	0.221445	0.280699	0.144449	0.206490	0.205574	0.017106	0.051923	0.259850	0.873751	0.639071	0.429814	0.055583	0.331413	0.742625	0.394682	0.560658	0.029552	0.036406	0.326101	0.385697	0.641564	0.273438	0.113600	0.112670	0.168584	0.536692	0.335201	0.292022	0.440642	0.139625	
201 1
0.224034	0.235037	0.246041	0.258022	0.271012	0.283984	0.296952	0.309920	0.322887	0.335853	0.348820	0.361787	0.374830	0.387936	0.401042	0.414148	0.427254	0.440360	0.453465	0.466571	0.479677	0.492685	0.505624	0.518563	0.531503	0.544443	0.557382	0.570322	0.583262	0.596199	0.607788	0.618596	0.629400	0.640204	0.651008	0.661811	0.672615	0.683419	0.694221	0.704233	0.713871	0.723503	0.733134	0.742766	0.752397	0.762029	0.771660	0.781287	0.789676	0.797592	0.805495	0.813397	0.821298	0.829199	0.837100	0.845001	0.852862	0.854750	0.854779	0.854746	0.854702	0.854655	0.854608	0.854561	0.854515	0.854406	0.847788	0.839568	0.831276	0.822970	0.814661	0.806352	0.798042	0.789733	0.781228	0.759351	0.734886	0.710277	0.685639	0.660995	0.636351	0.611706	0.587061	0.562288	0.531520	0.499857	0.468136	0.436402	0.404665	0.372928	0.341191	0.309454	0.278129	0.261545	0.246561	0.231706	0.216879	0.202058	0.187238	0.172419	0.157600	0.143108	0.136609	0.130751	0.124949	0.119160	0.113373	0.107587	0.101801	0.096015	0.090388	0.087708	0.085184	0.082675	0.080170	0.077666	0.075162	0.072659	0.070155	0.067782	0.067257	0.066789	0.066327	0.065867	0.065408	0.064949	0.064489	0.064030	0.063622	0.063765	0.063916	0.064067	0.064219	0.064371	0.064523	0.064675	0.064828	0.065124	0.066673	0.068218	0.069764	0.071310	0.072856	0.074402	0.075948	0.077494	0.079899	0.088038	0.096110	0.104175	0.112239	0.120304	0.128369	0.136434	0.144499	0.153876	0.170302	0.186580	0.202840	0.219098	0.235355	0.251613	0.267870	0.284128	0.300848	0.319582	0.338260	0.356931	0.375601	0.394270	0.412939	0.431609	0.450278	0.468296	0.484033	0.499839	0.515656	0.531474	0.547292	0.563111	0.578930	0.594748	0.610002	0.623620	0.637295	0.650977	0.664661	0.678346	0.692031	0.705715	0.719400	0.732442	0.743969	0.755547	0.767133	0.778720	0.790307	0.801895	0.813483	0.825071	0.835871	
