7
100 1
0.000000	0.359708	0.309000	0.189766	0.270065	0.251468	0.366988	0.320320	0.230828	0.194062	0.249775	0.332569	0.309772	0.220243	0.245670	0.283006	0.314482	0.354146	0.266594	0.128241	0.339926	0.294089	0.377973	0.296094	0.355677	0.348774	0.271810	0.290838	0.200303	0.415529	0.260980	0.277256	0.296688	0.289600	0.307217	0.349729	0.192348	0.298696	0.231094	0.258798	0.220724	0.364999	0.376370	0.331564	0.246969	0.382262	0.138345	0.234292	0.370414	0.229894	0.310101	0.195145	0.315858	0.343816	0.174949	0.232985	0.241434	0.198830	0.314622	0.150072	0.273664	0.364511	0.332750	0.260751	0.160682	0.105329	0.174928	0.260765	0.384721	0.431104	0.511965	0.400271	0.160716	0.251139	0.275758	0.185385	0.352628	0.321798	0.252761	0.284989	0.289637	0.315148	0.216151	0.276918	0.281381	0.294275	0.252193	0.272801	0.266095	0.302365	0.254916	0.274828	0.300057	0.171280	0.305971	0.289610	0.282475	0.206452	0.295604	0.257896	
100 1
0.000000	0.065716	0.059766	0.058761	0.061751	0.065616	0.070488	0.082391	0.094233	0.109484	0.129057	0.148544	0.169077	0.189842	0.210171	0.227482	0.244829	0.261024	0.275835	0.290645	0.302778	0.314355	0.325958	0.337891	0.349818	0.361422	0.372661	0.383913	0.395627	0.407430	0.419614	0.434016	0.448380	0.463464	0.479324	0.495143	0.508920	0.522332	0.535252	0.545570	0.555938	0.566602	0.577563	0.588497	0.598125	0.607534	0.616687	0.624570	0.632481	0.640338	0.648140	0.655949	0.664059	0.672214	0.680275	0.687860	0.695456	0.702805	0.709927	0.717088	0.726060	0.735288	0.743982	0.750164	0.756410	0.761119	0.764499	0.767782	0.766198	0.763980	0.757982	0.735968	0.714377	0.679955	0.635027	0.589929	0.534622	0.478102	0.424523	0.383108	0.341351	0.307854	0.280760	0.253743	0.230817	0.208335	0.186676	0.168019	0.149276	0.131739	0.115087	0.098538	0.085439	0.072683	0.061050	0.053331	0.045497	0.039004	0.033446	0.027944	
100 1
0.256369	0.262401	0.275943	0.248725	0.300161	0.265373	0.304269	0.338870	0.273648	0.292508	0.281872	0.283419	0.334509	0.308392	0.320894	0.312264	0.291199	0.273062	0.280098	0.260866	0.290443	0.238092	0.282460	0.310282	0.281953	0.272759	0.281053	0.261077	0.306047	0.274833	0.241252	0.313810	0.318733	0.341905	0.258788	0.265408	0.262535	0.253443	0.275219	0.309594	0.313558	0.160900	0.289639	0.269004	0.315099	0.113313	0.238140	0.286262	0.334038	0.228226	0.296737	0.307638	0.264026	0.304460	0.289699	0.344800	0.260917	0.276800	0.406185	0.254070	0.225565	0.399964	0.268249	0.244866	0.387198	0.301980	0.389577	0.312107	0.351685	0.274579	0.181968	0.281866	0.287083	0.126063	0.176583	0.218645	0.229271	0.249866	0.299173	0.328071	0.164575	0.178213	0.197069	0.152662	0.060640	0.323599	0.326583	0.306982	0.387116	0.327473	0.281130	0.072533	0.324508	0.546988	0.445921	0.422647	0.249612	0.349394	0.300129	0.277377	
100 1
0.024127	0.020462	0.017234	0.015434	0.013590	0.012076	0.010779	0.009497	0.008607	0.007748	0.006983	0.006506	0.006021	0.005910	0.006030	0.006179	0.006982	0.007833	0.008677	0.009487	0.010299	0.010922	0.011435	0.011959	0.012766	0.013592	0.014610	0.016168	0.017709	0.020024	0.022766	0.025624	0.030791	0.036091	0.042660	0.052573	0.062383	0.077110	0.094393	0.112038	0.135960	0.160198	0.184692	0.209763	0.234816	0.258862	0.282415	0.305750	0.325469	0.345028	0.363127	0.377796	0.392573	0.406105	0.419057	0.431970	0.444412	0.456837	0.469217	0.481502	0.493789	0.505284	0.516436	0.527467	0.536843	0.546167	0.555327	0.564150	0.572984	0.581690	0.590344	0.598955	0.607015	0.615060	0.622868	0.630204	0.637556	0.645511	0.653698	0.661740	0.667917	0.674057	0.679503	0.683645	0.687826	0.692211	0.696668	0.701095	0.705151	0.709202	0.713368	0.717741	0.722105	0.725530	0.728637	0.731843	0.736206	0.740581	0.744491	0.747610	
100 1
0.063417	0.392219	0.399737	0.255162	0.269252	0.336017	0.168265	0.350485	0.321517	0.276620	0.312857	0.291518	0.215485	0.423857	0.256625	0.289250	0.273896	0.254623	0.280026	0.300952	0.264235	0.255792	0.300689	0.325895	0.292262	0.262966	0.333160	0.284449	0.302209	0.257211	0.291744	0.255519	0.300119	0.279673	0.289485	0.274830	0.289023	0.238551	0.259326	0.298506	0.292626	0.252102	0.281117	0.291394	0.280956	0.270407	0.296554	0.296520	0.284050	0.328749	0.279450	0.306441	0.277900	0.306837	0.307657	0.326987	0.278643	0.222859	0.332904	0.304972	0.311101	0.348807	0.277862	0.267668	0.318552	0.329092	0.228202	0.308547	0.289117	0.278806	0.285767	0.289846	0.338513	0.290938	0.251908	0.251545	0.295465	0.335274	0.300041	0.247547	0.245610	0.266039	0.208016	0.215706	0.290375	0.311580	0.333104	0.302597	0.313757	0.270182	0.220795	0.198551	0.275280	0.289833	0.239999	0.292131	0.269898	0.245443	0.269824	0.296015	
100 1
0.750701	0.741788	0.729052	0.713155	0.667360	0.621360	0.569793	0.509338	0.449187	0.400612	0.355493	0.311680	0.278692	0.245737	0.214959	0.187480	0.159951	0.138636	0.119061	0.100340	0.088327	0.076308	0.066326	0.059268	0.052156	0.047821	0.044214	0.040890	0.039580	0.038262	0.037341	0.036961	0.036570	0.036510	0.036530	0.036556	0.036608	0.036659	0.036664	0.036607	0.036551	0.036378	0.036178	0.035919	0.035260	0.034606	0.033889	0.033096	0.032310	0.031948	0.031676	0.031479	0.031728	0.031971	0.032348	0.032879	0.033409	0.034170	0.034976	0.035794	0.036668	0.037542	0.038318	0.038990	0.039660	0.040129	0.040560	0.040998	0.041486	0.041974	0.042667	0.043574	0.044488	0.046082	0.047792	0.049606	0.051936	0.054255	0.056716	0.059317	0.061937	0.065757	0.069767	0.074119	0.080110	0.086064	0.092808	0.100286	0.107737	0.114260	0.120647	0.127115	0.133993	0.140862	0.148440	0.156643	0.164893	0.175643	0.186727	0.198613	
100 1
0.271970	0.234932	0.288574	0.325957	0.271051	0.390066	0.262919	0.202599	0.185343	0.309131	0.128955	0.279722	0.189774	0.269050	0.204941	0.149760	0.320459	0.257088	0.325568	0.317392	0.231528	0.250833	0.293749	0.249556	0.254196	0.281308	0.312147	0.279531	0.293824	0.326687	0.279283	0.317515	0.279876	0.293306	0.284183	0.254984	0.335713	0.268663	0.296881	0.296493	0.172291	0.319896	0.247951	0.268304	0.301331	0.356549	0.317516	0.307644	0.227268	0.300783	0.268344	0.281876	0.311525	0.256757	0.150504	0.168818	0.230755	0.272609	0.209803	0.299006	0.318154	0.354838	0.340262	0.351171	0.327416	0.282157	0.288846	0.264595	0.299235	0.309811	0.317279	0.285401	0.250657	0.174998	0.253638	0.289340	0.236816	0.260630	0.229799	0.201625	0.254728	0.262393	0.166215	0.340679	0.306764	0.417656	0.403443	0.227862	0.287697	0.295764	0.385314	0.331809	0.278506	0.369754	0.237291	0.252809	0.242662	0.337301	0.308616	0.409742	
100 1
0.213907	0.229113	0.243687	0.257744	0.271842	0.287483	0.303312	0.319789	0.338876	0.357890	0.373311	0.385914	0.398136	0.395416	0.391019	0.381845	0.354680	0.328024	0.296528	0.261396	0.226514	0.199503	0.173299	0.149163	0.132331	0.115285	0.101825	0.090900	0.080119	0.073894	0.068091	0.063936	0.065319	0.066535	0.073784	0.085048	0.096664	0.117970	0.140089	0.163986	0.193417	0.222680	0.256029	0.291951	0.327987	0.366694	0.405602	0.441931	0.470373	0.499059	0.512114	0.515891	0.517934	0.481235	0.441924	0.395737	0.330440	0.265753	0.213412	0.167949	0.123612	0.101714	0.081161	0.064108	0.056225	0.048055	0.043512	0.040899	0.038498	0.039815	0.041327	0.045131	0.054748	0.064189	0.083723	0.108296	0.133569	0.170029	0.207003	0.245900	0.289327	0.332607	0.373358	0.412926	0.452338	0.489513	0.526600	0.559330	0.582151	0.605222	0.585649	0.547202	0.506202	0.432224	0.357142	0.289879	0.239662	0.188926	0.154668	0.127297	
100 1
0.264228	0.392261	0.350902	0.289897	0.289219	0.324611	0.228534	0.344533	0.326664	0.288089	0.238380	0.327369	0.288106	0.279813	0.283482	0.304028	0.217142	0.320183	0.302786	0.365990	0.281292	0.182934	0.258047	0.351229	0.256561	0.336691	0.267517	0.373619	0.293807	0.262409	0.408595	0.243265	0.315834	0.214003	-0.109085	0.339448	0.213353	0.250247	0.344530	0.280601	0.352712	0.318143	0.265117	0.317140	0.288600	0.256377	0.302942	0.283047	0.291221	0.295165	0.284918	0.355843	0.306167	0.150525	0.290246	0.287097	0.448850	0.297409	0.249758	0.291185	0.158581	0.379227	0.276111	0.293210	0.381608	0.208762	0.320280	0.317452	0.248755	0.249493	0.164610	0.162624	0.124123	0.256113	0.259440	0.257587	0.302682	0.248863	0.257611	0.291075	0.250185	0.267816	0.341219	0.306781	0.287607	0.277636	0.322195	0.291550	0.306145	0.265428	0.271081	0.357034	0.311526	0.341871	0.305620	0.236059	0.307850	0.297164	0.347298	0.337275	
100 1
0.100995	0.087438	0.074238	0.064144	0.060307	0.056285	0.055251	0.055394	0.056295	0.066455	0.076823	0.093164	0.120972	0.148437	0.179257	0.211323	0.243003	0.269809	0.296531	0.322952	0.348840	0.374743	0.400698	0.426671	0.452305	0.474260	0.496170	0.515583	0.530705	0.545868	0.540701	0.528925	0.512844	0.455442	0.397705	0.340324	0.283578	0.226889	0.186998	0.152229	0.119276	0.101654	0.084098	0.071964	0.068184	0.064231	0.069392	0.077160	0.086079	0.104195	0.122315	0.143872	0.170450	0.196885	0.221328	0.245240	0.268334	0.284986	0.301660	0.318834	0.336695	0.354505	0.367876	0.380137	0.390426	0.386199	0.382070	0.366209	0.334979	0.304026	0.263771	0.221347	0.180951	0.155504	0.129903	0.110643	0.099262	0.087789	0.084253	0.082439	0.082188	0.091671	0.101032	0.114668	0.133336	0.151981	0.177482	0.204370	0.231821	0.262317	0.292767	0.321538	0.348448	0.375353	0.399120	0.422299	0.444437	0.460753	0.477172	0.478562	
100 1
0.321983	0.284251	0.333641	0.355530	0.284313	0.220093	0.116380	0.226475	0.286720	0.310702	0.277952	0.305493	0.279657	0.270625	0.291325	0.300862	0.270805	0.343598	0.308098	0.265799	0.255674	0.313719	0.318762	0.336480	0.215506	0.323639	0.313630	0.314847	0.264178	0.155793	0.318196	0.376160	0.354556	0.258076	0.263354	0.363710	0.276213	0.292152	0.236011	0.364191	0.387283	0.313598	0.282472	0.270188	0.327627	0.326382	0.263289	0.193429	0.319951	0.304433	0.240577	0.279468	0.256472	0.269745	0.310711	0.323502	0.291280	0.201085	0.328442	0.379076	0.241396	0.084085	0.290628	0.289744	0.436409	0.259297	0.297370	0.271032	0.310178	0.223764	0.350826	0.253749	0.280337	0.335470	0.448881	0.316369	0.372712	0.345242	0.310634	0.263013	0.307219	0.394732	0.294128	0.201520	0.297982	0.303886	0.208745	0.313694	0.284596	0.316224	0.227029	0.319269	0.304547	0.283373	0.314656	0.302487	0.252808	0.268443	0.306583	0.252428	
100 1
0.464129	0.449417	0.397603	0.339330	0.281601	0.228715	0.175717	0.136846	0.112056	0.087264	0.075244	0.065279	0.056210	0.051084	0.045875	0.043926	0.045058	0.046387	0.060564	0.076649	0.096450	0.133317	0.169778	0.207616	0.246722	0.285667	0.317659	0.348697	0.378286	0.401704	0.425277	0.444930	0.461260	0.477095	0.470247	0.460544	0.439980	0.374729	0.310685	0.249571	0.190692	0.132609	0.105768	0.082529	0.062461	0.053902	0.045030	0.041658	0.042468	0.043417	0.049954	0.057078	0.066347	0.083400	0.100228	0.124831	0.155005	0.185365	0.222069	0.259376	0.294641	0.322636	0.350852	0.372791	0.390474	0.407708	0.412057	0.415291	0.413690	0.396494	0.379771	0.343642	0.295090	0.246464	0.196535	0.146508	0.103731	0.083410	0.062382	0.050943	0.045332	0.039869	0.037336	0.035007	0.032715	0.030487	0.028259	0.027055	0.026434	0.025888	0.026883	0.027973	0.028965	0.029666	0.030377	0.031091	0.031808	0.032614	0.035204	0.037891	
100 1
0.364361	0.301564	0.281771	0.300009	0.307425	0.243956	0.233374	0.265516	0.263586	0.270695	0.270759	0.165825	0.213575	0.240676	0.334171	0.268297	0.319511	0.271632	0.084188	0.455613	0.307645	0.073012	0.316042	0.284435	0.227442	0.239506	0.379243	0.240753	0.274849	0.266616	0.427211	0.517291	0.337072	0.333954	0.206304	0.303482	0.279890	0.325590	0.287938	0.312195	0.333486	0.243640	0.325134	0.216076	0.329644	0.291849	0.309156	0.319795	0.391290	0.314200	0.324116	0.341592	0.345429	0.256845	0.289639	0.307996	0.322507	0.420401	0.381437	0.323806	0.342661	0.138689	0.176596	0.314216	0.366124	0.241956	0.358988	0.433654	0.294233	0.282270	0.267111	0.265458	0.208234	0.209379	0.343871	0.413274	0.293703	0.252764	0.291772	0.332537	0.209843	0.413970	0.498363	0.225396	0.267840	0.283646	0.284715	0.257559	0.280487	0.289456	0.250919	0.312753	0.279890	0.341301	0.271572	0.197628	0.247445	0.199925	0.285891	0.332243	
100 1
0.041814	0.048926	0.055942	0.070562	0.089042	0.107818	0.131110	0.154618	0.179126	0.206041	0.232882	0.262693	0.293927	0.325387	0.360253	0.395261	0.428837	0.459066	0.489383	0.506079	0.516630	0.525420	0.508849	0.491387	0.459779	0.397342	0.335882	0.272550	0.208389	0.146671	0.119441	0.093231	0.073490	0.066952	0.060017	0.057201	0.056044	0.055152	0.057243	0.059406	0.061146	0.062046	0.062978	0.066169	0.070207	0.075186	0.091208	0.107439	0.128066	0.156802	0.185306	0.217479	0.250954	0.284493	0.318363	0.352237	0.385952	0.419388	0.452816	0.482149	0.510125	0.537793	0.562720	0.587620	0.610797	0.631121	0.651454	0.656332	0.656403	0.654301	0.632956	0.611506	0.573261	0.508675	0.444738	0.366929	0.285067	0.207480	0.169092	0.130753	0.102008	0.087508	0.072678	0.064349	0.057796	0.051881	0.050702	0.049513	0.048993	0.049415	0.049834	0.053074	0.057034	0.062971	0.083905	0.104754	0.134834	0.177218	0.219350	0.266379	
