2090.0,2111.0,0.18154,-35.0,
2096.0,2104.0,0.181255,-35.0,
2167.0,2152.0,0.181385,-35.0,
2163.0,2112.0,0,-35.0,
2115.0,2046.0,0,-35.0,
2121.0,2094.0,0,-35.0,
2083.0,2086.0,0,-35.0,
2096.0,2102.0,0,-35.0,
2151.0,2139.0,0,-35.0,
2130.0,2073.0,0,-34.0,
2108.0,2059.0,0,-34.0,
2112.0,2083.0,0,-34.0,
2126.0,2062.0,0,-34.0,
2116.0,2057.0,0,-34.0,
2097.0,2100.0,0,-34.0,
2042.0,2060.0,0,-34.0,
2057.0,2106.0,0,-34.0,
2039.0,2107.0,0,-34.0,
2041.0,2115.0,0,-34.0,
2082.0,2113.0,0,-34.0,
2085.0,2110.0,0,-34.0,
2066.0,2096.0,0.181595,-34.0,
2086.0,2099.0,0.182105,-34.0,
2093.0,2094.0,0.182005,-35.0,
2105.0,2115.0,0.18267,-35.0,
2108.0,2104.0,0.182685,-35.0,
2109.0,2097.0,0.18262,-35.0,
2114.0,2110.0,0.18226,-35.0,
2144.0,2095.0,0.18141,-35.0,
2125.0,2059.0,0.180755,-35.0,
2134.0,2061.0,0,-35.0,
2090.0,2075.0,0,-35.0,
2105.0,2079.0,0,-35.0,
2110.0,2114.0,0,-35.0,
2086.0,2100.0,0,-35.0,
2052.0,2113.0,0,-35.0,
2037.0,2090.0,0,-35.0,
2083.0,2071.0,0,-35.0,
2089.0,2068.0,0,-34.0,
2094.0,2076.0,0,-34.0,
2110.0,2096.0,0,-34.0,
2102.0,2103.0,0,-34.0,
2111.0,2124.0,0,-34.0,
2109.0,2135.0,0,-34.0,
2124.0,2132.0,0,-34.0,
2120.0,2128.0,0,-34.0,
2107.0,2074.0,0,-34.0,
2093.0,2056.0,0,-34.0,
2099.0,2069.0,0,-34.0,
2123.0,2070.0,0,-34.0,
2115.0,2074.0,0,-33.0,
2137.0,2085.0,0,-33.0,
2118.0,2114.0,0,-33.0,
2158.0,2089.0,0,-33.0,
2066.0,2066.0,0,-33.0,
2065.0,2091.0,0,-33.0,
2061.0,2058.0,0,-33.0,
2095.0,2087.0,0,-33.0,
2108.0,2108.0,0,-32.0,
2095.0,2090.0,0,-32.0,
2085.0,2102.0,0,-32.0,
2114.0,2119.0,0,-32.0,
2101.0,2100.0,0,-32.0,
2112.0,2100.0,0,-32.0,
2096.0,2066.0,0,-33.0,
2108.0,2092.0,0,-33.0,
2137.0,2079.0,0,-33.0,
2142.0,2108.0,0,-33.0,
2114.0,2110.0,0,-33.0,
2089.0,2106.0,0,-33.0,
2054.0,2098.0,0,-33.0,
2080.0,2093.0,0,-33.0,
2083.0,2069.0,0.18115,-33.0,
2086.0,2075.0,0,-33.0,
2075.0,2059.0,0,-33.0,
2081.0,2074.0,0,-33.0,
2120.0,2134.0,0,-33.0,
2095.0,2143.0,0,-33.0,
2106.0,2128.0,0,-33.0,
2081.0,2126.0,0,-33.0,
2142.0,2105.0,0.181945,-34.0,
2130.0,2009.0,0,-34.0,
2136.0,2037.0,0,-34.0,
2102.0,2040.0,0,-34.0,
2057.0,2069.0,0,-34.0,
2032.0,2089.0,0,-34.0,
2071.0,2122.0,0.18241,-34.0,
2089.0,2113.0,0.182155,-34.0,
2103.0,2105.0,0.18158,-34.0,
2095.0,2090.0,0.181125,-34.0,
2092.0,2077.0,0.18204,-35.0,
2102.0,2066.0,0.182505,-35.0,
2106.0,2082.0,0.18231,-35.0,
2092.0,2091.0,0.18217,-35.0,
2100.0,2134.0,0.1826,-35.0,
2102.0,2131.0,0,-35.0,
2149.0,2141.0,0,-35.0,
2197.0,2129.0,0,-35.0,
2122.0,2110.0,0,-35.0,
2101.0,2090.0,0,-35.0,
2050.0,2087.0,0,-35.0,
2088.0,2088.0,0,-35.0,
2090.0,2095.0,0,-35.0,
2112.0,2118.0,0,-35.0,
2098.0,2083.0,0,-35.0,
2087.0,2081.0,0,-35.0,
2099.0,2113.0,0,-35.0,
2128.0,2091.0,0,-35.0,
2112.0,2046.0,0,-35.0,
2106.0,2059.0,0,-35.0,
2087.0,2084.0,0,-35.0,
2106.0,2083.0,0,-35.0,
2121.0,2106.0,0,-35.0,
2102.0,2118.0,0,-35.0,
2092.0,2105.0,0,-35.0,
2112.0,2109.0,0,-35.0,
2107.0,2095.0,0,-35.0,
2128.0,2064.0,0,-35.0,
2120.0,2092.0,0,-35.0,
2126.0,2093.0,0,-35.0,
2115.0,2088.0,0,-35.0,
2102.0,2108.0,0,-35.0,
2094.0,2107.0,0,-35.0,
2100.0,2091.0,0,-35.0,
2082.0,2104.0,0,-34.0,
2010.0,2083.0,0,-34.0,
2066.0,2085.0,0,-34.0,
2088.0,2077.0,0,-34.0,
2071.0,2079.0,0,-34.0,
2124.0,2116.0,0,-34.0,
2108.0,2108.0,0,-34.0,
2106.0,2117.0,0,-34.0,
2111.0,2110.0,0,-34.0,
2109.0,2085.0,0,-34.0,
2112.0,2072.0,0,-34.0,
2103.0,2084.0,0.18354,-34.0,
2110.0,2086.0,0,-33.0,
2108.0,2096.0,0,-33.0,
2115.0,2093.0,0,-33.0,
2122.0,2077.0,0,-33.0,
2106.0,2101.0,0,-33.0,
2137.0,2084.0,0.183355,-33.0,
2117.0,2072.0,0,-33.0,
2092.0,2070.0,0,-33.0,
2069.0,2073.0,0,-33.0,
2075.0,2085.0,0,-33.0,
2097.0,2089.0,0,-33.0,
2094.0,2090.0,0.18302,-33.0,
2105.0,2102.0,0,-33.0,
2096.0,2072.0,0,-33.0,
2095.0,2076.0,0,-33.0,
2102.0,2066.0,0,-33.0,
2127.0,2075.0,0,-33.0,
2145.0,2093.0,0,-33.0,
2127.0,2114.0,0,-33.0,
2125.0,2125.0,0.182805,-33.0,
2099.0,2092.0,0,-34.0,
2032.0,2104.0,0,-34.0,
2006.0,2111.0,0,-34.0,
2082.0,2104.0,0,-34.0,
2097.0,2075.0,0,-34.0,
2119.0,2084.0,0,-34.0,
2116.0,2105.0,0.18217,-34.0,
2109.0,2108.0,0.18202,-34.0,
2105.0,2091.0,0,-34.0,
2132.0,2093.0,0,-34.0,
2108.0,2091.0,0,-34.0,
2087.0,2084.0,0,-34.0,
2095.0,2084.0,0,-34.0,
2076.0,2082.0,0,-34.0,
2061.0,2067.0,0,-34.0,
2072.0,2068.0,0,-34.0,
2144.0,2127.0,0,-34.0,
2166.0,2090.0,0.18224,-34.0,
2136.0,2079.0,0.182465,-34.0,
2116.0,2063.0,0,-34.0,
2121.0,2060.0,0,-34.0,
2111.0,2059.0,0,-34.0,
2067.0,2055.0,0,-34.0,
2097.0,2117.0,0,-34.0,
2118.0,2111.0,0,-34.0,
2102.0,2096.0,0,-34.0,
2075.0,2084.0,0,-34.0,
2080.0,2083.0,0,-34.0,
2073.0,2108.0,0,-34.0,
2079.0,2094.0,0.181665,-34.0,
2107.0,2069.0,0,-34.0,
2104.0,2062.0,0,-34.0,
2107.0,2079.0,0,-34.0,
2121.0,2085.0,0,-34.0,
2131.0,2111.0,0.180855,-34.0,
2071.0,2063.0,0,-34.0,
2098.0,2070.0,0,-34.0,
2091.0,2058.0,0,-34.0,
2116.0,2077.0,0,-34.0,
2100.0,2085.0,0,-34.0,
2093.0,2100.0,0.18117,-34.0,
2100.0,2102.0,0,-34.0,
2123.0,2115.0,0,-34.0,
2125.0,2122.0,0,-34.0,
2100.0,2108.0,0,-34.0,
2092.0,2081.0,0,-34.0,
2094.0,2092.0,0.180975,-34.0,
2093.0,2085.0,0,-34.0,
2083.0,2083.0,0,-34.0,
2099.0,2083.0,0,-34.0,
2112.0,2112.0,0,-34.0,
2112.0,2109.0,0.18145,-34.0,
2109.0,2096.0,0,-34.0,
2114.0,2104.0,0,-34.0,
2105.0,2096.0,0,-34.0,
2104.0,2079.0,0.181865,-34.0,
2134.0,2073.0,0,-34.0,
2138.0,2100.0,0,-34.0,
2121.0,2114.0,0,-34.0,
2054.0,2102.0,0,-34.0,
2058.0,2115.0,0,-34.0,
2038.0,2104.0,0,-34.0,
2060.0,2116.0,0,-34.0,
2089.0,2104.0,0,-34.0,
2089.0,2070.0,0.18234,-34.0,
2115.0,2075.0,0,-34.0,
2121.0,2081.0,0,-35.0,
2107.0,2067.0,0,-35.0,
2078.0,2079.0,0.18203,-35.0,
2114.0,2098.0,0,-35.0,
2154.0,2114.0,0,-35.0,
2110.0,2082.0,0,-35.0,
2107.0,2071.0,0,-35.0,
2105.0,2047.0,0,-35.0,
2136.0,2077.0,0.181855,-35.0,
2142.0,2087.0,0,-35.0,
2123.0,2113.0,0,-35.0,
2155.0,2122.0,0,-35.0,
2067.0,2110.0,0.1819,-35.0,
2140.0,2097.0,0,-36.0,
2071.0,2069.0,0,-36.0,
1982.0,2075.0,0,-35.0,
2079.0,2054.0,0,-35.0,
2184.0,2107.0,0.18216,-35.0,
2281.0,2174.0,0,-35.0,
2187.0,2186.0,0,-35.0,
1880.0,2145.0,0,-35.0,
1798.0,2145.0,0,-35.0,
1948.0,2189.0,0,-35.0,
2016.0,2110.0,0,-34.0,
2337.0,1964.0,0,-34.0,
2483.0,2021.0,0,-34.0,
2002.0,1922.0,0,-33.0,
1998.0,1952.0,0.18164,-33.0,
2087.0,1964.0,0,-33.0,
2100.0,2067.0,0,-32.0,
2077.0,2099.0,0,-32.0,
2101.0,2122.0,0.180225,-31.0,
2116.0,2117.0,0,-31.0,
2120.0,2130.0,0,-31.0,
2118.0,2142.0,0,-31.0,
2115.0,2170.0,0,-30.0,
2131.0,2170.0,0,-30.0,
2133.0,2154.0,0.17947,-30.0,
2125.0,2144.0,0,-30.0,
2111.0,2095.0,0,-30.0,
2112.0,2090.0,0,-30.0,
2108.0,2080.0,0,-30.0,
2104.0,2095.0,0.179335,-30.0,
2113.0,2108.0,0,-31.0,
2118.0,2108.0,0,-31.0,
2107.0,2139.0,0,-31.0,
2118.0,2120.0,0,-31.0,
2120.0,2093.0,0,-32.0,
2107.0,2064.0,0,-32.0,
2103.0,2066.0,0,-33.0,
2076.0,2096.0,0,-33.0,
2121.0,2080.0,0.18052,-33.0,
2124.0,2089.0,0,-34.0,
2105.0,2090.0,0,-34.0,
2118.0,2096.0,0,-35.0,
2116.0,2098.0,0,-35.0,
2125.0,2077.0,0.18201,-35.0,
2088.0,2080.0,0,-36.0,
2062.0,2092.0,0,-36.0,
2080.0,2096.0,0,-36.0,
2094.0,2086.0,0.1847,-36.0,
2093.0,2064.0,0,-36.0,
2080.0,2085.0,0,-36.0,
2082.0,2052.0,0,-36.0,
2136.0,2101.0,0,-37.0,
2208.0,2125.0,0,-37.0,
2256.0,2133.0,0.18765,-37.0,
2227.0,2104.0,0,-37.0,
2154.0,2061.0,0,-37.0,
2053.0,2149.0,0.19039,-37.0,
1834.0,2258.0,0,-36.0,
1997.0,2187.0,0,-36.0,
1993.0,2178.0,0,-36.0,
1992.0,2085.0,0,-36.0,
2095.0,1926.0,0,-36.0,
2112.0,1998.0,0,-36.0,
2051.0,2124.0,0,-36.0,
1900.0,2099.0,0,-36.0,
2064.0,2046.0,0,-36.0,
2159.0,1933.0,0.192055,-36.0,
2255.0,1989.0,0,-36.0,
2206.0,2019.0,0,-35.0,
2099.0,2103.0,0,-35.0,
2049.0,2063.0,0,-35.0,
2117.0,2091.0,0.19362,-35.0,
2093.0,2144.0,0,-35.0,
2090.0,2025.0,0,-35.0,
2176.0,2147.0,0,-35.0,
2064.0,2157.0,0.195575,-34.0,
2115.0,2159.0,0,-34.0,
2067.0,2151.0,0,-34.0,
1920.0,2168.0,0,-33.0,
1864.0,2120.0,0,-33.0,
2150.0,2134.0,0,-33.0,
2346.0,2032.0,0,-33.0,
2178.0,2047.0,0,-32.0,
2199.0,2122.0,0,-32.0,
2203.0,2141.0,0.19934,-32.0,
2240.0,2157.0,0,-32.0,
2176.0,2141.0,0,-32.0,
2116.0,2114.0,0,-32.0,
2059.0,2073.0,0,-32.0,
1929.0,2018.0,0.20489,-32.0,
2096.0,2054.0,0,-33.0,
2133.0,2182.0,0,-33.0,
2083.0,2250.0,0,-33.0,
2168.0,2117.0,0.211645,-33.0,
2140.0,2182.0,0,-33.0,
2149.0,2130.0,0,-33.0,
2086.0,2177.0,0,-33.0,
2058.0,2174.0,0,-33.0,
2042.0,2117.0,0.218845,-33.0,
2061.0,2076.0,0,-34.0,
2209.0,2030.0,0,-34.0,
2231.0,1981.0,0,-34.0,
1956.0,2114.0,0,-34.0,
1748.0,2108.0,0.226885,-34.0,
1950.0,2130.0,0,-34.0,
2164.0,2127.0,0,-35.0,
2290.0,1896.0,0,-35.0,
2342.0,1962.0,0,-35.0,
1989.0,2022.0,0,-35.0,
1880.0,2017.0,0,-35.0,
2023.0,2048.0,0,-36.0,
2140.0,1986.0,0,-36.0,
2158.0,2011.0,0,-36.0,
2225.0,2056.0,0.23572,-36.0,
2147.0,1965.0,0,-36.0,
2244.0,2030.0,0,-36.0,
2264.0,2086.0,0,-36.0,
2284.0,2148.0,0,-37.0,
2020.0,2186.0,0.246135,-37.0,
2042.0,2236.0,0,-37.0,
1916.0,2187.0,0,-37.0,
1954.0,2051.0,0,-37.0,
1993.0,2053.0,0,-37.0,
2049.0,2107.0,0.256885,-37.0,
2079.0,2106.0,0,-37.0,
2114.0,2111.0,0,-38.0,
2072.0,2156.0,0,-38.0,
2107.0,2164.0,0.266625,-38.0,
2163.0,2084.0,0,-38.0,
2192.0,2020.0,0,-38.0,
2157.0,2021.0,0,-38.0,
2077.0,2082.0,0,-37.0,
2174.0,2163.0,0,-37.0,
2173.0,2125.0,0.276595,-37.0,
2144.0,2174.0,0,-37.0,
2191.0,2164.0,0,-37.0,
2054.0,2205.0,0,-37.0,
2043.0,2228.0,0,-37.0,
1999.0,2173.0,0,-37.0,
2024.0,2026.0,0,-36.0,
2073.0,2025.0,0,-36.0,
2134.0,2115.0,0,-36.0,
2104.0,2032.0,0.285805,-36.0,
2100.0,2095.0,0,-36.0,
2056.0,2102.0,0,-36.0,
2097.0,2108.0,0,-36.0,
2078.0,2122.0,0,-36.0,
2089.0,2067.0,0,-36.0,
2060.0,2003.0,0.29462,-36.0,
1960.0,1932.0,0,-36.0,
2083.0,2189.0,0,-36.0,
2088.0,2150.0,0,-36.0,
2179.0,2142.0,0,-36.0,
2064.0,2114.0,0.301255,-36.0,
2146.0,2151.0,0,-36.0,
2041.0,2099.0,0,-36.0,
2097.0,2037.0,0,-36.0,
2090.0,1989.0,0,-36.0,
2149.0,2010.0,0.30555,-36.0,
2183.0,2074.0,0,-36.0,
2193.0,2109.0,0,-36.0,
2181.0,2139.0,0,-36.0,
2066.0,2105.0,0.310455,-36.0,
2068.0,2089.0,0,-36.0,
2026.0,2081.0,0,-36.0,
2117.0,2053.0,0,-36.0,
2146.0,2044.0,0,-36.0,
2094.0,2040.0,0.31514,-36.0,
2024.0,2081.0,0,-36.0,
2078.0,2098.0,0,-36.0,
2117.0,2107.0,0,-36.0,
2148.0,2139.0,0,-36.0,
2115.0,2127.0,0,-36.0,
2102.0,2101.0,0,-36.0,
2085.0,2068.0,0,-36.0,
2121.0,2065.0,0,-36.0,
2120.0,2055.0,0,-36.0,
2100.0,2083.0,0.31824,-36.0,
2137.0,2103.0,0,-37.0,
2128.0,2114.0,0,-37.0,
2112.0,2133.0,0,-37.0,
2090.0,2089.0,0,-37.0,
2080.0,2087.0,0.320005,-37.0,
2098.0,2076.0,0,-37.0,
2145.0,2090.0,0,-37.0,
2102.0,2086.0,0.31956,-37.0,
2087.0,2124.0,0,-37.0,
2075.0,2143.0,0,-36.0,
2059.0,2122.0,0,-36.0,
2047.0,2110.0,0,-36.0,
2043.0,2126.0,0,0,
2137.0,2086.0,0.31807,-36.0,
2090.0,2070.0,0,-36.0,
2157.0,2121.0,0,-36.0,
2261.0,2154.0,0,-36.0,
2217.0,2124.0,0,-36.0,
2192.0,2110.0,0.31566,-36.0,
1997.0,2084.0,0,-36.0,
1984.0,2022.0,0,-36.0,
1968.0,2110.0,0,-36.0,
1930.0,2052.0,0,-36.0,
2076.0,2065.0,0,-36.0,
2078.0,2139.0,0,-36.0,
2103.0,2169.0,0,-37.0,
2158.0,2140.0,0,-37.0,
2167.0,2126.0,0.3126,-37.0,
2035.0,2019.0,0,-37.0,
2051.0,2106.0,0,-37.0,
2124.0,2002.0,0,-37.0,
2103.0,2032.0,0.3093,-37.0,
2080.0,2024.0,0,-36.0,
1998.0,2075.0,0,-36.0,
1984.0,2130.0,0,-36.0,
1979.0,2110.0,0,0,
2123.0,2094.0,0.306675,-36.0,
2338.0,2085.0,0,-36.0,
2383.0,2073.0,0,-36.0,
2206.0,2056.0,0,-36.0,
2172.0,2074.0,0,-36.0,
2179.0,2063.0,0,-36.0,
2124.0,2090.0,0,-36.0,
2113.0,2096.0,0,-36.0,
2065.0,2134.0,0,-36.0,
2039.0,2206.0,0.304565,-37.0,
2007.0,2108.0,0,-37.0,
2061.0,2098.0,0,-37.0,
2038.0,2100.0,0,-37.0,
2150.0,2070.0,0,-37.0,
2118.0,2087.0,0.30271,-37.0,
2115.0,2138.0,0,-37.0,
2151.0,2119.0,0,-37.0,
2090.0,2090.0,0,-37.0,
2068.0,2091.0,0.300355,-37.0,
2093.0,2110.0,0,-38.0,
2097.0,2126.0,0,-38.0,
2058.0,2094.0,0,-38.0,
2091.0,2094.0,0,-38.0,
2113.0,2065.0,0.29769,-38.0,
2117.0,2116.0,0,-38.0,
2127.0,2115.0,0,-38.0,
2111.0,2102.0,0,-38.0,
2075.0,2105.0,0,-38.0,
2115.0,2076.0,0,-38.0,
2093.0,2081.0,0,-38.0,
2088.0,2042.0,0,-38.0,
2047.0,2089.0,0,-38.0,
2050.0,2139.0,0.294665,-38.0,
2077.0,2128.0,0,-38.0,
2062.0,2111.0,0,-38.0,
2047.0,2106.0,0,-38.0,
2027.0,2080.0,0,-38.0,
2107.0,2069.0,0.29152,-37.0,
2189.0,2057.0,0,-37.0,
2219.0,2128.0,0,-37.0,
2149.0,2069.0,0,-37.0,
2073.0,1958.0,0.288165,-37.0,
1982.0,2034.0,0,-37.0,
2101.0,2038.0,0,-37.0,
2232.0,2036.0,0,-37.0,
2113.0,2095.0,0,-37.0,
2109.0,2063.0,0,-37.0,
1989.0,2053.0,0.285065,-37.0,
2001.0,2051.0,0,-37.0,
2043.0,2100.0,0,-37.0,
2094.0,2104.0,0,-37.0,
2099.0,2118.0,0,-37.0,
2157.0,2098.0,0,-37.0,
2061.0,2118.0,0,-38.0,
2078.0,2115.0,0,-38.0,
2133.0,2098.0,0.282285,-38.0,
2101.0,2110.0,0,-38.0,
2181.0,2085.0,0,-38.0,
2140.0,2127.0,0,-38.0,
2183.0,2129.0,0,-38.0,
2104.0,2123.0,0.2788,-38.0,
2155.0,2139.0,0,-38.0,
2211.0,2095.0,0,-38.0,
2146.0,2074.0,0,-38.0,
2085.0,2095.0,0,-38.0,
2036.0,2132.0,0.27523,-38.0,
2038.0,2080.0,0,-37.0,
2099.0,2097.0,0,-37.0,
2054.0,2117.0,0,-37.0,
2017.0,2049.0,0.271465,-37.0,
2055.0,2087.0,0,-37.0,
2111.0,2059.0,0,-37.0,
2148.0,2043.0,0,-37.0,
2137.0,2056.0,0,-37.0,
2119.0,2061.0,0,-37.0,
2097.0,2099.0,0,-37.0,
2091.0,2112.0,0,-37.0,
2102.0,2114.0,0,-37.0,
1976.0,2122.0,0.267155,-37.0,
2068.0,2079.0,0,-36.0,
2147.0,2037.0,0,-36.0,
2168.0,2037.0,0,-36.0,
2135.0,2077.0,0,-36.0,
2139.0,2077.0,0,-36.0,
2147.0,2054.0,0.263495,-36.0,
2192.0,2042.0,0,-35.0,
2069.0,2076.0,0,-35.0,
2006.0,2102.0,0,-35.0,
1976.0,2116.0,0,-35.0,
1889.0,2132.0,0.260335,-35.0,
2059.0,2085.0,0,-35.0,
2228.0,2087.0,0,-35.0,
2174.0,2118.0,0,-35.0,
2053.0,2107.0,0,-35.0,
1990.0,2114.0,0.25871,-35.0,
2080.0,2172.0,0,-35.0,
2138.0,2133.0,0,-35.0,
2433.0,2093.0,0,-35.0,
2280.0,2010.0,0.25791,-35.0,
2194.0,2057.0,0,-35.0,
2068.0,2104.0,0,-35.0,
1990.0,2086.0,0,-35.0,
2031.0,2098.0,0,-36.0,
2040.0,2088.0,0,-36.0,
2083.0,2074.0,0,-36.0,
2119.0,2116.0,0,-36.0,
2044.0,2077.0,0,-36.0,
2051.0,2041.0,0,-36.0,
2073.0,2063.0,0.257015,-36.0,
2097.0,2075.0,0,-36.0,
2096.0,2090.0,0,-36.0,
2080.0,2102.0,0,-36.0,
2084.0,2095.0,0.25636,-36.0,
2091.0,2100.0,0,-36.0,
2126.0,2135.0,0,-36.0,
2142.0,2096.0,0,-36.0,
2101.0,2132.0,0,-36.0,
2081.0,2121.0,0.25613,-36.0,
2065.0,2041.0,0,-36.0,
2162.0,2087.0,0,-36.0,
2116.0,2055.0,0,-36.0,
2068.0,2084.0,0.256215,-36.0,
2053.0,2143.0,0.255605,-36.0,
2088.0,2185.0,0.254595,-35.0,
2119.0,2116.0,0.253975,-35.0,
2189.0,2132.0,0,-35.0,
2184.0,2136.0,0,-35.0,
2117.0,2074.0,0,-35.0,
2197.0,1995.0,0,-35.0,
2078.0,2059.0,0,-35.0,
1989.0,2077.0,0,-35.0,
2014.0,2111.0,0,-35.0,
2056.0,2003.0,0,-35.0,
2019.0,2068.0,0,-35.0,
2085.0,2095.0,0,-35.0,
2110.0,2056.0,0,-35.0,
2179.0,2106.0,0,-35.0,
2086.0,2143.0,0,-35.0,
1897.0,2121.0,0,-34.0,
1908.0,2089.0,0,-34.0,
2065.0,2130.0,0,-34.0,
2170.0,2079.0,0,-34.0,
2267.0,2026.0,0,-34.0,
2150.0,2035.0,0,-34.0,
2147.0,2041.0,0,-34.0,
2127.0,2013.0,0,-34.0,
2082.0,2050.0,0,-34.0,
2087.0,2090.0,0.252605,-34.0,
2083.0,2086.0,0,-34.0,
2045.0,2084.0,0,-34.0,
2133.0,2102.0,0,-34.0,
2229.0,2118.0,0,-35.0,
2207.0,2130.0,0.25195,-35.0,
2110.0,2120.0,0.25212,-35.0,
2108.0,2142.0,0,-35.0,
2058.0,2111.0,0,-34.0,
2112.0,2098.0,0,-34.0,
2092.0,2115.0,0,-34.0,
2131.0,2127.0,0,-34.0,
2096.0,2084.0,0,-34.0,
2042.0,2073.0,0,-34.0,
2081.0,2125.0,0,-34.0,
2122.0,2105.0,0,-34.0,
2149.0,2078.0,0,-34.0,
2164.0,2094.0,0.25129,-34.0,
2141.0,2091.0,0,-34.0,
2131.0,2108.0,0,-34.0,
2122.0,2080.0,0,-34.0,
2050.0,2091.0,0.25077,-34.0,
1984.0,2091.0,0,-34.0,
1934.0,2094.0,0,-34.0,
2027.0,2133.0,0,-34.0,
2161.0,2152.0,0,-33.0,
2242.0,2157.0,0,-33.0,
2204.0,2086.0,0,-33.0,
2038.0,2073.0,0,-33.0,
1820.0,2114.0,0,-33.0,
1965.0,2019.0,0,-33.0,
2130.0,1968.0,0.249685,-33.0,
2184.0,2109.0,0,-33.0,
2200.0,2078.0,0,-33.0,
2156.0,2115.0,0,-33.0,
2119.0,2094.0,0.24818,-33.0,
2135.0,2042.0,0,-33.0,
2134.0,2045.0,0,-33.0,
1934.0,2077.0,0,-33.0,
1979.0,2115.0,0,-33.0,
2039.0,2103.0,0,-33.0,
2159.0,2061.0,0.24767,-33.0,
2338.0,2116.0,0,-33.0,
2182.0,2140.0,0,-33.0,
2098.0,2143.0,0,-33.0,
2126.0,2145.0,0,-33.0,
2122.0,2137.0,0.24784,-33.0,
2116.0,2131.0,0,-33.0,
2130.0,2108.0,0,-33.0,
2103.0,2130.0,0,-33.0,
2092.0,2103.0,0.24772,-33.0,
2097.0,2093.0,0,-33.0,
2117.0,2102.0,0,-33.0,
2101.0,2078.0,0,-33.0,
2100.0,2088.0,0,-33.0,
2081.0,2073.0,0,-33.0,
2105.0,2053.0,0,-33.0,
2089.0,2068.0,0,-33.0,
2028.0,2073.0,0,-33.0,
1988.0,2066.0,0,-33.0,
2029.0,2067.0,0.24792,-33.0,
2105.0,2109.0,0,-33.0,
2292.0,2103.0,0,-33.0,
2248.0,2120.0,0,-33.0,
2229.0,2122.0,0,-33.0,
2108.0,2076.0,0.248235,-33.0,
2076.0,2064.0,0,-33.0,
2118.0,2105.0,0,-32.0,
2051.0,2043.0,0,-32.0,
2046.0,2037.0,0.24813,-32.0,
2026.0,2092.0,0,-32.0,
1915.0,2027.0,0,-32.0,
2125.0,2156.0,0,-32.0,
2136.0,2125.0,0,-31.0,
2213.0,2075.0,0.247735,-31.0,
2187.0,2190.0,0,-31.0,
2262.0,2155.0,0,-31.0,
2061.0,2045.0,0,-31.0,
1738.0,2092.0,0,-31.0,
1776.0,1911.0,0,-31.0,
2046.0,1960.0,0,-31.0,
2195.0,1906.0,0,-31.0,
2461.0,1991.0,0,-31.0,
2345.0,2028.0,0.246935,-32.0,
2139.0,2085.0,0,-32.0,
2030.0,2132.0,0,-32.0,
1955.0,2134.0,0,-32.0,
2117.0,2154.0,0,-32.0,
2065.0,2150.0,0,-32.0,
2093.0,2124.0,0.24595,-33.0,
2090.0,2115.0,0,-33.0,
2034.0,2149.0,0,-33.0,
2067.0,2142.0,0,-33.0,
2088.0,2203.0,0.2462,-33.0,
2162.0,2115.0,0,-33.0,
2121.0,2119.0,0,-33.0,
2178.0,2112.0,0,-33.0,
2134.0,2095.0,0,-33.0,
2113.0,2098.0,0,-33.0,
2128.0,2100.0,0,-33.0,
2126.0,2116.0,0,-33.0,
2136.0,2110.0,0.24697,-33.0,
2126.0,2102.0,0,-33.0,
2123.0,2125.0,0,-33.0,
2062.0,2096.0,0,-33.0,
2088.0,2088.0,0,-33.0,
2032.0,2105.0,0,-33.0,
2049.0,2108.0,0.24774,-33.0,
2067.0,2083.0,0,-32.0,
2125.0,2073.0,0,-32.0,
2068.0,2097.0,0,-32.0,
2141.0,2096.0,0.249055,-32.0,
2068.0,2125.0,0,-32.0,
2257.0,2127.0,0,-32.0,
2151.0,2170.0,0,-32.0,
2091.0,2097.0,0,-32.0,
2069.0,1965.0,0.249785,-32.0,
2040.0,2001.0,0,-32.0,
1977.0,2057.0,0,-31.0,
1971.0,2137.0,0,-31.0,
1974.0,2186.0,0.251045,-31.0,
2087.0,2150.0,0,-31.0,
2178.0,2097.0,0,-31.0,
2274.0,1867.0,0,-31.0,
2336.0,1953.0,0,-31.0,
2116.0,2032.0,0,-31.0,
2055.0,2083.0,0,-31.0,
2214.0,2141.0,0,-31.0,
2245.0,2123.0,0,-31.0,
2183.0,2168.0,0.252035,-31.0,
2075.0,2106.0,0,-31.0,
1838.0,2099.0,0,-31.0,
1924.0,2064.0,0,-31.0,
2027.0,2074.0,0,-31.0,
2037.0,2097.0,0.253005,-31.0,
2095.0,2081.0,0,-31.0,
2096.0,2032.0,0,-32.0,
2137.0,2132.0,0,-32.0,
2147.0,2145.0,0.25386,-32.0,
2112.0,2144.0,0,-32.0,
2104.0,2088.0,0,-32.0,
2151.0,2054.0,0,-32.0,
2070.0,2043.0,0,-32.0,
2076.0,2105.0,0.25508,-32.0,
2109.0,2125.0,0,-32.0,
2102.0,2140.0,0,-32.0,
2054.0,2106.0,0,-32.0,
2040.0,2125.0,0,-32.0,
2070.0,2129.0,0,-32.0,
2109.0,2123.0,0,-32.0,
2167.0,2071.0,0,-32.0,
2244.0,2082.0,0,-31.0,
2130.0,2132.0,0,-32.0,
2034.0,2083.0,0.256515,-32.0,
1988.0,2082.0,0,-32.0,
2047.0,2007.0,0,-32.0,
2098.0,2033.0,0,-32.0,
2165.0,2035.0,0,-32.0,
2176.0,2048.0,0.25878,-32.0,
2147.0,2106.0,0,-32.0,
2088.0,2109.0,0,-32.0,
2126.0,2142.0,0,-32.0,
2047.0,2148.0,0,-32.0,
2029.0,2142.0,0.260165,-32.0,
2056.0,2133.0,0,-32.0,
2147.0,2136.0,0,-32.0,
2138.0,2060.0,0,-32.0,
2252.0,2016.0,0.261415,-32.0,
2160.0,2041.0,0,-32.0,
2037.0,2074.0,0,-32.0,
1986.0,2068.0,0,-32.0,
2042.0,2076.0,0,-32.0,
2174.0,2131.0,0.263035,-31.0,
2282.0,2088.0,0,-31.0,
2096.0,2017.0,0,-31.0,
2061.0,2091.0,0,-31.0,
2103.0,2130.0,0,-31.0,
2034.0,2054.0,0,-31.0,
2057.0,2040.0,0,-31.0,
2016.0,2033.0,0,-31.0,
1957.0,2064.0,0,-31.0,
2132.0,2032.0,0.26436,-31.0,
2173.0,1997.0,0,-31.0,
2077.0,2096.0,0,-31.0,
2111.0,2107.0,0,-31.0,
2163.0,2131.0,0,-31.0,
2118.0,2123.0,0.26562,-31.0,
2081.0,2128.0,0,-31.0,
2122.0,2133.0,0,-31.0,
2114.0,2119.0,0.268045,-31.0,
2151.0,2176.0,0,-31.0,
2075.0,2188.0,0,-31.0,
2035.0,2164.0,0,-31.0,
2113.0,2050.0,0,-32.0,
2173.0,2035.0,0,-32.0,
2094.0,2038.0,0,-32.0,
2051.0,2032.0,0,-32.0,
2106.0,2041.0,0,-32.0,
2147.0,2077.0,0,-32.0,
2153.0,2091.0,0,-32.0,
2145.0,2072.0,0.2695,-32.0,
2105.0,2100.0,0,-32.0,
2010.0,2096.0,0,-32.0,
2052.0,2111.0,0,-32.0,
2094.0,2114.0,0,-32.0,
2107.0,2144.0,0.26987,-32.0,
2194.0,2155.0,0,-32.0,
2108.0,2187.0,0,-32.0,
1978.0,2169.0,0,-32.0,
1935.0,2130.0,0.270865,-32.0,
1988.0,2082.0,0,-32.0,
2071.0,2003.0,0,-32.0,
2287.0,2012.0,0,-32.0,
2315.0,2008.0,0,-32.0,
2219.0,2014.0,0.272535,-32.0,
2254.0,2037.0,0,-32.0,
2199.0,2076.0,0,-32.0,
2102.0,2106.0,0,-32.0,
2079.0,2124.0,0,-31.0,
1963.0,2170.0,0.274585,-31.0,
1874.0,2177.0,0,-31.0,
1954.0,2082.0,0,-31.0,
2097.0,2090.0,0,-31.0,
2111.0,2096.0,0,-31.0,
2196.0,1904.0,0,-31.0,
2178.0,2080.0,0,-31.0,
2087.0,2131.0,0,-31.0,
2030.0,2085.0,0,-31.0,
2102.0,2093.0,0.278175,-31.0,
2083.0,2109.0,0,-31.0,
2167.0,2126.0,0,-31.0,
2081.0,2046.0,0,-31.0,
2036.0,2047.0,0.2818,-31.0,
2036.0,2105.0,0,-31.0,
2023.0,2116.0,0,-31.0,
2065.0,2023.0,0,-31.0,
2145.0,2095.0,0,-31.0,
2104.0,2095.0,0,-31.0,
2120.0,2112.0,0.286165,-31.0,
2128.0,2173.0,0,-31.0,
2091.0,2096.0,0,-31.0,
2103.0,2048.0,0,-31.0,
2084.0,2052.0,0,-31.0,
2051.0,2032.0,0,-31.0,
2001.0,2049.0,0.291125,-31.0,
2166.0,2152.0,0,-31.0,
2272.0,2131.0,0,-31.0,
2341.0,2068.0,0,-31.0,
2172.0,2063.0,0,-31.0,
2187.0,2079.0,0,-31.0,
2080.0,2138.0,0,-31.0,
2015.0,2038.0,0,-32.0,
2075.0,2084.0,0.29631,-31.0,
2057.0,2093.0,0,-31.0,
2092.0,2122.0,0,-31.0,
2100.0,2134.0,0,-31.0,
2081.0,2080.0,0,-31.0,
2032.0,2073.0,0.30066,-31.0,
1997.0,2060.0,0,-31.0,
2095.0,2113.0,0,-31.0,
2142.0,2151.0,0,-31.0,
2166.0,2162.0,0,-31.0,
2209.0,2135.0,0.30398,-31.0,
2139.0,2149.0,0,-31.0,
1980.0,2175.0,0,-31.0,
1908.0,2048.0,0,-31.0,
1925.0,2056.0,0.308225,-31.0,
2111.0,2015.0,0,-31.0,
2137.0,1970.0,0,-31.0,
2200.0,1936.0,0,-31.0,
2101.0,1995.0,0,-31.0,
2020.0,2106.0,0,-31.0,
2050.0,2153.0,0,-31.0,
2051.0,2154.0,0,-31.0,
2152.0,2141.0,0,-31.0,
2123.0,2036.0,0.312615,-31.0,
2233.0,2020.0,0,-31.0,
2426.0,2080.0,0,-31.0,
2339.0,2033.0,0,-31.0,
2153.0,2050.0,0,-31.0,
2035.0,2075.0,0.31657,-31.0,
1957.0,2167.0,0,-31.0,
1912.0,2109.0,0,-31.0,
2049.0,2131.0,0,-31.0,
2059.0,2050.0,0.3216,-31.0,
2163.0,2148.0,0,-31.0,
2085.0,2218.0,0,-31.0,
2089.0,2157.0,0,-31.0,
2102.0,2151.0,0,-31.0,
2044.0,2005.0,0,-31.0,
2074.0,1966.0,0,-31.0,
2137.0,2019.0,0,-31.0,
2194.0,2092.0,0,-31.0,
2110.0,2147.0,0.32556,-31.0,
2124.0,2191.0,0,-31.0,
2084.0,2129.0,0,-31.0,
2041.0,2106.0,0,-31.0,
2056.0,1970.0,0,-31.0,
2065.0,2004.0,0.32941,-32.0,
2068.0,2115.0,0,-32.0,
2075.0,2131.0,0,-32.0,
2080.0,2107.0,0,-32.0,
2131.0,2163.0,0.334105,-32.0,
2118.0,2122.0,0,-32.0,
2164.0,2101.0,0,-32.0,
2135.0,2088.0,0,-32.0,
2149.0,2095.0,0,-32.0,
2124.0,2075.0,0.34155,-32.0,
2108.0,2156.0,0,-32.0,
2097.0,2133.0,0,-32.0,
2090.0,2152.0,0,-32.0,
2048.0,2100.0,0,-32.0,
2030.0,2088.0,0,-32.0,
2093.0,2073.0,0,-32.0,
2054.0,1984.0,0,-32.0,
2163.0,2055.0,0,-32.0,
2155.0,2047.0,0.34905,-32.0,
2166.0,2069.0,0,-32.0,
2141.0,2078.0,0,-32.0,
2095.0,2095.0,0,-32.0,
2026.0,2127.0,0,-32.0,
2080.0,2136.0,0.355015,-32.0,
2064.0,2159.0,0,-32.0,
2082.0,2114.0,0,-32.0,
2092.0,2065.0,0,-32.0,
2064.0,2072.0,0.35922,-32.0,
2201.0,2068.0,0,-32.0,
2083.0,2023.0,0,-32.0,
2034.0,2021.0,0,-32.0,
2077.0,2007.0,0,-32.0,
2143.0,2089.0,0.361415,-32.0,
2220.0,2096.0,0,-32.0,
2127.0,2057.0,0,-32.0,
2083.0,2074.0,0,-32.0,
2071.0,2128.0,0,-32.0,
2089.0,2202.0,0.36203,-32.0,
2169.0,2223.0,0,-32.0,
2078.0,2199.0,0,-32.0,
2093.0,2118.0,0,-32.0,
2132.0,2055.0,0,-32.0,
2027.0,1939.0,0,-32.0,
1938.0,1933.0,0,-32.0,
2117.0,2055.0,0,-32.0,
2125.0,2107.0,0,0,
2192.0,2143.0,0.361955,-32.0,
2119.0,2163.0,0,-32.0,
2015.0,2141.0,0,-32.0,
1891.0,2091.0,0,-32.0,
1977.0,2013.0,0,-32.0,
2108.0,2108.0,0.36153,-32.0,
2342.0,2094.0,0,-32.0,
2276.0,2160.0,0,-32.0,
2053.0,2079.0,0,-32.0,
2080.0,2058.0,0.361255,-32.0,
2124.0,2147.0,0,-32.0,
2125.0,2089.0,0,-32.0,
2169.0,2037.0,0,-32.0,
2154.0,2046.0,0,-32.0,
2102.0,2082.0,0.361455,-32.0,
2114.0,2091.0,0,-32.0,
2077.0,2137.0,0,-32.0,
2076.0,2096.0,0,-32.0,
2049.0,2099.0,0,-32.0,
2090.0,2107.0,0,-32.0,
2140.0,2136.0,0,-32.0,
2120.0,2110.0,0,-32.0,
2032.0,2100.0,0,-32.0,
2072.0,2173.0,0,0,
2111.0,2189.0,0.36125,-32.0,
2022.0,2110.0,0,-32.0,
2049.0,2099.0,0,-32.0,
2072.0,1880.0,0,-32.0,
2134.0,1980.0,0,-32.0,
2118.0,2082.0,0.361235,-32.0,
2143.0,2126.0,0,-32.0,
2123.0,2113.0,0,-32.0,
2178.0,2138.0,0,-32.0,
2123.0,2136.0,0,-32.0,
1987.0,2053.0,0.36081,-32.0,
2099.0,2137.0,0,-32.0,
2106.0,2141.0,0,-33.0,
2062.0,2089.0,0,-33.0,
2110.0,2048.0,0,-33.0,
2083.0,2008.0,0.36242,-33.0,
2005.0,1980.0,0,-33.0,
1961.0,2100.0,0,-32.0,
1976.0,1991.0,0,-32.0,
2114.0,2054.0,0.366535,-32.0,
2274.0,2143.0,0,-32.0,
2363.0,2106.0,0,-32.0,
2178.0,2036.0,0,-32.0,
2093.0,2016.0,0,-32.0,
2104.0,2108.0,0,-32.0,
2124.0,2116.0,0,-32.0,
2123.0,2123.0,0,-32.0,
2062.0,2148.0,0,-33.0,
2042.0,2127.0,0.370585,-33.0,
2120.0,2094.0,0,-33.0,
2077.0,2074.0,0,-33.0,
2114.0,2093.0,0,-33.0,
2126.0,2105.0,0,-33.0,
2089.0,2110.0,0.37414,-33.0,
2150.0,2181.0,0,-33.0,
2088.0,2147.0,0,-33.0,
2051.0,2119.0,0,-33.0,
2011.0,2144.0,0,-33.0,
2077.0,2004.0,0,-33.0,
2122.0,2063.0,0.37772,-33.0,
2046.0,1938.0,0,-33.0,
2213.0,2033.0,0,-33.0,
2277.0,2119.0,0,-33.0,
2127.0,2157.0,0.38101,-33.0,
2074.0,2147.0,0,-33.0,
2035.0,2115.0,0,-33.0,
2038.0,2195.0,0,-33.0,
2095.0,2325.0,0,-33.0,
1914.0,2195.0,0.38495,-33.0,
1851.0,2172.0,0,-33.0,
2038.0,2039.0,0,-33.0,
2189.0,1982.0,0,-33.0,
2248.0,2032.0,0,-33.0,
2397.0,2063.0,0,-33.0,
2130.0,1967.0,0,-33.0,
2053.0,1747.0,0,-33.0,
2106.0,1847.0,0,-33.0,
2116.0,1865.0,0,-33.0,
2172.0,1987.0,0.39097,-33.0,
2212.0,2059.0,0,-33.0,
2126.0,2148.0,0,-33.0,
2100.0,2226.0,0,-33.0,
2001.0,2275.0,0.400615,-33.0,
2007.0,2212.0,0,-33.0,
1983.0,2131.0,0,-33.0,
1953.0,2068.0,0,-33.0,
2042.0,2031.0,0,-33.0,
2115.0,2138.0,0.41844,-33.0,
2049.0,2092.0,0,-33.0,
2056.0,2085.0,0,-33.0,
1980.0,2032.0,0,-33.0,
2020.0,2196.0,0.443805,-33.0,
2130.0,2205.0,0,-33.0,
2345.0,2190.0,0,-33.0,
2401.0,2150.0,0,-33.0,
2479.0,2112.0,0,-33.0,
2212.0,2116.0,0,-33.0,
2135.0,2020.0,0.47518,-33.0,
1987.0,2083.0,0,-33.0,
1990.0,2119.0,0,-33.0,
2029.0,2009.0,0,-33.0,
1980.0,2154.0,0,-33.0,
2074.0,2062.0,0,-33.0,
2164.0,2023.0,0,-33.0,
2110.0,2002.0,0,-33.0,
2008.0,1907.0,0,-33.0,
1992.0,2098.0,0,-33.0,
1739.0,2156.0,0.509395,-33.0,
1750.0,2144.0,0,-33.0,
1870.0,2262.0,0,-33.0,
2022.0,2244.0,0,-33.0,
2478.0,2117.0,0,-33.0,
2325.0,2083.0,0.54264,-33.0,
2260.0,1957.0,0,-33.0,
2211.0,2016.0,0,-33.0,
2241.0,2044.0,0,-33.0,
2358.0,2090.0,0,-33.0,
2287.0,2099.0,0.573975,-33.0,
2301.0,2094.0,0,-33.0,
2237.0,2275.0,0,-33.0,
2126.0,2171.0,0,-33.0,
2078.0,2027.0,0,0,
1745.0,2064.0,0.60616,-33.0,
1846.0,2043.0,0,-33.0,
1934.0,2252.0,0,-33.0,
2014.0,2176.0,0.642015,-33.0,
2466.0,2129.0,0,-33.0,
2287.0,1913.0,0,-33.0,
2107.0,1788.0,0,-33.0,
2058.0,1827.0,0,-33.0,
2087.0,1758.0,0,-33.0,
2057.0,1854.0,0,-33.0,
2030.0,1969.0,0,-33.0,
2098.0,2072.0,0,-33.0,
2069.0,2087.0,0,-33.0,
2035.0,2034.0,0.683165,-33.0,
2097.0,2122.0,0,-33.0,
2126.0,2235.0,0,-33.0,
2126.0,2350.0,0,-33.0,
2068.0,2201.0,0,-33.0,
2111.0,2225.0,0.73689,-33.0,
2122.0,2224.0,0,-33.0,
1996.0,2192.0,0,-33.0,
1990.0,2194.0,0,-33.0,
2019.0,2173.0,0,-33.0,
2105.0,2205.0,0,-33.0,
2182.0,2211.0,0.79951,-33.0,
2147.0,2102.0,0,-33.0,
2155.0,2012.0,0,-33.0,
2177.0,2034.0,0,-33.0,
2175.0,2089.0,0.860055,-33.0,
2121.0,2055.0,0,-33.0,
2200.0,2199.0,0,-33.0,
2197.0,2204.0,0,-33.0,
1961.0,2256.0,0,-33.0,
1740.0,2111.0,0.914955,-33.0,
1749.0,2055.0,0,-33.0,
1987.0,2066.0,0,-33.0,
2456.0,2184.0,0,-33.0,
2359.0,2169.0,0,-33.0,
2216.0,2063.0,0,-33.0,
1947.0,1968.0,0,-33.0,
1959.0,1770.0,0,-33.0,
2047.0,1877.0,0,-33.0,
2108.0,2070.0,0.96337,-33.0,
1926.0,2103.0,0,-33.0,
2116.0,2251.0,0,-33.0,
2352.0,2112.0,0,-33.0,
2176.0,2055.0,0,-33.0,
2266.0,2239.0,1.01273,-33.0,
2257.0,2195.0,0,-33.0,
2207.0,2091.0,0,-33.0,
2207.0,1896.0,0,-33.0,
2133.0,1969.0,0,-33.0,
2056.0,1830.0,1.06995,-33.0,
2120.0,1751.0,0,-33.0,
2110.0,1922.0,0,-33.0,
2049.0,2002.0,0,-33.0,
1937.0,2077.0,0,-33.0,
1972.0,2276.0,1.13628,-33.0,
2080.0,2159.0,0,-34.0,
2066.0,2225.0,0,-34.0,
2112.0,2244.0,0,-34.0,
2083.0,2146.0,0,0,
2098.0,2033.0,1.205525,-35.0,
2085.0,2048.0,0,-35.0,
2120.0,2014.0,0,-35.0,
2132.0,2064.0,0,-35.0,
2104.0,2103.0,0,-35.0,
2046.0,2160.0,0,-35.0,
1922.0,2205.0,0,-35.0,
2120.0,2224.0,0,-35.0,
2195.0,2116.0,0,-35.0,
2232.0,2099.0,1.27138,-35.0,
2073.0,2019.0,0,-35.0,
2117.0,2168.0,0,-34.0,
2211.0,2086.0,0,-34.0,
2049.0,2011.0,0,-34.0,
1914.0,2183.0,1.33136,-34.0,
1842.0,2151.0,0,-34.0,
1939.0,2200.0,0,-34.0,
2197.0,2364.0,0,-34.0,
2511.0,2147.0,1.38358,-33.0,
2566.0,2080.0,0,-33.0,
2119.0,2029.0,0,-33.0,
1946.0,1846.0,0,-33.0,
1712.0,1855.0,0,-33.0,
1815.0,1974.0,0,-33.0,
2189.0,2056.0,1.430375,-33.0,
2198.0,2140.0,0,-33.0,
2115.0,2050.0,0,-33.0,
2247.0,2112.0,0,-33.0,
2098.0,2272.0,1.474975,-33.0,
2188.0,2297.0,0,-33.0,
2322.0,2218.0,0,-33.0,
2149.0,2279.0,0,-33.0,
2089.0,2056.0,0,-33.0,
1815.0,1982.0,0,-33.0,
1998.0,1780.0,0,-34.0,
2302.0,1699.0,0,-34.0,
2181.0,1687.0,0,-34.0,
2268.0,1776.0,0,-34.0,
2058.0,2002.0,0,-34.0,
2002.0,2145.0,1.521965,-34.0,
2023.0,2186.0,0,-34.0,
1984.0,2187.0,0,-34.0,
2044.0,2205.0,0,-34.0,
2133.0,2186.0,0,-34.0,
2136.0,2214.0,1.571395,-34.0,
2133.0,2304.0,0,-34.0,
2027.0,2190.0,0,-34.0,
2105.0,2141.0,0,-34.0,
2092.0,2115.0,1.623495,-34.0,
2095.0,2246.0,0,-34.0,
2093.0,2190.0,0,-34.0,
2106.0,2147.0,0,-34.0,
2114.0,2068.0,1.67096,-34.0,
2126.0,1971.0,0,-34.0,
2100.0,2061.0,0,-34.0,
2114.0,2173.0,0,-34.0,
2226.0,2224.0,0,-34.0,
2087.0,2137.0,0,-34.0,
2057.0,2031.0,0,-34.0,
2038.0,2073.0,0,-34.0,
2017.0,2087.0,0,-34.0,
2096.0,2056.0,0,-34.0,
2199.0,1984.0,1.70786,-34.0,
1942.0,1910.0,0,-34.0,
1725.0,2205.0,0,-34.0,
1646.0,2317.0,0,-34.0,
1818.0,2138.0,0,-34.0,
2372.0,2170.0,0,-34.0,
2853.0,2079.0,1.73326,-34.0,
2718.0,1865.0,0,-34.0,
2281.0,2046.0,0,-34.0,
1979.0,1886.0,0,-34.0,
2025.0,2110.0,0,-34.0,
2040.0,1954.0,1.750545,-34.0,
2111.0,1870.0,0,-34.0,
2099.0,2061.0,0,-34.0,
1909.0,2162.0,0,-34.0,
1897.0,2121.0,0,-34.0,
1936.0,2196.0,1.765645,-34.0,
2313.0,2231.0,0,-34.0,
2366.0,2118.0,0,-34.0,
2155.0,2106.0,0,-34.0,
1966.0,2005.0,1.78618,-34.0,
1861.0,2144.0,0,-33.0,
1847.0,2210.0,0,-34.0,
1911.0,2024.0,0,-34.0,
2195.0,2090.0,0,-34.0,
2442.0,2027.0,1.81364,-34.0,
2241.0,2095.0,0,-34.0,
1915.0,2038.0,0,-34.0,
2008.0,2084.0,0,-34.0,
2093.0,2077.0,0,-34.0,
2224.0,2042.0,0,-34.0,
2230.0,1956.0,0,-34.0,
2181.0,2140.0,0,-34.0,
2082.0,2357.0,0,-34.0,
2171.0,2162.0,1.840345,-34.0,
2295.0,2083.0,0,-34.0,
2107.0,2131.0,0,-34.0,
2175.0,2155.0,0,-34.0,
2128.0,2227.0,1.862985,-34.0,
1913.0,1992.0,0,-34.0,
2026.0,2062.0,0,-34.0,
2045.0,2240.0,0,-34.0,
2109.0,2273.0,0,-34.0,
1923.0,2050.0,1.878195,-34.0,
1927.0,2093.0,0,-34.0,
1948.0,1920.0,0,-34.0,
2085.0,1987.0,0,-34.0,
2025.0,1932.0,0,-34.0,
2221.0,1983.0,0,-34.0,
2231.0,2033.0,0,-34.0,
2164.0,2121.0,0,-34.0,
2069.0,2139.0,0,-34.0,
2094.0,2201.0,1.88472,-34.0,
2042.0,2170.0,0,-34.0,
1952.0,2230.0,0,-34.0,
1937.0,2111.0,0,-34.0,
2263.0,1966.0,0,-34.0,
2460.0,1904.0,1.885665,-34.0,
2425.0,1875.0,0,-34.0,
2207.0,1975.0,0,-34.0,
2040.0,2027.0,0,-34.0,
2017.0,2046.0,0,-34.0,
2092.0,2067.0,1.883915,-34.0,
2124.0,2114.0,0,-34.0,
2123.0,2510.0,0,-34.0,
1952.0,2440.0,0,-34.0,
1910.0,2118.0,1.88678,-34.0,
1875.0,1967.0,0,-34.0,
2145.0,1844.0,0,-34.0,
2040.0,2013.0,0,-34.0,
2005.0,2067.0,0,-34.0,
2093.0,1931.0,1.896,-34.0,
2184.0,1856.0,0,-34.0,
2226.0,2091.0,0,-34.0,
2171.0,2115.0,0,-34.0,
2123.0,2143.0,0,-34.0,
2187.0,2138.0,0,-34.0,
2077.0,2120.0,0,-34.0,
2118.0,2122.0,0,-34.0,
2065.0,2127.0,0,-34.0,
1981.0,2141.0,0,-34.0,
2009.0,2213.0,1.90812,-34.0,
2111.0,2200.0,0,-34.0,
2227.0,2238.0,0,-34.0,
2201.0,2098.0,0,-34.0,
2041.0,2038.0,0,-34.0,
2120.0,2076.0,1.923315,-34.0,
2090.0,2021.0,0,-34.0,
2142.0,2056.0,0,-34.0,
2056.0,2114.0,0,-34.0,
2111.0,2144.0,0,-34.0,
2099.0,2121.0,1.93479,-34.0,
2171.0,2078.0,0,-34.0,
2193.0,2108.0,0,-34.0,
2111.0,2108.0,1.937455,-34.0,
2104.0,2088.0,0,-34.0,
2168.0,2106.0,0,-34.0,
2143.0,2080.0,0,-34.0,
2142.0,2009.0,0,-34.0,
2008.0,2036.0,0,-34.0,
2016.0,2031.0,1.93055,-34.0,
1956.0,2036.0,0,-34.0,
2048.0,2056.0,0,-34.0,
2025.0,2001.0,0,-34.0,
2030.0,2109.0,0,-34.0,
2112.0,2202.0,0,-34.0,
2256.0,2257.0,0,-34.0,
2187.0,2233.0,0,-34.0,
2080.0,1961.0,0,-34.0,
2128.0,2015.0,1.91757,-34.0,
2058.0,1999.0,0,-34.0,
2054.0,2224.0,0,-34.0,
2144.0,2254.0,0,-34.0,
2133.0,2229.0,0,-34.0,
2103.0,2302.0,0,-34.0,
2092.0,2020.0,1.901415,-34.0,
2199.0,1874.0,0,-34.0,
2172.0,1646.0,0,-34.0,
2060.0,1864.0,1.883865,-34.0,
1873.0,1969.0,0,-34.0,
1920.0,2076.0,0,-34.0,
1984.0,2072.0,0,-34.0,
2235.0,2175.0,0,-34.0,
2131.0,2195.0,0,-34.0,
1954.0,2219.0,0,-34.0,
2027.0,2333.0,0,-34.0,
2147.0,2225.0,0,-34.0,
2218.0,2176.0,0,-34.0,
2274.0,1921.0,1.8647,-34.0,
2341.0,1915.0,1.84761,-34.0,
2227.0,1980.0,0,-34.0,
2182.0,2033.0,0,-34.0,
2131.0,2029.0,0,-34.0,
2061.0,1778.0,0,-34.0,
2069.0,1994.0,0,-34.0,
2083.0,2170.0,0,-34.0,
2126.0,2222.0,0,-34.0,
2095.0,2240.0,0,-33.0,
2127.0,2233.0,0,-33.0,
2027.0,2210.0,1.829575,-34.0,
2002.0,2253.0,0,-34.0,
2022.0,2177.0,0,-34.0,
2033.0,2048.0,0,-34.0,
2099.0,2064.0,1.810615,-34.0,
2034.0,2097.0,0,-34.0,
2052.0,2095.0,0,-34.0,
2177.0,2047.0,0,-34.0,
2099.0,1952.0,1.791495,-34.0,
2078.0,1965.0,0,-34.0,
2058.0,2078.0,0,-34.0,
2115.0,2074.0,0,-34.0,
2178.0,2094.0,0,-34.0,
2141.0,2266.0,1.777175,-34.0,
2080.0,2364.0,0,-34.0,
2154.0,2333.0,0,-34.0,
2093.0,2331.0,0,-34.0,
2085.0,2126.0,0,-34.0,
2035.0,2103.0,0,-34.0,
2108.0,1927.0,0,-34.0,
2058.0,1720.0,0,-34.0,
2010.0,1677.0,0,-34.0,
2113.0,1675.0,1.76661,-34.0,
2121.0,1865.0,0,-34.0,
2158.0,1991.0,0,-34.0,
2014.0,2184.0,0,-34.0,
2158.0,2250.0,0,-34.0,
2297.0,2249.0,0,-34.0,
2131.0,2295.0,1.754745,-34.0,
2167.0,2335.0,0,-34.0,
2190.0,2142.0,0,-34.0,
2045.0,2242.0,0,-34.0,
2093.0,2161.0,1.7452,-34.0,
1936.0,1997.0,0,-34.0,
1802.0,2004.0,0,-34.0,
1799.0,1968.0,0,-34.0,
2006.0,2197.0,0,-33.0,
2218.0,2144.0,0,-33.0,
2471.0,1993.0,0,-33.0,
2313.0,1948.0,0,-33.0,
1985.0,1828.0,0,-33.0,
2148.0,2081.0,1.73721,-33.0,
2144.0,2168.0,0,-33.0,
2257.0,2182.0,0,-33.0,
2155.0,1890.0,0,-33.0,
2145.0,2043.0,0,-33.0,
2033.0,2101.0,1.727675,-33.0,
2005.0,2259.0,0,-33.0,
1926.0,2391.0,0,-33.0,
2187.0,2314.0,0,-33.0,
2234.0,2242.0,1.71982,-34.0,
2053.0,2263.0,0,-34.0,
2109.0,1972.0,0,-34.0,
2130.0,1965.0,0,-34.0,
2057.0,2091.0,0,-34.0,
2116.0,1954.0,0,-34.0,
2026.0,1988.0,0,-34.0,
2036.0,2195.0,0,-34.0,
2077.0,2152.0,0,-34.0,
2022.0,2007.0,1.712375,-33.0,
2024.0,2008.0,0,-34.0,
2084.0,2263.0,0,-34.0,
2228.0,2306.0,0,-34.0,
2219.0,2193.0,0,-34.0,
2186.0,2016.0,1.70648,-34.0,
2118.0,1752.0,0,-34.0,
2009.0,1706.0,0,-34.0,
2035.0,1984.0,0,-34.0,
1999.0,2079.0,0,-34.0,
2042.0,2064.0,1.70598,-34.0,
2171.0,2058.0,0,-34.0,
2135.0,2015.0,0,-34.0,
2070.0,2204.0,0,-34.0,
1967.0,2223.0,1.710845,-34.0,
1989.0,2204.0,0,-34.0,
2260.0,2023.0,0,-34.0,
2134.0,2304.0,0,-34.0,
2278.0,2162.0,0,-34.0,
2129.0,2087.0,0,-34.0,
2090.0,1945.0,0,-34.0,
2189.0,2026.0,0,-34.0,
2139.0,1998.0,0,-34.0,
2227.0,2097.0,1.71971,-34.0,
2086.0,2145.0,0,-34.0,
2022.0,2272.0,0,-34.0,
2125.0,2376.0,0,-34.0,
2017.0,2357.0,0,-34.0,
1899.0,2070.0,1.73005,-34.0,
2021.0,1818.0,0,-34.0,
2155.0,1725.0,0,-34.0,
2232.0,1873.0,0,-34.0,
2164.0,2005.0,0,-34.0,
2085.0,2087.0,1.74204,-34.0,
2091.0,2219.0,0,-34.0,
2046.0,2253.0,0,-34.0,
2039.0,2322.0,0,-34.0,
2114.0,2134.0,0,-34.0,
2127.0,1911.0,1.753335,-34.0,
2290.0,1942.0,0,-34.0,
2156.0,2064.0,0,-34.0,
2114.0,2171.0,0,-34.0,
1929.0,2102.0,1.761625,-34.0,
2005.0,2110.0,0,-34.0,
2008.0,2192.0,0,-34.0,
2159.0,2106.0,0,-34.0,
2223.0,2058.0,0,-34.0,
2109.0,2215.0,0,-34.0,
2077.0,2216.0,0,-34.0,
2102.0,2233.0,0,-34.0,
2041.0,2124.0,0,-34.0,
1818.0,2050.0,1.765625,-34.0,
1940.0,1960.0,0,-34.0,
2108.0,1959.0,0,-34.0,
2192.0,1951.0,0,-34.0,
2195.0,2100.0,0,-34.0,
2165.0,2273.0,0,-34.0,
2035.0,2302.0,1.767185,-34.0,
2109.0,2130.0,0,-34.0,
2260.0,1974.0,0,-34.0,
2383.0,1915.0,0,-34.0,
2256.0,1929.0,0,-34.0,
2128.0,2061.0,1.76598,-34.0,
2106.0,1950.0,0,-34.0,
1953.0,1955.0,0,-34.0,
2164.0,2124.0,0,-34.0,
2081.0,2172.0,1.76334,-34.0,
2149.0,2116.0,0,-35.0,
2111.0,1999.0,0,-35.0,
2237.0,2108.0,0,-34.0,
2090.0,2162.0,0,-34.0,
1862.0,2266.0,0,-34.0,
1903.0,2283.0,0,-34.0,
1848.0,2148.0,0,-34.0,
2027.0,2208.0,0,-34.0,
2149.0,2193.0,1.76132,-34.0,
2269.0,2070.0,0,-34.0,
2166.0,2140.0,0,-34.0,
2077.0,1957.0,0,-34.0,
1977.0,1922.0,0,-34.0,
2056.0,2122.0,0,0,
1814.0,2061.0,1.76016,-34.0,
2014.0,1990.0,0,-34.0,
2339.0,1925.0,0,-34.0,
2297.0,2216.0,0,-34.0,
2135.0,2079.0,0,-34.0,
2082.0,2138.0,1.757265,-34.0,
2015.0,2039.0,0,-34.0,
2077.0,2101.0,0,-34.0,
2153.0,2120.0,0,-35.0,
2177.0,1845.0,0,-35.0,
2253.0,1979.0,1.753655,-35.0,
2129.0,2119.0,0,-35.0,
2067.0,2323.0,0,-35.0,
2287.0,2253.0,0,-35.0,
2286.0,2137.0,1.750655,-35.0,
2170.0,2130.0,0,-35.0,
1967.0,2207.0,0,-35.0,
1891.0,2330.0,0,-35.0,
2075.0,2215.0,0,-35.0,
2350.0,2108.0,1.75182,-35.0,
2133.0,2026.0,0,-35.0,
1961.0,1852.0,0,-35.0,
1956.0,1803.0,0,-35.0,
2033.0,1985.0,0,-35.0,
2021.0,1990.0,0,0,
2121.0,2187.0,0,-35.0,
2091.0,2127.0,0,-35.0,
2245.0,2253.0,0,-35.0,
2117.0,2140.0,0,-35.0,
1812.0,2245.0,1.75633,-35.0,
1868.0,2291.0,0,-35.0,
1846.0,2226.0,0,-35.0,
2400.0,1889.0,0,-35.0,
2166.0,1772.0,0,-35.0,
2139.0,1805.0,0,-35.0,
1967.0,1876.0,1.76236,-35.0,
2007.0,1945.0,0,-35.0,
2303.0,1963.0,0,-35.0,
2464.0,1849.0,0,-35.0,
2183.0,2069.0,1.768385,-35.0,
2142.0,2152.0,0,-35.0,
2178.0,2434.0,0,-35.0,
2108.0,2404.0,0,-35.0,
2211.0,2261.0,0,-35.0,
2090.0,2002.0,1.776885,-35.0,
2188.0,2042.0,0,-35.0,
2284.0,2213.0,0,-35.0,
1867.0,2092.0,0,-35.0,
1945.0,2171.0,1.787935,-35.0,
1955.0,2174.0,0,-35.0,
1712.0,2078.0,0,-35.0,
2143.0,1804.0,0,-35.0,
2267.0,1929.0,0,-35.0,
2367.0,2100.0,0,-35.0,
2231.0,2184.0,1.79818,-35.0,
1996.0,2219.0,0,-35.0,
1932.0,2128.0,0,-35.0,
2021.0,2245.0,0,-35.0,
2024.0,2278.0,0,-35.0,
2383.0,2273.0,0,-35.0,
2235.0,2032.0,0,-35.0,
2205.0,1935.0,0,-35.0,
2064.0,1769.0,0,-35.0,
2033.0,1829.0,1.8066,-35.0,
2048.0,2093.0,0,-35.0,
2042.0,2152.0,0,-35.0,
2075.0,2142.0,0,-35.0,
2059.0,2111.0,0,-35.0,
2096.0,2244.0,0,0,
2114.0,2249.0,1.81272,-35.0,
2170.0,2213.0,0,-35.0,
2159.0,2380.0,0,-35.0,
2116.0,2226.0,1.81896,-35.0,
2131.0,2077.0,0,-35.0,
2059.0,1874.0,0,-35.0,
1963.0,1770.0,0,-35.0,
1990.0,1984.0,0,-35.0,
1973.0,1984.0,0,-35.0,
2139.0,2083.0,1.824075,-35.0,
2114.0,1955.0,0,-35.0,
2111.0,2054.0,0,-35.0,
2107.0,2081.0,0,-35.0,
2041.0,2154.0,0,-35.0,
1775.0,2280.0,0,-35.0,
1920.0,2235.0,0,-35.0,
2187.0,2210.0,0,-35.0,
2533.0,2141.0,0,-35.0,
2602.0,2067.0,1.83449,-35.0,
2300.0,2122.0,0,-35.0,
2182.0,1913.0,0,-35.0,
1726.0,1827.0,0,-35.0,
1721.0,1879.0,0,0,
1970.0,1962.0,1.84979,-35.0,
2132.0,2146.0,0,-35.0,
2341.0,2216.0,0,-35.0,
2314.0,2364.0,0,-35.0,
2174.0,2315.0,0,-35.0,
2154.0,2059.0,1.862235,-35.0,
2147.0,1925.0,0,-35.0,
2029.0,2015.0,0,-35.0,
2068.0,2102.0,0,-35.0,
1999.0,2236.0,0,-35.0,
1956.0,2068.0,1.868555,-34.0,
2025.0,2005.0,0,-34.0,
2064.0,2154.0,0,-34.0,
2035.0,2138.0,0,-34.0,
2041.0,2201.0,1.87067,-34.0,
1981.0,2087.0,0,-34.0,
2121.0,2169.0,0,-34.0,
2147.0,2165.0,0,-34.0,
2316.0,2240.0,0,-34.0,
2265.0,2150.0,0,-34.0,
2076.0,1944.0,0,-34.0,
1950.0,1785.0,0,-34.0,
2106.0,1782.0,0,-34.0,
2209.0,1909.0,0,-34.0,
2133.0,2088.0,1.871465,-34.0,
2120.0,1928.0,0,-34.0,
2131.0,2047.0,0,-34.0,
2042.0,2124.0,0,-34.0,
2104.0,2117.0,0,-34.0,
2071.0,2251.0,0,-34.0,
1997.0,2203.0,1.87565,-34.0,
1997.0,2402.0,0,-34.0,
2117.0,2241.0,0,-34.0,
2321.0,2059.0,0,-34.0,
2105.0,2079.0,1.886775,-34.0,
2049.0,2144.0,0,-34.0,
2108.0,2000.0,0,-34.0,
2015.0,1963.0,0,-34.0,
2091.0,2103.0,0,-34.0,
2033.0,2179.0,1.900415,-34.0,
1976.0,2120.0,0,-34.0,
2028.0,2188.0,0,-34.0,
2055.0,2172.0,0,-34.0,
2169.0,2249.0,0,-34.0,
2070.0,2149.0,0,-34.0,
2250.0,2154.0,1.907645,-34.0,
2318.0,2284.0,0,-34.0,
2111.0,2205.0,0,-34.0,
2146.0,1711.0,0,-34.0,
2084.0,1597.0,1.907695,-34.0,
2077.0,1736.0,0,-34.0,
2074.0,1874.0,0,-34.0,
2052.0,1969.0,0,-34.0,
1992.0,2088.0,0,-34.0,
1881.0,2173.0,0,-34.0,
2026.0,2152.0,0,-34.0,
2344.0,2209.0,0,-34.0,
2345.0,2350.0,0,-34.0,
2306.0,2395.0,1.903775,-34.0,
1984.0,2193.0,0,-34.0,
2066.0,2034.0,0,-34.0,
2113.0,1844.0,0,-34.0,
1778.0,1833.0,0,0,
2032.0,2083.0,1.898805,-34.0,
2010.0,2171.0,0,-34.0,
2103.0,2183.0,0,-34.0,
2363.0,2115.0,0,-34.0,
2152.0,1969.0,0,-34.0,
2039.0,2100.0,1.89457,-34.0,
2219.0,2303.0,0,-34.0,
2202.0,2380.0,0,-34.0,
2047.0,2272.0,0,-34.0,
1828.0,1956.0,0,-34.0,
1862.0,1991.0,0,-34.0,
2212.0,2199.0,0,-34.0,
2216.0,1968.0,0,-34.0,
2219.0,1878.0,1.89468,-34.0,
2025.0,1859.0,0,-34.0,
1879.0,2176.0,0,-34.0,
1945.0,2132.0,0,-34.0,
2211.0,2128.0,0,-34.0,
2459.0,2156.0,1.897515,-34.0,
2225.0,2149.0,0,-34.0,
2091.0,2102.0,0,-34.0,
1940.0,2039.0,0,-34.0,
1998.0,2282.0,1.8999,-34.0,
2223.0,2248.0,0,-34.0,
2330.0,2157.0,0,-34.0,
2280.0,1915.0,0,-34.0,
2065.0,1851.0,0,-34.0,
1970.0,1952.0,0,-34.0,
2046.0,2078.0,0,-34.0,
2047.0,2121.0,0,-34.0,
1946.0,2019.0,0,-34.0,
1866.0,1996.0,1.89935,-34.0,
1974.0,1937.0,1.89635,-34.0,
2146.0,2084.0,0,-34.0,
2286.0,2191.0,0,-34.0,
2239.0,2119.0,0,-34.0,
2137.0,2088.0,0,-34.0,
2071.0,2312.0,0,-34.0,
1980.0,2316.0,0,-34.0,
2056.0,2375.0,0,-34.0,
2181.0,2345.0,0,-34.0,
2112.0,2422.0,0,-34.0,
1959.0,2269.0,1.893915,-34.0,
1954.0,1904.0,0,-34.0,
2421.0,1451.0,0,-34.0,
2295.0,1553.0,0,-34.0,
1980.0,1787.0,1.89022,-34.0,
1915.0,1968.0,0,-34.0,
2118.0,2103.0,0,-34.0,
2321.0,2222.0,0,-34.0,
2263.0,2236.0,0,-34.0,
2101.0,2096.0,1.883945,-34.0,
2150.0,2048.0,0,-34.0,
2123.0,2161.0,0,-34.0,
2130.0,2265.0,0,-34.0,
2074.0,2252.0,0,-34.0,
1965.0,2241.0,0,-34.0,
2083.0,2143.0,0,-34.0,
1962.0,2163.0,0,-34.0,
2166.0,2262.0,0,-34.0,
1905.0,2077.0,1.88035,-34.0,
2068.0,2059.0,0,-34.0,
2226.0,2058.0,0,-34.0,
2128.0,1957.0,0,-34.0,
1979.0,1948.0,1.87825,-34.0,
2162.0,2049.0,0,-34.0,
2193.0,1996.0,0,-34.0,
2211.0,1909.0,0,-34.0,
2159.0,2041.0,0,-34.0,
2090.0,2085.0,1.875115,-34.0,
2043.0,2081.0,0,-34.0,
2090.0,2186.0,0,-34.0,
2105.0,2178.0,0,-34.0,
1992.0,2207.0,1.872895,-34.0,
2027.0,2268.0,0,-34.0,
2120.0,2152.0,0,-34.0,
2166.0,2064.0,0,-34.0,
2050.0,1896.0,0,-34.0,
2018.0,1876.0,0,-34.0,
2007.0,2025.0,0,-34.0,
2163.0,2117.0,0,-34.0,
2156.0,2167.0,0,-34.0,
2242.0,2183.0,0,-34.0,
2182.0,2127.0,1.86979,-34.0,
2100.0,2167.0,0,-34.0,
1982.0,2194.0,0,-34.0,
1876.0,2143.0,0,-34.0,
2135.0,2070.0,1.86555,-34.0,
1974.0,2122.0,0,-34.0,
2249.0,2205.0,0,-34.0,
2193.0,2099.0,0,-34.0,
2119.0,2074.0,1.861245,-34.0,
2030.0,2072.0,0,-34.0,
2064.0,1946.0,0,-34.0,
2241.0,1948.0,0,-34.0,
2301.0,2017.0,0,-34.0,
2145.0,2187.0,0,-34.0,
1949.0,2195.0,1.86008,-34.0,
2083.0,2257.0,0,-34.0,
2091.0,2213.0,0,-34.0,
1964.0,1926.0,0,-34.0,
2124.0,1855.0,0,-34.0,
2160.0,1954.0,1.863925,-34.0,
2169.0,2063.0,0,-34.0,
2122.0,2061.0,0,-34.0,
2103.0,2042.0,0,-34.0,
2128.0,1935.0,0,-34.0,
2119.0,1990.0,0,-34.0,
2064.0,2040.0,0,-34.0,
1955.0,2126.0,0,-34.0,
2049.0,2274.0,0,-34.0,
2108.0,2271.0,0,-34.0,
2172.0,2211.0,1.86986,-34.0,
2067.0,2218.0,0,-34.0,
2057.0,2099.0,0,-34.0,
1937.0,2058.0,0,-34.0,
1967.0,2033.0,0,-34.0,
2221.0,2218.0,1.874495,-34.0,
2425.0,2293.0,0,-34.0,
2205.0,2188.0,0,-34.0,
2202.0,2271.0,0,-34.0,
2212.0,2267.0,0,-34.0,
2186.0,2102.0,1.874815,-34.0,
2038.0,1876.0,0,-34.0,
2116.0,1875.0,0,-34.0,
1966.0,1886.0,0,-34.0,
1799.0,1952.0,1.873765,-34.0,
1870.0,2008.0,0,-34.0,
2113.0,2052.0,0,-34.0,
2325.0,2132.0,0,-34.0,
2128.0,2261.0,0,-34.0,
2119.0,2415.0,0,-34.0,
2096.0,2334.0,1.873125,-34.0,
1881.0,2021.0,0,-34.0,
1926.0,1994.0,0,-34.0,
2021.0,2143.0,0,-34.0,
1984.0,1969.0,0,-34.0,
2107.0,1894.0,0,-34.0,
2183.0,1786.0,1.87337,-34.0,
2462.0,1830.0,0,-34.0,
2363.0,1965.0,0,-34.0,
2216.0,1924.0,0,-34.0,
2120.0,1954.0,0,-34.0,
2122.0,2163.0,0,-34.0,
1982.0,2287.0,0,-34.0,
1854.0,2388.0,0,-34.0,
1930.0,2243.0,0,-34.0,
2104.0,2334.0,1.87367,-34.0,
2241.0,2259.0,0,-34.0,
2292.0,2211.0,0,-34.0,
2295.0,2256.0,0,-34.0,
2222.0,2172.0,0,-34.0,
1932.0,1926.0,1.873685,-34.0,
1862.0,1788.0,0,-34.0,
1854.0,1993.0,0,-34.0,
2040.0,2203.0,0,-34.0,
2102.0,2151.0,1.873965,-34.0,
2174.0,2153.0,0,-34.0,
2163.0,2100.0,0,-34.0,
1999.0,2163.0,0,-34.0,
2012.0,2091.0,0,-34.0,
2059.0,2118.0,0,-34.0,
2148.0,2189.0,1.873445,-34.0,
2045.0,2040.0,0,-34.0,
2197.0,2090.0,0,-34.0,
2188.0,1988.0,0,-34.0,
2257.0,2046.0,0,-34.0,
2371.0,1810.0,1.87194,-34.0,
2169.0,1779.0,0,-34.0,
2030.0,2100.0,0,-34.0,
2080.0,2334.0,0,-34.0,
2154.0,2266.0,0,-34.0,
2087.0,1880.0,0,-34.0,
2033.0,1692.0,0,-34.0,
2019.0,1927.0,0,-34.0,
2142.0,2110.0,0,-34.0,
2097.0,2354.0,1.86999,-34.0,
1951.0,2484.0,0,-34.0,
1801.0,2474.0,0,-34.0,
1891.0,2334.0,0,-34.0,
2002.0,2194.0,0,-34.0,
2225.0,2077.0,1.867045,-34.0,
2342.0,2008.0,0,-34.0,
2206.0,2030.0,0,-34.0,
2202.0,2016.0,0,-34.0,
2037.0,2203.0,0,-34.0,
2016.0,2129.0,1.864665,-34.0,
2125.0,2179.0,0,-34.0,
2162.0,1816.0,0,-34.0,
2280.0,1768.0,0,-34.0,
2316.0,1776.0,0,-34.0,
2211.0,1911.0,1.864115,-34.0,
2083.0,1889.0,0,-34.0,
2046.0,2034.0,0,-34.0,
1994.0,2223.0,0,-34.0,
1963.0,2385.0,1.864605,-34.0,
2076.0,2343.0,0,-34.0,
2130.0,2119.0,0,-34.0,
2039.0,1966.0,0,-34.0,
2028.0,1987.0,0,-34.0,
2044.0,1964.0,1.866055,-34.0,
2066.0,2027.0,0,-34.0,
2113.0,2183.0,0,-34.0,
2123.0,2157.0,0,-34.0,
2029.0,2212.0,0,-34.0,
1976.0,2300.0,0,-34.0,
1907.0,2290.0,0,-34.0,
2209.0,2273.0,0,-34.0,
2374.0,2298.0,0,-34.0,
2182.0,1944.0,0,-34.0,
2050.0,1962.0,0,-34.0,
2180.0,2166.0,1.86764,-34.0,
2112.0,2281.0,0,-34.0,
1962.0,2177.0,0,-34.0,
1982.0,2099.0,0,-34.0,
2143.0,2149.0,0,-34.0,
2266.0,1978.0,1.870625,-34.0,
2056.0,1950.0,0,-34.0,
2066.0,1850.0,0,-34.0,
2107.0,1903.0,0,-34.0,
2081.0,1779.0,0,-34.0,
2326.0,1906.0,1.873965,-34.0,
2333.0,1997.0,0,-34.0,
2067.0,2242.0,0,-34.0,
2034.0,2261.0,0,-34.0,
1835.0,2229.0,1.87787,-34.0,
1967.0,2182.0,0,-34.0,
2088.0,1831.0,0,-34.0,
2233.0,2026.0,0,-34.0,
2168.0,2148.0,1.88209,-34.0,
2140.0,2174.0,0,-34.0,
2024.0,2037.0,0,-34.0,
1955.0,2141.0,0,-34.0,
2005.0,2188.0,0,-34.0,
2022.0,2302.0,0,-34.0,
2047.0,2169.0,0,-34.0,
2304.0,2095.0,0,-34.0,
2196.0,2084.0,0,-34.0,
2166.0,2237.0,0,-34.0,
2135.0,2067.0,0,-34.0,
2114.0,2090.0,1.885505,-34.0,
2094.0,1916.0,0,-34.0,
2200.0,2143.0,0,-34.0,
2309.0,2174.0,0,-34.0,
2106.0,2100.0,0,-34.0,
2006.0,1904.0,0,-34.0,
1930.0,2015.0,1.887395,-34.0,
1924.0,2092.0,0,-34.0,
2167.0,2058.0,0,-34.0,
2184.0,2068.0,0,-34.0,
2110.0,2007.0,1.888165,-34.0,
2101.0,2000.0,0,-34.0,
1953.0,2134.0,0,-34.0,
2098.0,2089.0,0,-34.0,
2162.0,2103.0,0,-34.0,
2194.0,2098.0,1.888905,-34.0,
2110.0,2019.0,0,-34.0,
2184.0,2014.0,0,-34.0,
1959.0,2303.0,0,-34.0,
1771.0,2290.0,0,-34.0,
1938.0,2162.0,1.89036,-34.0,
2144.0,2058.0,0,-34.0,
2387.0,1903.0,0,-34.0,
2354.0,1802.0,0,-34.0,
1911.0,2075.0,0,-34.0,
1775.0,2096.0,0,-34.0,
1947.0,2071.0,0,-34.0,
2341.0,2077.0,0,-34.0,
2594.0,2195.0,0,-34.0,
2324.0,2269.0,0,-34.0,
2038.0,2347.0,1.893735,-34.0,
2115.0,2196.0,0,-34.0,
2144.0,2199.0,0,-34.0,
2085.0,2179.0,0,-34.0,
1934.0,2134.0,0,-34.0,
1760.0,2133.0,1.897245,-34.0,
1881.0,2037.0,0,-34.0,
2283.0,2124.0,0,-34.0,
2250.0,1961.0,0,-34.0,
2202.0,1759.0,1.900995,-34.0,
2198.0,1876.0,0,-34.0,
2048.0,1859.0,0,-34.0,
2046.0,2198.0,0,-34.0,
2057.0,2158.0,0,-34.0,
2059.0,2089.0,1.90395,-34.0,
2091.0,2141.0,0,-34.0,
2080.0,2042.0,0,-34.0,
2106.0,2058.0,0,-34.0,
1994.0,2061.0,0,-34.0,
1995.0,2300.0,1.90599,-34.0,
2068.0,2071.0,0,-34.0,
2230.0,2080.0,0,-34.0,
2236.0,2120.0,0,-34.0,
2048.0,2085.0,0,-34.0,
1871.0,2102.0,1.90797,-34.0,
2034.0,2171.0,0,-34.0,
2269.0,2217.0,0,-34.0,
2396.0,2259.0,0,-34.0,
2303.0,2262.0,0,-34.0,
2230.0,2172.0,1.91011,-34.0,
2044.0,2127.0,1.914245,-34.0,
2054.0,1950.0,0,-34.0,
1985.0,1901.0,0,-34.0,
2141.0,1883.0,0,-34.0,
1931.0,2108.0,0,-34.0,
1917.0,2353.0,0,-34.0,
2090.0,2142.0,0,-34.0,
1882.0,1934.0,0,-34.0,
2254.0,1777.0,0,-34.0,
2367.0,1897.0,0,-34.0,
2185.0,2021.0,0,-34.0,
2128.0,2200.0,0,-34.0,
2114.0,2262.0,0,-34.0,
2150.0,2322.0,0,-34.0,
2270.0,2080.0,1.919345,-34.0,
2006.0,2186.0,0,-34.0,
1824.0,2067.0,0,-34.0,
1646.0,2210.0,0,-34.0,
1948.0,2214.0,0,-34.0,
2354.0,2217.0,0,-34.0,
2481.0,1958.0,1.922505,-34.0,
2290.0,1863.0,0,-34.0,
2134.0,1912.0,0,-34.0,
2168.0,2357.0,0,-34.0,
2097.0,2138.0,1.925825,-34.0,
2077.0,2089.0,0,-34.0,
2145.0,2127.0,0,-34.0,
2128.0,2083.0,0,-34.0,
1880.0,2099.0,0,-34.0,
1960.0,2086.0,0,-34.0,
1951.0,2051.0,0,-34.0,
2066.0,1891.0,0,-34.0,
2178.0,1838.0,0,-34.0,
2152.0,1961.0,1.9294,-34.0,
2072.0,2122.0,0,-34.0,
2059.0,2152.0,0,-34.0,
2102.0,2224.0,0,-34.0,
2207.0,2263.0,0,-34.0,
2224.0,2026.0,1.933165,-34.0,
2084.0,2305.0,1.93791,-34.0,
1908.0,2127.0,0,-34.0,
1793.0,2110.0,0,-34.0,
1863.0,2136.0,0,-34.0,
2052.0,2078.0,0,-34.0,
2373.0,1963.0,0,-34.0,
2330.0,1908.0,0,-35.0,
2118.0,1933.0,0,-35.0,
2250.0,2053.0,0,-34.0,
2210.0,2083.0,0,-34.0,
2241.0,2113.0,1.94161,-34.0,
2134.0,2297.0,0,-34.0,
2084.0,2284.0,0,-34.0,
2034.0,2313.0,0,-34.0,
1992.0,2279.0,0,-34.0,
2079.0,1827.0,1.94565,-34.0,
2266.0,1877.0,0,-34.0,
2047.0,2058.0,0,-34.0,
2017.0,2106.0,0,-34.0,
2035.0,2077.0,0,-35.0,
2058.0,1963.0,1.94996,-34.0,
2203.0,1884.0,0,-34.0,
2046.0,2010.0,0,-34.0,
2081.0,2078.0,0,-35.0,
2027.0,2333.0,0,-35.0,
1969.0,2383.0,1.95361,-35.0,
2018.0,2413.0,0,-34.0,
2137.0,2216.0,0,-34.0,
2221.0,2038.0,0,-34.0,
2154.0,1976.0,0,-34.0,
1903.0,1992.0,0,-34.0,
1957.0,2036.0,0,-34.0,
2096.0,2012.0,0,-34.0,
2339.0,2164.0,0,-34.0,
2267.0,2106.0,1.957845,-34.0,
2033.0,2035.0,0,-34.0,
2121.0,2147.0,0,-34.0,
2131.0,2021.0,0,-34.0,
2185.0,2047.0,0,-34.0,
2378.0,2083.0,0,-34.0,
2215.0,2043.0,1.961,-34.0,
2122.0,1955.0,0,-34.0,
1963.0,1909.0,0,-34.0,
2083.0,1948.0,0,-34.0,
2051.0,2074.0,1.964655,-34.0,
2074.0,1981.0,0,-34.0,
1909.0,2238.0,0,-34.0,
1960.0,2155.0,0,-34.0,
1956.0,2187.0,0,-34.0,
1876.0,1956.0,1.96981,-34.0,
1963.0,1843.0,0,-34.0,
2101.0,2123.0,0,-34.0,
2348.0,2111.0,0,-34.0,
2311.0,2415.0,0,-34.0,
2102.0,2403.0,0,-34.0,
2132.0,2213.0,0,-34.0,
2108.0,1956.0,0,-34.0,
2016.0,2053.0,0,-34.0,
2048.0,2122.0,1.97658,-34.0,
2200.0,2108.0,0,-34.0,
2294.0,2172.0,0,-34.0,
2253.0,2270.0,0,-34.0,
2108.0,2221.0,0,-34.0,
2031.0,2080.0,1.983175,-34.0,
2151.0,2068.0,0,-34.0,
2149.0,2122.0,0,-34.0,
2149.0,2052.0,0,-34.0,
2174.0,1956.0,1.98901,-34.0,
1992.0,2005.0,0,-34.0,
2040.0,2253.0,0,-34.0,
2121.0,1998.0,0,-34.0,
2206.0,1932.0,1.99359,-34.0,
2047.0,1895.0,0,-34.0,
1973.0,2147.0,0,-34.0,
1911.0,2047.0,0,-34.0,
2109.0,1853.0,0,-34.0,
2150.0,1976.0,0,-34.0,
1937.0,2074.0,0,-34.0,
1851.0,2218.0,0,-34.0,
1977.0,2153.0,0,-34.0,
2036.0,2200.0,1.99652,-34.0,
2114.0,2106.0,0,-34.0,
2014.0,2142.0,0,-34.0,
2040.0,1985.0,0,-34.0,
2259.0,2048.0,0,-34.0,
2343.0,2033.0,1.99883,-34.0,
2306.0,2101.0,0,-34.0,
2237.0,2261.0,0,-34.0,
2292.0,2059.0,0,-34.0,
2195.0,2288.0,1.999005,-34.0,
2096.0,2303.0,0,-34.0,
2107.0,2250.0,0,-34.0,
2068.0,2137.0,0,-34.0,
2053.0,2126.0,0,-34.0,
2120.0,1863.0,0,-34.0,
2122.0,1840.0,1.99744,-34.0,
2061.0,1825.0,0,-34.0,
1942.0,2103.0,0,-34.0,
1864.0,2082.0,0,-34.0,
1826.0,2055.0,0,-34.0,
2258.0,2004.0,1.99747,-34.0,
2299.0,2073.0,0,-34.0,
2058.0,2062.0,0,-34.0,
1861.0,2046.0,0,-34.0,
1956.0,2131.0,0,-34.0,
2212.0,2146.0,0,-34.0,
2374.0,2133.0,0,-34.0,
2109.0,2154.0,0,-34.0,
2048.0,2230.0,0,-34.0,
2003.0,2106.0,0,-34.0,
2124.0,2177.0,1.999885,-34.0,
2269.0,2204.0,0,-34.0,
2180.0,2206.0,0,-34.0,
2161.0,2147.0,0,-34.0,
2129.0,2145.0,0,-34.0,
2092.0,1982.0,2.001555,-34.0,
2103.0,1986.0,0,-34.0,
2071.0,1925.0,0,-34.0,
2098.0,2036.0,0,-34.0,
1967.0,2123.0,2.00039,-34.0,
1893.0,2129.0,0,-34.0,
2006.0,2186.0,0,-34.0,
2202.0,2185.0,0,-34.0,
2401.0,2103.0,1.995065,-34.0,
2204.0,2058.0,0,-34.0,
2155.0,2025.0,0,-34.0,
2075.0,2072.0,0,-34.0,
2092.0,2091.0,0,-34.0,
1997.0,2098.0,0,-34.0,
2093.0,2061.0,1.98389,-34.0,
2114.0,2110.0,0,-34.0,
2112.0,2071.0,0,-34.0,
2125.0,2082.0,0,-34.0,
2180.0,2100.0,0,-34.0,
2156.0,2093.0,0,-34.0,
2125.0,2022.0,0,-34.0,
2076.0,1992.0,0,-34.0,
2057.0,2028.0,0,-34.0,
1964.0,2113.0,0,-34.0,
2046.0,2139.0,1.96656,-34.0,
1985.0,2140.0,0,-34.0,
1962.0,2178.0,0,-34.0,
2046.0,2107.0,0,-34.0,
2130.0,2049.0,0,-34.0,
2250.0,2089.0,1.942285,-34.0,
2231.0,2008.0,0,-34.0,
2191.0,1899.0,0,-34.0,
2164.0,2160.0,0,-34.0,
2038.0,2251.0,0,-34.0,
1790.0,2407.0,1.909545,-34.0,
1734.0,2166.0,0,-34.0,
1917.0,2070.0,0,-34.0,
2211.0,2061.0,0,-34.0,
2314.0,2034.0,1.868935,-34.0,
2187.0,2067.0,0,-34.0,
2147.0,2147.0,0,-34.0,
2103.0,1938.0,0,-34.0,
2096.0,1939.0,0,-34.0,
2079.0,1840.0,0,-34.0,
2130.0,2010.0,0,-34.0,
2197.0,2082.0,0,-35.0,
2151.0,2122.0,0,-34.0,
2098.0,2136.0,1.821935,-34.0,
2081.0,2391.0,1.766945,-34.0,
2034.0,2528.0,0,-35.0,
2075.0,2218.0,0,-35.0,
2095.0,1985.0,0,-35.0,
2121.0,1579.0,0,-35.0,
2252.0,1887.0,0,-35.0,
2192.0,1928.0,0,-35.0,
2201.0,2051.0,0,-35.0,
2099.0,2072.0,0,-34.0,
2088.0,2145.0,0,-35.0,
2061.0,2214.0,0,-34.0,
2011.0,2254.0,1.6986,-34.0,
2061.0,2174.0,0,-34.0,
2193.0,2207.0,0,-34.0,
2252.0,2128.0,0,-34.0,
2119.0,1952.0,0,-34.0,
2098.0,2064.0,1.61369,-34.0,
2147.0,2147.0,0,-34.0,
2050.0,2184.0,0,-34.0,
2061.0,2165.0,0,-34.0,
2058.0,2144.0,0,-34.0,
1909.0,2100.0,1.51628,-34.0,
1870.0,2190.0,0,-34.0,
1973.0,2233.0,0,-34.0,
2031.0,2089.0,0,-35.0,
2165.0,1961.0,0,-35.0,
2333.0,1882.0,1.414455,-35.0,
2166.0,2108.0,0,-35.0,
2120.0,2220.0,0,-35.0,
2177.0,2097.0,0,-35.0,
2065.0,2044.0,0,-35.0,
2230.0,1960.0,0,-35.0,
2116.0,2089.0,1.316275,-35.0,
2167.0,2181.0,0,-35.0,
2272.0,2603.0,0,-35.0,
2081.0,2536.0,0,-35.0,
2106.0,2610.0,1.226275,-34.0,
1951.0,2092.0,0,-34.0,
1916.0,1587.0,0,-34.0,
1982.0,1111.0,0,-34.0,
2123.0,1472.0,0,-34.0,
2135.0,1961.0,0,-34.0,
2046.0,2149.0,0,-34.0,
2149.0,2209.0,0,-34.0,
2072.0,2198.0,0,-34.0,
2096.0,2066.0,0,-34.0,
2088.0,1677.0,1.146345,-34.0,
2090.0,1836.0,0,-34.0,
2270.0,1988.0,0,-34.0,
2212.0,2080.0,0,-34.0,
2115.0,2357.0,1.07415,-34.0,
2132.0,2173.0,0,-34.0,
1971.0,2121.0,0,-34.0,
1813.0,2168.0,0,-34.0,
1934.0,2234.0,0,-34.0,
2137.0,2252.0,1.00805,-34.0,
2328.0,2222.0,0,-34.0,
2299.0,2190.0,0,-34.0,
2180.0,2109.0,0,-34.0,
2166.0,2116.0,0,-34.0,
2117.0,2136.0,0,-34.0,
2068.0,2040.0,0.948185,-34.0,
2076.0,2131.0,0,-34.0,
2281.0,2135.0,0,-34.0,
2237.0,2118.0,0,-34.0,
2006.0,2120.0,0,-34.0,
1992.0,2088.0,0.893575,-34.0,
1880.0,1990.0,0,-34.0,
1924.0,2065.0,0,-34.0,
2047.0,2135.0,0,-34.0,
2161.0,2027.0,0,-34.0,
2237.0,2092.0,0.839825,-34.0,
2110.0,2168.0,0,-34.0,
2028.0,2121.0,0,-34.0,
2080.0,2091.0,0,-34.0,
2073.0,2102.0,0,-34.0,
2106.0,2048.0,0,-34.0,
2098.0,2062.0,0,-34.0,
2095.0,2101.0,0,-34.0,
2051.0,2181.0,0,-34.0,
2069.0,2150.0,0,-34.0,
2069.0,2143.0,0.78423,-34.0,
2052.0,1961.0,0,-34.0,
2176.0,2010.0,0,-34.0,
2086.0,2091.0,0,-34.0,
2066.0,2104.0,0,-34.0,
2125.0,2112.0,0.72671,-34.0,
2109.0,2057.0,0,-34.0,
2193.0,2054.0,0,-35.0,
2233.0,2080.0,0,-35.0,
2077.0,2101.0,0,-35.0,
2133.0,2077.0,0.672125,-35.0,
1928.0,2111.0,0,-35.0,
1990.0,2080.0,0,-35.0,
2235.0,2077.0,0,-35.0,
2056.0,2138.0,0.621495,-35.0,
1995.0,2129.0,0,-35.0,
2044.0,2183.0,0,-35.0,
2202.0,2143.0,0,-35.0,
2160.0,2041.0,0,-35.0,
2192.0,1976.0,0,-35.0,
2238.0,1937.0,0.580475,-35.0,
2272.0,2064.0,0,-35.0,
2108.0,2088.0,0,-35.0,
1982.0,2017.0,0,-36.0,
1921.0,1905.0,0,-36.0,
1938.0,2145.0,0,-36.0,
2003.0,2135.0,0,-36.0,
2219.0,2121.0,0,-36.0,
2265.0,2206.0,0,-36.0,
2088.0,2206.0,0.551475,-35.0,
1952.0,2233.0,0,-35.0,
1965.0,2121.0,0,-35.0,
2125.0,1939.0,0,-35.0,
2225.0,1751.0,0,-35.0,
2194.0,1984.0,0.53265,-35.0,
2096.0,2137.0,0,-35.0,
2066.0,2283.0,0,-35.0,
2132.0,2444.0,0,-35.0,
2213.0,2232.0,0.519645,-35.0,
2154.0,2325.0,0,-34.0,
2068.0,2317.0,0,-34.0,
2111.0,2238.0,0,-34.0,
2142.0,1603.0,0,-34.0,
2120.0,1520.0,0.507695,-34.0,
2052.0,1664.0,0,-34.0,
2071.0,1859.0,0,-34.0,
2016.0,2036.0,0,-34.0,
2084.0,2114.0,0,-34.0,
2199.0,2163.0,0,-33.0,
2070.0,2145.0,0,-33.0,
2038.0,2190.0,0,-33.0,
2126.0,2156.0,0,-33.0,
2090.0,2186.0,0.494665,-33.0,
2040.0,2084.0,0,-33.0,
2087.0,2053.0,0,-33.0,
2182.0,2133.0,0,-33.0,
2188.0,2167.0,0,-33.0,
2166.0,2150.0,0,-33.0,
2095.0,2173.0,0.48097,-33.0,
2070.0,2106.0,0,-34.0,
2011.0,2089.0,0,-34.0,
1991.0,2094.0,0,-34.0,
2032.0,2187.0,0,-34.0,
2183.0,2192.0,0,-34.0,
2153.0,2127.0,0.466195,-34.0,
2158.0,2092.0,0,-34.0,
2128.0,2054.0,0,-34.0,
2116.0,2064.0,0,-34.0,
2062.0,2094.0,0,-34.0,
2008.0,2001.0,0.449345,-34.0,
2054.0,2083.0,0,-34.0,
2101.0,2099.0,0,-34.0,
2253.0,2127.0,0,-34.0,
2149.0,2168.0,0.43112,-34.0,
2169.0,2130.0,0,-34.0,
2206.0,2124.0,0,-34.0,
2109.0,2016.0,0,-34.0,
2052.0,1971.0,0,0,
2009.0,2027.0,0.41262,-34.0,
2070.0,2036.0,0,-34.0,
2063.0,2049.0,0,-34.0,
2079.0,2131.0,0,-34.0,
2076.0,2169.0,0,-34.0,
2041.0,2144.0,0,-34.0,
2099.0,2074.0,0.395095,-34.0,
2012.0,2072.0,0,-34.0,
2103.0,2245.0,0,-34.0,
2148.0,2183.0,0,-34.0,
2098.0,2185.0,0,-34.0,
2153.0,2137.0,0,-34.0,
2119.0,1842.0,0.379865,-34.0,
2044.0,1827.0,0,-34.0,
2200.0,2007.0,0,-34.0,
2186.0,2104.0,0,-34.0,
2062.0,2128.0,0,-34.0,
2113.0,2220.0,0,-34.0,
2140.0,2243.0,0,-34.0,
2179.0,2202.0,0,-34.0,
2110.0,1982.0,0,-34.0,
1901.0,1940.0,0.366565,-34.0,
1975.0,2136.0,0,-34.0,
2072.0,2168.0,0,-34.0,
2078.0,2179.0,0,-34.0,
2027.0,2164.0,0,0,
1995.0,1940.0,0.356225,-34.0,
2020.0,2123.0,0,-34.0,
2208.0,2218.0,0,-34.0,
2378.0,2293.0,0,-34.0,
2299.0,2136.0,0,-33.0,
2225.0,1918.0,0.349855,-33.0,
2089.0,2010.0,0,-33.0,
2135.0,2072.0,0,-33.0,
2116.0,1813.0,0,-33.0,
2140.0,1989.0,0,-33.0,
2167.0,2144.0,0.346065,-33.0,
2103.0,2104.0,0,-33.0,
2089.0,2246.0,0,-33.0,
1893.0,2159.0,0,-33.0,
1933.0,2055.0,0.34326,-33.0,
2015.0,1885.0,0,-33.0,
2105.0,2052.0,0,-33.0,
2252.0,2141.0,0,-33.0,
2083.0,2115.0,0,-34.0,
2099.0,2104.0,0,-34.0,
2125.0,2142.0,0,-34.0,
2160.0,2163.0,0,-34.0,
2185.0,2145.0,0,-34.0,
2127.0,2090.0,0,-34.0,
2215.0,2111.0,0.340385,-34.0,
2130.0,2113.0,0,-34.0,
2054.0,2072.0,0,-34.0,
2037.0,2114.0,0,-33.0,
2012.0,2132.0,0,-33.0,
1900.0,2181.0,0.33747,-33.0,
2024.0,2130.0,0,-33.0,
2143.0,2127.0,0,-33.0,
2220.0,2178.0,0,-33.0,
2058.0,2193.0,0,-33.0,
1891.0,1998.0,0.33463,-33.0,
2235.0,1888.0,0,-33.0,
2293.0,1982.0,0,-33.0,
2123.0,2036.0,0,-33.0,
2012.0,2131.0,0,-33.0,
2049.0,2147.0,0.33172,-33.0,
2181.0,2101.0,0,-33.0,
2265.0,2066.0,0,-33.0,
2219.0,2042.0,0,-33.0,
1974.0,2102.0,0,-33.0,
1978.0,2247.0,0,-34.0,
2086.0,2101.0,0,-34.0,
2159.0,2040.0,0,-34.0,
2254.0,1880.0,0.32752,-34.0,
2016.0,1953.0,0,-34.0,
1987.0,2121.0,0,-34.0,
1969.0,2279.0,0,-34.0,
1919.0,2213.0,0,-34.0,
2056.0,2069.0,0,0,
2229.0,1991.0,0.323155,-33.0,
2213.0,1949.0,0,-33.0,
2149.0,1973.0,0,-33.0,
2161.0,1993.0,0,-33.0,
2117.0,2100.0,0.31935,-33.0,
2095.0,2324.0,0,-33.0,
2117.0,2356.0,0,-33.0,
2135.0,2239.0,0,-33.0,
2093.0,2060.0,0,-33.0,
2087.0,2025.0,0.315055,-33.0,
2115.0,1856.0,0,-33.0,
2143.0,1843.0,0,-33.0,
2172.0,2122.0,0,-33.0,
2066.0,2095.0,0.312035,-33.0,
2061.0,2100.0,0,-33.0,
2028.0,2187.0,0,-34.0,
2025.0,2204.0,0,-34.0,
2020.0,2081.0,0,-34.0,
2002.0,2094.0,0,-34.0,
2003.0,1974.0,0,-34.0,
2067.0,2031.0,0,-34.0,
2133.0,2105.0,0,-33.0,
2201.0,2033.0,0.30937,-33.0,
2307.0,2054.0,0,-33.0,
2169.0,2113.0,0,-33.0,
2041.0,2141.0,0,-33.0,
2064.0,2177.0,0,-33.0,
2151.0,2131.0,0.30659,-33.0,
2081.0,2096.0,0,-33.0,
2066.0,2039.0,0,-33.0,
2035.0,2123.0,0,-33.0,
2116.0,2168.0,0.305195,-33.0,
2091.0,2157.0,0,-33.0,
2134.0,2105.0,0,-33.0,
2172.0,1936.0,0,-33.0,
2209.0,2028.0,0,-33.0,
2114.0,2113.0,0,-33.0,
1951.0,2081.0,0,-33.0,
1877.0,2132.0,0,-33.0,
2033.0,2161.0,0,-34.0,
2326.0,2133.0,0.303875,-34.0,
2249.0,2167.0,0,-34.0,
2263.0,2118.0,0,-34.0,
2174.0,2117.0,0,-34.0,
1950.0,2181.0,0,-34.0,
1978.0,2058.0,0.30264,-34.0,
2025.0,2140.0,0,-34.0,
2036.0,2100.0,0,-34.0,
2050.0,1958.0,0,-34.0,
2089.0,1961.0,0.301215,-34.0,
2097.0,2022.0,0,-34.0,
2075.0,1998.0,0,-34.0,
2123.0,2123.0,0,-34.0,
2125.0,1989.0,0,-34.0,
2116.0,2072.0,0.299825,-34.0,
2091.0,2016.0,0,-34.0,
2076.0,2151.0,0,-34.0,
2107.0,2208.0,0,-34.0,
2178.0,2071.0,0,-34.0,
2180.0,2149.0,0,-34.0,
2147.0,2149.0,0,-34.0,
2104.0,2043.0,0,-34.0,
2041.0,2094.0,0,-34.0,
2040.0,2059.0,0,-34.0,
2076.0,2117.0,0.29841,-34.0,
1993.0,2108.0,0.29768,-34.0,
2002.0,2134.0,0,-34.0,
2085.0,2125.0,0,-34.0,
2252.0,2019.0,0,-34.0,
2378.0,2084.0,0,-34.0,
2190.0,2162.0,0,-34.0,
2114.0,2139.0,0,-33.0,
2020.0,2063.0,0,-33.0,
2106.0,1939.0,0,-33.0,
1867.0,2066.0,0,-33.0,
1891.0,2127.0,0.296905,-33.0,
2028.0,2106.0,0,-33.0,
1935.0,2036.0,0,-33.0,
2183.0,2002.0,0,-33.0,
2251.0,2099.0,0,-33.0,
2313.0,2092.0,0.296195,-33.0,
2248.0,2092.0,0,-33.0,
2179.0,2174.0,0,-33.0,
2099.0,2189.0,0,-33.0,
2055.0,2144.0,0.295555,-33.0,
2096.0,2126.0,0,-33.0,
2096.0,1937.0,0,-33.0,
2092.0,2017.0,0,-33.0,
2030.0,2140.0,0,-33.0,
2118.0,2201.0,0,-33.0,
2098.0,2112.0,0,-33.0,
2104.0,2070.0,0,-33.0,
2063.0,2172.0,0,-34.0,
1999.0,2263.0,0.295345,-34.0,
1993.0,2223.0,0,-34.0,
2014.0,2124.0,0,-34.0,
2051.0,1997.0,0,-34.0,
2231.0,1943.0,0,-34.0,
2259.0,2116.0,0.29564,-34.0,
2186.0,1970.0,0,-34.0,
2167.0,1940.0,0,-34.0,
2095.0,2029.0,0,-34.0,
2142.0,2030.0,0,-34.0,
2100.0,2052.0,0,-34.0,
2049.0,2170.0,0.29535,-34.0,
1965.0,2049.0,0,-34.0,
2046.0,2168.0,0,-34.0,
2041.0,2202.0,0,-34.0,
2106.0,2138.0,0,-34.0,
2015.0,2204.0,0.295685,-34.0,
2084.0,2133.0,0,-34.0,
2247.0,2119.0,0,-34.0,
2204.0,2119.0,0,-34.0,
2127.0,1944.0,0,-34.0,
2104.0,2180.0,0.296175,-34.0,
2011.0,2148.0,0,-34.0,
2033.0,1907.0,0,-34.0,
2083.0,2012.0,0,-34.0,
2112.0,2078.0,0,-34.0,
2069.0,1873.0,0.29667,-34.0,
2047.0,1965.0,0,-34.0,
2022.0,2087.0,0,-34.0,
2053.0,2217.0,0,-34.0,
2055.0,2276.0,0,-34.0,
2133.0,2219.0,0,-34.0,
2050.0,2133.0,0,-34.0,
2047.0,2001.0,0,-34.0,
2074.0,2016.0,0.297245,-34.0,
2083.0,2126.0,0,-34.0,
2457.0,2162.0,0,-34.0,
2293.0,1990.0,0,-34.0,
2127.0,1861.0,0,-34.0,
2068.0,2089.0,0,-34.0,
2047.0,2078.0,0.297635,-34.0,
2121.0,2039.0,0,-34.0,
2153.0,2000.0,0,-34.0,
2107.0,2014.0,0,-34.0,
2170.0,2055.0,0,-34.0,
2154.0,2115.0,0.297505,-34.0,
2174.0,2149.0,0,-34.0,
2169.0,2137.0,0,-34.0,
1962.0,2098.0,0,-34.0,
2004.0,2192.0,0,0,
1882.0,2268.0,0.297325,-34.0,
1974.0,2239.0,0,-34.0,
2093.0,2014.0,0,-34.0,
2194.0,2017.0,0,-34.0,
2200.0,2052.0,0,-34.0,
2181.0,2181.0,0.297095,-34.0,
2093.0,2202.0,0,-34.0,
1984.0,2099.0,0,-34.0,
2053.0,2040.0,0,-34.0,
2078.0,2039.0,0.29728,-34.0,
2113.0,2025.0,0,-34.0,
2106.0,2068.0,0,-34.0,
2006.0,2154.0,0,-34.0,
1971.0,2159.0,0,-34.0,
2050.0,2155.0,0,-34.0,
2172.0,1998.0,0,-34.0,
2171.0,2064.0,0,-34.0,
2265.0,2095.0,0,-34.0,
2114.0,1924.0,0,-34.0,
2067.0,2004.0,0.296875,-34.0,
2120.0,2094.0,0,-34.0,
2170.0,2123.0,0,-34.0,
2270.0,2159.0,0,-34.0,
2160.0,2127.0,0,-34.0,
2128.0,1993.0,0.29611,-34.0,
2057.0,1850.0,0,-34.0,
2025.0,1871.0,0,-34.0,
2000.0,2079.0,0,-34.0,
2064.0,2157.0,0,-34.0,
2014.0,2140.0,0,-34.0,
2024.0,2145.0,0.29598,-34.0,
1988.0,2182.0,0,-34.0,
2121.0,2155.0,0,-34.0,
2291.0,2150.0,0,-34.0,
2208.0,2048.0,0.296515,-34.0,
2119.0,2059.0,0,-34.0,
2051.0,2129.0,0,-34.0,
2066.0,2139.0,0,-34.0,
2101.0,2068.0,0,-34.0,
2255.0,2157.0,0,-34.0,
2151.0,2327.0,0.297545,-34.0,
2076.0,2107.0,0,-34.0,
2032.0,2038.0,0,-34.0,
1978.0,1925.0,0,-34.0,
2103.0,2082.0,0.297405,-34.0,
2167.0,2221.0,0,-34.0,
2173.0,1974.0,0,-34.0,
2188.0,2050.0,0,-34.0,
2169.0,2165.0,0,-34.0,
2103.0,2181.0,0,-34.0,
1858.0,2212.0,0,-34.0,
1789.0,2269.0,0,-34.0,
1865.0,2138.0,0,-34.0,
2032.0,2134.0,0.29693,-34.0,
2320.0,1706.0,0,-34.0,
2414.0,1893.0,0,-34.0,
2226.0,2080.0,0,-34.0,
2110.0,2149.0,0,-34.0,
2078.0,2147.0,0,-34.0,
2082.0,2091.0,0.29704,-34.0,
2118.0,2142.0,0,-34.0,
2127.0,2158.0,0,-34.0,
1988.0,2117.0,0,-34.0,
2018.0,2020.0,0.29689,-34.0,
2086.0,1947.0,0,-34.0,
2097.0,2125.0,0,-34.0,
2077.0,2202.0,0,-34.0,
2120.0,2214.0,0,-34.0,
2127.0,2198.0,0,-34.0,
2130.0,2140.0,0,0,
2110.0,1968.0,0.29667,-34.0,
2102.0,1955.0,0,-34.0,
2073.0,2063.0,0,-34.0,
2005.0,2147.0,0,-34.0,
2020.0,2179.0,0,-34.0,
1965.0,2138.0,0.296065,-34.0,
2130.0,2072.0,0,-34.0,
2276.0,2085.0,0,-34.0,
2109.0,2008.0,0,-34.0,
2028.0,2080.0,0,-34.0,
2142.0,2134.0,0.29561,-34.0,
2189.0,2098.0,0.294945,-34.0,
2443.0,1981.0,0.294495,-34.0,
2171.0,2039.0,0,-34.0,
2036.0,2133.0,0,-34.0,
1942.0,2165.0,0,-34.0,
1931.0,2153.0,0,-34.0,
2058.0,2128.0,0,-34.0,
2197.0,1995.0,0,-34.0,
2338.0,2052.0,0,-34.0,
2046.0,2125.0,0,-34.0,
1972.0,2081.0,0,-34.0,
2078.0,2057.0,0,-34.0,
2146.0,2056.0,0,-34.0,
2184.0,2091.0,0,-34.0,
2133.0,2104.0,0,-34.0,
2097.0,2105.0,0.293475,-34.0,
2094.0,2093.0,0.29256,-34.0,
2223.0,2134.0,0,-34.0,
2050.0,2128.0,0,-33.0,
1979.0,2114.0,0,-33.0,
1958.0,2078.0,0,-33.0,
2034.0,2030.0,0,-33.0,
2111.0,2018.0,0,-33.0,
2066.0,2074.0,0,-33.0,
1974.0,2083.0,0,-33.0,
2053.0,2074.0,0,-33.0,
2067.0,2084.0,0,-33.0,
2185.0,2005.0,0,-33.0,
2144.0,2065.0,0,-33.0,
2174.0,2133.0,0.29164,-33.0,
2105.0,2143.0,0,-33.0,
2168.0,2206.0,0,-33.0,
2145.0,2191.0,0,-33.0,
2024.0,2158.0,0,-32.0,
1965.0,2078.0,0.29135,-32.0,
2047.0,2029.0,0,-32.0,
2184.0,2062.0,0,-32.0,
2014.0,2103.0,0,-32.0,
2045.0,2106.0,0,-32.0,
2322.0,2005.0,0,-32.0,
2230.0,2033.0,0,-32.0,
2184.0,2084.0,0,-32.0,
2194.0,2130.0,0,-32.0,
2161.0,2094.0,0,-32.0,
2087.0,2107.0,0.28999,-32.0,
2059.0,2093.0,0,-32.0,
2086.0,2151.0,0,-32.0,
2071.0,2231.0,0,-32.0,
2163.0,2156.0,0,-32.0,
2103.0,2012.0,0.288535,-32.0,
1999.0,1899.0,0.28641,-32.0,
2062.0,1995.0,0.28444,-32.0,
2019.0,2098.0,0.283405,-33.0,
2069.0,2160.0,0.282955,-33.0,
2135.0,2156.0,0,-33.0,
2145.0,2144.0,0,-33.0,
2109.0,2105.0,0,-33.0,
2100.0,2030.0,0,-33.0,
2116.0,1998.0,0,-33.0,
2148.0,2053.0,0,-33.0,
2163.0,2123.0,0,-33.0,
2144.0,2124.0,0,-34.0,
2120.0,2120.0,0,-34.0,
2038.0,2099.0,0,-34.0,
2077.0,2183.0,0,-34.0,
1858.0,2117.0,0,-34.0,
1791.0,2021.0,0,-34.0,
2025.0,1986.0,0,-34.0,
2203.0,1984.0,0,-34.0,
2487.0,1964.0,0,-34.0,
2453.0,2082.0,0,-33.0,
2361.0,2029.0,0,-33.0,
2116.0,2130.0,0,-33.0,
2020.0,2212.0,0,-33.0,
1969.0,2089.0,0,-33.0,
2006.0,2026.0,0,-33.0,
2067.0,2098.0,0,-33.0,
2104.0,2139.0,0.283505,-33.0,
2036.0,2151.0,0,-32.0,
1975.0,2160.0,0,-32.0,
1868.0,2187.0,0,-32.0,
2019.0,2214.0,0.28457,-32.0,
2105.0,2210.0,0,-32.0,
2366.0,2058.0,0,-32.0,
2335.0,1968.0,0,-32.0,
2197.0,2034.0,0.28543,-32.0,
2108.0,2159.0,0,-32.0,
2022.0,2072.0,0,-32.0,
1976.0,2124.0,0,-32.0,
2027.0,2145.0,0,-32.0,
2104.0,1993.0,0,-32.0,
2171.0,2063.0,0.285765,-32.0,
2146.0,2111.0,0,-32.0,
1851.0,1981.0,0,-32.0,
1965.0,1913.0,0,-32.0,
2001.0,2039.0,0,-32.0,
2134.0,2159.0,0,-32.0,
2222.0,2154.0,0,-32.0,
2272.0,2072.0,0,-32.0,
2214.0,2091.0,0,-31.0,
2089.0,2113.0,0.28634,-31.0,
2137.0,2119.0,0,-31.0,
2185.0,2057.0,0,-31.0,
2160.0,2142.0,0,-31.0,
2108.0,2075.0,0,-31.0,
1983.0,2118.0,0.287715,-31.0,
1957.0,2206.0,0,-31.0,
2015.0,2075.0,0,-31.0,
2072.0,2110.0,0,-31.0,
2145.0,2050.0,0,-31.0,
2090.0,2060.0,0.288635,-31.0,
2093.0,2173.0,0,-31.0,
2033.0,2200.0,0,-31.0,
2041.0,2092.0,0,-31.0,
2234.0,2040.0,0,-31.0,
2183.0,1927.0,0.289305,-31.0,
2089.0,2051.0,0,-30.0,
2118.0,2081.0,0,-30.0,
2149.0,2032.0,0,-30.0,
2026.0,2010.0,0,-30.0,
2038.0,2116.0,0,-30.0,
2037.0,2029.0,0,-30.0,
2110.0,2128.0,0,-30.0,
2209.0,2141.0,0,-30.0,
2083.0,2115.0,0.28975,-30.0,
2111.0,2074.0,0,-30.0,
2049.0,2046.0,0,-30.0,
2048.0,2108.0,0,-29.0,
2041.0,2140.0,0,-29.0,
2226.0,2184.0,0,-29.0,
2167.0,2044.0,0.291095,-29.0,
2202.0,2055.0,0,-29.0,
2169.0,2074.0,0,-29.0,
2167.0,2124.0,0,-29.0,
2046.0,2140.0,0.29328,-29.0,
2077.0,2146.0,0,-29.0,
2021.0,2122.0,0,-29.0,
2044.0,2133.0,0,-29.0,
2041.0,2118.0,0,-29.0,
2122.0,2055.0,0.2953,-29.0,
2050.0,2029.0,0,-29.0,
2143.0,2173.0,0,-29.0,
2237.0,2119.0,0,-29.0,
2032.0,2083.0,0,0,
1990.0,2062.0,0.298015,-29.0,
1984.0,2029.0,0,-29.0,
2101.0,2147.0,0,-29.0,
2196.0,2063.0,0,-29.0,
2076.0,1945.0,0,-29.0,
2049.0,2079.0,0,-29.0,
2009.0,2116.0,0,-29.0,
2174.0,2092.0,0,-29.0,
2222.0,2111.0,0,-29.0,
2089.0,2069.0,0.299995,-29.0,
2111.0,2168.0,0,-29.0,
2045.0,2159.0,0,-29.0,
2170.0,2153.0,0,-28.0,
2314.0,1941.0,0,-28.0,
2103.0,2021.0,0.302985,-28.0,
2158.0,2070.0,0,-28.0,
2078.0,2084.0,0,-28.0,
2110.0,2152.0,0.30734,-28.0,
2069.0,2150.0,0,-27.0,
1990.0,2181.0,0,-27.0,
1921.0,2223.0,0,-27.0,
1997.0,2169.0,0,-27.0,
2195.0,2186.0,0,-27.0,
2267.0,2043.0,0,-27.0,
2164.0,1886.0,0,-27.0,
2223.0,1942.0,0,-27.0,
2129.0,1965.0,0,-27.0,
2151.0,2063.0,0.31234,-27.0,
2028.0,2067.0,0.316875,-27.0,
2102.0,2121.0,0.32085,-27.0,
1997.0,2147.0,0,-27.0,
2060.0,2146.0,0,-27.0,
2068.0,2058.0,0,-27.0,
2152.0,2157.0,0,-27.0,
2206.0,1990.0,0,-27.0,
2116.0,2041.0,0,-27.0,
2016.0,2018.0,0,-27.0,
1922.0,2069.0,0,-27.0,
2054.0,2191.0,0,-27.0,
2086.0,2148.0,0,-27.0,
2087.0,2091.0,0,-27.0,
2010.0,2093.0,0,-27.0,
1933.0,2091.0,0,-27.0,
2011.0,2079.0,0,-28.0,
2246.0,2093.0,0.325055,-28.0,
2480.0,2198.0,0,-28.0,
2414.0,2164.0,0,-28.0,
2114.0,2116.0,0,-28.0,
1898.0,1942.0,0,-28.0,
1962.0,2000.0,0.32946,-27.0,
2098.0,2099.0,0,-27.0,
2021.0,2070.0,0,-27.0,
1973.0,2059.0,0,-27.0,
1968.0,2129.0,0,-27.0,
2160.0,2195.0,0.334625,-27.0,
2276.0,2197.0,0,-27.0,
2243.0,2147.0,0,-27.0,
2047.0,2063.0,0,-27.0,
2121.0,1871.0,0,-27.0,
2185.0,2008.0,0.338705,-27.0,
2151.0,2071.0,0,-27.0,
2128.0,2102.0,0,-27.0,
2084.0,2137.0,0,-27.0,
2108.0,2069.0,0,-26.0,
2150.0,1992.0,0.342725,-26.0,
2027.0,2147.0,0,-26.0,
2029.0,2159.0,0,-26.0,
2040.0,2143.0,0,-26.0,
2006.0,2184.0,0,-26.0,
2033.0,2208.0,0.347065,-26.0,
2137.0,2155.0,0,-26.0,
2128.0,2182.0,0,-26.0,
2110.0,2075.0,0,-26.0,
2126.0,2061.0,0,-25.0,
2139.0,2018.0,0,-25.0,
2243.0,2026.0,0,-25.0,
2195.0,2052.0,0,-25.0,
2069.0,2017.0,0,-25.0,
2060.0,2125.0,0.35081,-25.0,
1994.0,2058.0,0,-25.0,
2211.0,2052.0,0,-25.0,
2186.0,2084.0,0,-25.0,
1961.0,2092.0,0,-25.0,
2029.0,2069.0,0,-25.0,
1942.0,2116.0,0.35425,-25.0,
2070.0,2057.0,0,-25.0,
2095.0,2073.0,0,-25.0,
2090.0,2095.0,0,-25.0,
2025.0,2042.0,0,-25.0,
2027.0,2102.0,0,-25.0,
2147.0,2123.0,0.35798,-25.0,
2231.0,2135.0,0,-25.0,
2275.0,2136.0,0,-25.0,
2224.0,2143.0,0,-25.0,
2177.0,2107.0,0,-25.0,
2152.0,2014.0,0.361675,-25.0,
1915.0,2057.0,0,-25.0,
1936.0,2118.0,0,-24.0,
2042.0,2167.0,0,-24.0,
2121.0,2136.0,0.36611,-24.0,
2263.0,2042.0,0,-24.0,
2110.0,2033.0,0,-24.0,
2083.0,2067.0,0,-24.0,
2125.0,2023.0,0,-24.0,
2128.0,2084.0,0.370315,-24.0,
2060.0,2093.0,0,-24.0,
2120.0,2136.0,0,-23.0,
2095.0,2187.0,0,-23.0,
2078.0,2197.0,0,-23.0,
2050.0,2162.0,0.374285,-23.0,
1935.0,2083.0,0,-23.0,
2002.0,2130.0,0,-23.0,
2174.0,1996.0,0,-23.0,
2197.0,1931.0,0,-23.0,
2365.0,2083.0,0,-23.0,
2198.0,2112.0,0,-23.0,
2098.0,2056.0,0,-23.0,
2102.0,2101.0,0,-23.0,
2039.0,2108.0,0,-23.0,
2089.0,1980.0,0.37887,-23.0,
2141.0,2031.0,0,-23.0,
2147.0,2091.0,0,-23.0,
2086.0,2111.0,0,-23.0,
2036.0,2099.0,0,-23.0,
1958.0,2147.0,0.383935,-23.0,
1954.0,2210.0,0,-23.0,
1965.0,2142.0,0,-22.0,
2056.0,2162.0,0,-22.0,
2249.0,2024.0,0,-22.0,
2277.0,1965.0,0.391,-23.0,
2173.0,2086.0,0,-22.0,
2092.0,2121.0,0,-22.0,
2021.0,2089.0,0,-22.0,
2035.0,2038.0,0,-22.0,
2161.0,2067.0,0.39961,-22.0,
2192.0,1999.0,0,-22.0,
2112.0,2106.0,0,-22.0,
2026.0,2130.0,0,-22.0,
2072.0,2110.0,0,-22.0,
2125.0,2106.0,0,-22.0,
2087.0,2087.0,0,-22.0,
2025.0,2201.0,0,-22.0,
1921.0,2179.0,0,-22.0,
1946.0,2224.0,0,-22.0,
2157.0,2107.0,0.408425,-22.0,
2260.0,1904.0,0,-22.0,
2347.0,2027.0,0,-21.0,
2279.0,2141.0,0.415645,-21.0,
2135.0,2102.0,0,-21.0,
2121.0,2083.0,0,-21.0,
2007.0,2115.0,0,-21.0,
2076.0,1972.0,0,-21.0,
2152.0,2036.0,0,-21.0,
2024.0,2110.0,0.422205,-21.0,
1896.0,2089.0,0,-21.0,
1969.0,2148.0,0,-20.0,
2023.0,2175.0,0,-20.0,
2147.0,2095.0,0,-20.0,
2334.0,2060.0,0,-20.0,
2179.0,2035.0,0,-20.0,
2153.0,2042.0,0,-20.0,
2184.0,2104.0,0,-20.0,
2197.0,2201.0,0.42818,-20.0,
2098.0,2190.0,0,-20.0,
2047.0,2162.0,0,-20.0,
1972.0,2052.0,0,-20.0,
2040.0,2003.0,0.43364,-20.0,
2005.0,2068.0,0,-20.0,
2058.0,2002.0,0,-20.0,
2236.0,1983.0,0,-20.0,
2140.0,1964.0,0,-20.0,
2136.0,2101.0,0,-20.0,
2069.0,2173.0,0.4383,-20.0,
2026.0,2146.0,0,-20.0,
2064.0,2134.0,0,-20.0,
1994.0,2135.0,0,-20.0,
2072.0,2141.0,0,-20.0,
2210.0,2173.0,0,-20.0,
2222.0,2180.0,0.442445,-20.0,
2112.0,2056.0,0,-20.0,
2105.0,2057.0,0,-20.0,
2202.0,2059.0,0,-20.0,
2247.0,2024.0,0.446685,-20.0,
2232.0,2055.0,0,-20.0,
2020.0,2110.0,0,-20.0,
1907.0,2056.0,0,-20.0,
1986.0,2062.0,0,-19.0,
2047.0,2097.0,0,-19.0,
2125.0,2082.0,0,-19.0,
2132.0,2090.0,0,-19.0,
1990.0,2086.0,0,-19.0,
2001.0,2070.0,0,-19.0,
2076.0,2093.0,0.44968,-19.0,
2134.0,2104.0,0,-19.0,
2164.0,2134.0,0,-19.0,
2140.0,2150.0,0,-19.0,
2151.0,2150.0,0,-18.0,
2069.0,2141.0,0.45187,-18.0,
2037.0,2110.0,0,-18.0,
2033.0,2116.0,0,-18.0,
2067.0,2100.0,0,-18.0,
2307.0,2101.0,0,-18.0,
2281.0,2138.0,0.453615,-18.0,
2140.0,2125.0,0,-18.0,
1997.0,2091.0,0,-18.0,
2043.0,2139.0,0,-18.0,
2076.0,2196.0,0,-18.0,
2156.0,2188.0,0.454905,-18.0,
2179.0,2163.0,0,-18.0,
2146.0,2084.0,0,-18.0,
2187.0,1998.0,0,-17.0,
2095.0,2078.0,0.455405,-17.0,
2081.0,2072.0,0,-17.0,
2024.0,2057.0,0,-17.0,
2090.0,2115.0,0,-17.0,
2072.0,2107.0,0,-17.0,
2017.0,2124.0,0,-17.0,
2016.0,2020.0,0,-16.0,
2248.0,2024.0,0,-16.0,
2250.0,1831.0,0.456615,-16.0,
2109.0,2022.0,0,-16.0,
1960.0,2135.0,0,-16.0,
2021.0,2160.0,0,-16.0,
2027.0,1982.0,0,-16.0,
2212.0,2023.0,0,-16.0,
2199.0,2117.0,0,-17.0,
2145.0,2116.0,0,-17.0,
2032.0,2152.0,0.45908,-17.0,
2028.0,2153.0,0,-17.0,
2052.0,2134.0,0,-17.0,
2027.0,2166.0,0,-17.0,
2236.0,2173.0,0,-17.0,
2180.0,2199.0,0,-18.0,
2120.0,2203.0,0.46264,-18.0,
2029.0,2132.0,0,-18.0,
2141.0,1949.0,0,-18.0,
2241.0,1931.0,0,-18.0,
2163.0,2005.0,0.46613,-18.0,
2053.0,2107.0,0,-18.0,
2022.0,2131.0,0,-18.0,
2052.0,2108.0,0,-18.0,
2088.0,2117.0,0,-18.0,
2097.0,2195.0,0,-18.0,
2122.0,2220.0,0,-18.0,
2094.0,2189.0,0,-18.0,
2078.0,2047.0,0,-19.0,
2145.0,2174.0,0.468235,-19.0,
2040.0,2081.0,0,-19.0,
1980.0,1939.0,0,-19.0,
1985.0,1960.0,0,-19.0,
2156.0,2028.0,0,-19.0,
2170.0,2075.0,0,-19.0,
2048.0,2129.0,0.46932,-19.0,
2085.0,2116.0,0,-18.0,
2117.0,2135.0,0,-18.0,
2222.0,2084.0,0,-18.0,
2212.0,2070.0,0,-18.0,
2158.0,2148.0,0,-18.0,
2051.0,2200.0,0.469365,-18.0,
1970.0,2177.0,0,-18.0,
1870.0,2203.0,0,-18.0,
1997.0,2154.0,0.468345,-18.0,
2204.0,2080.0,0,-18.0,
2310.0,2043.0,0,-18.0,
2318.0,2085.0,0,-18.0,
2180.0,2080.0,0,-18.0,
2221.0,2071.0,0,0,
2152.0,2027.0,0.466125,-18.0,
2154.0,1987.0,0,-17.0,
1994.0,2067.0,0,-17.0,
2037.0,2128.0,0,-17.0,
1976.0,2111.0,0,-17.0,
2162.0,2115.0,0.46386,-17.0,
2223.0,2105.0,0,-17.0,
2191.0,2020.0,0,-17.0,
2040.0,2096.0,0,-16.0,
2028.0,2083.0,0,-16.0,
2022.0,2141.0,0,-16.0,
1977.0,2232.0,0,-16.0,
1894.0,2223.0,0,-16.0,
2013.0,2266.0,0,-16.0,
2118.0,2167.0,0.46267,-16.0,
2314.0,1956.0,0,-16.0,
2152.0,1876.0,0,-16.0,
1944.0,1934.0,0,-16.0,
2041.0,2180.0,0,-16.0,
1988.0,2110.0,0.462015,-16.0,
2149.0,2018.0,0,-16.0,
2350.0,2053.0,0,-16.0,
2329.0,1962.0,0,-17.0,
2206.0,2054.0,0.461875,-16.0,
2074.0,2029.0,0,-16.0,
1996.0,2106.0,0,-16.0,
2043.0,2138.0,0,-16.0,
2085.0,2229.0,0,-16.0,
2124.0,2152.0,0,-16.0,
2212.0,2141.0,0,-16.0,
2187.0,2180.0,0,-17.0,
2057.0,2069.0,0,-16.0,
2072.0,2072.0,0,-16.0,
2056.0,2063.0,0.463065,-16.0,
2057.0,2038.0,0,-16.0,
2095.0,2062.0,0,-16.0,
2099.0,2096.0,0,-16.0,
2106.0,2140.0,0,-16.0,
1998.0,2112.0,0.46487,-16.0,
1983.0,2028.0,0,-16.0,
2084.0,2034.0,0,-16.0,
2122.0,2191.0,0,-16.0,
2130.0,2188.0,0,-16.0,
1999.0,2123.0,0.467675,-16.0,
2013.0,2035.0,0,-16.0,
2056.0,1991.0,0,-16.0,
2063.0,2141.0,0,-16.0,
2126.0,2179.0,0,-16.0,
2194.0,2134.0,0.47279,-16.0,
2403.0,1910.0,0,-16.0,
2402.0,1918.0,0,-16.0,
2158.0,1999.0,0,-16.0,
2007.0,2064.0,0,-16.0,
2053.0,2173.0,0,-16.0,
2075.0,2151.0,0,-16.0,
2120.0,2141.0,0,-16.0,
2091.0,2085.0,0,-16.0,
1994.0,2136.0,0.480635,-15.0,
2078.0,2090.0,0,-15.0,
2119.0,2087.0,0,-15.0,
2144.0,2070.0,0,-15.0,
2231.0,2095.0,0,-15.0,
2183.0,2089.0,0,-15.0,
2032.0,1996.0,0.48792,-15.0,
1989.0,2036.0,0,-15.0,
1997.0,2062.0,0,-15.0,
2030.0,2124.0,0,-15.0,
2054.0,2111.0,0,-15.0,
2112.0,2093.0,0.493285,-15.0,
2193.0,2126.0,0,-15.0,
2059.0,2220.0,0,-15.0,
2010.0,2337.0,0,-15.0,
1902.0,2280.0,0,-15.0,
1938.0,2138.0,0.49819,-15.0,
2152.0,2012.0,0,-15.0,
2270.0,1941.0,0,-15.0,
2382.0,2083.0,0,-15.0,
2360.0,1967.0,0,-15.0,
2088.0,1909.0,0.50431,-15.0,
2067.0,1913.0,0,-15.0,
2085.0,2055.0,0,-15.0,
2068.0,2120.0,0,-15.0,
2069.0,2077.0,0,-15.0,
2046.0,2160.0,0,-15.0,
2069.0,2173.0,0,-15.0,
2079.0,2150.0,0,-15.0,
2051.0,2137.0,0,-15.0,
2187.0,2147.0,0.51072,-15.0,
2112.0,2115.0,0,-15.0,
2260.0,2132.0,0,-15.0,
2319.0,2173.0,0,-15.0,
2023.0,2142.0,0,-15.0,
1822.0,2153.0,0,-15.0,
1721.0,2116.0,0.51755,-15.0,
2015.0,2114.0,0,-15.0,
2159.0,2072.0,0,-15.0,
2167.0,1995.0,0,-15.0,
2209.0,1871.0,0,-15.0,
2168.0,2006.0,0,-15.0,
2176.0,2075.0,0.52448,-15.0,
2220.0,2152.0,0,-15.0,
2034.0,2187.0,0,-15.0,
1978.0,2165.0,0,-15.0,
2063.0,2166.0,0.530625,-14.0,
2125.0,2121.0,0,-14.0,
2287.0,2087.0,0,-14.0,
2172.0,2088.0,0,-14.0,
2192.0,2059.0,0,-14.0,
2166.0,2021.0,0,-14.0,
2053.0,2043.0,0.53714,-14.0,
1990.0,2038.0,0,-14.0,
2017.0,2093.0,0,-14.0,
2068.0,2125.0,0,-14.0,
2036.0,2132.0,0.54401,-14.0,
2182.0,2111.0,0,-14.0,
2135.0,2144.0,0,-14.0,
2146.0,2025.0,0,-14.0,
2111.0,2071.0,0,-14.0,
2138.0,2101.0,0,-14.0,
2147.0,2095.0,0,-14.0,
2101.0,2113.0,0,-14.0,
2110.0,2154.0,0,-14.0,
2148.0,2118.0,0.553375,-14.0,
2058.0,2140.0,0,-14.0,
2092.0,2106.0,0,-14.0,
2024.0,2066.0,0,-14.0,
1922.0,2107.0,0,-14.0,
1805.0,2012.0,0,-14.0,
2011.0,2064.0,0.56359,-14.0,
2306.0,2084.0,0,-14.0,
2347.0,2021.0,0,-14.0,
2280.0,2072.0,0,-14.0,
2144.0,2021.0,0,-14.0,
2074.0,2190.0,0,-14.0,
2086.0,2182.0,0.57221,-14.0,
2160.0,2126.0,0,-14.0,
2102.0,2101.0,0,-14.0,
2157.0,2174.0,0,-14.0,
2200.0,2026.0,0,-14.0,
2065.0,1952.0,0.579325,-14.0,
2054.0,2022.0,0,-14.0,
2054.0,2123.0,0,-14.0,
2073.0,2122.0,0,-14.0,
2028.0,2091.0,0,-13.0,
2074.0,2139.0,0.585325,-13.0,
2064.0,2064.0,0,-13.0,
2063.0,2051.0,0,-13.0,
2072.0,2100.0,0,-13.0,
2064.0,2104.0,0,-13.0,
2156.0,2112.0,0,-13.0,
2238.0,2091.0,0,-13.0,
2206.0,2083.0,0,-13.0,
2069.0,2130.0,0,-13.0,
1942.0,2170.0,0.591015,-13.0,
1989.0,2134.0,0,-13.0,
2047.0,2154.0,0,-13.0,
2087.0,2011.0,0,-13.0,
2104.0,2077.0,0,-13.0,
2199.0,2257.0,0.596195,-13.0,
1940.0,2151.0,0,-13.0,
2055.0,2178.0,0,-13.0,
2091.0,1910.0,0,-13.0,
2151.0,1966.0,0,-13.0,
2262.0,2036.0,0.600185,-13.0,
2264.0,2099.0,0.602595,-13.0,
2314.0,2132.0,0,-13.0,
2203.0,2201.0,0,-13.0,
2107.0,2106.0,0,-13.0,
2075.0,1831.0,0,-13.0,
2060.0,1996.0,0,-13.0,
2115.0,1997.0,0,-13.0,
2069.0,2038.0,0,-13.0,
2012.0,2094.0,0,-13.0,
1993.0,2142.0,0,-13.0,
1982.0,2101.0,0,-13.0,
1963.0,2180.0,0.603475,-13.0,
2098.0,2164.0,0,-13.0,
2189.0,2003.0,0,-13.0,
2279.0,2121.0,0,-13.0,
2087.0,2168.0,0,-13.0,
2127.0,2145.0,0,-13.0,
2142.0,2162.0,0.604395,-13.0,
2231.0,1998.0,0,-13.0,
2117.0,2018.0,0,-13.0,
1918.0,2150.0,0,-12.0,
1866.0,2049.0,0,-12.0,
2008.0,2107.0,0,-12.0,
2245.0,2157.0,0.60575,-12.0,
2301.0,2003.0,0,-12.0,
1975.0,2014.0,0,-12.0,
1896.0,2051.0,0,-12.0,
2165.0,2067.0,0,-12.0,
2355.0,2171.0,0.607105,-12.0,
2243.0,2101.0,0,-12.0,
2178.0,2184.0,0,-12.0,
2095.0,2133.0,0,-12.0,
2054.0,2122.0,0,-12.0,
2073.0,1994.0,0.610005,-12.0,
2043.0,2002.0,0,-12.0,
2083.0,2042.0,0,-12.0,
1991.0,2130.0,0,-12.0,
2046.0,2163.0,0,-12.0,
2126.0,2164.0,0,-12.0,
2076.0,2151.0,0,-12.0,
2089.0,2171.0,0,-12.0,
2026.0,2057.0,0,-12.0,
2093.0,2019.0,0,-12.0,
2161.0,2019.0,0.613635,-12.0,
2176.0,2062.0,0,-12.0,
2087.0,2089.0,0,-12.0,
2072.0,2088.0,0,-12.0,
2096.0,2157.0,0.61799,-12.0,
2107.0,2160.0,0,-12.0,
2142.0,2174.0,0,-12.0,
2177.0,2162.0,0,-12.0,
2137.0,2120.0,0,-12.0,
2022.0,2051.0,0,-12.0,
1922.0,2010.0,0.62125,-11.0,
2014.0,1902.0,0,-11.0,
2108.0,1814.0,0,-11.0,
2148.0,1971.0,0,-11.0,
2153.0,2172.0,0,-11.0,
2056.0,2166.0,0,-11.0,
2104.0,2160.0,0.622615,-11.0,
2145.0,2070.0,0,-11.0,
2164.0,2111.0,0,-11.0,
2207.0,2111.0,0,-11.0,
2216.0,2231.0,0.62409,-11.0,
2091.0,2152.0,0,-11.0,
2115.0,2063.0,0,-11.0,
2124.0,2098.0,0,-11.0,
1953.0,2086.0,0,-11.0,
2012.0,2136.0,0,-11.0,
2026.0,2178.0,0,-11.0,
2275.0,2134.0,0,-11.0,
2200.0,2141.0,0,-11.0,
2160.0,1990.0,0,-11.0,
2272.0,2040.0,0.626045,-11.0,
2120.0,2091.0,0,-10.0,
1996.0,2115.0,0,-10.0,
1978.0,1927.0,0,-10.0,
1834.0,2021.0,0,-10.0,
1955.0,2009.0,0.62735,-10.0,
2226.0,2105.0,0,-10.0,
2237.0,2115.0,0,-10.0,
2128.0,2011.0,0,-10.0,
2036.0,2142.0,0,-10.0,
2090.0,2148.0,0.630015,-10.0,
2039.0,2149.0,0,-10.0,
2072.0,2150.0,0,-10.0,
2211.0,2170.0,0,-10.0,
2184.0,2163.0,0,-10.0,
2260.0,2123.0,0,-10.0,
2077.0,1980.0,0,-10.0,
1890.0,2064.0,0,-10.0,
2082.0,2164.0,0,-10.0,
2128.0,2116.0,0.633375,-10.0,
2125.0,2014.0,0.636405,-10.0,
2237.0,2017.0,0.64047,-10.0,
2281.0,1967.0,0.64388,-10.0,
2199.0,2077.0,0,-10.0,
2049.0,2119.0,0,-10.0,
2006.0,2164.0,0,-10.0,
1995.0,2152.0,0,-10.0,
1997.0,2118.0,0,-10.0,
2028.0,2141.0,0,-10.0,
2067.0,2062.0,0,-10.0,
2190.0,2175.0,0,-10.0,
2126.0,2225.0,0,-10.0,
2224.0,2138.0,0,-10.0,
2107.0,1825.0,0,-10.0,
2019.0,1987.0,0,-10.0,
2052.0,2100.0,0,-10.0,
2060.0,2074.0,0,-10.0,
2119.0,2094.0,0,-10.0,
2106.0,2065.0,0,-10.0,
2136.0,2154.0,0,-10.0,
2134.0,2126.0,0,-10.0,
2088.0,2087.0,0,-9.0,
2101.0,2095.0,0,-9.0,
2111.0,2194.0,0.646005,-9.0,
1979.0,2140.0,0.64677,-9.0,
1946.0,2122.0,0,-9.0,
2090.0,2056.0,0,-9.0,
2104.0,1993.0,0,-9.0,
2290.0,2062.0,0,-9.0,
2049.0,2136.0,0,-9.0,
1879.0,2134.0,0,-9.0,
1937.0,2168.0,0,-9.0,
2051.0,2080.0,0,-9.0,
2144.0,2093.0,0,-9.0,
2348.0,2078.0,0,-9.0,
2389.0,2014.0,0.647095,-9.0,
2286.0,1999.0,0,-9.0,
2200.0,2066.0,0,-9.0,
2191.0,2084.0,0,-9.0,
2089.0,2029.0,0.646,-9.0,
1970.0,2082.0,0,-9.0,
2009.0,1983.0,0,-8.0,
2001.0,2061.0,0,-8.0,
2056.0,2210.0,0.64615,-8.0,
2168.0,2272.0,0,-8.0,
2198.0,2126.0,0,-8.0,
2000.0,1964.0,0,-8.0,
2127.0,2018.0,0,-8.0,
2120.0,2129.0,0,-8.0,
2105.0,2142.0,0,-8.0,
1995.0,2198.0,0,-8.0,
1956.0,2046.0,0,-8.0,
2094.0,2046.0,0,-8.0,
2024.0,2055.0,0.64833,-8.0,
2015.0,2114.0,0,-8.0,
2007.0,2188.0,0,-8.0,
2115.0,2222.0,0,-8.0,
2214.0,2213.0,0,-8.0,
2110.0,2113.0,0,-8.0,
2069.0,2004.0,0.650185,-8.0,
2193.0,2044.0,0,-8.0,
2277.0,2085.0,0,-8.0,
2117.0,2113.0,0,-8.0,
2036.0,1923.0,0,-8.0,
2112.0,1963.0,0.651985,-8.0,
2220.0,2055.0,0,-8.0,
2231.0,2145.0,0,-8.0,
2080.0,2147.0,0,-8.0,
1980.0,2119.0,0.65365,-8.0,
2023.0,2092.0,0,-8.0,
2059.0,2136.0,0,-8.0,
2014.0,2158.0,0,-8.0,
2125.0,2145.0,0,-8.0,
2255.0,1995.0,0,-8.0,
2095.0,2010.0,0.654505,-8.0,
2072.0,2110.0,0,-8.0,
2128.0,2133.0,0,-8.0,
2167.0,2059.0,0,-8.0,
2188.0,2098.0,0,-8.0,
2146.0,2059.0,0.65452,-8.0,
2017.0,2056.0,0,-8.0,
2064.0,2108.0,0,-8.0,
1970.0,2092.0,0,-8.0,
2218.0,2090.0,0,-8.0,
2127.0,2089.0,0,-8.0,
2008.0,2091.0,0,-8.0,
2046.0,2040.0,0,-8.0,
2003.0,2079.0,0,-8.0,
1904.0,2209.0,0.653735,-8.0,
1939.0,2158.0,0,-8.0,
2135.0,2101.0,0,-7.0,
2293.0,1917.0,0,-7.0,
2423.0,1934.0,0,-7.0,
2360.0,2088.0,0.652265,-7.0,
2125.0,2116.0,0,-7.0,
2088.0,2042.0,0,-7.0,
2028.0,2058.0,0,-7.0,
2150.0,2132.0,0,-7.0,
2143.0,2055.0,0,-7.0,
2061.0,2114.0,0.650215,-7.0,
2039.0,2173.0,0,-7.0,
2032.0,2168.0,0,-7.0,
2180.0,2128.0,0,-7.0,
2190.0,2128.0,0.64874,-7.0,
2134.0,2151.0,0,-7.0,
2028.0,2161.0,0,-7.0,
2050.0,2196.0,0,-7.0,
2103.0,2221.0,0,-7.0,
2039.0,2199.0,0,-7.0,
2033.0,2066.0,0.64764,-7.0,
1953.0,2010.0,0,-7.0,
2045.0,2002.0,0,-7.0,
2212.0,1959.0,0,-7.0,
2280.0,1950.0,0,-7.0,
2110.0,2062.0,0,-7.0,
2102.0,2114.0,0,-7.0,
2130.0,2077.0,0,-7.0,
2168.0,2096.0,0,-7.0,
2075.0,2138.0,0.6467,-7.0,
2010.0,2181.0,0,-7.0,
2020.0,2153.0,0,-7.0,
2070.0,2138.0,0,-7.0,
2090.0,2092.0,0,-7.0,
2072.0,2078.0,0,-7.0,
1990.0,2032.0,0.64652,-7.0,
2024.0,2056.0,0,-7.0,
2153.0,2094.0,0,-7.0,
2215.0,2120.0,0,-7.0,
2296.0,2119.0,0,-7.0,
2313.0,2004.0,0.646,-7.0,
2141.0,2098.0,0,-7.0,
2163.0,2049.0,0,-7.0,
2043.0,2125.0,0,-7.0,
1929.0,2100.0,0.645295,-7.0,
1925.0,1881.0,0,-7.0,
2112.0,2006.0,0,-7.0,
2214.0,2061.0,0,-7.0,
2175.0,2125.0,0,-6.0,
2121.0,2091.0,0.643505,-6.0,
2111.0,2161.0,0,-6.0,
2205.0,2202.0,0,-6.0,
1921.0,2135.0,0,-6.0,
2009.0,2080.0,0,-6.0,
2036.0,2108.0,0,-6.0,
2069.0,2102.0,0,-6.0,
1955.0,2070.0,0,-6.0,
2043.0,2067.0,0,-6.0,
2300.0,2089.0,0,-6.0,
2169.0,2121.0,0,-6.0,
2168.0,2135.0,0.641195,-6.0,
2044.0,2034.0,0,-6.0,
1985.0,2093.0,0,-6.0,
2022.0,1942.0,0,-6.0,
2126.0,1992.0,0.63814,-6.0,
2250.0,2061.0,0,-6.0,
2127.0,2147.0,0,-6.0,
2150.0,2189.0,0,-6.0,
2156.0,2109.0,0,-6.0,
2153.0,2161.0,0.63583,-6.0,
2200.0,2111.0,0,-6.0,
2117.0,2127.0,0,-6.0,
2116.0,2116.0,0,-6.0,
2036.0,2020.0,0,-6.0,
1952.0,2079.0,0,-6.0,
2039.0,2032.0,0,-6.0,
2055.0,2090.0,0,-6.0,
2000.0,2121.0,0,-6.0,
2041.0,2152.0,0.633985,-6.0,
2087.0,2081.0,0,-6.0,
2244.0,2060.0,0,-6.0,
2182.0,2060.0,0,-6.0,
2125.0,2117.0,0,-6.0,
2105.0,2157.0,0.633055,-6.0,
2157.0,2135.0,0,-6.0,
2125.0,1945.0,0,-6.0,
2031.0,2055.0,0,-6.0,
1959.0,2116.0,0,-6.0,
2073.0,2145.0,0.633085,-6.0,
2107.0,2098.0,0,-6.0,
2112.0,2122.0,0,-6.0,
2222.0,2098.0,0,-6.0,
2173.0,2080.0,0.63264,-6.0,
2089.0,2099.0,0,-6.0,
2027.0,2138.0,0,-6.0,
2085.0,2165.0,0,-6.0,
2124.0,2112.0,0,-6.0,
2044.0,2173.0,0,-5.0,
2166.0,2139.0,0,-5.0,
2154.0,1983.0,0,-5.0,
2045.0,1860.0,0,-5.0,
2156.0,2072.0,0,-5.0,
2161.0,2179.0,0.63085,-5.0,
2044.0,2177.0,0,-5.0,
2112.0,2219.0,0,-5.0,
2242.0,2092.0,0,-5.0,
1996.0,1886.0,0.628905,-5.0,
2075.0,1999.0,0,-4.0,
2260.0,2049.0,0,-4.0,
2154.0,1983.0,0,-4.0,
2112.0,2076.0,0,-4.0,
1936.0,2175.0,0.62843,-4.0,
2030.0,2176.0,0,-4.0,
2099.0,2203.0,0,-4.0,
2064.0,2171.0,0,-4.0,
2111.0,1964.0,0.62831,-4.0,
2024.0,1999.0,0,-4.0,
2037.0,2082.0,0,-4.0,
2030.0,2090.0,0,-4.0,
2040.0,2119.0,0,-4.0,
2121.0,2142.0,0,-4.0,
2306.0,2064.0,0,-4.0,
2255.0,2072.0,0,-4.0,
2184.0,2130.0,0,-4.0,
2056.0,2188.0,0,-4.0,
1945.0,2163.0,0.62782,-4.0,
1879.0,1990.0,0,-4.0,
1994.0,2043.0,0,-4.0,
2116.0,2111.0,0,-4.0,
2054.0,2085.0,0,-4.0,
2195.0,2155.0,0.62612,-3.0,
2280.0,2213.0,0,-3.0,
2274.0,2191.0,0,-3.0,
2129.0,2091.0,0,-3.0,
1951.0,1900.0,0,-3.0,
2040.0,1937.0,0,-3.0,
2122.0,2071.0,0.62429,-3.0,
2199.0,2110.0,0,-3.0,
2057.0,2121.0,0,-3.0,
2079.0,2041.0,0,-3.0,
2192.0,2072.0,0.62347,-3.0,
2212.0,2180.0,0,-3.0,
2105.0,2161.0,0,-4.0,
2075.0,2121.0,0,-4.0,
1920.0,2042.0,0,-4.0,
1775.0,2067.0,0,-4.0,
1995.0,2198.0,0,-4.0,
2199.0,2132.0,0,-4.0,
2243.0,2112.0,0,-4.0,
2312.0,1975.0,0,-4.0,
2156.0,1939.0,0.622235,-4.0,
2177.0,2087.0,0,-4.0,
2063.0,2141.0,0,-4.0,
2141.0,2214.0,0,-3.0,
2010.0,2281.0,0,-3.0,
1805.0,2271.0,0.620555,-3.0,
1884.0,2130.0,0,-3.0,
1988.0,1960.0,0,-3.0,
2270.0,1838.0,0,-3.0,
2493.0,1955.0,0,-3.0,
2205.0,2068.0,0.61903,-3.0,
2287.0,2178.0,0,-3.0,
2235.0,2201.0,0,-3.0,
1954.0,2130.0,0,-3.0,
2100.0,2111.0,0,-2.0,
2142.0,2142.0,0.61801,-2.0,
1966.0,2137.0,0,-2.0,
1967.0,2136.0,0,-2.0,
2127.0,2169.0,0,-2.0,
2135.0,1955.0,0.617335,-2.0,
2142.0,1978.0,0,-2.0,
2021.0,1997.0,0,-2.0,
2085.0,1934.0,0,-2.0,
2106.0,2053.0,0,-1.0,
2141.0,2115.0,0,0,
2113.0,2112.0,0.61572,-1.0,
2043.0,2218.0,0,-1.0,
2032.0,2214.0,0,-1.0,
2078.0,2146.0,0,-1.0,
2122.0,2190.0,0,-1.0,
2170.0,2042.0,0,-1.0,
2088.0,2056.0,0,-1.0,
2137.0,2064.0,0,-1.0,
2081.0,2143.0,0,-1.0,
1940.0,2152.0,0,-1.0,
1966.0,2163.0,0.614835,-1.0,
2064.0,2003.0,0,-1.0,
2266.0,1995.0,0,-1.0,
2328.0,2056.0,0,-1.0,
2013.0,2066.0,0,-1.0,
2048.0,2055.0,0.6151,-1.0,
2150.0,2096.0,0,-1.0,
2199.0,2104.0,0,-1.0,
2311.0,2054.0,0,-1.0,
2081.0,2112.0,0,0,
2030.0,2106.0,0.615515,-1.0,
1954.0,2086.0,0,0.0,
1935.0,2103.0,0,0.0,
2051.0,2122.0,0,0.0,
2166.0,2179.0,0,0.0,
2236.0,2311.0,0,0.0,
1999.0,2207.0,0,0.0,
1963.0,1968.0,0,0.0,
2080.0,1937.0,0,0.0,
2114.0,1775.0,0.616265,0.0,
2331.0,1922.0,0,0.0,
2227.0,2153.0,0,0.0,
2099.0,2215.0,0,0.0,
2104.0,2145.0,0,0.0,
2079.0,2180.0,0,0.0,
1999.0,1949.0,0.61742,0.0,
2063.0,1902.0,0,0.0,
1999.0,2071.0,0,0.0,
2041.0,2184.0,0,0.0,
2013.0,2155.0,0,0.0,
2143.0,2114.0,0,0.0,
2392.0,2000.0,0.618665,0.0,
2293.0,2064.0,0,0.0,
1979.0,2185.0,0,0.0,
1990.0,2172.0,0.620265,1.0,
2099.0,2118.0,0,1.0,
2163.0,2119.0,0,1.0,
2218.0,2097.0,0,1.0,
2188.0,2116.0,0,1.0,
2090.0,2140.0,0,0,
2052.0,2138.0,0.62073,1.0,
1993.0,2148.0,0,1.0,
2063.0,2220.0,0,1.0,
2121.0,2178.0,0,1.0,
2120.0,2221.0,0.620725,1.0,
2172.0,1988.0,0,1.0,
2178.0,1900.0,0,1.0,
2119.0,1945.0,0,1.0,
1983.0,1968.0,0,1.0,
1951.0,2000.0,0,1.0,
1935.0,2072.0,0,0.0,
2023.0,2152.0,0,0.0,
2127.0,2072.0,0,0.0,
2264.0,2071.0,0,0.0,
2335.0,1998.0,0.621665,0.0,
2273.0,2094.0,0,0.0,
2230.0,2165.0,0,0.0,
1994.0,2159.0,0,0.0,
2050.0,2166.0,0,0.0,
1927.0,2037.0,0,0.0,
1962.0,1989.0,0.62167,0.0,
2049.0,2080.0,0,1.0,
2016.0,2103.0,0,1.0,
2189.0,2167.0,0,1.0,
2279.0,2081.0,0.621305,1.0,
2122.0,2109.0,0,1.0,
1976.0,2045.0,0,1.0,
1950.0,2094.0,0,1.0,
2106.0,2126.0,0,2.0,
2344.0,2084.0,0,2.0,
2297.0,2030.0,0.62121,2.0,
2199.0,1990.0,0,2.0,
1988.0,2081.0,0,2.0,
1801.0,2072.0,0,2.0,
1950.0,2206.0,0,2.0,
2062.0,2147.0,0,2.0,
2281.0,2075.0,0,2.0,
2314.0,2014.0,0,2.0,
2212.0,2048.0,0,2.0,
2129.0,2109.0,0.622675,3.0,
2031.0,2125.0,0,3.0,
2036.0,2146.0,0,3.0,
2094.0,2258.0,0,3.0,
2107.0,2203.0,0,3.0,
2106.0,2000.0,0,3.0,
2136.0,1956.0,0.625745,3.0,
1956.0,1940.0,0,3.0,
2114.0,2066.0,0,3.0,
2096.0,2098.0,0,3.0,
2225.0,2142.0,0,3.0,
2119.0,2188.0,0.630425,3.0,
1901.0,2214.0,0,4.0,
2220.0,2194.0,0,4.0,
2188.0,2186.0,0,4.0,
2168.0,2107.0,0.63622,4.0,
2092.0,2188.0,0,4.0,
2021.0,2098.0,0,4.0,
2090.0,1967.0,0,4.0,
2214.0,2076.0,0.64095,4.0,
2150.0,2093.0,0,4.0,
2041.0,2083.0,0,4.0,
2029.0,2042.0,0,4.0,
2023.0,2060.0,0,4.0,
2050.0,2087.0,0,0,
2089.0,1947.0,0,4.0,
2083.0,2019.0,0,3.0,
2015.0,2096.0,0,3.0,
2047.0,2114.0,0,3.0,
2073.0,2055.0,0.644655,3.0,
2192.0,2128.0,0,3.0,
2218.0,2169.0,0,3.0,
2146.0,2165.0,0,3.0,
2162.0,2123.0,0,3.0,
2176.0,2095.0,0,4.0,
2119.0,2082.0,0,4.0,
2032.0,2146.0,0,4.0,
2028.0,2129.0,0,4.0,
2086.0,2110.0,0.64723,4.0,
2149.0,2081.0,0,4.0,
2212.0,2055.0,0,4.0,
2041.0,2122.0,0,4.0,
1876.0,2054.0,0,4.0,
1806.0,2028.0,0.648455,3.0,
1988.0,2101.0,0,4.0,
2158.0,2084.0,0,4.0,
2336.0,2059.0,0,4.0,
2271.0,2061.0,0,4.0,
2142.0,2162.0,0.649005,4.0,
2233.0,2119.0,0,4.0,
2237.0,2068.0,0,4.0,
2137.0,2113.0,0,4.0,
2170.0,2155.0,0,5.0,
2102.0,2076.0,0.64638,5.0,
2081.0,1997.0,0,5.0,
2134.0,2166.0,0,5.0,
1956.0,2063.0,0,5.0,
2027.0,1956.0,0,6.0,
2111.0,2063.0,0,6.0,
2157.0,2024.0,0.64209,6.0,
2119.0,2080.0,0,6.0,
2107.0,2111.0,0,6.0,
2050.0,2144.0,0,6.0,
1967.0,2142.0,0,6.0,
2155.0,2158.0,0,6.0,
2313.0,2191.0,0,6.0,
2129.0,2203.0,0,6.0,
1897.0,2231.0,0.638145,6.0,
1952.0,2159.0,0.635995,6.0,
1949.0,2073.0,0,6.0,
1948.0,2035.0,0,6.0,
2149.0,1987.0,0,6.0,
2064.0,2103.0,0,6.0,
2171.0,2091.0,0,0,
2343.0,1923.0,0,6.0,
2332.0,1976.0,0,6.0,
2173.0,2110.0,0,6.0,
2177.0,2117.0,0,6.0,
2125.0,2140.0,0,6.0,
2072.0,2205.0,0.63606,6.0,
2072.0,2089.0,0,6.0,
2160.0,2187.0,0,6.0,
2231.0,2063.0,0,6.0,
2276.0,1973.0,0.63763,6.0,
2011.0,2225.0,0,6.0,
1956.0,2193.0,0,6.0,
1875.0,2158.0,0,6.0,
1890.0,1906.0,0,6.0,
2025.0,2017.0,0.640635,6.0,
2080.0,2070.0,0,6.0,
2133.0,2020.0,0,6.0,
2072.0,2117.0,0,6.0,
2122.0,2236.0,0,6.0,
2230.0,2168.0,0,6.0,
2159.0,2133.0,0,6.0,
2067.0,2095.0,0,6.0,
1924.0,1976.0,0,7.0,
1980.0,2014.0,0.64341,7.0,
1964.0,2066.0,0,7.0,
2050.0,2092.0,0,7.0,
2249.0,2241.0,0,7.0,
2533.0,2200.0,0,7.0,
2172.0,2035.0,0,7.0,
2133.0,1954.0,0.644335,7.0,
2195.0,1949.0,0,7.0,
2090.0,2071.0,0,7.0,
2053.0,2184.0,0,7.0,
2086.0,2225.0,0.645635,7.0,
2177.0,2124.0,0,7.0,
2187.0,2106.0,0,8.0,
2002.0,2047.0,0,8.0,
2084.0,2076.0,0,8.0,
2030.0,1993.0,0.64838,8.0,
2087.0,2023.0,0,8.0,
2041.0,2124.0,0,8.0,
1956.0,2051.0,0,8.0,
1991.0,2090.0,0.651905,8.0,
2074.0,2187.0,0,8.0,
2203.0,2081.0,0,8.0,
1905.0,2176.0,0,8.0,
1913.0,2140.0,0,8.0,
2102.0,2075.0,0,8.0,
2371.0,2059.0,0,8.0,
2402.0,2009.0,0,8.0,
2119.0,2086.0,0,8.0,
2124.0,2153.0,0.657595,8.0,
2155.0,2198.0,0,8.0,
2083.0,2093.0,0,8.0,
2063.0,2105.0,0,8.0,
2160.0,2014.0,0,8.0,
2030.0,2002.0,0,0,
2028.0,2073.0,0.66281,8.0,
2063.0,2094.0,0,8.0,
1997.0,2080.0,0,8.0,
1992.0,2078.0,0,8.0,
2126.0,2129.0,0,8.0,
2228.0,2163.0,0.666965,8.0,
2214.0,2114.0,0,8.0,
1973.0,2139.0,0,8.0,
2112.0,2165.0,0,8.0,
2296.0,2242.0,0,8.0,
2186.0,2276.0,0,8.0,
2021.0,2223.0,0,8.0,
1954.0,2017.0,0,8.0,
2039.0,2026.0,0,8.0,
2075.0,1844.0,0.67118,8.0,
2060.0,2005.0,0,8.0,
2170.0,2093.0,0,8.0,
1949.0,2085.0,0,8.0,
1938.0,2142.0,0,8.0,
2266.0,2197.0,0.67337,8.0,
2340.0,2271.0,0,8.0,
2192.0,2169.0,0,8.0,
1902.0,1971.0,0,8.0,
1977.0,1895.0,0.673755,8.0,
2101.0,1850.0,0,9.0,
2231.0,1862.0,0,9.0,
2227.0,1973.0,0,9.0,
2087.0,1977.0,0,9.0,
2130.0,2050.0,0,9.0,
2173.0,2053.0,0,9.0,
2131.0,2045.0,0,9.0,
2093.0,2077.0,0,9.0,
2171.0,2313.0,0.675715,9.0,
2085.0,2301.0,0,9.0,
1996.0,2284.0,0,9.0,
1852.0,2173.0,0,9.0,
1903.0,2047.0,0,9.0,
2101.0,2117.0,0,9.0,
2256.0,2051.0,0.68039,9.0,
2206.0,2072.0,0,9.0,
2155.0,2047.0,0,9.0,
2004.0,2136.0,0,9.0,
1950.0,2143.0,0,10.0,
2183.0,2224.0,0,10.0,
2374.0,2176.0,0.68795,10.0,
2184.0,2108.0,0,10.0,
2069.0,2114.0,0,10.0,
1926.0,2101.0,0.69697,10.0,
2005.0,2097.0,0,10.0,
2106.0,2033.0,0,10.0,
2188.0,2061.0,0,10.0,
2319.0,2189.0,0,10.0,
2107.0,2177.0,0,10.0,
2198.0,2086.0,0.70623,10.0,
2209.0,2058.0,0,10.0,
2207.0,1953.0,0,10.0,
2015.0,2059.0,0,10.0,
1901.0,2166.0,0,10.0,
1860.0,2078.0,0,10.0,
1909.0,2120.0,0,10.0,
2048.0,2080.0,0,10.0,
2235.0,1958.0,0,10.0,
2111.0,2168.0,0.715395,10.0,
2085.0,2212.0,0,10.0,
2018.0,2105.0,0,10.0,
2047.0,2092.0,0,10.0,
2149.0,2111.0,0,10.0,
2162.0,2276.0,0.72533,10.0,
2136.0,2228.0,0,10.0,
2118.0,2094.0,0,11.0,
2124.0,1946.0,0,11.0,
2160.0,1941.0,0,11.0,
2222.0,1940.0,0.73695,11.0,
2078.0,2016.0,0,11.0,
1971.0,2036.0,0,11.0,
2091.0,2025.0,0,11.0,
1959.0,2067.0,0.74918,11.0,
2118.0,1989.0,0,11.0,
2026.0,2058.0,0,11.0,
2139.0,2164.0,0,11.0,
2486.0,2157.0,0,11.0,
2261.0,2089.0,0,11.0,
2101.0,2076.0,0,11.0,
2113.0,2132.0,0,11.0,
1958.0,2127.0,0,11.0,
1989.0,2189.0,0,11.0,
2033.0,2211.0,0.762505,11.0,
2030.0,2135.0,0,11.0,
2119.0,2081.0,0,11.0,
2178.0,2087.0,0,11.0,
2040.0,2099.0,0,11.0,
2073.0,2035.0,0,11.0,
2083.0,2089.0,0.777015,11.0,
2082.0,2091.0,0,11.0,
2064.0,2117.0,0,11.0,
2046.0,2131.0,0,11.0,
2102.0,2069.0,0,11.0,
2139.0,2087.0,0.790135,11.0,
2137.0,2099.0,0,11.0,
2178.0,2193.0,0,11.0,
2245.0,2120.0,0,11.0,
2171.0,2103.0,0.80002,11.0,
1994.0,1990.0,0,11.0,
1982.0,2029.0,0,11.0,
1929.0,2108.0,0,11.0,
1976.0,2155.0,0,11.0,
2177.0,2156.0,0,11.0,
2084.0,2147.0,0.806885,11.0,
2101.0,1906.0,0,11.0,
1961.0,1960.0,0,11.0,
2129.0,1991.0,0,11.0,
2411.0,2231.0,0,11.0,
2038.0,2239.0,0.81189,11.0,
2253.0,2064.0,0,11.0,
2152.0,2053.0,0,11.0,
2150.0,2002.0,0,11.0,
2270.0,2036.0,0,11.0,
2204.0,2188.0,0,11.0,
2067.0,2221.0,0,11.0,
1901.0,2188.0,0,11.0,
1934.0,2106.0,0,12.0,
2015.0,1993.0,0.81431,12.0,
2075.0,1984.0,0,12.0,
2129.0,1916.0,0,12.0,
2018.0,2025.0,0,12.0,
2094.0,2122.0,0,12.0,
2187.0,2052.0,0,12.0,
2131.0,1967.0,0.816765,12.0,
2023.0,2070.0,0,12.0,
2098.0,2188.0,0,12.0,
2102.0,2253.0,0,12.0,
1985.0,2066.0,0,12.0,
1994.0,2102.0,0.822205,12.0,
2048.0,2094.0,0,12.0,
2197.0,2177.0,0,12.0,
2274.0,2161.0,0,12.0,
2140.0,2053.0,0.82929,12.0,
2027.0,1993.0,0,12.0,
2119.0,2013.0,0,12.0,
2169.0,2013.0,0,12.0,
2131.0,2091.0,0,12.0,
2133.0,2138.0,0,0,
2133.0,2130.0,0,12.0,
2099.0,2107.0,0,12.0,
2072.0,2107.0,0,12.0,
2080.0,2160.0,0,12.0,
2011.0,2155.0,0.83577,12.0,
2028.0,2121.0,0,12.0,
2119.0,2136.0,0,12.0,
2160.0,2192.0,0,12.0,
2215.0,2043.0,0,12.0,
2124.0,2019.0,0.842595,12.0,
2108.0,2069.0,0,12.0,
2125.0,2127.0,0,12.0,
2093.0,2138.0,0,12.0,
2159.0,2195.0,0,12.0,
2094.0,2261.0,0.84842,11.0,
2005.0,2336.0,0,11.0,
1858.0,2195.0,0,11.0,
1962.0,2172.0,0,11.0,
2248.0,1936.0,0,11.0,
2310.0,1821.0,0.852815,11.0,
2303.0,1933.0,0,11.0,
2069.0,1972.0,0,11.0,
1989.0,1921.0,0,11.0,
1973.0,1962.0,0,11.0,
2010.0,2060.0,0.855185,11.0,
2015.0,2134.0,0,11.0,
2123.0,2180.0,0,11.0,
2184.0,2190.0,0,11.0,
2322.0,2215.0,0,11.0,
2036.0,2253.0,0,11.0,
2085.0,2117.0,0,11.0,
2046.0,2009.0,0,11.0,
2153.0,2093.0,0,11.0,
2150.0,2158.0,0.857475,11.0,
2089.0,2177.0,0,11.0,
2122.0,2093.0,0,11.0,
2083.0,2078.0,0,11.0,
2129.0,1974.0,0,11.0,
2155.0,1962.0,0,11.0,
2132.0,2060.0,0.85964,11.0,
2107.0,2061.0,0,11.0,
2085.0,2161.0,0,11.0,
2122.0,2163.0,0,11.0,
1950.0,2094.0,0,11.0,
1841.0,2013.0,0.861575,11.0,
1866.0,2103.0,0,12.0,
2215.0,2122.0,0,12.0,
2607.0,2104.0,0,12.0,
2353.0,2030.0,0.8633,12.0,
2122.0,2131.0,0,12.0,
1826.0,2086.0,0,12.0,
1824.0,2118.0,0,12.0,
2107.0,2182.0,0,12.0,
2202.0,2123.0,0,12.0,
2121.0,2019.0,0,12.0,
1953.0,1981.0,0,11.0,
1981.0,2010.0,0,11.0,
2017.0,2143.0,0.8653,11.0,
2142.0,2146.0,0,11.0,
2346.0,2188.0,0,11.0,
2165.0,2182.0,0,11.0,
2109.0,2139.0,0,11.0,
2101.0,2238.0,0,0,
2151.0,1975.0,0.867255,11.0,
1989.0,2003.0,0,11.0,
1957.0,2160.0,0,11.0,
2062.0,2152.0,0,11.0,
2199.0,2179.0,0.869375,11.0,
2317.0,2234.0,0,11.0,
2200.0,2075.0,0,11.0,
2002.0,1939.0,0,11.0,
1930.0,1797.0,0,11.0,
1990.0,1891.0,0.870145,11.0,
2100.0,2075.0,0,12.0,
2171.0,2146.0,0,12.0,
2119.0,2090.0,0,12.0,
2062.0,2185.0,0,12.0,
2198.0,2227.0,0,12.0,
2085.0,2333.0,0,12.0,
1909.0,2346.0,0,12.0,
2103.0,2074.0,0,12.0,
2227.0,1900.0,0.871095,12.0,
2108.0,1959.0,0,12.0,
2191.0,2095.0,0,12.0,
2329.0,2150.0,0,12.0,
2128.0,2062.0,0,12.0,
2095.0,2018.0,0.87413,12.0,
2115.0,1991.0,0,12.0,
2134.0,2050.0,0,12.0,
2032.0,2052.0,0,12.0,
2004.0,2072.0,0,12.0,
2008.0,2043.0,0.87896,12.0,
2166.0,2164.0,0,12.0,
2064.0,2197.0,0,12.0,
2042.0,2194.0,0,12.0,
2077.0,2184.0,0.88443,12.0,
2158.0,2008.0,0,12.0,
2111.0,2121.0,0,12.0,
2044.0,2213.0,0,12.0,
2138.0,2073.0,0,12.0,
2183.0,1959.0,0,12.0,
2144.0,1966.0,0,12.0,
2109.0,2041.0,0,12.0,
1776.0,2090.0,0,12.0,
2030.0,2105.0,0,12.0,
2261.0,2064.0,0,12.0,
2266.0,2092.0,0,12.0,
2063.0,1990.0,0.889905,12.0,
2046.0,2163.0,0,12.0,
1999.0,2176.0,0,12.0,
2068.0,2213.0,0,12.0,
2206.0,2180.0,0.89529,12.0,
1915.0,2179.0,0,12.0,
2037.0,2086.0,0,12.0,
2014.0,2052.0,0,13.0,
2182.0,2092.0,0,13.0,
2317.0,2096.0,0.89918,13.0,
2202.0,2029.0,0,13.0,
2205.0,1834.0,0,13.0,
2169.0,1972.0,0,13.0,
2182.0,2096.0,0,13.0,
2182.0,2210.0,0.90188,13.0,
2116.0,2279.0,0,13.0,
2169.0,2208.0,0,13.0,
2101.0,2142.0,0,13.0,
2085.0,2253.0,0,13.0,
2018.0,2190.0,0,13.0,
1972.0,2027.0,0.90342,13.0,
1850.0,1975.0,0,13.0,
1909.0,2078.0,0,13.0,
2015.0,1983.0,0,13.0,
2234.0,1811.0,0,13.0,
2141.0,1867.0,0,13.0,
1968.0,2034.0,0,12.0,
2128.0,2148.0,0,12.0,
2249.0,2216.0,0,12.0,
2144.0,2165.0,0.904295,13.0,
2070.0,1949.0,0,12.0,
2168.0,2106.0,0,12.0,
2319.0,2184.0,0,12.0,
2370.0,2206.0,0.90649,12.0,
2314.0,2279.0,0,12.0,
2217.0,2271.0,0,12.0,
2010.0,1960.0,0,12.0,
1917.0,2003.0,0,12.0,
1907.0,1996.0,0,12.0,
1956.0,2067.0,0.91044,12.0,
1991.0,2080.0,0,12.0,
2040.0,2047.0,0,12.0,
2088.0,1951.0,0,12.0,
2096.0,2039.0,0,12.0,
2128.0,2139.0,0,12.0,
2086.0,2225.0,0.915845,12.0,
2086.0,2191.0,0,12.0,
2096.0,2159.0,0,12.0,
2047.0,2141.0,0,12.0,
2077.0,2105.0,0.9213,12.0,
1987.0,2132.0,0,12.0,
2121.0,2220.0,0,12.0,
2332.0,2093.0,0,12.0,
2244.0,2146.0,0,12.0,
2208.0,2192.0,0,12.0,
2087.0,2149.0,0,12.0,
2046.0,2059.0,0,12.0,
2101.0,1951.0,0,12.0,
1908.0,1988.0,0,12.0,
1985.0,2103.0,0.925395,12.0,
2157.0,2077.0,0,12.0,
2110.0,2100.0,0,12.0,
2050.0,2172.0,0,12.0,
2195.0,2362.0,0,12.0,
2203.0,2287.0,0.927855,12.0,
2311.0,2081.0,0,12.0,
2169.0,1840.0,0,12.0,
1996.0,1755.0,0,12.0,
2109.0,1940.0,0.928895,12.0,
2168.0,1989.0,0,12.0,
2203.0,1844.0,0,12.0,
2125.0,1860.0,0,12.0,
2084.0,2037.0,0,12.0,
1976.0,2217.0,0,12.0,
1977.0,2202.0,0.929535,12.0,
1969.0,2109.0,0,12.0,
1976.0,2048.0,0,12.0,
2052.0,2131.0,0,12.0,
2231.0,2274.0,0,12.0,
2236.0,2147.0,0.930875,12.0,
2100.0,2039.0,0,12.0,
2029.0,2117.0,0,12.0,
1927.0,2074.0,0,11.0,
2018.0,2107.0,0,0,
2120.0,2131.0,0,11.0,
2180.0,2210.0,0,11.0,
2191.0,2163.0,0,11.0,
2161.0,2213.0,0,11.0,
2148.0,2186.0,0,11.0,
2005.0,2172.0,0.934855,11.0,
1890.0,2083.0,0,11.0,
1869.0,2096.0,0,11.0,
1990.0,2072.0,0,11.0,
2215.0,2056.0,0,11.0,
2442.0,2265.0,0.939715,11.0,
2456.0,2059.0,0,11.0,
2357.0,1898.0,0,11.0,
2127.0,1969.0,0,11.0,
2032.0,2017.0,0,11.0,
2153.0,2066.0,0.94349,11.0,
2021.0,1955.0,0,11.0,
2058.0,2040.0,0,11.0,
2083.0,2117.0,0,11.0,
2066.0,2093.0,0.94646,11.0,
1941.0,2158.0,0,11.0,
1796.0,2168.0,0,11.0,
1942.0,2076.0,0,11.0,
2194.0,1991.0,0,11.0,
2367.0,2040.0,0,11.0,
2320.0,2110.0,0,11.0,
2057.0,2143.0,0,11.0,
2005.0,2155.0,0,11.0,
2119.0,2090.0,0,11.0,
2067.0,2130.0,0.95031,11.0,
1955.0,2149.0,0,11.0,
2148.0,2157.0,0,11.0,
2126.0,2291.0,0,11.0,
1998.0,2269.0,0,11.0,
1791.0,1941.0,0,11.0,
1976.0,1896.0,0.952985,11.0,
2212.0,1964.0,0,11.0,
2116.0,1956.0,0,11.0,
2203.0,2035.0,0,11.0,
2289.0,2003.0,0,11.0,
2214.0,2016.0,0,11.0,
2184.0,2131.0,0.95529,11.0,
2130.0,2155.0,0,11.0,
2131.0,2208.0,0,11.0,
2089.0,2254.0,0,11.0,
2069.0,2362.0,0.958715,11.0,
2096.0,2431.0,0,11.0,
1942.0,2367.0,0,11.0,
1960.0,2106.0,0,11.0,
2065.0,1848.0,0,11.0,
2257.0,2009.0,0.962325,11.0,
2324.0,2061.0,0,11.0,
2353.0,1958.0,0,11.0,
2120.0,1844.0,0,11.0,
2036.0,1842.0,0,11.0,
1977.0,1964.0,0.965235,11.0,
2020.0,2063.0,0,11.0,
2135.0,2120.0,0,11.0,
2113.0,2107.0,0,11.0,
2120.0,2155.0,0,11.0,
1974.0,2091.0,0,12.0,
1953.0,2151.0,0,12.0,
1983.0,2230.0,0,12.0,
2130.0,2213.0,0,12.0,
2120.0,2231.0,0.968755,12.0,
2173.0,2123.0,0,12.0,
2041.0,2071.0,0,12.0,
2011.0,2061.0,0,12.0,
1918.0,2069.0,0,12.0,
2118.0,2159.0,0,12.0,
2411.0,2162.0,0.97309,12.0,
2229.0,2206.0,0,12.0,
2135.0,1904.0,0,12.0,
2129.0,2108.0,0,12.0,
2014.0,2006.0,0,12.0,
2173.0,2089.0,0,12.0,
2110.0,2292.0,0.97683,12.0,
2100.0,2125.0,0,12.0,
2007.0,1885.0,0,12.0,
2043.0,1815.0,0,12.0,
2101.0,1821.0,0.979215,12.0,
2205.0,1938.0,0,12.0,
2132.0,2049.0,0,12.0,
2074.0,2250.0,0,12.0,
2093.0,2221.0,0,12.0,
2139.0,2232.0,0,12.0,
2148.0,2150.0,0.980345,12.0,
2163.0,2231.0,0,12.0,
2187.0,2258.0,0,11.0,
2189.0,2223.0,0,11.0,
2167.0,2172.0,0.982325,11.0,
1895.0,2158.0,0,11.0,
2110.0,1915.0,0,11.0,
2000.0,2025.0,0,11.0,
1810.0,1923.0,0,11.0,
1970.0,1969.0,0,11.0,
2086.0,1942.0,0,11.0,
2302.0,2126.0,0,11.0,
2332.0,2254.0,0,11.0,
2232.0,2296.0,0,11.0,
2085.0,2093.0,0.98531,11.0,
1944.0,1707.0,0,11.0,
1796.0,1928.0,0,11.0,
2025.0,2151.0,0,11.0,
2248.0,2307.0,0,12.0,
2337.0,2235.0,0.989125,12.0,
2068.0,2199.0,0,12.0,
2005.0,2107.0,0,12.0,
2105.0,2047.0,0,12.0,
2205.0,2067.0,0.99234,12.0,
2372.0,2108.0,0,12.0,
2229.0,2001.0,0,12.0,
2034.0,1931.0,0,12.0,
2059.0,2035.0,0,12.0,
1983.0,2086.0,0,12.0,
2007.0,2177.0,0.99473,12.0,
2107.0,2229.0,0,12.0,
2188.0,2186.0,0,11.0,
2172.0,2085.0,0,11.0,
2033.0,2097.0,0,11.0,
1969.0,2148.0,0,11.0,
1962.0,2165.0,0,11.0,
2143.0,2098.0,0,11.0,
2185.0,2044.0,0,11.0,
1947.0,2156.0,0,11.0,
1871.0,2267.0,0.999055,11.0,
2036.0,2210.0,0,11.0,
2095.0,2135.0,0,11.0,
2428.0,1987.0,0,11.0,
2539.0,2005.0,0,12.0,
2320.0,2081.0,0,12.0,
2109.0,2166.0,1.0061,12.0,
1854.0,2152.0,0,12.0,
1967.0,2085.0,0,12.0,
2031.0,1939.0,0,12.0,
2068.0,1831.0,1.012965,11.0,
2172.0,2033.0,0,11.0,
2154.0,2113.0,0,11.0,
2187.0,2038.0,0,11.0,
2067.0,2028.0,0,0,
2024.0,2029.0,1.01745,11.0,
2083.0,2036.0,0,11.0,
2069.0,2090.0,0,11.0,
2079.0,2109.0,0,11.0,
2097.0,2281.0,0,11.0,
2083.0,2177.0,1.020205,11.0,
2158.0,2126.0,0,11.0,
2202.0,2068.0,0,11.0,
2165.0,2181.0,0,11.0,
2097.0,2133.0,0,11.0,
1962.0,2120.0,1.023245,11.0,
1921.0,2126.0,0,11.0,
2054.0,2052.0,0,11.0,
2126.0,2084.0,0,11.0,
2091.0,2055.0,0,11.0,
2098.0,1903.0,0,11.0,
2120.0,2013.0,0,11.0,
2212.0,2014.0,0,11.0,
2056.0,2051.0,0,11.0,
2086.0,2063.0,0,11.0,
2028.0,2135.0,0,11.0,
2052.0,2173.0,1.026755,11.0,
2011.0,2244.0,0,11.0,
2138.0,2192.0,0,11.0,
2338.0,2216.0,0,11.0,
2206.0,2244.0,0,11.0,
1879.0,2084.0,1.02943,11.0,
1900.0,2170.0,0,11.0,
2254.0,1968.0,0,11.0,
2333.0,1790.0,0,11.0,
2347.0,1906.0,0,11.0,
2137.0,1975.0,1.03135,11.0,
1976.0,2077.0,0,11.0,
2112.0,2073.0,0,11.0,
2222.0,2000.0,0,11.0,
2170.0,2111.0,0,11.0,
2052.0,2137.0,1.032715,11.0,
2088.0,2188.0,0,11.0,
2066.0,2019.0,0,11.0,
2075.0,2126.0,0,11.0,
2153.0,2304.0,1.035785,11.0,
2059.0,2287.0,0,11.0,
1805.0,2164.0,0,11.0,
2085.0,2257.0,0,11.0,
2205.0,2096.0,0,11.0,
2013.0,1876.0,0,11.0,
1963.0,2009.0,1.03991,11.0,
2037.0,1964.0,0,11.0,
2254.0,2043.0,0,11.0,
2069.0,2080.0,0,11.0,
2025.0,2090.0,0,11.0,
2075.0,2106.0,0,11.0,
2070.0,2094.0,0,11.0,
2155.0,2051.0,0,11.0,
2067.0,2128.0,0,11.0,
2024.0,2229.0,0,11.0,
2063.0,2328.0,0,11.0,
2259.0,2254.0,1.04273,11.0,
2192.0,2157.0,0,11.0,
2041.0,2034.0,0,11.0,
2082.0,1911.0,0,11.0,
2165.0,2107.0,0,11.0,
2351.0,1973.0,1.04432,11.0,
2234.0,1799.0,0,11.0,
2098.0,1848.0,0,11.0,
2067.0,1965.0,0,11.0,
1994.0,2039.0,0,11.0,
2040.0,2147.0,1.04469,11.0,
2253.0,2158.0,0,11.0,
2140.0,2169.0,0,11.0,
2054.0,2238.0,0,11.0,
2084.0,2272.0,0,11.0,
1920.0,2246.0,1.045085,11.0,
2002.0,2225.0,0,11.0,
2053.0,2154.0,0,11.0,
2200.0,2095.0,0,11.0,
2203.0,1972.0,1.04548,11.0,
2126.0,1891.0,0,11.0,
2057.0,1790.0,0,11.0,
2012.0,1860.0,0,11.0,
1874.0,1929.0,0,11.0,
2010.0,2104.0,0,11.0,
2194.0,2223.0,0,11.0,
2177.0,2284.0,0,11.0,
2064.0,2284.0,0,11.0,
2070.0,2178.0,0,11.0,
2138.0,2005.0,0,11.0,
2206.0,2116.0,1.045565,11.0,
2150.0,2215.0,0,11.0,
2161.0,2223.0,0,11.0,
2174.0,2223.0,0,11.0,
2193.0,1997.0,0,11.0,
1903.0,1828.0,1.046755,11.0,
1960.0,2021.0,0,11.0,
2026.0,2009.0,0,11.0,
2215.0,2083.0,0,11.0,
2370.0,2026.0,0,11.0,
2148.0,2097.0,0,11.0,
2018.0,2084.0,1.049595,11.0,
1863.0,2146.0,0,11.0,
2147.0,2059.0,0,11.0,
2347.0,2135.0,0,11.0,
2355.0,2261.0,1.054565,11.0,
2165.0,2217.0,0,11.0,
1856.0,2185.0,0,11.0,
1928.0,2108.0,0,11.0,
2058.0,2067.0,0,0,
2158.0,2040.0,1.0595,11.0,
2182.0,2066.0,0,11.0,
2222.0,1986.0,0,11.0,
1985.0,1968.0,0,11.0,
1925.0,2019.0,0,11.0,
2033.0,1974.0,0,11.0,
2079.0,2053.0,0,11.0,
1906.0,2111.0,0,11.0,
1910.0,2091.0,0,11.0,
1982.0,2133.0,0,11.0,
2194.0,2105.0,1.06245,11.0,
2505.0,2198.0,0,11.0,
2349.0,2223.0,0,11.0,
2086.0,2137.0,0,11.0,
2087.0,2036.0,0,11.0,
2102.0,2241.0,0,11.0,
2089.0,2123.0,1.064905,11.0,
2053.0,2125.0,0,11.0,
2180.0,2118.0,0,11.0,
2178.0,1958.0,0,11.0,
2114.0,2150.0,1.06708,11.0,
2110.0,2233.0,0,11.0,
2196.0,2161.0,0,11.0,
2147.0,2006.0,0,11.0,
2113.0,2076.0,0,11.0,
2187.0,2073.0,0,11.0,
2171.0,2037.0,1.069815,11.0,
2037.0,1985.0,0,11.0,
2069.0,2089.0,0,11.0,
1757.0,2056.0,0,11.0,
2035.0,2100.0,0,11.0,
2129.0,2108.0,1.07292,11.0,
2220.0,2065.0,0,11.0,
1967.0,1997.0,0,11.0,
1934.0,1926.0,0,11.0,
2073.0,2179.0,0,11.0,
2035.0,2252.0,0,11.0,
2052.0,2184.0,0,11.0,
2049.0,2111.0,0,11.0,
2216.0,1949.0,0,11.0,
2409.0,1846.0,1.076055,11.0,
2240.0,1998.0,0,11.0,
2189.0,2063.0,0,11.0,
2120.0,2079.0,0,11.0,
2074.0,2126.0,0,11.0,
2063.0,2184.0,0,11.0,
2116.0,2179.0,1.07853,11.0,
2134.0,2114.0,0,11.0,
2138.0,2054.0,0,11.0,
2100.0,2161.0,1.08133,11.0,
2063.0,2152.0,0,11.0,
2110.0,2055.0,0,11.0,
2110.0,2102.0,0,11.0,
1986.0,2001.0,0,11.0,
1993.0,2032.0,0,11.0,
1961.0,2048.0,1.084725,11.0,
1888.0,2045.0,0,11.0,
2051.0,2077.0,0,11.0,
2266.0,2182.0,0,11.0,
2293.0,2192.0,0,11.0,
2382.0,2158.0,0,11.0,
2147.0,2106.0,0,11.0,
2144.0,2210.0,0,11.0,
2245.0,2171.0,0,11.0,
2269.0,2090.0,0,11.0,
1963.0,2178.0,1.088215,11.0,
1877.0,2056.0,0,11.0,
1852.0,1999.0,0,11.0,
1992.0,2040.0,0,11.0,
1971.0,2156.0,0,11.0,
1878.0,2109.0,0,11.0,
1909.0,2074.0,1.09002,11.0,
2186.0,2085.0,0,11.0,
2272.0,2152.0,0,11.0,
2351.0,2088.0,0,11.0,
2379.0,2049.0,0,11.0,
2125.0,2131.0,1.090495,11.0,
2125.0,2112.0,0,11.0,
2174.0,1955.0,0,11.0,
2138.0,1984.0,0,10.0,
2064.0,1908.0,0,10.0,
2058.0,1910.0,0,10.0,
2123.0,2022.0,0,10.0,
2054.0,2121.0,1.090325,10.0,
2060.0,2209.0,0,10.0,
2096.0,2159.0,1.089445,10.0,
2067.0,2219.0,0,10.0,
1894.0,2154.0,0,10.0,
2077.0,2145.0,0,10.0,
2321.0,2262.0,0,10.0,
2370.0,2137.0,0,10.0,
2247.0,2072.0,1.089255,10.0,
2029.0,2096.0,0,10.0,
1774.0,1966.0,0,10.0,
1840.0,2008.0,0,10.0,
2061.0,2004.0,0,10.0,
2031.0,1947.0,0,10.0,
2108.0,2012.0,0,10.0,
2064.0,2009.0,0,10.0,
2144.0,2117.0,0,10.0,
2081.0,2057.0,0,10.0,
2040.0,2152.0,1.089055,10.0,
2045.0,2168.0,0,10.0,
1867.0,2116.0,0,10.0,
2129.0,2102.0,0,10.0,
2542.0,2050.0,0,10.0,
2361.0,2068.0,0,10.0,
2172.0,2214.0,1.08948,10.0,
2100.0,2202.0,0,10.0,
2149.0,2165.0,0,10.0,
2182.0,2146.0,0,10.0,
2034.0,2038.0,1.09089,10.0,
2050.0,2100.0,0,10.0,
2109.0,2048.0,0,10.0,
2068.0,2090.0,0,10.0,
2140.0,1985.0,0,10.0,
2076.0,1967.0,0,10.0,
2035.0,2139.0,1.0928,10.0,
2118.0,2233.0,0,9.0,
2163.0,2235.0,0,9.0,
2131.0,2214.0,0,9.0,
2124.0,2057.0,1.095925,9.0,
1971.0,2134.0,0,9.0,
1902.0,1955.0,0,9.0,
2064.0,1979.0,0,9.0,
2040.0,2051.0,0,9.0,
2177.0,1957.0,1.09878,9.0,
2205.0,1934.0,0,9.0,
2168.0,1885.0,0,9.0,
2142.0,2002.0,0,9.0,
2018.0,2121.0,0,9.0,
1842.0,2182.0,0,9.0,
1969.0,2245.0,1.100195,9.0,
2174.0,2094.0,0,9.0,
2311.0,2120.0,0,9.0,
2122.0,2200.0,0,9.0,
2037.0,2122.0,0,9.0,
2042.0,2147.0,0,9.0,
2225.0,2071.0,0,9.0,
2297.0,2059.0,0,9.0,
1993.0,1968.0,0,9.0,
1870.0,2064.0,0,9.0,
2149.0,2137.0,1.10157,9.0,
2256.0,2012.0,0,9.0,
2393.0,2123.0,0,9.0,
2228.0,2169.0,0,9.0,
2088.0,2254.0,0,9.0,
2108.0,2099.0,1.10176,9.0,
2136.0,2027.0,0,9.0,
2095.0,2072.0,0,9.0,
2027.0,2105.0,0,9.0,
2032.0,2047.0,0,9.0,
2053.0,2079.0,1.100405,9.0,
2100.0,1997.0,0,9.0,
2006.0,1969.0,0,9.0,
2043.0,2063.0,0,9.0,
2124.0,2070.0,1.09979,9.0,
2210.0,2161.0,0,9.0,
2236.0,2162.0,0,9.0,
2194.0,2222.0,0,9.0,
1908.0,2177.0,0,9.0,
2055.0,2088.0,0,9.0,
1835.0,1981.0,1.09948,9.0,
1799.0,1876.0,0,9.0,
1761.0,2051.0,0,9.0,
2130.0,2147.0,0,9.0,
2358.0,2128.0,0,9.0,
2302.0,2092.0,0,9.0,
2170.0,2054.0,0,9.0,
2294.0,2020.0,0,9.0,
2225.0,2066.0,0,9.0,
2192.0,2136.0,0,9.0,
1972.0,2157.0,1.098345,9.0,
1977.0,2183.0,0,9.0,
1977.0,2241.0,0,9.0,
1890.0,2216.0,0,9.0,
2352.0,2303.0,0,9.0,
2256.0,2174.0,0,9.0,
2271.0,2088.0,1.098215,9.0,
2093.0,2062.0,0,9.0,
1913.0,1991.0,0,9.0,
2036.0,1773.0,0,9.0,
2230.0,1840.0,0,9.0,
2188.0,1898.0,1.100225,9.0,
2234.0,2005.0,0,8.0,
2142.0,2067.0,0,8.0,
2023.0,2065.0,0,8.0,
2082.0,2144.0,0,8.0,
2098.0,2178.0,1.103435,8.0,
2143.0,2163.0,0,8.0,
2080.0,2130.0,0,8.0,
2103.0,2177.0,0,8.0,
2070.0,2143.0,1.1068,8.0,
2088.0,2136.0,0,8.0,
2073.0,2074.0,0,8.0,
2046.0,2010.0,0,8.0,
2033.0,2003.0,0,8.0,
2112.0,2114.0,0,8.0,
2147.0,2141.0,0,7.0,
2183.0,2093.0,0,7.0,
2097.0,2074.0,0,7.0,
2050.0,2246.0,0,7.0,
2030.0,2113.0,1.108635,7.0,
2019.0,2030.0,0,7.0,
2061.0,2022.0,0,7.0,
2066.0,2000.0,0,7.0,
2288.0,2069.0,0,7.0,
2181.0,2115.0,0,7.0,
2070.0,2121.0,1.108375,7.0,
1952.0,2158.0,0,7.0,
1905.0,2093.0,0,7.0,
1991.0,2085.0,0,7.0,
2109.0,2077.0,0,7.0,
2093.0,2181.0,0,7.0,
2069.0,2254.0,1.106375,7.0,
2235.0,2188.0,0,7.0,
2357.0,2230.0,0,7.0,
2235.0,2187.0,0,7.0,
2169.0,1930.0,1.10235,7.0,
2109.0,1762.0,1.09806,7.0,
1937.0,1864.0,1.094395,7.0,
1942.0,1976.0,0,7.0,
2047.0,2109.0,0,7.0,
2205.0,1990.0,0,7.0,
2224.0,2012.0,0,7.0,
2041.0,2131.0,0,7.0,
2089.0,2122.0,0,7.0,
2092.0,2211.0,0,7.0,
2131.0,2144.0,0,7.0,
2229.0,2133.0,0,7.0,
2162.0,2002.0,0,7.0,
2142.0,2064.0,0,6.0,
2097.0,2075.0,0,6.0,
2036.0,2039.0,0,6.0,
2130.0,2055.0,0,6.0,
2204.0,2102.0,0,6.0,
2174.0,2151.0,0,6.0,
1937.0,2124.0,1.094425,6.0,
1979.0,2052.0,1.09848,6.0,
2121.0,2122.0,0,6.0,
2173.0,2139.0,0,6.0,
2267.0,2134.0,0,6.0,
2003.0,2212.0,0,6.0,
1946.0,2094.0,0,6.0,
1930.0,2095.0,0,6.0,
1984.0,2059.0,0,6.0,
1972.0,2058.0,0,6.0,
1940.0,2114.0,0,6.0,
2112.0,2238.0,0,6.0,
2280.0,2161.0,1.105035,6.0,
2252.0,2140.0,0,6.0,
2054.0,2086.0,0,6.0,
2022.0,1984.0,0,5.0,
2247.0,1889.0,0,5.0,
2126.0,1960.0,0,5.0,
2141.0,2053.0,0,5.0,
2242.0,2052.0,0,5.0,
2150.0,1951.0,1.110945,5.0,
2081.0,2071.0,0,5.0,
2158.0,2049.0,0,5.0,
2057.0,2171.0,0,5.0,
2055.0,2182.0,1.11497,5.0,
2040.0,2056.0,0,5.0,
2136.0,2155.0,0,5.0,
2187.0,2259.0,0,5.0,
2026.0,2130.0,0,5.0,
2029.0,2169.0,0,5.0,
2021.0,2072.0,1.117865,5.0,
1992.0,2010.0,0,5.0,
2190.0,2035.0,0,5.0,
2228.0,1963.0,0,5.0,
2193.0,1935.0,0,5.0,
2228.0,1999.0,1.118525,5.0,
2201.0,2100.0,0,5.0,
2074.0,2145.0,0,4.0,
2054.0,2223.0,0,4.0,
2015.0,2199.0,0,5.0,
1942.0,2193.0,0,4.0,
2016.0,2044.0,0,4.0,
2041.0,2101.0,0,4.0,
2111.0,2130.0,0,4.0,
2112.0,2134.0,1.11764,4.0,
2074.0,2147.0,0,4.0,
2176.0,1999.0,0,4.0,
2020.0,1980.0,0,4.0,
2075.0,2126.0,0,4.0,
2132.0,2132.0,0,4.0,
2010.0,2007.0,1.11634,4.0,
1945.0,2101.0,0,4.0,
2021.0,2060.0,0,4.0,
2079.0,2027.0,0,4.0,
2358.0,2150.0,1.114065,4.0,
2364.0,2184.0,0,4.0,
2160.0,2155.0,0,4.0,
2114.0,2209.0,0,4.0,
2043.0,2148.0,0,4.0,
2074.0,2003.0,1.11267,4.0,
2248.0,1983.0,0,3.0,
2159.0,2090.0,0,3.0,
2332.0,2013.0,0,3.0,
2185.0,2051.0,0,3.0,
2041.0,2147.0,0,3.0,
2023.0,2183.0,0,3.0,
1958.0,2053.0,0,3.0,
2078.0,2000.0,0,3.0,
2095.0,2069.0,0,3.0,
2031.0,2109.0,1.11342,3.0,
2116.0,2152.0,0,3.0,
2192.0,2234.0,0,3.0,
1978.0,2221.0,0,3.0,
1872.0,2137.0,0,3.0,
2134.0,2069.0,1.1138,3.0,
2147.0,1894.0,0,3.0,
2172.0,1960.0,0,3.0,
2107.0,2034.0,0,3.0,
2158.0,2040.0,1.113465,3.0,
2041.0,2173.0,0,3.0,
2116.0,2226.0,0,3.0,
2002.0,2182.0,0,2.0,
1874.0,2101.0,0,2.0,
2007.0,2010.0,0,2.0,
2113.0,2012.0,0,2.0,
2183.0,2104.0,0,2.0,
2178.0,2170.0,0,2.0,
2250.0,2124.0,1.11236,2.0,
2199.0,2060.0,0,2.0,
2019.0,2067.0,0,2.0,
2084.0,2144.0,0,2.0,
1979.0,2207.0,0,2.0,
2036.0,2078.0,1.109655,2.0,
1996.0,1980.0,0,2.0,
2110.0,2114.0,0,2.0,
2357.0,2083.0,0,2.0,
2258.0,2185.0,0,2.0,
2175.0,1952.0,1.106705,2.0,
2090.0,1981.0,0,2.0,
1922.0,2010.0,0,2.0,
2051.0,2137.0,0,2.0,
2064.0,2113.0,0,2.0,
2122.0,2120.0,1.10337,2.0,
2061.0,2153.0,0,2.0,
2057.0,2100.0,0,2.0,
2249.0,2153.0,0,1.0,
2242.0,2155.0,1.09868,1.0,
2085.0,2127.0,0,1.0,
2041.0,2138.0,0,1.0,
2074.0,1976.0,0,1.0,
2129.0,2071.0,0,1.0,
2236.0,2010.0,0,1.0,
2264.0,2008.0,0,1.0,
2278.0,2123.0,0,1.0,
2262.0,2148.0,0,1.0,
1795.0,2163.0,0,1.0,
1836.0,2182.0,1.093575,1.0,
1950.0,2214.0,0,1.0,
1961.0,2260.0,0,1.0,
2057.0,2228.0,0,1.0,
2072.0,2010.0,0,1.0,
2189.0,1969.0,0,0,
2024.0,1941.0,1.090375,1.0,
2147.0,1900.0,0,1.0,
2287.0,1961.0,0,1.0,
2197.0,2109.0,0,1.0,
1913.0,2303.0,0,1.0,
1889.0,2230.0,1.086265,1.0,
1912.0,2081.0,0,0.0,
2237.0,2017.0,0,0.0,
2455.0,2076.0,0,0,
2169.0,2106.0,1.08002,0.0,
2046.0,2055.0,0,0.0,
1956.0,2044.0,0,0.0,
1996.0,2065.0,0,0.0,
2102.0,2178.0,0,0.0,
2212.0,2195.0,0,0.0,
2221.0,1988.0,0,0.0,
2212.0,1947.0,0,0.0,
1983.0,1992.0,0,0.0,
1976.0,2045.0,0,0.0,
2152.0,2134.0,1.07232,0.0,
2136.0,2216.0,0,0.0,
2200.0,2170.0,0,0.0,
2085.0,2119.0,0,0.0,
2133.0,2061.0,0,0.0,
2219.0,2128.0,1.064515,0.0,
2026.0,2096.0,0,0.0,
2064.0,2146.0,0,0.0,
2029.0,2154.0,0,0.0,
2059.0,2176.0,1.057955,0.0,
2025.0,2172.0,0,0.0,
2111.0,2141.0,0,-1.0,
2227.0,2145.0,0,-1.0,
2164.0,1955.0,0,-1.0,
2126.0,1965.0,1.05301,-1.0,
1784.0,1986.0,0,-1.0,
1947.0,1944.0,0,-1.0,
2130.0,2063.0,0,0,
2090.0,2197.0,1.04882,-1.0,
2015.0,2139.0,0,-1.0,
1928.0,2105.0,0,-1.0,
2012.0,2164.0,0,-1.0,
2261.0,2231.0,0,-2.0,
2364.0,2212.0,0,-2.0,
2152.0,2126.0,1.04472,-2.0,
2171.0,2214.0,0,-2.0,
2067.0,2189.0,0,-2.0,
2245.0,1965.0,0,-2.0,
2089.0,1858.0,0,-2.0,
2090.0,1848.0,0,-2.0,
2146.0,1897.0,0,-2.0,
2110.0,1859.0,0,-2.0,
2064.0,1916.0,0,-2.0,
2047.0,2071.0,0,-2.0,
2032.0,2134.0,1.04219,-2.0,
2017.0,2219.0,0,-2.0,
1990.0,2234.0,0,-2.0,
2080.0,2263.0,0,-2.0,
2278.0,2286.0,0,-2.0,
2342.0,2276.0,0,-3.0,
2005.0,2279.0,1.042605,-3.0,
2049.0,2192.0,0,-3.0,
2013.0,2227.0,0,-3.0,
2129.0,2113.0,0,-3.0,
2154.0,1809.0,1.045385,-3.0,
2061.0,1850.0,0,-3.0,
2064.0,1935.0,0,-3.0,
2064.0,1966.0,0,-3.0,
2021.0,2170.0,0,-3.0,
2020.0,2214.0,1.04708,-3.0,
2177.0,2077.0,0,-3.0,
1859.0,2137.0,0,-3.0,
1957.0,2071.0,0,-3.0,
2067.0,2252.0,1.049215,-3.0,
2310.0,2254.0,0,-3.0,
2295.0,2103.0,0,-3.0,
2263.0,2096.0,0,-3.0,
2230.0,2127.0,0,-4.0,
2205.0,2137.0,0,-3.0,
2099.0,2039.0,0,-4.0,
2074.0,1911.0,0,-4.0,
2103.0,2066.0,0,-4.0,
1998.0,2086.0,0,-4.0,
1937.0,1985.0,1.051845,-4.0,
2045.0,2055.0,0,-4.0,
2025.0,2138.0,0,-4.0,
2164.0,2220.0,0,-4.0,
2048.0,2298.0,0,-4.0,
2208.0,2258.0,1.05375,-4.0,
2153.0,2205.0,0,-5.0,
2039.0,2080.0,0,-5.0,
2158.0,2063.0,0,-5.0,
2143.0,2044.0,0,-5.0,
2133.0,1821.0,0,-5.0,
2081.0,1758.0,1.05581,-5.0,
2058.0,1946.0,0,-5.0,
2073.0,2051.0,0,-5.0,
2217.0,2237.0,0,-5.0,
2101.0,2090.0,1.056455,-5.0,
2079.0,1998.0,0,-5.0,
2049.0,2165.0,0,-5.0,
1985.0,2034.0,0,-5.0,
1972.0,2149.0,0,-5.0,
2012.0,2218.0,0,-5.0,
1861.0,2184.0,0,-5.0,
1956.0,2142.0,0,-5.0,
2141.0,2045.0,0,-5.0,
2232.0,2071.0,0,-5.0,
2410.0,2167.0,1.057505,-6.0,
2358.0,2163.0,0,-6.0,
2253.0,2152.0,0,-6.0,
2078.0,2178.0,0,-6.0,
2037.0,2213.0,0,-6.0,
2076.0,1921.0,0,-6.0,
2002.0,2073.0,1.060425,-6.0,
2085.0,2079.0,0,-6.0,
1976.0,1909.0,0,-6.0,
2007.0,2020.0,0,-6.0,
2075.0,2176.0,0,-7.0,
2127.0,2260.0,1.062965,-7.0,
2104.0,2249.0,0,-7.0,
2161.0,2336.0,0,-7.0,
2080.0,2157.0,0,-7.0,
1972.0,2173.0,0,-7.0,
2092.0,1915.0,0,-7.0,
2281.0,1814.0,0,-7.0,
2089.0,1732.0,0,-7.0,
2142.0,1759.0,1.06447,-7.0,
2187.0,1999.0,0,-7.0,
2121.0,2112.0,0,-7.0,
2085.0,2057.0,0,-7.0,
2146.0,2045.0,0,-7.0,
2162.0,2077.0,0,-8.0,
2126.0,2170.0,1.065595,-8.0,
1921.0,2178.0,0,-8.0,
1895.0,2113.0,0,-8.0,
1982.0,2117.0,0,-8.0,
2099.0,2129.0,0,-8.0,
2226.0,2207.0,0,-8.0,
2143.0,2270.0,1.069805,-8.0,
1985.0,2066.0,0,-8.0,
2107.0,2035.0,0,-9.0,
2253.0,1971.0,0,-9.0,
2356.0,2024.0,0,-9.0,
2188.0,2027.0,1.075095,-9.0,
2144.0,2113.0,0,-9.0,
2076.0,2138.0,0,-9.0,
2009.0,2084.0,0,-9.0,
1941.0,2128.0,0,-9.0,
2034.0,2138.0,1.07865,-9.0,
2084.0,2088.0,0,-9.0,
2236.0,2142.0,0,-9.0,
2283.0,2279.0,0,-9.0,
2187.0,2295.0,0,-9.0,
2118.0,2205.0,1.08304,-9.0,
1863.0,2060.0,0,-9.0,
1983.0,2133.0,0,-9.0,
2015.0,2223.0,0,-9.0,
2181.0,1915.0,0,-9.0,
2094.0,1943.0,0,-9.0,
1981.0,2022.0,0,-9.0,
1940.0,2045.0,0,-10.0,
2104.0,1969.0,1.08529,-10.0,
1955.0,2067.0,0,-10.0,
2134.0,2142.0,0,-10.0,
2119.0,2020.0,0,-10.0,
2057.0,2136.0,0,-10.0,
2247.0,2183.0,0,-10.0,
2187.0,2122.0,1.086675,-10.0,
2129.0,2064.0,0,-10.0,
1987.0,2103.0,0,-10.0,
2100.0,2258.0,0,0,
2156.0,2263.0,1.08922,-10.0,
2396.0,2202.0,0,-10.0,
2356.0,2121.0,0,-10.0,
2158.0,2058.0,0,-10.0,
2272.0,1976.0,0,-10.0,
2094.0,1812.0,0,-10.0,
2026.0,1880.0,1.09335,-11.0,
2064.0,2091.0,0,-11.0,
2002.0,2138.0,0,-11.0,
2201.0,2248.0,0,-11.0,
2178.0,2183.0,0,-11.0,
1987.0,2027.0,0,-11.0,
2083.0,2223.0,1.099685,-11.0,
1995.0,2118.0,0,-11.0,
1986.0,2018.0,0,-11.0,
2045.0,1962.0,0,-11.0,
1997.0,2023.0,0,-11.0,
2088.0,1878.0,0,-11.0,
2008.0,1963.0,0,-11.0,
2080.0,2117.0,0,-11.0,
2147.0,2265.0,0,-12.0,
2112.0,2314.0,1.10892,-11.0,
2207.0,2388.0,0,-11.0,
2155.0,2186.0,0,-11.0,
2092.0,1988.0,0,-12.0,
1936.0,1870.0,0,-12.0,
1940.0,1912.0,1.119955,-12.0,
2091.0,2034.0,0,-12.0,
2214.0,2069.0,0,-12.0,
2338.0,2059.0,0,-12.0,
2154.0,2007.0,0,-12.0,
2036.0,2129.0,0,-12.0,
1882.0,2162.0,1.13319,-12.0,
1871.0,2192.0,0,-12.0,
2078.0,2181.0,0,-12.0,
2240.0,2140.0,0,-12.0,
2234.0,2181.0,1.145155,-12.0,
2117.0,2192.0,0,-12.0,
2076.0,2104.0,0,-12.0,
2196.0,2158.0,0,-12.0,
2397.0,2106.0,0,-12.0,
2312.0,1935.0,1.156085,-12.0,
2129.0,2096.0,0,-12.0,
2084.0,2086.0,0,-12.0,
1967.0,2167.0,0,-12.0,
1962.0,2021.0,0,-12.0,
1963.0,2020.0,0,-12.0,
2123.0,2040.0,0,-12.0,
2123.0,2073.0,0,-12.0,
2075.0,2126.0,0,-12.0,
2021.0,2201.0,0,-12.0,
1941.0,2242.0,1.165255,-12.0,
2126.0,2066.0,0,-12.0,
2169.0,1983.0,0,-13.0,
2104.0,2038.0,0,-13.0,
1997.0,1860.0,0,-13.0,
2026.0,2202.0,0,-13.0,
2161.0,2267.0,1.174015,-13.0,
2295.0,2180.0,0,-13.0,
2291.0,2080.0,0,-13.0,
2104.0,2046.0,0,-13.0,
2026.0,2031.0,1.182995,-13.0,
1978.0,2002.0,0,-14.0,
2154.0,2082.0,0,-14.0,
2139.0,2059.0,0,-14.0,
2055.0,2014.0,0,-14.0,
2065.0,1996.0,0,-14.0,
2131.0,1997.0,1.190905,-14.0,
1988.0,1995.0,0,-14.0,
1944.0,2198.0,0,-14.0,
2155.0,2250.0,0,-14.0,
2130.0,2245.0,1.20101,-15.0,
2214.0,2308.0,0,-15.0,
2135.0,2272.0,0,-15.0,
2054.0,2094.0,0,-15.0,
2031.0,2063.0,0,-15.0,
2130.0,1851.0,0,-15.0,
2217.0,1757.0,0,-15.0,
2257.0,1777.0,0,-15.0,
2126.0,1987.0,0,-15.0,
2108.0,2131.0,1.212035,-15.0,
2086.0,2161.0,0,-15.0,
2079.0,2255.0,0,-15.0,
2027.0,2325.0,0,-15.0,
2139.0,2217.0,0,-15.0,
2080.0,2246.0,0,-15.0,
2009.0,2184.0,1.22029,-15.0,
2158.0,2023.0,0,-15.0,
2008.0,2052.0,0,-15.0,
2071.0,2063.0,0,-15.0,
2079.0,1970.0,0,-15.0,
2142.0,1917.0,0,-15.0,
2082.0,1992.0,1.227835,-14.0,
2126.0,2154.0,0,-14.0,
1843.0,2181.0,0,-14.0,
2001.0,2278.0,0,-14.0,
2204.0,2182.0,0,-14.0,
2290.0,2074.0,1.23491,-14.0,
2302.0,1969.0,0,-14.0,
2090.0,2041.0,0,-15.0,
2073.0,1859.0,0,-15.0,
2084.0,1898.0,0,-16.0,
2127.0,2098.0,1.24185,-16.0,
2182.0,2252.0,0,-16.0,
2154.0,2213.0,0,-16.0,
2133.0,2211.0,0,-16.0,
2175.0,2083.0,1.248605,-16.0,
2172.0,2021.0,0,-16.0,
2123.0,2098.0,0,-16.0,
2093.0,2060.0,0,-16.0,
1986.0,2168.0,0,-16.0,
2002.0,2107.0,0,-16.0,
1956.0,2164.0,0,-16.0,
1993.0,2224.0,0,-16.0,
2084.0,2145.0,0,-16.0,
2059.0,2029.0,0,-16.0,
2147.0,2052.0,1.25506,-17.0,
2204.0,2039.0,0,-17.0,
2197.0,2137.0,0,-17.0,
2192.0,2173.0,0,-17.0,
2218.0,2203.0,0,-17.0,
1734.0,2194.0,0,-17.0,
1804.0,2205.0,1.26062,-18.0,
1929.0,2180.0,0,-18.0,
2057.0,2033.0,0,-18.0,
2378.0,1787.0,0,-18.0,
2313.0,2010.0,0,-18.0,
2266.0,2000.0,1.2631,-18.0,
2155.0,1966.0,0,-18.0,
2114.0,1965.0,0,-18.0,
2088.0,2021.0,0,-18.0,
2007.0,2029.0,1.262985,-18.0,
2040.0,2117.0,0,-18.0,
2152.0,2170.0,0,-18.0,
2225.0,2101.0,0,-18.0,
2222.0,2102.0,0,-18.0,
2082.0,2125.0,0,0,
2013.0,2128.0,1.26393,-18.0,
1957.0,1986.0,0,-18.0,
2100.0,1980.0,0,-18.0,
2271.0,2029.0,0,-18.0,
2174.0,2197.0,0,-18.0,
2065.0,2310.0,0,-18.0,
2023.0,2361.0,0,-18.0,
1957.0,2243.0,0,-18.0,
2101.0,2087.0,0,-18.0,
2070.0,2065.0,0,-18.0,
2080.0,1911.0,1.26846,-19.0,
2188.0,2231.0,0,-19.0,
2135.0,2341.0,0,-19.0,
1948.0,2111.0,0,-19.0,
2048.0,1948.0,1.276355,-19.0,
1891.0,1819.0,0,-19.0,
1990.0,1847.0,0,-19.0,
2258.0,2034.0,0,-19.0,
2131.0,2097.0,0,-19.0,
2297.0,2080.0,0,-19.0,
2151.0,2071.0,1.285465,-20.0,
1991.0,2103.0,0,-20.0,
2018.0,2200.0,0,-20.0,
2031.0,2195.0,1.2958,-20.0,
2123.0,2193.0,0,-20.0,
2298.0,2186.0,0,-20.0,
2110.0,2147.0,0,-20.0,
2177.0,2076.0,0,-20.0,
2270.0,2248.0,0,-20.0,
2188.0,2099.0,1.303505,-20.0,
2268.0,2040.0,0,-20.0,
2180.0,1931.0,0,-20.0,
2086.0,2000.0,0,-21.0,
2061.0,2233.0,0,-21.0,
1927.0,2055.0,0,0,
2050.0,2079.0,0,-21.0,
2072.0,2101.0,0,-21.0,
2056.0,1979.0,0,-21.0,
2022.0,2031.0,0,-21.0,
2000.0,2076.0,1.307315,-21.0,
2050.0,2062.0,0,-21.0,
2107.0,2261.0,0,-21.0,
2009.0,2341.0,0,-21.0,
2048.0,2236.0,0,-21.0,
2108.0,2157.0,0,-21.0,
2177.0,1781.0,1.309265,-21.0,
2184.0,1754.0,0,-21.0,
1995.0,1971.0,0,-21.0,
2041.0,1987.0,0,-21.0,
2057.0,2008.0,1.308835,-21.0,
2387.0,2030.0,0,-22.0,
2257.0,2068.0,0,-22.0,
2153.0,2155.0,0,-22.0,
2116.0,2276.0,0,-22.0,
2126.0,2241.0,1.30899,-22.0,
1997.0,2202.0,0,-22.0,
2059.0,2275.0,0,-22.0,
1949.0,2107.0,0,-22.0,
1873.0,2245.0,0,-22.0,
2023.0,1885.0,0,-22.0,
2229.0,1916.0,0,-22.0,
2397.0,1822.0,0,-22.0,
2369.0,2101.0,0,-22.0,
2258.0,2253.0,0,-22.0,
1999.0,2201.0,1.31274,-22.0,
2039.0,2270.0,0,-22.0,
2147.0,2127.0,0,-23.0,
2058.0,2232.0,0,-23.0,
2094.0,2252.0,1.318295,-23.0,
2035.0,2169.0,0,-23.0,
2028.0,2171.0,0,-23.0,
2042.0,2052.0,0,-23.0,
2103.0,2122.0,0,-23.0,
2080.0,2098.0,0,-23.0,
2010.0,2005.0,1.3223,-23.0,
1941.0,1968.0,0,-23.0,
2169.0,1947.0,0,-23.0,
2159.0,2064.0,0,-23.0,
2122.0,1992.0,0,-23.0,
2127.0,2090.0,1.324255,-23.0,
2225.0,2065.0,0,-23.0,
2004.0,2023.0,0,-23.0,
2038.0,2061.0,0,-23.0,
