LabVIEW Measurement,
Writer_Version,2
Reader_Version,2
Separator,Comma
Decimal_Separator,.
Multi_Headings,No
X_Columns,Multi
Time_Pref,Absolute
Operator,Dymnz
Date,2017/09/15
Time,14:59:07.5911081833530648528
***End_of_Header***,
,
Channels,1,
Samples,1000,
Date,2017/09/15,
Time,14:59:07.5911081833530648528,
Y_Unit_Label,Volts,
X_Dimension,Time,
X0,0.0000000000000000E+0,
Delta_X,0.001000,
***End_of_Header***,,
X_Value,Voltage,Comment
0.000000,-3.475948
0.001000,-3.682146
0.002000,-3.993989
0.003000,-3.333391
0.004000,-2.415680
0.005000,-1.237040
0.006000,-0.176772
0.007000,0.887314
0.008000,0.626383
0.009000,-0.022760
0.010000,-0.517891
0.011000,-0.800459
0.012000,-1.165761
0.013000,-1.677439
0.014000,-3.618505
0.015000,-4.514577
0.016000,-4.491666
0.017000,-4.449663
0.018000,-3.153922
0.019000,-1.840361
0.020000,-0.690996
0.021000,0.243262
0.022000,1.017142
0.023000,1.802478
0.024000,2.227604
0.025000,1.869938
0.026000,0.739665
0.027000,-1.397416
0.028000,-3.528134
0.029000,-4.967704
0.030000,-4.919337
0.031000,-4.302014
0.032000,-3.118282
0.033000,-2.154750
0.034000,-1.271406
0.035000,-1.060116
0.036000,-1.253586
0.037000,-2.264214
0.038000,-3.059732
0.039000,-2.544236
0.040000,-1.905275
0.041000,-1.161943
0.042000,-1.336320
0.043000,-1.154306
0.044000,-0.598079
0.045000,-1.187399
0.046000,-2.106383
0.047000,-2.060561
0.048000,-0.979928
0.049000,-0.152589
0.050000,0.141435
0.051000,0.556378
0.052000,0.794397
0.053000,0.201258
0.054000,-1.161943
0.055000,-1.749990
0.056000,-2.074562
0.057000,-2.372404
0.058000,-1.891274
0.059000,-1.014294
0.060000,-0.395699
0.061000,-0.044398
0.062000,0.534740
0.063000,0.956046
0.064000,0.198713
0.065000,-0.609535
0.066000,-1.079209
0.067000,-1.687622
0.068000,-2.513688
0.069000,-3.106827
0.070000,-3.234110
0.071000,-2.726251
0.072000,-2.280760
0.073000,-3.299024
0.074000,-4.055085
0.075000,-3.598139
0.076000,-3.898527
0.077000,-3.741969
0.078000,-3.167923
0.079000,-3.694874
0.080000,-2.843351
0.081000,-1.823814
0.082000,-0.623536
0.083000,0.538558
0.084000,0.896223
0.085000,0.469825
0.086000,0.639112
0.087000,0.816035
0.088000,1.055327
0.089000,1.192793
0.090000,0.035790
0.091000,-1.331229
0.092000,-2.049105
0.093000,-2.489504
0.094000,-2.760617
0.095000,-2.318945
0.096000,-2.205663
0.097000,-2.059288
0.098000,-3.119555
0.099000,-3.029184
0.100000,-2.835714
0.101000,-2.453865
0.102000,-1.748717
0.103000,-0.668085
0.104000,0.425276
0.105000,0.547468
0.106000,-0.511527
0.107000,-1.870909
0.108000,-2.542963
0.109000,-2.307490
0.110000,-2.102564
0.111000,-1.673620
0.112000,-1.441965
0.113000,-1.053752
0.114000,-0.762274
0.115000,-0.902285
0.116000,-0.680813
0.117000,-0.940470
0.118000,-1.343957
0.119000,-1.672348
0.120000,-2.382587
0.121000,-2.858625
0.122000,-4.276558
0.123000,-5.599028
0.124000,-6.273628
0.125000,-5.502293
0.126000,-5.094987
0.127000,-3.558682
0.128000,-2.709704
0.129000,-1.223039
0.130000,0.439277
0.131000,0.711663
0.132000,0.940772
0.133000,1.390081
0.134000,1.573369
0.135000,1.960309
0.136000,2.711279
0.137000,2.138505
0.138000,0.048519
0.139000,-2.388951
0.140000,-3.935439
0.141000,-4.401295
0.142000,-3.889617
0.143000,-3.380485
0.144000,-2.942632
0.145000,-3.005001
0.146000,-4.508213
0.147000,-4.035993
0.148000,-2.147113
0.149000,-0.039307
0.150000,2.086319
0.151000,3.033305
0.152000,3.373151
0.153000,3.228048
0.154000,2.496171
0.155000,1.225886
0.156000,-0.076219
0.157000,-0.564985
0.158000,-1.601069
0.159000,-2.642244
0.160000,-2.970634
0.161000,-2.817895
0.162000,-2.970634
0.163000,-3.477220
0.164000,-3.267204
0.165000,-2.408043
0.166000,-1.613797
0.167000,-1.273952
0.168000,-0.637537
0.169000,-0.706270
0.170000,-1.971463
0.171000,-2.721159
0.172000,-2.950269
0.173000,-2.234938
0.174000,-2.008375
0.175000,-1.771628
0.176000,-1.203946
0.177000,-0.969745
0.178000,-1.644345
0.179000,-2.119111
0.180000,-1.626526
0.181000,-1.114848
0.182000,-0.981201
0.183000,-1.472513
0.184000,-1.560339
0.185000,-1.370687
0.186000,-1.341412
0.187000,-1.375778
0.188000,-1.707987
0.189000,-2.074562
0.190000,-2.434773
0.191000,-2.838260
0.192000,-4.627859
0.193000,-5.228635
0.194000,-6.285083
0.195000,-5.975786
0.196000,-5.240090
0.197000,-4.464937
0.198000,-2.992272
0.199000,-1.560339
0.200000,-0.348604
0.201000,0.608564
0.202000,2.135960
0.203000,2.902203
0.204000,2.311610
0.205000,0.796943
0.206000,-0.620990
0.207000,-0.368970
0.208000,0.051064
0.209000,0.434186
0.210000,0.784214
0.211000,0.595835
0.212000,-0.867919
0.213000,-1.760173
0.214000,-1.839088
0.215000,-1.864545
0.216000,-1.809813
0.217000,-2.497141
0.218000,-3.111918
0.219000,-2.843351
0.220000,-2.513688
0.221000,-1.814905
0.222000,-1.407599
0.223000,-1.266315
0.224000,-1.840361
0.225000,-1.951097
0.226000,-0.991384
0.227000,-0.239141
0.228000,-0.129678
0.229000,-0.255688
0.230000,-1.590886
0.231000,-3.467038
0.232000,-3.535771
0.233000,-3.110645
0.234000,-2.504778
0.235000,-1.548883
0.236000,-1.225584
0.237000,-0.664266
0.238000,-0.240414
0.239000,-0.433884
0.240000,-1.188672
0.241000,-1.091937
0.242000,-0.769911
0.243000,-0.554803
0.244000,-0.213684
0.245000,0.012879
0.246000,-0.141133
0.247000,-0.962108
0.248000,-1.284134
0.249000,-1.429237
0.250000,-1.557793
0.251000,-1.480150
0.252000,-0.846281
0.253000,0.087976
0.254000,-0.034215
0.255000,-0.403336
0.256000,-0.943016
0.257000,-1.083027
0.258000,-1.051207
0.259000,-1.934551
0.260000,-2.703340
0.261000,-3.057187
0.262000,-3.598139
0.263000,-3.888345
0.264000,-4.666044
0.265000,-5.096260
0.266000,-5.217179
0.267000,-5.131899
0.268000,-4.440753
0.269000,-3.351210
0.270000,-3.030457
0.271000,-1.706714
0.272000,-0.206047
0.273000,0.385819
0.274000,1.102422
0.275000,1.724836
0.276000,1.397718
0.277000,0.889859
0.278000,0.272537
0.279000,-0.251869
0.280000,-1.478877
0.281000,-2.352039
0.282000,-3.801792
0.283000,-3.869252
0.284000,-3.217563
0.285000,-3.212472
0.286000,-4.258738
0.287000,-4.252374
0.288000,-4.551489
0.289000,-4.018173
0.290000,-2.546782
0.291000,-0.601898
0.292000,0.360362
0.293000,1.351896
0.294000,1.050236
0.295000,0.556378
0.296000,-0.150043
0.297000,-0.580259
0.298000,-0.580259
0.299000,-0.155134
0.300000,1.098603
0.301000,1.362079
0.302000,1.281891
0.303000,1.283164
0.304000,1.138061
0.305000,0.567833
0.306000,0.482554
0.307000,-0.105494
0.308000,-1.368141
0.309000,-2.717341
0.310000,-3.515405
0.311000,-3.384304
0.312000,-3.295206
0.313000,-2.955360
0.314000,-2.297307
0.315000,-1.822541
0.316000,-0.939197
0.317000,-0.461886
0.318000,-0.716452
0.319000,-0.758456
0.320000,-1.161943
0.321000,-1.807268
0.322000,-2.385132
0.323000,-2.658791
0.324000,-4.074178
0.325000,-5.404285
0.326000,-7.751384
0.327000,-8.478169
0.328000,-7.057691
0.329000,-4.724594
0.330000,-2.021103
0.331000,0.413821
0.332000,1.859756
0.333000,2.754555
0.334000,3.082945
0.335000,2.323066
0.336000,0.760031
0.337000,-0.148770
0.338000,-1.229403
0.339000,-1.365596
0.340000,-1.071572
0.341000,-1.654528
0.342000,-1.837815
0.343000,-1.779265
0.344000,-1.049934
0.345000,-0.493707
0.346000,0.328541
0.347000,0.547468
0.348000,0.345088
0.349000,-0.081310
0.350000,-0.346059
0.351000,-0.749546
0.352000,-3.748333
0.353000,-6.022880
0.354000,-6.683479
0.355000,-5.768314
0.356000,-5.592664
0.357000,-4.645678
0.358000,-3.383031
0.359000,-1.823814
0.360000,-0.884466
0.361000,-0.511527
0.362000,0.380727
0.363000,0.777850
0.364000,0.725664
0.365000,0.445642
0.366000,-0.241687
0.367000,-0.929015
0.368000,-1.047388
0.369000,-1.228130
0.370000,-1.584522
0.371000,-1.994374
0.372000,-2.598968
0.373000,-3.110645
0.374000,-3.540862
0.375000,-3.386850
0.376000,-3.003728
0.377000,-2.298580
0.378000,-1.168307
0.379000,-0.244232
0.380000,-0.092766
0.381000,-0.318056
0.382000,-1.921822
0.383000,-2.376223
0.384000,-1.273952
0.385000,-0.405882
0.386000,0.627656
0.387000,1.126606
0.388000,1.746474
0.389000,2.305246
0.390000,1.951399
0.391000,1.042599
0.392000,0.194894
0.393000,-0.262052
0.394000,-0.775002
0.395000,-1.004112
0.396000,-1.650709
0.397000,-2.208209
0.398000,-2.537872
0.399000,-2.676610
0.400000,-2.339310
0.401000,-4.047448
0.402000,-6.217623
0.403000,-7.267708
0.404000,-6.106887
0.405000,-4.112363
0.406000,-2.383860
0.407000,-1.056298
0.408000,-0.029124
0.409000,0.258536
0.410000,-0.418610
0.411000,-0.379152
0.412000,-0.100403
0.413000,-0.281144
0.414000,-1.588341
0.415000,-2.338038
0.416000,-2.469139
0.417000,-2.145840
0.418000,-2.248940
0.419000,-1.896366
0.420000,-1.155579
0.421000,-0.665539
0.422000,-0.819551
0.423000,-0.441521
0.424000,-0.617172
0.425000,-1.065208
0.426000,-1.347776
0.427000,-1.503061
0.428000,-1.023204
0.429000,-0.769911
0.430000,-0.595533
0.431000,-0.622263
0.432000,-0.610807
0.433000,-0.496253
0.434000,-0.690996
0.435000,-1.438147
0.436000,-2.181480
0.437000,-3.318117
0.438000,-3.506496
0.439000,-3.596867
0.440000,-3.493767
0.441000,-3.741969
0.442000,-3.310480
0.443000,-2.475503
0.444000,-1.421600
0.445000,-0.917559
0.446000,-0.580259
0.447000,-0.539529
0.448000,-2.136931
0.449000,-2.446228
0.450000,-2.152204
0.451000,-1.333775
0.452000,-0.263325
0.453000,0.329814
0.454000,0.229260
0.455000,-0.045671
0.456000,-0.068582
0.457000,-0.558621
0.458000,-1.371960
0.459000,-1.933278
0.460000,-2.405498
0.461000,-2.824259
0.462000,-2.424590
0.463000,-1.835270
0.464000,-1.249768
0.465000,-0.566258
0.466000,-0.190773
0.467000,-1.734716
0.468000,-3.258294
0.469000,-3.157740
0.470000,-2.780982
0.471000,-2.296034
0.472000,-2.161114
0.473000,-2.564601
0.474000,-2.324037
0.475000,-2.242575
0.476000,-1.916731
0.477000,-1.514517
0.478000,-1.192491
0.479000,-1.027023
0.480000,-1.111030
0.481000,-1.911640
0.482000,-2.149659
0.483000,-1.662165
0.484000,-1.326138
0.485000,-0.606989
0.486000,0.364180
0.487000,0.623838
0.488000,-0.162771
0.489000,-1.007930
0.490000,-1.343957
0.491000,-1.683803
0.492000,-1.565430
0.493000,-0.946834
0.494000,-0.771184
0.495000,-0.539529
0.496000,-1.326138
0.497000,-1.674893
0.498000,-0.740636
0.499000,-0.088947
0.500000,-0.248051
0.501000,-0.038034
0.502000,0.478735
0.503000,0.435459
0.504000,-0.113131
0.505000,-0.618444
0.506000,-1.499243
0.507000,-3.497586
0.508000,-3.951986
0.509000,-3.761062
0.510000,-3.264658
0.511000,-2.520052
0.512000,-2.255304
0.513000,-2.302398
0.514000,-2.255304
0.515000,-2.115292
0.516000,-2.559510
0.517000,-2.654972
0.518000,-2.548055
0.519000,-2.218392
0.520000,-1.732171
0.521000,-1.980372
0.522000,-2.287124
0.523000,-2.315127
0.524000,-2.382587
0.525000,-3.324481
0.526000,-3.794155
0.527000,-3.302843
0.528000,-2.343129
0.529000,-1.963826
0.530000,-1.855635
0.531000,-1.548883
0.532000,-1.480150
0.533000,-2.110201
0.534000,-2.997364
0.535000,-3.226473
0.536000,-2.079653
0.537000,-0.627354
0.538000,0.258536
0.539000,-0.349877
0.540000,0.056156
0.541000,1.316257
0.542000,2.096502
0.543000,1.535184
0.544000,0.785487
0.545000,0.179620
0.546000,0.100705
0.547000,-0.192046
0.548000,-1.126303
0.549000,-1.551429
0.550000,-0.811914
0.551000,0.121070
0.552000,0.718027
0.553000,1.062964
0.554000,1.150789
0.555000,1.206794
0.556000,0.494009
0.557000,-0.613353
0.558000,-1.482696
0.559000,-2.344402
0.560000,-3.066096
0.561000,-3.302843
0.562000,-3.889617
0.563000,-4.778053
0.564000,-4.664771
0.565000,-4.081815
0.566000,-3.663054
0.567000,-3.063551
0.568000,-2.364767
0.569000,-2.500960
0.570000,-2.301126
0.571000,-1.840361
0.572000,-1.380869
0.573000,-1.005385
0.574000,-0.875556
0.575000,-1.301954
0.576000,-1.996919
0.577000,-1.478877
0.578000,-1.060116
0.579000,-1.000293
0.580000,-1.744899
0.581000,-2.590058
0.582000,-1.932005
0.583000,-1.252314
0.584000,-0.582805
0.585000,-0.007486
0.586000,-0.809369
0.587000,-1.958734
0.588000,-2.931176
0.589000,-3.208653
0.590000,-2.717341
0.591000,-2.632061
0.592000,-3.071188
0.593000,-3.138648
0.594000,-3.565046
0.595000,-4.060177
0.596000,-4.429297
0.597000,-3.483585
0.598000,-2.451320
0.599000,-1.118667
0.600000,-0.845008
0.601000,-0.841190
0.602000,0.161800
0.603000,1.630646
0.604000,2.522900
0.605000,3.354058
0.606000,3.201318
0.607000,2.170326
0.608000,0.623838
0.609000,-0.738090
0.610000,-1.458512
0.611000,-1.270133
0.612000,-1.755082
0.613000,-2.475503
0.614000,-2.583694
0.615000,-2.598968
0.616000,-2.304944
0.617000,-1.947279
0.618000,-1.561611
0.619000,-1.315955
0.620000,-1.365596
0.621000,-2.175115
0.622000,-2.961724
0.623000,-4.139092
0.624000,-3.993989
0.625000,-2.814076
0.626000,-1.425419
0.627000,-0.648992
0.628000,-0.097857
0.629000,0.159255
0.630000,-0.935379
0.631000,-1.458512
0.632000,-1.942188
0.633000,-3.201016
0.634000,-2.718614
0.635000,-2.756799
0.636000,-2.045287
0.637000,-1.623980
0.638000,-2.396588
0.639000,-2.364767
0.640000,-1.897638
0.641000,-1.651982
0.642000,-2.017284
0.643000,-1.327411
0.644000,-0.622263
0.645000,-0.278599
0.646000,-1.046115
0.647000,-1.863272
0.648000,-1.299408
0.649000,-0.376607
0.650000,-1.741080
0.651000,-2.511143
0.652000,-2.405498
0.653000,-1.473786
0.654000,-0.875556
0.655000,-0.136042
0.656000,0.600927
0.657000,0.739665
0.658000,0.553832
0.659000,0.073975
0.660000,0.100705
0.661000,0.410002
0.662000,0.571652
0.663000,0.262354
0.664000,-0.169135
0.665000,-0.763547
0.666000,-1.336320
0.667000,-1.627799
0.668000,-1.940915
0.669000,-2.315127
0.670000,-2.789892
0.671000,-3.164104
0.672000,-3.402124
0.673000,-3.946895
0.674000,-4.163276
0.675000,-4.767870
0.676000,-4.279103
0.677000,-3.276113
0.678000,-2.600241
0.679000,-1.861999
0.680000,-1.167034
0.681000,-0.164044
0.682000,0.402365
0.683000,0.048519
0.684000,-0.455522
0.685000,-1.042297
0.686000,-3.035548
0.687000,-5.311368
0.688000,-7.272800
0.689000,-7.577006
0.690000,-6.258354
0.691000,-4.489120
0.692000,-2.560783
0.693000,-0.307874
0.694000,0.023062
0.695000,-0.306601
0.696000,-0.186955
0.697000,-0.207320
0.698000,0.612382
0.699000,2.050680
0.700000,1.973038
0.701000,0.859311
0.702000,-0.578987
0.703000,-1.018113
0.704000,-0.824643
0.705000,-0.116949
0.706000,0.673478
0.707000,1.513546
0.708000,1.574642
0.709000,1.369716
0.710000,0.277628
0.711000,-1.335048
0.712000,-1.257405
0.713000,-1.244677
0.714000,-0.936652
0.715000,-0.717725
0.716000,-0.749546
0.717000,-1.665983
0.718000,-2.788619
0.719000,-5.120444
0.720000,-5.917236
0.721000,-5.083532
0.722000,-3.836159
0.723000,-2.906993
0.724000,-2.430954
0.725000,-2.455138
0.726000,-2.797529
0.727000,-1.984191
0.728000,-0.934106
0.729000,0.241989
0.730000,0.868221
0.731000,0.990413
0.732000,1.289528
0.733000,0.476189
0.734000,-0.342240
0.735000,-0.390608
0.736000,-0.300237
0.737000,-0.470796
0.738000,-0.839917
0.739000,-1.224311
0.740000,-1.419054
0.741000,-1.539973
0.742000,-1.450875
0.743000,-1.655801
0.744000,-1.683803
0.745000,-1.730898
0.746000,-1.397416
0.747000,-1.273952
0.748000,-1.453421
0.749000,-1.958734
0.750000,-2.143295
0.751000,-2.890446
0.752000,-3.341028
0.753000,-3.151376
0.754000,-2.884082
0.755000,-2.590058
0.756000,-2.788619
0.757000,-3.357574
0.758000,-4.258738
0.759000,-5.310096
0.760000,-5.086078
0.761000,-3.861615
0.762000,-2.597695
0.763000,-2.475503
0.764000,-2.153477
0.765000,-1.570521
0.766000,-0.926469
0.767000,-0.157680
0.768000,-0.375334
0.769000,-0.870465
0.770000,-1.646891
0.771000,-1.837815
0.772000,-1.491606
0.773000,-0.757183
0.774000,0.157982
0.775000,-0.301510
0.776000,-0.606989
0.777000,-0.794095
0.778000,-0.645174
0.779000,-0.522982
0.780000,-0.645174
0.781000,-0.484797
0.782000,-0.496253
0.783000,-0.409700
0.784000,-0.613353
0.785000,-1.146669
0.786000,-1.855635
0.787000,-2.068198
0.788000,-3.207381
0.789000,-4.139092
0.790000,-5.515021
0.791000,-5.484473
0.792000,-4.319834
0.793000,-3.389395
0.794000,-1.952370
0.795000,-0.441521
0.796000,1.424448
0.797000,2.986210
0.798000,3.146587
0.799000,2.520354
0.800000,1.369716
0.801000,-0.010032
0.802000,-1.113575
0.803000,-1.565430
0.804000,-2.549327
0.805000,-1.993101
0.806000,-1.296863
0.807000,-1.979100
0.808000,-2.476776
0.809000,-2.532781
0.810000,-1.576885
0.811000,-0.239141
0.812000,-0.791549
0.813000,-1.657074
0.814000,-0.827188
0.815000,0.089249
0.816000,-1.300681
0.817000,-2.481867
0.818000,-2.618060
0.819000,-1.766537
0.820000,-0.949380
0.821000,-0.968473
0.822000,-0.907377
0.823000,-0.887011
0.824000,-1.407599
0.825000,-1.765264
0.826000,-1.613797
0.827000,-1.230676
0.828000,-1.112302
0.829000,-0.948107
0.830000,-0.885739
0.831000,-0.880647
0.832000,-0.641355
0.833000,-0.477160
0.834000,-0.637537
0.835000,-1.024477
0.836000,-1.847998
0.837000,-1.870909
0.838000,-1.466149
0.839000,-1.664711
0.840000,-1.929459
0.841000,-1.911640
0.842000,-1.865818
0.843000,-1.618889
0.844000,-1.620162
0.845000,-1.975281
0.846000,-2.250212
0.847000,-2.614242
0.848000,-3.605776
0.849000,-3.883253
0.850000,-3.659235
0.851000,-2.937541
0.852000,-2.559510
0.853000,-2.700794
0.854000,-2.698249
0.855000,-2.376223
0.856000,-2.175115
0.857000,-2.842078
0.858000,-2.861171
0.859000,-3.329572
0.860000,-3.612140
0.861000,-3.631233
0.862000,-4.778053
0.863000,-4.055085
0.864000,-3.540862
0.865000,-2.173843
0.866000,-0.716452
0.867000,1.033689
0.868000,2.324339
0.869000,2.722734
0.870000,1.984493
0.871000,0.824945
0.872000,-0.158953
0.873000,-2.296034
0.874000,-3.142466
0.875000,-1.738535
0.876000,-0.613353
0.877000,-0.268416
0.878000,0.160528
0.879000,0.645476
0.880000,1.034962
0.881000,1.547912
0.882000,1.634465
0.883000,1.150789
0.884000,0.653113
0.885000,-0.231504
0.886000,-1.299408
0.887000,-2.758072
0.888000,-5.844684
0.889000,-7.244797
0.890000,-6.416185
0.891000,-4.932065
0.892000,-3.150103
0.893000,-1.368141
0.894000,0.384546
0.895000,0.720573
0.896000,0.994231
0.897000,1.082057
0.898000,1.925943
0.899000,0.339997
0.900000,-1.459785
0.901000,-2.044014
0.902000,-2.098746
0.903000,-2.229847
0.904000,-2.751707
0.905000,-2.623152
0.906000,-3.047004
0.907000,-3.414852
0.908000,-3.272295
0.909000,-2.901901
0.910000,-2.395315
0.911000,-1.231948
0.912000,-0.441521
0.913000,0.427822
0.914000,0.297993
0.915000,-0.133496
0.916000,-0.279872
0.917000,-1.259951
0.918000,-1.952370
0.919000,-2.157296
0.920000,-2.091109
0.921000,-1.924368
0.922000,-1.752536
0.923000,-1.501788
0.924000,-1.573067
0.925000,-2.119111
0.926000,-2.970634
0.927000,-3.123374
0.928000,-4.303287
0.929000,-4.985524
0.930000,-3.845068
0.931000,-2.026194
0.932000,-0.417337
0.933000,1.393900
0.934000,2.716370
0.935000,2.745645
0.936000,1.190247
0.937000,-0.861555
0.938000,-1.853089
0.939000,-2.044014
0.940000,-1.440693
0.941000,-0.642628
0.942000,-0.590442
0.943000,-0.925196
0.944000,-1.771628
0.945000,-2.070743
0.946000,-2.670246
0.947000,-3.323208
0.948000,-3.556136
0.949000,-3.612140
0.950000,-3.179378
0.951000,-2.619333
0.952000,-2.181480
0.953000,-1.685076
0.954000,-2.037650
0.955000,-1.510698
0.956000,-1.111030
0.957000,-0.270962
0.958000,-0.413519
0.959000,-0.270962
0.960000,-0.133496
0.961000,-0.647719
0.962000,-2.035104
0.963000,-3.114464
0.964000,-4.025810
0.965000,-4.701683
0.966000,-4.466209
0.967000,-3.973624
0.968000,-2.971907
0.969000,-1.664711
0.970000,0.040882
0.971000,1.116423
0.972000,1.555549
0.973000,1.788477
0.974000,1.342987
0.975000,-0.181864
0.976000,-1.067753
0.977000,-1.595978
0.978000,-2.252758
0.979000,-1.935823
0.980000,-1.715624
0.981000,-2.163660
0.982000,-3.445400
0.983000,-3.918892
0.984000,-3.352483
0.985000,-1.946006
0.986000,-0.511527
0.987000,0.777850
0.988000,0.935681
0.989000,0.351452
0.990000,-0.375334
0.991000,-0.312965
0.992000,0.561469
0.993000,0.303085
0.994000,-0.501344
0.995000,-0.967200
0.996000,-0.381698
0.997000,-0.048216
0.998000,-0.767365
0.999000,-1.079209
1.000000,-0.722816
1.001000,-0.348604
1.002000,-0.380425
1.003000,-0.676995
1.004000,-1.039751
1.005000,-1.112302
1.006000,-1.223039
1.007000,-1.545065
1.008000,-2.139476
1.009000,-2.504778
1.010000,-2.885355
1.011000,-3.647780
1.012000,-4.294377
1.013000,-4.158185
1.014000,-4.007991
1.015000,-4.509486
1.016000,-4.762779
1.017000,-4.779326
1.018000,-4.896426
1.019000,-4.477665
1.020000,-3.992717
1.021000,-2.564601
1.022000,-0.806823
1.023000,-0.375334
1.024000,0.152891
1.025000,0.178347
1.026000,0.308176
1.027000,0.655658
1.028000,0.914043
1.029000,0.210168
1.030000,-0.634991
1.031000,-1.721988
1.032000,-3.101736
1.033000,-2.975725
1.034000,-2.537872
1.035000,-2.644790
1.036000,-3.179378
1.037000,-3.271022
1.038000,-2.404225
1.039000,-1.186127
1.040000,-0.525528
1.041000,0.452006
1.042000,1.867393
1.043000,2.540720
1.044000,1.999767
1.045000,0.852947
1.046000,0.645476
1.047000,-0.086401
1.048000,-1.291771
1.049000,-1.851817
1.050000,-2.316400
1.051000,-2.881536
1.052000,-2.973180
1.053000,-3.077552
1.054000,-3.068642
1.055000,-2.623152
1.056000,-2.618060
1.057000,-2.788619
1.058000,-4.346563
1.059000,-4.547671
1.060000,-3.838704
1.061000,-2.343129
1.062000,-1.270133
1.063000,-0.432611
1.064000,-0.362606
1.065000,-1.198855
1.066000,-4.062722
1.067000,-4.960067
1.068000,-4.369474
1.069000,-3.067369
1.070000,-1.860726
1.071000,-0.918832
1.072000,-0.321875
1.073000,0.072702
1.074000,0.098159
1.075000,-0.417337
1.076000,-0.968473
1.077000,-0.320602
1.078000,-0.265870
1.079000,0.123616
1.080000,0.431640
1.081000,1.019688
1.082000,1.210612
1.083000,0.936954
1.084000,0.954774
1.085000,0.440550
1.086000,-0.156407
1.087000,-0.169135
1.088000,-0.831007
1.089000,-0.855191
1.090000,-1.276497
1.091000,-1.499243
1.092000,-1.494151
1.093000,-1.707987
1.094000,-2.464048
1.095000,-2.541690
1.096000,-2.656245
1.097000,-2.990999
1.098000,-3.454310
1.099000,-3.115737
1.100000,-2.399133
1.101000,-1.545065
1.102000,-1.398689
1.103000,-1.313410
1.104000,-1.221766
1.105000,-0.781367
1.106000,-0.053308
1.107000,-0.305328
1.108000,-0.833553
1.109000,-1.002839
1.110000,-1.397416
1.111000,-2.098746
1.112000,-3.036821
1.113000,-3.797974
1.114000,-3.729241
1.115000,-2.956633
1.116000,-2.579875
1.117000,-2.362221
1.118000,-1.739808
1.119000,-1.083027
1.120000,-1.088119
1.121000,-0.678267
1.122000,-0.817006
1.123000,-2.219664
1.124000,-2.282033
1.125000,-2.245121
1.126000,-3.832340
1.127000,-4.472574
1.128000,-4.042357
1.129000,-3.141193
1.130000,-2.452592
1.131000,-2.498414
1.132000,-2.432227
1.133000,-1.940915
1.134000,-1.727079
1.135000,-1.881092
1.136000,-1.609979
1.137000,-1.291771
1.138000,-1.251041
1.139000,-1.215402
1.140000,-1.168307
1.141000,-0.192046
1.142000,1.014597
1.143000,1.532638
1.144000,2.045589
1.145000,2.485988
1.146000,1.947581
1.147000,1.176246
1.148000,0.283992
1.149000,-0.805550
1.150000,-1.584522
1.151000,-3.105554
1.152000,-3.465765
1.153000,-2.929904
1.154000,-2.297307
1.155000,-2.069471
1.156000,-1.338866
1.157000,-0.321875
1.158000,-0.351150
1.159000,-0.362606
1.160000,-0.633718
1.161000,-1.322319
1.162000,-1.072845
1.163000,-1.458512
1.164000,-2.535326
1.165000,-2.839533
1.166000,-3.114464
1.167000,-2.931176
1.168000,-2.724978
1.169000,-3.049550
1.170000,-2.647335
1.171000,-1.952370
1.172000,-1.359231
1.173000,-0.720271
1.174000,-0.185682
1.175000,0.157982
1.176000,0.422731
1.177000,-0.188228
1.178000,-1.495424
1.179000,-2.297307
1.180000,-4.006718
1.181000,-4.925701
1.182000,-5.305004
1.183000,-6.001242
1.184000,-4.890062
1.185000,-3.870525
1.186000,-2.089836
1.187000,-0.466978
1.188000,0.837673
1.189000,1.383717
1.190000,1.444813
1.191000,0.822399
1.192000,0.230533
1.193000,0.164346
1.194000,-0.843735
1.195000,-1.267588
1.196000,-1.886183
1.197000,-2.004556
1.198000,-1.422873
1.199000,-0.974837
1.200000,-1.431783
1.201000,-1.397416
1.202000,-1.934551
1.203000,-2.024921
1.204000,-1.315955
1.205000,-1.122485
1.206000,-1.049934
1.207000,-0.620990
1.208000,-0.399518
1.209000,-1.014294
1.210000,-1.598523
1.211000,-1.702895
1.212000,-2.210755
1.213000,-2.849715
1.214000,-3.372848
1.215000,-3.792882
1.216000,-3.608322
1.217000,-2.761890
1.218000,-1.940915
1.219000,-0.773730
1.220000,0.126161
1.221000,1.129151
1.222000,1.923397
1.223000,1.826662
1.224000,0.996777
1.225000,0.023062
1.226000,-0.860282
1.227000,-1.518335
1.228000,-1.793266
1.229000,-1.876000
1.230000,-2.201845
1.231000,-2.391497
1.232000,-2.503506
1.233000,-3.094099
1.234000,-2.815349
1.235000,-2.156023
1.236000,-2.196754
1.237000,-2.553146
1.238000,-3.181924
1.239000,-3.100463
1.240000,-4.137819
1.241000,-4.966432
1.242000,-4.492939
1.243000,-3.442854
1.244000,-2.397861
1.245000,-1.662165
1.246000,-1.682530
1.247000,-1.688894
1.248000,-0.680813
1.249000,-0.568804
1.250000,-0.477160
1.251000,-0.160226
1.252000,-0.903558
1.253000,-1.286680
1.254000,-1.963826
1.255000,-2.189117
1.256000,-2.102564
1.257000,-1.282862
1.258000,-0.334603
1.259000,0.192348
1.260000,0.532194
1.261000,0.906406
1.262000,0.775305
1.263000,0.197440
1.264000,0.301812
1.265000,0.524557
1.266000,-0.010032
1.267000,-0.837371
1.268000,-1.635435
1.269000,-1.426691
1.270000,-1.254859
1.271000,-2.238757
1.272000,-2.142022
1.273000,-1.514517
1.274000,-0.906104
1.275000,-0.585351
1.276000,-0.642628
1.277000,-0.817006
1.278000,-1.793266
1.279000,-2.905720
1.280000,-3.733059
1.281000,-3.432671
1.282000,-2.777164
1.283000,-1.594705
1.284000,-1.154306
1.285000,-0.696087
1.286000,-0.381698
1.287000,-0.292600
1.288000,0.157982
1.289000,-0.256961
1.290000,-1.018113
1.291000,-1.285407
1.292000,-1.813632
1.293000,-2.021103
1.294000,-2.131839
1.295000,-2.943905
1.296000,-3.077552
1.297000,-2.826804
1.298000,-2.708431
1.299000,-3.120828
1.300000,-3.557409
1.301000,-3.403396
1.302000,-3.221382
1.303000,-2.770800
1.304000,-1.788175
1.305000,-0.558621
1.306000,-0.698633
1.307000,-0.850099
1.308000,-0.912468
1.309000,-0.857736
1.310000,-0.360060
1.311000,-0.587896
1.312000,-3.811975
1.313000,-5.837047
1.314000,-5.767042
1.315000,-4.554035
1.316000,-3.707603
1.317000,-1.850544
1.318000,-0.122041
1.319000,1.233523
1.320000,2.006131
1.321000,1.876302
1.322000,0.978957
1.323000,0.156709
1.324000,-0.904831
1.325000,-1.169580
1.326000,-0.604443
1.327000,-0.451704
1.328000,-0.866646
1.329000,-1.099574
1.330000,-1.505607
1.331000,-1.687622
1.332000,-2.503506
1.333000,-2.759344
1.334000,-2.330401
1.335000,-1.980372
1.336000,-1.967644
1.337000,-2.072016
1.338000,-2.769527
1.339000,-2.168751
1.340000,-1.478877
1.341000,-0.074946
1.342000,1.290801
1.343000,1.919579
1.344000,1.964128
1.345000,1.116423
1.346000,-0.396972
1.347000,-1.015567
1.348000,-1.363050
1.349000,-1.425419
1.350000,-1.937096
1.351000,-1.723261
1.352000,-2.569693
1.353000,-5.826865
1.354000,-6.720391
1.355000,-6.146345
1.356000,-4.803509
1.357000,-3.179378
1.358000,-1.928186
1.359000,-0.664266
1.360000,0.208895
1.361000,0.249626
1.362000,0.221623
1.363000,0.679842
1.364000,0.219078
1.365000,-0.278599
1.366000,-0.045671
1.367000,0.104523
1.368000,0.015425
1.369000,-0.651538
1.370000,-1.351594
1.371000,-1.631617
1.372000,-1.594705
1.373000,-1.345230
1.374000,-1.412690
1.375000,-1.551429
1.376000,-1.677439
1.377000,-1.873455
1.378000,-2.380041
1.379000,-3.304116
1.380000,-5.223543
1.381000,-5.176449
1.382000,-4.020719
1.383000,-3.220109
1.384000,-2.679156
1.385000,-1.790721
1.386000,-1.015567
1.387000,-0.497525
1.388000,-0.183136
1.389000,0.119797
1.390000,-0.025306
1.391000,-1.215402
1.392000,-3.369030
1.393000,-4.979160
1.394000,-4.583310
1.395000,-3.685965
1.396000,-2.906993
1.397000,-2.296034
1.398000,-1.623980
1.399000,-1.623980
1.400000,-1.226857
1.401000,-1.182308
1.402000,-0.296418
1.403000,1.154608
1.404000,2.175417
1.405000,2.412164
1.406000,2.410891
1.407000,2.543265
1.408000,1.806297
1.409000,-0.017669
1.410000,-3.306661
1.411000,-6.215078
1.412000,-7.317349
1.413000,-5.971967
1.414000,-3.612140
1.415000,-1.523426
1.416000,0.231806
1.417000,-0.027851
1.418000,-0.236595
1.419000,-0.040580
1.420000,1.029871
1.421000,1.875030
1.422000,1.691742
1.423000,1.140607
1.424000,0.350179
1.425000,-0.498798
1.426000,-1.126303
1.427000,-0.909922
1.428000,-0.744455
1.429000,-3.349937
1.430000,-6.006334
1.431000,-6.329632
1.432000,-5.758132
1.433000,-4.785690
1.434000,-3.571410
1.435000,-2.065652
1.436000,-1.029568
1.437000,-0.587896
1.438000,-0.465705
1.439000,0.151618
1.440000,1.094785
1.441000,1.097330
1.442000,-0.248051
1.443000,-0.648992
1.444000,-1.142850
1.445000,-1.668529
1.446000,-1.986737
1.447000,-1.789448
1.448000,-1.433056
1.449000,-0.750819
1.450000,-0.623536
1.451000,-1.112302
1.452000,-1.327411
1.453000,-1.329956
1.454000,-0.245505
1.455000,0.518193
1.456000,0.263627
1.457000,-0.202229
1.458000,-0.540802
1.459000,-1.072845
1.460000,-1.364323
1.461000,-1.420327
1.462000,-1.814905
1.463000,-2.321491
1.464000,-3.221382
1.465000,-3.959623
1.466000,-3.958350
1.467000,-4.333835
1.468000,-5.406831
1.469000,-5.558298
1.470000,-4.737322
1.471000,-3.796701
1.472000,-2.875172
1.473000,-2.037650
1.474000,-2.219664
1.475000,-2.966816
1.476000,-3.329572
1.477000,-2.640971
1.478000,-1.575612
1.479000,-0.856464
1.480000,-0.267143
1.481000,0.343815
1.482000,0.359089
1.483000,-0.750819
1.484000,-1.220493
1.485000,-1.272679
1.486000,-0.634991
1.487000,-0.749546
1.488000,-0.680813
1.489000,-0.029124
1.490000,0.739665
1.491000,0.753666
1.492000,-0.867919
1.493000,-1.707987
1.494000,-2.374950
1.495000,-3.147558
1.496000,-3.641416
1.497000,-4.182368
1.498000,-5.050438
1.499000,-5.088623
1.500000,-4.135274
1.501000,-2.145840
1.502000,0.226715
1.503000,1.581006
1.504000,2.921296
1.505000,3.287871
1.506000,3.538618
1.507000,3.215320
1.508000,2.820742
1.509000,3.019304
1.510000,2.558539
1.511000,1.092239
1.512000,-0.012577
1.513000,-1.295590
1.514000,-1.971463
1.515000,-2.224756
1.516000,-2.413135
1.517000,-3.423762
1.518000,-5.125535
1.519000,-7.181156
1.520000,-6.974957
1.521000,-5.350826
1.522000,-3.908710
1.523000,-2.484413
1.524000,-1.346503
1.525000,-0.624808
1.526000,-0.144952
1.527000,0.392183
1.528000,0.394728
1.529000,-0.063490
1.530000,-1.144123
1.531000,-2.332946
1.532000,-2.830623
1.533000,-3.002455
1.534000,-2.825532
1.535000,-1.865818
1.536000,-1.613797
1.537000,-1.421600
1.538000,-1.085573
1.539000,-0.781367
1.540000,-0.410973
1.541000,-0.136042
1.542000,0.042154
1.543000,-0.809369
1.544000,-1.944733
1.545000,-2.587512
1.546000,-3.010092
1.547000,-3.047004
1.548000,-2.707158
1.549000,-2.525144
1.550000,-3.038094
1.551000,-2.867535
1.552000,-2.604059
1.553000,-2.668973
1.554000,-2.611696
1.555000,-3.043185
1.556000,-2.677883
1.557000,-2.489504
1.558000,-2.367313
1.559000,-1.886183
1.560000,-1.388506
1.561000,-1.608706
1.562000,-1.046115
1.563000,-0.398245
1.564000,-0.407155
1.565000,-0.730453
1.566000,-0.648992
1.567000,-1.649437
1.568000,-2.941359
1.569000,-3.442854
1.570000,-3.537043
1.571000,-2.871353
1.572000,-1.579431
1.573000,-0.520436
1.574000,-0.021487
1.575000,0.970047
1.576000,1.097330
1.577000,0.721846
1.578000,-0.167863
1.579000,-0.384244
1.580000,-0.594261
1.581000,-0.470796
1.582000,-0.647719
1.583000,-2.049105
1.584000,-2.425863
1.585000,-1.850544
1.586000,-2.145840
1.587000,-2.009648
1.588000,-1.469968
1.589000,-0.797913
1.590000,0.222896
1.591000,1.404083
1.592000,1.962855
1.593000,2.081228
1.594000,0.788033
1.595000,-1.174671
1.596000,-1.952370
1.597000,-2.798802
1.598000,-3.474675
1.599000,-2.782255
1.600000,-1.804722
1.601000,-0.925196
1.602000,-0.049489
1.603000,0.406184
1.604000,0.189803
1.605000,-0.016396
1.606000,-0.792822
1.607000,-1.483969
1.608000,-1.991828
1.609000,-2.830623
1.610000,-3.530679
1.611000,-3.815793
1.612000,-4.526032
1.613000,-5.357190
1.614000,-5.623212
1.615000,-5.107716
1.616000,-4.130182
1.617000,-3.159013
1.618000,-2.331673
1.619000,-1.644345
1.620000,-0.899740
1.621000,-0.338422
1.622000,0.058701
1.623000,0.502919
1.624000,0.206349
1.625000,-0.850099
1.626000,-1.774174
1.627000,-2.444955
1.628000,-2.626970
1.629000,-2.643517
1.630000,-2.405498
1.631000,-2.280760
1.632000,-2.010920
1.633000,-1.478877
1.634000,-1.374505
1.635000,-0.997748
1.636000,-0.800459
1.637000,-1.361777
1.638000,-1.914185
1.639000,-2.577330
1.640000,-2.446228
1.641000,-2.397861
1.642000,-2.752980
1.643000,-3.852705
1.644000,-4.338926
1.645000,-3.586684
1.646000,-1.887456
1.647000,-0.242959
1.648000,0.622565
1.649000,1.271708
1.650000,1.272981
1.651000,0.712936
1.652000,0.398547
1.653000,0.472371
1.654000,0.985321
1.655000,1.356988
1.656000,1.098603
1.657000,0.425276
1.658000,-0.792822
1.659000,-1.612525
1.660000,-1.597251
1.661000,-1.602342
1.662000,-1.445784
1.663000,-1.387234
1.664000,-1.063935
1.665000,-0.568804
1.666000,-0.820824
1.667000,-1.345230
1.668000,-2.656245
1.669000,-4.019446
1.670000,-3.764880
1.671000,-3.470856
1.672000,-3.054641
1.673000,-3.100463
1.674000,-3.047004
1.675000,-3.590502
1.676000,-3.001182
1.677000,-1.828906
1.678000,0.585653
1.679000,2.656547
1.680000,1.579733
1.681000,0.216532
1.682000,-0.192046
1.683000,-0.142406
1.684000,-0.343513
1.685000,-0.729181
1.686000,-1.097028
1.687000,-1.627799
1.688000,-1.354140
1.689000,-1.341412
1.690000,-1.225584
1.691000,-1.021931
1.692000,-1.230676
1.693000,-2.321491
1.694000,-3.290114
1.695000,-3.492494
1.696000,-3.265931
1.697000,-3.725422
1.698000,-5.787407
1.699000,-6.944409
1.700000,-6.380546
1.701000,-4.812419
1.702000,-3.525588
1.703000,-2.870081
1.704000,-1.518335
1.705000,-0.660448
1.706000,-0.281144
1.707000,-0.913741
1.708000,-1.183581
1.709000,-0.385516
1.710000,0.002697
1.711000,0.098159
1.712000,0.282719
1.713000,0.421458
1.714000,0.690025
1.715000,0.914043
1.716000,0.718027
1.717000,0.294175
1.718000,0.233079
1.719000,-0.068582
1.720000,-1.494151
1.721000,-2.416953
1.722000,-3.538316
1.723000,-4.090725
1.724000,-3.761062
1.725000,-3.263385
1.726000,-2.611696
1.727000,-1.865818
1.728000,-1.024477
1.729000,-0.368970
1.730000,0.285265
1.731000,0.959865
1.732000,0.809671
1.733000,0.891132
1.734000,0.648022
1.735000,0.244534
1.736000,0.357816
1.737000,0.161800
1.738000,-0.524255
1.739000,-1.107211
1.740000,-1.252314
1.741000,-1.812359
1.742000,-2.924812
1.743000,-4.757687
1.744000,-6.366545
1.745000,-7.174792
1.746000,-9.339875
1.747000,-9.637718
1.748000,-7.885031
1.749000,-4.657134
1.750000,-1.623980
1.751000,0.586926
1.752000,2.212330
1.753000,3.062580
1.754000,2.734190
1.755000,1.307347
1.756000,0.944591
1.757000,1.603917
1.758000,0.048519
1.759000,-1.116121
1.760000,-1.676166
1.761000,-2.147113
1.762000,-1.510698
1.763000,-1.182308
1.764000,-0.511527
1.765000,-0.750819
1.766000,-0.008759
1.767000,0.846583
1.768000,0.528375
1.769000,0.038336
1.770000,-1.496697
1.771000,-2.031286
1.772000,-2.717341
1.773000,-2.840805
1.774000,-2.180207
1.775000,-1.315955
1.776000,-1.006657
1.777000,-0.071127
1.778000,-0.097857
1.779000,-0.511527
1.780000,-0.673176
1.781000,-0.478433
1.782000,-0.146224
1.783000,-0.044398
1.784000,-0.743182
1.785000,-1.397416
1.786000,-1.800903
1.787000,-1.995646
1.788000,-2.026194
1.789000,-2.567147
1.790000,-3.061005
1.791000,-3.110645
1.792000,-3.020275
1.793000,-2.918448
1.794000,-2.861171
1.795000,-3.314298
1.796000,-3.764880
1.797000,-3.870525
1.798000,-3.979988
1.799000,-3.684692
1.800000,-3.019002
1.801000,-1.948552
1.802000,-2.088563
1.803000,-3.814520
1.804000,-4.486575
1.805000,-5.885415
1.806000,-5.229907
1.807000,-3.239201
1.808000,-1.243404
1.809000,-0.488616
1.810000,-0.633718
1.811000,-0.290054
1.812000,0.765122
1.813000,2.156325
1.814000,1.947581
1.815000,1.712107
1.816000,1.799933
1.817000,1.766839
1.818000,1.626828
1.819000,1.537730
1.820000,1.620464
1.821000,1.188974
1.822000,0.608564
1.823000,-0.376607
1.824000,-0.725362
1.825000,-2.041468
1.826000,-2.567147
1.827000,-2.680429
1.828000,-2.189117
1.829000,-2.304944
1.830000,-3.038094
1.831000,-3.133556
1.832000,-2.721159
1.833000,-2.773345
1.834000,-2.649881
1.835000,-2.444955
1.836000,-2.395315
1.837000,-1.998192
1.838000,-1.814905
1.839000,-2.237484
1.840000,-2.009648
1.841000,-2.731342
1.842000,-2.926085
1.843000,-3.161559
1.844000,-3.047004
1.845000,-2.410589
1.846000,-1.308318
1.847000,-0.438975
1.848000,0.546195
1.849000,0.597108
1.850000,-0.239141
1.851000,-1.312137
1.852000,-2.158569
1.853000,-2.359676
1.854000,-2.229847
1.855000,-1.907821
1.856000,-1.749990
1.857000,-1.771628
1.858000,-2.030013
1.859000,-1.469968
1.860000,-1.458512
1.861000,-2.957906
1.862000,-4.568036
1.863000,-4.187460
1.864000,-3.433944
1.865000,-2.852261
1.866000,-2.354584
1.867000,-1.088119
1.868000,0.424003
1.869000,1.550458
1.870000,2.162689
1.871000,2.520354
1.872000,2.746918
1.873000,1.666285
1.874000,-0.217503
1.875000,-1.557793
1.876000,-1.733443
1.877000,-1.870909
1.878000,-1.772901
1.879000,-1.111030
1.880000,-1.113575
1.881000,-1.091937
1.882000,-0.873010
1.883000,-0.357514
1.884000,0.126161
1.885000,0.063793
1.886000,-0.511527
1.887000,-1.091937
1.888000,-2.346947
1.889000,-4.029629
1.890000,-4.518395
1.891000,-4.594765
1.892000,-3.860342
1.893000,-3.473402
1.894000,-2.772073
1.895000,-2.688066
1.896000,-2.630789
1.897000,-2.176388
1.898000,-1.473786
1.899000,-1.158124
1.900000,-1.130122
1.901000,-0.852645
1.902000,-0.862828
1.903000,-0.878102
1.904000,-0.912468
1.905000,-0.876829
1.906000,-1.371960
1.907000,-1.673620
1.908000,-1.566703
1.909000,-2.060561
1.910000,-2.857352
1.911000,-2.900628
1.912000,-3.155194
1.913000,-2.570966
1.914000,-2.238757
1.915000,-1.827633
1.916000,-1.579431
1.917000,-0.988838
1.918000,-1.632890
1.919000,-3.321935
1.920000,-3.736878
1.921000,-4.216735
1.922000,-4.024537
1.923000,-2.469139
1.924000,-0.043125
1.925000,1.284436
1.926000,1.020961
1.927000,1.068055
1.928000,1.090966
1.929000,0.929317
1.930000,0.812217
1.931000,1.204248
1.932000,1.101149
1.933000,-0.286236
1.934000,-0.839917
1.935000,-0.166590
1.936000,0.701480
1.937000,0.614928
1.938000,-0.965927
1.939000,-3.092826
1.940000,-3.968533
1.941000,-4.470028
1.942000,-4.682590
1.943000,-4.533669
1.944000,-4.318561
1.945000,-3.417397
1.946000,-2.696976
1.947000,-2.114020
1.948000,-1.273952
1.949000,-0.358787
1.950000,-0.386789
1.951000,-0.245505
1.952000,-0.334603
1.953000,-0.290054
1.954000,-0.656629
1.955000,-0.926469
1.956000,-1.131395
1.957000,-1.239585
1.958000,-1.466149
1.959000,-1.797085
1.960000,-1.667256
1.961000,-1.606160
1.962000,-1.387234
1.963000,-1.486514
1.964000,-1.956189
1.965000,-1.831451
1.966000,-1.966371
1.967000,-1.788175
1.968000,-1.282862
1.969000,-0.510254
1.970000,-0.399518
1.971000,-1.002839
1.972000,-1.999465
1.973000,-2.546782
1.974000,-3.174287
1.975000,-5.199359
1.976000,-5.759405
1.977000,-4.907881
1.978000,-4.049994
1.979000,-3.176833
1.980000,-1.961280
1.981000,-1.159397
1.982000,0.269991
1.983000,0.771486
1.984000,0.888586
1.985000,0.710390
1.986000,0.352725
1.987000,0.388364
1.988000,0.677297
1.989000,0.728210
1.990000,-0.063490
1.991000,-0.643901
1.992000,-0.800459
1.993000,-1.621434
1.994000,-2.275669
1.995000,-2.317672
1.996000,-3.061005
1.997000,-3.296479
1.998000,-3.169196
1.999000,-2.220937
2.000000,-0.960836
2.001000,-0.060945
2.002000,0.719300
2.003000,0.683661
2.004000,-0.071127
2.005000,-0.878102
2.006000,-1.793266
2.007000,-2.670246
2.008000,-2.654972
2.009000,-2.380041
2.010000,-1.998192
2.011000,-1.285407
2.012000,-0.871737
2.013000,-0.521709
2.014000,-0.535710
2.015000,-1.254859
2.016000,-0.824643
2.017000,-0.188228
2.018000,-0.329512
2.019000,-1.443238
2.020000,-2.049105
2.021000,-2.646063
2.022000,-3.431399
2.023000,-4.869696
2.024000,-4.859514
2.025000,-4.240918
2.026000,-3.731786
2.027000,-2.891719
2.028000,-1.767810
2.029000,-1.280316
2.030000,-1.217947
2.031000,-1.116121
2.032000,-1.197582
2.033000,-0.431338
2.034000,0.068884
2.035000,-0.337149
2.036000,-0.888284
2.037000,-1.845452
2.038000,-2.604059
2.039000,-3.622323
2.040000,-3.491222
2.041000,-2.933722
2.042000,-1.946006
2.043000,-0.827188
2.044000,-0.475887
2.045000,-0.151316
2.046000,0.916589
2.047000,1.430812
2.048000,0.962411
2.049000,0.880949
2.050000,0.217805
2.051000,-0.511527
2.052000,-1.803449
2.053000,-2.672792
2.054000,-3.230291
2.055000,-2.815349
2.056000,-2.839533
2.057000,-3.015183
2.058000,-2.660064
2.059000,-2.358403
2.060000,-1.697804
2.061000,-0.939197
2.062000,-0.114404
2.063000,-1.158124
2.064000,-2.758072
2.065000,-4.582037
2.066000,-3.918892
2.067000,-2.465321
2.068000,-0.846281
2.069000,1.132970
2.070000,1.994676
2.071000,1.199157
2.072000,0.310722
2.073000,0.353998
2.074000,0.348906
2.075000,0.277628
2.076000,-0.735545
2.077000,-2.518780
2.078000,-2.789892
2.079000,-2.605332
2.080000,-2.349493
2.081000,-1.561611
2.082000,-0.888284
2.083000,-0.440248
2.084000,-0.155134
2.085000,-0.183136
2.086000,-0.539529
2.087000,-0.979928
2.088000,-1.249768
2.089000,-1.286680
2.090000,-1.840361
2.091000,-2.472958
2.092000,-2.638426
2.093000,-3.085189
2.094000,-3.357574
2.095000,-3.708876
2.096000,-4.402568
2.097000,-5.555752
2.098000,-5.527750
2.099000,-5.142082
2.100000,-4.025810
2.101000,-2.518780
2.102000,-1.159397
2.103000,-0.234050
2.104000,0.520739
2.105000,1.167336
2.106000,0.902588
2.107000,-0.460613
2.108000,-1.363050
2.109000,-2.021103
2.110000,-2.791165
2.111000,-3.649053
2.112000,-4.062722
2.113000,-4.155639
2.114000,-4.630404
2.115000,-4.509486
2.116000,-5.037710
2.117000,-3.876889
2.118000,-2.556964
2.119000,-1.601069
2.120000,-0.134769
2.121000,1.873757
2.122000,3.797003
2.123000,5.032921
2.124000,5.528052
2.125000,4.625615
2.126000,3.244595
2.127000,1.012051
2.128000,-1.702895
2.129000,-3.691056
2.130000,-3.867979
2.131000,-3.665599
2.132000,-3.156467
2.133000,-2.334219
2.134000,-1.441965
2.135000,-0.791549
2.136000,0.015425
2.137000,0.902588
2.138000,0.728210
2.139000,0.417639
2.140000,0.273809
2.141000,-0.134769
2.142000,-0.618444
2.143000,-1.807268
2.144000,-2.738979
2.145000,-3.562500
2.146000,-3.993989
2.147000,-3.783973
2.148000,-3.500131
2.149000,-2.764436
2.150000,-2.429681
2.151000,-2.414407
2.152000,-2.036377
2.153000,-1.398689
2.154000,-1.188672
2.155000,-1.187399
2.156000,-1.257405
2.157000,-1.463603
2.158000,-1.321046
2.159000,-1.640527
2.160000,-2.143295
2.161000,-1.653255
2.162000,-2.303671
2.163000,-4.391112
2.164000,-5.033892
2.165000,-4.907881
2.166000,-4.696592
2.167000,-4.705501
2.168000,-3.567591
2.169000,-1.876000
2.170000,-0.310419
2.171000,1.090966
2.172000,1.732473
2.173000,2.391799
2.174000,1.727381
2.175000,0.944591
2.176000,2.265788
2.177000,2.081228
2.178000,0.724391
2.179000,-0.194592
2.180000,-0.572622
2.181000,-0.996475
2.182000,-1.377051
2.183000,-2.349493
2.184000,-4.660952
2.185000,-4.798418
2.186000,-4.270194
2.187000,-3.509041
2.188000,-2.803893
2.189000,-2.014739
2.190000,-1.906548
2.191000,-2.433500
2.192000,-2.834441
2.193000,-2.293489
2.194000,-1.118667
2.195000,-1.340139
2.196000,-1.324865
2.197000,-1.145396
2.198000,-1.453421
2.199000,-1.093210
2.200000,-1.454694
2.201000,-1.738535
2.202000,-1.349049
2.203000,-1.053752
2.204000,-0.890830
2.205000,-0.683359
2.206000,-0.496253
2.207000,-0.245505
2.208000,-0.352423
2.209000,-1.079209
2.210000,-2.086017
2.211000,-2.390224
2.212000,-3.622323
2.213000,-3.884526
2.214000,-3.528134
2.215000,-2.994818
2.216000,-2.088563
2.217000,-0.948107
2.218000,-0.083856
2.219000,0.108342
2.220000,0.468552
2.221000,0.706572
2.222000,0.315813
2.223000,0.119797
2.224000,-1.057571
2.225000,-2.965543
2.226000,-3.945622
2.227000,-4.103453
2.228000,-3.083916
2.229000,-2.096200
2.230000,-1.061389
2.231000,-0.922651
2.232000,-0.852645
2.233000,-0.805550
2.234000,-0.125859
2.235000,0.723118
2.236000,0.906406
2.237000,0.776577
2.238000,0.463461
2.239000,-0.128405
2.240000,-1.580704
2.241000,-3.509041
2.242000,-4.354200
2.243000,-4.105998
2.244000,-3.834886
2.245000,-4.149275
2.246000,-3.598139
2.247000,-2.516234
2.248000,-1.489060
2.249000,-0.680813
2.250000,-0.165317
2.251000,-0.115676
2.252000,-0.847554
2.253000,-0.931561
2.254000,-1.046115
2.255000,-1.321046
2.256000,-1.842907
2.257000,-2.369858
2.258000,-2.106383
2.259000,-1.597251
2.260000,-0.640082
2.261000,0.062520
2.262000,0.977684
2.263000,1.475361
2.264000,1.421902
2.265000,1.130424
2.266000,-0.206047
2.267000,-1.573067
2.268000,-2.395315
2.269000,-2.766981
2.270000,-2.782255
2.271000,-2.919721
2.272000,-3.939258
2.273000,-3.964714
2.274000,-4.067814
2.275000,-4.444571
2.276000,-4.303287
2.277000,-3.184470
2.278000,-2.570966
2.279000,-2.136931
2.280000,-2.023649
2.281000,-2.737706
2.282000,-3.379213
2.283000,-3.927802
2.284000,-3.433944
2.285000,-2.140749
2.286000,-2.084744
2.287000,-1.710532
2.288000,-0.552257
2.289000,-1.172125
2.290000,-2.125475
2.291000,-1.808540
2.292000,-0.604443
2.293000,0.653113
2.294000,-0.189501
2.295000,-1.209037
2.296000,-0.377879
2.297000,1.082057
2.298000,2.513990
2.299000,3.488978
2.300000,2.787649
2.301000,1.592461
2.302000,0.710390
2.303000,0.081612
2.304000,-0.946834
2.305000,-1.458512
2.306000,-1.483969
2.307000,-0.641355
2.308000,-0.237868
2.309000,-0.591715
2.310000,-0.992656
2.311000,-0.832280
2.312000,-1.392325
2.313000,-2.396588
2.314000,-3.591775
2.315000,-4.554035
2.316000,-4.748778
2.317000,-4.533669
2.318000,-3.951986
2.319000,-2.728796
2.320000,-1.491606
2.321000,-0.888284
2.322000,-0.494980
2.323000,0.118524
2.324000,0.239443
2.325000,-0.356241
2.326000,-1.626526
2.327000,-3.067369
2.328000,-4.985524
2.329000,-6.197258
2.330000,-5.915963
2.331000,-5.028800
2.332000,-3.818339
2.333000,-2.728796
2.334000,-1.515789
2.335000,-0.296418
2.336000,0.347634
2.337000,0.024335
2.338000,-0.152589
2.339000,0.574197
2.340000,-0.319329
2.341000,-0.356241
2.342000,-0.492434
2.343000,-1.084300
2.344000,-0.960836
2.345000,-0.747000
2.346000,-0.552257
2.347000,-0.895921
2.348000,-1.181035
2.349000,-1.592159
2.350000,-1.272679
2.351000,-0.792822
2.352000,-0.446612
2.353000,-0.160226
2.354000,-0.174227
2.355000,-0.918832
2.356000,-1.735989
2.357000,-2.172570
2.358000,-2.644790
2.359000,-2.499687
2.360000,-3.097917
2.361000,-4.076723
2.362000,-4.816238
2.363000,-4.685136
2.364000,-3.413579
2.365000,-2.017284
2.366000,-1.163216
2.367000,-1.361777
2.368000,-2.147113
2.369000,-2.522598
2.370000,-2.233666
2.371000,-1.592159
2.372000,-0.456795
2.373000,0.495282
2.374000,1.355715
2.375000,1.140607
2.376000,0.607291
2.377000,-0.265870
2.378000,-0.628627
2.379000,-1.009203
2.380000,-1.345230
2.381000,-2.246394
2.382000,-2.656245
2.383000,-2.464048
2.384000,-2.233666
2.385000,-3.370303
2.386000,-4.258738
2.387000,-4.518395
2.388000,-4.027083
2.389000,-2.135658
2.390000,-0.575168
2.391000,0.454551
2.392000,1.097330
2.393000,0.630202
2.394000,0.401092
2.395000,0.389637
2.396000,1.026052
2.397000,1.214431
2.398000,1.306075
2.399000,-0.654084
2.400000,-1.534882
2.401000,-1.629071
2.402000,-1.141577
2.403000,-0.876829
2.404000,-1.313410
2.405000,-1.967644
2.406000,-2.302398
2.407000,-2.520052
2.408000,-2.718614
2.409000,-2.797529
2.410000,-3.363939
2.411000,-2.861171
2.412000,-1.984191
2.413000,-1.289226
2.414000,-0.591715
2.415000,-0.109312
2.416000,0.072702
2.417000,-0.939197
2.418000,-1.385961
2.419000,-1.463603
2.420000,-0.792822
2.421000,-1.081754
2.422000,-1.303227
2.423000,-1.687622
2.424000,-3.492494
2.425000,-3.885799
2.426000,-4.067814
2.427000,-3.692329
2.428000,-3.333391
2.429000,-3.300297
2.430000,-3.332118
2.431000,-3.652871
2.432000,-3.566319
2.433000,-3.416125
2.434000,-2.723705
2.435000,-1.481423
2.436000,-0.094038
2.437000,0.718027
2.438000,0.504192
2.439000,-0.207320
2.440000,-1.695259
2.441000,-2.327855
2.442000,-2.546782
2.443000,-2.012193
2.444000,-1.545065
2.445000,-0.749546
2.446000,-0.470796
2.447000,-0.221321
2.448000,0.460915
2.449000,0.818581
2.450000,0.939500
2.451000,1.113877
2.452000,0.860584
2.453000,0.502919
2.454000,0.418912
2.455000,-0.424974
2.456000,-0.916287
2.457000,-1.744899
2.458000,-3.150103
2.459000,-4.412751
2.460000,-4.499303
2.461000,-3.958350
2.462000,-3.698693
2.463000,-2.971907
2.464000,-2.038923
2.465000,-1.191218
2.466000,0.311994
2.467000,0.917861
2.468000,0.090522
2.469000,-0.298964
2.470000,-0.452976
2.471000,-0.396972
2.472000,-0.699905
2.473000,-1.178490
2.474000,-1.412690
2.475000,-1.517062
2.476000,-1.812359
2.477000,-2.284579
2.478000,-2.607878
2.479000,-2.163660
2.480000,-1.673620
2.481000,-1.553974
2.482000,-3.105554
2.483000,-4.065268
2.484000,-4.228190
2.485000,-3.605776
2.486000,-2.396588
2.487000,-1.251041
2.488000,-0.893376
2.489000,-1.674893
2.490000,-2.397861
2.491000,-3.635051
2.492000,-4.242191
2.493000,-3.707603
2.494000,-2.726251
2.495000,-1.957461
2.496000,-1.581977
2.497000,-2.461502
2.498000,-1.692713
2.499000,-1.010476
2.500000,-0.088947
2.501000,1.173700
2.502000,2.587814
2.503000,2.631091
2.504000,1.864847
2.505000,0.617474
2.506000,-0.606989
2.507000,-1.878546
2.508000,-2.098746
2.509000,-2.159841
2.510000,-1.756354
2.511000,-0.859009
2.512000,-0.320602
2.513000,0.384546
2.514000,0.318359
2.515000,-0.176772
2.516000,-1.895093
2.517000,-2.633334
2.518000,-3.314298
2.519000,-3.444127
2.520000,-3.612140
2.521000,-3.129738
2.522000,-2.364767
2.523000,-1.592159
2.524000,-0.908650
2.525000,-0.315511
2.526000,-0.134769
2.527000,0.081612
2.528000,-0.279872
2.529000,-2.143295
2.530000,-4.398749
2.531000,-5.719947
2.532000,-5.460290
2.533000,-4.524760
2.534000,-3.212472
2.535000,-1.907821
2.536000,-0.548439
2.537000,0.072702
2.538000,0.766395
2.539000,1.082057
2.540000,1.531366
2.541000,2.156325
2.542000,2.463077
2.543000,1.472815
2.544000,0.833855
2.545000,0.267445
2.546000,-1.056298
2.547000,-1.965098
2.548000,-2.312581
2.549000,-2.581148
2.550000,-2.551873
2.551000,-2.747889
2.552000,-3.086462
2.553000,-3.591775
2.554000,-4.212916
2.555000,-5.150992
2.556000,-6.218896
2.557000,-5.971967
2.558000,-4.491666
2.559000,-2.595149
2.560000,-0.862828
2.561000,-0.054581
2.562000,0.697662
2.563000,1.110059
2.564000,0.655658
2.565000,0.558923
2.566000,0.225442
2.567000,-0.206047
2.568000,-0.475887
2.569000,-0.902285
2.570000,-1.165761
2.571000,-0.856464
2.572000,-0.744455
2.573000,-0.792822
2.574000,-1.093210
2.575000,-1.196309
2.576000,-2.212027
2.577000,-2.803893
2.578000,-3.680873
2.579000,-3.705057
2.580000,-3.164104
2.581000,-2.290943
2.582000,-1.361777
2.583000,-0.806823
2.584000,-0.594261
2.585000,-0.446612
2.586000,-0.718998
2.587000,-1.263769
2.588000,-1.468695
2.589000,-1.923095
2.590000,-2.722432
2.591000,-3.160286
2.592000,-3.865434
2.593000,-4.546398
2.594000,-5.489565
2.595000,-4.881152
2.596000,-3.418670
2.597000,-1.645618
2.598000,0.490191
2.599000,1.070601
2.600000,1.173700
2.601000,0.771486
2.602000,0.950955
2.603000,1.433358
2.604000,2.795286
2.605000,2.866564
2.606000,2.211057
2.607000,0.866948
2.608000,-0.694814
2.609000,-4.268921
2.610000,-7.028416
2.611000,-8.401800
2.612000,-8.226149
2.613000,-5.999970
2.614000,-3.179378
2.615000,-0.379152
2.616000,1.426993
2.617000,2.216148
2.618000,2.362523
2.619000,2.684549
2.620000,2.865291
2.621000,1.952672
2.622000,1.507182
2.623000,0.486372
2.624000,0.197440
2.625000,-0.018941
2.626000,-0.423701
2.627000,-0.852645
2.628000,-1.385961
2.629000,-1.814905
2.630000,-2.204390
2.631000,-2.419499
2.632000,-2.671519
2.633000,-2.862444
2.634000,-2.974453
2.635000,-2.890446
2.636000,-2.912084
2.637000,-2.811530
2.638000,-2.619333
2.639000,-2.699521
2.640000,-4.099634
2.641000,-5.128081
2.642000,-4.939702
2.643000,-4.672408
2.644000,-4.023265
2.645000,-3.138648
2.646000,-2.573511
2.647000,-2.541690
2.648000,-2.299853
2.649000,-2.063106
2.650000,-1.149214
2.651000,0.084158
2.652000,0.432913
2.653000,0.309449
2.654000,0.276355
2.655000,0.002697
2.656000,-0.236595
2.657000,-0.399518
2.658000,-0.543347
2.659000,-0.999020
2.660000,-1.290499
2.661000,-1.433056
2.662000,-1.657074
2.663000,-3.016456
2.664000,-6.430186
2.665000,-8.166326
2.666000,-7.535002
2.667000,-5.824319
2.668000,-4.261284
2.669000,-2.371131
2.670000,-0.178045
2.671000,0.732028
2.672000,0.313267
2.673000,-0.245505
2.674000,0.474917
2.675000,1.055327
2.676000,-0.414792
2.677000,-1.153033
2.678000,-0.671903
2.679000,0.662023
2.680000,1.509727
2.681000,1.859756
2.682000,2.484715
2.683000,2.778739
2.684000,2.521627
2.685000,1.462633
2.686000,0.925498
2.687000,0.187257
2.688000,-0.353696
2.689000,-0.613353
2.690000,-0.857736
2.691000,-2.139476
2.692000,-2.549327
2.693000,-2.602786
2.694000,-2.531508
2.695000,-2.059288
2.696000,-1.553974
2.697000,-1.175944
2.698000,-1.062662
2.699000,-1.481423
2.700000,-2.578603
2.701000,-3.687237
2.702000,-4.753869
2.703000,-4.663498
2.704000,-3.895982
2.705000,-3.470856
2.706000,-3.071188
2.707000,-2.483140
2.708000,-1.844180
2.709000,-1.201400
2.710000,-0.948107
2.711000,-1.019386
2.712000,-1.952370
2.713000,-2.998636
2.714000,-3.211199
2.715000,-2.900628
2.716000,-2.312581
2.717000,-1.977827
2.718000,-1.589614
2.719000,-1.749990
2.720000,-2.371131
2.721000,-3.166650
2.722000,-3.691056
2.723000,-2.985908
2.724000,-2.335492
2.725000,-1.710532
2.726000,-1.145396
2.727000,-0.869192
2.728000,-0.493707
2.729000,0.399820
2.730000,1.412992
2.731000,1.717199
2.732000,1.026052
2.733000,0.494009
2.734000,-0.072400
2.735000,-1.448329
2.736000,-3.673236
2.737000,-6.950774
2.738000,-7.893941
2.739000,-6.894769
2.740000,-4.636769
2.741000,-1.532336
2.742000,0.777850
2.743000,2.233968
2.744000,3.193681
2.745000,3.953561
2.746000,4.738897
2.747000,4.411780
2.748000,2.804196
2.749000,0.697662
2.750000,-0.531892
2.751000,-1.239585
2.752000,-2.209482
2.753000,-1.965098
2.754000,-1.383415
2.755000,-1.837815
2.756000,-2.401679
2.757000,-2.317672
2.758000,-2.296034
2.759000,-2.657518
2.760000,-2.630789
2.761000,-3.128465
2.762000,-4.517123
2.763000,-4.923155
2.764000,-4.652043
2.765000,-4.701683
2.766000,-5.074622
2.767000,-4.091997
2.768000,-2.964270
2.769000,-1.757627
2.770000,-1.055025
2.771000,-0.598079
2.772000,0.191076
2.773000,0.659477
2.774000,0.812217
2.775000,0.882222
2.776000,1.895395
2.777000,1.929761
2.778000,1.457541
2.779000,1.027325
2.780000,0.726937
2.781000,-0.390608
2.782000,-1.355413
2.783000,-1.960007
2.784000,-2.485686
2.785000,-2.909538
2.786000,-3.355029
2.787000,-4.188732
2.788000,-3.965987
2.789000,-3.677055
2.790000,-4.037266
2.791000,-4.767870
2.792000,-4.723321
2.793000,-3.855251
2.794000,-2.876445
2.795000,-1.527245
2.796000,-0.759728
2.797000,-0.492434
2.798000,-0.073673
2.799000,0.547468
2.800000,0.856766
2.801000,1.256434
2.802000,1.567005
2.803000,1.442267
2.804000,0.230533
2.805000,-0.365151
2.806000,-0.838644
2.807000,-2.273123
2.808000,-4.060177
2.809000,-4.252374
2.810000,-4.291832
2.811000,-3.711421
2.812000,-2.643517
2.813000,-1.662165
2.814000,-0.930288
2.815000,-0.326966
2.816000,0.066338
2.817000,-0.202229
2.818000,-0.358787
2.819000,-0.528073
2.820000,-0.697360
2.821000,-0.601898
2.822000,-1.277770
2.823000,-2.763163
2.824000,-3.458128
2.825000,-4.547671
2.826000,-5.083532
2.827000,-4.783144
2.828000,-3.983807
2.829000,-2.905720
2.830000,-2.106383
2.831000,-1.822541
2.832000,-1.676166
2.833000,-0.357514
2.834000,0.894951
2.835000,0.807125
2.836000,0.490191
2.837000,0.240716
2.838000,-0.278599
2.839000,-0.888284
2.840000,-2.065652
2.841000,-3.357574
2.842000,-3.932894
2.843000,-3.965987
2.844000,-4.114908
2.845000,-4.256192
2.846000,-3.996535
2.847000,-3.436490
2.848000,-2.960452
2.849000,-2.096200
2.850000,-0.960836
2.851000,0.194894
2.852000,1.539002
2.853000,2.847472
2.854000,3.114766
2.855000,1.976856
2.856000,0.597108
2.857000,-0.503890
2.858000,-1.149214
2.859000,-0.874283
2.860000,-0.329512
2.861000,0.213986
2.862000,-0.525528
2.863000,-1.109757
2.864000,-1.405053
2.865000,-1.098301
2.866000,-0.324421
2.867000,-0.076219
2.868000,0.375636
2.869000,0.378182
2.870000,0.160528
2.871000,-0.095311
2.872000,-0.730453
2.873000,-0.687177
2.874000,-0.953199
2.875000,-1.559066
2.876000,-2.120384
2.877000,-2.488232
2.878000,-2.691884
2.879000,-2.862444
2.880000,-3.318117
2.881000,-3.772517
2.882000,-4.920610
2.883000,-5.392830
2.884000,-5.098806
2.885000,-4.159457
2.886000,-3.002455
2.887000,-2.135658
2.888000,-1.419054
2.889000,-0.892103
2.890000,-0.797913
2.891000,-0.740636
2.892000,-0.502617
2.893000,-0.483524
2.894000,-0.796641
2.895000,-1.123758
2.896000,-1.375778
2.897000,-1.473786
2.898000,-1.466149
2.899000,-1.403780
2.900000,-1.641800
2.901000,-1.621434
2.902000,-1.631617
2.903000,-1.425419
2.904000,-2.297307
2.905000,-3.895982
2.906000,-5.322824
2.907000,-6.008879
2.908000,-5.702127
2.909000,-5.431015
2.910000,-5.562116
2.911000,-6.524375
2.912000,-6.015243
2.913000,-5.736494
2.914000,-6.027972
2.915000,-5.158629
2.916000,-2.186571
2.917000,1.376080
2.918000,2.306519
2.919000,3.639172
2.920000,5.419861
2.921000,6.058822
2.922000,6.128827
2.923000,6.109735
2.924000,5.505141
2.925000,3.809731
2.926000,1.883939
2.927000,0.537285
2.928000,-0.931561
2.929000,-1.990555
2.930000,-2.190389
2.931000,-1.607433
2.932000,-1.214129
2.933000,-1.044842
2.934000,-0.859009
2.935000,-0.993929
2.936000,-1.369414
2.937000,-1.911640
2.938000,-1.814905
2.939000,-1.555247
2.940000,-1.349049
2.941000,-1.487787
2.942000,-1.999465
2.943000,-2.668973
2.944000,-3.398305
2.945000,-3.671963
2.946000,-3.416125
2.947000,-3.334664
2.948000,-2.926085
2.949000,-2.619333
2.950000,-2.345675
2.951000,-2.334219
2.952000,-2.326582
2.953000,-2.373677
2.954000,-2.452592
2.955000,-1.173398
2.956000,-0.837371
2.957000,-1.192491
2.958000,-1.221766
2.959000,-2.187844
2.960000,-2.471685
2.961000,-2.895537
2.962000,-3.454310
2.963000,-3.291387
2.964000,-3.369030
2.965000,-3.912528
2.966000,-4.223099
2.967000,-4.060177
2.968000,-4.056358
2.969000,-2.937541
2.970000,-1.869636
2.971000,-0.951926
2.972000,0.157982
2.973000,0.819854
2.974000,0.352725
2.975000,-0.545893
2.976000,-0.646447
2.977000,-0.416064
2.978000,-0.547166
2.979000,-1.253586
2.980000,-1.202673
2.981000,-0.729181
2.982000,-0.396972
2.983000,-0.486070
2.984000,-0.082583
2.985000,0.168165
2.986000,0.197440
2.987000,-0.645174
2.988000,-3.565046
2.989000,-4.855695
2.990000,-4.839149
2.991000,-4.182368
2.992000,-3.181924
2.993000,-2.140749
2.994000,-1.411417
2.995000,-0.843735
2.996000,-0.100403
2.997000,0.844037
2.998000,1.611554
2.999000,2.184327
3.000000,2.524173
3.001000,2.326884
3.002000,1.503363
3.003000,0.631475
3.004000,0.072702
3.005000,-0.250596
3.006000,-1.160670
3.007000,-1.528518
3.008000,-2.401679
3.009000,-3.772517
3.010000,-4.672408
3.011000,-5.316460
3.012000,-5.297367
3.013000,-4.554035
3.014000,-3.846341
3.015000,-3.383031
3.016000,-2.693157
3.017000,-1.839088
3.018000,-1.718169
3.019000,-2.508597
3.020000,-2.731342
3.021000,-1.891274
3.022000,-1.231948
3.023000,-0.435157
3.024000,-0.165317
3.025000,-0.651538
3.026000,-0.941743
3.027000,-0.917559
3.028000,-0.346059
3.029000,-0.452976
3.030000,-0.268416
3.031000,-0.608262
3.032000,-1.678712
3.033000,-2.247667
3.034000,-2.009648
3.035000,-1.472513
3.036000,-1.665983
3.037000,-1.984191
3.038000,-2.260395
3.039000,-2.400406
3.040000,-1.911640
3.041000,-1.228130
3.042000,-0.600625
3.043000,-1.313410
3.044000,-2.204390
3.045000,-2.352039
3.046000,-1.315955
3.047000,-1.127576
3.048000,-0.943016
3.049000,-1.125031
3.050000,-1.006657
3.051000,-1.776720
3.052000,-2.303671
3.053000,-2.579875
3.054000,-2.442410
3.055000,-1.613797
3.056000,-0.557348
3.057000,0.040882
3.058000,-0.618444
3.059000,-1.198855
3.060000,-1.234494
3.061000,-1.001566
3.062000,-0.310419
3.063000,-0.400790
3.064000,-0.442794
3.065000,-0.358787
3.066000,-0.380425
3.067000,-1.326138
3.068000,-3.147558
3.069000,-3.954532
3.070000,-4.214189
3.071000,-4.037266
3.072000,-2.975725
3.073000,-1.716897
3.074000,-0.740636
3.075000,-0.255688
3.076000,0.108342
3.077000,0.365453
3.078000,0.379454
3.079000,-0.110585
3.080000,-0.608262
3.081000,-0.617172
3.082000,-0.801732
3.083000,-1.452148
3.084000,-2.990999
3.085000,-4.435661
3.086000,-4.734777
3.087000,-4.198915
3.088000,-3.590502
3.089000,-2.577330
3.090000,-1.499243
3.091000,-0.786458
3.092000,-0.470796
3.093000,-0.522982
3.094000,-0.132223
3.095000,0.614928
3.096000,0.393456
3.097000,-0.795368
3.098000,-1.321046
3.099000,-1.449602
3.100000,-1.079209
3.101000,-0.782639
3.102000,-0.682086
3.103000,-1.393598
3.104000,-3.887072
3.105000,-3.959623
3.106000,-3.484857
3.107000,-2.802621
3.108000,-1.527245
3.109000,-1.483969
3.110000,-1.182308
3.111000,-1.170853
3.112000,-3.193379
3.113000,-4.354200
3.114000,-4.850604
3.115000,-4.232009
3.116000,-2.960452
3.117000,-1.575612
3.118000,-0.031670
3.119000,1.181337
3.120000,1.913215
3.121000,2.059590
3.122000,2.366342
3.123000,2.237786
3.124000,2.362523
3.125000,1.956491
3.126000,1.172427
3.127000,0.226715
3.128000,-1.047388
3.129000,-1.946006
3.130000,-2.486959
3.131000,-2.960452
3.132000,-3.179378
3.133000,-3.131011
3.134000,-3.389395
3.135000,-4.352928
3.136000,-4.258738
3.137000,-3.899800
3.138000,-3.563773
3.139000,-3.315571
3.140000,-2.630789
3.141000,-1.576885
3.142000,-1.123758
3.143000,-0.847554
3.144000,-0.824643
3.145000,-1.015567
3.146000,-1.455966
3.147000,-3.183197
3.148000,-4.419115
3.149000,-4.219280
3.150000,-3.399578
3.151000,-2.537872
3.152000,-1.692713
3.153000,-1.758900
3.154000,-1.756354
3.155000,-1.197582
3.156000,0.168165
3.157000,1.321349
3.158000,1.995948
3.159000,1.676468
3.160000,-0.493707
3.161000,-2.176388
3.162000,-2.364767
3.163000,-1.867091
3.164000,-0.991384
3.165000,-0.273507
3.166000,0.546195
3.167000,1.181337
3.168000,0.533467
3.169000,0.000151
3.170000,-0.459341
3.171000,-1.584522
3.172000,-2.511143
3.173000,-3.293933
3.174000,-3.678328
3.175000,-3.053368
3.176000,-2.387678
3.177000,-2.005829
3.178000,-1.919277
3.179000,-2.733888
3.180000,-3.057187
3.181000,-2.511143
3.182000,-1.822541
3.183000,-1.918004
3.184000,-1.573067
3.185000,-1.021931
3.186000,-1.037205
3.187000,-1.070299
3.188000,-0.987565
3.189000,-0.890830
3.190000,-2.453865
3.191000,-3.043185
3.192000,-2.764436
3.193000,-1.813632
3.194000,-0.514072
3.195000,0.383273
3.196000,0.725664
3.197000,0.663295
3.198000,0.754939
3.199000,0.310722
3.200000,-0.123313
3.201000,-0.697360
3.202000,-1.797085
3.203000,-2.415680
3.204000,-3.239201
3.205000,-4.018173
3.206000,-4.248555
3.207000,-4.109817
3.208000,-3.646507
3.209000,-3.050822
3.210000,-2.536599
3.211000,-1.514517
3.212000,-0.794095
3.213000,-1.099574
3.214000,-2.063106
3.215000,-2.517507
3.216000,-1.450875
3.217000,-0.750819
3.218000,-0.804278
3.219000,-0.312965
3.220000,0.553832
3.221000,-0.185682
3.222000,-3.036821
3.223000,-5.614302
3.224000,-5.459017
3.225000,-4.153093
3.226000,-2.009648
3.227000,0.157982
3.228000,1.407901
3.229000,2.069773
3.230000,2.263243
3.231000,2.169053
3.232000,2.435075
3.233000,1.703198
3.234000,0.833855
3.235000,-1.534882
3.236000,-3.389395
3.237000,-4.244737
3.238000,-4.610039
3.239000,-4.627859
3.240000,-4.085633
3.241000,-2.807712
3.242000,-1.777992
3.243000,-1.534882
3.244000,-2.196754
3.245000,-2.500960
3.246000,-1.217947
3.247000,0.529648
3.248000,0.809671
3.249000,0.552559
3.250000,0.622565
3.251000,0.654386
3.252000,0.212714
3.253000,-0.184409
3.254000,-1.435601
3.255000,-2.861171
3.256000,-4.210371
3.257000,-4.279103
3.258000,-4.317288
3.259000,-4.293105
3.260000,-3.358847
3.261000,-2.411862
3.262000,-1.612525
3.263000,-1.259951
3.264000,-0.959563
3.265000,-0.664266
3.266000,-0.421156
3.267000,-0.456795
3.268000,-0.338422
3.269000,0.369272
3.270000,0.375636
3.271000,0.238170
3.272000,0.282719
3.273000,0.061247
3.274000,-0.221321
3.275000,-0.671903
3.276000,-1.587068
3.277000,-2.574784
3.278000,-2.875172
3.279000,-2.724978
3.280000,-2.695703
3.281000,-2.493323
3.282000,-2.740252
3.283000,-3.428853
3.284000,-3.563773
3.285000,-4.030902
3.286000,-3.785245
3.287000,-3.296479
3.288000,-2.773345
3.289000,-2.091109
3.290000,-1.435601
3.291000,-1.419054
3.292000,-2.209482
3.293000,-1.560339
3.294000,-0.514072
3.295000,-1.781811
3.296000,-2.063106
3.297000,-2.817895
3.298000,-4.042357
3.299000,-3.847614
3.300000,-2.341856
3.301000,-0.408427
3.302000,1.162245
3.303000,1.247524
3.304000,-0.208593
3.305000,-1.476332
3.306000,-1.907821
3.307000,-2.019830
3.308000,-1.032114
3.309000,-0.776275
3.310000,-0.879374
3.311000,-0.442794
3.312000,-0.090220
3.313000,-0.422429
3.314000,-0.458068
3.315000,-0.734272
3.316000,-0.538256
3.317000,-0.512799
3.318000,-0.687177
3.319000,-0.304055
3.320000,-0.136042
3.321000,0.149072
3.322000,-1.001566
3.323000,-2.708431
3.324000,-3.249384
3.325000,-2.947723
3.326000,-1.583249
3.327000,-0.202229
3.328000,-0.818279
3.329000,-1.369414
3.330000,-1.389779
3.331000,-1.527245
3.332000,-1.286680
3.333000,-0.130950
3.334000,0.178347
3.335000,-0.507708
3.336000,-1.308318
3.337000,-2.016012
3.338000,-2.679156
3.339000,-3.008819
3.340000,-2.884082
3.341000,-2.604059
3.342000,-2.005829
3.343000,-1.323592
3.344000,-1.123758
3.345000,-0.934106
3.346000,-0.694814
3.347000,-1.131395
3.348000,-1.300681
3.349000,-1.290499
3.350000,-1.637981
3.351000,-2.666428
3.352000,-2.842078
3.353000,-2.786074
3.354000,-2.792438
3.355000,-2.746616
3.356000,-3.341028
3.357000,-2.550600
3.358000,-1.921822
3.359000,-1.649437
3.360000,-1.485242
3.361000,-0.883193
3.362000,-0.865373
3.363000,-0.337149
3.364000,-0.552257
3.365000,-1.006657
3.366000,-1.408872
3.367000,-1.174671
3.368000,-0.687177
3.369000,-0.441521
3.370000,-1.035933
3.371000,-1.560339
3.372000,-1.751263
3.373000,-1.691440
3.374000,-2.927358
3.375000,-3.227746
3.376000,-2.616787
3.377000,-2.497141
3.378000,-1.939642
3.379000,-1.035933
3.380000,-0.433884
3.381000,-0.108040
3.382000,0.048519
3.383000,-0.153861
3.384000,0.072702
3.385000,-0.104221
3.386000,-0.951926
3.387000,-1.477605
3.388000,-2.133112
3.389000,-3.134829
3.390000,-3.380485
3.391000,-3.422489
3.392000,-3.786518
3.393000,-3.474675
3.394000,-2.716068
3.395000,-3.115737
3.396000,-3.348665
3.397000,-4.039811
3.398000,-4.065268
3.399000,-3.204835
3.400000,-1.877273
3.401000,-1.170853
3.402000,-0.394426
3.403000,-0.062218
3.404000,0.348906
3.405000,1.071874
3.406000,1.984493
3.407000,1.710835
3.408000,1.237342
3.409000,0.771486
3.410000,0.543649
3.411000,0.500373
3.412000,0.486372
3.413000,0.136344
3.414000,-0.312965
3.415000,-1.424146
3.416000,-2.220937
3.417000,-3.008819
3.418000,-2.913357
3.419000,-2.386405
3.420000,-2.400406
3.421000,-3.097917
3.422000,-4.654588
3.423000,-5.089896
3.424000,-4.630404
3.425000,-4.546398
3.426000,-4.235827
3.427000,-3.295206
3.428000,-2.404225
3.429000,-1.468695
3.430000,-0.557348
3.431000,0.463461
3.432000,1.364625
3.433000,1.905578
3.434000,1.605190
3.435000,1.232250
3.436000,1.950127
3.437000,1.437176
3.438000,0.252171
3.439000,-0.511527
3.440000,-1.155579
3.441000,-1.491606
3.442000,-1.711805
3.443000,-2.275669
3.444000,-3.047004
3.445000,-3.496313
3.446000,-3.808156
3.447000,-3.983807
3.448000,-4.145456
3.449000,-4.307106
3.450000,-4.097089
3.451000,-4.327471
3.452000,-4.585855
3.453000,-3.993989
3.454000,-2.551873
3.455000,-0.725362
3.456000,-0.386789
3.457000,-1.351594
3.458000,-2.191662
3.459000,-1.447057
3.460000,-0.223867
3.461000,1.322621
3.462000,3.088037
3.463000,3.611170
3.464000,3.432974
3.465000,2.521627
3.466000,0.817308
3.467000,-0.319329
3.468000,-0.759728
3.469000,-2.517507
3.470000,-3.881980
3.471000,-4.035993
3.472000,-3.861615
3.473000,-3.072461
3.474000,-2.187844
3.475000,-2.965543
3.476000,-3.804338
3.477000,-3.955805
3.478000,-4.024537
3.479000,-3.170468
3.480000,-2.322764
3.481000,-2.068198
3.482000,-1.621434
3.483000,-1.515789
3.484000,-0.958290
3.485000,-0.372788
3.486000,-0.284963
3.487000,-0.113131
3.488000,-0.363878
3.489000,-0.282417
3.490000,0.007788
3.491000,0.175802
3.492000,0.630202
3.493000,0.602200
3.494000,-0.310419
3.495000,-0.831007
3.496000,-0.715179
3.497000,-1.035933
3.498000,-1.873455
3.499000,-2.798802
3.500000,-3.324481
3.501000,-2.996091
3.502000,-2.484413
3.503000,-1.844180
3.504000,-1.342685
3.505000,-0.895921
3.506000,-1.130122
3.507000,-1.785629
3.508000,-2.224756
3.509000,-2.760617
3.510000,-2.974453
3.511000,-2.824259
3.512000,-2.456411
3.513000,-2.210755
3.514000,-1.765264
3.515000,-1.739808
3.516000,-1.636708
3.517000,-1.267588
3.518000,-1.038478
3.519000,-1.665983
3.520000,-2.397861
3.521000,-2.848442
3.522000,-2.913357
3.523000,-2.126748
3.524000,-0.850099
3.525000,-1.035933
3.526000,-1.175944
3.527000,-1.891274
3.528000,-2.245121
3.529000,-2.014739
3.530000,-1.598523
3.531000,-2.763163
3.532000,-4.461118
3.533000,-5.170084
3.534000,-4.654588
3.535000,-3.833613
3.536000,-3.725422
3.537000,-2.836987
3.538000,-1.584522
3.539000,-0.292600
3.540000,-0.032943
3.541000,0.696389
3.542000,2.498716
3.543000,3.051125
3.544000,1.495726
3.545000,0.394728
3.546000,0.735847
3.547000,1.275527
3.548000,1.962855
3.549000,1.985766
3.550000,1.327713
3.551000,-0.687177
3.552000,-1.897638
3.553000,-3.367757
3.554000,-5.208269
3.555000,-5.121717
3.556000,-4.961340
3.557000,-4.243464
3.558000,-3.085189
3.559000,-1.800903
3.560000,-0.526801
3.561000,0.676024
3.562000,1.409174
3.563000,-0.314238
3.564000,-1.080482
3.565000,-1.440693
3.566000,-0.967200
3.567000,-0.732999
3.568000,-0.712634
3.569000,-0.492434
3.570000,-0.281144
3.571000,-0.264598
3.572000,-0.698633
3.573000,-0.921378
3.574000,-0.589169
3.575000,-0.678267
3.576000,-0.557348
3.577000,-1.235767
3.578000,-2.139476
3.579000,-3.358847
3.580000,-4.335108
3.581000,-4.016900
3.582000,-3.349937
3.583000,-2.793711
3.584000,-2.773345
3.585000,-2.312581
3.586000,-1.952370
3.587000,-1.397416
3.588000,-0.726635
3.589000,-0.648992
3.590000,-0.302782
3.591000,0.132525
3.592000,0.281446
3.593000,0.079067
3.594000,-0.106767
3.595000,-0.407155
3.596000,-0.740636
3.597000,-0.795368
3.598000,-1.010476
3.599000,-1.117394
3.600000,-2.231120
3.601000,-3.263385
3.602000,-3.327027
3.603000,-2.945178
3.604000,-2.853534
3.605000,-3.463219
3.606000,-4.060177
3.607000,-3.990171
3.608000,-3.665599
3.609000,-3.325754
3.610000,-2.635880
3.611000,-1.934551
3.612000,-1.206492
3.613000,-0.889557
3.614000,-1.023204
3.615000,-0.827188
3.616000,-0.965927
3.617000,-1.763991
3.618000,-3.026639
3.619000,-3.825976
3.620000,-3.711421
3.621000,-3.086462
3.622000,-2.494596
3.623000,-1.985464
3.624000,-1.107211
3.625000,-0.389335
3.626000,-0.363878
3.627000,-0.174227
3.628000,0.412548
3.629000,1.242433
3.630000,0.650567
3.631000,-0.920105
3.632000,-1.155579
3.633000,-0.703724
3.634000,0.072702
3.635000,0.252171
3.636000,-0.212412
3.637000,-0.888284
3.638000,-1.603615
3.639000,-2.178934
3.640000,-2.321491
3.641000,-2.156023
3.642000,-1.965098
3.643000,-1.312137
3.644000,-0.600625
3.645000,-0.530619
3.646000,-0.352423
3.647000,-0.300237
3.648000,-0.958290
3.649000,-1.499243
3.650000,-1.672348
3.651000,-1.184854
3.652000,-1.346503
3.653000,-1.794539
3.654000,-1.949824
3.655000,-1.649437
3.656000,-1.944733
3.657000,-4.233281
3.658000,-4.827693
3.659000,-4.056358
3.660000,-2.882809
3.661000,-1.939642
3.662000,-1.534882
3.663000,-2.306217
3.664000,-2.611696
3.665000,-2.355857
3.666000,-1.825087
3.667000,-1.268860
3.668000,-1.611252
3.669000,-1.424146
3.670000,-1.482696
3.671000,-1.751263
3.672000,-2.143295
3.673000,-1.870909
3.674000,-1.993101
3.675000,-1.865818
3.676000,-1.216674
3.677000,-0.116949
3.678000,1.082057
3.679000,2.054499
3.680000,2.017587
3.681000,1.411719
3.682000,0.933135
3.683000,0.076521
3.684000,-0.053308
3.685000,-0.319329
3.686000,-1.132668
3.687000,-1.559066
3.688000,-2.262941
3.689000,-2.908265
3.690000,-2.824259
3.691000,-2.506051
3.692000,-2.490777
3.693000,-2.110201
3.694000,-1.939642
3.695000,-1.948552
3.696000,-2.558237
3.697000,-3.146285
3.698000,-3.072461
3.699000,-2.929904
3.700000,-2.681702
3.701000,-2.110201
3.702000,-1.879819
3.703000,-1.406326
3.704000,-0.993929
3.705000,0.113433
3.706000,0.418912
3.707000,0.594563
3.708000,-0.262052
3.709000,-1.671075
3.710000,-2.475503
3.711000,-2.770800
3.712000,-4.538761
3.713000,-4.658407
3.714000,-3.999081
3.715000,-2.738979
3.716000,-1.533609
3.717000,-0.628627
3.718000,-0.153861
3.719000,0.424003
3.720000,0.196167
3.721000,-1.300681
3.722000,-2.457684
3.723000,-3.529407
3.724000,-3.993989
3.725000,-3.192107
3.726000,-2.643517
3.727000,-2.228574
3.728000,-1.696531
3.729000,-2.537872
3.730000,-1.751263
3.731000,-0.530619
3.732000,-1.009203
3.733000,-1.113575
3.734000,-1.663438
3.735000,-2.546782
3.736000,-2.112747
3.737000,-1.271406
3.738000,0.091795
3.739000,1.630646
3.740000,1.936125
3.741000,1.736291
3.742000,1.581006
3.743000,1.251343
3.744000,1.261526
3.745000,0.406184
3.746000,-0.524255
3.747000,-1.743626
3.748000,-2.526416
3.749000,-1.932005
3.750000,-1.349049
3.751000,-1.347776
3.752000,-1.210310
3.753000,-0.993929
3.754000,-1.515789
3.755000,-2.318945
3.756000,-2.862444
3.757000,-2.413135
3.758000,-1.700350
3.759000,-2.208209
3.760000,-2.680429
3.761000,-2.409316
3.762000,-2.380041
3.763000,-2.138203
3.764000,-1.654528
3.765000,-1.630344
3.766000,-1.705441
3.767000,-1.713078
3.768000,-1.723261
3.769000,-1.878546
3.770000,-1.819996
3.771000,-1.107211
3.772000,-0.946834
3.773000,-1.237040
3.774000,-1.359231
3.775000,-1.476332
3.776000,-1.805995
3.777000,-2.802621
3.778000,-3.953259
3.779000,-4.416569
3.780000,-4.778053
3.781000,-4.538761
3.782000,-3.787791
3.783000,-3.003728
3.784000,-2.350766
3.785000,-1.702895
3.786000,-1.018113
3.787000,-1.343957
3.788000,-0.734272
3.789000,0.462188
3.790000,1.174973
3.791000,1.383717
3.792000,1.383717
3.793000,0.785487
3.794000,0.367999
3.795000,-0.221321
3.796000,-1.690167
3.797000,-3.234110
3.798000,-3.689783
3.799000,-4.877333
3.800000,-5.885415
3.801000,-7.106059
3.802000,-6.902406
3.803000,-5.395375
3.804000,-3.540862
3.805000,-2.121657
3.806000,0.010334
3.807000,1.880121
3.808000,2.119413
3.809000,1.754111
3.810000,0.583107
3.811000,0.093068
3.812000,0.070157
3.813000,0.048519
3.814000,0.796943
3.815000,1.405355
3.816000,2.212330
3.817000,2.583996
3.818000,2.207238
3.819000,1.997221
3.820000,1.690469
3.821000,0.760031
3.822000,0.086703
3.823000,-2.651154
3.824000,-4.694046
3.825000,-5.273184
3.826000,-5.149719
3.827000,-4.533669
3.828000,-3.635051
3.829000,-3.050822
3.830000,-2.172570
3.831000,-1.836543
3.832000,-1.580704
3.833000,-1.524699
3.834000,-0.969745
3.835000,-1.016840
3.836000,-0.960836
3.837000,-0.884466
3.838000,-1.072845
3.839000,-1.007930
3.840000,-0.935379
3.841000,-1.368141
3.842000,-1.331229
3.843000,-1.471240
3.844000,-1.728352
3.845000,-1.981645
3.846000,-1.790721
3.847000,-1.163216
3.848000,-0.595533
3.849000,-1.006657
3.850000,-3.769971
3.851000,-5.033892
3.852000,-4.858241
3.853000,-4.016900
3.854000,-2.686793
3.855000,-1.351594
3.856000,-0.282417
3.857000,0.464734
3.858000,0.627656
3.859000,0.226715
3.860000,0.065065
3.861000,0.226715
3.862000,-0.307874
3.863000,-0.497525
3.864000,-0.794095
3.865000,-1.943460
3.866000,-2.406770
3.867000,-2.592604
3.868000,-4.038539
3.869000,-5.243909
3.870000,-5.002071
3.871000,-3.833613
3.872000,-2.777164
3.873000,-2.092381
3.874000,-1.557793
3.875000,-1.981645
3.876000,-2.074562
3.877000,-1.822541
3.878000,-0.906104
3.879000,-0.329512
3.880000,0.140162
3.881000,-0.095311
3.882000,-0.782639
3.883000,-1.018113
3.884000,-1.254859
3.885000,-1.472513
3.886000,-1.165761
3.887000,-0.634991
3.888000,-0.703724
3.889000,-0.943016
3.890000,-0.940470
3.891000,-0.580259
3.892000,0.038336
3.893000,0.233079
3.894000,-0.197138
3.895000,-0.871737
3.896000,-1.304500
3.897000,-1.345230
3.898000,-1.210310
3.899000,-0.850099
3.900000,-1.060116
3.901000,-0.976110
3.902000,-1.651982
3.903000,-3.347392
3.904000,-4.694046
3.905000,-4.938429
3.906000,-4.049994
3.907000,-3.697420
3.908000,-3.862888
3.909000,-3.423762
3.910000,-1.956189
3.911000,-0.893376
3.912000,-0.090220
3.913000,1.238615
3.914000,2.203420
3.915000,1.598826
3.916000,0.527103
3.917000,-0.391881
3.918000,-0.178045
3.919000,-0.129678
3.920000,-0.941743
3.921000,-0.946834
3.922000,-0.754637
3.923000,-0.528073
3.924000,-0.601898
3.925000,-1.307045
3.926000,-4.574400
3.927000,-6.492555
3.928000,-7.619009
3.929000,-6.532012
3.930000,-4.635496
3.931000,-3.181924
3.932000,-1.805995
3.933000,-0.604443
3.934000,0.348906
3.935000,0.690025
3.936000,0.852947
3.937000,1.055327
3.938000,1.201703
3.939000,0.784214
3.940000,-0.576441
3.941000,-1.901457
3.942000,-2.395315
3.943000,-2.493323
3.944000,-2.536599
3.945000,-2.489504
3.946000,-4.260011
3.947000,-4.784417
3.948000,-4.007991
3.949000,-2.513688
3.950000,-0.832280
3.951000,0.663295
3.952000,1.264071
3.953000,1.564459
3.954000,1.527547
3.955000,1.045144
3.956000,-0.209866
3.957000,-1.196309
3.958000,-2.618060
3.959000,-3.543408
3.960000,-4.406386
3.961000,-4.155639
3.962000,-3.222654
3.963000,-2.289670
3.964000,-1.693986
3.965000,-1.272679
3.966000,-0.623536
3.967000,-0.610807
3.968000,-1.119939
3.969000,-1.336320
3.970000,-2.442410
3.971000,-3.067369
3.972000,-2.462775
3.973000,-1.314682
3.974000,-0.282417
3.975000,0.034517
3.976000,0.565288
3.977000,1.028598
3.978000,1.340441
3.979000,0.859311
3.980000,0.648022
3.981000,0.390910
3.982000,-0.326966
3.983000,-0.949380
3.984000,-1.836543
3.985000,-2.201845
3.986000,-2.978271
3.987000,-2.493323
3.988000,-1.802176
3.989000,-1.303227
3.990000,-1.308318
3.991000,-1.542519
3.992000,-1.946006
3.993000,-2.541690
3.994000,-3.629960
3.995000,-4.727140
3.996000,-5.973240
3.997000,-5.723765
3.998000,-4.755142
3.999000,-3.475948
4.000000,-2.142022
4.001000,-1.366868
4.002000,-0.848827
4.003000,-0.584078
4.004000,-0.604443
4.005000,-0.470796
4.006000,0.121070
4.007000,0.819854
4.008000,0.746029
4.009000,-0.021487
4.010000,-0.940470
4.011000,-1.809813
4.012000,-3.693602
4.013000,-4.531124
4.014000,-4.088179
4.015000,-4.002899
4.016000,-3.108100
4.017000,-1.548883
4.018000,-0.351150
4.019000,0.774032
4.020000,1.633192
4.021000,1.993403
4.022000,1.942490
4.023000,1.988311
4.024000,1.428266
4.025000,0.553832
4.026000,-0.227686
4.027000,-0.852645
4.028000,-1.650709
4.029000,-2.548055
4.030000,-3.239201
4.031000,-3.439036
4.032000,-3.003728
4.033000,-2.382587
4.034000,-1.842907
4.035000,-1.509425
4.036000,-0.892103
4.037000,-0.697360
4.038000,-0.899740
4.039000,-0.683359
4.040000,-1.038478
4.041000,-2.171297
4.042000,-3.604503
4.043000,-4.061449
4.044000,-3.920165
4.045000,-3.542135
4.046000,-3.603231
4.047000,-3.411033
4.048000,-3.113191
4.049000,-2.322764
4.050000,-2.035104
4.051000,-1.557793
4.052000,-1.385961
4.053000,-1.285407
4.054000,-1.105938
4.055000,-0.661721
4.056000,0.066338
4.057000,-0.090220
4.058000,-0.307874
4.059000,-0.150043
4.060000,-0.763547
4.061000,-1.066480
4.062000,-1.029568
4.063000,-0.860282
4.064000,-0.500071
4.065000,-0.348604
4.066000,-1.588341
4.067000,-1.898911
4.068000,-1.217947
4.069000,-0.477160
4.070000,0.226715
4.071000,0.376909
4.072000,0.096886
4.073000,-1.070299
4.074000,-2.271850
4.075000,-3.279932
4.076000,-4.529851
4.077000,-5.436106
4.078000,-4.874788
4.079000,-4.313470
4.080000,-3.481039
4.081000,-2.695703
4.082000,-2.191662
4.083000,-1.944733
4.084000,-1.713078
4.085000,-2.261668
4.086000,-2.213300
4.087000,-1.765264
4.088000,-1.309591
4.089000,-0.521709
4.090000,-0.164044
4.091000,0.104523
4.092000,0.481281
4.093000,0.556378
4.094000,0.627656
4.095000,0.518193
4.096000,0.313267
4.097000,-1.354140
4.098000,-2.990999
4.099000,-3.183197
4.100000,-4.896426
4.101000,-5.433560
4.102000,-4.937156
4.103000,-3.665599
4.104000,-3.035548
4.105000,-1.872182
4.106000,-0.520436
4.107000,-0.026578
4.108000,0.779123
4.109000,1.442267
4.110000,1.258980
4.111000,0.240716
4.112000,0.263627
4.113000,-0.384244
4.114000,-0.379152
4.115000,-0.338422
4.116000,0.085431
4.117000,0.539831
4.118000,0.644203
4.119000,0.016698
4.120000,-0.613353
4.121000,-1.139032
4.122000,-1.891274
4.123000,-2.668973
4.124000,-3.870525
4.125000,-3.929075
4.126000,-3.198471
4.127000,-2.064379
4.128000,-0.458068
4.129000,0.163073
4.130000,-0.018941
4.131000,-1.532336
4.132000,-2.100018
4.133000,-2.478049
4.134000,-2.031286
4.135000,-1.164488
4.136000,-0.805550
4.137000,-0.469523
4.138000,-0.379152
4.139000,-0.699905
4.140000,-0.808096
4.141000,-0.799186
4.142000,-1.044842
4.143000,-1.574340
4.144000,-2.354584
4.145000,-3.865434
4.146000,-4.590947
4.147000,-4.834057
4.148000,-4.584583
4.149000,-3.797974
4.150000,-2.761890
4.151000,-1.621434
4.152000,-0.888284
4.153000,-0.334603
4.154000,-0.150043
4.155000,-1.282862
4.156000,-1.874728
4.157000,-2.094927
4.158000,-2.248940
4.159000,-3.155194
4.160000,-4.289286
4.161000,-4.687682
4.162000,-4.597311
4.163000,-4.532397
4.164000,-3.688510
4.165000,-2.810258
4.166000,-0.832280
4.167000,0.995504
4.168000,2.277244
4.169000,2.165235
4.170000,1.262798
4.171000,0.282719
4.172000,-2.495869
4.173000,-4.277831
4.174000,-4.196369
4.175000,-2.988454
4.176000,-2.520052
4.177000,-1.284134
4.178000,-0.198410
4.179000,-0.081310
4.180000,-0.169135
4.181000,0.189803
4.182000,0.645476
4.183000,1.666285
4.184000,2.422347
4.185000,3.170771
4.186000,3.516980
4.187000,2.834743
4.188000,1.555549
4.189000,0.768940
4.190000,0.492736
4.191000,0.229260
4.192000,-0.522982
4.193000,-0.974837
4.194000,-1.547610
4.195000,-2.329128
4.196000,-2.952815
4.197000,-3.213745
4.198000,-3.377940
4.199000,-3.604503
4.200000,-3.951986
4.201000,-4.084360
4.202000,-3.923984
4.203000,-3.729241
4.204000,-3.567591
4.205000,-2.978271
4.206000,-3.109373
4.207000,-3.031730
4.208000,-2.497141
4.209000,-2.201845
4.210000,-2.675338
4.211000,-2.310035
4.212000,-2.256577
4.213000,-2.334219
4.214000,-2.658791
4.215000,-2.950269
4.216000,-2.616787
4.217000,-1.819996
4.218000,-1.284134
4.219000,-0.887011
4.220000,-0.776275
4.221000,-3.047004
4.222000,-3.901073
4.223000,-3.255748
4.224000,-2.458956
4.225000,-3.033003
4.226000,-3.628687
4.227000,-2.973180
4.228000,-2.186571
4.229000,-1.154306
4.230000,-0.623536
4.231000,0.080339
4.232000,0.611109
4.233000,0.990413
4.234000,1.316257
4.235000,0.832582
4.236000,0.702753
4.237000,0.229260
4.238000,-0.059672
4.239000,-0.461886
4.240000,-0.642628
4.241000,-0.375334
4.242000,-1.153033
4.243000,-1.361777
4.244000,-2.226029
4.245000,-2.097473
4.246000,-1.939642
4.247000,-1.751263
4.248000,-1.541246
4.249000,-1.272679
4.250000,-0.613353
4.251000,0.056156
4.252000,0.341269
4.253000,-0.582805
4.254000,-2.885355
4.255000,-3.990171
4.256000,-5.504839
4.257000,-6.330905
4.258000,-5.386465
4.259000,-4.354200
4.260000,-2.550600
4.261000,-0.622263
4.262000,0.709117
4.263000,1.023506
4.264000,0.971320
4.265000,2.034133
4.266000,2.752009
4.267000,2.035406
4.268000,0.987867
4.269000,0.739665
4.270000,0.174529
4.271000,-0.349877
4.272000,-1.312137
4.273000,-1.976554
4.274000,-2.363494
4.275000,-4.191278
4.276000,-4.284195
4.277000,-3.845068
4.278000,-2.975725
4.279000,-1.776720
4.280000,-0.981201
4.281000,-0.360060
4.282000,-0.315511
4.283000,-0.613353
4.284000,-0.603170
4.285000,-0.968473
4.286000,-1.635435
4.287000,-2.411862
4.288000,-3.749606
4.289000,-4.733504
4.290000,-5.336825
4.291000,-5.791225
4.292000,-6.683479
4.293000,-5.775951
4.294000,-4.253647
4.295000,-2.266759
4.296000,-0.281144
4.297000,0.826218
4.298000,1.871211
4.299000,2.142324
4.300000,1.793568
4.301000,1.582279
4.302000,1.232250
4.303000,0.749848
4.304000,0.696389
4.305000,0.346361
4.306000,0.024335
4.307000,-0.468250
4.308000,-0.622263
4.309000,-1.480150
4.310000,-1.980372
4.311000,-2.441137
4.312000,-3.318117
4.313000,-4.156912
4.314000,-4.254920
4.315000,-3.533225
4.316000,-2.998636
4.317000,-3.342301
4.318000,-3.523042
4.319000,-2.976998
4.320000,-3.108100
4.321000,-2.298580
4.322000,-1.109757
4.323000,-0.090220
4.324000,0.341269
4.325000,0.594563
4.326000,0.262354
4.327000,-0.003667
4.328000,-1.000293
4.329000,-2.194208
4.330000,-2.719887
4.331000,-2.507324
4.332000,-2.124202
4.333000,-2.634607
4.334000,-3.295206
4.335000,-2.770800
4.336000,-2.838260
4.337000,-1.263769
4.338000,0.002697
4.339000,0.449460
4.340000,0.504192
4.341000,0.324723
4.342000,0.005242
4.343000,-0.974837
4.344000,-3.477220
4.345000,-5.293549
4.346000,-6.598200
4.347000,-5.856140
4.348000,-4.477665
4.349000,-2.520052
4.350000,-0.370242
4.351000,0.551286
4.352000,1.211885
4.353000,1.712107
4.354000,2.069773
4.355000,1.980675
4.356000,1.328986
4.357000,1.055327
4.358000,0.480008
4.359000,0.076521
4.360000,-0.125859
4.361000,-0.656629
4.362000,-0.901013
4.363000,-0.624808
4.364000,-1.363050
4.365000,-2.336765
4.366000,-2.742798
4.367000,-2.405498
4.368000,-2.105110
4.369000,-1.536155
4.370000,-0.708815
4.371000,-0.738090
4.372000,-1.165761
4.373000,-1.518335
4.374000,-1.674893
4.375000,-1.923095
4.376000,-1.891274
4.377000,-2.145840
4.378000,-3.016456
4.379000,-3.612140
4.380000,-4.532397
4.381000,-5.546842
4.382000,-5.364827
4.383000,-4.392385
4.384000,-3.505223
4.385000,-2.298580
4.386000,-0.867919
4.387000,0.157982
4.388000,0.810944
4.389000,1.332804
4.390000,1.738837
4.391000,1.558095
4.392000,0.850401
4.393000,0.226715
4.394000,-0.669358
4.395000,-2.213300
4.396000,-3.498859
4.397000,-3.271022
4.398000,-2.448774
4.399000,-1.723261
4.400000,-1.251041
4.401000,-0.735545
4.402000,-2.332946
4.403000,-3.823430
4.404000,-4.477665
4.405000,-4.729685
4.406000,-4.470028
4.407000,-3.842523
4.408000,-2.680429
4.409000,-1.597251
4.410000,-1.187399
4.411000,-0.852645
4.412000,-0.176772
4.413000,0.119797
4.414000,-0.842462
4.415000,-0.559894
4.416000,-0.259506
4.417000,-0.199683
4.418000,0.459643
4.419000,0.880949
4.420000,0.968775
4.421000,0.247080
4.422000,-0.305328
4.423000,-0.862828
4.424000,-1.169580
4.425000,-1.635435
4.426000,-1.933278
4.427000,-1.865818
4.428000,-1.932005
4.429000,-2.195481
4.430000,-2.024921
4.431000,-1.811086
4.432000,-1.863272
4.433000,-1.907821
4.434000,-2.106383
4.435000,-2.904447
4.436000,-3.377940
4.437000,-3.982534
4.438000,-3.865434
4.439000,-3.699966
4.440000,-2.863716
4.441000,-1.557793
4.442000,-0.487343
4.443000,0.319631
4.444000,0.296720
4.445000,0.309449
4.446000,0.812217
4.447000,0.583107
4.448000,-0.190773
4.449000,-1.550156
4.450000,-1.210310
4.451000,-1.402508
4.452000,-1.980372
4.453000,-2.007102
4.454000,-1.902730
4.455000,-1.576885
4.456000,-1.410145
4.457000,-0.990111
4.458000,-1.077936
4.459000,-2.563329
4.460000,-3.115737
4.461000,-2.934995
4.462000,-1.943460
4.463000,-0.911195
4.464000,-0.981201
4.465000,-1.069026
4.466000,-1.803449
4.467000,-2.285852
4.468000,-2.326582
4.469000,-2.192935
4.470000,-1.914185
4.471000,-1.500516
4.472000,-1.060116
4.473000,-0.585351
4.474000,0.062520
4.475000,0.826218
4.476000,1.341714
4.477000,1.416811
4.478000,1.078238
4.479000,-0.358787
4.480000,-2.766981
4.481000,-4.076723
4.482000,-4.374566
4.483000,-4.238373
4.484000,-3.792882
4.485000,-4.422933
4.486000,-5.194268
4.487000,-6.231625
4.488000,-5.893052
4.489000,-4.588401
4.490000,-2.996091
4.491000,-1.490333
4.492000,-0.379152
4.493000,0.878404
4.494000,1.806297
4.495000,2.223785
4.496000,3.642990
4.497000,4.517425
4.498000,3.630262
4.499000,2.510172
4.500000,1.550458
4.501000,0.065065
4.502000,-1.188672
4.503000,-2.134385
4.504000,-3.362666
4.505000,-4.104726
4.506000,-6.086522
4.507000,-7.765385
4.508000,-7.977947
4.509000,-7.094603
4.510000,-5.326642
4.511000,-3.820885
4.512000,-3.077552
4.513000,-1.665983
4.514000,-0.825916
4.515000,-0.040580
4.516000,1.202975
4.517000,3.077854
4.518000,4.031204
4.519000,3.374423
4.520000,2.311610
4.521000,1.415538
4.522000,0.656931
4.523000,0.009061
4.524000,-1.057571
4.525000,-1.313410
4.526000,-1.419054
4.527000,-1.183581
4.528000,-1.127576
4.529000,-1.551429
4.530000,-1.988009
4.531000,-2.308763
4.532000,-2.317672
4.533000,-2.144567
4.534000,-2.634607
4.535000,-2.976998
4.536000,-2.525144
4.537000,-1.581977
4.538000,-1.757627
4.539000,-2.110201
4.540000,-2.385132
4.541000,-2.618060
4.542000,-2.717341
4.543000,-3.306661
4.544000,-3.026639
4.545000,-2.399133
4.546000,-1.968917
4.547000,-1.915458
4.548000,-2.163660
4.549000,-1.751263
4.550000,-1.203946
4.551000,-0.710088
4.552000,-1.475059
4.553000,-3.601958
4.554000,-4.587128
4.555000,-4.132728
4.556000,-2.509870
4.557000,-1.365596
4.558000,-0.034215
4.559000,0.812217
4.560000,-0.475887
4.561000,-1.163216
4.562000,-1.366868
4.563000,-1.338866
4.564000,-1.131395
4.565000,-2.145840
4.566000,-3.586684
4.567000,-3.201016
4.568000,-2.315127
4.569000,-2.045287
4.570000,-1.461058
4.571000,-0.419883
4.572000,-0.768638
4.573000,-1.545065
4.574000,-1.523426
4.575000,-1.447057
4.576000,-1.345230
4.577000,-1.629071
4.578000,-1.178490
4.579000,-0.404609
4.580000,0.420185
4.581000,0.235625
4.582000,1.239887
4.583000,2.034133
4.584000,2.494898
4.585000,1.841936
4.586000,-0.692268
4.587000,-1.972735
4.588000,-2.523871
4.589000,-2.441137
4.590000,-2.994818
4.591000,-3.633779
4.592000,-3.917620
4.593000,-3.629960
4.594000,-2.987181
4.595000,-3.003728
4.596000,-2.089836
4.597000,-0.895921
4.598000,-0.302782
4.599000,0.361635
4.600000,0.948409
4.601000,1.162245
4.602000,0.059974
4.603000,-0.633718
4.604000,-1.007930
4.605000,-1.822541
4.606000,-2.447501
4.607000,-2.283306
4.608000,-2.359676
4.609000,-2.584967
4.610000,-2.763163
4.611000,-2.821713
4.612000,-2.825532
4.613000,-3.211199
4.614000,-3.716513
4.615000,-3.932894
4.616000,-3.618505
4.617000,-3.472129
4.618000,-2.693157
4.619000,-1.911640
4.620000,-0.713907
4.621000,0.259808
4.622000,1.051509
4.623000,1.584824
4.624000,0.435459
4.625000,-0.990111
4.626000,-2.302398
4.627000,-1.662165
4.628000,-0.755910
4.629000,0.090522
4.630000,0.721846
4.631000,0.710390
4.632000,0.213986
4.633000,-0.412246
4.634000,-0.449158
4.635000,-0.909922
4.636000,-1.254859
4.637000,-1.692713
4.638000,-2.366040
4.639000,-3.285023
4.640000,-2.838260
4.641000,-2.200572
4.642000,-2.164933
4.643000,-2.042741
4.644000,-3.061005
4.645000,-4.396204
4.646000,-5.287185
4.647000,-5.913417
4.648000,-7.354261
4.649000,-8.989847
4.650000,-8.690732
4.651000,-6.137435
4.652000,-3.015183
4.653000,-0.074946
4.654000,2.022678
4.655000,3.962471
4.656000,4.923457
4.657000,4.684165
4.658000,4.560701
4.659000,3.949742
4.660000,2.864019
4.661000,1.649739
4.662000,0.110887
4.663000,-0.946834
4.664000,-1.813632
4.665000,-2.089836
4.666000,-2.017284
4.667000,-2.620606
4.668000,-3.123374
4.669000,-3.103008
4.670000,-3.347392
4.671000,-4.125091
4.672000,-4.753869
4.673000,-4.639314
4.674000,-4.214189
4.675000,-3.575228
4.676000,-3.108100
4.677000,-1.328683
4.678000,0.807125
4.679000,-0.230231
4.680000,0.132525
4.681000,0.648022
4.682000,0.943318
4.683000,1.555549
4.684000,2.707460
4.685000,2.852563
4.686000,1.733745
4.687000,-0.236595
4.688000,-1.753809
4.689000,-2.177661
4.690000,-1.665983
4.691000,-0.823370
4.692000,-0.641355
4.693000,-0.525528
4.694000,-0.763547
4.695000,-1.422873
4.696000,-2.083472
4.697000,-2.410589
4.698000,-2.512415
4.699000,-2.494596
4.700000,-2.434773
4.701000,-2.269305
4.702000,-2.427136
4.703000,-2.648608
4.704000,-2.840805
4.705000,-3.398305
4.706000,-4.097089
4.707000,-6.072521
4.708000,-6.981321
4.709000,-6.323268
4.710000,-5.366100
4.711000,-4.618949
4.712000,-3.362666
4.713000,-1.786902
4.714000,-0.685904
4.715000,0.174529
4.716000,0.929317
4.717000,1.941217
4.718000,2.662911
4.719000,2.113049
4.720000,0.497828
4.721000,-1.663438
4.722000,-2.735161
4.723000,-3.066096
4.724000,-2.794984
4.725000,-2.719887
4.726000,-2.368586
4.727000,-1.556520
4.728000,-1.370687
4.729000,-1.051207
4.730000,-0.656629
4.731000,0.262354
4.732000,1.370989
4.733000,-0.524255
4.734000,-1.949824
4.735000,-2.433500
4.736000,-1.870909
4.737000,-2.527689
4.738000,-1.915458
4.739000,-0.234050
4.740000,1.512273
4.741000,1.789750
4.742000,1.443540
4.743000,1.414265
4.744000,0.877131
4.745000,-0.951926
4.746000,-1.958734
4.747000,-2.880263
4.748000,-4.804782
4.749000,-4.540034
4.750000,-5.544296
4.751000,-5.084805
4.752000,-3.623596
4.753000,-2.013466
4.754000,-0.578987
4.755000,0.427822
4.756000,1.186429
4.757000,1.589916
4.758000,1.621736
4.759000,0.639112
4.760000,-0.390608
4.761000,-1.084300
4.762000,-1.944733
4.763000,-2.489504
4.764000,-2.579875
4.765000,-2.340583
4.766000,-1.981645
4.767000,-2.044014
4.768000,-2.606605
4.769000,-2.960452
4.770000,-2.892992
4.771000,-3.264658
4.772000,-3.395759
4.773000,-3.249384
4.774000,-3.311753
4.775000,-3.834886
4.776000,-3.654144
4.777000,-3.361393
4.778000,-2.959179
4.779000,-2.534053
4.780000,-1.545065
4.781000,-0.822097
4.782000,-0.354969
4.783000,-0.091493
4.784000,-0.076219
4.785000,-0.157680
4.786000,-0.665539
4.787000,-1.822541
4.788000,-3.068642
4.789000,-2.861171
4.790000,-1.611252
4.791000,-0.725362
4.792000,0.009061
4.793000,0.448187
4.794000,1.020961
4.795000,1.475361
4.796000,1.717199
4.797000,1.845755
4.798000,2.001040
4.799000,1.233523
4.800000,-0.083856
4.801000,-1.621434
4.802000,-3.059732
4.803000,-4.004172
4.804000,-5.489565
4.805000,-5.719947
4.806000,-5.208269
4.807000,-4.798418
4.808000,-3.397032
4.809000,-2.649881
4.810000,-1.280316
4.811000,-0.227686
4.812000,0.518193
4.813000,1.265344
4.814000,1.525001
4.815000,0.919134
4.816000,-0.024033
4.817000,-0.516618
4.818000,-1.842907
4.819000,-2.271850
4.820000,-2.618060
4.821000,-2.553146
4.822000,-2.079653
4.823000,-2.021103
4.824000,-1.713078
4.825000,-1.625253
4.826000,-2.026194
4.827000,-3.188288
4.828000,-4.718230
4.829000,-5.428469
4.830000,-4.904063
4.831000,-3.691056
4.832000,-3.414852
4.833000,-2.745343
4.834000,-2.175115
4.835000,-1.415236
4.836000,-0.419883
4.837000,0.808398
4.838000,2.858927
4.839000,4.014657
4.840000,3.977745
4.841000,3.065126
4.842000,2.190691
4.843000,1.701925
4.844000,0.851674
4.845000,-0.309147
4.846000,-2.690612
4.847000,-4.229463
4.848000,-4.588401
4.849000,-4.484029
4.850000,-3.566319
4.851000,-2.581148
4.852000,-1.914185
4.853000,-1.923095
4.854000,-2.110201
4.855000,-2.537872
4.856000,-3.692329
4.857000,-3.656690
4.858000,-2.955360
4.859000,-1.746172
4.860000,-1.237040
4.861000,0.019243
4.862000,1.111332
4.863000,1.653557
4.864000,1.737564
4.865000,1.505909
4.866000,1.337895
4.867000,0.471098
4.868000,-0.754637
4.869000,-1.211583
4.870000,-1.200128
4.871000,-1.665983
4.872000,-2.021103
4.873000,-2.966816
4.874000,-3.103008
4.875000,-2.951542
4.876000,-2.864989
4.877000,-2.868808
4.878000,-3.022820
4.879000,-3.161559
4.880000,-4.242191
4.881000,-5.204451
4.882000,-5.215906
4.883000,-4.202734
4.884000,-2.946450
4.885000,-1.863272
4.886000,-1.454694
4.887000,-1.285407
4.888000,-1.405053
4.889000,-2.713522
4.890000,-3.279932
4.891000,-2.822986
4.892000,-1.748717
4.893000,-1.267588
4.894000,-1.356686
4.895000,-1.949824
4.896000,-1.963826
4.897000,-1.861999
4.898000,-1.883637
4.899000,-1.314682
4.900000,-1.436874
4.901000,-1.999465
4.902000,-2.425863
4.903000,-1.676166
4.904000,-1.279043
4.905000,-0.762274
4.906000,-0.097857
4.907000,1.102422
4.908000,1.470270
4.909000,1.561913
4.910000,1.188974
4.911000,0.908952
4.912000,0.964956
4.913000,-0.176772
4.914000,-0.631173
4.915000,-0.246778
4.916000,-0.741909
4.917000,-0.904831
4.918000,-0.913741
4.919000,-1.142850
4.920000,-1.393598
4.921000,-2.046560
4.922000,-2.236211
4.923000,-1.751263
4.924000,-0.791549
4.925000,-0.043125
4.926000,-0.134769
4.927000,0.291629
4.928000,0.374363
4.929000,0.096886
4.930000,-0.349877
4.931000,-1.364323
4.932000,-2.744070
4.933000,-3.619777
4.934000,-3.976170
4.935000,-4.723321
4.936000,-4.394931
4.937000,-3.806883
4.938000,-2.705886
4.939000,-1.930732
4.940000,-1.657074
4.941000,-1.388506
4.942000,-1.723261
4.943000,-1.911640
4.944000,-1.921822
4.945000,-2.238757
4.946000,-2.607878
4.947000,-2.285852
4.948000,-1.905275
4.949000,-2.685520
4.950000,-3.188288
4.951000,-4.667317
4.952000,-5.756859
4.953000,-4.870969
4.954000,-3.230291
4.955000,-1.321046
4.956000,0.191076
4.957000,0.737120
4.958000,1.703198
4.959000,2.465623
4.960000,1.024779
4.961000,-0.361333
4.962000,-1.075390
4.963000,-1.422873
4.964000,-1.281589
4.965000,-0.501344
4.966000,-0.087674
4.967000,0.247080
4.968000,0.212714
4.969000,0.364180
4.970000,0.487645
4.971000,-0.146224
4.972000,-0.797913
4.973000,-1.091937
4.974000,-1.905275
4.975000,-2.806439
4.976000,-3.657962
4.977000,-4.569309
4.978000,-5.741585
4.979000,-6.846401
4.980000,-5.793771
4.981000,-4.611312
4.982000,-3.540862
4.983000,-3.260839
4.984000,-4.386021
4.985000,-2.892992
4.986000,-1.049934
4.987000,0.100705
4.988000,1.153335
4.989000,2.011222
4.990000,2.674367
4.991000,2.242877
4.992000,1.274254
4.993000,0.681115
4.994000,0.944591
4.995000,1.531366
4.996000,1.117696
4.997000,0.410002
4.998000,-0.130950
4.999000,-0.169135
5.000000,-0.486070
5.001000,-0.786458
5.002000,-1.108484
5.003000,-1.048661
5.004000,-1.102120
5.005000,-1.111030
5.006000,-1.225584
5.007000,-1.998192
5.008000,-2.777164
5.009000,-3.675782
5.010000,-5.671579
5.011000,-5.721220
5.012000,-4.979160
5.013000,-3.932894
5.014000,-3.067369
5.015000,-2.602786
5.016000,-2.637153
5.017000,-2.438591
5.018000,-1.725806
5.019000,-1.172125
5.020000,-0.242959
5.021000,-0.356241
5.022000,-2.237484
5.023000,-2.731342
5.024000,-1.585795
5.025000,-0.725362
5.026000,-0.376607
5.027000,0.337451
5.028000,0.369272
5.029000,-0.547166
5.030000,-1.074117
5.031000,-1.667256
5.032000,-2.535326
5.033000,-3.562500
5.034000,-3.822157
5.035000,-4.062722
5.036000,-4.910427
5.037000,-4.792054
5.038000,-3.355029
5.039000,-1.104665
5.040000,0.534740
5.041000,1.581006
5.042000,2.555994
5.043000,2.489806
5.044000,1.931034
5.045000,1.815207
5.046000,1.149517
5.047000,0.719300
5.048000,0.115979
5.049000,-0.528073
5.050000,-0.525528
5.051000,-0.578987
5.052000,-0.801732
5.053000,-1.207765
5.054000,-1.413963
5.055000,-1.576885
5.056000,-1.700350
5.057000,-1.985464
5.058000,-2.685520
5.059000,-3.724149
5.060000,-4.602402
5.061000,-5.201905
5.062000,-5.527750
5.063000,-5.333007
5.064000,-4.634223
5.065000,-4.084360
5.066000,-3.137375
5.067000,-1.710532
5.068000,-1.960007
5.069000,-2.070743
5.070000,-1.473786
5.071000,-0.409700
5.072000,0.471098
5.073000,0.471098
5.074000,0.189803
5.075000,-0.151316
5.076000,0.034517
5.077000,-0.869192
5.078000,-3.450491
5.079000,-4.750050
5.080000,-4.346563
5.081000,-3.713967
5.082000,-2.716068
5.083000,-1.401235
5.084000,-0.157680
5.085000,0.944591
5.086000,1.437176
5.087000,1.321349
5.088000,1.698106
5.089000,2.240332
5.090000,1.955218
5.091000,0.142708
5.092000,-2.526416
5.093000,-3.909983
5.094000,-4.266375
5.095000,-3.716513
5.096000,-3.218836
5.097000,-2.680429
5.098000,-2.195481
5.099000,-1.713078
5.100000,-2.163660
5.101000,-3.579047
5.102000,-5.583754
5.103000,-5.859958
5.104000,-5.523931
5.105000,-4.452208
5.106000,-2.415680
5.107000,-0.376607
5.108000,1.512273
5.109000,2.379070
5.110000,1.861028
5.111000,2.524173
5.112000,2.684549
5.113000,2.493625
5.114000,1.766839
5.115000,1.010778
5.116000,0.165619
5.117000,-1.066480
5.118000,-1.904003
5.119000,-2.256577
5.120000,-2.324037
5.121000,-1.920549
5.122000,-3.486130
5.123000,-3.501404
5.124000,-2.666428
5.125000,-1.937096
5.126000,-1.547610
5.127000,-0.895921
5.128000,-0.442794
5.129000,-0.156407
5.130000,0.254717
5.131000,0.045973
5.132000,0.026880
5.133000,-0.599352
5.134000,-2.084744
5.135000,-3.841250
5.136000,-4.117454
5.137000,-3.855251
5.138000,-2.938813
5.139000,-1.923095
5.140000,-1.151760
5.141000,-0.484797
5.142000,-0.279872
5.143000,-0.484797
5.144000,-1.164488
5.145000,-1.416509
5.146000,-2.177661
5.147000,-2.527689
5.148000,-2.721159
5.149000,-2.834441
5.150000,-2.590058
5.151000,-2.105110
5.152000,-2.556964
5.153000,-2.903174
5.154000,-3.287569
5.155000,-3.587957
5.156000,-2.943905
5.157000,-3.577774
5.158000,-3.012638
5.159000,-2.330401
5.160000,-1.738535
5.161000,-1.294317
5.162000,-1.859454
5.163000,-1.809813
5.164000,-0.596806
5.165000,0.481281
5.166000,0.557651
5.167000,-0.115676
5.168000,-0.018941
5.169000,0.042154
5.170000,-0.062218
5.171000,-0.735545
5.172000,-0.764820
5.173000,-1.305773
5.174000,-2.364767
5.175000,-3.699966
5.176000,-3.601958
5.177000,-3.109373
5.178000,-2.189117
5.179000,-1.142850
5.180000,-0.156407
5.181000,0.668387
5.182000,1.227159
5.183000,1.518637
5.184000,1.332804
5.185000,1.746474
5.186000,2.057044
5.187000,0.959865
5.188000,-0.520436
5.189000,-1.352867
5.190000,-1.780538
5.191000,-2.017284
5.192000,-2.288397
5.193000,-2.699521
5.194000,-2.864989
5.195000,-3.339755
5.196000,-3.657962
5.197000,-3.963442
5.198000,-3.960896
5.199000,-3.540862
5.200000,-3.189561
5.201000,-3.819612
5.202000,-4.332562
5.203000,-4.299469
5.204000,-3.912528
5.205000,-4.118727
5.206000,-4.136546
5.207000,-3.203562
5.208000,-1.984191
5.209000,-0.967200
5.210000,-0.301510
5.211000,0.210168
5.212000,1.188974
5.213000,1.872484
5.214000,1.553004
5.215000,0.029426
5.216000,-1.077936
5.217000,-1.396143
5.218000,-1.084300
5.219000,-0.475887
5.220000,-0.064763
5.221000,0.066338
5.222000,0.143981
5.223000,-0.212412
5.224000,-1.337593
5.225000,-2.553146
5.226000,-2.821713
5.227000,-4.229463
5.228000,-4.658407
5.229000,-4.691500
5.230000,-3.297751
5.231000,-1.453421
5.232000,0.070157
5.233000,-0.203502
5.234000,0.007788
5.235000,-0.155134
5.236000,-0.123313
5.237000,-0.141133
5.238000,-0.318056
5.239000,-1.097028
5.240000,-1.982918
5.241000,-2.222210
5.242000,-2.472958
5.243000,-2.377495
5.244000,-2.390224
5.245000,-1.789448
5.246000,-0.842462
5.247000,-0.318056
5.248000,-0.538256
5.249000,-0.521709
5.250000,-0.492434
5.251000,0.089249
5.252000,0.299266
5.253000,-0.520436
5.254000,-1.313410
5.255000,-1.951097
5.256000,-2.447501
5.257000,-2.845897
5.258000,-3.244293
5.259000,-4.057631
5.260000,-4.443298
5.261000,-4.873515
5.262000,-3.943076
5.263000,-2.220937
5.264000,-0.810642
5.265000,0.271264
5.266000,0.723118
5.267000,0.817308
5.268000,0.688752
5.269000,0.431640
5.270000,0.646749
5.271000,-1.029568
5.272000,-3.080098
5.273000,-5.037710
5.274000,-4.892607
5.275000,-3.691056
5.276000,-2.250212
5.277000,-1.132668
5.278000,-0.272235
5.279000,-0.292600
5.280000,-0.856464
5.281000,-1.109757
5.282000,-1.287953
5.283000,-1.559066
5.284000,-0.927742
5.285000,-0.715179
5.286000,-0.885739
5.287000,-0.750819
5.288000,-0.717725
5.289000,-0.995202
5.290000,-2.590058
5.291000,-4.998252
5.292000,-4.864605
5.293000,-3.530679
5.294000,-2.108928
5.295000,-0.847554
5.296000,0.305630
5.297000,0.922953
5.298000,0.700208
5.299000,0.165619
5.300000,-0.787731
5.301000,-0.152589
5.302000,-0.517891
5.303000,-1.374505
5.304000,-1.571794
5.305000,-1.323592
5.306000,-1.240858
5.307000,-1.065208
5.308000,-0.376607
5.309000,-0.423701
5.310000,-0.447885
5.311000,-0.491161
5.312000,-0.262052
5.313000,-0.232777
5.314000,-0.813187
5.315000,-1.832724
5.316000,-2.381314
5.317000,-2.942632
5.318000,-4.224372
5.319000,-4.664771
5.320000,-4.575673
5.321000,-4.933338
5.322000,-5.326642
5.323000,-5.618121
5.324000,-4.434389
5.325000,-3.397032
5.326000,-2.261668
5.327000,-1.308318
5.328000,-1.210310
5.329000,-0.856464
5.330000,0.211441
5.331000,1.065510
5.332000,1.952672
5.333000,1.612827
5.334000,0.455824
5.335000,0.322177
5.336000,0.283992
5.337000,0.604745
5.338000,0.406184
5.339000,-0.120768
5.340000,-0.170408
5.341000,-0.022760
5.342000,-0.506435
5.343000,-0.901013
5.344000,-1.209037
5.345000,-2.167478
5.346000,-3.165377
5.347000,-4.688955
5.348000,-5.993605
5.349000,-7.495545
5.350000,-7.088239
5.351000,-5.812864
5.352000,-3.990171
5.353000,-2.702067
5.354000,-1.193763
5.355000,0.389637
5.356000,1.596280
5.357000,2.086319
5.358000,2.310337
5.359000,1.946308
5.360000,1.111332
5.361000,0.888586
5.362000,0.224169
5.363000,-0.445339
5.364000,-1.478877
5.365000,-2.427136
5.366000,-2.392769
5.367000,-2.129294
5.368000,-2.060561
5.369000,-2.064379
5.370000,-2.086017
5.371000,-1.259951
5.372000,-0.400790
5.373000,-0.633718
5.374000,-0.750819
5.375000,-0.718998
5.376000,-1.285407
5.377000,-3.355029
5.378000,-4.781871
5.379000,-5.964330
5.380000,-5.576117
5.381000,-4.336381
5.382000,-2.904447
5.383000,-1.511971
5.384000,-0.567531
5.385000,-0.164044
5.386000,-0.137315
5.387000,-0.118222
5.388000,0.435459
5.389000,-0.124586
5.390000,-1.800903
5.391000,-2.992272
5.392000,-3.161559
5.393000,-2.246394
5.394000,-1.371960
5.395000,-0.824643
5.396000,0.014152
5.397000,0.602200
5.398000,0.830036
5.399000,0.575470
5.400000,0.263627
5.401000,0.816035
5.402000,0.337451
5.403000,-0.143679
5.404000,-0.496253
5.405000,-0.772457
5.406000,-1.566703
5.407000,-2.451320
5.408000,-4.262557
5.409000,-5.815409
5.410000,-6.795488
5.411000,-7.694106
5.412000,-5.971967
5.413000,-3.244293
5.414000,-1.042297
5.415000,0.628929
5.416000,1.434630
5.417000,0.908952
5.418000,0.656931
5.419000,0.506737
5.420000,0.593290
5.421000,0.842764
5.422000,-0.372788
5.423000,-1.276497
5.424000,-1.497970
5.425000,-1.567976
5.426000,-1.846725
5.427000,-2.472958
5.428000,-1.867091
5.429000,-1.746172
5.430000,-1.457239
5.431000,-1.505607
5.432000,-1.650709
5.433000,-1.743626
5.434000,-1.807268
5.435000,-1.609979
5.436000,-1.397416
5.437000,-1.048661
5.438000,-0.106767
5.439000,-0.778821
5.440000,-1.626526
5.441000,-3.273568
5.442000,-3.557409
5.443000,-2.821713
5.444000,-1.784357
5.445000,-1.355413
5.446000,-0.815733
5.447000,-0.556076
5.448000,-0.609535
5.449000,-0.862828
5.450000,-1.061389
5.451000,-1.123758
5.452000,-1.295590
5.453000,-1.951097
5.454000,-2.614242
5.455000,-2.717341
5.456000,-2.672792
5.457000,-2.247667
5.458000,-1.405053
5.459000,-0.885739
5.460000,0.040882
5.461000,0.846583
5.462000,0.714209
5.463000,0.066338
5.464000,-0.690996
5.465000,-1.697804
5.466000,-2.763163
5.467000,-3.357574
5.468000,-3.548499
5.469000,-3.358847
5.470000,-2.731342
5.471000,-2.038923
5.472000,-1.298136
5.473000,-0.837371
5.474000,-0.512799
5.475000,-0.221321
5.476000,-0.631173
5.477000,-3.010092
5.478000,-3.627414
5.479000,-3.469584
5.480000,-3.973624
5.481000,-4.725867
5.482000,-4.590947
5.483000,-4.294377
5.484000,-3.325754
5.485000,-2.222210
5.486000,-1.196309
5.487000,-0.311692
5.488000,0.672205
5.489000,1.578460
5.490000,1.126606
5.491000,0.194894
5.492000,-1.125031
5.493000,-1.701623
5.494000,-1.636708
5.495000,-2.000738
5.496000,-1.629071
5.497000,-1.335048
5.498000,-0.343513
5.499000,0.082885
5.500000,0.197440
5.501000,-0.004940
5.502000,-0.013850
5.503000,0.154163
5.504000,0.126161
5.505000,-1.088119
5.506000,-1.416509
5.507000,-0.949380
5.508000,-0.029124
5.509000,0.066338
5.510000,-0.398245
5.511000,-1.173398
5.512000,-1.944733
5.513000,-2.933722
5.514000,-3.511587
5.515000,-3.437763
5.516000,-4.128909
5.517000,-3.750879
5.518000,-3.283750
5.519000,-3.315571
5.520000,-2.534053
5.521000,-1.377051
5.522000,-0.701178
5.523000,-1.030841
5.524000,-0.762274
5.525000,-0.666812
5.526000,-0.599352
5.527000,-0.225140
5.528000,0.707845
5.529000,1.442267
5.530000,0.327268
5.531000,-3.286296
5.532000,-4.942248
5.533000,-5.108989
5.534000,-3.864161
5.535000,-2.646063
5.536000,-1.613797
5.537000,-0.604443
5.538000,0.184711
5.539000,0.208895
5.540000,-1.279043
5.541000,-2.152204
5.542000,-2.844624
5.543000,-2.761890
5.544000,-2.705886
5.545000,-2.285852
5.546000,-1.724534
5.547000,-1.173398
5.548000,-1.136486
5.549000,-0.757183
5.550000,0.001424
5.551000,0.910224
5.552000,1.708289
5.553000,0.688752
5.554000,-0.111858
5.555000,-1.374505
5.556000,-2.696976
5.557000,-4.056358
5.558000,-4.988070
5.559000,-4.561672
5.560000,-3.619777
5.561000,-2.495869
5.562000,-1.835270
5.563000,-1.333775
5.564000,-0.669358
5.565000,0.038336
5.566000,0.940772
5.567000,0.673478
5.568000,0.683661
5.569000,0.551286
5.570000,0.170710
5.571000,-0.685904
5.572000,-1.221766
5.573000,-2.373677
5.574000,-2.817895
5.575000,-3.353756
5.576000,-4.262557
5.577000,-4.391112
5.578000,-4.612585
5.579000,-3.927802
5.580000,-3.231564
5.581000,-2.408043
5.582000,-1.301954
5.583000,-0.129678
5.584000,0.471098
5.585000,1.099876
5.586000,0.579289
5.587000,0.040882
5.588000,0.012879
5.589000,-0.496253
5.590000,-1.206492
5.591000,-2.399133
5.592000,-3.111918
5.593000,-3.908710
5.594000,-3.137375
5.595000,-2.061834
5.596000,-0.885739
5.597000,0.370545
5.598000,0.674751
5.599000,0.441823
5.600000,-0.128405
5.601000,-0.557348
5.602000,-0.731726
5.603000,-0.589169
5.604000,-0.978655
5.605000,-1.410145
5.606000,-1.402508
5.607000,-1.317228
5.608000,-1.466149
5.609000,-1.724534
5.610000,-2.322764
5.611000,-3.803065
5.612000,-4.560399
5.613000,-4.387294
5.614000,-3.759789
5.615000,-3.529407
5.616000,-3.360120
5.617000,-3.237928
5.618000,-2.900628
5.619000,-1.901457
5.620000,-1.314682
5.621000,-1.707987
5.622000,-1.851817
5.623000,-2.033831
5.624000,-2.578603
5.625000,-2.041468
5.626000,-0.687177
5.627000,1.029871
5.628000,1.542821
5.629000,1.363352
5.630000,0.922953
5.631000,0.837673
5.632000,0.236897
5.633000,0.304357
5.634000,0.348906
5.635000,0.220351
5.636000,-1.105938
5.637000,-2.012193
5.638000,-2.416953
5.639000,-2.914630
5.640000,-2.432227
5.641000,-1.947279
5.642000,-2.889173
5.643000,-2.852261
5.644000,-2.003283
5.645000,-2.162387
5.646000,-1.982918
5.647000,-1.433056
5.648000,-0.726635
5.649000,-0.038034
5.650000,-0.063490
5.651000,-0.083856
5.652000,-0.329512
5.653000,-0.614626
5.654000,-0.801732
5.655000,-1.142850
5.656000,-1.107211
5.657000,-1.601069
5.658000,-2.247667
5.659000,-2.876445
5.660000,-3.215018
5.661000,-3.089007
5.662000,-2.670246
5.663000,-3.199744
5.664000,-3.645234
5.665000,-3.985080
5.666000,-3.785245
5.667000,-3.389395
5.668000,-3.223927
5.669000,-3.696147
5.670000,-4.741141
5.671000,-4.178550
5.672000,-3.179378
5.673000,-2.606605
5.674000,-1.537428
5.675000,-0.536983
5.676000,-0.169135
5.677000,-0.511527
5.678000,-0.144952
5.679000,0.342542
5.680000,1.121514
5.681000,1.234796
5.682000,2.006131
5.683000,1.815207
5.684000,1.252616
5.685000,-0.169135
5.686000,-1.266315
5.687000,-1.733443
5.688000,-1.551429
5.689000,-1.019386
5.690000,-0.724089
5.691000,-1.364323
5.692000,-1.626526
5.693000,-0.903558
5.694000,-0.813187
5.695000,-0.929015
5.696000,-0.526801
5.697000,-0.409700
5.698000,-1.135213
5.699000,-1.676166
5.700000,-1.989282
5.701000,-1.286680
5.702000,-0.776275
5.703000,-0.605716
5.704000,-0.642628
5.705000,-1.914185
5.706000,-2.931176
5.707000,-2.884082
5.708000,-3.035548
5.709000,-3.384304
5.710000,-3.349937
5.711000,-2.797529
5.712000,-2.008375
5.713000,-1.475059
5.714000,-1.318501
5.715000,-1.585795
5.716000,-1.706714
5.717000,-1.626526
5.718000,-1.173398
5.719000,-0.960836
5.720000,-1.524699
5.721000,-2.227301
5.722000,-2.651154
5.723000,-3.246838
5.724000,-2.670246
5.725000,-2.152204
5.726000,-1.393598
5.727000,-0.725362
5.728000,-0.445339
5.729000,-0.113131
5.730000,0.655658
5.731000,0.040882
5.732000,-0.911195
5.733000,-1.863272
5.734000,-2.364767
5.735000,-2.609150
5.736000,-2.383860
5.737000,-3.053368
5.738000,-3.925257
5.739000,-4.060177
5.740000,-3.249384
5.741000,-1.938369
5.742000,-0.633718
5.743000,0.021789
5.744000,0.009061
5.745000,-0.536983
5.746000,-1.407599
5.747000,-1.974008
5.748000,-1.621434
5.749000,-1.615070
5.750000,-1.557793
5.751000,-1.321046
5.752000,-1.317228
5.753000,-2.334219
5.754000,-2.450047
5.755000,-1.463603
5.756000,-0.487343
5.757000,-0.092766
5.758000,0.327268
5.759000,0.089249
5.760000,-0.615899
5.761000,-0.530619
5.762000,-0.361333
5.763000,-0.283690
5.764000,-1.080482
5.765000,-1.374505
5.766000,-1.489060
5.767000,-1.655801
5.768000,-1.611252
5.769000,-2.168751
5.770000,-2.212027
5.771000,-2.171297
5.772000,-2.293489
5.773000,-2.946450
5.774000,-3.501404
5.775000,-4.548943
5.776000,-5.910871
5.777000,-6.145072
5.778000,-5.045347
5.779000,-3.879435
5.780000,-3.153922
5.781000,-2.733888
5.782000,-1.891274
5.783000,-3.086462
5.784000,-3.413579
5.785000,-2.598968
5.786000,-1.275225
5.787000,0.375636
5.788000,1.139334
5.789000,2.660366
5.790000,3.435519
5.791000,4.645980
5.792000,4.961642
5.793000,4.448692
5.794000,3.631535
5.795000,2.950571
5.796000,2.267061
5.797000,1.461360
5.798000,0.679842
5.799000,-0.189501
5.800000,-1.683803
5.801000,-2.923539
5.802000,-4.439480
5.803000,-4.765324
5.804000,-5.587573
5.805000,-5.422105
5.806000,-4.944793
5.807000,-4.263829
5.808000,-3.511587
5.809000,-3.054641
5.810000,-2.755526
5.811000,-2.016012
5.812000,-1.419054
5.813000,-0.968473
5.814000,-0.475887
5.815000,0.049791
5.816000,0.267445
5.817000,0.029426
5.818000,-0.470796
5.819000,-0.133496
5.820000,-0.503890
5.821000,-1.461058
5.822000,-2.232393
5.823000,-2.802621
5.824000,-2.909538
5.825000,-2.854807
5.826000,-2.618060
5.827000,-2.451320
5.828000,-3.656690
5.829000,-4.515850
5.830000,-4.310924
5.831000,-3.076279
5.832000,-1.879819
5.833000,-0.736818
5.834000,-0.118222
5.835000,0.005242
5.836000,-0.535710
5.837000,-1.081754
5.838000,-2.161114
5.839000,-3.670691
5.840000,-4.748778
5.841000,-5.791225
5.842000,-6.002515
5.843000,-5.199359
5.844000,-3.864161
5.845000,-2.032558
5.846000,-0.767365
5.847000,0.311994
5.848000,1.560641
5.849000,2.577632
5.850000,2.898385
5.851000,3.516980
5.852000,3.724452
5.853000,2.030315
5.854000,0.341269
5.855000,-1.202673
5.856000,-1.854362
5.857000,-2.493323
5.858000,-2.812803
5.859000,-3.439036
5.860000,-4.812419
5.861000,-4.999525
5.862000,-5.051711
5.863000,-4.412751
5.864000,-2.764436
5.865000,-1.389779
5.866000,-1.055025
5.867000,-0.636264
5.868000,-0.730453
5.869000,-1.220493
5.870000,-2.184025
5.871000,-1.856908
5.872000,-1.958734
5.873000,-1.837815
5.874000,-1.173398
5.875000,-0.142406
5.876000,0.888586
5.877000,0.539831
5.878000,0.846583
5.879000,1.458814
5.880000,1.194066
5.881000,-0.454249
5.882000,-2.246394
5.883000,-2.481867
5.884000,-2.619333
5.885000,-2.502233
5.886000,-3.055914
5.887000,-4.105998
5.888000,-3.563773
5.889000,-2.733888
5.890000,-2.084744
5.891000,-0.825916
5.892000,0.367999
5.893000,1.619191
5.894000,2.377797
5.895000,0.809671
5.896000,0.038336
5.897000,-0.272235
5.898000,0.534740
5.899000,0.742211
5.900000,0.678569
5.901000,0.639112
5.902000,0.870767
5.903000,0.441823
5.904000,-0.358787
5.905000,-0.775002
5.906000,-0.965927
5.907000,-1.444511
5.908000,-2.223483
5.909000,-2.605332
5.910000,-3.146285
5.911000,-3.573956
5.912000,-3.813248
5.913000,-3.557409
5.914000,-3.003728
5.915000,-2.385132
5.916000,-2.236211
5.917000,-2.378768
5.918000,-3.240474
5.919000,-5.446288
5.920000,-7.274072
5.921000,-8.084865
5.922000,-6.656750
5.923000,-4.253647
5.924000,-2.531508
5.925000,-1.420327
5.926000,-0.918832
5.927000,-1.676166
5.928000,-1.742353
5.929000,-1.503061
5.930000,-0.128405
5.931000,0.916589
5.932000,0.928044
5.933000,0.926771
5.934000,0.659477
5.935000,1.206794
5.936000,0.832582
5.937000,-0.757183
5.938000,-1.797085
5.939000,-1.942188
5.940000,-1.580704
5.941000,-2.121657
5.942000,-2.674065
5.943000,-2.786074
5.944000,-2.968088
5.945000,-3.370303
5.946000,-3.251930
5.947000,-3.159013
5.948000,-2.679156
5.949000,-2.325309
5.950000,-2.652427
5.951000,-2.752980
5.952000,-2.089836
5.953000,-1.410145
5.954000,-0.068582
5.955000,0.779123
5.956000,0.835128
5.957000,0.836400
5.958000,0.720573
5.959000,0.523284
5.960000,1.122787
5.961000,1.219522
5.962000,0.338724
5.963000,0.258536
5.964000,-0.268416
5.965000,-0.866646
5.966000,-1.030841
5.967000,-1.300681
5.968000,-2.129294
5.969000,-3.365211
5.970000,-3.363939
5.971000,-2.656245
5.972000,-2.167478
5.973000,-1.730898
5.974000,-2.646063
5.975000,-5.003344
5.976000,-6.488736
5.977000,-6.244353
5.978000,-4.284195
5.979000,-2.280760
5.980000,-0.249324
5.981000,1.023506
5.982000,1.353169
5.983000,1.976856
5.984000,1.978129
5.985000,2.039225
5.986000,2.207238
5.987000,1.763021
5.988000,1.456269
5.989000,0.869494
5.990000,0.339997
5.991000,0.413821
5.992000,0.388364
5.993000,-0.244232
5.994000,-1.621434
5.995000,-3.069915
5.996000,-3.764880
5.997000,-4.051267
5.998000,-3.941803
5.999000,-3.615959
6.000000,-3.370303
6.001000,-2.875172
6.002000,-2.574784
6.003000,-3.314298
6.004000,-3.759789
6.005000,-3.614686
6.006000,-3.463219
6.007000,-3.481039
6.008000,-3.343573
6.009000,-2.651154
6.010000,-1.492879
6.011000,-0.892103
6.012000,-0.290054
6.013000,0.365453
6.014000,0.977684
6.015000,1.129151
6.016000,1.183883
6.017000,0.905133
6.018000,0.280174
6.019000,-0.761001
6.020000,-1.495424
6.021000,-2.126748
6.022000,-3.057187
6.023000,-5.170084
6.024000,-6.398365
6.025000,-5.987241
6.026000,-4.919337
6.027000,-3.540862
6.028000,-2.262941
6.029000,-2.657518
6.030000,-2.537872
6.031000,-2.497141
6.032000,-1.665983
6.033000,-0.395699
6.034000,-0.475887
6.035000,-1.107211
6.036000,-3.033003
6.037000,-3.342301
6.038000,-3.757243
6.039000,-4.378384
6.040000,-3.204835
6.041000,-1.858181
6.042000,-1.149214
6.043000,-1.061389
6.044000,-0.585351
6.045000,0.309449
6.046000,1.771930
6.047000,2.543265
6.048000,2.212330
6.049000,1.988311
6.050000,1.871211
6.051000,1.388809
6.052000,0.711663
6.053000,-0.102948
6.054000,0.210168
6.055000,1.102422
6.056000,0.519466
6.057000,-0.404609
6.058000,-1.797085
6.059000,-3.240474
6.060000,-5.364827
6.061000,-6.038154
6.062000,-5.456471
6.063000,-4.359292
6.064000,-2.556964
6.065000,-0.778821
6.066000,0.183439
6.067000,0.733301
6.068000,0.945864
6.069000,0.631475
6.070000,0.334905
6.071000,0.211441
6.072000,-0.422429
6.073000,-1.168307
6.074000,-1.296863
6.075000,-1.532336
6.076000,-1.963826
6.077000,-2.895537
6.078000,-3.226473
6.079000,-3.005001
6.080000,-3.244293
6.081000,-3.440308
6.082000,-2.362221
6.083000,-1.988009
6.084000,-2.292216
6.085000,-2.844624
6.086000,-2.651154
6.087000,-1.668529
6.088000,-1.224311
6.089000,-1.181035
6.090000,-0.982474
6.091000,-0.734272
6.092000,-1.865818
6.093000,-2.126748
6.094000,-2.596422
6.095000,-4.145456
6.096000,-4.593492
6.097000,-4.711866
6.098000,-3.964714
6.099000,-3.749606
6.100000,-3.999081
6.101000,-3.157740
6.102000,-1.514517
6.103000,-0.142406
6.104000,1.169882
6.105000,2.230149
6.106000,2.177963
6.107000,1.412992
6.108000,1.306075
6.109000,1.064237
6.110000,0.938227
6.111000,1.031143
6.112000,0.586926
6.113000,-0.377879
6.114000,-1.794539
6.115000,-2.030013
6.116000,-2.209482
6.117000,-1.946006
6.118000,-1.677439
6.119000,-1.562884
6.120000,-1.123758
6.121000,-0.720271
6.122000,-0.461886
6.123000,-0.007486
6.124000,0.205077
6.125000,-0.253142
6.126000,-1.105938
6.127000,-2.721159
6.128000,-3.404669
6.129000,-3.334664
6.130000,-3.232837
6.131000,-3.013910
6.132000,-2.223483
6.133000,-1.408872
6.134000,-0.720271
6.135000,-0.310419
6.136000,-0.638810
6.137000,-0.618444
6.138000,-0.805550
6.139000,-0.530619
6.140000,-0.426247
6.141000,-0.673176
6.142000,-1.033387
6.143000,-1.767810
6.144000,-3.063551
6.145000,-5.055530
6.146000,-8.224876
6.147000,-10.419235
6.148000,-9.549892
6.149000,-6.873131
6.150000,-3.853978
6.151000,-1.081754
6.152000,0.938227
6.153000,2.499989
6.154000,3.016758
6.155000,3.286598
6.156000,2.550902
6.157000,2.203420
6.158000,1.638283
6.159000,-0.323148
6.160000,-1.131395
6.161000,-1.929459
6.162000,-2.266759
6.163000,-2.604059
6.164000,-2.577330
6.165000,-1.998192
6.166000,-1.234494
6.167000,-0.575168
6.168000,-0.796641
6.169000,-1.254859
6.170000,-2.563329
6.171000,-3.675782
6.172000,-3.856524
6.173000,-2.946450
6.174000,-1.543792
6.175000,-1.407599
6.176000,-1.347776
6.177000,-1.281589
6.178000,-1.315955
6.179000,-0.845008
6.180000,-1.539973
6.181000,-2.532781
6.182000,-1.995646
6.183000,-1.471240
6.184000,-1.113575
6.185000,-1.155579
6.186000,-1.230676
6.187000,-1.508152
6.188000,-1.831451
6.189000,-1.979100
6.190000,-1.487787
6.191000,-3.153922
6.192000,-6.558742
6.193000,-6.459461
6.194000,-4.672408
6.195000,-1.789448
6.196000,1.393900
6.197000,3.556438
6.198000,4.253949
6.199000,3.730816
6.200000,2.284881
6.201000,0.790578
6.202000,0.113433
6.203000,0.147799
6.204000,-0.074946
6.205000,-1.346503
6.206000,-2.135658
6.207000,-2.303671
6.208000,-4.848058
6.209000,-5.301186
6.210000,-4.263829
6.211000,-2.751707
6.212000,-1.828906
6.213000,-0.382971
6.214000,0.154163
6.215000,0.480008
6.216000,0.830036
6.217000,0.189803
6.218000,0.203804
6.219000,0.362908
6.220000,-0.932833
6.221000,-2.170024
6.222000,-2.194208
6.223000,-2.046560
6.224000,-2.504778
6.225000,-2.861171
6.226000,-2.909538
6.227000,-2.462775
6.228000,-2.408043
6.229000,-1.928186
6.230000,-1.125031
6.231000,-1.275225
6.232000,-2.700794
6.233000,-3.398305
6.234000,-3.147558
6.235000,-2.769527
6.236000,-1.685076
6.237000,-1.337593
6.238000,-1.747445
6.239000,-2.492050
6.240000,-2.727524
6.241000,-2.189117
6.242000,-1.221766
6.243000,-0.818279
6.244000,-0.567531
6.245000,-0.921378
6.246000,-0.581532
6.247000,-1.240858
6.248000,-1.392325
6.249000,-1.646891
6.250000,-1.135213
6.251000,-0.780094
6.252000,-0.889557
6.253000,-1.536155
6.254000,-1.197582
6.255000,-1.095756
6.256000,-1.397416
6.257000,-3.157740
6.258000,-4.268921
6.259000,-4.522214
6.260000,-3.325754
6.261000,-2.158569
6.262000,-1.146669
6.263000,-0.697360
6.264000,-0.865373
6.265000,-2.303671
6.266000,-3.170468
6.267000,-2.296034
6.268000,-0.470796
6.269000,1.326440
6.270000,1.526274
6.271000,1.642102
6.272000,1.942490
6.273000,2.317974
6.274000,1.280618
6.275000,0.589471
6.276000,-0.195865
6.277000,-1.489060
6.278000,-2.371131
6.279000,-2.919721
6.280000,-3.344846
6.281000,-3.193379
6.282000,-2.886627
6.283000,-2.354584
6.284000,-2.082199
6.285000,-2.380041
6.286000,-2.836987
6.287000,-3.038094
6.288000,-2.578603
6.289000,-3.160286
6.290000,-3.229019
6.291000,-2.448774
6.292000,-1.776720
6.293000,-1.294317
6.294000,-0.503890
6.295000,0.057428
6.296000,0.025608
6.297000,0.076521
6.298000,-0.234050
6.299000,-1.140305
6.300000,-1.840361
6.301000,-2.493323
6.302000,-2.555692
6.303000,-3.848887
6.304000,-5.036437
6.305000,-5.997424
6.306000,-6.731847
6.307000,-5.595210
6.308000,-3.754697
6.309000,-0.864101
6.310000,0.870767
6.311000,1.442267
6.312000,1.751565
6.313000,1.326440
6.314000,1.416811
6.315000,1.370989
6.316000,1.214431
6.317000,0.809671
6.318000,0.865675
6.319000,1.265344
6.320000,0.677297
6.321000,0.057428
6.322000,-0.651538
6.323000,-1.051207
6.324000,-1.309591
6.325000,-1.786902
6.326000,-2.915902
6.327000,-4.439480
6.328000,-5.516294
6.329000,-5.915963
6.330000,-5.120444
6.331000,-4.188732
6.332000,-4.205279
6.333000,-3.943076
6.334000,-2.787347
6.335000,-2.254031
6.336000,-1.209037
6.337000,-0.032943
6.338000,0.103250
6.339000,0.378182
6.340000,0.823672
6.341000,0.505465
6.342000,0.185984
6.343000,-0.148770
6.344000,-1.816177
6.345000,-4.079269
6.346000,-4.429297
6.347000,-3.086462
6.348000,-1.826360
6.349000,-1.990555
6.350000,-3.066096
6.351000,-2.756799
6.352000,-1.860726
6.353000,-0.460613
6.354000,1.050236
6.355000,2.284881
6.356000,2.964572
6.357000,2.423619
6.358000,0.174529
6.359000,-1.430510
6.360000,-1.679985
