LabVIEW Measurement,
Writer_Version,2
Reader_Version,2
Separator,Comma
Decimal_Separator,.
Multi_Headings,No
X_Columns,Multi
Time_Pref,Absolute
Operator,Dymnz
Date,2017/08/08
Time,14:27:35.423917883353151423
***End_of_Header***,
,
Channels,1,
Samples,1000,
Date,2017/08/08,
Time,14:27:35.423917883353151423,
Y_Unit_Label,Volts,
X_Dimension,Time,
X0,0.0000000000000000E+0,
Delta_X,0.001000,
***End_of_Header***,,
X_Value,Voltage,Comment
0.000000,-1.173398
0.001000,-1.084300
0.002000,-0.783912
0.003000,-0.721544
0.004000,-0.654084
0.005000,-0.501344
0.006000,-0.279872
0.007000,-0.337149
0.008000,-0.567531
0.009000,-0.715179
0.010000,-1.128849
0.011000,-1.721988
0.012000,-2.184025
0.013000,-2.688066
0.014000,-2.965543
0.015000,-3.043185
0.016000,-3.017729
0.017000,-2.805166
0.018000,-2.354584
0.019000,-1.989282
0.020000,-1.641800
0.021000,-1.298136
0.022000,-0.939197
0.023000,-0.803005
0.024000,-0.745727
0.025000,-0.600625
0.026000,-0.604443
0.027000,-0.706270
0.028000,-1.080482
0.029000,-1.371960
0.030000,-1.315955
0.031000,-1.323592
0.032000,-1.874728
0.033000,-2.390224
0.034000,-2.335492
0.035000,-2.056742
0.036000,-2.122929
0.037000,-2.049105
0.038000,-1.655801
0.039000,-1.378324
0.040000,-1.225584
0.041000,-1.265042
0.042000,-1.161943
0.043000,-0.839917
0.044000,-0.465705
0.045000,-0.175499
0.046000,-0.147497
0.047000,-0.204775
0.048000,-0.323148
0.049000,-0.633718
0.050000,-1.207765
0.051000,-1.935823
0.052000,-2.124202
0.053000,-2.213300
0.054000,-2.791165
0.055000,-3.319390
0.056000,-3.404669
0.057000,-3.001182
0.058000,-2.457684
0.059000,-2.120384
0.060000,-1.845452
0.061000,-1.725806
0.062000,-1.632890
0.063000,-1.463603
0.064000,-1.343957
0.065000,-1.305773
0.066000,-1.296863
0.067000,-1.252314
0.068000,-1.178490
0.069000,-1.345230
0.070000,-1.396143
0.071000,-1.357959
0.072000,-1.219220
0.073000,-1.114848
0.074000,-1.091937
0.075000,-0.974837
0.076000,-0.948107
0.077000,-1.039751
0.078000,-1.074117
0.079000,-0.982474
0.080000,-1.019386
0.081000,-1.093210
0.082000,-1.109757
0.083000,-1.132668
0.084000,-1.211583
0.085000,-1.153033
0.086000,-1.245950
0.087000,-1.541246
0.088000,-1.664711
0.089000,-1.520881
0.090000,-1.431783
0.091000,-1.469968
0.092000,-1.461058
0.093000,-1.427964
0.094000,-1.370687
0.095000,-1.230676
0.096000,-1.327411
0.097000,-1.608706
0.098000,-1.613797
0.099000,-1.601069
0.100000,-1.571794
0.101000,-2.070743
0.102000,-2.357130
0.103000,-2.409316
0.104000,-1.897638
0.105000,-1.463603
0.106000,-1.224311
0.107000,-1.107211
0.108000,-1.149214
0.109000,-1.074117
0.110000,-1.093210
0.111000,-1.175944
0.112000,-1.397416
0.113000,-1.686349
0.114000,-1.855635
0.115000,-1.855635
0.116000,-1.797085
0.117000,-2.018557
0.118000,-2.270578
0.119000,-1.994374
0.120000,-1.464876
0.121000,-1.357959
0.122000,-1.397416
0.123000,-1.371960
0.124000,-1.360504
0.125000,-1.487787
0.126000,-1.662165
0.127000,-1.699077
0.128000,-1.883637
0.129000,-2.108928
0.130000,-2.206936
0.131000,-2.206936
0.132000,-2.240030
0.133000,-2.038923
0.134000,-1.807268
0.135000,-1.667256
0.136000,-1.458512
0.137000,-1.321046
0.138000,-1.328683
0.139000,-1.343957
0.140000,-1.257405
0.141000,-1.224311
0.142000,-1.253586
0.143000,-1.233221
0.144000,-1.219220
0.145000,-1.242131
0.146000,-1.337593
0.147000,-1.247222
0.148000,-1.206492
0.149000,-1.158124
0.150000,-1.098301
0.151000,-1.146669
0.152000,-1.285407
0.153000,-1.100847
0.154000,-0.913741
0.155000,-0.870465
0.156000,-0.796641
0.157000,-0.749546
0.158000,-0.693541
0.159000,-0.612080
0.160000,-0.548439
0.161000,-0.661721
0.162000,-0.906104
0.163000,-1.215402
0.164000,-1.483969
0.165000,-1.595978
0.166000,-1.510698
0.167000,-1.575612
0.168000,-1.946006
0.169000,-2.092381
0.170000,-2.288397
0.171000,-2.201845
0.172000,-1.998192
0.173000,-2.102564
0.174000,-2.083472
0.175000,-2.166206
0.176000,-2.226029
0.177000,-2.153477
0.178000,-2.254031
0.179000,-2.232393
0.180000,-1.977827
0.181000,-1.547610
0.182000,-1.328683
0.183000,-1.103393
0.184000,-0.899740
0.185000,-0.596806
0.186000,-0.329512
0.187000,-0.456795
0.188000,-0.480979
0.189000,-0.539529
0.190000,-0.874283
0.191000,-1.417782
0.192000,-2.100018
0.193000,-2.709704
0.194000,-2.948996
0.195000,-3.110645
0.196000,-3.310480
0.197000,-2.937541
0.198000,-2.280760
0.199000,-2.027467
0.200000,-1.953643
0.201000,-1.947279
0.202000,-1.767810
0.203000,-1.556520
0.204000,-1.438147
0.205000,-1.388506
0.206000,-1.333775
0.207000,-1.265042
0.208000,-1.247222
0.209000,-1.268860
0.210000,-1.461058
0.211000,-1.631617
0.212000,-1.494151
0.213000,-1.368141
0.214000,-1.300681
0.215000,-1.209037
0.216000,-1.085573
0.217000,-0.915014
0.218000,-0.662993
0.219000,-0.455522
0.220000,-0.363878
0.221000,-0.329512
0.222000,-0.306601
0.223000,-0.381698
0.224000,-0.620990
0.225000,-1.024477
0.226000,-1.478877
0.227000,-1.952370
0.228000,-2.022376
0.229000,-2.254031
0.230000,-2.336765
0.231000,-2.316400
0.232000,-2.408043
0.233000,-2.208209
0.234000,-2.061834
0.235000,-1.869636
0.236000,-1.668529
0.237000,-1.514517
0.238000,-1.450875
0.239000,-1.436874
0.240000,-1.361777
0.241000,-1.221766
0.242000,-1.175944
0.243000,-1.177217
0.244000,-1.084300
0.245000,-0.978655
0.246000,-0.809369
0.247000,-0.838644
0.248000,-0.796641
0.249000,-0.668085
0.250000,-0.577714
0.251000,-0.577714
0.252000,-0.738090
0.253000,-1.067753
0.254000,-1.491606
0.255000,-1.738535
0.256000,-1.887456
0.257000,-1.902730
0.258000,-1.943460
0.259000,-1.886183
0.260000,-1.867091
0.261000,-1.891274
0.262000,-1.622707
0.263000,-1.420327
0.264000,-1.284134
0.265000,-1.378324
0.266000,-1.144123
0.267000,-0.850099
0.268000,-0.832280
0.269000,-0.819551
0.270000,-0.831007
0.271000,-1.074117
0.272000,-1.452148
0.273000,-1.935823
0.274000,-2.648608
0.275000,-2.803893
0.276000,-2.923539
0.277000,-3.288842
0.278000,-3.523042
0.279000,-3.290114
0.280000,-2.807712
0.281000,-2.495869
0.282000,-2.288397
0.283000,-2.098746
0.284000,-1.967644
0.285000,-1.800903
0.286000,-1.620162
0.287000,-1.511971
0.288000,-1.531063
0.289000,-1.455966
0.290000,-1.259951
0.291000,-1.094483
0.292000,-1.046115
0.293000,-1.076663
0.294000,-1.076663
0.295000,-1.200128
0.296000,-1.480150
0.297000,-1.531063
0.298000,-1.585795
0.299000,-1.557793
0.300000,-1.538700
0.301000,-1.347776
0.302000,-1.263769
0.303000,-1.155579
0.304000,-1.159397
0.305000,-1.111030
0.306000,-0.898467
0.307000,-0.734272
0.308000,-0.670630
0.309000,-0.628627
0.310000,-0.633718
0.311000,-0.736818
0.312000,-0.888284
0.313000,-0.948107
0.314000,-1.093210
0.315000,-1.379597
0.316000,-1.617616
0.317000,-1.851817
0.318000,-2.021103
0.319000,-2.234938
0.320000,-2.130566
0.321000,-1.879819
0.322000,-1.770355
0.323000,-1.668529
0.324000,-1.546337
0.325000,-1.394871
0.326000,-1.328683
0.327000,-1.338866
0.328000,-1.410145
0.329000,-1.357959
0.330000,-1.216674
0.331000,-1.051207
0.332000,-0.867919
0.333000,-0.772457
0.334000,-0.715179
0.335000,-0.670630
0.336000,-0.643901
0.337000,-0.782639
0.338000,-0.899740
0.339000,-0.951926
0.340000,-1.132668
0.341000,-1.253586
0.342000,-1.454694
0.343000,-1.721988
0.344000,-1.962553
0.345000,-2.369858
0.346000,-2.414407
0.347000,-2.060561
0.348000,-1.876000
0.349000,-1.948552
0.350000,-1.514517
0.351000,-1.242131
0.352000,-1.066480
0.353000,-0.977382
0.354000,-0.997748
0.355000,-1.303227
0.356000,-1.653255
0.357000,-2.028740
0.358000,-2.088563
0.359000,-2.147113
0.360000,-2.114020
0.361000,-2.024921
0.362000,-1.882365
0.363000,-1.798358
0.364000,-1.911640
0.365000,-2.245121
0.366000,-2.592604
0.367000,-2.488232
0.368000,-2.262941
0.369000,-2.273123
0.370000,-2.050378
0.371000,-1.748717
0.372000,-1.413963
0.373000,-1.225584
0.374000,-1.161943
0.375000,-0.898467
0.376000,-0.735545
0.377000,-0.799186
0.378000,-0.959563
0.379000,-1.122485
0.380000,-1.336320
0.381000,-1.407599
0.382000,-1.453421
0.383000,-1.559066
0.384000,-1.632890
0.385000,-1.499243
0.386000,-1.518335
0.387000,-1.520881
0.388000,-1.447057
0.389000,-1.214129
0.390000,-1.253586
0.391000,-1.318501
0.392000,-1.461058
0.393000,-1.695259
0.394000,-1.825087
0.395000,-1.809813
0.396000,-1.645618
0.397000,-1.472513
0.398000,-1.518335
0.399000,-1.462331
0.400000,-1.314682
0.401000,-1.251041
0.402000,-1.146669
0.403000,-1.107211
0.404000,-1.089391
0.405000,-1.097028
0.406000,-1.137759
0.407000,-1.349049
0.408000,-1.597251
0.409000,-1.884910
0.410000,-1.948552
0.411000,-1.811086
0.412000,-1.588341
0.413000,-1.364323
0.414000,-1.342685
0.415000,-1.422873
0.416000,-1.471240
0.417000,-1.547610
0.418000,-1.331229
0.419000,-1.193763
0.420000,-1.289226
0.421000,-1.324865
0.422000,-1.341412
0.423000,-1.308318
0.424000,-1.388506
0.425000,-1.508152
0.426000,-1.482696
0.427000,-1.443238
0.428000,-1.534882
0.429000,-1.495424
0.430000,-1.513244
0.431000,-1.634163
0.432000,-1.743626
0.433000,-1.777992
0.434000,-1.970190
0.435000,-1.928186
0.436000,-1.860726
0.437000,-1.904003
0.438000,-1.968917
0.439000,-1.816177
0.440000,-1.627799
0.441000,-1.476332
0.442000,-1.445784
0.443000,-1.397416
0.444000,-1.267588
0.445000,-1.212856
0.446000,-1.181035
0.447000,-1.086846
0.448000,-1.056298
0.449000,-1.105938
0.450000,-1.099574
0.451000,-0.929015
0.452000,-0.759728
0.453000,-0.693541
0.454000,-0.707542
0.455000,-0.795368
0.456000,-0.945562
0.457000,-1.202673
0.458000,-1.641800
0.459000,-2.171297
0.460000,-2.378768
0.461000,-2.195481
0.462000,-1.844180
0.463000,-1.621434
0.464000,-1.567976
0.465000,-1.581977
0.466000,-1.576885
0.467000,-1.455966
0.468000,-1.429237
0.469000,-1.494151
0.470000,-1.309591
0.471000,-1.094483
0.472000,-0.805550
0.473000,-0.750819
0.474000,-0.936652
0.475000,-1.063935
0.476000,-1.038478
0.477000,-1.426691
0.478000,-1.825087
0.479000,-1.968917
0.480000,-2.059288
0.481000,-2.224756
0.482000,-2.360949
0.483000,-2.280760
0.484000,-2.149659
0.485000,-1.953643
0.486000,-1.780538
0.487000,-1.524699
0.488000,-1.314682
0.489000,-1.410145
0.490000,-1.861999
0.491000,-2.269305
0.492000,-2.486959
0.493000,-2.593876
0.494000,-2.458956
0.495000,-2.161114
0.496000,-2.091109
0.497000,-2.092381
0.498000,-2.078380
0.499000,-2.004556
0.500000,-1.772901
0.501000,-1.490333
0.502000,-1.206492
0.503000,-1.093210
0.504000,-1.067753
0.505000,-0.981201
0.506000,-0.898467
0.507000,-0.916287
0.508000,-0.954471
0.509000,-1.051207
0.510000,-1.058844
0.511000,-1.103393
0.512000,-1.266315
0.513000,-1.323592
0.514000,-1.234494
0.515000,-1.201400
0.516000,-1.304500
0.517000,-1.270133
0.518000,-0.995202
0.519000,-0.842462
0.520000,-0.847554
0.521000,-1.097028
0.522000,-1.329956
0.523000,-1.273952
0.524000,-1.137759
0.525000,-1.195036
0.526000,-1.336320
0.527000,-1.682530
0.528000,-1.905275
0.529000,-1.985464
0.530000,-2.380041
0.531000,-2.386405
0.532000,-2.153477
0.533000,-1.741080
0.534000,-1.336320
0.535000,-1.041024
0.536000,-0.633718
0.537000,-0.431338
0.538000,-0.208593
0.539000,-0.147497
0.540000,-0.256961
0.541000,-0.525528
0.542000,-0.974837
0.543000,-1.420327
0.544000,-1.864545
0.545000,-2.657518
0.546000,-2.801348
0.547000,-2.542963
0.548000,-2.168751
0.549000,-1.707987
0.550000,-1.410145
0.551000,-1.459785
0.552000,-1.701623
0.553000,-1.900184
0.554000,-2.004556
0.555000,-2.107655
0.556000,-2.232393
0.557000,-2.093654
0.558000,-1.906548
0.559000,-1.707987
0.560000,-1.377051
0.561000,-1.028296
0.562000,-0.825916
0.563000,-0.567531
0.564000,-0.619717
0.565000,-0.664266
0.566000,-0.689723
0.567000,-0.806823
0.568000,-1.170853
0.569000,-1.639254
0.570000,-1.856908
0.571000,-1.962553
0.572000,-2.110201
0.573000,-2.152204
0.574000,-2.121657
0.575000,-2.418226
0.576000,-2.415680
0.577000,-2.060561
0.578000,-1.766537
0.579000,-1.734716
0.580000,-1.695259
0.581000,-1.578158
0.582000,-1.464876
0.583000,-1.389779
0.584000,-1.277770
0.585000,-1.174671
0.586000,-1.158124
0.587000,-1.290499
0.588000,-1.373233
0.589000,-1.261223
0.590000,-1.080482
0.591000,-0.878102
0.592000,-0.930288
0.593000,-1.146669
0.594000,-1.317228
0.595000,-1.468695
0.596000,-1.475059
0.597000,-1.295590
0.598000,-1.550156
0.599000,-1.575612
0.600000,-1.169580
0.601000,-0.874283
0.602000,-0.870465
0.603000,-1.217947
0.604000,-1.378324
0.605000,-1.576885
0.606000,-1.758900
0.607000,-1.943460
0.608000,-2.157296
0.609000,-2.209482
0.610000,-2.229847
0.611000,-2.559510
0.612000,-2.584967
0.613000,-2.245121
0.614000,-2.254031
0.615000,-2.131839
0.616000,-1.710532
0.617000,-1.380869
0.618000,-1.020659
0.619000,-0.600625
0.620000,-0.235323
0.621000,0.014152
0.622000,0.105796
0.623000,0.080339
0.624000,-0.239141
0.625000,-0.685904
0.626000,-1.503061
0.627000,-2.349493
0.628000,-2.770800
0.629000,-2.842078
0.630000,-2.814076
0.631000,-2.503506
0.632000,-2.341856
0.633000,-2.245121
0.634000,-1.976554
0.635000,-1.419054
0.636000,-0.983747
0.637000,-0.741909
0.638000,-0.696087
0.639000,-0.748273
0.640000,-0.974837
0.641000,-1.357959
0.642000,-1.601069
0.643000,-1.697804
0.644000,-1.784357
0.645000,-1.767810
0.646000,-1.669802
0.647000,-1.539973
0.648000,-1.478877
0.649000,-1.615070
0.650000,-1.486514
0.651000,-1.511971
0.652000,-1.523426
0.653000,-1.576885
0.654000,-1.809813
0.655000,-2.013466
0.656000,-1.939642
0.657000,-1.966371
0.658000,-1.937096
0.659000,-1.613797
0.660000,-1.581977
0.661000,-1.683803
0.662000,-1.552702
0.663000,-1.494151
0.664000,-1.417782
0.665000,-1.352867
0.666000,-1.210310
0.667000,-0.977382
0.668000,-0.852645
0.669000,-0.781367
0.670000,-0.729181
0.671000,-0.766093
0.672000,-0.781367
0.673000,-0.870465
0.674000,-1.020659
0.675000,-1.100847
0.676000,-1.252314
0.677000,-1.412690
0.678000,-1.377051
0.679000,-1.211583
0.680000,-0.983747
0.681000,-0.996475
0.682000,-1.144123
0.683000,-1.377051
0.684000,-1.403780
0.685000,-1.422873
0.686000,-1.331229
0.687000,-1.212856
0.688000,-1.378324
0.689000,-1.821269
0.690000,-2.246394
0.691000,-2.600241
0.692000,-2.656245
0.693000,-2.863716
0.694000,-2.751707
0.695000,-2.472958
0.696000,-2.140749
0.697000,-1.818723
0.698000,-1.721988
0.699000,-1.550156
0.700000,-1.202673
0.701000,-0.682086
0.702000,-0.214957
0.703000,0.017971
0.704000,0.080339
0.705000,-0.123313
0.706000,-0.372788
0.707000,-0.539529
0.708000,-0.908650
0.709000,-1.588341
0.710000,-2.190389
0.711000,-2.605332
0.712000,-2.900628
0.713000,-2.956633
0.714000,-3.300297
0.715000,-3.370303
0.716000,-2.988454
0.717000,-2.675338
0.718000,-2.388951
0.719000,-2.107655
0.720000,-1.864545
0.721000,-1.528518
0.722000,-1.188672
0.723000,-0.939197
0.724000,-0.865373
0.725000,-0.865373
0.726000,-0.962108
0.727000,-1.083027
0.728000,-1.364323
0.729000,-1.613797
0.730000,-1.564157
0.731000,-1.472513
0.732000,-1.421600
0.733000,-1.448329
0.734000,-1.531063
0.735000,-1.667256
0.736000,-1.589614
0.737000,-1.286680
0.738000,-1.019386
0.739000,-0.920105
0.740000,-0.878102
0.741000,-0.811914
0.742000,-0.766093
0.743000,-0.827188
0.744000,-0.853918
0.745000,-0.833553
0.746000,-0.917559
0.747000,-1.119939
0.748000,-1.263769
0.749000,-1.496697
0.750000,-1.459785
0.751000,-1.430510
0.752000,-1.565430
0.753000,-1.589614
0.754000,-1.565430
0.755000,-1.826360
0.756000,-1.657074
0.757000,-1.499243
0.758000,-1.412690
0.759000,-1.156851
0.760000,-1.095756
0.761000,-1.173398
0.762000,-1.234494
0.763000,-1.478877
0.764000,-1.757627
0.765000,-2.005829
0.766000,-1.990555
0.767000,-1.811086
0.768000,-1.453421
0.769000,-1.070299
0.770000,-0.934106
0.771000,-0.661721
0.772000,-0.542075
0.773000,-0.454249
0.774000,-0.489889
0.775000,-0.582805
0.776000,-0.729181
0.777000,-1.187399
0.778000,-1.751263
0.779000,-2.279487
0.780000,-2.562056
0.781000,-2.845897
0.782000,-3.497586
0.783000,-3.612140
0.784000,-3.431399
0.785000,-2.877718
0.786000,-2.574784
0.787000,-2.184025
0.788000,-1.949824
0.789000,-1.783084
0.790000,-1.695259
0.791000,-1.819996
0.792000,-1.962553
0.793000,-1.996919
0.794000,-1.817450
0.795000,-1.786902
0.796000,-1.839088
0.797000,-1.854362
0.798000,-1.567976
0.799000,-1.359231
0.800000,-1.407599
0.801000,-1.336320
0.802000,-1.147942
0.803000,-1.086846
0.804000,-1.240858
0.805000,-1.164488
0.806000,-1.091937
0.807000,-1.070299
0.808000,-1.046115
0.809000,-1.085573
0.810000,-1.156851
0.811000,-1.113575
0.812000,-1.074117
0.813000,-1.071572
0.814000,-1.184854
0.815000,-1.131395
0.816000,-1.006657
0.817000,-0.869192
0.818000,-0.846281
0.819000,-0.878102
0.820000,-0.934106
0.821000,-1.014294
0.822000,-1.121212
0.823000,-1.188672
0.824000,-1.291771
0.825000,-1.416509
0.826000,-1.546337
0.827000,-1.511971
0.828000,-1.519608
0.829000,-1.529791
0.830000,-1.621434
0.831000,-1.673620
0.832000,-1.573067
0.833000,-1.510698
0.834000,-1.566703
0.835000,-1.732171
0.836000,-1.662165
0.837000,-1.467422
0.838000,-1.354140
0.839000,-1.211583
0.840000,-0.916287
0.841000,-0.697360
0.842000,-0.633718
0.843000,-0.662993
0.844000,-0.615899
0.845000,-0.815733
0.846000,-1.021931
0.847000,-1.067753
0.848000,-0.976110
0.849000,-1.163216
0.850000,-1.314682
0.851000,-1.419054
0.852000,-1.676166
0.853000,-1.851817
0.854000,-2.028740
0.855000,-2.338038
0.856000,-2.502233
0.857000,-2.633334
0.858000,-2.755526
0.859000,-3.022820
0.860000,-2.969361
0.861000,-2.357130
0.862000,-1.937096
0.863000,-1.612525
0.864000,-1.328683
0.865000,-1.312137
0.866000,-1.326138
0.867000,-1.259951
0.868000,-1.135213
0.869000,-1.095756
0.870000,-1.363050
0.871000,-1.338866
0.872000,-1.265042
0.873000,-1.326138
0.874000,-1.477605
0.875000,-1.452148
0.876000,-1.305773
0.877000,-1.234494
0.878000,-1.319774
0.879000,-1.561611
0.880000,-1.793266
0.881000,-1.758900
0.882000,-1.883637
0.883000,-2.149659
0.884000,-2.252758
0.885000,-2.186571
0.886000,-2.021103
0.887000,-1.869636
0.888000,-1.921822
0.889000,-1.965098
0.890000,-1.935823
0.891000,-2.311308
0.892000,-2.232393
0.893000,-1.926914
0.894000,-1.693986
0.895000,-1.585795
0.896000,-1.520881
0.897000,-1.504334
0.898000,-1.475059
0.899000,-1.363050
0.900000,-1.261223
0.901000,-1.155579
0.902000,-1.160670
0.903000,-1.137759
0.904000,-1.136486
0.905000,-1.135213
0.906000,-1.107211
0.907000,-1.141577
0.908000,-1.200128
0.909000,-1.108484
0.910000,-0.959563
0.911000,-0.899740
0.912000,-0.852645
0.913000,-1.002839
0.914000,-1.366868
0.915000,-1.416509
0.916000,-1.242131
0.917000,-1.135213
0.918000,-1.196309
0.919000,-1.239585
0.920000,-1.206492
0.921000,-1.249768
0.922000,-1.337593
0.923000,-1.346503
0.924000,-1.387234
0.925000,-1.201400
0.926000,-0.955744
0.927000,-0.743182
0.928000,-0.340967
0.929000,0.426549
0.930000,0.763849
0.931000,0.954774
0.932000,0.931863
0.933000,0.572925
0.934000,-0.030397
0.935000,-0.566258
0.936000,-1.317228
0.937000,-2.065652
0.938000,-2.422044
0.939000,-3.021547
0.940000,-4.246010
0.941000,-5.157356
0.942000,-4.958795
0.943000,-4.184914
0.944000,-4.061449
0.945000,-3.651598
0.946000,-3.213745
0.947000,-2.754253
0.948000,-2.507324
0.949000,-2.223483
0.950000,-2.068198
0.951000,-1.991828
0.952000,-1.769083
0.953000,-1.690167
0.954000,-1.436874
0.955000,-1.249768
0.956000,-1.239585
0.957000,-1.188672
0.958000,-1.327411
0.959000,-1.373233
0.960000,-1.310864
0.961000,-1.165761
0.962000,-1.168307
0.963000,-1.280316
0.964000,-1.285407
0.965000,-1.300681
0.966000,-1.366868
0.967000,-1.504334
0.968000,-1.468695
0.969000,-1.239585
0.970000,-1.067753
0.971000,-1.004112
0.972000,-1.015567
0.973000,-1.023204
0.974000,-1.102120
0.975000,-1.193763
0.976000,-1.117394
0.977000,-1.066480
0.978000,-1.088119
0.979000,-1.198855
0.980000,-1.314682
0.981000,-1.347776
0.982000,-1.234494
0.983000,-1.188672
0.984000,-1.189945
0.985000,-1.224311
0.986000,-1.239585
0.987000,-1.223039
0.988000,-1.308318
0.989000,-1.447057
0.990000,-1.449602
0.991000,-1.564157
0.992000,-1.576885
0.993000,-1.436874
0.994000,-1.382142
0.995000,-1.366868
0.996000,-1.351594
0.997000,-1.342685
0.998000,-1.340139
0.999000,-1.382142
1.000000,-1.430510
1.001000,-1.438147
1.002000,-1.425419
1.003000,-1.429237
1.004000,-1.444511
1.005000,-1.397416
1.006000,-1.285407
1.007000,-1.230676
1.008000,-1.169580
1.009000,-1.164488
1.010000,-1.186127
1.011000,-1.221766
1.012000,-1.287953
1.013000,-1.478877
1.014000,-1.584522
1.015000,-1.389779
1.016000,-1.137759
1.017000,-1.047388
1.018000,-0.839917
1.019000,-0.636264
1.020000,-0.674449
1.021000,-0.777548
1.022000,-0.934106
1.023000,-0.936652
1.024000,-0.822097
1.025000,-0.594261
1.026000,-0.656629
1.027000,-0.632445
1.028000,-0.903558
1.029000,-1.319774
1.030000,-2.072016
1.031000,-2.274396
1.032000,-2.227301
1.033000,-2.442410
1.034000,-2.965543
1.035000,-3.660508
1.036000,-4.204006
1.037000,-4.260011
1.038000,-3.736878
1.039000,-3.478493
1.040000,-3.193379
1.041000,-2.770800
1.042000,-2.285852
1.043000,-1.971463
1.044000,-1.748717
1.045000,-1.276497
1.046000,-0.846281
1.047000,-0.615899
1.048000,-0.629900
1.049000,-0.777548
1.050000,-0.554803
1.051000,-0.648992
1.052000,-1.265042
1.053000,-1.671075
1.054000,-1.691440
1.055000,-1.738535
1.056000,-1.872182
1.057000,-2.054197
1.058000,-2.283306
1.059000,-2.303671
1.060000,-2.100018
1.061000,-1.704168
1.062000,-0.834825
1.063000,-0.146224
1.064000,0.194894
1.065000,0.263627
1.066000,0.217805
1.067000,0.003970
1.068000,-0.156407
1.069000,-0.575168
1.070000,-1.118667
1.071000,-1.189945
1.072000,-1.366868
1.073000,-2.111474
1.074000,-2.499687
1.075000,-2.619333
1.076000,-3.101736
1.077000,-3.147558
1.078000,-2.840805
1.079000,-2.657518
1.080000,-2.579875
1.081000,-2.433500
1.082000,-2.087290
1.083000,-1.842907
1.084000,-1.611252
1.085000,-1.472513
1.086000,-1.305773
1.087000,-1.314682
1.088000,-1.169580
1.089000,-1.010476
1.090000,-0.930288
1.091000,-0.890830
1.092000,-0.811914
1.093000,-0.758456
1.094000,-0.841190
1.095000,-1.015567
1.096000,-1.282862
1.097000,-1.616343
1.098000,-1.569248
1.099000,-1.509425
1.100000,-1.668529
1.101000,-1.517062
1.102000,-1.341412
1.103000,-1.247222
1.104000,-1.209037
1.105000,-1.234494
1.106000,-1.263769
1.107000,-1.266315
1.108000,-1.155579
1.109000,-1.075390
1.110000,-1.039751
1.111000,-1.060116
1.112000,-1.197582
1.113000,-1.318501
1.114000,-1.476332
1.115000,-1.641800
1.116000,-1.519608
1.117000,-1.545065
1.118000,-1.571794
1.119000,-1.450875
1.120000,-1.440693
1.121000,-1.341412
1.122000,-1.139032
1.123000,-0.967200
1.124000,-0.892103
1.125000,-0.897194
1.126000,-0.767365
1.127000,-0.633718
1.128000,-0.605716
1.129000,-0.806823
1.130000,-1.084300
1.131000,-1.206492
1.132000,-1.449602
1.133000,-1.618889
1.134000,-1.818723
1.135000,-2.064379
1.136000,-2.117838
1.137000,-1.776720
1.138000,-1.261223
1.139000,-0.871737
1.140000,-0.862828
1.141000,-1.094483
1.142000,-1.416509
1.143000,-1.438147
1.144000,-1.385961
1.145000,-1.447057
1.146000,-1.574340
1.147000,-1.734716
1.148000,-2.005829
1.149000,-2.452592
1.150000,-2.724978
1.151000,-3.048277
1.152000,-3.043185
1.153000,-3.068642
1.154000,-2.884082
1.155000,-2.756799
1.156000,-2.833169
1.157000,-2.700794
1.158000,-2.196754
1.159000,-1.719442
1.160000,-1.402508
1.161000,-1.300681
1.162000,-1.175944
1.163000,-1.160670
1.164000,-1.267588
1.165000,-1.524699
1.166000,-1.623980
1.167000,-1.504334
1.168000,-1.467422
1.169000,-1.536155
1.170000,-1.450875
1.171000,-1.351594
1.172000,-1.188672
1.173000,-1.142850
1.174000,-1.612525
1.175000,-1.814905
1.176000,-1.560339
1.177000,-1.382142
1.178000,-1.285407
1.179000,-1.324865
1.180000,-1.415236
1.181000,-1.434328
1.182000,-1.267588
1.183000,-1.118667
1.184000,-1.104665
1.185000,-1.104665
1.186000,-1.086846
1.187000,-1.107211
1.188000,-1.093210
1.189000,-1.163216
1.190000,-1.198855
1.191000,-1.382142
1.192000,-1.541246
1.193000,-1.385961
1.194000,-1.272679
1.195000,-1.144123
1.196000,-1.021931
1.197000,-0.940470
1.198000,-0.911195
1.199000,-0.979928
1.200000,-1.183581
1.201000,-1.349049
1.202000,-1.494151
1.203000,-1.646891
1.204000,-1.836543
1.205000,-1.910367
1.206000,-1.799631
1.207000,-1.603615
1.208000,-1.430510
1.209000,-1.177217
1.210000,-1.019386
1.211000,-1.032114
1.212000,-1.021931
1.213000,-0.775002
1.214000,-0.587896
1.215000,-0.614626
1.216000,-0.750819
1.217000,-1.062662
1.218000,-1.252314
1.219000,-1.611252
1.220000,-1.954916
1.221000,-2.083472
1.222000,-2.054197
1.223000,-1.907821
1.224000,-1.648164
1.225000,-1.662165
1.226000,-1.860726
1.227000,-1.916731
1.228000,-1.808540
1.229000,-1.791994
1.230000,-1.952370
1.231000,-1.952370
1.232000,-2.092381
1.233000,-1.602342
1.234000,-0.973564
1.235000,-0.721544
1.236000,-0.461886
1.237000,-0.231504
1.238000,-0.274780
1.239000,-0.585351
1.240000,-0.987565
1.241000,-1.501788
1.242000,-2.068198
1.243000,-2.679156
1.244000,-3.171741
1.245000,-3.515405
1.246000,-3.393214
1.247000,-2.564601
1.248000,-2.077107
1.249000,-1.623980
1.250000,-1.238313
1.251000,-1.058844
1.252000,-1.049934
1.253000,-1.126303
1.254000,-1.266315
1.255000,-1.519608
1.256000,-1.757627
1.257000,-2.091109
1.258000,-2.363494
1.259000,-2.674065
1.260000,-3.110645
1.261000,-2.876445
1.262000,-2.475503
1.263000,-2.192935
1.264000,-1.961280
1.265000,-1.761446
1.266000,-1.539973
1.267000,-1.338866
1.268000,-1.193763
1.269000,-1.088119
1.270000,-1.039751
1.271000,-0.974837
1.272000,-0.932833
1.273000,-0.888284
1.274000,-0.920105
1.275000,-0.875556
1.276000,-0.590442
1.277000,-0.489889
1.278000,-0.624808
1.279000,-0.662993
1.280000,-0.703724
1.281000,-0.827188
1.282000,-0.941743
1.283000,-1.228130
1.284000,-1.480150
1.285000,-1.613797
1.286000,-1.562884
1.287000,-1.597251
1.288000,-1.697804
1.289000,-1.622707
1.290000,-1.454694
1.291000,-1.195036
1.292000,-1.207765
1.293000,-1.295590
1.294000,-1.202673
1.295000,-1.144123
1.296000,-1.117394
1.297000,-1.251041
1.298000,-1.346503
1.299000,-1.368141
1.300000,-1.359231
1.301000,-1.525972
1.302000,-1.604888
1.303000,-1.710532
1.304000,-1.954916
1.305000,-1.878546
1.306000,-1.727079
1.307000,-1.525972
1.308000,-1.346503
1.309000,-1.172125
1.310000,-0.955744
1.311000,-0.783912
1.312000,-0.820824
1.313000,-0.866646
1.314000,-0.960836
1.315000,-1.142850
1.316000,-1.440693
1.317000,-1.825087
1.318000,-2.349493
1.319000,-2.600241
1.320000,-2.656245
1.321000,-2.731342
1.322000,-2.527689
1.323000,-2.293489
1.324000,-1.977827
1.325000,-1.803449
1.326000,-1.692713
1.327000,-1.581977
1.328000,-1.501788
1.329000,-1.467422
1.330000,-1.279043
1.331000,-0.873010
1.332000,-0.237868
1.333000,0.126161
1.334000,0.313267
1.335000,0.342542
1.336000,0.262354
1.337000,-0.138587
1.338000,-0.673176
1.339000,-1.284134
1.340000,-1.915458
1.341000,-2.391497
1.342000,-2.945178
1.343000,-3.481039
1.344000,-4.142911
1.345000,-3.832340
1.346000,-3.430126
1.347000,-2.847170
1.348000,-2.509870
1.349000,-2.430954
1.350000,-2.341856
1.351000,-2.192935
1.352000,-1.984191
1.353000,-1.779265
1.354000,-1.646891
1.355000,-1.379597
1.356000,-1.175944
1.357000,-1.285407
1.358000,-1.233221
1.359000,-1.000293
1.360000,-0.888284
1.361000,-0.855191
1.362000,-0.817006
1.363000,-0.767365
1.364000,-0.750819
1.365000,-0.696087
1.366000,-0.654084
1.367000,-0.676995
1.368000,-0.781367
1.369000,-1.024477
1.370000,-1.249768
1.371000,-1.237040
1.372000,-1.179762
1.373000,-1.062662
1.374000,-1.016840
1.375000,-1.154306
1.376000,-1.415236
1.377000,-1.546337
1.378000,-1.599796
1.379000,-1.790721
1.380000,-1.786902
1.381000,-1.713078
1.382000,-1.902730
1.383000,-2.241303
1.384000,-2.212027
1.385000,-2.158569
1.386000,-1.905275
1.387000,-1.668529
1.388000,-1.489060
1.389000,-1.387234
1.390000,-1.167034
1.391000,-0.920105
1.392000,-0.811914
1.393000,-0.782639
1.394000,-0.823370
1.395000,-0.946834
1.396000,-1.023204
1.397000,-1.173398
1.398000,-1.389779
1.399000,-1.688894
1.400000,-1.926914
1.401000,-1.993101
1.402000,-1.962553
1.403000,-1.967644
1.404000,-1.876000
1.405000,-1.635435
1.406000,-1.627799
1.407000,-1.842907
1.408000,-1.719442
1.409000,-1.506880
1.410000,-1.431783
1.411000,-1.379597
1.412000,-1.244677
1.413000,-1.231948
1.414000,-1.280316
1.415000,-1.237040
1.416000,-1.210310
1.417000,-1.365596
1.418000,-1.338866
1.419000,-1.118667
1.420000,-0.855191
1.421000,-0.972291
1.422000,-0.931561
1.423000,-0.775002
1.424000,-0.808096
1.425000,-0.610807
1.426000,-0.836098
1.427000,-1.231948
1.428000,-1.338866
1.429000,-1.387234
1.430000,-1.855635
1.431000,-2.257849
1.432000,-2.668973
1.433000,-3.013910
1.434000,-3.198471
1.435000,-3.094099
1.436000,-2.810258
1.437000,-2.527689
1.438000,-2.275669
1.439000,-1.916731
1.440000,-1.718169
1.441000,-1.755082
1.442000,-1.952370
1.443000,-1.808540
1.444000,-1.430510
1.445000,-1.328683
1.446000,-1.459785
1.447000,-1.416509
1.448000,-1.183581
1.449000,-1.075390
1.450000,-1.000293
1.451000,-1.112302
1.452000,-1.205219
1.453000,-1.412690
1.454000,-1.643072
1.455000,-1.728352
1.456000,-1.690167
1.457000,-1.850544
1.458000,-1.776720
1.459000,-1.710532
1.460000,-1.529791
1.461000,-1.393598
1.462000,-1.394871
1.463000,-1.394871
1.464000,-1.277770
1.465000,-1.174671
1.466000,-1.198855
1.467000,-1.331229
1.468000,-1.329956
1.469000,-1.196309
1.470000,-1.123758
1.471000,-1.086846
1.472000,-0.941743
1.473000,-0.841190
1.474000,-0.715179
1.475000,-0.687177
1.476000,-0.665539
1.477000,-0.781367
1.478000,-0.852645
1.479000,-0.932833
1.480000,-0.944289
1.481000,-1.195036
1.482000,-1.399962
1.483000,-1.322319
1.484000,-1.259951
1.485000,-1.281589
1.486000,-1.454694
1.487000,-1.510698
1.488000,-1.491606
1.489000,-1.710532
1.490000,-1.970190
1.491000,-2.014739
1.492000,-1.967644
1.493000,-2.012193
1.494000,-1.784357
1.495000,-1.237040
1.496000,-1.033387
1.497000,-0.960836
1.498000,-0.796641
1.499000,-0.892103
1.500000,-1.155579
1.501000,-1.711805
1.502000,-1.906548
1.503000,-2.401679
1.504000,-2.759344
1.505000,-2.886627
1.506000,-3.025366
1.507000,-2.728796
1.508000,-2.354584
1.509000,-2.196754
1.510000,-1.962553
1.511000,-1.739808
1.512000,-1.697804
1.513000,-1.550156
1.514000,-1.322319
1.515000,-1.169580
1.516000,-1.038478
1.517000,-0.825916
1.518000,-0.771184
1.519000,-1.063935
1.520000,-1.310864
1.521000,-1.557793
1.522000,-1.962553
1.523000,-2.142022
1.524000,-1.982918
1.525000,-1.756354
1.526000,-1.553974
1.527000,-1.219220
1.528000,-0.943016
1.529000,-0.828461
1.530000,-0.829734
1.531000,-0.945562
1.532000,-0.992656
1.533000,-1.075390
1.534000,-1.394871
1.535000,-1.718169
1.536000,-1.743626
1.537000,-1.725806
1.538000,-1.653255
1.539000,-1.640527
1.540000,-2.191662
1.541000,-2.597695
1.542000,-2.232393
1.543000,-1.865818
1.544000,-1.701623
1.545000,-1.532336
1.546000,-1.385961
1.547000,-1.308318
1.548000,-1.248495
1.549000,-1.161943
1.550000,-1.037205
1.551000,-0.986292
1.552000,-0.915014
1.553000,-1.006657
1.554000,-1.027023
1.555000,-0.832280
1.556000,-0.683359
1.557000,-0.600625
1.558000,-0.566258
1.559000,-0.713907
1.560000,-0.740636
1.561000,-0.817006
1.562000,-1.010476
1.563000,-1.482696
1.564000,-1.723261
1.565000,-1.926914
1.566000,-1.938369
1.567000,-1.671075
1.568000,-1.752536
1.569000,-1.858181
1.570000,-1.685076
1.571000,-1.807268
1.572000,-1.705441
1.573000,-1.650709
1.574000,-1.897638
1.575000,-2.094927
1.576000,-2.201845
1.577000,-2.227301
1.578000,-2.007102
1.579000,-1.828906
1.580000,-1.420327
1.581000,-1.207765
1.582000,-1.085573
1.583000,-0.918832
1.584000,-0.965927
1.585000,-1.336320
1.586000,-1.650709
1.587000,-1.840361
1.588000,-1.985464
1.589000,-2.064379
1.590000,-1.971463
1.591000,-1.932005
1.592000,-1.426691
1.593000,-1.062662
1.594000,-1.051207
1.595000,-1.217947
1.596000,-1.341412
1.597000,-1.198855
1.598000,-1.127576
1.599000,-1.048661
1.600000,-1.221766
1.601000,-1.617616
1.602000,-1.779265
1.603000,-2.010920
1.604000,-2.299853
1.605000,-2.415680
1.606000,-2.590058
1.607000,-2.402952
1.608000,-2.371131
1.609000,-2.276942
1.610000,-1.984191
1.611000,-1.850544
1.612000,-1.618889
1.613000,-1.398689
1.614000,-1.382142
1.615000,-1.387234
1.616000,-1.116121
1.617000,-0.855191
1.618000,-0.712634
1.619000,-0.623536
1.620000,-0.704997
1.621000,-0.758456
1.622000,-0.782639
1.623000,-0.940470
1.624000,-1.158124
1.625000,-1.534882
1.626000,-1.738535
1.627000,-1.837815
1.628000,-1.716897
1.629000,-1.570521
1.630000,-1.659619
1.631000,-1.567976
1.632000,-1.333775
1.633000,-1.093210
1.634000,-1.024477
1.635000,-0.974837
1.636000,-1.102120
1.637000,-1.262496
1.638000,-1.336320
1.639000,-1.374505
1.640000,-1.300681
1.641000,-1.169580
1.642000,-1.200128
1.643000,-1.225584
1.644000,-1.287953
1.645000,-1.261223
1.646000,-1.125031
1.647000,-0.945562
1.648000,-0.979928
1.649000,-0.991384
1.650000,-1.153033
1.651000,-1.570521
1.652000,-2.044014
1.653000,-2.198026
1.654000,-2.184025
1.655000,-2.265486
1.656000,-2.313854
1.657000,-2.257849
1.658000,-2.227301
1.659000,-2.075835
1.660000,-2.139476
1.661000,-1.785629
1.662000,-1.254859
1.663000,-0.981201
1.664000,-1.024477
1.665000,-0.836098
1.666000,-0.827188
1.667000,-0.990111
1.668000,-1.149214
1.669000,-1.196309
1.670000,-1.478877
1.671000,-1.753809
1.672000,-2.022376
1.673000,-2.509870
1.674000,-2.610423
1.675000,-2.336765
1.676000,-1.902730
1.677000,-1.907821
1.678000,-1.960007
1.679000,-1.634163
1.680000,-1.328683
1.681000,-1.244677
1.682000,-1.184854
1.683000,-1.167034
1.684000,-1.167034
1.685000,-1.072845
1.686000,-1.042297
1.687000,-1.234494
1.688000,-1.511971
1.689000,-1.631617
1.690000,-1.915458
1.691000,-2.012193
1.692000,-1.833997
1.693000,-1.805995
1.694000,-1.783084
1.695000,-1.636708
1.696000,-1.291771
1.697000,-1.132668
1.698000,-1.133940
1.699000,-1.034660
1.700000,-1.027023
1.701000,-1.263769
1.702000,-1.161943
1.703000,-0.889557
1.704000,-0.850099
1.705000,-1.011749
1.706000,-1.346503
1.707000,-1.445784
1.708000,-1.542519
1.709000,-1.882365
1.710000,-2.254031
1.711000,-2.395315
1.712000,-2.144567
1.713000,-2.187844
1.714000,-2.056742
1.715000,-1.825087
1.716000,-1.671075
1.717000,-1.523426
1.718000,-1.449602
1.719000,-1.331229
1.720000,-1.161943
1.721000,-1.183581
1.722000,-1.105938
1.723000,-1.210310
1.724000,-1.324865
1.725000,-1.520881
1.726000,-1.733443
1.727000,-1.856908
1.728000,-1.877273
1.729000,-1.774174
1.730000,-1.683803
1.731000,-1.695259
1.732000,-1.532336
1.733000,-1.419054
1.734000,-1.457239
1.735000,-1.387234
1.736000,-1.296863
1.737000,-1.280316
1.738000,-1.284134
1.739000,-1.242131
1.740000,-1.142850
1.741000,-1.037205
1.742000,-0.929015
1.743000,-0.866646
1.744000,-0.777548
1.745000,-0.732999
1.746000,-0.740636
1.747000,-0.932833
1.748000,-1.181035
1.749000,-1.226857
1.750000,-1.257405
1.751000,-1.545065
1.752000,-1.721988
1.753000,-1.555247
1.754000,-1.797085
1.755000,-2.097473
1.756000,-2.038923
1.757000,-1.877273
1.758000,-1.727079
1.759000,-1.575612
1.760000,-1.495424
1.761000,-1.641800
1.762000,-1.855635
1.763000,-2.033831
1.764000,-2.115292
1.765000,-1.776720
1.766000,-1.454694
1.767000,-1.312137
1.768000,-1.284134
1.769000,-0.954471
1.770000,-0.571350
1.771000,-0.427520
1.772000,-0.475887
1.773000,-0.594261
1.774000,-0.912468
1.775000,-1.197582
1.776000,-1.525972
1.777000,-1.909094
1.778000,-2.116565
1.779000,-2.299853
1.780000,-2.434773
1.781000,-2.271850
1.782000,-1.897638
1.783000,-1.560339
1.784000,-1.398689
1.785000,-1.640527
1.786000,-2.004556
1.787000,-2.396588
1.788000,-2.512415
1.789000,-2.550600
1.790000,-2.353312
1.791000,-2.194208
1.792000,-2.178934
1.793000,-1.802176
1.794000,-1.450875
1.795000,-1.291771
1.796000,-1.265042
1.797000,-1.490333
1.798000,-1.738535
1.799000,-1.519608
1.800000,-1.341412
1.801000,-1.310864
1.802000,-1.313410
1.803000,-1.239585
1.804000,-1.228130
1.805000,-1.489060
1.806000,-1.402508
1.807000,-1.210310
1.808000,-0.888284
1.809000,-0.757183
1.810000,-0.710088
1.811000,-0.675722
1.812000,-0.697360
1.813000,-0.847554
1.814000,-0.964654
1.815000,-1.164488
1.816000,-1.280316
1.817000,-1.509425
1.818000,-1.697804
1.819000,-2.069471
1.820000,-2.148386
1.821000,-1.849271
1.822000,-1.692713
1.823000,-1.473786
1.824000,-1.298136
1.825000,-1.074117
1.826000,-0.982474
1.827000,-1.009203
1.828000,-1.139032
1.829000,-1.412690
1.830000,-1.548883
1.831000,-1.510698
1.832000,-1.522154
1.833000,-1.676166
1.834000,-1.609979
1.835000,-1.863272
1.836000,-2.227301
1.837000,-1.966371
1.838000,-1.626526
1.839000,-1.454694
1.840000,-1.522154
1.841000,-1.664711
1.842000,-1.830178
1.843000,-2.148386
1.844000,-2.094927
1.845000,-1.819996
1.846000,-1.671075
1.847000,-1.648164
1.848000,-1.753809
1.849000,-1.779265
1.850000,-1.571794
1.851000,-1.534882
1.852000,-1.466149
1.853000,-1.391052
1.854000,-1.357959
1.855000,-1.259951
1.856000,-1.173398
1.857000,-1.100847
1.858000,-1.011749
1.859000,-0.915014
1.860000,-0.771184
1.861000,-0.657902
1.862000,-0.608262
1.863000,-0.498798
1.864000,-0.444067
1.865000,-0.631173
1.866000,-1.000293
1.867000,-1.058844
1.868000,-1.217947
1.869000,-1.276497
1.870000,-1.217947
1.871000,-1.485242
1.872000,-1.517062
1.873000,-1.660892
1.874000,-1.839088
1.875000,-2.024921
1.876000,-1.863272
1.877000,-1.677439
1.878000,-1.690167
1.879000,-1.650709
1.880000,-1.970190
1.881000,-1.918004
1.882000,-2.016012
1.883000,-2.446228
1.884000,-2.793711
1.885000,-2.877718
1.886000,-2.572238
1.887000,-2.466593
1.888000,-2.248940
1.889000,-1.749990
1.890000,-1.524699
1.891000,-1.531063
1.892000,-1.383415
1.893000,-1.326138
1.894000,-1.165761
1.895000,-1.094483
1.896000,-1.156851
1.897000,-1.299408
1.898000,-1.225584
1.899000,-1.361777
1.900000,-1.585795
1.901000,-1.489060
1.902000,-1.427964
1.903000,-1.417782
1.904000,-1.732171
1.905000,-2.166206
1.906000,-2.041468
1.907000,-1.958734
1.908000,-1.804722
1.909000,-1.627799
1.910000,-1.556520
1.911000,-1.482696
1.912000,-1.245950
1.913000,-1.229403
1.914000,-1.145396
1.915000,-1.037205
1.916000,-0.935379
1.917000,-0.736818
1.918000,-0.670630
1.919000,-0.614626
1.920000,-0.586624
1.921000,-0.660448
1.922000,-0.790276
1.923000,-0.995202
1.924000,-1.315955
1.925000,-1.657074
1.926000,-1.808540
1.927000,-1.902730
1.928000,-1.946006
1.929000,-1.984191
1.930000,-2.069471
1.931000,-1.996919
1.932000,-1.807268
1.933000,-1.635435
1.934000,-1.669802
1.935000,-1.643072
1.936000,-1.448329
1.937000,-1.240858
1.938000,-0.930288
1.939000,-0.725362
1.940000,-0.689723
1.941000,-0.631173
1.942000,-0.589169
1.943000,-0.717725
1.944000,-0.847554
1.945000,-0.951926
1.946000,-1.086846
1.947000,-1.347776
1.948000,-1.752536
1.949000,-2.285852
1.950000,-2.680429
1.951000,-2.738979
1.952000,-2.484413
1.953000,-2.206936
1.954000,-1.901457
1.955000,-1.769083
1.956000,-1.492879
1.957000,-0.668085
1.958000,-0.101675
1.959000,0.054883
1.960000,0.016698
1.961000,-0.203502
1.962000,-0.534438
1.963000,-0.884466
1.964000,-1.357959
1.965000,-1.886183
1.966000,-1.915458
1.967000,-1.812359
1.968000,-2.117838
1.969000,-2.924812
1.970000,-3.515405
1.971000,-3.502677
1.972000,-3.288842
1.973000,-3.230291
1.974000,-3.145012
1.975000,-2.973180
1.976000,-2.867535
1.977000,-2.530235
1.978000,-2.150932
1.979000,-1.753809
1.980000,-1.430510
1.981000,-1.247222
1.982000,-0.946834
1.983000,-0.845008
1.984000,-0.716452
1.985000,-0.552257
1.986000,-0.656629
1.987000,-0.762274
1.988000,-0.916287
1.989000,-1.133940
1.990000,-1.333775
1.991000,-1.453421
1.992000,-1.500516
1.993000,-1.678712
1.994000,-1.531063
1.995000,-1.304500
1.996000,-1.079209
1.997000,-1.093210
1.998000,-0.944289
1.999000,-0.887011
2.000000,-0.983747
2.001000,-1.043570
2.002000,-1.002839
2.003000,-1.163216
2.004000,-1.520881
2.005000,-1.407599
2.006000,-1.076663
2.007000,-1.178490
2.008000,-1.219220
2.009000,-1.486514
2.010000,-1.929459
2.011000,-2.050378
2.012000,-1.949824
2.013000,-1.826360
2.014000,-1.746172
2.015000,-1.687622
2.016000,-1.765264
2.017000,-1.896366
2.018000,-1.924368
2.019000,-1.847998
2.020000,-1.769083
2.021000,-1.836543
2.022000,-1.812359
2.023000,-1.748717
2.024000,-1.622707
2.025000,-1.287953
2.026000,-1.000293
2.027000,-0.845008
2.028000,-0.766093
2.029000,-0.729181
2.030000,-0.781367
2.031000,-0.852645
2.032000,-0.962108
2.033000,-1.173398
2.034000,-1.326138
2.035000,-1.439420
2.036000,-1.727079
2.037000,-1.779265
2.038000,-1.648164
2.039000,-1.457239
2.040000,-1.431783
2.041000,-1.522154
2.042000,-1.627799
2.043000,-1.645618
2.044000,-1.413963
2.045000,-1.397416
2.046000,-1.545065
2.047000,-1.646891
2.048000,-1.669802
2.049000,-1.569248
2.050000,-1.662165
2.051000,-1.842907
2.052000,-1.837815
2.053000,-1.510698
2.054000,-1.272679
2.055000,-1.114848
2.056000,-0.893376
2.057000,-0.794095
2.058000,-0.749546
2.059000,-0.839917
2.060000,-1.145396
2.061000,-1.447057
2.062000,-1.827633
2.063000,-2.050378
2.064000,-2.203118
2.065000,-2.247667
2.066000,-1.990555
2.067000,-1.919277
2.068000,-1.816177
2.069000,-1.613797
2.070000,-1.650709
2.071000,-1.763991
2.072000,-1.515789
2.073000,-1.228130
2.074000,-1.011749
2.075000,-0.884466
2.076000,-1.038478
2.077000,-1.216674
2.078000,-0.915014
2.079000,-0.637537
2.080000,-0.479706
2.081000,-0.292600
2.082000,-0.445339
2.083000,-0.608262
2.084000,-0.846281
2.085000,-1.130122
2.086000,-1.394871
2.087000,-1.762718
2.088000,-2.185298
2.089000,-2.968088
2.090000,-3.520497
2.091000,-3.503950
2.092000,-3.503950
2.093000,-3.292660
2.094000,-3.068642
2.095000,-2.700794
2.096000,-2.243848
2.097000,-1.854362
2.098000,-1.564157
2.099000,-1.398689
2.100000,-1.406326
2.101000,-1.547610
2.102000,-1.407599
2.103000,-1.284134
2.104000,-1.172125
2.105000,-1.030841
2.106000,-0.857736
2.107000,-0.921378
2.108000,-0.967200
2.109000,-0.978655
2.110000,-1.153033
2.111000,-1.351594
2.112000,-1.524699
2.113000,-1.662165
2.114000,-1.602342
2.115000,-1.635435
2.116000,-1.645618
2.117000,-1.513244
2.118000,-1.410145
2.119000,-1.415236
2.120000,-1.407599
2.121000,-1.369414
2.122000,-1.491606
2.123000,-1.679985
2.124000,-1.682530
2.125000,-1.555247
2.126000,-1.480150
2.127000,-1.476332
2.128000,-1.436874
2.129000,-1.388506
2.130000,-1.393598
2.131000,-1.389779
2.132000,-1.300681
2.133000,-1.277770
2.134000,-1.281589
2.135000,-1.280316
2.136000,-1.266315
2.137000,-1.234494
2.138000,-1.193763
2.139000,-1.186127
2.140000,-1.193763
2.141000,-1.200128
2.142000,-1.237040
2.143000,-1.200128
2.144000,-1.116121
2.145000,-0.993929
2.146000,-0.967200
2.147000,-0.949380
2.148000,-0.790276
2.149000,-0.754637
2.150000,-0.805550
2.151000,-0.817006
2.152000,-0.985019
2.153000,-1.324865
2.154000,-1.519608
2.155000,-1.729625
2.156000,-2.014739
2.157000,-2.134385
2.158000,-2.069471
2.159000,-2.122929
2.160000,-1.998192
2.161000,-1.738535
2.162000,-1.594705
2.163000,-1.611252
2.164000,-1.779265
2.165000,-1.818723
2.166000,-1.799631
2.167000,-1.826360
2.168000,-1.818723
2.169000,-1.826360
2.170000,-1.738535
2.171000,-1.623980
2.172000,-1.606160
2.173000,-1.567976
2.174000,-1.567976
2.175000,-1.697804
2.176000,-1.780538
2.177000,-1.743626
2.178000,-1.520881
2.179000,-1.384688
2.180000,-1.335048
2.181000,-1.354140
2.182000,-1.261223
2.183000,-1.007930
2.184000,-0.887011
2.185000,-0.715179
2.186000,-0.566258
2.187000,-0.566258
2.188000,-0.598079
2.189000,-0.617172
2.190000,-0.866646
2.191000,-1.186127
2.192000,-1.336320
2.193000,-1.657074
2.194000,-2.037650
2.195000,-2.298580
2.196000,-2.814076
2.197000,-3.141193
2.198000,-2.876445
2.199000,-2.310035
2.200000,-1.799631
2.201000,-1.569248
2.202000,-1.430510
2.203000,-1.200128
2.204000,-0.977382
2.205000,-0.814460
2.206000,-0.787731
2.207000,-1.172125
2.208000,-1.412690
2.209000,-1.443238
2.210000,-1.621434
2.211000,-1.710532
2.212000,-1.538700
2.213000,-1.472513
2.214000,-1.641800
2.215000,-2.312581
2.216000,-2.564601
2.217000,-2.284579
2.218000,-1.958734
2.219000,-1.760173
2.220000,-1.615070
2.221000,-1.462331
2.222000,-1.515789
2.223000,-1.758900
2.224000,-2.075835
2.225000,-2.224756
2.226000,-2.408043
2.227000,-2.261668
2.228000,-1.990555
2.229000,-1.758900
2.230000,-1.569248
2.231000,-1.438147
2.232000,-1.240858
2.233000,-1.146669
2.234000,-1.102120
2.235000,-1.057571
2.236000,-0.995202
2.237000,-1.010476
2.238000,-0.766093
2.239000,-0.694814
2.240000,-0.682086
2.241000,-0.587896
2.242000,-0.712634
2.243000,-1.006657
2.244000,-1.355413
2.245000,-1.562884
2.246000,-1.487787
2.247000,-1.725806
2.248000,-1.831451
2.249000,-1.702895
2.250000,-1.890001
2.251000,-1.952370
2.252000,-1.804722
2.253000,-1.574340
2.254000,-1.433056
2.255000,-1.387234
2.256000,-1.371960
2.257000,-1.303227
2.258000,-1.265042
2.259000,-1.289226
2.260000,-1.128849
2.261000,-0.864101
2.262000,-0.619717
2.263000,-0.526801
2.264000,-0.521709
2.265000,-0.575168
2.266000,-0.534438
2.267000,-0.559894
2.268000,-0.776275
2.269000,-1.109757
2.270000,-1.710532
2.271000,-2.140749
2.272000,-2.178934
2.273000,-2.231120
2.274000,-2.500960
2.275000,-2.699521
2.276000,-2.495869
2.277000,-2.363494
2.278000,-2.157296
2.279000,-2.111474
2.280000,-2.108928
2.281000,-2.117838
2.282000,-2.112747
2.283000,-1.791994
2.284000,-1.559066
2.285000,-1.467422
2.286000,-1.032114
2.287000,-0.508981
2.288000,-0.212412
2.289000,-0.064763
2.290000,-0.020214
2.291000,-0.171681
2.292000,-0.399518
2.293000,-0.668085
2.294000,-1.183581
2.295000,-1.912912
2.296000,-2.343129
2.297000,-2.634607
2.298000,-3.095371
2.299000,-3.151376
2.300000,-3.215018
2.301000,-3.035548
2.302000,-2.736433
2.303000,-2.273123
2.304000,-1.819996
2.305000,-1.690167
2.306000,-1.690167
2.307000,-1.570521
2.308000,-1.354140
2.309000,-1.272679
2.310000,-1.267588
2.311000,-1.203946
2.312000,-1.128849
2.313000,-0.934106
2.314000,-0.828461
2.315000,-0.809369
2.316000,-0.931561
2.317000,-0.963381
2.318000,-0.988838
2.319000,-1.184854
2.320000,-1.397416
2.321000,-1.366868
2.322000,-1.543792
2.323000,-2.054197
2.324000,-2.064379
2.325000,-1.976554
2.326000,-1.878546
2.327000,-1.704168
2.328000,-1.621434
2.329000,-1.497970
2.330000,-1.403780
2.331000,-1.282862
2.332000,-1.229403
2.333000,-1.290499
2.334000,-1.259951
2.335000,-1.301954
2.336000,-1.284134
2.337000,-1.298136
2.338000,-1.261223
2.339000,-1.160670
2.340000,-0.955744
2.341000,-0.908650
2.342000,-0.817006
2.343000,-0.857736
2.344000,-0.935379
2.345000,-0.935379
2.346000,-0.915014
2.347000,-1.007930
2.348000,-0.946834
2.349000,-0.939197
2.350000,-1.107211
2.351000,-0.908650
2.352000,-0.771184
2.353000,-0.937925
2.354000,-1.327411
2.355000,-1.646891
2.356000,-1.690167
2.357000,-1.831451
2.358000,-2.186571
2.359000,-2.349493
2.360000,-2.474230
2.361000,-2.499687
2.362000,-2.424590
2.363000,-2.630789
2.364000,-2.610423
2.365000,-2.282033
2.366000,-2.009648
2.367000,-1.999465
2.368000,-2.218392
2.369000,-2.340583
2.370000,-2.229847
2.371000,-1.937096
2.372000,-1.713078
2.373000,-1.541246
2.374000,-1.324865
2.375000,-1.443238
2.376000,-1.356686
2.377000,-0.968473
2.378000,-0.690996
2.379000,-0.578987
2.380000,-0.654084
2.381000,-0.913741
2.382000,-0.813187
2.383000,-0.766093
2.384000,-0.945562
2.385000,-1.357959
2.386000,-1.845452
2.387000,-2.026194
2.388000,-2.364767
2.389000,-2.637153
2.390000,-2.209482
2.391000,-1.839088
2.392000,-1.767810
2.393000,-1.766537
2.394000,-1.865818
2.395000,-1.916731
2.396000,-1.813632
2.397000,-1.686349
2.398000,-1.613797
2.399000,-1.513244
2.400000,-1.489060
2.401000,-1.511971
2.402000,-1.355413
2.403000,-1.214129
2.404000,-1.217947
2.405000,-1.203946
2.406000,-1.183581
2.407000,-1.141577
2.408000,-1.081754
2.409000,-1.034660
2.410000,-1.048661
2.411000,-1.103393
2.412000,-1.149214
2.413000,-1.145396
2.414000,-1.131395
2.415000,-1.155579
2.416000,-1.197582
2.417000,-1.279043
2.418000,-1.355413
2.419000,-1.464876
2.420000,-1.499243
2.421000,-1.457239
2.422000,-1.398689
2.423000,-1.351594
2.424000,-1.290499
2.425000,-1.293044
2.426000,-1.346503
2.427000,-1.487787
2.428000,-1.654528
2.429000,-1.725806
2.430000,-1.721988
2.431000,-1.602342
2.432000,-1.476332
2.433000,-1.417782
2.434000,-1.407599
2.435000,-1.327411
2.436000,-1.279043
2.437000,-1.144123
2.438000,-0.988838
2.439000,-0.548439
2.440000,-0.064763
2.441000,0.103250
2.442000,0.289083
2.443000,0.304357
2.444000,0.114706
2.445000,-0.137315
2.446000,-0.710088
2.447000,-1.514517
2.448000,-1.928186
2.449000,-2.217119
2.450000,-2.717341
2.451000,-2.998636
2.452000,-3.272295
2.453000,-3.311753
2.454000,-3.020275
2.455000,-2.873899
2.456000,-3.006273
2.457000,-2.871353
2.458000,-2.616787
2.459000,-2.313854
2.460000,-2.046560
2.461000,-1.884910
2.462000,-1.767810
2.463000,-1.835270
2.464000,-1.933278
2.465000,-1.849271
2.466000,-1.724534
2.467000,-2.241303
2.468000,-2.329128
2.469000,-2.691884
2.470000,-2.978271
2.471000,-2.427136
2.472000,-1.963826
2.473000,-1.725806
2.474000,-1.601069
2.475000,-1.471240
2.476000,-1.342685
2.477000,-1.210310
2.478000,-1.119939
2.479000,-1.038478
2.480000,-1.021931
2.481000,-0.936652
2.482000,-0.907377
2.483000,-0.880647
2.484000,-0.852645
2.485000,-0.876829
2.486000,-0.897194
2.487000,-0.839917
2.488000,-0.867919
2.489000,-0.870465
2.490000,-0.855191
2.491000,-0.817006
2.492000,-0.852645
2.493000,-0.937925
2.494000,-1.188672
2.495000,-1.461058
2.496000,-1.634163
2.497000,-1.693986
2.498000,-1.570521
2.499000,-1.475059
2.500000,-1.377051
2.501000,-1.340139
2.502000,-1.378324
2.503000,-1.389779
2.504000,-1.370687
2.505000,-1.369414
2.506000,-1.407599
2.507000,-1.454694
2.508000,-1.445784
2.509000,-1.349049
2.510000,-1.293044
2.511000,-1.270133
2.512000,-1.170853
2.513000,-1.043570
2.514000,-0.934106
2.515000,-1.075390
2.516000,-1.140305
2.517000,-1.182308
2.518000,-1.295590
2.519000,-1.336320
2.520000,-1.576885
2.521000,-1.471240
2.522000,-0.940470
2.523000,-0.577714
2.524000,-0.407155
2.525000,-0.366424
2.526000,-0.403336
2.527000,-0.631173
2.528000,-1.155579
2.529000,-1.660892
2.530000,-2.009648
2.531000,-2.242575
2.532000,-2.466593
2.533000,-2.861171
2.534000,-2.780982
2.535000,-2.586239
2.536000,-2.446228
2.537000,-2.164933
2.538000,-2.126748
2.539000,-1.901457
2.540000,-1.617616
2.541000,-1.473786
2.542000,-1.253586
2.543000,-1.167034
2.544000,-0.944289
2.545000,-0.801732
2.546000,-0.983747
2.547000,-1.216674
2.548000,-1.401235
2.549000,-1.280316
2.550000,-0.977382
2.551000,-0.951926
2.552000,-1.131395
2.553000,-1.382142
2.554000,-1.500516
2.555000,-1.727079
2.556000,-2.162387
2.557000,-2.777164
2.558000,-3.314298
2.559000,-3.565046
2.560000,-3.285023
2.561000,-2.992272
2.562000,-2.723705
2.563000,-2.438591
2.564000,-2.206936
2.565000,-2.093654
2.566000,-2.163660
2.567000,-2.178934
2.568000,-1.876000
2.569000,-1.632890
2.570000,-1.533609
2.571000,-1.454694
2.572000,-1.383415
2.573000,-1.294317
2.574000,-1.206492
2.575000,-1.144123
2.576000,-1.187399
2.577000,-1.075390
2.578000,-0.939197
2.579000,-0.911195
2.580000,-0.960836
2.581000,-1.083027
2.582000,-1.104665
2.583000,-1.121212
2.584000,-1.069026
2.585000,-1.041024
2.586000,-1.156851
2.587000,-1.233221
2.588000,-1.167034
2.589000,-1.111030
2.590000,-1.151760
2.591000,-1.209037
2.592000,-1.142850
2.593000,-1.048661
2.594000,-1.020659
2.595000,-1.014294
2.596000,-0.993929
2.597000,-0.797913
2.598000,-0.669358
2.599000,-0.671903
2.600000,-0.730453
2.601000,-0.841190
2.602000,-0.972291
2.603000,-1.149214
2.604000,-1.355413
2.605000,-1.686349
2.606000,-1.958734
2.607000,-2.128021
2.608000,-2.279487
2.609000,-2.154750
2.610000,-2.070743
2.611000,-1.841634
2.612000,-1.755082
2.613000,-1.720715
2.614000,-1.609979
2.615000,-1.399962
2.616000,-1.183581
2.617000,-1.108484
2.618000,-1.005385
2.619000,-0.963381
2.620000,-0.836098
2.621000,-0.757183
2.622000,-0.720271
2.623000,-0.881920
2.624000,-1.263769
2.625000,-1.429237
2.626000,-1.781811
2.627000,-2.195481
2.628000,-2.334219
2.629000,-2.120384
2.630000,-1.957461
2.631000,-1.748717
2.632000,-1.631617
2.633000,-1.595978
2.634000,-1.538700
2.635000,-1.181035
2.636000,-0.810642
2.637000,-0.817006
2.638000,-0.911195
2.639000,-0.990111
2.640000,-1.163216
2.641000,-1.477605
2.642000,-1.561611
2.643000,-1.707987
2.644000,-2.154750
2.645000,-2.355857
2.646000,-2.606605
2.647000,-2.830623
2.648000,-3.145012
2.649000,-3.006273
2.650000,-2.455138
2.651000,-2.184025
2.652000,-1.873455
2.653000,-1.588341
2.654000,-1.275225
2.655000,-1.158124
2.656000,-0.859009
2.657000,-0.552257
2.658000,-0.363878
2.659000,-0.312965
2.660000,-0.338422
2.661000,-0.464432
2.662000,-0.864101
2.663000,-1.163216
2.664000,-1.667256
2.665000,-1.998192
2.666000,-2.150932
2.667000,-2.199299
2.668000,-2.330401
2.669000,-2.284579
2.670000,-2.124202
2.671000,-2.070743
2.672000,-1.921822
2.673000,-1.704168
2.674000,-1.695259
2.675000,-1.705441
2.676000,-1.665983
2.677000,-1.713078
2.678000,-1.650709
2.679000,-1.533609
2.680000,-1.537428
2.681000,-1.424146
2.682000,-1.421600
2.683000,-1.326138
2.684000,-1.285407
2.685000,-1.253586
2.686000,-1.343957
2.687000,-1.285407
2.688000,-1.249768
2.689000,-1.382142
2.690000,-1.319774
2.691000,-1.212856
2.692000,-1.060116
2.693000,-0.797913
2.694000,-0.731726
2.695000,-0.771184
2.696000,-0.833553
2.697000,-0.907377
2.698000,-1.065208
2.699000,-1.291771
2.700000,-1.429237
2.701000,-1.457239
2.702000,-1.626526
2.703000,-1.840361
2.704000,-2.008375
2.705000,-2.021103
2.706000,-1.850544
2.707000,-1.739808
2.708000,-1.844180
2.709000,-2.162387
2.710000,-2.410589
2.711000,-2.168751
2.712000,-1.802176
2.713000,-1.714351
2.714000,-1.634163
2.715000,-1.477605
2.716000,-1.413963
2.717000,-1.318501
2.718000,-1.214129
2.719000,-1.253586
2.720000,-1.282862
2.721000,-1.122485
2.722000,-1.098301
2.723000,-1.095756
2.724000,-1.083027
2.725000,-1.196309
2.726000,-1.229403
2.727000,-1.161943
2.728000,-1.203946
2.729000,-1.175944
2.730000,-1.300681
2.731000,-1.305773
2.732000,-1.042297
2.733000,-0.991384
2.734000,-0.996475
2.735000,-1.046115
2.736000,-1.293044
2.737000,-1.508152
2.738000,-1.573067
2.739000,-1.901457
2.740000,-1.962553
2.741000,-1.789448
2.742000,-1.595978
2.743000,-1.234494
2.744000,-0.931561
2.745000,-0.752091
2.746000,-0.659175
2.747000,-0.824643
2.748000,-1.104665
2.749000,-1.275225
2.750000,-1.560339
2.751000,-1.648164
2.752000,-1.870909
2.753000,-2.535326
2.754000,-2.671519
2.755000,-2.601513
2.756000,-2.959179
2.757000,-3.240474
2.758000,-3.092826
2.759000,-2.554419
2.760000,-2.038923
2.761000,-1.631617
2.762000,-1.500516
2.763000,-1.448329
2.764000,-1.489060
2.765000,-1.434328
2.766000,-1.375778
2.767000,-1.336320
2.768000,-1.355413
2.769000,-1.463603
2.770000,-1.501788
2.771000,-1.454694
2.772000,-1.519608
2.773000,-1.719442
2.774000,-1.733443
2.775000,-1.644345
2.776000,-1.641800
2.777000,-1.433056
2.778000,-1.182308
2.779000,-0.963381
2.780000,-0.776275
2.781000,-0.732999
2.782000,-0.675722
2.783000,-1.011749
2.784000,-1.088119
2.785000,-0.906104
2.786000,-0.907377
2.787000,-0.985019
2.788000,-1.159397
2.789000,-1.417782
2.790000,-1.713078
2.791000,-1.884910
2.792000,-2.061834
2.793000,-2.149659
2.794000,-1.767810
2.795000,-1.356686
2.796000,-1.062662
2.797000,-0.888284
2.798000,-0.732999
2.799000,-0.671903
2.800000,-0.752091
2.801000,-0.912468
2.802000,-1.234494
2.803000,-1.550156
2.804000,-1.646891
2.805000,-1.710532
2.806000,-1.780538
2.807000,-1.671075
2.808000,-1.752536
2.809000,-1.943460
2.810000,-1.841634
2.811000,-1.837815
2.812000,-1.734716
2.813000,-1.587068
2.814000,-1.354140
2.815000,-1.525972
2.816000,-1.603615
2.817000,-1.523426
2.818000,-1.667256
2.819000,-1.613797
2.820000,-1.445784
2.821000,-1.555247
2.822000,-1.821269
2.823000,-2.201845
2.824000,-2.184025
2.825000,-2.003283
2.826000,-1.884910
2.827000,-1.876000
2.828000,-1.942188
2.829000,-1.993101
2.830000,-1.835270
2.831000,-1.571794
2.832000,-1.356686
2.833000,-1.248495
2.834000,-1.128849
2.835000,-1.133940
2.836000,-1.195036
2.837000,-1.282862
2.838000,-1.326138
2.839000,-1.369414
2.840000,-1.422873
2.841000,-1.471240
2.842000,-1.450875
2.843000,-1.328683
2.844000,-1.287953
2.845000,-1.280316
2.846000,-1.244677
2.847000,-1.245950
2.848000,-1.239585
2.849000,-1.247222
2.850000,-1.219220
2.851000,-1.375778
2.852000,-1.537428
2.853000,-1.429237
2.854000,-1.281589
2.855000,-1.093210
2.856000,-0.865373
2.857000,-0.682086
2.858000,-0.548439
2.859000,-0.335876
2.860000,-0.179318
2.861000,-0.012577
2.862000,0.029426
2.863000,-0.133496
2.864000,-0.440248
2.865000,-0.897194
2.866000,-1.593432
2.867000,-2.148386
2.868000,-2.325309
2.869000,-2.675338
2.870000,-2.764436
2.871000,-2.770800
2.872000,-3.375394
2.873000,-3.248111
2.874000,-2.906993
2.875000,-3.024093
2.876000,-2.994818
2.877000,-2.573511
2.878000,-2.157296
2.879000,-2.143295
2.880000,-2.147113
2.881000,-1.879819
2.882000,-1.789448
2.883000,-1.574340
2.884000,-1.430510
2.885000,-1.510698
2.886000,-1.529791
2.887000,-1.478877
2.888000,-1.426691
2.889000,-1.430510
2.890000,-1.393598
2.891000,-1.388506
2.892000,-1.499243
2.893000,-1.634163
2.894000,-1.480150
2.895000,-1.377051
2.896000,-1.443238
2.897000,-1.359231
2.898000,-1.136486
2.899000,-1.041024
2.900000,-1.102120
2.901000,-1.135213
2.902000,-1.032114
2.903000,-0.977382
2.904000,-1.116121
2.905000,-1.341412
2.906000,-1.431783
2.907000,-1.352867
2.908000,-1.318501
2.909000,-1.299408
2.910000,-1.329956
2.911000,-1.365596
2.912000,-1.361777
2.913000,-1.309591
2.914000,-1.378324
2.915000,-1.461058
2.916000,-1.527245
2.917000,-1.566703
2.918000,-1.475059
2.919000,-1.370687
2.920000,-1.323592
2.921000,-1.254859
2.922000,-1.172125
2.923000,-1.168307
2.924000,-1.249768
2.925000,-1.374505
2.926000,-1.480150
2.927000,-1.399962
2.928000,-1.365596
2.929000,-1.422873
2.930000,-1.349049
2.931000,-1.304500
2.932000,-1.318501
2.933000,-0.983747
2.934000,-0.516618
2.935000,-0.195865
2.936000,0.382000
2.937000,0.690025
2.938000,0.669660
2.939000,0.476189
2.940000,-0.022760
2.941000,-0.576441
2.942000,-1.230676
2.943000,-1.795812
2.944000,-2.492050
2.945000,-3.185742
2.946000,-3.739423
2.947000,-3.871798
2.948000,-3.911256
2.949000,-3.922711
2.950000,-3.768699
2.951000,-3.492494
2.952000,-3.015183
2.953000,-2.679156
2.954000,-2.455138
2.955000,-2.214573
2.956000,-1.957461
2.957000,-1.775447
2.958000,-1.645618
2.959000,-1.473786
2.960000,-1.496697
2.961000,-1.377051
2.962000,-1.207765
2.963000,-1.175944
2.964000,-1.223039
2.965000,-1.249768
2.966000,-1.234494
2.967000,-1.168307
2.968000,-1.352867
2.969000,-1.399962
2.970000,-1.230676
2.971000,-1.086846
2.972000,-1.127576
2.973000,-1.305773
2.974000,-1.514517
2.975000,-1.338866
2.976000,-1.165761
2.977000,-1.137759
2.978000,-1.453421
2.979000,-1.721988
2.980000,-1.454694
2.981000,-1.478877
2.982000,-1.417782
2.983000,-1.229403
2.984000,-1.225584
2.985000,-1.215402
2.986000,-1.147942
2.987000,-1.210310
2.988000,-1.421600
2.989000,-1.518335
2.990000,-1.539973
2.991000,-1.508152
2.992000,-1.448329
2.993000,-1.399962
2.994000,-1.351594
2.995000,-1.256132
2.996000,-1.231948
2.997000,-1.458512
2.998000,-1.550156
2.999000,-1.501788
3.000000,-1.545065
3.001000,-1.646891
3.002000,-1.713078
3.003000,-1.509425
3.004000,-1.257405
3.005000,-1.063935
3.006000,-0.976110
3.007000,-0.918832
3.008000,-0.930288
3.009000,-0.982474
3.010000,-1.117394
3.011000,-1.321046
3.012000,-1.534882
3.013000,-1.592159
3.014000,-1.636708
3.015000,-1.839088
3.016000,-1.811086
3.017000,-1.858181
3.018000,-1.700350
3.019000,-1.495424
3.020000,-1.394871
3.021000,-1.234494
3.022000,-0.971018
3.023000,-0.847554
3.024000,-0.907377
3.025000,-0.951926
3.026000,-1.076663
3.027000,-1.319774
3.028000,-1.557793
3.029000,-1.841634
3.030000,-2.096200
3.031000,-1.986737
3.032000,-1.836543
3.033000,-1.761446
3.034000,-1.644345
3.035000,-1.415236
3.036000,-1.429237
3.037000,-1.536155
3.038000,-1.590886
3.039000,-1.721988
3.040000,-1.823814
3.041000,-1.818723
3.042000,-1.998192
3.043000,-2.037650
3.044000,-2.022376
3.045000,-1.995646
3.046000,-1.752536
3.047000,-1.449602
3.048000,-1.329956
3.049000,-1.220493
3.050000,-1.165761
3.051000,-1.071572
3.052000,-1.066480
3.053000,-1.172125
3.054000,-1.270133
3.055000,-1.267588
3.056000,-1.396143
3.057000,-1.705441
3.058000,-2.058015
3.059000,-2.050378
3.060000,-1.928186
3.061000,-1.539973
3.062000,-0.968473
3.063000,-0.590442
3.064000,-0.418610
3.065000,-0.456795
3.066000,-0.624808
3.067000,-0.706270
3.068000,-0.772457
3.069000,-1.015567
3.070000,-1.317228
3.071000,-1.519608
3.072000,-1.475059
3.073000,-1.752536
3.074000,-1.881092
3.075000,-1.971463
3.076000,-1.725806
3.077000,-1.650709
3.078000,-1.765264
3.079000,-1.887456
3.080000,-2.292216
3.081000,-2.915902
3.082000,-3.282477
3.083000,-3.458128
3.084000,-3.132284
3.085000,-2.562056
3.086000,-2.074562
3.087000,-1.915458
3.088000,-1.825087
3.089000,-1.685076
3.090000,-1.648164
3.091000,-1.524699
3.092000,-1.285407
3.093000,-1.153033
3.094000,-1.209037
3.095000,-1.187399
3.096000,-1.242131
3.097000,-1.338866
3.098000,-1.357959
3.099000,-1.280316
3.100000,-1.284134
3.101000,-1.335048
3.102000,-1.443238
3.103000,-1.664711
3.104000,-1.808540
3.105000,-1.623980
3.106000,-1.379597
3.107000,-1.212856
3.108000,-1.151760
3.109000,-1.137759
3.110000,-1.051207
3.111000,-1.004112
3.112000,-1.055025
3.113000,-1.098301
3.114000,-1.146669
3.115000,-1.196309
3.116000,-1.433056
3.117000,-1.382142
3.118000,-1.287953
3.119000,-1.252314
3.120000,-1.201400
3.121000,-1.147942
3.122000,-1.093210
3.123000,-1.117394
3.124000,-1.088119
3.125000,-1.051207
3.126000,-0.962108
3.127000,-0.843735
3.128000,-0.803005
3.129000,-0.744455
3.130000,-0.860282
3.131000,-0.990111
3.132000,-1.027023
3.133000,-1.127576
3.134000,-1.371960
3.135000,-1.751263
3.136000,-2.023649
3.137000,-2.246394
3.138000,-2.259122
3.139000,-2.344402
3.140000,-2.251485
3.141000,-2.003283
3.142000,-1.590886
3.143000,-1.438147
3.144000,-1.402508
3.145000,-1.399962
3.146000,-1.305773
3.147000,-1.183581
3.148000,-1.047388
3.149000,-0.959563
3.150000,-1.111030
3.151000,-1.321046
3.152000,-1.234494
3.153000,-0.862828
3.154000,-0.752091
3.155000,-0.856464
3.156000,-0.786458
3.157000,-0.953199
3.158000,-1.097028
3.159000,-1.312137
3.160000,-1.643072
3.161000,-1.876000
3.162000,-1.576885
3.163000,-1.410145
3.164000,-1.407599
3.165000,-1.672348
3.166000,-1.783084
3.167000,-2.158569
3.168000,-2.666428
3.169000,-3.148830
3.170000,-3.720331
3.171000,-3.881980
3.172000,-3.885799
3.173000,-3.792882
3.174000,-3.062278
3.175000,-2.546782
3.176000,-2.259122
3.177000,-2.000738
3.178000,-1.760173
3.179000,-1.539973
3.180000,-1.435601
3.181000,-1.315955
3.182000,-1.226857
3.183000,-1.173398
3.184000,-1.192491
3.185000,-1.273952
3.186000,-1.191218
3.187000,-1.163216
3.188000,-1.161943
3.189000,-1.111030
3.190000,-1.021931
3.191000,-0.958290
3.192000,-0.920105
3.193000,-0.925196
3.194000,-0.944289
3.195000,-0.941743
3.196000,-0.934106
3.197000,-0.857736
3.198000,-0.702451
3.199000,-0.489889
3.200000,-0.351150
3.201000,-0.305328
3.202000,-0.455522
3.203000,-0.655356
3.204000,-0.730453
3.205000,-0.917559
3.206000,-1.182308
3.207000,-1.441965
3.208000,-1.576885
3.209000,-1.833997
3.210000,-1.919277
3.211000,-2.102564
3.212000,-2.204390
3.213000,-2.026194
3.214000,-1.961280
3.215000,-2.012193
3.216000,-1.984191
3.217000,-1.724534
3.218000,-1.545065
3.219000,-1.475059
3.220000,-1.511971
3.221000,-1.683803
3.222000,-1.649437
3.223000,-1.617616
3.224000,-1.522154
3.225000,-1.020659
3.226000,-0.730453
3.227000,-0.622263
3.228000,-0.552257
3.229000,-0.520436
3.230000,-0.673176
3.231000,-0.763547
3.232000,-1.067753
3.233000,-1.396143
3.234000,-1.705441
3.235000,-2.023649
3.236000,-2.358403
3.237000,-2.443683
3.238000,-2.471685
3.239000,-2.250212
3.240000,-2.185298
3.241000,-2.021103
3.242000,-1.854362
3.243000,-1.900184
3.244000,-2.114020
3.245000,-2.033831
3.246000,-1.876000
3.247000,-1.645618
3.248000,-1.637981
3.249000,-1.769083
3.250000,-1.623980
3.251000,-1.373233
3.252000,-1.265042
3.253000,-1.215402
3.254000,-0.958290
3.255000,-0.561167
3.256000,0.056156
3.257000,0.641657
3.258000,0.994231
3.259000,1.076965
3.260000,0.986594
3.261000,0.620019
3.262000,0.128707
3.263000,-0.505162
3.264000,-1.159397
3.265000,-2.212027
3.266000,-3.279932
3.267000,-4.375838
3.268000,-4.890062
3.269000,-5.130627
3.270000,-4.926974
3.271000,-4.316015
3.272000,-3.552317
3.273000,-2.970634
3.274000,-2.629516
3.275000,-2.371131
3.276000,-2.182752
3.277000,-2.040195
3.278000,-1.789448
3.279000,-1.601069
3.280000,-1.487787
3.281000,-1.371960
3.282000,-1.265042
3.283000,-1.189945
3.284000,-1.074117
3.285000,-0.979928
3.286000,-0.950653
3.287000,-0.932833
3.288000,-0.881920
3.289000,-0.879374
3.290000,-0.923924
3.291000,-0.939197
3.292000,-0.920105
3.293000,-1.033387
3.294000,-1.075390
3.295000,-1.098301
3.296000,-0.974837
3.297000,-0.878102
3.298000,-0.609535
3.299000,-0.374061
3.300000,-0.213684
3.301000,-0.268416
3.302000,-0.318056
3.303000,-0.337149
3.304000,-0.399518
3.305000,-0.526801
3.306000,-0.789004
3.307000,-1.186127
3.308000,-1.509425
3.309000,-1.845452
3.310000,-2.051651
3.311000,-2.177661
3.312000,-2.219664
3.313000,-2.312581
3.314000,-2.652427
3.315000,-2.604059
3.316000,-2.779710
3.317000,-2.649881
3.318000,-2.521325
3.319000,-2.296034
3.320000,-1.995646
3.321000,-1.724534
3.322000,-1.509425
3.323000,-1.298136
3.324000,-1.182308
3.325000,-1.090664
3.326000,-1.005385
3.327000,-0.831007
3.328000,-0.780094
3.329000,-0.716452
3.330000,-0.665539
3.331000,-0.739363
3.332000,-0.962108
3.333000,-1.184854
3.334000,-1.394871
3.335000,-1.645618
3.336000,-1.705441
3.337000,-1.626526
3.338000,-1.650709
3.339000,-1.645618
3.340000,-1.769083
3.341000,-1.896366
3.342000,-1.948552
3.343000,-2.125475
3.344000,-2.110201
3.345000,-2.097473
3.346000,-2.045287
3.347000,-1.873455
3.348000,-1.900184
3.349000,-1.794539
3.350000,-1.576885
3.351000,-1.363050
3.352000,-1.257405
3.353000,-1.379597
3.354000,-1.453421
3.355000,-1.467422
3.356000,-1.475059
3.357000,-1.419054
3.358000,-1.392325
3.359000,-1.405053
3.360000,-1.282862
3.361000,-1.153033
3.362000,-1.117394
3.363000,-1.188672
3.364000,-1.300681
3.365000,-1.424146
3.366000,-1.411417
3.367000,-1.224311
3.368000,-1.132668
3.369000,-1.128849
3.370000,-1.058844
3.371000,-0.954471
3.372000,-0.881920
3.373000,-0.981201
3.374000,-1.170853
3.375000,-1.272679
3.376000,-1.359231
3.377000,-1.417782
3.378000,-1.466149
3.379000,-1.513244
3.380000,-1.491606
3.381000,-1.270133
3.382000,-1.506880
3.383000,-1.817450
3.384000,-1.965098
3.385000,-2.097473
3.386000,-2.186571
3.387000,-2.369858
3.388000,-2.385132
3.389000,-2.194208
3.390000,-2.105110
3.391000,-2.084744
3.392000,-1.996919
3.393000,-2.072016
3.394000,-2.047832
3.395000,-1.856908
3.396000,-1.756354
3.397000,-1.648164
3.398000,-1.257405
3.399000,-1.047388
3.400000,-0.803005
3.401000,-0.477160
3.402000,-0.323148
3.403000,-0.440248
3.404000,-0.533165
3.405000,-0.493707
3.406000,-0.543347
3.407000,-0.775002
3.408000,-1.163216
3.409000,-1.455966
3.410000,-1.679985
3.411000,-1.641800
3.412000,-1.566703
3.413000,-1.702895
3.414000,-1.595978
3.415000,-1.448329
3.416000,-1.445784
3.417000,-1.643072
3.418000,-2.059288
3.419000,-2.324037
3.420000,-2.380041
3.421000,-2.428409
3.422000,-2.433500
3.423000,-2.394042
3.424000,-2.292216
3.425000,-2.210755
3.426000,-2.168751
3.427000,-1.967644
3.428000,-1.814905
3.429000,-1.767810
3.430000,-1.700350
3.431000,-1.667256
3.432000,-1.607433
3.433000,-1.441965
3.434000,-1.287953
3.435000,-1.193763
3.436000,-1.127576
3.437000,-1.155579
3.438000,-1.060116
3.439000,-0.982474
3.440000,-0.972291
3.441000,-0.939197
3.442000,-0.963381
3.443000,-0.964654
3.444000,-0.913741
3.445000,-0.885739
3.446000,-0.874283
3.447000,-0.949380
3.448000,-1.175944
3.449000,-1.245950
3.450000,-1.287953
3.451000,-1.380869
3.452000,-1.257405
3.453000,-1.109757
3.454000,-1.165761
3.455000,-1.497970
3.456000,-1.767810
3.457000,-1.949824
3.458000,-2.030013
3.459000,-1.878546
3.460000,-1.762718
3.461000,-1.613797
3.462000,-1.336320
3.463000,-1.173398
3.464000,-1.216674
3.465000,-1.319774
3.466000,-1.440693
3.467000,-1.657074
3.468000,-1.789448
3.469000,-1.962553
3.470000,-2.308763
3.471000,-2.387678
3.472000,-2.414407
3.473000,-2.329128
3.474000,-1.974008
3.475000,-1.621434
3.476000,-1.501788
3.477000,-1.337593
3.478000,-1.131395
3.479000,-0.901013
3.480000,-0.679540
3.481000,-0.440248
3.482000,-0.245505
3.483000,-0.160226
3.484000,-0.216230
3.485000,-0.343513
3.486000,-0.482252
3.487000,-0.799186
3.488000,-1.461058
3.489000,-2.105110
3.490000,-2.344402
3.491000,-2.502233
3.492000,-2.582421
3.493000,-2.861171
3.494000,-2.937541
3.495000,-2.671519
3.496000,-2.525144
3.497000,-2.484413
3.498000,-2.282033
3.499000,-1.860726
3.500000,-1.528518
3.501000,-1.361777
3.502000,-1.116121
3.503000,-0.916287
3.504000,-0.787731
3.505000,-0.859009
3.506000,-1.065208
3.507000,-1.282862
3.508000,-1.557793
3.509000,-1.688894
3.510000,-1.716897
3.511000,-1.659619
3.512000,-1.547610
3.513000,-1.443238
3.514000,-1.478877
3.515000,-1.581977
3.516000,-1.571794
3.517000,-1.569248
3.518000,-1.475059
3.519000,-1.527245
3.520000,-1.634163
3.521000,-1.775447
3.522000,-1.676166
3.523000,-1.565430
3.524000,-1.466149
3.525000,-1.439420
3.526000,-1.396143
3.527000,-1.354140
3.528000,-1.168307
3.529000,-0.654084
3.530000,-0.273507
3.531000,0.007788
3.532000,0.220351
3.533000,0.327268
3.534000,0.196167
3.535000,-0.197138
3.536000,-0.604443
3.537000,-1.298136
3.538000,-2.110201
3.539000,-2.731342
3.540000,-3.123374
3.541000,-3.469584
3.542000,-3.454310
3.543000,-3.272295
3.544000,-3.036821
3.545000,-2.733888
3.546000,-2.276942
3.547000,-1.887456
3.548000,-1.657074
3.549000,-1.471240
3.550000,-1.314682
3.551000,-1.195036
3.552000,-1.112302
3.553000,-1.069026
3.554000,-1.010476
3.555000,-1.004112
3.556000,-1.354140
3.557000,-1.385961
3.558000,-1.155579
3.559000,-1.231948
3.560000,-1.790721
3.561000,-1.970190
3.562000,-1.952370
3.563000,-1.900184
3.564000,-1.657074
3.565000,-1.556520
3.566000,-1.524699
3.567000,-1.351594
3.568000,-1.113575
3.569000,-0.893376
3.570000,-0.768638
3.571000,-0.769911
3.572000,-0.876829
3.573000,-0.971018
3.574000,-0.968473
3.575000,-0.982474
3.576000,-1.007930
3.577000,-1.112302
3.578000,-1.168307
3.579000,-1.382142
3.580000,-1.517062
3.581000,-1.539973
3.582000,-1.531063
3.583000,-1.690167
3.584000,-1.797085
3.585000,-1.877273
3.586000,-1.988009
3.587000,-1.896366
3.588000,-1.753809
3.589000,-1.817450
3.590000,-1.980372
3.591000,-1.940915
3.592000,-1.872182
3.593000,-1.646891
3.594000,-1.590886
3.595000,-1.539973
3.596000,-1.379597
3.597000,-1.195036
3.598000,-0.979928
3.599000,-0.789004
3.600000,-0.646447
3.601000,-0.698633
3.602000,-0.796641
3.603000,-0.747000
3.604000,-0.707542
3.605000,-0.848827
3.606000,-1.130122
3.607000,-1.142850
3.608000,-1.207765
3.609000,-1.519608
3.610000,-1.602342
3.611000,-1.944733
3.612000,-2.364767
3.613000,-2.540418
3.614000,-2.442410
3.615000,-2.378768
3.616000,-2.232393
3.617000,-2.162387
3.618000,-2.354584
3.619000,-2.540418
3.620000,-2.457684
3.621000,-2.312581
3.622000,-2.152204
3.623000,-1.932005
3.624000,-1.895093
3.625000,-1.897638
3.626000,-1.893820
3.627000,-1.861999
3.628000,-1.711805
3.629000,-1.491606
3.630000,-1.296863
3.631000,-1.155579
3.632000,-1.030841
3.633000,-0.971018
3.634000,-0.979928
3.635000,-0.985019
3.636000,-0.951926
3.637000,-0.930288
3.638000,-1.030841
3.639000,-1.272679
3.640000,-1.242131
3.641000,-1.016840
3.642000,-1.030841
3.643000,-1.088119
3.644000,-1.009203
3.645000,-0.799186
3.646000,-0.819551
3.647000,-0.845008
3.648000,-1.015567
3.649000,-1.039751
3.650000,-1.163216
3.651000,-1.487787
3.652000,-1.602342
3.653000,-1.565430
3.654000,-1.567976
3.655000,-1.552702
3.656000,-1.592159
3.657000,-1.659619
3.658000,-1.669802
3.659000,-1.581977
3.660000,-1.294317
3.661000,-1.070299
3.662000,-1.170853
3.663000,-1.179762
3.664000,-1.301954
3.665000,-1.410145
3.666000,-1.392325
3.667000,-1.504334
3.668000,-1.780538
3.669000,-2.089836
3.670000,-2.341856
3.671000,-2.427136
3.672000,-2.392769
3.673000,-2.441137
3.674000,-2.324037
3.675000,-2.049105
3.676000,-1.795812
3.677000,-1.686349
3.678000,-1.728352
3.679000,-1.580704
3.680000,-1.387234
3.681000,-1.355413
3.682000,-1.385961
3.683000,-1.356686
3.684000,-1.265042
3.685000,-1.249768
3.686000,-1.323592
3.687000,-1.462331
3.688000,-1.466149
3.689000,-1.532336
3.690000,-1.585795
3.691000,-1.519608
3.692000,-1.337593
3.693000,-1.265042
3.694000,-1.000293
3.695000,-0.794095
3.696000,-0.781367
3.697000,-0.679540
3.698000,-0.552257
3.699000,-0.493707
3.700000,-0.595533
3.701000,-0.814460
3.702000,-1.104665
3.703000,-1.375778
3.704000,-1.366868
3.705000,-1.570521
3.706000,-1.960007
3.707000,-2.353312
3.708000,-2.702067
3.709000,-2.864989
3.710000,-2.676610
3.711000,-2.593876
3.712000,-2.680429
3.713000,-2.903174
3.714000,-2.541690
3.715000,-2.147113
3.716000,-1.863272
3.717000,-1.658346
3.718000,-1.443238
3.719000,-1.315955
3.720000,-1.315955
3.721000,-1.216674
3.722000,-0.995202
3.723000,-0.790276
3.724000,-0.627354
3.725000,-0.516618
3.726000,-0.503890
3.727000,-0.535710
3.728000,-0.776275
3.729000,-1.044842
3.730000,-1.257405
3.731000,-1.573067
3.732000,-1.990555
3.733000,-2.208209
3.734000,-2.120384
3.735000,-1.900184
3.736000,-1.756354
3.737000,-1.827633
3.738000,-1.800903
3.739000,-1.616343
3.740000,-1.771628
3.741000,-1.443238
3.742000,-1.109757
3.743000,-0.983747
3.744000,-0.819551
3.745000,-0.676995
3.746000,-0.396972
3.747000,-0.295146
3.748000,-0.164044
3.749000,-0.194592
3.750000,-0.370242
3.751000,-0.618444
3.752000,-0.908650
3.753000,-1.231948
3.754000,-1.487787
3.755000,-1.785629
3.756000,-2.135658
3.757000,-2.632061
3.758000,-3.272295
3.759000,-3.557409
3.760000,-3.413579
3.761000,-3.297751
3.762000,-2.936268
3.763000,-2.528962
3.764000,-2.353312
3.765000,-2.002011
3.766000,-1.662165
3.767000,-1.411417
3.768000,-1.422873
3.769000,-1.363050
3.770000,-1.290499
3.771000,-1.440693
3.772000,-1.243404
3.773000,-0.876829
3.774000,-0.778821
3.775000,-0.689723
3.776000,-0.660448
3.777000,-0.993929
3.778000,-1.350322
3.779000,-1.434328
3.780000,-1.524699
3.781000,-1.603615
3.782000,-1.649437
3.783000,-1.635435
3.784000,-1.550156
3.785000,-1.556520
3.786000,-1.411417
3.787000,-1.457239
3.788000,-1.475059
3.789000,-1.318501
3.790000,-1.315955
3.791000,-1.347776
3.792000,-1.265042
3.793000,-1.135213
3.794000,-1.071572
3.795000,-1.160670
3.796000,-1.112302
3.797000,-1.229403
3.798000,-1.266315
3.799000,-1.317228
3.800000,-1.393598
3.801000,-1.503061
3.802000,-1.511971
3.803000,-1.365596
3.804000,-1.315955
3.805000,-1.482696
3.806000,-1.499243
3.807000,-1.315955
3.808000,-1.420327
3.809000,-1.571794
3.810000,-1.734716
3.811000,-1.688894
3.812000,-1.697804
3.813000,-1.607433
3.814000,-1.688894
3.815000,-1.822541
3.816000,-1.896366
3.817000,-1.837815
3.818000,-1.753809
3.819000,-1.664711
3.820000,-1.630344
3.821000,-1.685076
3.822000,-1.672348
3.823000,-1.419054
3.824000,-1.284134
3.825000,-1.389779
3.826000,-1.397416
3.827000,-1.249768
3.828000,-1.085573
3.829000,-0.888284
3.830000,-0.796641
3.831000,-0.740636
3.832000,-0.660448
3.833000,-0.713907
3.834000,-0.963381
3.835000,-1.212856
3.836000,-1.440693
3.837000,-1.749990
3.838000,-2.044014
3.839000,-2.318945
3.840000,-2.536599
3.841000,-2.464048
3.842000,-2.366040
3.843000,-2.121657
3.844000,-1.878546
3.845000,-1.753809
3.846000,-1.524699
3.847000,-1.379597
3.848000,-1.305773
3.849000,-1.271406
3.850000,-1.317228
3.851000,-1.341412
3.852000,-1.341412
3.853000,-1.317228
3.854000,-1.142850
3.855000,-1.125031
3.856000,-1.249768
3.857000,-1.118667
3.858000,-1.067753
3.859000,-1.006657
3.860000,-0.755910
3.861000,-0.651538
3.862000,-0.554803
3.863000,-0.601898
3.864000,-0.749546
3.865000,-1.284134
3.866000,-1.963826
3.867000,-2.346947
3.868000,-2.502233
3.869000,-2.658791
3.870000,-2.875172
3.871000,-2.724978
3.872000,-2.560783
3.873000,-2.542963
3.874000,-2.596422
3.875000,-2.598968
3.876000,-2.189117
3.877000,-1.812359
3.878000,-1.589614
3.879000,-1.377051
3.880000,-1.198855
3.881000,-0.985019
3.882000,-1.015567
3.883000,-0.926469
3.884000,-0.827188
3.885000,-0.870465
3.886000,-0.959563
3.887000,-0.972291
3.888000,-1.179762
3.889000,-1.475059
3.890000,-1.585795
3.891000,-1.509425
3.892000,-1.476332
3.893000,-1.603615
3.894000,-1.625253
3.895000,-1.643072
3.896000,-1.550156
3.897000,-1.370687
3.898000,-1.163216
3.899000,-1.002839
3.900000,-0.827188
3.901000,-0.859009
3.902000,-0.845008
3.903000,-0.918832
3.904000,-0.935379
3.905000,-0.954471
3.906000,-1.159397
3.907000,-1.562884
3.908000,-2.023649
3.909000,-2.380041
3.910000,-2.638426
3.911000,-2.629516
3.912000,-2.416953
3.913000,-2.237484
3.914000,-2.107655
3.915000,-2.105110
3.916000,-1.907821
3.917000,-1.691440
3.918000,-1.542519
3.919000,-1.398689
3.920000,-1.266315
3.921000,-1.007930
3.922000,-0.885739
3.923000,-0.838644
3.924000,-0.720271
3.925000,-0.708815
3.926000,-0.795368
3.927000,-0.881920
3.928000,-1.047388
3.929000,-1.365596
3.930000,-1.513244
3.931000,-1.478877
3.932000,-1.578158
3.933000,-1.602342
3.934000,-1.494151
3.935000,-1.523426
3.936000,-1.686349
3.937000,-1.380869
3.938000,-1.216674
3.939000,-0.950653
3.940000,-0.892103
3.941000,-0.748273
3.942000,-0.777548
3.943000,-1.177217
3.944000,-1.687622
3.945000,-1.921822
3.946000,-2.005829
3.947000,-2.125475
3.948000,-2.268032
3.949000,-2.400406
3.950000,-2.677883
3.951000,-2.596422
3.952000,-2.749162
3.953000,-2.763163
3.954000,-2.233666
3.955000,-1.847998
3.956000,-1.634163
3.957000,-1.469968
3.958000,-1.266315
3.959000,-1.122485
3.960000,-0.937925
3.961000,-1.135213
3.962000,-1.403780
3.963000,-1.351594
3.964000,-1.249768
3.965000,-1.294317
3.966000,-1.125031
3.967000,-1.075390
3.968000,-0.950653
3.969000,-0.898467
3.970000,-0.866646
3.971000,-0.707542
3.972000,-0.689723
3.973000,-0.815733
3.974000,-0.964654
3.975000,-1.234494
3.976000,-1.751263
3.977000,-2.186571
3.978000,-2.241303
3.979000,-2.346947
3.980000,-2.456411
3.981000,-2.331673
3.982000,-2.205663
3.983000,-2.009648
3.984000,-1.769083
3.985000,-1.506880
3.986000,-1.308318
3.987000,-1.253586
3.988000,-1.351594
3.989000,-1.383415
3.990000,-1.427964
3.991000,-1.416509
3.992000,-1.328683
3.993000,-1.214129
3.994000,-1.156851
3.995000,-1.144123
3.996000,-1.140305
3.997000,-1.060116
3.998000,-1.081754
3.999000,-1.116121
4.000000,-1.049934
4.001000,-1.057571
4.002000,-1.010476
4.003000,-0.971018
4.004000,-0.953199
4.005000,-0.977382
4.006000,-1.021931
4.007000,-1.183581
4.008000,-1.392325
4.009000,-1.687622
4.010000,-1.833997
4.011000,-1.849271
4.012000,-1.776720
4.013000,-1.688894
4.014000,-1.702895
4.015000,-1.804722
4.016000,-1.734716
4.017000,-1.685076
4.018000,-1.713078
4.019000,-1.914185
4.020000,-2.083472
4.021000,-2.107655
4.022000,-2.134385
4.023000,-1.951097
4.024000,-1.953643
4.025000,-2.075835
4.026000,-1.893820
4.027000,-1.593432
4.028000,-1.570521
4.029000,-1.546337
4.030000,-1.427964
4.031000,-1.193763
4.032000,-1.019386
4.033000,-1.248495
4.034000,-1.581977
4.035000,-1.557793
4.036000,-1.556520
4.037000,-1.533609
4.038000,-1.634163
4.039000,-1.514517
4.040000,-1.457239
4.041000,-1.333775
4.042000,-1.277770
4.043000,-1.191218
4.044000,-1.209037
4.045000,-1.151760
4.046000,-1.184854
4.047000,-0.954471
4.048000,-0.745727
4.049000,-0.689723
4.050000,-0.711361
4.051000,-0.841190
4.052000,-1.088119
4.053000,-1.240858
4.054000,-1.466149
4.055000,-1.947279
4.056000,-2.298580
4.057000,-2.401679
4.058000,-2.338038
4.059000,-2.340583
4.060000,-2.452592
4.061000,-2.391497
4.062000,-2.232393
4.063000,-2.079653
4.064000,-1.991828
4.065000,-1.976554
4.066000,-1.898911
4.067000,-1.761446
4.068000,-1.607433
4.069000,-1.443238
4.070000,-1.277770
4.071000,-1.014294
4.072000,-0.861555
4.073000,-0.804278
4.074000,-0.769911
4.075000,-0.777548
4.076000,-0.885739
4.077000,-1.013022
4.078000,-1.147942
4.079000,-1.294317
4.080000,-1.467422
4.081000,-1.408872
4.082000,-1.492879
4.083000,-1.449602
4.084000,-1.313410
4.085000,-1.212856
4.086000,-1.343957
4.087000,-1.592159
4.088000,-1.788175
4.089000,-1.784357
4.090000,-1.713078
4.091000,-1.588341
4.092000,-1.396143
4.093000,-1.382142
4.094000,-1.393598
4.095000,-1.413963
4.096000,-1.220493
4.097000,-1.140305
4.098000,-1.155579
4.099000,-1.315955
4.100000,-1.495424
4.101000,-1.630344
4.102000,-1.673620
4.103000,-1.669802
4.104000,-1.844180
4.105000,-1.962553
4.106000,-1.963826
4.107000,-1.977827
4.108000,-1.846725
4.109000,-1.593432
4.110000,-1.293044
4.111000,-1.168307
4.112000,-1.160670
4.113000,-1.098301
4.114000,-0.881920
4.115000,-0.738090
4.116000,-0.595533
4.117000,-0.516618
4.118000,-0.225140
4.119000,0.160528
4.120000,0.268718
4.121000,0.094340
4.122000,-0.193319
4.123000,-0.650265
4.124000,-0.934106
4.125000,-1.352867
4.126000,-1.813632
4.127000,-2.497141
4.128000,-2.931176
4.129000,-3.558682
4.130000,-4.382203
4.131000,-4.636769
4.132000,-4.288013
4.133000,-3.842523
4.134000,-3.293933
4.135000,-2.632061
4.136000,-2.167478
4.137000,-1.888729
4.138000,-1.508152
4.139000,-1.210310
4.140000,-1.035933
4.141000,-0.954471
4.142000,-0.794095
4.143000,-0.747000
4.144000,-0.797913
4.145000,-0.926469
4.146000,-1.047388
4.147000,-1.301954
4.148000,-1.420327
4.149000,-1.822541
4.150000,-1.867091
4.151000,-1.615070
4.152000,-1.494151
4.153000,-1.648164
4.154000,-1.739808
4.155000,-1.645618
4.156000,-1.609979
4.157000,-1.434328
4.158000,-1.197582
4.159000,-1.046115
4.160000,-1.043570
4.161000,-0.951926
4.162000,-0.805550
4.163000,-0.783912
4.164000,-0.902285
4.165000,-0.982474
4.166000,-0.974837
4.167000,-1.097028
4.168000,-1.238313
4.169000,-1.262496
4.170000,-1.467422
4.171000,-1.718169
4.172000,-1.817450
4.173000,-1.896366
4.174000,-1.912912
4.175000,-1.779265
4.176000,-1.693986
4.177000,-1.533609
4.178000,-1.365596
4.179000,-1.424146
4.180000,-1.476332
4.181000,-1.373233
4.182000,-1.275225
4.183000,-1.271406
4.184000,-1.426691
4.185000,-1.537428
4.186000,-1.601069
4.187000,-1.571794
4.188000,-1.440693
4.189000,-1.377051
4.190000,-1.462331
4.191000,-1.385961
4.192000,-1.168307
4.193000,-1.095756
4.194000,-1.113575
4.195000,-1.174671
4.196000,-1.209037
4.197000,-1.161943
4.198000,-1.172125
4.199000,-1.184854
4.200000,-0.995202
4.201000,-0.929015
4.202000,-0.817006
4.203000,-0.801732
4.204000,-0.803005
4.205000,-0.991384
4.206000,-1.177217
4.207000,-1.201400
4.208000,-1.455966
4.209000,-1.947279
4.210000,-2.396588
4.211000,-2.763163
4.212000,-2.708431
4.213000,-2.498414
4.214000,-2.646063
4.215000,-2.691884
4.216000,-2.339310
4.217000,-1.976554
4.218000,-1.697804
4.219000,-1.538700
4.220000,-1.240858
4.221000,-0.995202
4.222000,-0.797913
4.223000,-0.729181
4.224000,-0.801732
4.225000,-1.033387
4.226000,-1.301954
4.227000,-1.522154
4.228000,-1.664711
4.229000,-1.878546
4.230000,-2.070743
4.231000,-2.208209
4.232000,-1.975281
4.233000,-1.888729
4.234000,-1.812359
4.235000,-1.575612
4.236000,-1.294317
4.237000,-1.253586
4.238000,-1.287953
4.239000,-1.048661
4.240000,-0.918832
4.241000,-1.005385
4.242000,-1.272679
4.243000,-1.662165
4.244000,-1.831451
4.245000,-1.909094
4.246000,-2.008375
4.247000,-2.070743
4.248000,-2.105110
4.249000,-1.921822
4.250000,-1.822541
4.251000,-1.827633
4.252000,-1.947279
4.253000,-1.918004
4.254000,-1.769083
4.255000,-1.683803
4.256000,-1.673620
4.257000,-1.622707
4.258000,-1.649437
4.259000,-1.588341
4.260000,-1.472513
4.261000,-1.422873
4.262000,-1.359231
4.263000,-1.426691
4.264000,-1.355413
4.265000,-1.271406
4.266000,-1.224311
4.267000,-1.280316
4.268000,-1.229403
4.269000,-1.169580
4.270000,-1.117394
4.271000,-1.020659
4.272000,-0.899740
4.273000,-0.915014
4.274000,-0.936652
4.275000,-0.939197
4.276000,-0.973564
4.277000,-0.957017
4.278000,-0.996475
4.279000,-1.055025
4.280000,-1.114848
4.281000,-1.282862
4.282000,-1.341412
4.283000,-1.392325
4.284000,-1.632890
4.285000,-1.863272
4.286000,-1.713078
4.287000,-1.533609
4.288000,-1.459785
4.289000,-1.490333
4.290000,-1.644345
4.291000,-2.049105
4.292000,-2.012193
4.293000,-1.809813
4.294000,-1.798358
4.295000,-1.761446
4.296000,-1.571794
4.297000,-1.517062
4.298000,-1.539973
4.299000,-1.612525
4.300000,-1.578158
4.301000,-1.458512
4.302000,-1.406326
4.303000,-1.346503
4.304000,-0.983747
4.305000,-0.422429
4.306000,-0.161498
4.307000,0.001424
4.308000,0.117251
4.309000,0.007788
4.310000,-0.300237
4.311000,-0.692268
4.312000,-1.216674
4.313000,-1.636708
4.314000,-1.878546
4.315000,-2.195481
4.316000,-2.327855
4.317000,-2.100018
4.318000,-1.916731
4.319000,-2.059288
4.320000,-2.708431
4.321000,-2.938813
4.322000,-2.746616
4.323000,-2.632061
4.324000,-2.511143
4.325000,-2.381314
4.326000,-2.256577
4.327000,-2.452592
4.328000,-2.747889
4.329000,-2.537872
4.330000,-2.107655
4.331000,-1.995646
4.332000,-1.981645
4.333000,-1.723261
4.334000,-1.532336
4.335000,-1.478877
4.336000,-1.481423
4.337000,-1.482696
4.338000,-1.491606
4.339000,-1.471240
4.340000,-1.378324
4.341000,-1.393598
4.342000,-1.252314
4.343000,-1.086846
4.344000,-1.111030
4.345000,-1.071572
4.346000,-0.925196
4.347000,-0.838644
4.348000,-0.775002
4.349000,-0.913741
4.350000,-1.027023
4.351000,-1.104665
4.352000,-1.192491
4.353000,-1.383415
4.354000,-1.485242
4.355000,-1.181035
4.356000,-0.903558
4.357000,-0.762274
4.358000,-0.626081
4.359000,-0.534438
4.360000,-0.494980
4.361000,-0.675722
4.362000,-0.860282
4.363000,-1.032114
4.364000,-1.230676
4.365000,-1.550156
4.366000,-1.911640
4.367000,-2.162387
4.368000,-2.350766
4.369000,-2.271850
4.370000,-2.075835
4.371000,-1.812359
4.372000,-1.707987
4.373000,-1.786902
4.374000,-1.802176
4.375000,-1.893820
4.376000,-1.960007
4.377000,-1.724534
4.378000,-1.394871
4.379000,-1.209037
4.380000,-1.105938
4.381000,-1.132668
4.382000,-1.305773
4.383000,-1.453421
4.384000,-1.444511
4.385000,-1.413963
4.386000,-1.937096
4.387000,-2.368586
4.388000,-2.438591
4.389000,-1.957461
4.390000,-1.551429
4.391000,-1.289226
4.392000,-0.995202
4.393000,-0.815733
4.394000,-0.680813
4.395000,-0.671903
4.396000,-0.880647
4.397000,-1.041024
4.398000,-1.109757
4.399000,-1.313410
4.400000,-1.620162
4.401000,-1.660892
4.402000,-1.786902
4.403000,-1.960007
4.404000,-2.070743
4.405000,-2.345675
4.406000,-2.657518
4.407000,-2.448774
4.408000,-2.055469
4.409000,-2.013466
4.410000,-2.087290
4.411000,-1.904003
4.412000,-1.664711
4.413000,-1.532336
4.414000,-1.425419
4.415000,-1.326138
4.416000,-1.212856
4.417000,-1.160670
4.418000,-1.079209
4.419000,-0.852645
4.420000,-0.589169
4.421000,-0.428793
4.422000,-0.170408
4.423000,-0.144952
4.424000,-0.342240
4.425000,-0.524255
4.426000,-0.853918
4.427000,-1.164488
4.428000,-1.458512
4.429000,-1.805995
4.430000,-2.288397
4.431000,-2.522598
4.432000,-2.360949
4.433000,-2.414407
4.434000,-2.285852
4.435000,-2.088563
4.436000,-1.877273
4.437000,-1.874728
4.438000,-1.715624
4.439000,-1.519608
4.440000,-1.396143
4.441000,-1.196309
4.442000,-0.977382
4.443000,-0.878102
4.444000,-0.590442
4.445000,-0.474615
4.446000,-0.599352
4.447000,-0.888284
4.448000,-1.265042
4.449000,-1.649437
4.450000,-2.004556
4.451000,-2.061834
4.452000,-2.215846
4.453000,-2.480595
4.454000,-2.558237
4.455000,-2.638426
4.456000,-2.792438
4.457000,-2.509870
4.458000,-1.957461
4.459000,-1.696531
4.460000,-1.519608
4.461000,-1.473786
4.462000,-1.472513
4.463000,-1.513244
4.464000,-1.453421
4.465000,-1.356686
4.466000,-1.251041
4.467000,-1.298136
4.468000,-1.135213
4.469000,-1.074117
4.470000,-1.076663
4.471000,-0.965927
4.472000,-1.002839
4.473000,-1.051207
4.474000,-1.294317
4.475000,-1.532336
4.476000,-1.679985
4.477000,-1.667256
4.478000,-1.612525
4.479000,-1.578158
4.480000,-1.640527
4.481000,-1.711805
4.482000,-1.617616
4.483000,-1.641800
4.484000,-1.733443
4.485000,-1.439420
4.486000,-1.193763
4.487000,-1.150487
4.488000,-1.244677
4.489000,-1.061389
4.490000,-0.996475
4.491000,-1.013022
4.492000,-1.095756
4.493000,-1.322319
4.494000,-1.305773
4.495000,-1.370687
4.496000,-1.565430
4.497000,-1.626526
4.498000,-1.791994
4.499000,-1.849271
4.500000,-1.845452
4.501000,-1.663438
4.502000,-1.356686
4.503000,-1.181035
4.504000,-1.123758
4.505000,-1.270133
4.506000,-1.396143
4.507000,-1.307045
4.508000,-1.220493
4.509000,-1.248495
4.510000,-1.263769
4.511000,-1.454694
4.512000,-1.545065
4.513000,-1.738535
4.514000,-2.028740
4.515000,-1.921822
4.516000,-1.676166
4.517000,-1.517062
4.518000,-1.435601
4.519000,-1.217947
4.520000,-1.172125
4.521000,-1.220493
4.522000,-1.397416
4.523000,-1.574340
4.524000,-1.805995
4.525000,-1.830178
4.526000,-1.802176
4.527000,-1.728352
4.528000,-1.617616
4.529000,-1.444511
4.530000,-1.327411
4.531000,-1.177217
4.532000,-1.028296
4.533000,-0.899740
4.534000,-0.927742
4.535000,-1.019386
4.536000,-1.177217
4.537000,-1.355413
4.538000,-1.379597
4.539000,-1.415236
4.540000,-1.590886
4.541000,-1.807268
4.542000,-1.728352
4.543000,-1.618889
4.544000,-1.626526
4.545000,-1.995646
4.546000,-2.241303
4.547000,-2.577330
4.548000,-2.666428
4.549000,-2.564601
4.550000,-2.270578
4.551000,-2.108928
4.552000,-2.002011
4.553000,-2.005829
4.554000,-1.943460
4.555000,-1.807268
4.556000,-1.724534
4.557000,-1.688894
4.558000,-1.480150
4.559000,-1.457239
4.560000,-1.447057
4.561000,-1.342685
4.562000,-1.281589
4.563000,-1.167034
4.564000,-1.125031
4.565000,-1.130122
4.566000,-1.132668
4.567000,-1.075390
4.568000,-0.993929
4.569000,-0.958290
4.570000,-0.945562
4.571000,-0.985019
4.572000,-0.999020
4.573000,-0.856464
4.574000,-0.780094
4.575000,-0.813187
4.576000,-0.796641
4.577000,-0.842462
4.578000,-1.048661
4.579000,-1.170853
4.580000,-1.364323
4.581000,-1.247222
4.582000,-1.197582
4.583000,-1.310864
4.584000,-1.473786
4.585000,-1.448329
4.586000,-1.515789
4.587000,-1.641800
4.588000,-1.685076
4.589000,-1.570521
4.590000,-1.609979
4.591000,-1.685076
4.592000,-1.693986
4.593000,-1.891274
4.594000,-1.911640
4.595000,-1.858181
4.596000,-1.888729
4.597000,-1.925641
4.598000,-2.004556
4.599000,-2.047832
4.600000,-2.259122
4.601000,-2.157296
4.602000,-1.532336
4.603000,-1.047388
4.604000,-0.878102
4.605000,-0.726635
4.606000,-0.662993
4.607000,-0.806823
4.608000,-0.951926
4.609000,-1.027023
4.610000,-1.112302
4.611000,-1.160670
4.612000,-1.346503
4.613000,-2.070743
4.614000,-2.386405
4.615000,-2.308763
4.616000,-2.493323
4.617000,-2.619333
4.618000,-2.420772
4.619000,-2.077107
4.620000,-1.967644
4.621000,-1.895093
4.622000,-1.798358
4.623000,-1.863272
4.624000,-1.783084
4.625000,-1.662165
4.626000,-1.928186
4.627000,-2.041468
4.628000,-1.673620
4.629000,-1.382142
4.630000,-1.280316
4.631000,-1.197582
4.632000,-1.158124
4.633000,-1.163216
4.634000,-1.083027
4.635000,-0.930288
4.636000,-0.782639
4.637000,-0.824643
4.638000,-0.913741
4.639000,-0.874283
4.640000,-0.939197
4.641000,-0.992656
4.642000,-0.967200
4.643000,-1.089391
4.644000,-1.249768
4.645000,-1.349049
4.646000,-1.699077
4.647000,-2.054197
4.648000,-1.897638
4.649000,-1.895093
4.650000,-1.855635
4.651000,-1.616343
4.652000,-1.347776
4.653000,-1.153033
4.654000,-0.955744
4.655000,-0.909922
4.656000,-0.951926
4.657000,-1.081754
4.658000,-1.247222
4.659000,-1.473786
4.660000,-2.017284
4.661000,-2.423317
4.662000,-2.448774
4.663000,-2.223483
4.664000,-2.082199
4.665000,-2.217119
4.666000,-2.131839
4.667000,-2.093654
4.668000,-1.963826
4.669000,-1.846725
4.670000,-1.738535
4.671000,-1.631617
4.672000,-1.433056
4.673000,-1.296863
4.674000,-1.159397
4.675000,-1.011749
4.676000,-0.932833
4.677000,-0.801732
4.678000,-0.543347
4.679000,-0.404609
4.680000,-0.239141
4.681000,-0.236595
4.682000,-0.398245
4.683000,-0.673176
4.684000,-0.985019
4.685000,-1.225584
4.686000,-1.496697
4.687000,-1.648164
4.688000,-1.651982
4.689000,-1.819996
4.690000,-2.498414
4.691000,-2.859898
4.692000,-2.685520
4.693000,-2.254031
4.694000,-2.054197
4.695000,-1.956189
4.696000,-1.761446
4.697000,-1.669802
4.698000,-1.636708
4.699000,-1.346503
4.700000,-1.088119
4.701000,-1.389779
4.702000,-1.840361
4.703000,-2.056742
4.704000,-2.222210
4.705000,-1.774174
4.706000,-1.467422
4.707000,-1.224311
4.708000,-1.062662
4.709000,-0.955744
4.710000,-0.841190
4.711000,-0.993929
4.712000,-1.007930
4.713000,-0.811914
4.714000,-0.795368
4.715000,-0.829734
4.716000,-1.043570
4.717000,-1.323592
4.718000,-1.744899
4.719000,-1.995646
4.720000,-2.248940
4.721000,-2.275669
4.722000,-2.311308
4.723000,-2.274396
4.724000,-2.092381
4.725000,-2.058015
4.726000,-1.877273
4.727000,-1.579431
4.728000,-1.364323
4.729000,-1.415236
4.730000,-1.412690
4.731000,-1.276497
4.732000,-1.111030
4.733000,-1.071572
4.734000,-0.988838
4.735000,-0.829734
4.736000,-0.814460
4.737000,-0.969745
4.738000,-1.224311
4.739000,-1.347776
4.740000,-1.728352
4.741000,-2.068198
4.742000,-2.145840
4.743000,-2.288397
4.744000,-2.080926
4.745000,-1.707987
4.746000,-1.523426
4.747000,-1.559066
4.748000,-1.575612
4.749000,-1.551429
4.750000,-1.359231
4.751000,-1.144123
4.752000,-1.083027
4.753000,-0.997748
4.754000,-0.898467
4.755000,-1.010476
4.756000,-1.285407
4.757000,-1.226857
4.758000,-1.299408
4.759000,-1.625253
4.760000,-1.802176
4.761000,-1.749990
4.762000,-1.693986
4.763000,-1.793266
4.764000,-1.977827
4.765000,-2.140749
4.766000,-2.167478
4.767000,-1.920549
4.768000,-1.877273
4.769000,-1.919277
4.770000,-1.799631
4.771000,-1.649437
4.772000,-1.709260
4.773000,-1.618889
4.774000,-1.421600
4.775000,-1.331229
4.776000,-1.305773
4.777000,-1.391052
4.778000,-1.403780
4.779000,-1.228130
4.780000,-1.102120
4.781000,-0.976110
4.782000,-0.786458
4.783000,-0.741909
4.784000,-0.676995
4.785000,-0.664266
4.786000,-0.712634
4.787000,-0.804278
4.788000,-0.823370
4.789000,-0.899740
4.790000,-1.228130
4.791000,-1.394871
4.792000,-1.574340
4.793000,-1.819996
4.794000,-2.002011
4.795000,-1.971463
4.796000,-2.111474
4.797000,-2.296034
4.798000,-1.972735
4.799000,-1.902730
4.800000,-2.128021
4.801000,-1.943460
4.802000,-1.566703
4.803000,-1.356686
4.804000,-1.370687
4.805000,-1.511971
4.806000,-1.681257
4.807000,-1.641800
4.808000,-1.551429
4.809000,-1.620162
4.810000,-1.833997
4.811000,-1.654528
4.812000,-1.261223
4.813000,-1.242131
4.814000,-1.407599
4.815000,-1.458512
4.816000,-1.473786
4.817000,-1.532336
4.818000,-1.599796
4.819000,-1.863272
4.820000,-2.038923
4.821000,-1.758900
4.822000,-1.252314
4.823000,-0.968473
4.824000,-0.727908
4.825000,-0.582805
4.826000,-0.666812
4.827000,-0.876829
4.828000,-1.034660
4.829000,-1.144123
4.830000,-1.244677
4.831000,-1.211583
4.832000,-1.519608
4.833000,-1.548883
4.834000,-1.466149
4.835000,-1.589614
4.836000,-1.985464
4.837000,-2.172570
4.838000,-2.162387
4.839000,-2.087290
4.840000,-1.966371
4.841000,-1.893820
4.842000,-1.678712
4.843000,-1.419054
4.844000,-0.954471
4.845000,-0.683359
4.846000,-0.568804
4.847000,-0.440248
4.848000,-0.324421
4.849000,-0.414792
4.850000,-0.927742
4.851000,-1.522154
4.852000,-1.988009
4.853000,-2.349493
4.854000,-2.894264
4.855000,-3.283750
4.856000,-3.590502
4.857000,-3.444127
4.858000,-2.853534
4.859000,-2.420772
4.860000,-2.201845
4.861000,-1.951097
4.862000,-1.733443
4.863000,-1.590886
4.864000,-1.468695
4.865000,-1.416509
4.866000,-1.370687
4.867000,-1.217947
4.868000,-0.986292
4.869000,-0.852645
4.870000,-0.785185
4.871000,-0.778821
4.872000,-0.848827
4.873000,-0.895921
4.874000,-1.107211
4.875000,-1.430510
4.876000,-1.486514
4.877000,-1.361777
4.878000,-1.233221
4.879000,-1.113575
4.880000,-0.939197
4.881000,-0.641355
4.882000,-0.426247
4.883000,-0.450431
4.884000,-0.553530
4.885000,-0.768638
4.886000,-1.032114
4.887000,-1.287953
4.888000,-1.518335
4.889000,-1.943460
4.890000,-2.041468
4.891000,-1.879819
4.892000,-1.785629
4.893000,-1.794539
4.894000,-1.803449
4.895000,-1.828906
4.896000,-2.274396
4.897000,-2.231120
4.898000,-2.215846
4.899000,-2.206936
4.900000,-2.161114
4.901000,-2.089836
4.902000,-1.977827
4.903000,-1.813632
4.904000,-1.649437
4.905000,-1.570521
4.906000,-1.565430
4.907000,-1.678712
4.908000,-1.741080
4.909000,-1.440693
4.910000,-1.214129
4.911000,-1.123758
4.912000,-1.052479
4.913000,-0.871737
4.914000,-0.887011
4.915000,-0.903558
4.916000,-0.893376
4.917000,-0.986292
4.918000,-1.178490
4.919000,-1.257405
4.920000,-1.318501
4.921000,-1.244677
4.922000,-1.202673
4.923000,-1.219220
4.924000,-1.268860
4.925000,-1.315955
4.926000,-1.341412
4.927000,-1.315955
4.928000,-1.328683
4.929000,-1.002839
4.930000,-0.452976
4.931000,-0.160226
4.932000,-0.071127
4.933000,-0.302782
4.934000,-0.563713
4.935000,-0.987565
4.936000,-1.629071
4.937000,-2.049105
4.938000,-2.427136
4.939000,-3.179378
4.940000,-3.516678
4.941000,-3.407215
4.942000,-3.089007
4.943000,-2.648608
4.944000,-2.362221
4.945000,-2.194208
4.946000,-1.793266
4.947000,-1.496697
4.948000,-1.462331
4.949000,-1.581977
4.950000,-1.729625
4.951000,-1.938369
4.952000,-1.986737
4.953000,-1.749990
4.954000,-1.706714
4.955000,-1.751263
4.956000,-1.583249
4.957000,-1.398689
4.958000,-1.379597
4.959000,-1.331229
4.960000,-1.178490
4.961000,-1.091937
4.962000,-1.083027
4.963000,-1.067753
4.964000,-1.220493
4.965000,-1.209037
4.966000,-1.098301
4.967000,-1.131395
4.968000,-1.265042
4.969000,-1.518335
4.970000,-1.755082
4.971000,-1.826360
4.972000,-1.912912
4.973000,-1.910367
4.974000,-1.828906
4.975000,-1.496697
4.976000,-1.239585
4.977000,-1.131395
4.978000,-1.254859
4.979000,-1.534882
4.980000,-1.550156
4.981000,-1.560339
4.982000,-1.649437
4.983000,-1.603615
4.984000,-1.570521
4.985000,-1.632890
4.986000,-1.573067
4.987000,-1.453421
4.988000,-1.267588
4.989000,-1.225584
4.990000,-1.109757
4.991000,-0.950653
4.992000,-0.931561
4.993000,-0.962108
4.994000,-1.047388
4.995000,-1.061389
4.996000,-0.991384
4.997000,-0.768638
4.998000,-0.852645
4.999000,-1.033387
5.000000,-1.001566
5.001000,-0.916287
5.002000,-1.030841
5.003000,-1.076663
5.004000,-1.072845
5.005000,-1.193763
5.006000,-1.193763
5.007000,-1.027023
5.008000,-1.104665
5.009000,-1.147942
5.010000,-0.973564
5.011000,-1.057571
5.012000,-1.401235
5.013000,-2.088563
5.014000,-2.676610
5.015000,-2.863716
5.016000,-2.947723
5.017000,-3.212472
5.018000,-3.041913
5.019000,-2.600241
5.020000,-2.247667
5.021000,-2.019830
5.022000,-2.147113
5.023000,-2.200572
5.024000,-2.187844
5.025000,-2.204390
5.026000,-2.059288
5.027000,-2.074562
5.028000,-2.115292
5.029000,-1.786902
5.030000,-1.453421
5.031000,-1.328683
5.032000,-1.256132
5.033000,-1.221766
5.034000,-1.235767
5.035000,-1.299408
5.036000,-1.350322
5.037000,-1.305773
5.038000,-1.156851
5.039000,-1.089391
5.040000,-1.006657
5.041000,-0.949380
5.042000,-0.934106
5.043000,-0.991384
5.044000,-0.913741
5.045000,-0.908650
5.046000,-0.995202
5.047000,-1.188672
5.048000,-1.352867
5.049000,-1.453421
5.050000,-1.343957
5.051000,-1.411417
5.052000,-1.429237
5.053000,-1.389779
5.054000,-1.370687
5.055000,-1.327411
5.056000,-1.312137
5.057000,-1.350322
5.058000,-1.366868
5.059000,-1.256132
5.060000,-1.132668
5.061000,-1.183581
5.062000,-1.286680
5.063000,-1.350322
5.064000,-1.435601
5.065000,-1.677439
5.066000,-1.742353
5.067000,-1.758900
5.068000,-1.721988
5.069000,-1.744899
5.070000,-1.664711
5.071000,-1.822541
5.072000,-1.954916
5.073000,-1.835270
5.074000,-1.728352
5.075000,-1.539973
5.076000,-1.314682
5.077000,-1.155579
5.078000,-1.117394
5.079000,-1.359231
5.080000,-1.319774
5.081000,-1.123758
5.082000,-1.142850
5.083000,-1.161943
5.084000,-1.151760
5.085000,-1.200128
5.086000,-1.300681
5.087000,-1.335048
5.088000,-1.393598
5.089000,-1.444511
5.090000,-1.371960
5.091000,-1.496697
5.092000,-1.430510
5.093000,-1.407599
5.094000,-1.374505
5.095000,-1.397416
5.096000,-1.738535
5.097000,-1.732171
5.098000,-1.705441
5.099000,-1.918004
5.100000,-1.727079
5.101000,-1.617616
5.102000,-1.588341
5.103000,-1.699077
5.104000,-1.583249
5.105000,-1.500516
5.106000,-1.476332
5.107000,-1.422873
5.108000,-1.583249
5.109000,-1.930732
5.110000,-2.334219
5.111000,-2.536599
5.112000,-2.335492
5.113000,-2.133112
5.114000,-1.920549
5.115000,-1.602342
5.116000,-1.346503
5.117000,-1.261223
5.118000,-1.258678
5.119000,-1.173398
5.120000,-1.056298
5.121000,-1.057571
5.122000,-1.141577
5.123000,-1.249768
5.124000,-1.495424
5.125000,-1.562884
5.126000,-1.696531
5.127000,-1.701623
5.128000,-1.567976
5.129000,-1.505607
5.130000,-1.551429
5.131000,-1.752536
5.132000,-1.915458
5.133000,-2.093654
5.134000,-2.237484
5.135000,-1.982918
5.136000,-1.576885
5.137000,-1.365596
5.138000,-1.259951
5.139000,-1.289226
5.140000,-1.332502
5.141000,-1.388506
5.142000,-1.590886
5.143000,-1.523426
5.144000,-1.436874
5.145000,-1.392325
5.146000,-1.301954
5.147000,-1.249768
5.148000,-1.357959
5.149000,-1.347776
5.150000,-1.347776
5.151000,-1.216674
5.152000,-1.080482
5.153000,-1.065208
5.154000,-1.114848
5.155000,-0.911195
5.156000,-0.809369
5.157000,-0.716452
5.158000,-0.521709
5.159000,-0.534438
5.160000,-0.604443
5.161000,-0.638810
5.162000,-0.903558
5.163000,-1.359231
5.164000,-1.559066
5.165000,-1.515789
5.166000,-1.538700
5.167000,-1.613797
5.168000,-1.681257
5.169000,-1.890001
5.170000,-1.837815
5.171000,-1.956189
5.172000,-2.158569
5.173000,-2.326582
5.174000,-2.488232
5.175000,-2.563329
5.176000,-2.387678
5.177000,-2.204390
5.178000,-1.993101
5.179000,-1.884910
5.180000,-1.877273
5.181000,-1.790721
5.182000,-1.454694
5.183000,-1.057571
5.184000,-0.883193
5.185000,-0.758456
5.186000,-0.673176
5.187000,-0.633718
5.188000,-0.670630
5.189000,-0.934106
5.190000,-1.146669
5.191000,-1.170853
5.192000,-1.123758
5.193000,-1.173398
5.194000,-1.356686
5.195000,-1.440693
5.196000,-1.583249
5.197000,-1.578158
5.198000,-1.758900
5.199000,-1.939642
5.200000,-2.010920
5.201000,-2.280760
5.202000,-2.434773
5.203000,-2.265486
5.204000,-2.116565
5.205000,-1.884910
5.206000,-1.641800
5.207000,-1.607433
5.208000,-1.573067
5.209000,-1.513244
5.210000,-1.585795
5.211000,-1.876000
5.212000,-1.878546
5.213000,-1.721988
5.214000,-1.673620
5.215000,-1.748717
5.216000,-1.618889
5.217000,-1.522154
5.218000,-1.430510
5.219000,-1.499243
5.220000,-1.439420
5.221000,-1.394871
5.222000,-1.580704
5.223000,-1.741080
5.224000,-1.533609
5.225000,-1.398689
5.226000,-1.282862
5.227000,-1.228130
5.228000,-1.108484
5.229000,-0.967200
5.230000,-1.002839
5.231000,-0.915014
5.232000,-0.881920
5.233000,-1.046115
5.234000,-1.123758
5.235000,-1.164488
5.236000,-1.221766
5.237000,-1.365596
5.238000,-1.388506
5.239000,-1.053752
5.240000,-0.939197
5.241000,-0.683359
5.242000,-0.441521
5.243000,-0.151316
5.244000,0.019243
5.245000,0.031972
5.246000,-0.227686
5.247000,-0.725362
5.248000,-1.322319
5.249000,-2.012193
5.250000,-2.740252
5.251000,-3.389395
5.252000,-3.744515
5.253000,-3.808156
5.254000,-3.708876
5.255000,-3.523042
5.256000,-3.403396
5.257000,-3.034276
5.258000,-2.539145
5.259000,-2.080926
5.260000,-1.873455
5.261000,-1.877273
5.262000,-1.835270
5.263000,-1.629071
5.264000,-1.490333
5.265000,-1.402508
5.266000,-1.336320
5.267000,-1.291771
5.268000,-1.207765
5.269000,-1.142850
5.270000,-1.116121
5.271000,-1.080482
5.272000,-1.049934
5.273000,-1.020659
5.274000,-1.021931
5.275000,-1.016840
5.276000,-1.016840
5.277000,-1.048661
5.278000,-1.009203
5.279000,-1.020659
5.280000,-1.042297
5.281000,-1.065208
5.282000,-1.021931
5.283000,-1.038478
5.284000,-1.098301
5.285000,-1.175944
5.286000,-1.178490
5.287000,-1.244677
5.288000,-1.336320
5.289000,-1.417782
5.290000,-1.459785
5.291000,-1.389779
5.292000,-1.293044
5.293000,-1.086846
5.294000,-0.670630
5.295000,-0.244232
5.296000,0.169437
5.297000,0.819854
5.298000,1.122787
5.299000,1.258980
5.300000,1.192793
5.301000,0.655658
5.302000,-0.054581
5.303000,-0.762274
5.304000,-1.683803
5.305000,-3.017729
5.306000,-4.056358
5.307000,-4.562944
5.308000,-4.606221
5.309000,-4.879879
5.310000,-4.557853
5.311000,-4.032174
5.312000,-3.651598
5.313000,-3.164104
5.314000,-2.926085
5.315000,-2.742798
5.316000,-2.219664
5.317000,-1.966371
5.318000,-1.814905
5.319000,-1.727079
5.320000,-1.776720
5.321000,-1.699077
5.322000,-1.425419
5.323000,-1.198855
5.324000,-1.145396
5.325000,-1.121212
5.326000,-0.974837
5.327000,-1.019386
5.328000,-1.052479
5.329000,-1.234494
5.330000,-1.322319
5.331000,-1.265042
5.332000,-1.392325
5.333000,-1.347776
5.334000,-1.203946
5.335000,-1.025750
5.336000,-1.133940
5.337000,-1.183581
5.338000,-1.504334
5.339000,-1.532336
5.340000,-1.447057
5.341000,-1.356686
5.342000,-1.322319
5.343000,-1.333775
5.344000,-1.447057
5.345000,-1.391052
5.346000,-1.303227
5.347000,-1.480150
5.348000,-1.573067
5.349000,-1.457239
5.350000,-1.383415
5.351000,-1.291771
5.352000,-1.221766
5.353000,-1.233221
5.354000,-1.220493
5.355000,-1.290499
5.356000,-1.471240
5.357000,-1.466149
5.358000,-1.327411
5.359000,-1.290499
5.360000,-1.286680
5.361000,-1.261223
5.362000,-0.979928
5.363000,-0.617172
5.364000,-0.402063
5.365000,-0.348604
5.366000,-0.487343
5.367000,-0.589169
5.368000,-0.679540
5.369000,-0.906104
5.370000,-1.163216
5.371000,-1.523426
5.372000,-2.008375
5.373000,-2.261668
5.374000,-2.266759
5.375000,-2.143295
5.376000,-2.126748
5.377000,-2.418226
5.378000,-2.513688
5.379000,-2.260395
5.380000,-1.975281
5.381000,-1.781811
5.382000,-1.692713
5.383000,-1.641800
5.384000,-1.566703
5.385000,-1.317228
5.386000,-0.941743
5.387000,-0.711361
5.388000,-0.612080
5.389000,-0.572622
5.390000,-0.713907
5.391000,-0.916287
5.392000,-1.179762
5.393000,-1.308318
5.394000,-1.435601
5.395000,-1.595978
5.396000,-1.912912
5.397000,-2.301126
5.398000,-2.522598
5.399000,-2.651154
5.400000,-2.660064
5.401000,-2.556964
5.402000,-2.570966
5.403000,-2.633334
5.404000,-2.457684
5.405000,-2.180207
5.406000,-1.929459
5.407000,-1.520881
5.408000,-1.293044
5.409000,-1.084300
5.410000,-0.985019
5.411000,-0.977382
5.412000,-1.049934
5.413000,-1.196309
5.414000,-1.307045
5.415000,-1.387234
5.416000,-1.323592
5.417000,-1.313410
5.418000,-1.336320
5.419000,-1.102120
5.420000,-1.070299
5.421000,-1.048661
5.422000,-0.996475
5.423000,-1.047388
5.424000,-1.131395
5.425000,-1.459785
5.426000,-1.463603
5.427000,-1.532336
5.428000,-1.729625
5.429000,-1.970190
5.430000,-1.967644
5.431000,-1.833997
5.432000,-1.519608
5.433000,-1.137759
5.434000,-0.983747
5.435000,-0.992656
5.436000,-1.209037
5.437000,-1.357959
5.438000,-1.346503
5.439000,-1.431783
5.440000,-1.574340
5.441000,-1.798358
5.442000,-1.798358
5.443000,-2.027467
5.444000,-2.111474
5.445000,-1.802176
5.446000,-1.445784
5.447000,-1.286680
5.448000,-1.242131
5.449000,-1.133940
5.450000,-0.976110
5.451000,-0.937925
5.452000,-1.067753
5.453000,-1.220493
5.454000,-1.296863
5.455000,-1.434328
5.456000,-1.786902
5.457000,-1.920549
5.458000,-1.967644
5.459000,-2.049105
5.460000,-2.087290
5.461000,-1.989282
5.462000,-1.811086
5.463000,-1.564157
5.464000,-1.443238
5.465000,-1.477605
5.466000,-1.427964
5.467000,-1.294317
5.468000,-1.084300
5.469000,-1.048661
5.470000,-0.922651
5.471000,-0.761001
5.472000,-0.870465
5.473000,-0.958290
5.474000,-0.997748
5.475000,-1.192491
5.476000,-0.951926
5.477000,-0.670630
5.478000,-0.618444
5.479000,-0.744455
5.480000,-0.859009
5.481000,-1.055025
5.482000,-1.425419
5.483000,-2.026194
5.484000,-2.360949
5.485000,-2.537872
5.486000,-2.709704
5.487000,-2.703340
5.488000,-2.369858
5.489000,-2.158569
5.490000,-2.101291
5.491000,-1.881092
5.492000,-1.769083
5.493000,-1.687622
5.494000,-1.565430
5.495000,-1.495424
5.496000,-1.560339
5.497000,-1.564157
5.498000,-1.462331
5.499000,-1.565430
5.500000,-1.634163
5.501000,-1.632890
5.502000,-1.676166
5.503000,-1.575612
5.504000,-1.697804
5.505000,-1.696531
5.506000,-1.581977
5.507000,-1.305773
5.508000,-1.290499
5.509000,-1.401235
5.510000,-1.476332
5.511000,-1.640527
5.512000,-1.705441
5.513000,-1.841634
5.514000,-1.858181
5.515000,-1.737262
5.516000,-1.439420
5.517000,-1.245950
5.518000,-1.282862
5.519000,-1.373233
5.520000,-1.421600
5.521000,-1.389779
5.522000,-1.271406
5.523000,-1.137759
5.524000,-1.069026
5.525000,-1.104665
5.526000,-1.337593
5.527000,-1.234494
5.528000,-1.076663
5.529000,-1.000293
5.530000,-0.937925
5.531000,-0.979928
5.532000,-1.043570
5.533000,-1.097028
5.534000,-1.131395
5.535000,-1.165761
5.536000,-1.410145
5.537000,-1.551429
5.538000,-1.505607
5.539000,-1.436874
5.540000,-1.655801
5.541000,-1.756354
5.542000,-1.790721
5.543000,-1.966371
5.544000,-2.186571
5.545000,-2.168751
5.546000,-2.166206
5.547000,-2.176388
5.548000,-1.949824
5.549000,-1.900184
5.550000,-1.976554
5.551000,-1.783084
5.552000,-1.595978
5.553000,-1.625253
5.554000,-1.632890
5.555000,-1.683803
5.556000,-1.522154
5.557000,-0.955744
5.558000,-0.501344
5.559000,-0.347332
5.560000,-0.259506
5.561000,-0.297691
5.562000,-0.469523
5.563000,-0.755910
5.564000,-1.212856
5.565000,-1.590886
5.566000,-1.774174
5.567000,-1.886183
5.568000,-1.937096
5.569000,-2.093654
5.570000,-2.489504
5.571000,-2.376223
5.572000,-1.831451
5.573000,-1.379597
5.574000,-1.062662
5.575000,-0.795368
5.576000,-0.750819
5.577000,-0.832280
5.578000,-0.999020
5.579000,-1.275225
5.580000,-1.336320
5.581000,-1.378324
5.582000,-1.545065
5.583000,-1.743626
5.584000,-2.047832
5.585000,-2.232393
5.586000,-2.480595
5.587000,-2.660064
5.588000,-2.600241
5.589000,-2.527689
5.590000,-2.320218
5.591000,-2.176388
5.592000,-2.115292
5.593000,-1.916731
5.594000,-1.603615
5.595000,-1.543792
5.596000,-1.447057
5.597000,-1.293044
5.598000,-1.248495
5.599000,-1.304500
5.600000,-1.256132
5.601000,-1.042297
5.602000,-0.803005
5.603000,-0.599352
5.604000,-0.427520
5.605000,-0.310419
5.606000,-0.318056
5.607000,-0.426247
5.608000,-0.685904
5.609000,-1.021931
5.610000,-1.352867
5.611000,-1.494151
5.612000,-1.557793
5.613000,-1.828906
5.614000,-2.054197
5.615000,-2.400406
5.616000,-2.352039
5.617000,-2.318945
5.618000,-2.341856
5.619000,-2.208209
5.620000,-1.990555
5.621000,-1.870909
5.622000,-1.748717
5.623000,-1.583249
5.624000,-1.403780
5.625000,-1.327411
5.626000,-1.277770
5.627000,-1.254859
5.628000,-1.259951
5.629000,-1.216674
5.630000,-1.212856
5.631000,-1.265042
5.632000,-1.249768
5.633000,-1.147942
5.634000,-1.111030
5.635000,-0.925196
5.636000,-0.800459
5.637000,-0.745727
5.638000,-0.771184
5.639000,-0.885739
5.640000,-0.985019
5.641000,-1.295590
5.642000,-1.830178
5.643000,-2.035104
5.644000,-1.986737
5.645000,-1.672348
5.646000,-1.097028
5.647000,-0.685904
5.648000,-0.352423
5.649000,-0.153861
5.650000,-0.090220
5.651000,-0.197138
5.652000,-0.502617
5.653000,-0.920105
5.654000,-1.436874
5.655000,-2.206936
5.656000,-3.069915
5.657000,-3.442854
5.658000,-3.783973
5.659000,-3.713967
5.660000,-3.528134
5.661000,-3.682146
5.662000,-3.314298
5.663000,-2.937541
5.664000,-2.621879
5.665000,-2.489504
5.666000,-2.206936
5.667000,-1.842907
5.668000,-1.612525
5.669000,-1.462331
5.670000,-1.408872
5.671000,-1.413963
5.672000,-1.417782
5.673000,-1.221766
5.674000,-1.080482
5.675000,-1.038478
5.676000,-0.945562
5.677000,-0.867919
5.678000,-0.813187
5.679000,-0.841190
5.680000,-0.929015
5.681000,-0.997748
5.682000,-1.034660
5.683000,-1.004112
5.684000,-1.013022
5.685000,-1.104665
5.686000,-1.048661
5.687000,-1.042297
5.688000,-1.215402
5.689000,-1.310864
5.690000,-1.252314
5.691000,-1.238313
5.692000,-1.239585
5.693000,-1.266315
5.694000,-1.329956
5.695000,-1.394871
5.696000,-1.304500
5.697000,-1.270133
5.698000,-1.266315
5.699000,-1.230676
5.700000,-1.212856
5.701000,-1.193763
5.702000,-1.111030
5.703000,-1.016840
5.704000,-1.006657
5.705000,-0.963381
5.706000,-0.388062
5.707000,0.173256
5.708000,0.830036
5.709000,1.150789
5.710000,1.062964
5.711000,0.639112
5.712000,0.063793
5.713000,-0.724089
5.714000,-1.844180
5.715000,-2.856079
5.716000,-3.391941
5.717000,-3.837431
5.718000,-4.383475
5.719000,-4.965159
5.720000,-4.897699
5.721000,-4.412751
5.722000,-3.697420
5.723000,-3.076279
5.724000,-2.766981
5.725000,-2.768254
5.726000,-2.741525
5.727000,-2.439864
5.728000,-2.110201
5.729000,-1.800903
5.730000,-1.561611
5.731000,-1.364323
5.732000,-1.314682
5.733000,-1.234494
5.734000,-1.109757
5.735000,-0.976110
5.736000,-0.753364
5.737000,-0.562440
5.738000,-0.416064
5.739000,-0.250596
5.740000,-0.246778
5.741000,-0.577714
5.742000,-0.820824
5.743000,-0.936652
5.744000,-0.879374
5.745000,-0.890830
5.746000,-1.063935
5.747000,-1.354140
5.748000,-1.417782
5.749000,-1.299408
5.750000,-1.286680
5.751000,-1.546337
5.752000,-1.453421
5.753000,-1.191218
5.754000,-1.027023
5.755000,-1.083027
5.756000,-1.440693
5.757000,-1.993101
5.758000,-2.116565
5.759000,-2.166206
5.760000,-2.252758
5.761000,-2.156023
5.762000,-1.827633
5.763000,-1.589614
5.764000,-1.314682
5.765000,-1.188672
5.766000,-1.192491
5.767000,-1.411417
5.768000,-1.528518
5.769000,-1.485242
5.770000,-1.489060
5.771000,-1.547610
5.772000,-1.718169
5.773000,-1.800903
5.774000,-1.658346
5.775000,-1.496697
5.776000,-1.551429
5.777000,-1.508152
5.778000,-1.504334
5.779000,-1.531063
5.780000,-1.331229
5.781000,-1.090664
5.782000,-1.195036
5.783000,-1.329956
5.784000,-1.499243
5.785000,-1.715624
5.786000,-1.715624
5.787000,-1.718169
5.788000,-1.618889
5.789000,-1.525972
5.790000,-1.550156
5.791000,-1.431783
5.792000,-1.262496
5.793000,-1.187399
5.794000,-1.167034
5.795000,-1.235767
5.796000,-1.402508
5.797000,-1.590886
5.798000,-1.691440
5.799000,-1.737262
5.800000,-1.884910
5.801000,-1.850544
5.802000,-1.561611
5.803000,-1.193763
5.804000,-0.923924
5.805000,-0.696087
5.806000,-0.594261
5.807000,-0.613353
5.808000,-0.736818
5.809000,-0.923924
5.810000,-1.117394
5.811000,-1.291771
5.812000,-1.333775
5.813000,-1.511971
5.814000,-1.608706
5.815000,-1.611252
5.816000,-1.573067
5.817000,-1.374505
5.818000,-1.397416
5.819000,-1.346503
5.820000,-1.091937
5.821000,-0.917559
5.822000,-0.874283
5.823000,-1.203946
5.824000,-1.387234
5.825000,-1.861999
5.826000,-2.447501
5.827000,-2.628243
5.828000,-2.758072
5.829000,-2.723705
5.830000,-2.539145
5.831000,-2.432227
5.832000,-2.237484
5.833000,-1.979100
5.834000,-1.833997
5.835000,-1.752536
5.836000,-1.688894
5.837000,-1.697804
5.838000,-1.618889
5.839000,-1.621434
5.840000,-1.542519
5.841000,-1.387234
5.842000,-1.253586
5.843000,-1.257405
5.844000,-1.196309
5.845000,-1.095756
5.846000,-1.071572
5.847000,-1.080482
5.848000,-1.317228
5.849000,-1.453421
5.850000,-1.363050
5.851000,-1.494151
5.852000,-1.678712
5.853000,-1.748717
5.854000,-1.581977
5.855000,-1.491606
5.856000,-1.697804
5.857000,-2.046560
5.858000,-2.046560
5.859000,-1.957461
5.860000,-1.877273
5.861000,-1.994374
5.862000,-1.837815
5.863000,-1.655801
5.864000,-1.525972
5.865000,-1.439420
5.866000,-1.413963
5.867000,-1.392325
5.868000,-1.431783
5.869000,-1.366868
5.870000,-1.281589
5.871000,-1.265042
5.872000,-1.268860
5.873000,-1.175944
5.874000,-1.035933
5.875000,-0.954471
5.876000,-0.930288
5.877000,-0.925196
5.878000,-0.944289
5.879000,-0.887011
5.880000,-0.852645
5.881000,-0.818279
5.882000,-0.895921
5.883000,-1.011749
5.884000,-1.155579
5.885000,-1.347776
5.886000,-1.319774
5.887000,-1.374505
5.888000,-1.370687
5.889000,-1.443238
5.890000,-1.603615
5.891000,-1.636708
5.892000,-1.674893
5.893000,-1.635435
5.894000,-1.752536
5.895000,-1.799631
5.896000,-1.690167
5.897000,-1.692713
5.898000,-1.539973
5.899000,-1.374505
5.900000,-1.309591
5.901000,-1.452148
5.902000,-1.303227
5.903000,-1.113575
5.904000,-1.042297
5.905000,-0.851372
5.906000,-0.559894
5.907000,-0.618444
5.908000,-0.965927
5.909000,-1.494151
5.910000,-1.957461
5.911000,-2.026194
5.912000,-2.031286
5.913000,-2.129294
5.914000,-2.268032
5.915000,-2.170024
5.916000,-2.410589
5.917000,-2.726251
5.918000,-2.508597
5.919000,-2.283306
5.920000,-2.200572
5.921000,-2.059288
5.922000,-1.937096
5.923000,-1.791994
5.924000,-1.710532
5.925000,-1.626526
5.926000,-1.471240
5.927000,-1.268860
5.928000,-1.373233
5.929000,-1.513244
5.930000,-1.402508
5.931000,-1.263769
5.932000,-0.983747
5.933000,-0.889557
5.934000,-0.927742
5.935000,-1.042297
5.936000,-1.249768
5.937000,-1.384688
5.938000,-1.452148
5.939000,-1.648164
5.940000,-1.842907
5.941000,-2.023649
5.942000,-2.069471
5.943000,-1.776720
5.944000,-1.384688
5.945000,-1.072845
5.946000,-0.931561
5.947000,-0.948107
5.948000,-1.014294
5.949000,-1.038478
5.950000,-0.954471
5.951000,-1.051207
5.952000,-1.365596
5.953000,-1.539973
5.954000,-1.837815
5.955000,-1.924368
5.956000,-1.696531
5.957000,-1.738535
5.958000,-1.944733
5.959000,-1.794539
5.960000,-1.641800
5.961000,-1.481423
5.962000,-1.360504
5.963000,-1.217947
5.964000,-1.158124
5.965000,-1.276497
5.966000,-1.328683
5.967000,-1.329956
5.968000,-1.234494
5.969000,-1.072845
5.970000,-1.046115
5.971000,-1.090664
5.972000,-1.179762
5.973000,-1.523426
5.974000,-1.811086
5.975000,-1.966371
5.976000,-1.993101
5.977000,-1.929459
5.978000,-2.004556
5.979000,-1.891274
5.980000,-1.766537
5.981000,-2.018557
5.982000,-1.930732
5.983000,-1.909094
5.984000,-1.840361
5.985000,-1.821269
5.986000,-1.769083
5.987000,-1.597251
5.988000,-1.422873
5.989000,-1.375778
5.990000,-1.315955
5.991000,-1.137759
5.992000,-1.016840
5.993000,-0.755910
5.994000,-0.628627
5.995000,-0.596806
5.996000,-0.608262
5.997000,-0.720271
5.998000,-0.841190
5.999000,-0.962108
6.000000,-0.974837
6.001000,-1.198855
6.002000,-1.574340
6.003000,-1.849271
6.004000,-1.821269
6.005000,-1.924368
6.006000,-2.018557
6.007000,-1.956189
6.008000,-1.869636
6.009000,-1.747445
6.010000,-1.659619
6.011000,-1.888729
6.012000,-1.780538
6.013000,-1.562884
6.014000,-1.440693
6.015000,-1.382142
6.016000,-1.413963
6.017000,-1.447057
6.018000,-1.374505
6.019000,-1.186127
6.020000,-1.131395
6.021000,-1.170853
6.022000,-1.315955
6.023000,-1.368141
6.024000,-1.534882
6.025000,-1.727079
6.026000,-1.850544
6.027000,-1.682530
6.028000,-1.631617
6.029000,-1.741080
6.030000,-1.859454
6.031000,-1.878546
6.032000,-1.786902
6.033000,-1.774174
6.034000,-1.760173
6.035000,-1.653255
6.036000,-1.711805
6.037000,-1.944733
6.038000,-1.877273
6.039000,-1.570521
6.040000,-1.332502
6.041000,-1.128849
6.042000,-0.949380
6.043000,-0.925196
6.044000,-1.028296
6.045000,-1.094483
6.046000,-1.200128
6.047000,-1.482696
6.048000,-1.870909
6.049000,-1.967644
6.050000,-2.004556
6.051000,-1.970190
6.052000,-1.772901
6.053000,-1.574340
6.054000,-1.688894
6.055000,-1.643072
6.056000,-1.368141
6.057000,-1.253586
6.058000,-1.270133
6.059000,-1.211583
6.060000,-1.142850
6.061000,-1.338866
6.062000,-1.509425
6.063000,-1.459785
6.064000,-1.464876
6.065000,-1.333775
6.066000,-1.097028
6.067000,-0.912468
6.068000,-0.735545
6.069000,-0.809369
6.070000,-0.813187
6.071000,-0.819551
6.072000,-0.955744
6.073000,-1.299408
6.074000,-1.902730
6.075000,-2.163660
6.076000,-2.209482
6.077000,-2.242575
6.078000,-2.274396
6.079000,-2.520052
6.080000,-2.606605
6.081000,-2.376223
6.082000,-2.091109
6.083000,-1.841634
6.084000,-1.760173
6.085000,-1.763991
6.086000,-1.616343
6.087000,-1.403780
6.088000,-1.271406
6.089000,-1.111030
6.090000,-0.755910
6.091000,-0.511527
6.092000,-0.318056
6.093000,-0.319329
6.094000,-0.694814
6.095000,-1.103393
6.096000,-1.079209
6.097000,-1.011749
6.098000,-1.173398
6.099000,-1.263769
6.100000,-1.388506
6.101000,-1.648164
6.102000,-2.070743
6.103000,-2.324037
6.104000,-2.354584
6.105000,-2.087290
6.106000,-1.744899
6.107000,-1.412690
6.108000,-1.195036
6.109000,-0.950653
6.110000,-0.859009
6.111000,-0.867919
6.112000,-1.014294
6.113000,-1.254859
6.114000,-1.542519
6.115000,-1.874728
6.116000,-2.332946
6.117000,-2.318945
6.118000,-2.191662
6.119000,-1.916731
6.120000,-1.508152
6.121000,-1.290499
6.122000,-1.491606
6.123000,-1.735989
6.124000,-1.979100
6.125000,-2.035104
6.126000,-2.107655
6.127000,-2.143295
6.128000,-2.255304
6.129000,-2.390224
6.130000,-2.171297
6.131000,-1.819996
6.132000,-1.595978
6.133000,-1.501788
6.134000,-1.377051
6.135000,-1.266315
6.136000,-1.206492
6.137000,-1.234494
6.138000,-1.215402
6.139000,-1.112302
6.140000,-1.168307
6.141000,-1.071572
6.142000,-1.158124
6.143000,-1.211583
6.144000,-1.155579
6.145000,-1.057571
6.146000,-0.936652
6.147000,-1.097028
6.148000,-1.289226
6.149000,-1.253586
6.150000,-1.385961
6.151000,-1.531063
6.152000,-1.472513
6.153000,-1.635435
6.154000,-1.455966
6.155000,-1.304500
6.156000,-1.305773
6.157000,-1.383415
6.158000,-1.366868
6.159000,-1.515789
6.160000,-1.659619
6.161000,-1.643072
6.162000,-1.545065
6.163000,-1.580704
6.164000,-1.655801
6.165000,-1.655801
6.166000,-1.643072
6.167000,-1.692713
6.168000,-1.607433
6.169000,-1.475059
6.170000,-1.319774
6.171000,-1.034660
6.172000,-0.871737
6.173000,-0.346059
6.174000,0.495282
6.175000,1.250070
6.176000,1.614099
6.177000,1.765566
6.178000,1.560641
6.179000,1.005687
6.180000,0.179620
6.181000,-0.699905
6.182000,-1.725806
6.183000,-2.890446
6.184000,-3.758516
6.185000,-4.411478
6.186000,-5.209542
6.187000,-5.595210
6.188000,-5.066985
6.189000,-4.526032
6.190000,-3.930348
6.191000,-3.467038
6.192000,-3.195925
6.193000,-2.984635
6.194000,-2.587512
6.195000,-2.325309
6.196000,-2.049105
6.197000,-1.887456
6.198000,-1.779265
6.199000,-1.668529
6.200000,-1.509425
6.201000,-1.357959
6.202000,-1.262496
6.203000,-1.225584
6.204000,-1.117394
6.205000,-0.981201
6.206000,-0.743182
6.207000,-0.571350
6.208000,-0.398245
6.209000,-0.312965
6.210000,-0.334603
6.211000,-0.386789
6.212000,-0.474615
6.213000,-0.744455
6.214000,-1.086846
6.215000,-1.403780
6.216000,-1.560339
6.217000,-1.559066
6.218000,-1.601069
6.219000,-1.555247
6.220000,-1.676166
6.221000,-1.728352
6.222000,-1.448329
6.223000,-1.360504
6.224000,-1.223039
6.225000,-1.055025
6.226000,-0.862828
6.227000,-0.825916
6.228000,-0.791549
6.229000,-0.794095
6.230000,-0.824643
6.231000,-0.874283
6.232000,-0.974837
6.233000,-1.076663
6.234000,-1.173398
6.235000,-1.356686
6.236000,-1.491606
6.237000,-1.682530
6.238000,-1.853089
6.239000,-2.087290
6.240000,-2.107655
6.241000,-1.826360
6.242000,-1.585795
6.243000,-1.662165
6.244000,-1.781811
6.245000,-1.877273
6.246000,-1.942188
6.247000,-1.911640
6.248000,-1.839088
6.249000,-1.766537
6.250000,-1.623980
6.251000,-1.571794
6.252000,-1.523426
6.253000,-1.464876
6.254000,-1.475059
6.255000,-1.561611
6.256000,-1.481423
6.257000,-1.509425
6.258000,-1.552702
6.259000,-1.458512
6.260000,-1.392325
6.261000,-1.165761
6.262000,-1.066480
6.263000,-0.949380
6.264000,-0.846281
6.265000,-0.866646
6.266000,-0.927742
6.267000,-0.964654
6.268000,-1.066480
6.269000,-1.183581
6.270000,-1.303227
6.271000,-1.359231
6.272000,-1.389779
6.273000,-1.455966
6.274000,-1.455966
6.275000,-1.506880
6.276000,-1.606160
6.277000,-1.882365
6.278000,-2.162387
6.279000,-2.327855
6.280000,-2.521325
6.281000,-2.525144
6.282000,-2.396588
6.283000,-2.280760
6.284000,-1.958734
6.285000,-1.739808
6.286000,-1.566703
6.287000,-1.401235
6.288000,-1.426691
6.289000,-1.487787
6.290000,-1.425419
6.291000,-1.538700
6.292000,-1.730898
6.293000,-1.541246
6.294000,-1.240858
6.295000,-1.065208
