LabVIEW Measurement,
Writer_Version,2
Reader_Version,2
Separator,Comma
Decimal_Separator,.
Multi_Headings,No
X_Columns,Multi
Time_Pref,Absolute
Operator,Dymnz
Date,2017/09/12
Time,12:58:12.7915090833529610864
***End_of_Header***,
,
Channels,1,
Samples,1000,
Date,2017/09/12,
Time,12:58:12.7915090833529610864,
Y_Unit_Label,Volts,
X_Dimension,Time,
X0,0.0000000000000000E+0,
Delta_X,0.001000,
***End_of_Header***,,
X_Value,Voltage,Comment
0.000000,-2.304944
0.001000,-2.133112
0.002000,-2.064379
0.003000,-1.914185
0.004000,-1.674893
0.005000,-1.405053
0.006000,-1.352867
0.007000,-1.300681
0.008000,-1.094483
0.009000,-1.495424
0.010000,-1.814905
0.011000,-1.845452
0.012000,-1.714351
0.013000,-1.547610
0.014000,-1.307045
0.015000,-1.181035
0.016000,-1.188672
0.017000,-1.147942
0.018000,-1.051207
0.019000,-1.197582
0.020000,-1.377051
0.021000,-1.678712
0.022000,-1.825087
0.023000,-1.882365
0.024000,-2.049105
0.025000,-2.574784
0.026000,-2.471685
0.027000,-2.097473
0.028000,-2.612969
0.029000,-2.660064
0.030000,-2.345675
0.031000,-1.876000
0.032000,-1.501788
0.033000,-1.300681
0.034000,-1.225584
0.035000,-1.091937
0.036000,-1.207765
0.037000,-1.229403
0.038000,-1.668529
0.039000,-1.984191
0.040000,-1.819996
0.041000,-1.593432
0.042000,-2.098746
0.043000,-2.486959
0.044000,-2.401679
0.045000,-1.954916
0.046000,-1.557793
0.047000,-1.104665
0.048000,-0.917559
0.049000,-0.859009
0.050000,-0.870465
0.051000,-0.738090
0.052000,-0.755910
0.053000,-0.836098
0.054000,-0.767365
0.055000,-0.977382
0.056000,-1.271406
0.057000,-1.422873
0.058000,-1.454694
0.059000,-1.385961
0.060000,-1.436874
0.061000,-1.690167
0.062000,-1.752536
0.063000,-1.786902
0.064000,-1.844180
0.065000,-1.758900
0.066000,-1.588341
0.067000,-1.685076
0.068000,-1.795812
0.069000,-1.790721
0.070000,-1.836543
0.071000,-1.887456
0.072000,-1.952370
0.073000,-2.077107
0.074000,-2.049105
0.075000,-1.918004
0.076000,-1.975281
0.077000,-1.970190
0.078000,-1.809813
0.079000,-1.691440
0.080000,-1.517062
0.081000,-1.425419
0.082000,-1.447057
0.083000,-1.303227
0.084000,-1.351594
0.085000,-1.584522
0.086000,-1.915458
0.087000,-2.031286
0.088000,-1.960007
0.089000,-1.963826
0.090000,-1.946006
0.091000,-1.803449
0.092000,-1.746172
0.093000,-1.971463
0.094000,-1.974008
0.095000,-2.041468
0.096000,-2.040195
0.097000,-1.935823
0.098000,-1.957461
0.099000,-2.707158
0.100000,-3.631233
0.101000,-4.261284
0.102000,-3.376667
0.103000,-2.212027
0.104000,-1.066480
0.105000,-0.385516
0.106000,-0.129678
0.107000,-0.095311
0.108000,-0.199683
0.109000,-0.268416
0.110000,-0.589169
0.111000,-0.567531
0.112000,-0.391881
0.113000,-0.348604
0.114000,-0.713907
0.115000,-1.103393
0.116000,-1.473786
0.117000,-1.677439
0.118000,-2.074562
0.119000,-2.381314
0.120000,-2.212027
0.121000,-1.808540
0.122000,-1.310864
0.123000,-0.974837
0.124000,-0.968473
0.125000,-0.958290
0.126000,-1.826360
0.127000,-2.204390
0.128000,-1.905275
0.129000,-1.519608
0.130000,-1.061389
0.131000,-0.500071
0.132000,-0.150043
0.133000,-0.592988
0.134000,-1.235767
0.135000,-1.841634
0.136000,-1.974008
0.137000,-2.019830
0.138000,-2.056742
0.139000,-1.883637
0.140000,-1.905275
0.141000,-1.705441
0.142000,-1.602342
0.143000,-1.547610
0.144000,-1.786902
0.145000,-1.934551
0.146000,-1.956189
0.147000,-1.784357
0.148000,-1.713078
0.149000,-1.771628
0.150000,-1.755082
0.151000,-2.190389
0.152000,-2.985908
0.153000,-2.870081
0.154000,-2.414407
0.155000,-1.886183
0.156000,-1.463603
0.157000,-1.103393
0.158000,-0.704997
0.159000,-0.703724
0.160000,-0.666812
0.161000,-0.525528
0.162000,-0.792822
0.163000,-2.033831
0.164000,-2.353312
0.165000,-2.282033
0.166000,-1.861999
0.167000,-1.509425
0.168000,-1.061389
0.169000,-0.804278
0.170000,-0.809369
0.171000,-0.979928
0.172000,-1.098301
0.173000,-1.226857
0.174000,-1.375778
0.175000,-1.314682
0.176000,-1.489060
0.177000,-1.466149
0.178000,-1.594705
0.179000,-1.926914
0.180000,-2.064379
0.181000,-2.075835
0.182000,-2.051651
0.183000,-2.100018
0.184000,-2.010920
0.185000,-2.083472
0.186000,-2.019830
0.187000,-1.942188
0.188000,-2.013466
0.189000,-1.867091
0.190000,-1.797085
0.191000,-1.812359
0.192000,-1.911640
0.193000,-2.047832
0.194000,-1.929459
0.195000,-1.783084
0.196000,-1.890001
0.197000,-1.869636
0.198000,-1.967644
0.199000,-2.218392
0.200000,-2.458956
0.201000,-2.094927
0.202000,-2.128021
0.203000,-2.299853
0.204000,-2.026194
0.205000,-1.524699
0.206000,-1.037205
0.207000,-0.670630
0.208000,-0.493707
0.209000,-0.472069
0.210000,-0.552257
0.211000,-0.522982
0.212000,-0.769911
0.213000,-1.203946
0.214000,-1.571794
0.215000,-1.709260
0.216000,-1.846725
0.217000,-2.469139
0.218000,-3.106827
0.219000,-3.176833
0.220000,-3.561227
0.221000,-2.915902
0.222000,-2.136931
0.223000,-1.225584
0.224000,-0.628627
0.225000,-0.382971
0.226000,-0.449158
0.227000,-0.696087
0.228000,-1.020659
0.229000,-1.248495
0.230000,-1.326138
0.231000,-1.716897
0.232000,-2.397861
0.233000,-2.497141
0.234000,-1.622707
0.235000,-0.892103
0.236000,0.021789
0.237000,-0.225140
0.238000,-0.890830
0.239000,-1.113575
0.240000,-1.374505
0.241000,-1.631617
0.242000,-1.767810
0.243000,-2.008375
0.244000,-2.014739
0.245000,-1.979100
0.246000,-1.818723
0.247000,-1.660892
0.248000,-1.424146
0.249000,-1.271406
0.250000,-1.210310
0.251000,-1.262496
0.252000,-0.829734
0.253000,-0.833553
0.254000,-0.968473
0.255000,-1.205219
0.256000,-1.412690
0.257000,-1.627799
0.258000,-1.785629
0.259000,-1.830178
0.260000,-1.846725
0.261000,-1.867091
0.262000,-1.937096
0.263000,-1.998192
0.264000,-1.952370
0.265000,-1.960007
0.266000,-2.009648
0.267000,-2.164933
0.268000,-2.502233
0.269000,-2.679156
0.270000,-2.770800
0.271000,-2.685520
0.272000,-2.424590
0.273000,-2.176388
0.274000,-1.870909
0.275000,-1.786902
0.276000,-1.683803
0.277000,-1.571794
0.278000,-1.369414
0.279000,-1.275225
0.280000,-1.090664
0.281000,-1.032114
0.282000,-1.286680
0.283000,-1.575612
0.284000,-1.861999
0.285000,-2.042741
0.286000,-2.051651
0.287000,-2.327855
0.288000,-3.136102
0.289000,-3.393214
0.290000,-2.959179
0.291000,-3.255748
0.292000,-2.518780
0.293000,-1.475059
0.294000,-0.522982
0.295000,0.003970
0.296000,0.371817
0.297000,0.454551
0.298000,0.486372
0.299000,0.394728
0.300000,-0.881920
0.301000,-2.495869
0.302000,-2.763163
0.303000,-2.131839
0.304000,-1.402508
0.305000,-0.801732
0.306000,-0.542075
0.307000,-0.563713
0.308000,-0.692268
0.309000,-0.931561
0.310000,-1.074117
0.311000,-0.954471
0.312000,-1.070299
0.313000,-1.417782
0.314000,-1.804722
0.315000,-2.052924
0.316000,-2.094927
0.317000,-2.125475
0.318000,-1.979100
0.319000,-1.860726
0.320000,-1.845452
0.321000,-1.830178
0.322000,-1.761446
0.323000,-1.494151
0.324000,-1.486514
0.325000,-1.472513
0.326000,-1.749990
0.327000,-2.074562
0.328000,-2.352039
0.329000,-2.280760
0.330000,-2.120384
0.331000,-1.800903
0.332000,-1.592159
0.333000,-1.303227
0.334000,-1.287953
0.335000,-1.149214
0.336000,-1.291771
0.337000,-1.648164
0.338000,-1.707987
0.339000,-1.841634
0.340000,-1.835270
0.341000,-1.760173
0.342000,-1.791994
0.343000,-1.748717
0.344000,-1.611252
0.345000,-1.651982
0.346000,-1.700350
0.347000,-1.650709
0.348000,-1.713078
0.349000,-1.842907
0.350000,-2.318945
0.351000,-2.512415
0.352000,-2.381314
0.353000,-2.177661
0.354000,-1.972735
0.355000,-1.920549
0.356000,-1.812359
0.357000,-1.797085
0.358000,-1.585795
0.359000,-1.603615
0.360000,-1.440693
0.361000,-1.327411
0.362000,-1.147942
0.363000,-0.991384
0.364000,-0.857736
0.365000,-0.753364
0.366000,-0.976110
0.367000,-1.310864
0.368000,-1.550156
0.369000,-1.779265
0.370000,-2.828077
0.371000,-3.302843
0.372000,-2.971907
0.373000,-2.293489
0.374000,-1.660892
0.375000,-1.328683
0.376000,-1.013022
0.377000,-0.722816
0.378000,-0.680813
0.379000,-0.851372
0.380000,-0.834825
0.381000,-0.855191
0.382000,-0.954471
0.383000,-1.259951
0.384000,-1.993101
0.385000,-2.857352
0.386000,-3.507768
0.387000,-3.297751
0.388000,-2.331673
0.389000,-1.343957
0.390000,-0.629900
0.391000,-0.312965
0.392000,-0.083856
0.393000,-0.119495
0.394000,-0.501344
0.395000,-1.091937
0.396000,-1.254859
0.397000,-1.523426
0.398000,-1.681257
0.399000,-1.685076
0.400000,-1.613797
0.401000,-1.665983
0.402000,-2.150932
0.403000,-2.339310
0.404000,-2.815349
0.405000,-2.951542
0.406000,-3.153922
0.407000,-2.917175
0.408000,-2.380041
0.409000,-2.061834
0.410000,-1.742353
0.411000,-1.581977
0.412000,-1.392325
0.413000,-1.170853
0.414000,-0.926469
0.415000,-0.646447
0.416000,-0.368970
0.417000,-0.418610
0.418000,-0.656629
0.419000,-0.825916
0.420000,-0.839917
0.421000,-0.992656
0.422000,-1.394871
0.423000,-1.478877
0.424000,-1.515789
0.425000,-1.369414
0.426000,-1.239585
0.427000,-1.377051
0.428000,-1.459785
0.429000,-1.548883
0.430000,-1.587068
0.431000,-1.480150
0.432000,-1.522154
0.433000,-1.673620
0.434000,-1.805995
0.435000,-1.812359
0.436000,-1.967644
0.437000,-2.077107
0.438000,-2.114020
0.439000,-2.130566
0.440000,-2.116565
0.441000,-2.153477
0.442000,-2.168751
0.443000,-2.140749
0.444000,-1.784357
0.445000,-1.715624
0.446000,-2.385132
0.447000,-2.830623
0.448000,-2.604059
0.449000,-2.115292
0.450000,-1.747445
0.451000,-1.551429
0.452000,-1.371960
0.453000,-1.249768
0.454000,-1.321046
0.455000,-1.553974
0.456000,-1.576885
0.457000,-1.585795
0.458000,-2.481867
0.459000,-2.681702
0.460000,-2.283306
0.461000,-1.599796
0.462000,-0.949380
0.463000,-0.536983
0.464000,-0.399518
0.465000,-0.612080
0.466000,-1.021931
0.467000,-2.047832
0.468000,-2.204390
0.469000,-2.513688
0.470000,-2.680429
0.471000,-2.451320
0.472000,-2.143295
0.473000,-1.812359
0.474000,-1.753809
0.475000,-1.662165
0.476000,-1.408872
0.477000,-1.099574
0.478000,-0.638810
0.479000,-0.281144
0.480000,0.178347
0.481000,0.415094
0.482000,0.023062
0.483000,-0.391881
0.484000,-0.715179
0.485000,-0.892103
0.486000,-1.127576
0.487000,-1.412690
0.488000,-1.580704
0.489000,-1.719442
0.490000,-1.799631
0.491000,-1.878546
0.492000,-2.148386
0.493000,-3.122101
0.494000,-3.041913
0.495000,-2.815349
0.496000,-2.362221
0.497000,-1.887456
0.498000,-1.518335
0.499000,-1.427964
0.500000,-1.405053
0.501000,-1.985464
0.502000,-2.279487
0.503000,-2.010920
0.504000,-1.825087
0.505000,-1.674893
0.506000,-1.421600
0.507000,-1.217947
0.508000,-0.884466
0.509000,-1.024477
0.510000,-1.262496
0.511000,-1.230676
0.512000,-1.382142
0.513000,-1.657074
0.514000,-1.847998
0.515000,-1.960007
0.516000,-2.005829
0.517000,-2.157296
0.518000,-2.849715
0.519000,-2.758072
0.520000,-2.321491
0.521000,-1.749990
0.522000,-1.494151
0.523000,-1.181035
0.524000,-1.049934
0.525000,-1.226857
0.526000,-1.517062
0.527000,-1.597251
0.528000,-1.520881
0.529000,-1.613797
0.530000,-1.480150
0.531000,-1.476332
0.532000,-1.473786
0.533000,-1.584522
0.534000,-1.580704
0.535000,-1.706714
0.536000,-1.804722
0.537000,-2.915902
0.538000,-3.706330
0.539000,-3.257021
0.540000,-2.516234
0.541000,-1.706714
0.542000,-1.541246
0.543000,-1.715624
0.544000,-1.499243
0.545000,-1.499243
0.546000,-1.505607
0.547000,-1.475059
0.548000,-1.408872
0.549000,-1.035933
0.550000,-0.792822
0.551000,-0.771184
0.552000,-0.781367
0.553000,-1.091937
0.554000,-1.114848
0.555000,-1.392325
0.556000,-1.517062
0.557000,-1.438147
0.558000,-1.245950
0.559000,-0.920105
0.560000,-0.735545
0.561000,-0.836098
0.562000,-0.908650
0.563000,-1.263769
0.564000,-1.237040
0.565000,-1.342685
0.566000,-1.323592
0.567000,-1.463603
0.568000,-1.700350
0.569000,-2.026194
0.570000,-2.058015
0.571000,-1.933278
0.572000,-1.968917
0.573000,-2.213300
0.574000,-1.901457
0.575000,-1.706714
0.576000,-1.504334
0.577000,-1.242131
0.578000,-1.762718
0.579000,-2.355857
0.580000,-2.828077
0.581000,-2.647335
0.582000,-1.923095
0.583000,-1.212856
0.584000,-0.704997
0.585000,-0.508981
0.586000,-0.646447
0.587000,-0.991384
0.588000,-1.214129
0.589000,-1.333775
0.590000,-1.618889
0.591000,-1.898911
0.592000,-2.199299
0.593000,-2.224756
0.594000,-2.178934
0.595000,-2.268032
0.596000,-2.474230
0.597000,-2.392769
0.598000,-2.340583
0.599000,-2.101291
0.600000,-1.873455
0.601000,-1.627799
0.602000,-1.541246
0.603000,-1.382142
0.604000,-1.207765
0.605000,-1.352867
0.606000,-1.621434
0.607000,-2.243848
0.608000,-3.348665
0.609000,-3.164104
0.610000,-2.465321
0.611000,-1.622707
0.612000,-0.897194
0.613000,-0.533165
0.614000,-0.391881
0.615000,-0.277326
0.616000,-0.459341
0.617000,-0.673176
0.618000,-0.587896
0.619000,-0.767365
0.620000,-0.823370
0.621000,-1.224311
0.622000,-1.545065
0.623000,-1.791994
0.624000,-1.977827
0.625000,-2.024921
0.626000,-1.975281
0.627000,-1.813632
0.628000,-1.658346
0.629000,-1.514517
0.630000,-1.436874
0.631000,-1.515789
0.632000,-1.595978
0.633000,-1.564157
0.634000,-1.640527
0.635000,-1.793266
0.636000,-1.865818
0.637000,-1.753809
0.638000,-1.692713
0.639000,-1.758900
0.640000,-1.816177
0.641000,-1.891274
0.642000,-1.904003
0.643000,-1.739808
0.644000,-1.685076
0.645000,-1.714351
0.646000,-1.780538
0.647000,-1.830178
0.648000,-2.164933
0.649000,-2.801348
0.650000,-3.633779
0.651000,-3.697420
0.652000,-3.029184
0.653000,-2.147113
0.654000,-1.483969
0.655000,-1.029568
0.656000,-0.636264
0.657000,-0.416064
0.658000,-0.262052
0.659000,-0.418610
0.660000,-0.464432
0.661000,-0.648992
0.662000,-0.678267
0.663000,-0.759728
0.664000,-0.902285
0.665000,-1.035933
0.666000,-1.121212
0.667000,-1.231948
0.668000,-1.433056
0.669000,-1.555247
0.670000,-1.425419
0.671000,-1.445784
0.672000,-1.667256
0.673000,-2.691884
0.674000,-2.513688
0.675000,-2.049105
0.676000,-1.626526
0.677000,-1.461058
0.678000,-1.445784
0.679000,-1.531063
0.680000,-1.734716
0.681000,-1.893820
0.682000,-1.970190
0.683000,-2.036377
0.684000,-1.988009
0.685000,-1.832724
0.686000,-1.720715
0.687000,-1.598523
0.688000,-1.307045
0.689000,-0.879374
0.690000,-0.894648
0.691000,-1.233221
0.692000,-1.536155
0.693000,-2.061834
0.694000,-2.303671
0.695000,-2.336765
0.696000,-2.236211
0.697000,-2.126748
0.698000,-2.171297
0.699000,-2.601513
0.700000,-3.159013
0.701000,-2.726251
0.702000,-1.984191
0.703000,-1.356686
0.704000,-1.111030
0.705000,-1.093210
0.706000,-1.193763
0.707000,-1.389779
0.708000,-1.425419
0.709000,-1.273952
0.710000,-1.669802
0.711000,-1.822541
0.712000,-2.023649
0.713000,-2.098746
0.714000,-2.050378
0.715000,-1.953643
0.716000,-1.859454
0.717000,-1.799631
0.718000,-1.657074
0.719000,-1.375778
0.720000,-1.473786
0.721000,-1.531063
0.722000,-1.923095
0.723000,-2.303671
0.724000,-2.049105
0.725000,-1.627799
0.726000,-1.305773
0.727000,-1.170853
0.728000,-1.179762
0.729000,-1.271406
0.730000,-1.286680
0.731000,-1.151760
0.732000,-1.080482
0.733000,-1.052479
0.734000,-1.151760
0.735000,-1.290499
0.736000,-1.383415
0.737000,-1.371960
0.738000,-1.539973
0.739000,-1.686349
0.740000,-1.821269
0.741000,-1.928186
0.742000,-1.933278
0.743000,-1.860726
0.744000,-1.805995
0.745000,-1.653255
0.746000,-1.716897
0.747000,-1.631617
0.748000,-1.654528
0.749000,-1.570521
0.750000,-1.774174
0.751000,-2.152204
0.752000,-2.189117
0.753000,-2.349493
0.754000,-1.918004
0.755000,-1.341412
0.756000,-0.684631
0.757000,-0.227686
0.758000,-0.113131
0.759000,-0.129678
0.760000,-0.503890
0.761000,-1.378324
0.762000,-2.914630
0.763000,-2.985908
0.764000,-2.331673
0.765000,-1.714351
0.766000,-1.356686
0.767000,-0.987565
0.768000,-0.829734
0.769000,-0.912468
0.770000,-1.104665
0.771000,-1.191218
0.772000,-1.483969
0.773000,-1.379597
0.774000,-1.336320
0.775000,-1.503061
0.776000,-1.505607
0.777000,-1.462331
0.778000,-1.490333
0.779000,-1.580704
0.780000,-1.725806
0.781000,-2.032558
0.782000,-2.262941
0.783000,-2.257849
0.784000,-2.136931
0.785000,-1.991828
0.786000,-1.851817
0.787000,-1.769083
0.788000,-1.756354
0.789000,-1.751263
0.790000,-1.751263
0.791000,-1.790721
0.792000,-1.774174
0.793000,-1.608706
0.794000,-1.454694
0.795000,-1.531063
0.796000,-1.651982
0.797000,-1.888729
0.798000,-1.984191
0.799000,-2.064379
0.800000,-2.108928
0.801000,-2.063106
0.802000,-1.976554
0.803000,-1.840361
0.804000,-1.916731
0.805000,-2.075835
0.806000,-1.840361
0.807000,-1.567976
0.808000,-1.307045
0.809000,-1.183581
0.810000,-1.195036
0.811000,-2.084744
0.812000,-2.518780
0.813000,-2.346947
0.814000,-2.060561
0.815000,-1.720715
0.816000,-1.739808
0.817000,-1.718169
0.818000,-1.786902
0.819000,-1.900184
0.820000,-2.140749
0.821000,-2.021103
0.822000,-2.042741
0.823000,-1.988009
0.824000,-1.342685
0.825000,-0.318056
0.826000,0.023062
0.827000,0.152891
0.828000,-0.003667
0.829000,-0.368970
0.830000,-0.876829
0.831000,-1.333775
0.832000,-1.575612
0.833000,-1.620162
0.834000,-1.514517
0.835000,-1.575612
0.836000,-1.501788
0.837000,-1.433056
0.838000,-1.559066
0.839000,-1.748717
0.840000,-1.850544
0.841000,-2.770800
0.842000,-2.600241
0.843000,-1.923095
0.844000,-1.357959
0.845000,-0.727908
0.846000,-0.396972
0.847000,-0.494980
0.848000,-0.657902
0.849000,-1.032114
0.850000,-2.077107
0.851000,-2.126748
0.852000,-1.733443
0.853000,-1.289226
0.854000,-1.196309
0.855000,-1.140305
0.856000,-1.111030
0.857000,-1.186127
0.858000,-1.388506
0.859000,-1.730898
0.860000,-2.200572
0.861000,-2.405498
0.862000,-2.471685
0.863000,-2.461502
0.864000,-2.322764
0.865000,-2.138203
0.866000,-1.925641
0.867000,-1.760173
0.868000,-1.653255
0.869000,-1.575612
0.870000,-1.519608
0.871000,-1.454694
0.872000,-1.434328
0.873000,-1.570521
0.874000,-2.078380
0.875000,-2.388951
0.876000,-2.236211
0.877000,-1.921822
0.878000,-1.585795
0.879000,-1.392325
0.880000,-1.301954
0.881000,-1.324865
0.882000,-1.534882
0.883000,-1.965098
0.884000,-2.768254
0.885000,-2.909538
0.886000,-2.672792
0.887000,-2.224756
0.888000,-1.730898
0.889000,-1.473786
0.890000,-1.345230
0.891000,-1.440693
0.892000,-1.478877
0.893000,-1.525972
0.894000,-1.581977
0.895000,-1.607433
0.896000,-1.519608
0.897000,-1.555247
0.898000,-1.748717
0.899000,-1.602342
0.900000,-1.626526
0.901000,-1.679985
0.902000,-1.616343
0.903000,-1.580704
0.904000,-1.495424
0.905000,-1.369414
0.906000,-1.235767
0.907000,-1.310864
0.908000,-1.290499
0.909000,-1.172125
0.910000,-1.141577
0.911000,-1.641800
0.912000,-1.809813
0.913000,-1.823814
0.914000,-1.760173
0.915000,-1.622707
0.916000,-1.524699
0.917000,-1.440693
0.918000,-1.200128
0.919000,-1.098301
0.920000,-1.159397
0.921000,-1.433056
0.922000,-1.555247
0.923000,-1.575612
0.924000,-1.520881
0.925000,-1.415236
0.926000,-1.397416
0.927000,-1.453421
0.928000,-1.513244
0.929000,-1.723261
0.930000,-1.746172
0.931000,-1.975281
0.932000,-2.861171
0.933000,-2.716068
0.934000,-2.058015
0.935000,-1.468695
0.936000,-1.074117
0.937000,-0.800459
0.938000,-0.744455
0.939000,-1.034660
0.940000,-1.259951
0.941000,-1.220493
0.942000,-1.346503
0.943000,-1.458512
0.944000,-1.392325
0.945000,-1.603615
0.946000,-1.637981
0.947000,-1.678712
0.948000,-1.765264
0.949000,-1.816177
0.950000,-2.304944
0.951000,-2.936268
0.952000,-2.628243
0.953000,-2.087290
0.954000,-1.497970
0.955000,-1.125031
0.956000,-1.277770
0.957000,-1.504334
0.958000,-3.129738
0.959000,-3.675782
0.960000,-3.267204
0.961000,-2.429681
0.962000,-1.687622
0.963000,-0.993929
0.964000,-0.619717
0.965000,-0.600625
0.966000,-0.656629
0.967000,-0.362606
0.968000,-0.422429
0.969000,-0.497525
0.970000,-0.883193
0.971000,-1.200128
0.972000,-1.621434
0.973000,-1.707987
0.974000,-1.626526
0.975000,-1.570521
0.976000,-1.641800
0.977000,-1.536155
0.978000,-1.495424
0.979000,-1.553974
0.980000,-1.673620
0.981000,-1.714351
0.982000,-1.774174
0.983000,-1.637981
0.984000,-1.895093
0.985000,-2.142022
0.986000,-2.287124
0.987000,-2.270578
0.988000,-2.143295
0.989000,-1.952370
0.990000,-1.775447
0.991000,-1.918004
0.992000,-2.040195
0.993000,-2.135658
0.994000,-2.117838
0.995000,-1.901457
0.996000,-1.385961
0.997000,-1.233221
0.998000,-1.322319
0.999000,-1.524699
1.000000,-1.438147
1.001000,-1.332502
1.002000,-1.234494
1.003000,-1.417782
1.004000,-1.569248
1.005000,-1.594705
1.006000,-1.471240
1.007000,-1.454694
1.008000,-1.537428
1.009000,-1.578158
1.010000,-1.509425
1.011000,-1.655801
1.012000,-1.849271
1.013000,-1.570521
1.014000,-1.643072
1.015000,-1.567976
1.016000,-2.512415
1.017000,-2.527689
1.018000,-1.939642
1.019000,-1.421600
1.020000,-1.081754
1.021000,-0.876829
1.022000,-0.907377
1.023000,-1.034660
1.024000,-1.368141
1.025000,-1.403780
1.026000,-1.468695
1.027000,-1.725806
1.028000,-1.685076
1.029000,-1.532336
1.030000,-1.234494
1.031000,-1.361777
1.032000,-1.475059
1.033000,-1.671075
1.034000,-2.046560
1.035000,-1.876000
1.036000,-1.795812
1.037000,-2.200572
1.038000,-2.686793
1.039000,-2.497141
1.040000,-2.125475
1.041000,-1.571794
1.042000,-1.318501
1.043000,-1.189945
1.044000,-1.193763
1.045000,-1.295590
1.046000,-1.420327
1.047000,-1.349049
1.048000,-1.825087
1.049000,-2.583694
1.050000,-2.261668
1.051000,-1.734716
1.052000,-1.083027
1.053000,-0.739363
1.054000,-0.796641
1.055000,-1.020659
1.056000,-1.183581
1.057000,-1.346503
1.058000,-1.279043
1.059000,-1.240858
1.060000,-1.333775
1.061000,-1.324865
1.062000,-1.359231
1.063000,-1.452148
1.064000,-1.713078
1.065000,-2.007102
1.066000,-2.047832
1.067000,-2.136931
1.068000,-2.288397
1.069000,-2.343129
1.070000,-2.268032
1.071000,-2.065652
1.072000,-1.873455
1.073000,-1.847998
1.074000,-1.784357
1.075000,-1.573067
1.076000,-1.186127
1.077000,-1.102120
1.078000,-1.338866
1.079000,-1.329956
1.080000,-1.273952
1.081000,-1.356686
1.082000,-1.584522
1.083000,-1.673620
1.084000,-1.553974
1.085000,-1.438147
1.086000,-1.579431
1.087000,-1.683803
1.088000,-1.702895
1.089000,-1.855635
1.090000,-1.998192
1.091000,-1.855635
1.092000,-1.775447
1.093000,-1.688894
1.094000,-1.545065
1.095000,-1.650709
1.096000,-1.685076
1.097000,-1.587068
1.098000,-1.399962
1.099000,-1.214129
1.100000,-1.257405
1.101000,-2.325309
1.102000,-2.414407
1.103000,-2.074562
1.104000,-1.557793
1.105000,-1.214129
1.106000,-1.058844
1.107000,-1.161943
1.108000,-1.280316
1.109000,-1.567976
1.110000,-1.713078
1.111000,-1.617616
1.112000,-2.045287
1.113000,-2.836987
1.114000,-2.914630
1.115000,-2.334219
1.116000,-1.501788
1.117000,-0.923924
1.118000,-0.641355
1.119000,-0.647719
1.120000,-0.939197
1.121000,-1.262496
1.122000,-1.500516
1.123000,-1.440693
1.124000,-1.606160
1.125000,-1.545065
1.126000,-1.881092
1.127000,-2.107655
1.128000,-2.096200
1.129000,-2.012193
1.130000,-1.881092
1.131000,-1.416509
1.132000,-1.225584
1.133000,-1.259951
1.134000,-1.365596
1.135000,-1.599796
1.136000,-1.817450
1.137000,-1.786902
1.138000,-1.765264
1.139000,-1.952370
1.140000,-2.117838
1.141000,-3.203562
1.142000,-4.067814
1.143000,-3.912528
1.144000,-3.461947
1.145000,-2.752980
1.146000,-2.061834
1.147000,-1.674893
1.148000,-1.453421
1.149000,-1.473786
1.150000,-1.242131
1.151000,-1.253586
1.152000,-1.371960
1.153000,-1.453421
1.154000,-1.459785
1.155000,-1.478877
1.156000,-1.473786
1.157000,-1.314682
1.158000,-1.056298
1.159000,-0.888284
1.160000,-0.789004
1.161000,-0.749546
1.162000,-0.699905
1.163000,-1.011749
1.164000,-1.310864
1.165000,-1.452148
1.166000,-1.648164
1.167000,-1.826360
1.168000,-1.896366
1.169000,-1.819996
1.170000,-1.776720
1.171000,-1.692713
1.172000,-1.867091
1.173000,-1.939642
1.174000,-1.933278
1.175000,-1.926914
1.176000,-2.013466
1.177000,-1.929459
1.178000,-1.700350
1.179000,-1.574340
1.180000,-1.541246
1.181000,-1.520881
1.182000,-1.611252
1.183000,-1.599796
1.184000,-1.440693
1.185000,-2.308763
1.186000,-2.602786
1.187000,-2.303671
1.188000,-1.933278
1.189000,-1.459785
1.190000,-1.173398
1.191000,-1.206492
1.192000,-1.976554
1.193000,-2.718614
1.194000,-2.864989
1.195000,-2.619333
1.196000,-2.278215
1.197000,-1.696531
1.198000,-1.188672
1.199000,-0.819551
1.200000,-0.734272
1.201000,-0.699905
1.202000,-0.969745
1.203000,-1.102120
1.204000,-1.142850
1.205000,-0.720271
1.206000,-0.829734
1.207000,-1.021931
1.208000,-1.020659
1.209000,-1.081754
1.210000,-1.281589
1.211000,-1.387234
1.212000,-1.464876
1.213000,-1.590886
1.214000,-1.685076
1.215000,-1.770355
1.216000,-1.734716
1.217000,-1.718169
1.218000,-1.781811
1.219000,-1.611252
1.220000,-1.592159
1.221000,-1.620162
1.222000,-1.667256
1.223000,-1.580704
1.224000,-1.379597
1.225000,-1.248495
1.226000,-1.337593
1.227000,-1.422873
1.228000,-1.285407
1.229000,-1.453421
1.230000,-1.524699
1.231000,-1.546337
1.232000,-1.776720
1.233000,-1.749990
1.234000,-1.714351
1.235000,-1.802176
1.236000,-1.779265
1.237000,-1.860726
1.238000,-1.989282
1.239000,-2.164933
1.240000,-2.481867
1.241000,-4.089452
1.242000,-3.963442
1.243000,-3.131011
1.244000,-2.164933
1.245000,-1.406326
1.246000,-0.675722
1.247000,-0.232777
1.248000,-0.124586
1.249000,-0.174227
1.250000,-0.253142
1.251000,-1.228130
1.252000,-1.237040
1.253000,-0.762274
1.254000,-0.340967
1.255000,-0.204775
1.256000,-0.227686
1.257000,-0.242959
1.258000,-0.704997
1.259000,-1.070299
1.260000,-2.111474
1.261000,-2.450047
1.262000,-2.400406
1.263000,-1.897638
1.264000,-1.696531
1.265000,-1.528518
1.266000,-1.570521
1.267000,-1.837815
1.268000,-2.038923
1.269000,-2.171297
1.270000,-2.078380
1.271000,-2.072016
1.272000,-1.993101
1.273000,-1.847998
1.274000,-1.817450
1.275000,-2.032558
1.276000,-1.909094
1.277000,-1.683803
1.278000,-1.537428
1.279000,-1.527245
1.280000,-1.377051
1.281000,-1.522154
1.282000,-1.664711
1.283000,-1.881092
1.284000,-1.839088
1.285000,-1.674893
1.286000,-2.014739
1.287000,-2.298580
1.288000,-2.310035
1.289000,-2.187844
1.290000,-1.872182
1.291000,-1.547610
1.292000,-1.373233
1.293000,-1.184854
1.294000,-0.874283
1.295000,-0.963381
1.296000,-1.125031
1.297000,-1.084300
1.298000,-0.730453
1.299000,-0.810642
1.300000,-1.135213
1.301000,-1.215402
1.302000,-1.347776
1.303000,-1.391052
1.304000,-1.317228
1.305000,-1.430510
1.306000,-1.514517
1.307000,-1.583249
1.308000,-1.881092
1.309000,-2.082199
1.310000,-2.051651
1.311000,-1.974008
1.312000,-1.466149
1.313000,-1.083027
1.314000,-1.042297
1.315000,-0.895921
1.316000,-1.002839
1.317000,-1.319774
1.318000,-1.265042
1.319000,-1.258678
1.320000,-1.220493
1.321000,-1.168307
1.322000,-1.093210
1.323000,-1.336320
1.324000,-1.906548
1.325000,-2.321491
1.326000,-3.344846
1.327000,-3.561227
1.328000,-3.067369
1.329000,-2.409316
1.330000,-1.861999
1.331000,-1.385961
1.332000,-1.137759
1.333000,-0.958290
1.334000,-0.943016
1.335000,-0.908650
1.336000,-0.889557
1.337000,-0.962108
1.338000,-1.029568
1.339000,-1.131395
1.340000,-1.265042
1.341000,-1.366868
1.342000,-1.411417
1.343000,-1.527245
1.344000,-2.480595
1.345000,-2.840805
1.346000,-3.043185
1.347000,-2.401679
1.348000,-1.557793
1.349000,-1.067753
1.350000,-0.619717
1.351000,-0.613353
1.352000,-0.819551
1.353000,-1.077936
1.354000,-1.310864
1.355000,-1.592159
1.356000,-1.672348
1.357000,-1.865818
1.358000,-1.814905
1.359000,-1.763991
1.360000,-1.683803
1.361000,-1.825087
1.362000,-1.986737
1.363000,-1.943460
1.364000,-1.976554
1.365000,-1.960007
1.366000,-2.022376
1.367000,-2.063106
1.368000,-2.474230
1.369000,-2.973180
1.370000,-3.187015
1.371000,-3.405942
1.372000,-3.134829
1.373000,-2.723705
1.374000,-2.131839
1.375000,-1.732171
1.376000,-1.318501
1.377000,-0.889557
1.378000,-0.646447
1.379000,-0.473342
1.380000,-0.152589
1.381000,0.229260
1.382000,0.735847
1.383000,0.334905
1.384000,-0.199683
1.385000,-0.576441
1.386000,-0.971018
1.387000,-1.387234
1.388000,-1.942188
1.389000,-2.223483
1.390000,-2.184025
1.391000,-1.990555
1.392000,-1.979100
1.393000,-1.629071
1.394000,-1.272679
1.395000,-0.915014
1.396000,-1.030841
1.397000,-1.013022
1.398000,-0.648992
1.399000,-0.785185
1.400000,-1.127576
1.401000,-1.239585
1.402000,-1.342685
1.403000,-1.415236
1.404000,-1.920549
1.405000,-2.428409
1.406000,-3.169196
1.407000,-3.461947
1.408000,-2.878990
1.409000,-2.331673
1.410000,-1.648164
1.411000,-1.249768
1.412000,-0.937925
1.413000,-0.922651
1.414000,-1.067753
1.415000,-1.267588
1.416000,-1.360504
1.417000,-1.613797
1.418000,-1.603615
1.419000,-1.612525
1.420000,-1.527245
1.421000,-1.461058
1.422000,-1.611252
1.423000,-1.739808
1.424000,-2.280760
1.425000,-3.092826
1.426000,-3.087735
1.427000,-2.890446
1.428000,-2.828077
1.429000,-3.072461
1.430000,-3.194652
1.431000,-2.891719
1.432000,-2.401679
1.433000,-1.916731
1.434000,-1.347776
1.435000,-0.898467
1.436000,-0.739363
1.437000,-0.473342
1.438000,-0.582805
1.439000,-0.423701
1.440000,-0.180591
1.441000,-0.451704
1.442000,-0.869192
1.443000,-1.104665
1.444000,-1.188672
1.445000,-1.387234
1.446000,-1.417782
1.447000,-1.546337
1.448000,-1.524699
1.449000,-1.363050
1.450000,-1.850544
1.451000,-2.012193
1.452000,-2.026194
1.453000,-1.944733
1.454000,-1.603615
1.455000,-1.452148
1.456000,-1.286680
1.457000,-1.051207
1.458000,-0.992656
1.459000,-0.995202
1.460000,-0.979928
1.461000,-0.972291
1.462000,-0.869192
1.463000,-1.135213
1.464000,-1.450875
1.465000,-1.774174
1.466000,-2.042741
1.467000,-2.186571
1.468000,-2.245121
1.469000,-2.234938
1.470000,-2.177661
1.471000,-2.079653
1.472000,-1.965098
1.473000,-1.909094
1.474000,-2.881536
1.475000,-3.542135
1.476000,-2.915902
1.477000,-1.842907
1.478000,-1.214129
1.479000,-0.925196
1.480000,-0.890830
1.481000,-0.911195
1.482000,-1.161943
1.483000,-1.392325
1.484000,-1.585795
1.485000,-1.606160
1.486000,-1.609979
1.487000,-1.487787
1.488000,-1.527245
1.489000,-1.592159
1.490000,-1.480150
1.491000,-1.461058
1.492000,-1.472513
1.493000,-1.501788
1.494000,-1.587068
1.495000,-1.783084
1.496000,-1.856908
1.497000,-1.971463
1.498000,-2.227301
1.499000,-2.299853
1.500000,-2.287124
1.501000,-2.012193
1.502000,-1.966371
1.503000,-2.028740
1.504000,-2.204390
1.505000,-2.140749
1.506000,-2.144567
1.507000,-2.128021
1.508000,-1.897638
1.509000,-2.040195
1.510000,-1.960007
1.511000,-1.541246
1.512000,-1.121212
1.513000,-0.473342
1.514000,-0.248051
1.515000,-0.053308
1.516000,0.012879
1.517000,0.101977
1.518000,-0.178045
1.519000,-1.365596
1.520000,-1.702895
1.521000,-1.426691
1.522000,-1.089391
1.523000,-0.744455
1.524000,-0.619717
1.525000,-0.730453
1.526000,-0.893376
1.527000,-1.472513
1.528000,-1.993101
1.529000,-2.456411
1.530000,-2.728796
1.531000,-2.681702
1.532000,-2.469139
1.533000,-2.237484
1.534000,-1.849271
1.535000,-1.728352
1.536000,-1.771628
1.537000,-1.817450
1.538000,-1.705441
1.539000,-1.611252
1.540000,-1.248495
1.541000,-1.223039
1.542000,-1.300681
1.543000,-1.529791
1.544000,-1.674893
1.545000,-1.887456
1.546000,-2.481867
1.547000,-3.489949
1.548000,-4.417842
1.549000,-3.763607
1.550000,-2.553146
1.551000,-1.513244
1.552000,-0.986292
1.553000,-0.704997
1.554000,-0.613353
1.555000,-0.547166
1.556000,-0.288781
1.557000,-0.274780
1.558000,-0.782639
1.559000,-0.950653
1.560000,-0.976110
1.561000,-0.883193
1.562000,-0.978655
1.563000,-1.004112
1.564000,-1.165761
1.565000,-1.458512
1.566000,-1.646891
1.567000,-1.942188
1.568000,-2.101291
1.569000,-2.278215
1.570000,-2.472958
1.571000,-2.672792
1.572000,-2.694430
1.573000,-2.565874
1.574000,-2.565874
1.575000,-2.114020
1.576000,-1.770355
1.577000,-1.326138
1.578000,-0.818279
1.579000,-0.581532
1.580000,-0.465705
1.581000,-0.390608
1.582000,-0.264598
1.583000,-0.508981
1.584000,-0.954471
1.585000,-1.109757
1.586000,-1.238313
1.587000,-1.452148
1.588000,-1.721988
1.589000,-2.033831
1.590000,-2.086017
1.591000,-1.991828
1.592000,-1.958734
1.593000,-2.056742
1.594000,-2.008375
1.595000,-1.960007
1.596000,-1.856908
1.597000,-1.697804
1.598000,-1.649437
1.599000,-1.733443
1.600000,-1.825087
1.601000,-2.722432
1.602000,-3.362666
1.603000,-2.947723
1.604000,-2.334219
1.605000,-1.602342
1.606000,-1.071572
1.607000,-0.839917
1.608000,-0.661721
1.609000,-0.511527
1.610000,-0.661721
1.611000,-0.768638
1.612000,-0.987565
1.613000,-1.042297
1.614000,-0.978655
1.615000,-1.099574
1.616000,-1.224311
1.617000,-1.397416
1.618000,-1.511971
1.619000,-1.727079
1.620000,-1.844180
1.621000,-1.856908
1.622000,-1.845452
1.623000,-1.999465
1.624000,-2.411862
1.625000,-3.311753
1.626000,-3.302843
1.627000,-2.600241
1.628000,-2.036377
1.629000,-1.622707
1.630000,-1.291771
1.631000,-1.174671
1.632000,-1.086846
1.633000,-1.057571
1.634000,-1.083027
1.635000,-1.303227
1.636000,-1.681257
1.637000,-2.741525
1.638000,-2.592604
1.639000,-2.236211
1.640000,-1.847998
1.641000,-1.644345
1.642000,-1.637981
1.643000,-1.569248
1.644000,-1.287953
1.645000,-1.383415
1.646000,-1.620162
1.647000,-1.373233
1.648000,-1.267588
1.649000,-1.361777
1.650000,-1.184854
1.651000,-1.046115
1.652000,-0.811914
1.653000,-0.811914
1.654000,-1.109757
1.655000,-1.366868
1.656000,-1.548883
1.657000,-1.655801
1.658000,-2.038923
1.659000,-2.676610
1.660000,-2.900628
1.661000,-2.754253
1.662000,-2.462775
1.663000,-2.168751
1.664000,-1.794539
1.665000,-1.286680
1.666000,-1.033387
1.667000,-0.817006
1.668000,-0.587896
1.669000,-0.324421
1.670000,-0.068582
1.671000,-0.124586
1.672000,-0.468250
1.673000,-0.739363
1.674000,-0.937925
1.675000,-1.231948
1.676000,-1.587068
1.677000,-2.313854
1.678000,-3.156467
1.679000,-3.316844
1.680000,-3.114464
1.681000,-2.707158
1.682000,-2.234938
1.683000,-1.865818
1.684000,-1.584522
1.685000,-1.438147
1.686000,-1.398689
1.687000,-1.349049
1.688000,-1.041024
1.689000,-0.781367
1.690000,-1.193763
1.691000,-1.127576
1.692000,-0.929015
1.693000,-1.870909
1.694000,-2.167478
1.695000,-1.946006
1.696000,-1.576885
1.697000,-1.280316
1.698000,-1.296863
1.699000,-1.195036
1.700000,-1.671075
1.701000,-2.493323
1.702000,-2.425863
1.703000,-1.865818
1.704000,-1.553974
1.705000,-1.496697
1.706000,-1.688894
1.707000,-1.879819
1.708000,-1.984191
1.709000,-1.928186
1.710000,-1.863272
1.711000,-1.836543
1.712000,-1.864545
1.713000,-1.934551
1.714000,-2.889173
1.715000,-2.632061
1.716000,-2.031286
1.717000,-1.248495
1.718000,-0.685904
1.719000,-0.424974
1.720000,-0.573895
1.721000,-0.912468
1.722000,-1.319774
1.723000,-1.930732
1.724000,-2.131839
1.725000,-2.152204
1.726000,-2.195481
1.727000,-1.905275
1.728000,-2.121657
1.729000,-2.145840
1.730000,-2.002011
1.731000,-1.864545
1.732000,-1.897638
1.733000,-1.657074
1.734000,-1.448329
1.735000,-1.399962
1.736000,-1.121212
1.737000,-0.972291
1.738000,-0.510254
1.739000,-0.146224
1.740000,-0.034215
1.741000,-0.479706
1.742000,-0.842462
1.743000,-1.179762
1.744000,-1.613797
1.745000,-1.753809
1.746000,-1.952370
1.747000,-1.867091
1.748000,-2.191662
1.749000,-2.218392
1.750000,-1.996919
1.751000,-1.707987
1.752000,-1.611252
1.753000,-1.462331
1.754000,-1.286680
1.755000,-1.196309
1.756000,-0.973564
1.757000,-0.731726
1.758000,-0.747000
1.759000,-1.105938
1.760000,-1.730898
1.761000,-2.358403
1.762000,-2.542963
1.763000,-2.598968
1.764000,-2.432227
1.765000,-2.213300
1.766000,-2.162387
1.767000,-2.031286
1.768000,-1.870909
1.769000,-1.686349
1.770000,-1.483969
1.771000,-1.361777
1.772000,-1.248495
1.773000,-1.356686
1.774000,-2.157296
1.775000,-2.176388
1.776000,-1.789448
1.777000,-1.203946
1.778000,-1.080482
1.779000,-1.019386
1.780000,-1.044842
1.781000,-1.247222
1.782000,-1.637981
1.783000,-1.847998
1.784000,-1.961280
1.785000,-2.242575
1.786000,-2.335492
1.787000,-2.184025
1.788000,-2.032558
1.789000,-1.996919
1.790000,-2.142022
1.791000,-3.080098
1.792000,-3.993989
1.793000,-3.521770
1.794000,-2.214573
1.795000,-0.979928
1.796000,-0.199683
1.797000,0.091795
1.798000,-0.072400
1.799000,-0.558621
1.800000,-1.160670
1.801000,-1.593432
1.802000,-1.836543
1.803000,-1.812359
1.804000,-1.536155
1.805000,-1.001566
1.806000,-0.612080
1.807000,-0.351150
1.808000,-0.503890
1.809000,-0.675722
1.810000,-0.797913
1.811000,-1.001566
1.812000,-1.207765
1.813000,-1.352867
1.814000,-1.485242
1.815000,-1.877273
1.816000,-2.074562
1.817000,-2.094927
1.818000,-2.009648
1.819000,-1.812359
1.820000,-1.748717
1.821000,-2.044014
1.822000,-2.324037
1.823000,-2.444955
1.824000,-2.247667
1.825000,-2.036377
1.826000,-1.700350
1.827000,-1.481423
1.828000,-1.485242
1.829000,-1.499243
1.830000,-1.467422
1.831000,-1.315955
1.832000,-1.130122
1.833000,-1.043570
1.834000,-1.186127
1.835000,-1.427964
1.836000,-1.524699
1.837000,-1.427964
1.838000,-1.310864
1.839000,-1.323592
1.840000,-1.579431
1.841000,-1.819996
1.842000,-1.891274
1.843000,-1.981645
1.844000,-2.116565
1.845000,-2.088563
1.846000,-2.016012
1.847000,-2.041468
1.848000,-3.059732
1.849000,-3.422489
1.850000,-2.959179
1.851000,-2.059288
1.852000,-1.181035
1.853000,-0.795368
1.854000,-0.563713
1.855000,-0.568804
1.856000,-0.758456
1.857000,-0.904831
1.858000,-1.053752
1.859000,-1.167034
1.860000,-1.132668
1.861000,-1.441965
1.862000,-1.743626
1.863000,-2.209482
1.864000,-3.390668
1.865000,-3.627414
1.866000,-3.190834
1.867000,-2.287124
1.868000,-1.503061
1.869000,-1.178490
1.870000,-0.939197
1.871000,-0.828461
1.872000,-0.710088
1.873000,-0.752091
1.874000,-0.934106
1.875000,-1.145396
1.876000,-1.331229
1.877000,-1.478877
1.878000,-1.405053
1.879000,-1.464876
1.880000,-1.546337
1.881000,-1.444511
1.882000,-1.462331
1.883000,-1.593432
1.884000,-1.539973
1.885000,-1.270133
1.886000,-1.196309
1.887000,-1.318501
1.888000,-1.477605
1.889000,-1.963826
1.890000,-2.873899
1.891000,-2.745343
1.892000,-2.478049
1.893000,-2.014739
1.894000,-1.497970
1.895000,-1.248495
1.896000,-0.973564
1.897000,-1.019386
1.898000,-1.209037
1.899000,-1.268860
1.900000,-1.088119
1.901000,-1.201400
1.902000,-1.119939
1.903000,-1.347776
1.904000,-1.326138
1.905000,-1.181035
1.906000,-1.065208
1.907000,-0.837371
1.908000,-0.967200
1.909000,-1.263769
1.910000,-1.431783
1.911000,-1.601069
1.912000,-1.609979
1.913000,-1.483969
1.914000,-1.621434
1.915000,-2.217119
1.916000,-2.868808
1.917000,-2.752980
1.918000,-2.313854
1.919000,-1.924368
1.920000,-1.891274
1.921000,-1.762718
1.922000,-1.723261
1.923000,-1.746172
1.924000,-1.823814
1.925000,-1.937096
1.926000,-2.368586
1.927000,-2.553146
1.928000,-2.269305
1.929000,-2.024921
1.930000,-1.650709
1.931000,-1.230676
1.932000,-0.972291
1.933000,-1.011749
1.934000,-1.193763
1.935000,-1.187399
1.936000,-1.270133
1.937000,-1.359231
1.938000,-1.188672
1.939000,-1.567976
1.940000,-2.105110
1.941000,-3.063551
1.942000,-2.858625
1.943000,-2.469139
1.944000,-1.790721
1.945000,-1.324865
1.946000,-1.112302
1.947000,-1.118667
1.948000,-1.014294
1.949000,-1.062662
1.950000,-1.273952
1.951000,-1.625253
1.952000,-1.756354
1.953000,-1.686349
1.954000,-1.509425
1.955000,-1.623980
1.956000,-1.681257
1.957000,-1.534882
1.958000,-1.257405
1.959000,-1.238313
1.960000,-1.310864
1.961000,-1.128849
1.962000,-0.946834
1.963000,-0.916287
1.964000,-1.247222
1.965000,-1.332502
1.966000,-1.579431
1.967000,-1.803449
1.968000,-1.926914
1.969000,-2.059288
1.970000,-2.181480
1.971000,-2.260395
1.972000,-2.332946
1.973000,-2.255304
1.974000,-2.061834
1.975000,-1.702895
1.976000,-1.573067
1.977000,-2.150932
1.978000,-1.944733
1.979000,-1.480150
1.980000,-1.146669
1.981000,-0.824643
1.982000,-0.743182
1.983000,-0.827188
1.984000,-1.117394
1.985000,-1.904003
1.986000,-2.520052
1.987000,-2.478049
1.988000,-2.108928
1.989000,-1.774174
1.990000,-2.308763
1.991000,-2.177661
1.992000,-1.578158
1.993000,-0.962108
1.994000,-0.539529
1.995000,-0.477160
1.996000,-0.329512
1.997000,-0.305328
1.998000,-0.654084
1.999000,-0.968473
2.000000,-1.049934
2.001000,-1.253586
2.002000,-1.640527
2.003000,-1.830178
2.004000,-1.902730
2.005000,-1.849271
2.006000,-1.823814
2.007000,-1.925641
2.008000,-2.168751
2.009000,-2.320218
2.010000,-2.332946
2.011000,-2.167478
2.012000,-1.863272
2.013000,-1.519608
2.014000,-1.331229
2.015000,-1.226857
2.016000,-1.237040
2.017000,-1.123758
2.018000,-1.052479
2.019000,-1.144123
2.020000,-1.159397
2.021000,-1.239585
2.022000,-1.219220
2.023000,-2.602786
2.024000,-3.033003
2.025000,-2.849715
2.026000,-2.504778
2.027000,-1.932005
2.028000,-1.650709
2.029000,-1.415236
2.030000,-1.223039
2.031000,-1.195036
2.032000,-1.156851
2.033000,-1.262496
2.034000,-1.361777
2.035000,-1.378324
2.036000,-1.192491
2.037000,-1.350322
2.038000,-1.732171
2.039000,-1.949824
2.040000,-2.177661
2.041000,-2.285852
2.042000,-2.288397
2.043000,-2.027467
2.044000,-1.620162
2.045000,-1.354140
2.046000,-1.289226
2.047000,-1.406326
2.048000,-1.510698
2.049000,-1.691440
2.050000,-1.441965
2.051000,-1.259951
2.052000,-1.478877
2.053000,-1.742353
2.054000,-2.058015
2.055000,-2.822986
2.056000,-3.068642
2.057000,-2.792438
2.058000,-2.038923
2.059000,-1.289226
2.060000,-0.895921
2.061000,-1.122485
2.062000,-1.209037
2.063000,-0.893376
2.064000,-0.538256
2.065000,-0.226413
2.066000,-0.128405
2.067000,-0.349877
2.068000,-0.684631
2.069000,-1.198855
2.070000,-1.464876
2.071000,-1.560339
2.072000,-1.688894
2.073000,-1.640527
2.074000,-1.615070
2.075000,-1.552702
2.076000,-1.533609
2.077000,-1.511971
2.078000,-1.538700
2.079000,-1.606160
2.080000,-1.763991
2.081000,-1.995646
2.082000,-2.082199
2.083000,-2.129294
2.084000,-2.331673
2.085000,-2.376223
2.086000,-2.294761
2.087000,-2.302398
2.088000,-2.129294
2.089000,-1.972735
2.090000,-1.794539
2.091000,-1.551429
2.092000,-1.491606
2.093000,-1.562884
2.094000,-1.548883
2.095000,-1.553974
2.096000,-1.721988
2.097000,-2.078380
2.098000,-2.130566
2.099000,-2.009648
2.100000,-1.932005
2.101000,-1.701623
2.102000,-1.588341
2.103000,-1.506880
2.104000,-1.396143
2.105000,-1.307045
2.106000,-1.346503
2.107000,-1.524699
2.108000,-2.609150
2.109000,-2.637153
2.110000,-2.014739
2.111000,-1.443238
2.112000,-0.990111
2.113000,-1.041024
2.114000,-1.083027
2.115000,-1.030841
2.116000,-1.615070
2.117000,-2.092381
2.118000,-2.199299
2.119000,-2.373677
2.120000,-2.352039
2.121000,-2.145840
2.122000,-1.817450
2.123000,-1.429237
2.124000,-1.248495
2.125000,-1.069026
2.126000,-0.862828
2.127000,-0.688450
2.128000,-0.503890
2.129000,-0.544620
2.130000,-0.953199
2.131000,-1.361777
2.132000,-1.491606
2.133000,-1.429237
2.134000,-1.349049
2.135000,-1.464876
2.136000,-1.606160
2.137000,-2.569693
2.138000,-2.806439
2.139000,-2.514961
2.140000,-2.004556
2.141000,-1.794539
2.142000,-1.650709
2.143000,-1.387234
2.144000,-1.318501
2.145000,-1.387234
2.146000,-1.335048
2.147000,-1.277770
2.148000,-1.420327
2.149000,-1.270133
2.150000,-1.053752
2.151000,-0.925196
2.152000,-0.819551
2.153000,-1.128849
2.154000,-1.368141
2.155000,-2.355857
2.156000,-3.627414
2.157000,-3.419943
2.158000,-3.265931
2.159000,-2.694430
2.160000,-2.058015
2.161000,-1.546337
2.162000,-1.099574
2.163000,-0.973564
2.164000,-0.862828
2.165000,-0.603170
2.166000,-0.424974
2.167000,-0.730453
2.168000,-0.664266
2.169000,-0.814460
2.170000,-0.997748
2.171000,-1.486514
2.172000,-1.733443
2.173000,-2.142022
2.174000,-3.520497
2.175000,-3.741969
2.176000,-3.117010
2.177000,-2.338038
2.178000,-1.607433
2.179000,-1.198855
2.180000,-0.892103
2.181000,-0.769911
2.182000,-0.684631
2.183000,-0.655356
2.184000,-0.734272
2.185000,-0.842462
2.186000,-0.582805
2.187000,-1.132668
2.188000,-1.527245
2.189000,-1.595978
2.190000,-1.686349
2.191000,-1.795812
2.192000,-1.849271
2.193000,-1.825087
2.194000,-1.860726
2.195000,-1.906548
2.196000,-1.925641
2.197000,-1.960007
2.198000,-1.975281
2.199000,-2.059288
2.200000,-2.278215
2.201000,-2.383860
2.202000,-2.223483
2.203000,-1.991828
2.204000,-1.813632
2.205000,-1.634163
2.206000,-1.588341
2.207000,-1.462331
2.208000,-1.314682
2.209000,-1.412690
2.210000,-1.403780
2.211000,-1.438147
2.212000,-1.564157
2.213000,-2.397861
2.214000,-2.929904
2.215000,-2.989727
2.216000,-2.484413
2.217000,-1.867091
2.218000,-1.421600
2.219000,-1.205219
2.220000,-1.248495
2.221000,-1.271406
2.222000,-1.310864
2.223000,-1.216674
2.224000,-1.102120
2.225000,-1.183581
2.226000,-1.425419
2.227000,-1.585795
2.228000,-1.679985
2.229000,-1.795812
2.230000,-1.769083
2.231000,-1.827633
2.232000,-1.753809
2.233000,-2.196754
2.234000,-2.546782
2.235000,-2.793711
2.236000,-3.075006
2.237000,-2.801348
2.238000,-2.219664
2.239000,-1.747445
2.240000,-1.060116
2.241000,-0.575168
2.242000,-0.129678
2.243000,0.272537
2.244000,0.367999
2.245000,0.247080
2.246000,0.283992
2.247000,0.131253
2.248000,-0.206047
2.249000,-0.655356
2.250000,-1.150487
2.251000,-1.396143
2.252000,-1.831451
2.253000,-2.185298
2.254000,-2.386405
2.255000,-3.218836
2.256000,-3.636324
2.257000,-3.104281
2.258000,-2.915902
2.259000,-2.643517
2.260000,-2.052924
2.261000,-1.500516
2.262000,-1.023204
2.263000,-0.761001
2.264000,-0.668085
2.265000,-0.684631
2.266000,-0.957017
2.267000,-1.188672
2.268000,-1.667256
2.269000,-1.916731
2.270000,-1.943460
2.271000,-1.671075
2.272000,-1.570521
2.273000,-1.584522
2.274000,-1.525972
2.275000,-1.366868
2.276000,-1.261223
2.277000,-1.323592
2.278000,-1.445784
2.279000,-1.324865
2.280000,-1.557793
2.281000,-1.826360
2.282000,-1.804722
2.283000,-1.659619
2.284000,-1.657074
2.285000,-1.629071
2.286000,-1.691440
2.287000,-1.844180
2.288000,-2.722432
2.289000,-3.012638
2.290000,-2.653699
2.291000,-2.091109
2.292000,-1.579431
2.293000,-1.354140
2.294000,-1.109757
2.295000,-1.062662
2.296000,-1.319774
2.297000,-1.497970
2.298000,-1.427964
2.299000,-1.458512
2.300000,-1.654528
2.301000,-2.000738
2.302000,-2.583694
2.303000,-3.212472
2.304000,-3.125919
2.305000,-2.684247
2.306000,-2.292216
2.307000,-1.779265
2.308000,-1.458512
2.309000,-1.220493
2.310000,-1.202673
2.311000,-1.067753
2.312000,-1.091937
2.313000,-0.623536
2.314000,-0.492434
2.315000,-0.606989
2.316000,-0.764820
2.317000,-0.853918
2.318000,-0.931561
2.319000,-1.062662
2.320000,-1.077936
2.321000,-1.091937
2.322000,-0.995202
2.323000,-1.072845
2.324000,-1.606160
2.325000,-2.129294
2.326000,-2.279487
2.327000,-3.129738
2.328000,-3.978715
2.329000,-4.007991
2.330000,-3.657962
2.331000,-2.880263
2.332000,-2.321491
2.333000,-1.802176
2.334000,-1.380869
2.335000,-1.035933
2.336000,-0.570077
2.337000,0.001424
2.338000,0.150345
2.339000,0.452006
2.340000,0.355271
2.341000,-1.006657
2.342000,-1.118667
2.343000,-0.670630
2.344000,-0.428793
2.345000,-0.522982
2.346000,-0.575168
2.347000,-0.567531
2.348000,-0.907377
2.349000,-1.144123
2.350000,-1.450875
2.351000,-1.902730
2.352000,-2.904447
2.353000,-2.966816
2.354000,-2.507324
2.355000,-1.893820
2.356000,-1.524699
2.357000,-1.357959
2.358000,-1.388506
2.359000,-1.562884
2.360000,-1.678712
2.361000,-1.804722
2.362000,-1.966371
2.363000,-2.260395
2.364000,-2.259122
2.365000,-2.392769
2.366000,-2.858625
2.367000,-2.900628
2.368000,-2.670246
2.369000,-2.404225
2.370000,-2.273123
2.371000,-1.979100
2.372000,-1.611252
2.373000,-1.291771
2.374000,-1.052479
2.375000,-1.144123
2.376000,-1.164488
2.377000,-1.006657
2.378000,-0.985019
2.379000,-0.909922
2.380000,-1.102120
2.381000,-1.393598
2.382000,-1.480150
2.383000,-1.497970
2.384000,-1.452148
2.385000,-1.289226
2.386000,-1.393598
2.387000,-1.580704
2.388000,-1.825087
2.389000,-1.960007
2.390000,-2.307490
2.391000,-2.761890
2.392000,-2.990999
2.393000,-3.131011
2.394000,-2.849715
2.395000,-2.394042
2.396000,-1.827633
2.397000,-1.399962
2.398000,-1.160670
2.399000,-1.071572
2.400000,-0.866646
2.401000,-0.592988
2.402000,-0.586624
2.403000,-0.488616
2.404000,-0.713907
2.405000,-1.000293
2.406000,-2.209482
2.407000,-2.699521
2.408000,-2.644790
2.409000,-2.437318
2.410000,-1.990555
2.411000,-1.662165
2.412000,-1.461058
2.413000,-1.360504
2.414000,-1.279043
2.415000,-1.300681
2.416000,-1.315955
2.417000,-1.468695
2.418000,-1.280316
2.419000,-1.038478
2.420000,-0.884466
2.421000,-1.011749
2.422000,-1.158124
2.423000,-1.485242
2.424000,-1.695259
2.425000,-1.780538
2.426000,-1.758900
2.427000,-1.546337
2.428000,-1.291771
2.429000,-1.373233
2.430000,-1.593432
2.431000,-1.842907
2.432000,-2.366040
2.433000,-3.913801
2.434000,-4.238373
2.435000,-3.464492
2.436000,-2.385132
2.437000,-1.405053
2.438000,-0.964654
2.439000,-0.750819
2.440000,-0.753364
2.441000,-0.904831
2.442000,-1.240858
2.443000,-1.242131
2.444000,-1.214129
2.445000,-1.341412
2.446000,-1.541246
2.447000,-1.667256
2.448000,-1.459785
2.449000,-1.189945
2.450000,-1.224311
2.451000,-1.576885
2.452000,-1.814905
2.453000,-1.827633
2.454000,-1.771628
2.455000,-1.718169
2.456000,-1.581977
2.457000,-1.345230
2.458000,-1.177217
2.459000,-1.105938
2.460000,-1.102120
2.461000,-1.293044
2.462000,-0.974837
2.463000,-1.186127
2.464000,-1.374505
2.465000,-1.397416
2.466000,-1.410145
2.467000,-1.536155
2.468000,-1.595978
2.469000,-1.679985
2.470000,-1.704168
2.471000,-1.777992
2.472000,-2.191662
2.473000,-2.405498
2.474000,-2.313854
2.475000,-2.065652
2.476000,-1.788175
2.477000,-1.547610
2.478000,-1.407599
2.479000,-1.435601
2.480000,-1.287953
2.481000,-1.314682
2.482000,-1.503061
2.483000,-1.606160
2.484000,-1.615070
2.485000,-1.632890
2.486000,-1.920549
2.487000,-2.185298
2.488000,-2.098746
2.489000,-1.914185
2.490000,-1.747445
2.491000,-2.218392
2.492000,-2.937541
2.493000,-2.821713
2.494000,-2.307490
2.495000,-1.710532
2.496000,-1.713078
2.497000,-1.876000
2.498000,-2.227301
2.499000,-3.174287
2.500000,-3.218836
2.501000,-2.560783
2.502000,-1.835270
2.503000,-1.233221
2.504000,-0.736818
2.505000,-0.395699
2.506000,-0.284963
2.507000,-0.195865
2.508000,-0.160226
2.509000,-0.141133
2.510000,-0.074946
2.511000,0.356543
2.512000,0.262354
2.513000,-0.316784
2.514000,-1.195036
2.515000,-1.673620
2.516000,-1.819996
2.517000,-1.934551
2.518000,-2.021103
2.519000,-1.868363
2.520000,-1.812359
2.521000,-1.779265
2.522000,-1.761446
2.523000,-1.695259
2.524000,-1.589614
2.525000,-1.654528
2.526000,-1.772901
2.527000,-1.807268
2.528000,-2.086017
2.529000,-2.198026
2.530000,-2.292216
2.531000,-3.064824
2.532000,-3.786518
2.533000,-3.416125
2.534000,-2.676610
2.535000,-1.873455
2.536000,-1.481423
2.537000,-1.234494
2.538000,-1.053752
2.539000,-0.898467
2.540000,-0.829734
2.541000,-0.813187
2.542000,-0.906104
2.543000,-1.062662
2.544000,-0.889557
2.545000,-0.945562
2.546000,-1.161943
2.547000,-1.384688
2.548000,-1.398689
2.549000,-1.590886
2.550000,-1.727079
2.551000,-1.756354
2.552000,-1.729625
2.553000,-1.877273
2.554000,-1.886183
2.555000,-1.873455
2.556000,-2.092381
2.557000,-2.098746
2.558000,-1.991828
2.559000,-1.761446
2.560000,-1.438147
2.561000,-1.427964
2.562000,-1.366868
2.563000,-1.443238
2.564000,-1.561611
2.565000,-1.850544
2.566000,-2.654972
2.567000,-3.019002
2.568000,-3.260839
2.569000,-3.696147
2.570000,-4.077996
2.571000,-4.084360
2.572000,-3.067369
2.573000,-1.868363
2.574000,-0.855191
2.575000,-0.314238
2.576000,-0.134769
2.577000,0.263627
2.578000,0.634020
2.579000,0.594563
2.580000,0.080339
2.581000,-0.324421
2.582000,-0.618444
2.583000,-0.769911
2.584000,-0.814460
2.585000,-0.866646
2.586000,-1.083027
2.587000,-1.326138
2.588000,-1.532336
2.589000,-1.744899
2.590000,-1.809813
2.591000,-1.942188
2.592000,-1.938369
2.593000,-2.010920
2.594000,-2.091109
2.595000,-2.061834
2.596000,-1.887456
2.597000,-1.846725
2.598000,-1.798358
2.599000,-1.840361
2.600000,-1.984191
2.601000,-2.082199
2.602000,-2.128021
2.603000,-2.432227
2.604000,-2.665155
2.605000,-2.558237
2.606000,-2.194208
2.607000,-1.869636
2.608000,-1.511971
2.609000,-1.379597
2.610000,-1.273952
2.611000,-1.112302
2.612000,-0.979928
2.613000,-0.976110
2.614000,-0.927742
2.615000,-0.773730
2.616000,-0.647719
2.617000,-0.923924
2.618000,-1.483969
2.619000,-1.785629
2.620000,-3.036821
2.621000,-3.244293
2.622000,-2.844624
2.623000,-2.461502
2.624000,-2.288397
2.625000,-2.014739
2.626000,-1.751263
2.627000,-1.397416
2.628000,-1.128849
2.629000,-1.052479
2.630000,-0.997748
2.631000,-0.951926
2.632000,-0.929015
2.633000,-0.923924
2.634000,-1.025750
2.635000,-0.911195
2.636000,-0.875556
2.637000,-1.161943
2.638000,-1.620162
2.639000,-2.013466
2.640000,-2.990999
2.641000,-2.898083
2.642000,-2.796256
2.643000,-2.584967
2.644000,-1.873455
2.645000,-1.085573
2.646000,-0.599352
2.647000,-0.514072
2.648000,-0.423701
2.649000,-0.477160
2.650000,-0.759728
2.651000,-1.048661
2.652000,-1.002839
2.653000,-1.251041
2.654000,-1.448329
2.655000,-1.496697
2.656000,-1.480150
2.657000,-1.646891
2.658000,-1.677439
2.659000,-1.673620
2.660000,-1.646891
2.661000,-1.669802
2.662000,-1.769083
2.663000,-1.960007
2.664000,-2.106383
2.665000,-2.209482
2.666000,-2.307490
2.667000,-2.584967
2.668000,-2.583694
2.669000,-2.492050
2.670000,-2.287124
2.671000,-2.120384
2.672000,-2.075835
2.673000,-1.960007
2.674000,-1.981645
2.675000,-2.064379
2.676000,-2.171297
2.677000,-2.094927
2.678000,-2.087290
2.679000,-2.199299
2.680000,-2.228574
2.681000,-1.970190
2.682000,-1.819996
2.683000,-1.646891
2.684000,-1.312137
2.685000,-1.072845
2.686000,-0.610807
2.687000,-0.335876
2.688000,-0.605716
2.689000,-0.706270
2.690000,-0.764820
2.691000,-0.926469
2.692000,-0.990111
2.693000,-1.173398
2.694000,-1.393598
2.695000,-1.707987
2.696000,-2.144567
2.697000,-2.410589
2.698000,-2.550600
2.699000,-2.497141
2.700000,-2.310035
2.701000,-1.851817
2.702000,-1.534882
2.703000,-1.532336
2.704000,-1.303227
2.705000,-1.248495
2.706000,-1.342685
2.707000,-0.908650
2.708000,-0.771184
2.709000,-0.951926
2.710000,-1.153033
2.711000,-1.173398
2.712000,-1.711805
2.713000,-2.551873
2.714000,-2.998636
2.715000,-2.406770
2.716000,-1.606160
2.717000,-0.759728
2.718000,-0.335876
2.719000,-0.268416
2.720000,-0.380425
2.721000,-1.046115
2.722000,-1.823814
2.723000,-1.784357
2.724000,-1.495424
2.725000,-1.911640
2.726000,-1.869636
2.727000,-1.422873
2.728000,-1.074117
2.729000,-0.875556
2.730000,-0.899740
2.731000,-0.878102
2.732000,-1.248495
2.733000,-1.406326
2.734000,-1.556520
2.735000,-1.729625
2.736000,-1.846725
2.737000,-1.756354
2.738000,-1.769083
2.739000,-1.946006
2.740000,-1.986737
2.741000,-1.942188
2.742000,-1.854362
2.743000,-1.817450
2.744000,-1.876000
2.745000,-1.827633
2.746000,-1.924368
2.747000,-1.968917
2.748000,-2.012193
2.749000,-1.937096
2.750000,-1.999465
2.751000,-2.049105
2.752000,-2.032558
2.753000,-1.991828
2.754000,-1.976554
2.755000,-1.837815
2.756000,-1.725806
2.757000,-1.528518
2.758000,-1.379597
2.759000,-1.221766
2.760000,-1.224311
2.761000,-1.678712
2.762000,-1.895093
2.763000,-1.937096
2.764000,-1.739808
2.765000,-1.504334
2.766000,-1.413963
2.767000,-1.338866
2.768000,-1.244677
2.769000,-1.529791
2.770000,-1.892547
2.771000,-1.956189
2.772000,-2.033831
2.773000,-2.268032
2.774000,-2.289670
2.775000,-2.163660
2.776000,-2.142022
2.777000,-2.170024
2.778000,-2.027467
2.779000,-1.825087
2.780000,-1.476332
2.781000,-1.069026
2.782000,-0.738090
2.783000,-0.673176
2.784000,-0.806823
2.785000,-1.335048
2.786000,-1.735989
2.787000,-1.807268
2.788000,-1.631617
2.789000,-1.393598
2.790000,-1.201400
2.791000,-1.273952
2.792000,-1.412690
2.793000,-1.318501
2.794000,-1.029568
2.795000,-0.838644
2.796000,-1.019386
2.797000,-1.248495
2.798000,-1.205219
2.799000,-1.223039
2.800000,-1.315955
2.801000,-1.547610
2.802000,-1.864545
2.803000,-2.094927
2.804000,-2.243848
2.805000,-2.204390
2.806000,-2.079653
2.807000,-1.893820
2.808000,-1.968917
2.809000,-2.411862
2.810000,-2.122929
2.811000,-1.713078
2.812000,-2.073289
2.813000,-2.284579
2.814000,-1.957461
2.815000,-1.293044
2.816000,-0.814460
2.817000,-0.889557
2.818000,-0.887011
2.819000,-1.014294
2.820000,-1.169580
2.821000,-1.216674
2.822000,-1.207765
2.823000,-1.420327
2.824000,-1.499243
2.825000,-1.578158
2.826000,-1.615070
2.827000,-1.823814
2.828000,-2.287124
2.829000,-3.041913
2.830000,-2.965543
2.831000,-2.710977
2.832000,-2.150932
2.833000,-1.653255
2.834000,-1.412690
2.835000,-1.315955
2.836000,-1.312137
2.837000,-1.407599
2.838000,-1.429237
2.839000,-1.305773
2.840000,-1.504334
2.841000,-1.813632
2.842000,-1.860726
2.843000,-1.996919
2.844000,-2.009648
2.845000,-1.911640
2.846000,-1.817450
2.847000,-1.615070
2.848000,-1.449602
2.849000,-1.383415
2.850000,-1.249768
2.851000,-1.532336
2.852000,-1.977827
2.853000,-2.213300
2.854000,-2.074562
2.855000,-1.817450
2.856000,-1.529791
2.857000,-1.547610
2.858000,-1.753809
2.859000,-1.804722
2.860000,-1.519608
2.861000,-1.286680
2.862000,-1.028296
2.863000,-0.680813
2.864000,-0.436430
2.865000,-0.419883
2.866000,-0.666812
2.867000,-0.902285
2.868000,-0.847554
2.869000,-0.960836
2.870000,-0.927742
2.871000,-1.056298
2.872000,-1.336320
2.873000,-1.578158
2.874000,-1.673620
2.875000,-1.592159
2.876000,-1.681257
2.877000,-1.818723
2.878000,-2.623152
2.879000,-2.614242
2.880000,-2.246394
2.881000,-1.797085
2.882000,-1.574340
2.883000,-1.574340
2.884000,-1.527245
2.885000,-1.478877
2.886000,-1.583249
2.887000,-1.693986
2.888000,-1.674893
2.889000,-1.720715
2.890000,-1.683803
2.891000,-1.639254
2.892000,-1.669802
2.893000,-1.685076
2.894000,-2.651154
2.895000,-3.167923
2.896000,-2.890446
2.897000,-2.299853
2.898000,-1.760173
2.899000,-1.690167
2.900000,-1.707987
2.901000,-1.573067
2.902000,-1.561611
2.903000,-1.391052
2.904000,-1.307045
2.905000,-1.337593
2.906000,-1.085573
2.907000,-0.609535
2.908000,-0.897194
2.909000,-1.267588
2.910000,-1.352867
2.911000,-1.458512
2.912000,-1.477605
2.913000,-1.626526
2.914000,-1.704168
2.915000,-1.842907
2.916000,-1.776720
2.917000,-1.795812
2.918000,-1.739808
2.919000,-1.679985
2.920000,-1.779265
2.921000,-1.958734
2.922000,-1.930732
2.923000,-1.706714
2.924000,-1.435601
2.925000,-1.130122
2.926000,-0.888284
2.927000,-0.740636
2.928000,-0.820824
2.929000,-2.000738
2.930000,-2.410589
2.931000,-2.156023
2.932000,-1.821269
2.933000,-1.494151
2.934000,-1.336320
2.935000,-1.263769
2.936000,-1.214129
2.937000,-1.293044
2.938000,-1.366868
2.939000,-1.410145
2.940000,-1.430510
2.941000,-1.435601
2.942000,-1.279043
2.943000,-1.210310
2.944000,-1.239585
2.945000,-1.361777
2.946000,-2.055469
2.947000,-2.332946
2.948000,-2.629516
2.949000,-2.593876
2.950000,-2.278215
2.951000,-1.896366
2.952000,-1.517062
2.953000,-1.272679
2.954000,-1.137759
2.955000,-1.104665
2.956000,-1.090664
2.957000,-1.072845
2.958000,-1.407599
2.959000,-2.115292
2.960000,-2.017284
2.961000,-1.779265
2.962000,-1.347776
2.963000,-1.121212
2.964000,-1.383415
2.965000,-1.519608
2.966000,-1.776720
2.967000,-1.963826
2.968000,-1.980372
2.969000,-2.018557
2.970000,-2.175115
2.971000,-2.041468
2.972000,-1.886183
2.973000,-1.775447
2.974000,-1.678712
2.975000,-1.475059
2.976000,-1.504334
2.977000,-1.690167
2.978000,-1.757627
2.979000,-2.161114
2.980000,-2.129294
2.981000,-3.184470
2.982000,-3.898527
2.983000,-3.328299
2.984000,-2.238757
2.985000,-0.701178
2.986000,-0.122041
2.987000,0.012879
2.988000,-0.078764
2.989000,-0.276053
2.990000,-0.221321
2.991000,-0.491161
2.992000,-0.797913
2.993000,-0.730453
2.994000,-0.753364
2.995000,-0.804278
2.996000,-0.902285
2.997000,-1.163216
2.998000,-1.408872
2.999000,-1.671075
3.000000,-1.830178
3.001000,-1.855635
3.002000,-1.849271
3.003000,-1.762718
3.004000,-1.743626
3.005000,-1.725806
3.006000,-1.873455
3.007000,-1.938369
3.008000,-1.907821
3.009000,-1.569248
3.010000,-1.609979
3.011000,-2.000738
3.012000,-2.203118
3.013000,-2.479322
3.014000,-2.651154
3.015000,-2.324037
3.016000,-1.986737
3.017000,-1.639254
3.018000,-1.587068
3.019000,-2.405498
3.020000,-2.604059
3.021000,-2.125475
3.022000,-1.463603
3.023000,-1.069026
3.024000,-0.875556
3.025000,-0.794095
3.026000,-1.080482
3.027000,-1.300681
3.028000,-1.510698
3.029000,-1.514517
3.030000,-1.483969
3.031000,-1.441965
3.032000,-1.537428
3.033000,-1.725806
3.034000,-1.468695
3.035000,-1.186127
3.036000,-1.118667
3.037000,-1.125031
3.038000,-1.089391
3.039000,-1.174671
3.040000,-1.259951
3.041000,-1.394871
3.042000,-2.106383
3.043000,-2.423317
3.044000,-2.217119
3.045000,-1.847998
3.046000,-1.546337
3.047000,-1.420327
3.048000,-1.757627
3.049000,-2.390224
3.050000,-2.562056
3.051000,-2.433500
3.052000,-2.260395
3.053000,-2.261668
3.054000,-2.311308
3.055000,-2.256577
3.056000,-2.395315
3.057000,-2.201845
3.058000,-1.907821
3.059000,-1.091937
3.060000,-0.643901
3.061000,-0.749546
3.062000,-0.819551
3.063000,-0.620990
3.064000,-0.699905
3.065000,-0.682086
3.066000,-0.776275
3.067000,-0.922651
3.068000,-1.029568
3.069000,-1.265042
3.070000,-1.468695
3.071000,-1.655801
3.072000,-2.803893
3.073000,-2.942632
3.074000,-2.428409
3.075000,-1.808540
3.076000,-1.284134
3.077000,-1.011749
3.078000,-0.930288
3.079000,-1.126303
3.080000,-1.405053
3.081000,-1.580704
3.082000,-1.813632
3.083000,-2.065652
3.084000,-1.943460
3.085000,-1.896366
3.086000,-1.766537
3.087000,-1.692713
3.088000,-1.559066
3.089000,-1.590886
3.090000,-1.682530
3.091000,-1.672348
3.092000,-1.601069
3.093000,-1.455966
3.094000,-1.295590
3.095000,-1.179762
3.096000,-1.491606
3.097000,-1.676166
3.098000,-1.732171
3.099000,-1.785629
3.100000,-1.856908
3.101000,-1.734716
3.102000,-1.677439
3.103000,-1.693986
3.104000,-1.809813
3.105000,-1.951097
3.106000,-1.998192
3.107000,-2.303671
3.108000,-2.684247
3.109000,-2.752980
3.110000,-2.470412
3.111000,-2.060561
3.112000,-1.707987
3.113000,-1.514517
3.114000,-1.248495
3.115000,-0.958290
3.116000,-0.887011
3.117000,-0.987565
3.118000,-0.995202
3.119000,-0.921378
3.120000,-0.853918
3.121000,-0.864101
3.122000,-1.103393
3.123000,-1.262496
3.124000,-1.273952
3.125000,-2.751707
3.126000,-3.916347
3.127000,-3.698693
3.128000,-3.094099
3.129000,-1.962553
3.130000,-1.520881
3.131000,-1.197582
3.132000,-0.814460
3.133000,-0.669358
3.134000,-0.400790
3.135000,-0.338422
3.136000,-0.488616
3.137000,-0.521709
3.138000,-0.567531
3.139000,-0.885739
3.140000,-0.932833
3.141000,-1.023204
3.142000,-0.985019
3.143000,-1.069026
3.144000,-1.391052
3.145000,-1.870909
3.146000,-2.033831
3.147000,-2.049105
3.148000,-1.916731
3.149000,-1.835270
3.150000,-1.818723
3.151000,-1.974008
3.152000,-2.044014
3.153000,-2.073289
3.154000,-2.082199
3.155000,-2.049105
3.156000,-2.167478
3.157000,-2.181480
3.158000,-2.284579
3.159000,-3.212472
3.160000,-3.011365
3.161000,-2.388951
3.162000,-1.625253
3.163000,-1.114848
3.164000,-0.623536
3.165000,-0.628627
3.166000,-0.968473
3.167000,-1.455966
3.168000,-1.937096
3.169000,-1.932005
3.170000,-1.777992
3.171000,-1.658346
3.172000,-1.756354
3.173000,-1.500516
3.174000,-1.525972
3.175000,-1.621434
3.176000,-1.681257
3.177000,-1.644345
3.178000,-1.621434
3.179000,-1.555247
3.180000,-1.448329
3.181000,-1.338866
3.182000,-1.304500
3.183000,-1.281589
3.184000,-1.247222
3.185000,-1.651982
3.186000,-1.884910
3.187000,-1.732171
3.188000,-1.424146
3.189000,-1.272679
3.190000,-1.215402
3.191000,-1.235767
3.192000,-1.340139
3.193000,-1.373233
3.194000,-1.398689
3.195000,-1.508152
3.196000,-1.616343
3.197000,-1.911640
3.198000,-2.075835
3.199000,-2.282033
3.200000,-2.691884
3.201000,-2.831896
3.202000,-2.773345
3.203000,-3.015183
3.204000,-3.492494
3.205000,-3.068642
3.206000,-2.136931
3.207000,-1.100847
3.208000,-0.570077
3.209000,-0.213684
3.210000,0.014152
3.211000,-0.170408
3.212000,-0.181864
3.213000,-0.082583
3.214000,-0.228958
3.215000,-0.400790
3.216000,-0.399518
3.217000,-0.640082
3.218000,-0.817006
3.219000,-1.035933
3.220000,-1.710532
3.221000,-2.536599
3.222000,-2.430954
3.223000,-2.101291
3.224000,-1.710532
3.225000,-1.433056
3.226000,-1.355413
3.227000,-1.410145
3.228000,-1.555247
3.229000,-1.639254
3.230000,-1.734716
3.231000,-1.761446
3.232000,-1.595978
3.233000,-1.536155
3.234000,-1.693986
3.235000,-1.800903
3.236000,-1.902730
3.237000,-1.942188
3.238000,-1.994374
3.239000,-2.000738
3.240000,-1.990555
3.241000,-1.988009
3.242000,-1.976554
3.243000,-2.227301
3.244000,-2.349493
3.245000,-2.335492
3.246000,-3.255748
3.247000,-3.237928
3.248000,-2.568420
3.249000,-1.856908
3.250000,-1.224311
3.251000,-1.046115
3.252000,-1.103393
3.253000,-1.266315
3.254000,-1.299408
3.255000,-1.328683
3.256000,-1.378324
3.257000,-1.536155
3.258000,-1.406326
3.259000,-1.356686
3.260000,-1.315955
3.261000,-1.397416
3.262000,-1.510698
3.263000,-1.807268
3.264000,-2.124202
3.265000,-2.178934
3.266000,-2.115292
3.267000,-2.145840
3.268000,-2.107655
3.269000,-1.849271
3.270000,-1.608706
3.271000,-1.419054
3.272000,-1.411417
3.273000,-1.545065
3.274000,-1.475059
3.275000,-1.391052
3.276000,-0.999020
3.277000,-0.996475
3.278000,-1.074117
3.279000,-1.107211
3.280000,-1.164488
3.281000,-1.183581
3.282000,-1.207765
3.283000,-1.063935
3.284000,-0.949380
3.285000,-1.028296
3.286000,-0.935379
3.287000,-0.985019
3.288000,-1.142850
3.289000,-1.285407
3.290000,-1.573067
3.291000,-2.508597
3.292000,-2.570966
3.293000,-2.302398
3.294000,-1.989282
3.295000,-1.669802
3.296000,-1.515789
3.297000,-1.458512
3.298000,-1.490333
3.299000,-1.458512
3.300000,-1.501788
3.301000,-1.559066
3.302000,-1.692713
3.303000,-1.763991
3.304000,-1.757627
3.305000,-1.729625
3.306000,-1.699077
3.307000,-1.777992
3.308000,-1.766537
3.309000,-1.802176
3.310000,-2.176388
3.311000,-3.548499
3.312000,-3.675782
3.313000,-3.727968
3.314000,-3.945622
3.315000,-3.062278
3.316000,-2.005829
3.317000,-1.181035
3.318000,-0.582805
3.319000,-0.249324
3.320000,-0.181864
3.321000,0.084158
3.322000,0.254717
3.323000,0.331087
3.324000,-0.239141
3.325000,-0.584078
3.326000,-0.592988
3.327000,-0.548439
3.328000,-0.659175
3.329000,-0.957017
3.330000,-1.291771
3.331000,-1.552702
3.332000,-1.742353
3.333000,-1.825087
3.334000,-1.915458
3.335000,-2.038923
3.336000,-2.035104
3.337000,-2.042741
3.338000,-1.990555
3.339000,-2.049105
3.340000,-2.301126
3.341000,-2.425863
3.342000,-2.206936
3.343000,-1.986737
3.344000,-1.784357
3.345000,-1.738535
3.346000,-1.760173
3.347000,-1.578158
3.348000,-1.476332
3.349000,-1.634163
3.350000,-1.753809
3.351000,-1.870909
3.352000,-2.266759
3.353000,-2.526416
3.354000,-2.671519
3.355000,-2.606605
3.356000,-2.962997
3.357000,-3.175560
3.358000,-3.111918
3.359000,-2.577330
3.360000,-1.795812
3.361000,-1.066480
3.362000,-0.544620
3.363000,-0.268416
3.364000,-0.116949
3.365000,0.067611
3.366000,-0.204775
3.367000,-0.361333
3.368000,-0.591715
3.369000,-0.820824
3.370000,-1.001566
3.371000,-0.999020
3.372000,-1.043570
3.373000,-1.104665
3.374000,-1.270133
3.375000,-1.471240
3.376000,-1.623980
3.377000,-1.637981
3.378000,-1.920549
3.379000,-2.233666
3.380000,-2.405498
3.381000,-2.372404
3.382000,-2.234938
3.383000,-2.037650
3.384000,-1.915458
3.385000,-1.846725
3.386000,-1.807268
3.387000,-1.943460
3.388000,-1.989282
3.389000,-2.058015
3.390000,-2.054197
3.391000,-1.718169
3.392000,-1.467422
3.393000,-1.692713
3.394000,-2.227301
3.395000,-2.205663
3.396000,-2.038923
3.397000,-1.813632
3.398000,-2.595149
3.399000,-3.031730
3.400000,-2.485686
3.401000,-1.774174
3.402000,-1.041024
3.403000,-0.634991
3.404000,-0.361333
3.405000,0.079067
3.406000,0.248353
3.407000,0.009061
3.408000,-0.436430
3.409000,-1.113575
3.410000,-1.476332
3.411000,-1.672348
3.412000,-1.674893
3.413000,-2.013466
3.414000,-2.727524
3.415000,-2.713522
3.416000,-2.214573
3.417000,-1.486514
3.418000,-1.065208
3.419000,-0.991384
3.420000,-1.020659
3.421000,-1.066480
3.422000,-0.907377
3.423000,-0.794095
3.424000,-0.986292
3.425000,-1.300681
3.426000,-1.499243
3.427000,-1.725806
3.428000,-2.000738
3.429000,-2.078380
3.430000,-2.070743
3.431000,-2.101291
3.432000,-2.466593
3.433000,-2.838260
3.434000,-2.970634
3.435000,-2.889173
3.436000,-2.527689
3.437000,-2.153477
3.438000,-2.579875
3.439000,-2.750435
3.440000,-2.326582
3.441000,-1.646891
3.442000,-0.990111
3.443000,-0.351150
3.444000,-0.432611
3.445000,-0.727908
3.446000,-1.380869
3.447000,-1.883637
3.448000,-2.052924
3.449000,-1.952370
3.450000,-1.571794
3.451000,-1.155579
3.452000,-0.815733
3.453000,-0.670630
3.454000,-0.832280
3.455000,-0.901013
3.456000,-1.085573
3.457000,-1.140305
3.458000,-1.183581
3.459000,-1.279043
3.460000,-1.398689
3.461000,-1.533609
3.462000,-1.674893
3.463000,-1.664711
3.464000,-1.594705
3.465000,-1.634163
3.466000,-1.637981
3.467000,-1.845452
3.468000,-1.887456
3.469000,-2.013466
3.470000,-2.274396
3.471000,-2.644790
3.472000,-2.525144
3.473000,-2.098746
3.474000,-1.583249
3.475000,-1.422873
3.476000,-1.425419
3.477000,-2.161114
3.478000,-1.886183
3.479000,-1.382142
3.480000,-0.873010
3.481000,-0.472069
3.482000,-0.321875
3.483000,-0.366424
3.484000,-0.747000
3.485000,-1.132668
3.486000,-1.426691
3.487000,-1.704168
3.488000,-1.881092
3.489000,-2.054197
3.490000,-2.232393
3.491000,-2.214573
3.492000,-2.079653
3.493000,-1.897638
3.494000,-1.926914
3.495000,-1.951097
3.496000,-1.909094
3.497000,-1.929459
3.498000,-1.905275
3.499000,-1.785629
3.500000,-1.611252
3.501000,-1.643072
3.502000,-1.766537
3.503000,-1.629071
3.504000,-1.529791
3.505000,-1.541246
3.506000,-1.608706
3.507000,-1.714351
3.508000,-1.687622
3.509000,-1.581977
3.510000,-1.609979
3.511000,-1.566703
3.512000,-1.405053
3.513000,-1.503061
3.514000,-1.811086
3.515000,-2.133112
3.516000,-2.372404
3.517000,-2.864989
3.518000,-2.850988
3.519000,-3.246838
3.520000,-2.512415
3.521000,-1.564157
3.522000,-0.831007
3.523000,-0.446612
3.524000,-0.371515
3.525000,-0.419883
3.526000,-0.494980
3.527000,-0.587896
3.528000,-0.925196
3.529000,-1.126303
3.530000,-1.172125
3.531000,-1.233221
3.532000,-1.384688
3.533000,-1.566703
3.534000,-1.533609
3.535000,-1.496697
3.536000,-1.472513
3.537000,-1.457239
3.538000,-1.923095
3.539000,-2.105110
3.540000,-2.036377
3.541000,-1.929459
3.542000,-2.051651
3.543000,-2.148386
3.544000,-2.195481
3.545000,-2.144567
3.546000,-2.107655
3.547000,-2.120384
3.548000,-2.045287
3.549000,-1.949824
3.550000,-1.730898
3.551000,-1.389779
3.552000,-1.318501
3.553000,-1.461058
3.554000,-1.536155
3.555000,-1.579431
3.556000,-1.351594
3.557000,-1.209037
3.558000,-1.084300
3.559000,-1.237040
3.560000,-1.128849
3.561000,-1.336320
3.562000,-2.480595
3.563000,-2.464048
3.564000,-1.886183
3.565000,-1.265042
3.566000,-0.873010
3.567000,-0.870465
3.568000,-0.932833
3.569000,-1.067753
3.570000,-1.061389
3.571000,-1.141577
3.572000,-1.244677
3.573000,-1.329956
3.574000,-1.258678
3.575000,-1.380869
3.576000,-1.310864
3.577000,-1.268860
3.578000,-1.352867
3.579000,-1.725806
3.580000,-1.914185
3.581000,-1.996919
3.582000,-1.714351
3.583000,-1.345230
3.584000,-1.435601
3.585000,-1.637981
3.586000,-1.804722
3.587000,-2.125475
3.588000,-2.344402
3.589000,-2.289670
3.590000,-2.065652
3.591000,-1.730898
3.592000,-1.511971
3.593000,-1.422873
3.594000,-1.444511
3.595000,-1.489060
3.596000,-1.709260
3.597000,-2.545509
3.598000,-2.611696
3.599000,-2.296034
3.600000,-1.836543
3.601000,-1.559066
3.602000,-1.613797
3.603000,-1.615070
3.604000,-1.814905
3.605000,-2.032558
3.606000,-2.153477
3.607000,-2.115292
3.608000,-2.036377
3.609000,-1.762718
3.610000,-1.525972
3.611000,-1.263769
3.612000,-1.075390
3.613000,-1.154306
3.614000,-1.282862
3.615000,-1.496697
3.616000,-1.494151
3.617000,-1.548883
3.618000,-1.620162
3.619000,-1.583249
3.620000,-1.933278
3.621000,-3.068642
3.622000,-3.068642
3.623000,-2.619333
3.624000,-2.265486
3.625000,-1.831451
3.626000,-1.459785
3.627000,-1.501788
3.628000,-1.584522
3.629000,-1.459785
3.630000,-1.043570
3.631000,-0.783912
3.632000,-0.944289
3.633000,-1.024477
3.634000,-1.010476
3.635000,-1.377051
3.636000,-1.483969
3.637000,-1.336320
3.638000,-1.332502
3.639000,-1.146669
3.640000,-1.140305
3.641000,-0.907377
3.642000,-0.632445
3.643000,-0.578987
3.644000,-0.710088
3.645000,-1.075390
3.646000,-1.230676
3.647000,-1.542519
3.648000,-2.849715
3.649000,-3.012638
3.650000,-2.460229
3.651000,-1.981645
3.652000,-1.637981
3.653000,-1.524699
3.654000,-1.357959
3.655000,-1.338866
3.656000,-1.345230
3.657000,-1.401235
3.658000,-1.634163
3.659000,-1.659619
3.660000,-1.543792
3.661000,-1.317228
3.662000,-1.821269
3.663000,-2.236211
3.664000,-1.794539
3.665000,-1.293044
3.666000,-0.946834
3.667000,-0.799186
3.668000,-0.820824
3.669000,-0.992656
3.670000,-1.265042
3.671000,-1.313410
3.672000,-1.406326
3.673000,-1.648164
3.674000,-1.707987
3.675000,-1.831451
3.676000,-2.101291
3.677000,-2.110201
3.678000,-2.049105
3.679000,-1.924368
3.680000,-1.960007
3.681000,-2.227301
3.682000,-2.215846
3.683000,-2.005829
3.684000,-1.971463
3.685000,-1.994374
3.686000,-1.839088
3.687000,-1.674893
3.688000,-1.528518
3.689000,-1.531063
3.690000,-1.438147
3.691000,-1.561611
3.692000,-1.809813
3.693000,-1.958734
3.694000,-2.194208
3.695000,-2.400406
3.696000,-2.229847
3.697000,-1.949824
3.698000,-1.682530
3.699000,-1.627799
3.700000,-1.659619
3.701000,-1.580704
3.702000,-1.612525
3.703000,-1.524699
3.704000,-1.552702
3.705000,-1.234494
3.706000,-1.038478
3.707000,-1.277770
3.708000,-1.265042
3.709000,-1.279043
3.710000,-1.336320
3.711000,-1.529791
3.712000,-1.481423
3.713000,-1.739808
3.714000,-2.164933
3.715000,-2.905720
3.716000,-2.488232
3.717000,-1.733443
3.718000,-0.996475
3.719000,-0.762274
3.720000,-0.468250
3.721000,-0.223867
3.722000,-0.600625
3.723000,-0.741909
3.724000,-0.930288
3.725000,-2.377495
3.726000,-2.843351
3.727000,-2.927358
3.728000,-2.646063
3.729000,-2.074562
3.730000,-1.710532
3.731000,-1.349049
3.732000,-1.172125
3.733000,-1.186127
3.734000,-1.201400
3.735000,-1.188672
3.736000,-1.458512
3.737000,-1.565430
3.738000,-1.499243
3.739000,-1.313410
3.740000,-1.043570
3.741000,-0.981201
3.742000,-1.710532
3.743000,-2.341856
3.744000,-2.215846
3.745000,-1.947279
3.746000,-1.603615
3.747000,-1.478877
3.748000,-1.361777
3.749000,-1.328683
3.750000,-1.475059
3.751000,-1.588341
3.752000,-1.422873
3.753000,-1.601069
3.754000,-1.771628
3.755000,-1.676166
3.756000,-1.547610
3.757000,-1.343957
3.758000,-1.281589
3.759000,-1.169580
3.760000,-1.193763
3.761000,-1.315955
3.762000,-1.626526
3.763000,-1.860726
3.764000,-2.262941
3.765000,-2.262941
3.766000,-2.172570
3.767000,-1.947279
3.768000,-1.767810
3.769000,-1.679985
3.770000,-1.626526
3.771000,-1.662165
3.772000,-1.700350
3.773000,-1.606160
3.774000,-1.589614
3.775000,-1.570521
3.776000,-1.609979
3.777000,-1.725806
3.778000,-1.645618
3.779000,-1.571794
3.780000,-1.620162
3.781000,-1.993101
3.782000,-2.218392
3.783000,-2.322764
3.784000,-2.595149
3.785000,-2.480595
3.786000,-2.353312
3.787000,-2.084744
3.788000,-1.753809
3.789000,-1.495424
3.790000,-1.326138
3.791000,-1.281589
3.792000,-1.153033
3.793000,-1.034660
3.794000,-0.787731
3.795000,-0.534438
3.796000,-0.508981
3.797000,-0.619717
3.798000,-0.818279
3.799000,-1.030841
3.800000,-1.239585
3.801000,-1.477605
3.802000,-1.761446
3.803000,-1.819996
3.804000,-2.082199
3.805000,-2.862444
3.806000,-2.842078
3.807000,-2.446228
3.808000,-2.052924
3.809000,-1.420327
3.810000,-0.726635
3.811000,-0.521709
3.812000,-0.600625
3.813000,-0.731726
3.814000,-0.889557
3.815000,-1.277770
3.816000,-2.826804
3.817000,-4.149275
3.818000,-3.898527
3.819000,-2.684247
3.820000,-1.593432
3.821000,-0.703724
3.822000,-0.265870
3.823000,-0.057126
3.824000,-0.295146
3.825000,-0.685904
3.826000,-1.066480
3.827000,-1.282862
3.828000,-1.571794
3.829000,-1.564157
3.830000,-1.527245
3.831000,-1.508152
3.832000,-1.626526
3.833000,-1.776720
3.834000,-1.849271
3.835000,-2.041468
3.836000,-2.068198
3.837000,-1.976554
3.838000,-1.937096
3.839000,-1.984191
3.840000,-1.853089
3.841000,-2.016012
3.842000,-2.252758
3.843000,-2.059288
3.844000,-1.831451
3.845000,-1.746172
3.846000,-1.570521
3.847000,-1.557793
3.848000,-1.612525
3.849000,-1.696531
3.850000,-1.632890
3.851000,-1.528518
3.852000,-1.243404
3.853000,-1.239585
3.854000,-1.416509
3.855000,-1.434328
3.856000,-1.417782
3.857000,-1.791994
3.858000,-1.906548
3.859000,-2.019830
3.860000,-2.284579
3.861000,-2.167478
3.862000,-1.933278
3.863000,-1.839088
3.864000,-1.693986
3.865000,-1.439420
3.866000,-1.329956
3.867000,-1.251041
3.868000,-1.280316
3.869000,-1.251041
3.870000,-1.062662
3.871000,-1.063935
3.872000,-1.081754
3.873000,-0.959563
3.874000,-1.070299
3.875000,-1.326138
3.876000,-1.403780
3.877000,-1.332502
3.878000,-1.448329
3.879000,-1.849271
3.880000,-1.977827
3.881000,-1.907821
3.882000,-1.811086
3.883000,-1.678712
3.884000,-1.612525
3.885000,-1.597251
3.886000,-1.576885
3.887000,-1.697804
3.888000,-2.026194
3.889000,-2.121657
3.890000,-2.153477
3.891000,-2.112747
3.892000,-2.662609
3.893000,-3.178105
3.894000,-2.784801
3.895000,-2.051651
3.896000,-1.523426
3.897000,-1.393598
3.898000,-1.188672
3.899000,-1.678712
3.900000,-1.485242
3.901000,-1.119939
3.902000,-0.673176
3.903000,-0.629900
3.904000,-0.674449
3.905000,-1.039751
3.906000,-1.224311
3.907000,-1.186127
3.908000,-1.018113
3.909000,-1.090664
3.910000,-1.410145
3.911000,-1.553974
3.912000,-1.962553
3.913000,-2.670246
3.914000,-2.451320
3.915000,-2.018557
3.916000,-1.562884
3.917000,-1.417782
3.918000,-1.332502
3.919000,-1.609979
3.920000,-2.110201
3.921000,-2.293489
3.922000,-2.313854
3.923000,-2.329128
3.924000,-2.222210
3.925000,-1.967644
3.926000,-1.702895
3.927000,-1.318501
3.928000,-0.878102
3.929000,-0.806823
3.930000,-0.995202
3.931000,-0.997748
3.932000,-0.957017
3.933000,-0.977382
3.934000,-1.080482
3.935000,-1.243404
3.936000,-1.366868
3.937000,-1.663438
3.938000,-1.837815
3.939000,-1.928186
3.940000,-1.872182
3.941000,-1.886183
3.942000,-1.678712
3.943000,-1.683803
3.944000,-1.587068
3.945000,-1.533609
3.946000,-1.445784
3.947000,-1.489060
3.948000,-1.291771
3.949000,-1.379597
3.950000,-1.543792
3.951000,-1.429237
3.952000,-1.550156
3.953000,-1.629071
3.954000,-1.602342
3.955000,-1.598523
3.956000,-1.587068
3.957000,-1.524699
3.958000,-1.388506
3.959000,-1.347776
3.960000,-1.352867
3.961000,-1.305773
3.962000,-1.309591
3.963000,-1.441965
3.964000,-1.612525
3.965000,-1.744899
3.966000,-1.748717
3.967000,-1.823814
3.968000,-1.833997
3.969000,-1.855635
3.970000,-1.985464
3.971000,-2.087290
3.972000,-2.427136
3.973000,-2.565874
3.974000,-2.448774
3.975000,-2.518780
3.976000,-3.503950
3.977000,-4.574400
3.978000,-3.950713
3.979000,-2.592604
3.980000,-1.290499
3.981000,-0.465705
3.982000,0.054883
3.983000,0.226715
3.984000,-0.006213
3.985000,-0.347332
3.986000,-0.622263
3.987000,-0.873010
3.988000,-1.391052
3.989000,-1.658346
3.990000,-1.662165
3.991000,-1.621434
3.992000,-1.499243
3.993000,-1.392325
3.994000,-1.435601
3.995000,-1.566703
3.996000,-1.621434
3.997000,-1.623980
3.998000,-1.576885
3.999000,-1.589614
4.000000,-1.594705
4.001000,-1.737262
4.002000,-1.879819
4.003000,-2.161114
4.004000,-2.330401
4.005000,-2.190389
4.006000,-1.967644
4.007000,-1.786902
4.008000,-1.648164
4.009000,-1.564157
4.010000,-1.349049
4.011000,-1.214129
4.012000,-1.426691
4.013000,-2.444955
4.014000,-3.702511
4.015000,-3.909983
4.016000,-3.460674
4.017000,-2.634607
4.018000,-1.821269
4.019000,-1.286680
4.020000,-0.834825
4.021000,-0.433884
4.022000,-0.314238
4.023000,-0.419883
4.024000,-0.460613
4.025000,-0.184409
4.026000,0.197440
4.027000,0.292902
4.028000,0.191076
4.029000,-0.099130
4.030000,-0.418610
4.031000,-0.610807
4.032000,-1.020659
4.033000,-1.370687
4.034000,-1.561611
4.035000,-1.783084
4.036000,-1.868363
4.037000,-1.879819
4.038000,-1.966371
4.039000,-1.967644
4.040000,-1.925641
4.041000,-1.957461
4.042000,-1.892547
4.043000,-1.844180
4.044000,-1.954916
4.045000,-1.989282
4.046000,-2.038923
4.047000,-2.142022
4.048000,-2.170024
4.049000,-2.189117
4.050000,-2.415680
4.051000,-2.388951
4.052000,-2.439864
4.053000,-2.736433
4.054000,-2.722432
4.055000,-3.171741
4.056000,-3.562500
4.057000,-3.883253
4.058000,-3.841250
4.059000,-2.849715
4.060000,-1.716897
4.061000,-0.875556
4.062000,-0.175499
4.063000,0.017971
4.064000,0.152891
4.065000,0.059974
4.066000,0.024335
4.067000,0.212714
4.068000,-0.074946
4.069000,-0.479706
4.070000,-0.857736
4.071000,-1.118667
4.072000,-1.223039
4.073000,-1.257405
4.074000,-1.402508
4.075000,-1.490333
4.076000,-1.478877
4.077000,-1.569248
4.078000,-1.673620
4.079000,-1.974008
4.080000,-2.119111
4.081000,-2.089836
4.082000,-1.963826
4.083000,-1.793266
4.084000,-1.665983
4.085000,-1.438147
4.086000,-1.504334
4.087000,-1.762718
4.088000,-1.895093
4.089000,-2.087290
4.090000,-2.283306
4.091000,-2.465321
4.092000,-2.345675
4.093000,-2.093654
4.094000,-2.102564
4.095000,-2.079653
4.096000,-2.237484
4.097000,-2.736433
4.098000,-3.011365
4.099000,-3.276113
4.100000,-3.479766
4.101000,-2.690612
4.102000,-1.585795
4.103000,-0.699905
4.104000,-0.242959
4.105000,0.025608
4.106000,0.188530
4.107000,0.283992
4.108000,0.222896
4.109000,0.164346
4.110000,-0.020214
4.111000,-0.167863
4.112000,-0.440248
4.113000,-0.963381
4.114000,-1.259951
4.115000,-1.417782
4.116000,-1.468695
4.117000,-1.520881
4.118000,-1.608706
4.119000,-1.762718
4.120000,-1.786902
4.121000,-1.868363
4.122000,-2.045287
4.123000,-2.238757
4.124000,-2.420772
4.125000,-2.634607
4.126000,-2.665155
4.127000,-2.728796
4.128000,-2.553146
4.129000,-2.433500
4.130000,-2.217119
4.131000,-2.098746
4.132000,-2.178934
4.133000,-2.145840
4.134000,-2.716068
4.135000,-4.865878
4.136000,-4.877333
4.137000,-3.416125
4.138000,-1.841634
4.139000,-0.562440
4.140000,0.029426
4.141000,0.163073
4.142000,0.165619
4.143000,0.093068
4.144000,-0.029124
4.145000,-0.297691
4.146000,-0.512799
4.147000,-0.496253
4.148000,-0.697360
4.149000,-0.913741
4.150000,-1.086846
4.151000,-1.168307
4.152000,-1.267588
4.153000,-1.410145
4.154000,-1.548883
4.155000,-1.663438
4.156000,-1.883637
4.157000,-1.949824
4.158000,-1.877273
4.159000,-1.826360
4.160000,-1.878546
4.161000,-1.951097
4.162000,-2.022376
4.163000,-2.073289
4.164000,-2.175115
4.165000,-2.149659
4.166000,-2.284579
4.167000,-2.460229
4.168000,-2.466593
4.169000,-2.456411
4.170000,-2.273123
4.171000,-2.153477
4.172000,-2.098746
4.173000,-1.874728
4.174000,-1.637981
4.175000,-1.426691
4.176000,-1.259951
4.177000,-1.089391
4.178000,-1.081754
4.179000,-1.034660
4.180000,-1.257405
4.181000,-1.060116
4.182000,-1.027023
4.183000,-1.024477
4.184000,-1.248495
4.185000,-1.419054
4.186000,-1.431783
4.187000,-1.417782
4.188000,-1.459785
4.189000,-1.466149
4.190000,-1.585795
4.191000,-1.695259
4.192000,-2.049105
4.193000,-2.178934
4.194000,-2.086017
4.195000,-2.033831
4.196000,-2.075835
4.197000,-1.985464
4.198000,-1.920549
4.199000,-1.944733
4.200000,-2.019830
4.201000,-2.483140
4.202000,-2.899356
4.203000,-2.839533
4.204000,-2.467866
4.205000,-2.640971
4.206000,-2.136931
4.207000,-1.408872
4.208000,-0.450431
4.209000,-0.032943
4.210000,0.155436
4.211000,0.145254
4.212000,0.100705
4.213000,-0.475887
4.214000,-0.717725
4.215000,-0.810642
4.216000,-1.318501
4.217000,-1.350322
4.218000,-1.356686
4.219000,-1.307045
4.220000,-1.179762
4.221000,-1.098301
4.222000,-1.230676
4.223000,-1.524699
4.224000,-1.716897
4.225000,-1.767810
4.226000,-1.867091
4.227000,-2.346947
4.228000,-3.128465
4.229000,-2.882809
4.230000,-2.311308
4.231000,-1.841634
4.232000,-1.761446
4.233000,-1.817450
4.234000,-2.157296
4.235000,-2.163660
4.236000,-2.236211
4.237000,-2.018557
4.238000,-1.774174
4.239000,-1.620162
4.240000,-1.627799
4.241000,-1.574340
4.242000,-1.247222
4.243000,-0.927742
4.244000,-0.797913
4.245000,-0.595533
4.246000,-0.923924
4.247000,-1.256132
4.248000,-1.489060
4.249000,-1.482696
4.250000,-1.393598
4.251000,-1.307045
4.252000,-1.525972
4.253000,-1.771628
4.254000,-1.845452
4.255000,-1.904003
4.256000,-1.870909
4.257000,-2.082199
4.258000,-2.260395
4.259000,-2.579875
4.260000,-2.691884
4.261000,-2.461502
4.262000,-2.192935
4.263000,-1.791994
4.264000,-1.433056
4.265000,-1.259951
4.266000,-1.220493
4.267000,-1.262496
4.268000,-1.154306
4.269000,-1.067753
4.270000,-0.861555
4.271000,-1.076663
4.272000,-1.224311
4.273000,-1.486514
4.274000,-1.608706
4.275000,-1.581977
4.276000,-1.665983
4.277000,-1.682530
4.278000,-1.529791
4.279000,-1.660892
4.280000,-1.729625
4.281000,-1.780538
4.282000,-1.637981
4.283000,-1.481423
4.284000,-1.514517
4.285000,-1.793266
4.286000,-2.000738
4.287000,-2.086017
4.288000,-1.877273
4.289000,-2.380041
4.290000,-2.460229
4.291000,-2.157296
4.292000,-1.380869
4.293000,-1.038478
4.294000,-0.920105
4.295000,-1.223039
4.296000,-1.349049
4.297000,-1.396143
4.298000,-1.393598
4.299000,-1.304500
4.300000,-1.299408
4.301000,-1.387234
4.302000,-1.495424
4.303000,-1.617616
4.304000,-1.495424
4.305000,-1.322319
4.306000,-1.308318
4.307000,-2.601513
4.308000,-2.652427
4.309000,-2.156023
4.310000,-1.555247
4.311000,-1.142850
4.312000,-0.999020
4.313000,-0.885739
4.314000,-1.005385
4.315000,-1.256132
4.316000,-1.382142
4.317000,-1.546337
4.318000,-2.573511
4.319000,-2.726251
4.320000,-2.311308
4.321000,-1.858181
4.322000,-1.281589
4.323000,-0.945562
4.324000,-0.790276
4.325000,-0.971018
4.326000,-1.181035
4.327000,-1.471240
4.328000,-2.103837
4.329000,-2.896810
4.330000,-3.164104
4.331000,-3.069915
4.332000,-2.660064
4.333000,-2.374950
4.334000,-2.148386
4.335000,-2.070743
4.336000,-2.380041
4.337000,-2.354584
4.338000,-2.005829
4.339000,-1.419054
4.340000,-0.837371
4.341000,-0.664266
4.342000,-0.596806
4.343000,-0.671903
4.344000,-0.865373
4.345000,-1.231948
4.346000,-1.098301
4.347000,-0.605716
4.348000,-0.186955
4.349000,-0.178045
4.350000,-0.096584
4.351000,-0.343513
4.352000,-0.836098
4.353000,-1.069026
4.354000,-1.209037
4.355000,-1.317228
4.356000,-1.405053
4.357000,-1.662165
4.358000,-1.671075
4.359000,-2.122929
4.360000,-2.271850
4.361000,-2.763163
4.362000,-2.759344
4.363000,-2.164933
4.364000,-1.859454
4.365000,-1.665983
4.366000,-1.472513
4.367000,-1.408872
4.368000,-1.445784
4.369000,-1.565430
4.370000,-1.679985
4.371000,-1.541246
4.372000,-1.545065
4.373000,-1.623980
4.374000,-1.663438
4.375000,-1.767810
4.376000,-1.758900
4.377000,-1.626526
4.378000,-1.524699
4.379000,-1.980372
4.380000,-2.161114
4.381000,-2.162387
4.382000,-2.017284
4.383000,-2.023649
4.384000,-1.916731
4.385000,-1.832724
4.386000,-1.841634
4.387000,-1.758900
4.388000,-1.538700
4.389000,-1.315955
4.390000,-1.467422
4.391000,-1.602342
4.392000,-1.844180
4.393000,-2.158569
4.394000,-3.035548
4.395000,-3.241747
4.396000,-2.772073
4.397000,-2.218392
4.398000,-1.579431
4.399000,-1.147942
4.400000,-1.047388
4.401000,-1.285407
4.402000,-1.392325
4.403000,-1.304500
4.404000,-1.137759
4.405000,-1.108484
4.406000,-1.032114
4.407000,-1.015567
4.408000,-1.010476
4.409000,-1.209037
4.410000,-1.216674
4.411000,-1.691440
4.412000,-2.703340
4.413000,-2.688066
4.414000,-2.013466
4.415000,-1.494151
4.416000,-1.200128
4.417000,-0.979928
4.418000,-0.923924
4.419000,-0.992656
4.420000,-1.189945
4.421000,-1.331229
4.422000,-1.555247
4.423000,-1.685076
4.424000,-1.534882
4.425000,-1.407599
4.426000,-1.370687
4.427000,-1.340139
4.428000,-1.247222
4.429000,-1.307045
4.430000,-1.382142
4.431000,-1.566703
4.432000,-1.508152
4.433000,-1.439420
4.434000,-1.472513
4.435000,-1.499243
4.436000,-1.688894
4.437000,-1.747445
4.438000,-1.497970
4.439000,-1.149214
4.440000,-1.102120
4.441000,-1.417782
4.442000,-1.643072
4.443000,-1.459785
4.444000,-1.453421
4.445000,-1.304500
4.446000,-1.450875
4.447000,-2.317672
4.448000,-2.573511
4.449000,-2.289670
4.450000,-1.961280
4.451000,-1.603615
4.452000,-1.509425
4.453000,-1.399962
4.454000,-1.337593
4.455000,-1.509425
4.456000,-1.634163
4.457000,-1.629071
4.458000,-1.872182
4.459000,-2.017284
4.460000,-2.206936
4.461000,-2.374950
4.462000,-2.259122
4.463000,-2.092381
4.464000,-1.891274
4.465000,-1.702895
4.466000,-1.421600
4.467000,-1.127576
4.468000,-1.177217
4.469000,-1.178490
4.470000,-1.267588
4.471000,-1.697804
4.472000,-1.735989
4.473000,-1.606160
4.474000,-1.472513
4.475000,-2.464048
4.476000,-2.456411
4.477000,-1.930732
4.478000,-1.366868
4.479000,-1.102120
4.480000,-1.159397
4.481000,-1.284134
4.482000,-1.751263
4.483000,-2.133112
4.484000,-2.241303
4.485000,-1.968917
4.486000,-1.859454
4.487000,-1.775447
4.488000,-1.651982
4.489000,-1.537428
4.490000,-1.440693
4.491000,-1.273952
4.492000,-0.907377
4.493000,-0.668085
4.494000,-0.771184
4.495000,-1.083027
4.496000,-1.366868
4.497000,-1.475059
4.498000,-1.510698
4.499000,-1.430510
4.500000,-1.375778
4.501000,-1.541246
4.502000,-1.682530
4.503000,-1.616343
4.504000,-1.690167
4.505000,-1.760173
4.506000,-1.976554
4.507000,-2.723705
4.508000,-3.067369
4.509000,-3.001182
4.510000,-4.095816
4.511000,-4.447117
4.512000,-3.394487
4.513000,-2.158569
4.514000,-0.954471
4.515000,-0.188228
4.516000,0.272537
4.517000,0.286538
4.518000,-0.046944
4.519000,-0.357514
4.520000,-0.351150
4.521000,-0.660448
4.522000,-0.822097
4.523000,-1.086846
4.524000,-1.277770
4.525000,-1.296863
4.526000,-1.271406
4.527000,-1.281589
4.528000,-1.350322
4.529000,-1.399962
4.530000,-1.514517
4.531000,-1.637981
4.532000,-1.732171
4.533000,-2.012193
4.534000,-2.332946
4.535000,-2.563329
4.536000,-2.690612
4.537000,-2.710977
4.538000,-2.469139
4.539000,-2.413135
4.540000,-2.318945
4.541000,-2.018557
4.542000,-1.760173
4.543000,-1.359231
4.544000,-0.901013
4.545000,-0.718998
4.546000,-0.761001
4.547000,-1.021931
4.548000,-1.119939
4.549000,-1.126303
4.550000,-1.472513
4.551000,-2.116565
4.552000,-2.344402
4.553000,-2.294761
4.554000,-2.191662
4.555000,-2.096200
4.556000,-1.930732
4.557000,-1.707987
4.558000,-1.499243
4.559000,-1.346503
4.560000,-1.757627
4.561000,-1.845452
4.562000,-2.010920
4.563000,-2.447501
4.564000,-1.799631
4.565000,-1.075390
4.566000,-0.612080
4.567000,-0.571350
4.568000,-0.690996
4.569000,-0.925196
4.570000,-1.103393
4.571000,-0.888284
4.572000,-0.948107
4.573000,-1.406326
4.574000,-1.434328
4.575000,-1.454694
4.576000,-1.406326
4.577000,-1.508152
4.578000,-1.565430
4.579000,-1.574340
4.580000,-1.658346
4.581000,-1.699077
4.582000,-1.769083
4.583000,-1.977827
4.584000,-2.055469
4.585000,-2.400406
4.586000,-2.498414
4.587000,-2.637153
4.588000,-2.933722
4.589000,-2.890446
4.590000,-2.414407
4.591000,-2.233666
4.592000,-2.049105
4.593000,-1.602342
4.594000,-1.027023
4.595000,-0.643901
4.596000,-0.405882
4.597000,-0.342240
4.598000,-0.375334
4.599000,-0.526801
4.600000,-0.929015
4.601000,-1.189945
4.602000,-1.471240
4.603000,-1.646891
4.604000,-1.593432
4.605000,-1.576885
4.606000,-1.837815
4.607000,-2.770800
4.608000,-2.700794
4.609000,-2.195481
4.610000,-1.728352
4.611000,-1.393598
4.612000,-1.289226
4.613000,-1.357959
4.614000,-1.617616
4.615000,-1.839088
4.616000,-2.190389
4.617000,-2.325309
4.618000,-2.352039
4.619000,-2.217119
4.620000,-1.816177
4.621000,-1.357959
4.622000,-1.141577
4.623000,-1.015567
4.624000,-0.972291
4.625000,-0.959563
4.626000,-0.963381
4.627000,-1.118667
4.628000,-1.248495
4.629000,-1.468695
4.630000,-1.836543
4.631000,-1.980372
4.632000,-2.037650
4.633000,-1.943460
4.634000,-1.749990
4.635000,-1.636708
4.636000,-1.686349
4.637000,-1.664711
4.638000,-1.653255
4.639000,-1.783084
4.640000,-2.035104
4.641000,-3.066096
4.642000,-3.523042
4.643000,-3.108100
4.644000,-2.339310
4.645000,-1.556520
4.646000,-1.065208
4.647000,-0.761001
4.648000,-0.693541
4.649000,-0.706270
4.650000,-0.857736
4.651000,-0.869192
4.652000,-1.060116
4.653000,-0.948107
4.654000,-1.399962
4.655000,-1.497970
4.656000,-1.571794
4.657000,-1.823814
4.658000,-1.938369
4.659000,-1.821269
4.660000,-1.631617
4.661000,-1.496697
4.662000,-1.542519
4.663000,-1.615070
4.664000,-1.639254
4.665000,-1.565430
4.666000,-1.415236
4.667000,-1.438147
4.668000,-2.744070
4.669000,-3.133556
4.670000,-2.672792
4.671000,-1.845452
4.672000,-1.280316
4.673000,-0.992656
4.674000,-0.690996
4.675000,-0.604443
4.676000,-0.634991
4.677000,-0.743182
4.678000,-0.974837
4.679000,-0.935379
4.680000,-0.855191
4.681000,-0.922651
4.682000,-1.049934
4.683000,-1.198855
4.684000,-1.211583
4.685000,-1.391052
4.686000,-1.692713
4.687000,-1.900184
4.688000,-1.963826
4.689000,-1.971463
4.690000,-1.972735
4.691000,-2.075835
4.692000,-2.152204
4.693000,-2.301126
4.694000,-2.374950
4.695000,-2.331673
4.696000,-2.215846
4.697000,-2.098746
4.698000,-1.886183
4.699000,-1.645618
4.700000,-1.646891
4.701000,-1.564157
4.702000,-1.533609
4.703000,-1.630344
4.704000,-1.681257
4.705000,-1.529791
4.706000,-1.317228
4.707000,-1.419054
4.708000,-1.704168
4.709000,-2.773345
4.710000,-2.906993
4.711000,-2.410589
4.712000,-1.766537
4.713000,-1.351594
4.714000,-1.158124
4.715000,-1.122485
4.716000,-1.182308
4.717000,-1.374505
4.718000,-1.350322
4.719000,-1.268860
4.720000,-1.280316
4.721000,-1.473786
4.722000,-1.422873
4.723000,-1.702895
4.724000,-1.627799
4.725000,-1.683803
4.726000,-1.855635
4.727000,-2.853534
4.728000,-3.008819
4.729000,-2.481867
4.730000,-1.743626
4.731000,-1.215402
4.732000,-1.425419
4.733000,-1.598523
4.734000,-1.509425
4.735000,-1.420327
4.736000,-1.784357
4.737000,-1.963826
4.738000,-1.758900
4.739000,-1.261223
4.740000,-1.019386
4.741000,-0.563713
4.742000,-0.430065
4.743000,-0.363878
4.744000,-0.316784
4.745000,-0.736818
4.746000,-1.160670
4.747000,-1.427964
4.748000,-1.531063
4.749000,-1.448329
4.750000,-1.296863
4.751000,-1.209037
4.752000,-1.169580
4.753000,-1.174671
4.754000,-1.402508
4.755000,-1.687622
4.756000,-1.658346
4.757000,-1.767810
4.758000,-2.030013
4.759000,-2.052924
4.760000,-1.988009
4.761000,-1.788175
4.762000,-1.701623
4.763000,-1.590886
4.764000,-1.503061
4.765000,-1.225584
4.766000,-1.245950
4.767000,-1.165761
4.768000,-1.245950
4.769000,-1.595978
4.770000,-1.746172
4.771000,-1.893820
4.772000,-2.069471
4.773000,-2.199299
4.774000,-2.270578
4.775000,-2.256577
4.776000,-2.153477
4.777000,-1.976554
4.778000,-1.990555
4.779000,-1.907821
4.780000,-1.706714
4.781000,-1.772901
4.782000,-1.887456
4.783000,-1.791994
4.784000,-1.863272
4.785000,-1.789448
4.786000,-1.765264
4.787000,-2.558237
4.788000,-2.486959
4.789000,-1.999465
4.790000,-1.464876
4.791000,-1.046115
4.792000,-1.010476
4.793000,-1.345230
4.794000,-1.626526
4.795000,-1.968917
4.796000,-2.156023
4.797000,-2.318945
4.798000,-2.402952
4.799000,-2.340583
4.800000,-2.171297
4.801000,-1.925641
4.802000,-1.690167
4.803000,-1.476332
4.804000,-1.220493
4.805000,-1.216674
4.806000,-1.485242
4.807000,-2.010920
4.808000,-1.634163
4.809000,-0.995202
4.810000,-0.466978
4.811000,-0.502617
4.812000,-1.263769
4.813000,-1.587068
4.814000,-1.419054
4.815000,-1.146669
4.816000,-0.847554
4.817000,-1.146669
4.818000,-1.089391
4.819000,-1.184854
4.820000,-1.245950
4.821000,-1.224311
4.822000,-1.281589
4.823000,-1.244677
4.824000,-1.252314
4.825000,-1.597251
4.826000,-1.695259
4.827000,-1.650709
4.828000,-1.629071
4.829000,-1.713078
4.830000,-2.156023
4.831000,-2.371131
4.832000,-2.288397
4.833000,-2.326582
4.834000,-2.252758
4.835000,-2.208209
4.836000,-1.901457
4.837000,-1.625253
4.838000,-1.212856
4.839000,-1.025750
4.840000,-1.037205
4.841000,-0.768638
4.842000,-0.743182
4.843000,-0.766093
4.844000,-0.753364
4.845000,-1.023204
4.846000,-1.178490
4.847000,-1.259951
4.848000,-1.398689
4.849000,-1.593432
4.850000,-1.766537
4.851000,-1.847998
4.852000,-1.876000
4.853000,-1.888729
4.854000,-1.942188
4.855000,-1.985464
4.856000,-2.021103
4.857000,-2.232393
4.858000,-2.248940
4.859000,-2.290943
4.860000,-2.212027
4.861000,-2.237484
4.862000,-2.168751
4.863000,-2.046560
4.864000,-2.010920
4.865000,-2.023649
4.866000,-1.830178
4.867000,-1.630344
4.868000,-1.590886
4.869000,-1.515789
4.870000,-1.480150
4.871000,-1.692713
4.872000,-1.706714
4.873000,-1.780538
4.874000,-1.663438
4.875000,-1.622707
4.876000,-1.581977
4.877000,-1.537428
4.878000,-1.485242
4.879000,-1.504334
4.880000,-1.497970
4.881000,-1.559066
4.882000,-1.607433
4.883000,-1.579431
4.884000,-2.044014
4.885000,-3.521770
4.886000,-3.884526
4.887000,-3.132284
4.888000,-2.616787
4.889000,-2.377495
4.890000,-1.952370
4.891000,-2.098746
4.892000,-1.361777
4.893000,-0.423701
4.894000,0.021789
4.895000,0.371817
4.896000,0.827491
4.897000,0.877131
4.898000,0.410002
4.899000,0.020516
4.900000,-0.246778
4.901000,-0.897194
4.902000,-1.364323
4.903000,-1.415236
4.904000,-1.697804
4.905000,-1.803449
4.906000,-1.954916
4.907000,-1.994374
4.908000,-1.886183
4.909000,-1.770355
4.910000,-1.876000
4.911000,-1.847998
4.912000,-1.699077
4.913000,-1.635435
4.914000,-1.550156
4.915000,-1.580704
4.916000,-1.654528
4.917000,-1.584522
4.918000,-1.559066
4.919000,-1.716897
4.920000,-1.793266
4.921000,-1.911640
4.922000,-2.158569
4.923000,-2.476776
4.924000,-2.522598
4.925000,-2.315127
4.926000,-2.092381
4.927000,-2.042741
4.928000,-1.826360
4.929000,-1.553974
4.930000,-1.415236
4.931000,-1.415236
4.932000,-1.491606
4.933000,-1.612525
4.934000,-1.504334
4.935000,-1.336320
4.936000,-1.272679
4.937000,-1.352867
4.938000,-1.431783
4.939000,-1.397416
4.940000,-1.527245
4.941000,-1.615070
4.942000,-1.713078
4.943000,-1.747445
4.944000,-1.635435
4.945000,-1.598523
4.946000,-1.603615
4.947000,-1.648164
4.948000,-1.763991
4.949000,-1.802176
4.950000,-1.683803
4.951000,-1.602342
4.952000,-1.790721
4.953000,-1.893820
4.954000,-1.934551
4.955000,-1.884910
4.956000,-2.016012
4.957000,-2.175115
4.958000,-2.112747
4.959000,-2.289670
4.960000,-2.546782
4.961000,-2.507324
4.962000,-2.488232
4.963000,-2.200572
4.964000,-1.729625
4.965000,-1.317228
4.966000,-1.382142
4.967000,-1.514517
4.968000,-1.284134
4.969000,-0.967200
4.970000,-0.707542
4.971000,-0.526801
4.972000,-0.494980
4.973000,-0.524255
4.974000,-1.084300
4.975000,-2.441137
4.976000,-2.624424
4.977000,-2.527689
4.978000,-2.296034
4.979000,-1.785629
4.980000,-1.487787
4.981000,-1.324865
4.982000,-1.239585
4.983000,-1.238313
4.984000,-1.405053
4.985000,-1.504334
4.986000,-1.224311
4.987000,-0.889557
4.988000,-0.706270
4.989000,-1.485242
4.990000,-1.620162
4.991000,-1.399962
4.992000,-1.189945
4.993000,-1.265042
4.994000,-1.207765
4.995000,-1.335048
4.996000,-1.644345
4.997000,-1.794539
4.998000,-1.872182
4.999000,-1.823814
5.000000,-1.728352
5.001000,-2.093654
5.002000,-2.890446
5.003000,-3.231564
5.004000,-2.854807
5.005000,-2.443683
5.006000,-1.755082
5.007000,-0.941743
5.008000,-0.433884
5.009000,-0.226413
5.010000,-0.091493
5.011000,0.003970
5.012000,-0.068582
5.013000,0.117251
5.014000,-0.211139
5.015000,-0.748273
5.016000,-1.125031
5.017000,-1.466149
5.018000,-1.797085
5.019000,-1.984191
5.020000,-2.038923
5.021000,-2.089836
5.022000,-2.105110
5.023000,-2.092381
5.024000,-2.072016
5.025000,-2.114020
5.026000,-2.066925
5.027000,-2.017284
5.028000,-1.897638
5.029000,-1.977827
5.030000,-1.999465
5.031000,-2.126748
5.032000,-2.204390
5.033000,-2.010920
5.034000,-1.864545
5.035000,-1.849271
5.036000,-1.938369
5.037000,-2.264214
5.038000,-2.458956
5.039000,-2.329128
5.040000,-1.984191
5.041000,-1.618889
5.042000,-1.293044
5.043000,-1.150487
5.044000,-1.140305
5.045000,-1.321046
5.046000,-1.387234
5.047000,-1.430510
5.048000,-1.588341
5.049000,-1.846725
5.050000,-1.870909
5.051000,-1.835270
5.052000,-1.786902
5.053000,-1.728352
5.054000,-1.658346
5.055000,-1.622707
5.056000,-1.594705
5.057000,-1.645618
5.058000,-1.956189
5.059000,-3.370303
5.060000,-4.522214
5.061000,-4.256192
5.062000,-3.117010
5.063000,-2.220937
5.064000,-1.625253
5.065000,-1.183581
5.066000,-1.184854
5.067000,-1.230676
5.068000,-1.205219
5.069000,-0.912468
5.070000,-0.684631
5.071000,-0.851372
5.072000,-0.842462
5.073000,-0.929015
5.074000,-0.825916
5.075000,-0.584078
5.076000,-0.428793
5.077000,-0.491161
5.078000,-0.949380
5.079000,-2.452592
5.080000,-2.934995
5.081000,-2.721159
5.082000,-2.124202
5.083000,-1.352867
5.084000,-0.803005
5.085000,-0.351150
5.086000,-0.239141
5.087000,-0.609535
5.088000,-0.764820
5.089000,-1.043570
5.090000,-0.889557
5.091000,-0.944289
5.092000,-0.985019
5.093000,-1.018113
5.094000,-1.207765
5.095000,-1.588341
5.096000,-1.877273
5.097000,-1.977827
5.098000,-1.761446
5.099000,-1.445784
5.100000,-1.154306
5.101000,-1.164488
5.102000,-1.662165
5.103000,-1.617616
5.104000,-1.336320
5.105000,-1.056298
5.106000,-0.901013
5.107000,-0.833553
5.108000,-1.071572
5.109000,-1.360504
5.110000,-1.669802
5.111000,-1.845452
5.112000,-1.965098
5.113000,-2.162387
5.114000,-2.867535
5.115000,-3.218836
5.116000,-3.076279
5.117000,-2.536599
5.118000,-2.074562
5.119000,-1.753809
5.120000,-1.769083
5.121000,-1.786902
5.122000,-2.758072
5.123000,-3.215018
5.124000,-2.872626
5.125000,-2.428409
5.126000,-1.933278
5.127000,-1.341412
5.128000,-1.109757
5.129000,-1.156851
5.130000,-0.983747
5.131000,-1.011749
5.132000,-0.935379
5.133000,-1.195036
5.134000,-1.369414
5.135000,-1.497970
5.136000,-1.342685
5.137000,-1.032114
5.138000,-0.814460
5.139000,-0.958290
5.140000,-0.987565
5.141000,-1.084300
5.142000,-0.992656
5.143000,-1.169580
5.144000,-1.448329
5.145000,-1.876000
5.146000,-2.182752
5.147000,-2.311308
5.148000,-2.278215
5.149000,-2.182752
5.150000,-1.982918
5.151000,-1.851817
5.152000,-1.724534
5.153000,-1.700350
5.154000,-1.765264
5.155000,-1.781811
5.156000,-1.775447
5.157000,-1.658346
5.158000,-1.795812
5.159000,-1.626526
5.160000,-1.776720
5.161000,-1.939642
5.162000,-2.077107
5.163000,-2.028740
5.164000,-1.921822
5.165000,-1.772901
5.166000,-1.618889
5.167000,-1.705441
5.168000,-2.595149
5.169000,-4.091997
5.170000,-4.192551
5.171000,-3.389395
5.172000,-2.372404
5.173000,-1.169580
5.174000,-0.438975
5.175000,0.052337
5.176000,0.390910
5.177000,0.289083
5.178000,0.029426
5.179000,0.071430
5.180000,-0.147497
5.181000,-0.269689
5.182000,-0.274780
5.183000,-0.449158
5.184000,-0.824643
5.185000,-1.324865
5.186000,-2.456411
5.187000,-2.576057
5.188000,-2.335492
5.189000,-1.970190
5.190000,-1.681257
5.191000,-1.529791
5.192000,-1.478877
5.193000,-1.581977
5.194000,-1.779265
5.195000,-2.063106
5.196000,-1.934551
5.197000,-2.070743
5.198000,-1.989282
5.199000,-1.993101
5.200000,-1.870909
5.201000,-1.886183
5.202000,-2.058015
5.203000,-2.047832
5.204000,-1.725806
5.205000,-1.483969
5.206000,-1.137759
5.207000,-1.103393
5.208000,-1.210310
5.209000,-1.062662
5.210000,-1.477605
5.211000,-2.395315
5.212000,-2.157296
5.213000,-1.673620
5.214000,-1.132668
5.215000,-0.860282
5.216000,-0.785185
5.217000,-0.895921
5.218000,-0.985019
5.219000,-1.318501
5.220000,-1.704168
5.221000,-2.068198
5.222000,-2.224756
5.223000,-2.176388
5.224000,-2.075835
5.225000,-1.966371
5.226000,-1.954916
5.227000,-1.916731
5.228000,-2.013466
5.229000,-2.259122
5.230000,-2.500960
5.231000,-2.530235
5.232000,-2.528962
5.233000,-2.732615
5.234000,-2.630789
5.235000,-2.493323
5.236000,-2.210755
5.237000,-1.938369
5.238000,-1.560339
5.239000,-1.459785
5.240000,-1.237040
5.241000,-0.856464
5.242000,-0.455522
5.243000,-0.180591
5.244000,-0.362606
5.245000,-0.752091
5.246000,-0.750819
5.247000,-0.712634
5.248000,-0.679540
5.249000,-0.791549
5.250000,-0.976110
5.251000,-1.133940
5.252000,-1.424146
5.253000,-1.963826
5.254000,-3.080098
5.255000,-4.260011
5.256000,-4.165822
5.257000,-3.439036
5.258000,-3.236656
5.259000,-2.713522
5.260000,-1.900184
5.261000,-1.243404
5.262000,-0.955744
5.263000,-0.614626
5.264000,-0.251869
5.265000,0.121070
5.266000,0.562742
5.267000,0.239443
5.268000,-0.534438
5.269000,-0.641355
5.270000,-0.662993
5.271000,-0.918832
5.272000,-1.122485
5.273000,-1.205219
5.274000,-1.240858
5.275000,-1.275225
5.276000,-1.482696
5.277000,-1.542519
5.278000,-1.644345
5.279000,-1.611252
5.280000,-1.709260
5.281000,-1.793266
5.282000,-1.935823
5.283000,-2.007102
5.284000,-1.937096
5.285000,-1.935823
5.286000,-2.139476
5.287000,-2.288397
5.288000,-2.210755
5.289000,-2.220937
5.290000,-2.194208
5.291000,-2.121657
5.292000,-2.035104
5.293000,-1.993101
5.294000,-1.865818
5.295000,-2.574784
5.296000,-2.900628
5.297000,-2.484413
5.298000,-1.958734
5.299000,-1.724534
5.300000,-1.654528
5.301000,-1.626526
5.302000,-1.629071
5.303000,-1.627799
5.304000,-1.612525
5.305000,-1.458512
5.306000,-1.416509
5.307000,-1.327411
5.308000,-1.396143
5.309000,-1.329956
5.310000,-1.471240
5.311000,-1.655801
5.312000,-1.738535
5.313000,-1.788175
5.314000,-1.851817
5.315000,-1.888729
5.316000,-1.743626
5.317000,-1.626526
5.318000,-1.727079
5.319000,-1.828906
5.320000,-1.779265
5.321000,-1.766537
5.322000,-1.728352
5.323000,-1.505607
5.324000,-1.135213
5.325000,-1.061389
5.326000,-1.018113
5.327000,-1.672348
5.328000,-1.966371
5.329000,-2.190389
5.330000,-2.509870
5.331000,-2.751707
5.332000,-2.378768
5.333000,-1.534882
5.334000,-0.620990
5.335000,-0.239141
5.336000,-0.144952
5.337000,-0.344786
5.338000,-0.582805
5.339000,-0.771184
5.340000,-0.884466
5.341000,-0.923924
5.342000,-0.979928
5.343000,-1.174671
5.344000,-1.265042
5.345000,-1.328683
5.346000,-1.576885
5.347000,-2.164933
5.348000,-2.346947
5.349000,-2.353312
5.350000,-2.033831
5.351000,-1.686349
5.352000,-1.553974
5.353000,-1.338866
5.354000,-1.245950
5.355000,-1.331229
5.356000,-1.581977
5.357000,-2.293489
5.358000,-2.117838
5.359000,-1.892547
5.360000,-1.397416
5.361000,-1.111030
5.362000,-1.284134
5.363000,-1.702895
5.364000,-2.217119
5.365000,-2.626970
5.366000,-2.782255
5.367000,-2.779710
5.368000,-2.634607
5.369000,-2.302398
5.370000,-2.038923
5.371000,-1.668529
5.372000,-1.482696
5.373000,-1.247222
5.374000,-0.766093
5.375000,-0.320602
5.376000,-0.423701
5.377000,-0.650265
5.378000,-0.725362
5.379000,-0.898467
5.380000,-1.077936
5.381000,-1.187399
5.382000,-1.324865
5.383000,-1.364323
5.384000,-1.565430
5.385000,-1.681257
5.386000,-1.776720
5.387000,-1.819996
5.388000,-1.847998
5.389000,-1.925641
5.390000,-2.807712
5.391000,-3.271022
5.392000,-2.833169
5.393000,-2.292216
5.394000,-1.821269
5.395000,-1.800903
5.396000,-1.671075
5.397000,-1.626526
5.398000,-1.603615
5.399000,-1.719442
5.400000,-1.825087
5.401000,-1.832724
5.402000,-1.659619
5.403000,-1.611252
5.404000,-1.546337
5.405000,-1.312137
5.406000,-1.159397
5.407000,-1.454694
5.408000,-2.023649
5.409000,-2.181480
5.410000,-1.932005
5.411000,-1.471240
5.412000,-1.030841
5.413000,-1.081754
5.414000,-1.153033
5.415000,-1.183581
5.416000,-1.279043
5.417000,-1.576885
5.418000,-1.695259
5.419000,-1.821269
5.420000,-2.660064
5.421000,-2.513688
5.422000,-2.126748
5.423000,-1.653255
5.424000,-1.351594
5.425000,-1.251041
5.426000,-1.298136
5.427000,-1.504334
5.428000,-1.639254
5.429000,-1.934551
5.430000,-2.002011
5.431000,-2.191662
5.432000,-2.145840
5.433000,-1.832724
5.434000,-1.697804
5.435000,-2.875172
5.436000,-2.960452
5.437000,-2.045287
5.438000,-1.047388
5.439000,-0.212412
5.440000,0.019243
5.441000,0.328541
5.442000,0.640385
5.443000,0.580562
5.444000,0.269991
5.445000,-0.197138
5.446000,-0.676995
5.447000,-1.231948
5.448000,-1.639254
5.449000,-1.930732
5.450000,-2.206936
5.451000,-2.283306
5.452000,-2.214573
5.453000,-2.115292
5.454000,-1.974008
5.455000,-1.849271
5.456000,-1.688894
5.457000,-1.475059
5.458000,-1.495424
5.459000,-1.620162
5.460000,-1.603615
5.461000,-1.663438
5.462000,-2.227301
5.463000,-3.134829
5.464000,-2.968088
5.465000,-2.382587
5.466000,-1.869636
5.467000,-1.817450
5.468000,-1.648164
5.469000,-1.438147
5.470000,-1.401235
5.471000,-1.205219
5.472000,-1.198855
5.473000,-1.373233
5.474000,-1.531063
5.475000,-1.790721
5.476000,-1.920549
5.477000,-1.869636
5.478000,-1.845452
5.479000,-1.697804
5.480000,-1.911640
5.481000,-2.355857
5.482000,-2.353312
5.483000,-2.051651
5.484000,-1.724534
5.485000,-1.555247
5.486000,-1.532336
5.487000,-1.523426
5.488000,-1.603615
5.489000,-1.730898
5.490000,-1.720715
5.491000,-1.632890
5.492000,-1.378324
5.493000,-1.341412
5.494000,-1.425419
5.495000,-1.678712
5.496000,-2.493323
5.497000,-2.810258
5.498000,-2.315127
5.499000,-1.772901
5.500000,-1.604888
5.501000,-1.485242
5.502000,-1.184854
5.503000,-1.114848
5.504000,-1.154306
5.505000,-1.229403
5.506000,-1.042297
5.507000,-0.804278
5.508000,-0.750819
5.509000,-0.552257
5.510000,-0.613353
5.511000,-0.763547
5.512000,-0.927742
5.513000,-1.071572
5.514000,-1.237040
5.515000,-1.280316
5.516000,-1.500516
5.517000,-1.793266
5.518000,-2.114020
5.519000,-2.234938
5.520000,-2.195481
5.521000,-2.336765
5.522000,-2.406770
5.523000,-2.531508
5.524000,-2.292216
5.525000,-1.961280
5.526000,-1.625253
5.527000,-1.313410
5.528000,-1.240858
5.529000,-1.336320
5.530000,-1.807268
5.531000,-1.887456
5.532000,-1.800903
5.533000,-1.546337
5.534000,-1.189945
5.535000,-1.117394
5.536000,-1.018113
5.537000,-1.275225
5.538000,-1.769083
5.539000,-3.178105
5.540000,-3.969806
5.541000,-4.486575
5.542000,-3.516678
5.543000,-2.224756
5.544000,-1.119939
5.545000,-0.456795
5.546000,-0.153861
5.547000,0.005242
5.548000,0.234352
5.549000,0.268718
5.550000,-0.178045
5.551000,-0.388062
5.552000,-0.510254
5.553000,-0.907377
5.554000,-1.177217
5.555000,-1.687622
5.556000,-1.845452
5.557000,-1.780538
5.558000,-1.699077
5.559000,-1.635435
5.560000,-1.747445
5.561000,-1.939642
5.562000,-1.952370
5.563000,-1.882365
5.564000,-1.748717
5.565000,-1.672348
5.566000,-1.588341
5.567000,-1.575612
5.568000,-1.561611
5.569000,-1.539973
5.570000,-1.486514
5.571000,-1.122485
5.572000,-0.985019
5.573000,-1.221766
5.574000,-1.668529
5.575000,-2.079653
5.576000,-2.338038
5.577000,-2.296034
5.578000,-2.066925
5.579000,-1.904003
5.580000,-1.733443
5.581000,-1.603615
5.582000,-1.752536
5.583000,-2.671519
5.584000,-2.910811
5.585000,-2.695703
5.586000,-2.213300
5.587000,-1.630344
5.588000,-1.291771
5.589000,-1.262496
5.590000,-1.397416
5.591000,-1.445784
5.592000,-1.444511
5.593000,-1.385961
5.594000,-1.149214
5.595000,-0.945562
5.596000,-1.135213
5.597000,-1.323592
5.598000,-1.427964
5.599000,-1.508152
5.600000,-1.450875
5.601000,-1.542519
5.602000,-1.608706
5.603000,-1.723261
5.604000,-2.091109
5.605000,-2.357130
5.606000,-2.518780
5.607000,-2.387678
5.608000,-2.206936
5.609000,-2.210755
5.610000,-2.219664
5.611000,-2.086017
5.612000,-1.798358
5.613000,-1.618889
5.614000,-1.426691
5.615000,-1.060116
5.616000,-1.183581
5.617000,-1.645618
5.618000,-1.911640
5.619000,-1.926914
5.620000,-1.799631
5.621000,-2.320218
5.622000,-1.956189
5.623000,-1.373233
5.624000,-1.007930
5.625000,-0.880647
5.626000,-0.810642
5.627000,-0.542075
5.628000,-0.262052
5.629000,-0.506435
5.630000,-0.843735
5.631000,-1.368141
5.632000,-1.608706
5.633000,-1.811086
5.634000,-2.117838
5.635000,-2.125475
5.636000,-2.101291
5.637000,-3.031730
5.638000,-3.894709
5.639000,-3.657962
5.640000,-2.770800
5.641000,-1.777992
5.642000,-0.918832
5.643000,-0.491161
5.644000,-0.142406
5.645000,0.180893
5.646000,0.275082
5.647000,0.043427
5.648000,-0.067309
5.649000,-0.194592
5.650000,-0.380425
5.651000,-0.647719
5.652000,-1.111030
5.653000,-1.361777
5.654000,-1.478877
5.655000,-1.645618
5.656000,-2.032558
5.657000,-3.003728
5.658000,-3.160286
5.659000,-2.862444
5.660000,-2.486959
5.661000,-2.080926
5.662000,-1.868363
5.663000,-1.831451
5.664000,-1.929459
5.665000,-1.956189
5.666000,-1.938369
5.667000,-1.746172
5.668000,-1.537428
5.669000,-1.453421
5.670000,-1.272679
5.671000,-1.233221
5.672000,-1.321046
5.673000,-1.422873
5.674000,-1.377051
5.675000,-1.485242
5.676000,-1.613797
5.677000,-1.632890
5.678000,-1.598523
5.679000,-1.616343
5.680000,-1.590886
5.681000,-1.542519
5.682000,-1.532336
5.683000,-1.623980
5.684000,-1.734716
5.685000,-1.884910
5.686000,-2.063106
5.687000,-2.158569
5.688000,-2.172570
5.689000,-2.228574
5.690000,-2.206936
5.691000,-2.148386
5.692000,-2.372404
5.693000,-2.569693
5.694000,-2.614242
5.695000,-2.676610
5.696000,-2.598968
5.697000,-2.005829
5.698000,-1.640527
5.699000,-1.804722
5.700000,-1.657074
5.701000,-1.179762
5.702000,-0.800459
5.703000,-0.441521
5.704000,-0.360060
5.705000,-0.937925
5.706000,-1.476332
5.707000,-1.612525
5.708000,-1.421600
5.709000,-0.974837
5.710000,-0.584078
5.711000,-0.414792
5.712000,-0.581532
5.713000,-0.820824
5.714000,-1.002839
5.715000,-1.070299
5.716000,-1.256132
5.717000,-1.298136
5.718000,-1.413963
5.719000,-1.491606
5.720000,-1.720715
5.721000,-1.753809
5.722000,-1.897638
5.723000,-2.259122
5.724000,-2.372404
5.725000,-2.331673
5.726000,-2.086017
5.727000,-1.859454
5.728000,-1.749990
5.729000,-1.877273
5.730000,-2.856079
5.731000,-2.988454
5.732000,-2.801348
5.733000,-3.067369
5.734000,-3.188288
5.735000,-2.775891
5.736000,-2.002011
5.737000,-1.099574
5.738000,-0.782639
5.739000,-0.652811
5.740000,-0.417337
5.741000,-0.091493
5.742000,0.117251
5.743000,0.263627
5.744000,0.031972
5.745000,-0.144952
5.746000,-0.430065
5.747000,-0.811914
5.748000,-1.196309
5.749000,-1.416509
5.750000,-1.664711
5.751000,-1.732171
5.752000,-1.709260
5.753000,-1.814905
5.754000,-1.929459
5.755000,-2.012193
5.756000,-2.010920
5.757000,-2.063106
5.758000,-2.064379
5.759000,-1.952370
5.760000,-1.909094
5.761000,-1.952370
5.762000,-2.084744
5.763000,-2.012193
5.764000,-2.217119
5.765000,-2.383860
5.766000,-2.555692
5.767000,-2.653699
5.768000,-2.502233
5.769000,-2.270578
5.770000,-1.965098
5.771000,-1.588341
5.772000,-1.290499
5.773000,-1.118667
5.774000,-1.137759
5.775000,-1.083027
5.776000,-1.123758
5.777000,-1.057571
5.778000,-0.827188
5.779000,-0.799186
5.780000,-1.044842
5.781000,-1.326138
5.782000,-1.497970
5.783000,-1.617616
5.784000,-1.780538
5.785000,-1.821269
5.786000,-2.077107
5.787000,-2.195481
5.788000,-2.416953
5.789000,-2.658791
5.790000,-2.648608
5.791000,-2.450047
5.792000,-2.083472
5.793000,-1.844180
5.794000,-2.549327
5.795000,-2.397861
5.796000,-1.860726
5.797000,-1.394871
5.798000,-1.107211
5.799000,-0.883193
5.800000,-0.608262
5.801000,-0.669358
5.802000,-0.842462
5.803000,-0.932833
5.804000,-1.305773
5.805000,-1.518335
5.806000,-1.667256
5.807000,-1.565430
5.808000,-1.359231
5.809000,-1.202673
5.810000,-1.343957
5.811000,-2.167478
5.812000,-2.256577
5.813000,-2.075835
5.814000,-1.864545
5.815000,-1.738535
5.816000,-1.901457
5.817000,-1.737262
5.818000,-1.825087
5.819000,-1.918004
5.820000,-1.867091
5.821000,-1.546337
5.822000,-1.333775
5.823000,-1.422873
5.824000,-1.099574
5.825000,-0.712634
5.826000,-0.473342
5.827000,-0.724089
5.828000,-0.684631
5.829000,-0.771184
5.830000,-1.083027
5.831000,-1.520881
5.832000,-1.771628
5.833000,-2.107655
5.834000,-2.177661
5.835000,-2.315127
5.836000,-2.550600
5.837000,-2.558237
5.838000,-2.150932
5.839000,-1.602342
5.840000,-1.478877
5.841000,-1.705441
5.842000,-2.444955
5.843000,-2.303671
5.844000,-1.672348
5.845000,-0.986292
5.846000,-0.671903
5.847000,-0.564985
5.848000,-0.664266
5.849000,-0.930288
5.850000,-1.216674
5.851000,-1.293044
5.852000,-1.333775
5.853000,-1.412690
5.854000,-1.627799
5.855000,-1.793266
5.856000,-2.033831
5.857000,-1.901457
5.858000,-1.944733
5.859000,-2.154750
5.860000,-2.084744
5.861000,-2.206936
5.862000,-2.423317
5.863000,-2.344402
5.864000,-2.246394
5.865000,-2.064379
5.866000,-2.975725
5.867000,-3.241747
5.868000,-2.896810
5.869000,-2.346947
5.870000,-1.867091
5.871000,-1.895093
5.872000,-1.686349
5.873000,-1.203946
5.874000,-0.632445
5.875000,-0.180591
5.876000,-0.297691
5.877000,-0.491161
5.878000,-0.381698
5.879000,-0.325693
5.880000,-1.061389
5.881000,-2.007102
5.882000,-1.893820
5.883000,-1.489060
5.884000,-1.461058
5.885000,-1.368141
5.886000,-1.198855
5.887000,-1.076663
5.888000,-1.205219
5.889000,-1.298136
5.890000,-1.298136
5.891000,-1.252314
5.892000,-1.402508
5.893000,-1.217947
5.894000,-1.457239
5.895000,-1.590886
5.896000,-1.791994
5.897000,-1.836543
5.898000,-1.831451
5.899000,-1.934551
5.900000,-1.968917
5.901000,-1.809813
5.902000,-1.821269
5.903000,-1.807268
5.904000,-1.683803
5.905000,-1.584522
5.906000,-1.471240
5.907000,-1.690167
5.908000,-1.830178
5.909000,-1.807268
5.910000,-1.588341
5.911000,-1.454694
5.912000,-1.494151
5.913000,-1.537428
5.914000,-1.565430
5.915000,-1.580704
5.916000,-1.565430
5.917000,-1.522154
5.918000,-1.653255
5.919000,-1.601069
5.920000,-1.534882
5.921000,-1.536155
5.922000,-1.672348
5.923000,-1.809813
5.924000,-1.835270
5.925000,-1.804722
5.926000,-1.746172
5.927000,-1.769083
5.928000,-1.686349
5.929000,-1.783084
5.930000,-1.896366
5.931000,-2.004556
5.932000,-2.878990
5.933000,-2.889173
5.934000,-2.404225
5.935000,-1.886183
5.936000,-1.618889
5.937000,-1.594705
5.938000,-1.431783
5.939000,-1.279043
5.940000,-1.410145
5.941000,-1.385961
5.942000,-1.377051
5.943000,-1.285407
5.944000,-1.102120
5.945000,-0.913741
5.946000,-0.827188
5.947000,-1.020659
5.948000,-1.433056
5.949000,-1.847998
5.950000,-1.957461
5.951000,-1.870909
5.952000,-2.626970
5.953000,-2.871353
5.954000,-2.209482
5.955000,-1.729625
5.956000,-1.267588
5.957000,-1.016840
5.958000,-0.884466
5.959000,-1.062662
5.960000,-1.154306
5.961000,-1.335048
5.962000,-1.504334
5.963000,-1.700350
5.964000,-1.511971
5.965000,-1.429237
5.966000,-1.206492
5.967000,-1.252314
5.968000,-1.888729
5.969000,-1.952370
5.970000,-1.715624
5.971000,-1.561611
5.972000,-1.369414
5.973000,-1.343957
5.974000,-1.182308
5.975000,-1.158124
5.976000,-1.125031
5.977000,-1.198855
5.978000,-1.263769
5.979000,-1.448329
5.980000,-1.566703
5.981000,-1.517062
5.982000,-1.570521
5.983000,-1.719442
5.984000,-1.831451
5.985000,-2.038923
5.986000,-2.092381
5.987000,-1.999465
5.988000,-1.906548
5.989000,-1.817450
5.990000,-1.859454
5.991000,-1.864545
5.992000,-1.975281
5.993000,-2.111474
5.994000,-2.220937
5.995000,-1.962553
5.996000,-1.749990
5.997000,-1.679985
5.998000,-1.559066
5.999000,-1.555247
6.000000,-1.695259
6.001000,-1.506880
6.002000,-1.219220
6.003000,-1.443238
6.004000,-1.637981
6.005000,-1.923095
6.006000,-2.209482
6.007000,-2.312581
6.008000,-2.042741
6.009000,-1.898911
6.010000,-1.607433
6.011000,-1.226857
6.012000,-1.060116
6.013000,-0.927742
6.014000,-0.903558
6.015000,-0.806823
6.016000,-0.669358
6.017000,-0.828461
6.018000,-1.077936
6.019000,-1.420327
6.020000,-1.662165
6.021000,-1.733443
6.022000,-1.743626
6.023000,-1.716897
6.024000,-1.758900
6.025000,-1.776720
6.026000,-1.678712
6.027000,-1.630344
6.028000,-1.444511
6.029000,-1.392325
6.030000,-1.430510
6.031000,-1.543792
6.032000,-1.672348
6.033000,-1.774174
6.034000,-1.733443
6.035000,-2.218392
6.036000,-3.075006
6.037000,-2.914630
6.038000,-2.352039
6.039000,-1.896366
6.040000,-1.621434
6.041000,-2.209482
6.042000,-2.355857
6.043000,-1.932005
6.044000,-1.469968
6.045000,-1.027023
6.046000,-0.972291
6.047000,-0.829734
6.048000,-0.990111
6.049000,-1.611252
6.050000,-2.107655
6.051000,-1.982918
6.052000,-1.364323
6.053000,-1.116121
6.054000,-0.974837
6.055000,-0.925196
6.056000,-0.939197
6.057000,-0.884466
6.058000,-0.983747
6.059000,-1.158124
6.060000,-1.343957
6.061000,-1.584522
6.062000,-1.720715
6.063000,-1.823814
6.064000,-1.765264
6.065000,-1.753809
6.066000,-1.707987
6.067000,-1.608706
6.068000,-1.598523
6.069000,-1.695259
6.070000,-1.839088
6.071000,-1.967644
6.072000,-2.301126
6.073000,-2.620606
6.074000,-2.698249
6.075000,-2.873899
6.076000,-2.848442
6.077000,-2.444955
6.078000,-1.846725
6.079000,-1.366868
6.080000,-1.198855
6.081000,-1.301954
6.082000,-1.336320
6.083000,-1.378324
6.084000,-1.284134
6.085000,-1.349049
6.086000,-1.440693
6.087000,-1.336320
6.088000,-1.174671
6.089000,-1.273952
6.090000,-1.462331
6.091000,-1.467422
6.092000,-1.427964
6.093000,-1.425419
6.094000,-1.509425
6.095000,-1.609979
6.096000,-1.756354
6.097000,-1.775447
6.098000,-1.593432
6.099000,-1.440693
6.100000,-1.371960
6.101000,-1.005385
6.102000,-0.441521
6.103000,-0.459341
6.104000,-0.696087
6.105000,-0.987565
6.106000,-1.211583
6.107000,-1.356686
6.108000,-1.697804
6.109000,-1.753809
6.110000,-1.797085
6.111000,-1.545065
6.112000,-1.534882
6.113000,-1.478877
6.114000,-2.082199
6.115000,-2.545509
6.116000,-2.232393
6.117000,-2.649881
6.118000,-2.521325
6.119000,-1.845452
6.120000,-1.181035
6.121000,-0.747000
6.122000,-0.754637
6.123000,-0.922651
6.124000,-1.391052
6.125000,-1.688894
6.126000,-1.785629
6.127000,-1.874728
6.128000,-2.046560
6.129000,-1.835270
6.130000,-1.546337
6.131000,-1.401235
6.132000,-1.357959
6.133000,-1.429237
6.134000,-1.407599
6.135000,-1.435601
6.136000,-1.417782
6.137000,-1.523426
6.138000,-1.569248
6.139000,-1.555247
6.140000,-1.592159
6.141000,-1.688894
6.142000,-1.742353
6.143000,-1.861999
6.144000,-2.910811
6.145000,-3.459401
6.146000,-3.315571
6.147000,-2.890446
6.148000,-2.247667
6.149000,-1.825087
6.150000,-1.552702
6.151000,-1.383415
6.152000,-1.556520
6.153000,-1.879819
6.154000,-1.921822
6.155000,-1.604888
6.156000,-1.271406
6.157000,-1.112302
6.158000,-1.394871
6.159000,-1.433056
6.160000,-1.336320
6.161000,-1.149214
6.162000,-1.061389
6.163000,-0.944289
6.164000,-0.971018
6.165000,-1.112302
6.166000,-1.090664
6.167000,-1.267588
6.168000,-1.173398
6.169000,-0.787731
6.170000,-0.767365
6.171000,-1.046115
6.172000,-1.505607
6.173000,-1.794539
6.174000,-1.846725
6.175000,-1.847998
6.176000,-1.737262
6.177000,-1.887456
6.178000,-1.920549
6.179000,-1.890001
6.180000,-1.799631
6.181000,-1.524699
6.182000,-1.368141
6.183000,-1.958734
6.184000,-2.741525
6.185000,-2.787347
6.186000,-2.293489
6.187000,-1.699077
6.188000,-0.969745
6.189000,-0.544620
6.190000,-0.519164
6.191000,-0.661721
6.192000,-0.587896
6.193000,-0.731726
6.194000,-1.005385
6.195000,-0.795368
6.196000,-0.934106
6.197000,-1.499243
6.198000,-1.653255
6.199000,-1.579431
6.200000,-1.513244
6.201000,-1.534882
6.202000,-1.608706
6.203000,-2.624424
6.204000,-2.801348
6.205000,-2.308763
6.206000,-1.718169
6.207000,-1.215402
6.208000,-1.133940
6.209000,-1.160670
6.210000,-1.321046
6.211000,-1.511971
6.212000,-1.823814
6.213000,-2.047832
6.214000,-2.325309
6.215000,-2.563329
6.216000,-2.882809
6.217000,-2.917175
6.218000,-3.016456
6.219000,-2.805166
6.220000,-2.685520
6.221000,-2.324037
6.222000,-1.886183
6.223000,-1.588341
6.224000,-1.467422
6.225000,-1.091937
6.226000,-0.706270
6.227000,-0.553530
6.228000,-0.785185
6.229000,-0.650265
6.230000,-0.642628
6.231000,-1.039751
6.232000,-1.100847
6.233000,-1.179762
6.234000,-1.223039
6.235000,-1.183581
6.236000,-1.265042
6.237000,-1.538700
6.238000,-1.713078
6.239000,-2.164933
6.240000,-2.693157
6.241000,-2.495869
6.242000,-2.073289
6.243000,-1.592159
6.244000,-1.163216
6.245000,-1.355413
6.246000,-1.636708
6.247000,-1.742353
6.248000,-1.805995
6.249000,-1.798358
6.250000,-1.795812
6.251000,-1.669802
6.252000,-1.676166
6.253000,-1.685076
6.254000,-1.704168
6.255000,-1.676166
6.256000,-1.525972
6.257000,-1.459785
6.258000,-1.254859
6.259000,-1.178490
6.260000,-1.215402
6.261000,-1.505607
6.262000,-2.129294
6.263000,-2.852261
6.264000,-2.630789
6.265000,-1.979100
6.266000,-1.254859
6.267000,-0.744455
6.268000,-0.678267
6.269000,-0.703724
6.270000,-0.866646
6.271000,-1.042297
6.272000,-0.983747
6.273000,-1.011749
6.274000,-1.225584
6.275000,-1.287953
6.276000,-1.585795
6.277000,-1.701623
6.278000,-1.823814
6.279000,-1.929459
6.280000,-1.972735
6.281000,-2.056742
6.282000,-2.150932
6.283000,-2.191662
6.284000,-2.210755
6.285000,-2.360949
6.286000,-2.470412
6.287000,-2.372404
6.288000,-2.259122
6.289000,-2.428409
6.290000,-3.375394
6.291000,-3.218836
6.292000,-2.679156
6.293000,-2.031286
6.294000,-1.345230
6.295000,-1.053752
6.296000,-0.864101
