LabVIEW Measurement,
Writer_Version,2
Reader_Version,2
Separator,Comma
Decimal_Separator,.
Multi_Headings,No
X_Columns,Multi
Time_Pref,Absolute
Operator,Dymnz
Date,2017/09/12
Time,13:30:54.9335107833528875587
***End_of_Header***,
,
Channels,1,
Samples,1000,
Date,2017/09/12,
Time,13:30:54.9335107833528875587,
Y_Unit_Label,Volts,
X_Dimension,Time,
X0,0.0000000000000000E+0,
Delta_X,0.001000,
***End_of_Header***,,
X_Value,Voltage,Comment
0.000000,-2.642244
0.001000,-3.316844
0.002000,-3.711421
0.003000,-3.811975
0.004000,-3.248111
0.005000,-2.695703
0.006000,-2.513688
0.007000,-2.261668
0.008000,-2.699521
0.009000,-3.470856
0.010000,-4.181095
0.011000,-4.486575
0.012000,-2.905720
0.013000,-1.910367
0.014000,-0.878102
0.015000,0.091795
0.016000,0.791851
0.017000,0.552559
0.018000,-1.098301
0.019000,-2.802621
0.020000,-2.639698
0.021000,-2.266759
0.022000,-1.668529
0.023000,-1.056298
0.024000,-1.403780
0.025000,-1.144123
0.026000,-0.268416
0.027000,0.268718
0.028000,0.681115
0.029000,0.532194
0.030000,-1.313410
0.031000,-1.678712
0.032000,-2.046560
0.033000,-2.779710
0.034000,-3.699966
0.035000,-3.394487
0.036000,-3.246838
0.037000,-2.794984
0.038000,-1.525972
0.039000,-0.598079
0.040000,-0.272235
0.041000,0.374363
0.042000,0.628929
0.043000,-0.032943
0.044000,-0.226413
0.045000,-0.554803
0.046000,-0.054581
0.047000,0.412548
0.048000,0.458370
0.049000,0.285265
0.050000,-0.394426
0.051000,-0.964654
0.052000,-1.271406
0.053000,-1.555247
0.054000,-2.030013
0.055000,-2.479322
0.056000,-2.639698
0.057000,-2.635880
0.058000,-2.098746
0.059000,-1.822541
0.060000,-1.961280
0.061000,-2.320218
0.062000,-2.294761
0.063000,-2.311308
0.064000,-2.298580
0.065000,-2.195481
0.066000,-2.134385
0.067000,-2.059288
0.068000,-2.145840
0.069000,-2.521325
0.070000,-2.568420
0.071000,-2.808985
0.072000,-2.746616
0.073000,-2.714795
0.074000,-2.481867
0.075000,-2.256577
0.076000,-1.948552
0.077000,-1.812359
0.078000,-1.813632
0.079000,-1.585795
0.080000,-1.492879
0.081000,-1.733443
0.082000,-2.247667
0.083000,-2.637153
0.084000,-2.992272
0.085000,-2.957906
0.086000,-3.622323
0.087000,-4.613858
0.088000,-4.052540
0.089000,-2.816622
0.090000,-1.569248
0.091000,-0.464432
0.092000,-0.194592
0.093000,-0.128405
0.094000,-0.088947
0.095000,0.103250
0.096000,0.371817
0.097000,0.748575
0.098000,1.073147
0.099000,1.018415
0.100000,-0.146224
0.101000,-1.468695
0.102000,-3.095371
0.103000,-3.413579
0.104000,-2.861171
0.105000,-3.851432
0.106000,-4.422933
0.107000,-3.832340
0.108000,-2.926085
0.109000,-2.444955
0.110000,-3.510314
0.111000,-3.156467
0.112000,-2.646063
0.113000,-3.239201
0.114000,-2.661336
0.115000,-1.403780
0.116000,-0.559894
0.117000,0.746029
0.118000,1.825389
0.119000,2.576359
0.120000,2.809287
0.121000,2.415982
0.122000,2.128323
0.123000,1.894122
0.124000,1.505909
0.125000,1.400264
0.126000,0.844037
0.127000,0.343815
0.128000,0.031972
0.129000,-0.524255
0.130000,-0.977382
0.131000,-1.453421
0.132000,-1.886183
0.133000,-2.064379
0.134000,-2.044014
0.135000,-2.461502
0.136000,-3.759789
0.137000,-5.476836
0.138000,-6.916407
0.139000,-6.363999
0.140000,-5.059348
0.141000,-3.847614
0.142000,-2.611696
0.143000,-1.373233
0.144000,-0.533165
0.145000,-0.249324
0.146000,-0.258233
0.147000,-0.188228
0.148000,-0.792822
0.149000,-2.774618
0.150000,-4.573127
0.151000,-5.108989
0.152000,-4.083088
0.153000,-2.619333
0.154000,-1.290499
0.155000,0.016698
0.156000,0.566560
0.157000,0.828763
0.158000,0.490191
0.159000,-0.021487
0.160000,-0.035488
0.161000,0.051064
0.162000,0.054883
0.163000,-0.416064
0.164000,-1.069026
0.165000,-1.028296
0.166000,-1.100847
0.167000,-1.270133
0.168000,-1.322319
0.169000,-1.695259
0.170000,-2.044014
0.171000,-2.428409
0.172000,-3.220109
0.173000,-4.949885
0.174000,-7.266435
0.175000,-6.917680
0.176000,-5.191722
0.177000,-3.236656
0.178000,-1.982918
0.179000,-0.929015
0.180000,0.365453
0.181000,1.134243
0.182000,1.188974
0.183000,1.041326
0.184000,0.640385
0.185000,0.230533
0.186000,-0.470796
0.187000,-0.553530
0.188000,-0.995202
0.189000,-1.643072
0.190000,-2.550600
0.191000,-3.257021
0.192000,-3.444127
0.193000,-4.230736
0.194000,-3.698693
0.195000,-2.746616
0.196000,-1.909094
0.197000,-1.173398
0.198000,-0.549712
0.199000,-0.188228
0.200000,-0.402063
0.201000,-1.035933
0.202000,-1.131395
0.203000,-1.676166
0.204000,-2.714795
0.205000,-3.562500
0.206000,-3.500131
0.207000,-2.968088
0.208000,-3.180651
0.209000,-3.287569
0.210000,-2.682975
0.211000,-1.855635
0.212000,-1.136486
0.213000,-0.446612
0.214000,0.380727
0.215000,0.761303
0.216000,0.348906
0.217000,0.896223
0.218000,0.173256
0.219000,-2.890446
0.220000,-4.491666
0.221000,-4.582037
0.222000,-3.510314
0.223000,-2.131839
0.224000,-1.193763
0.225000,-0.286236
0.226000,0.389637
0.227000,0.547468
0.228000,0.583107
0.229000,0.539831
0.230000,0.327268
0.231000,0.389637
0.232000,-0.330785
0.233000,-0.745727
0.234000,-0.837371
0.235000,-1.219220
0.236000,-2.242575
0.237000,-2.461502
0.238000,-2.705886
0.239000,-2.016012
0.240000,-0.848827
0.241000,0.005242
0.242000,-0.048216
0.243000,-0.302782
0.244000,-0.613353
0.245000,-0.819551
0.246000,-1.205219
0.247000,-1.790721
0.248000,-2.061834
0.249000,-2.234938
0.250000,-1.975281
0.251000,-2.187844
0.252000,-2.520052
0.253000,-2.270578
0.254000,-2.629516
0.255000,-3.013910
0.256000,-3.179378
0.257000,-3.474675
0.258000,-3.738151
0.259000,-4.049994
0.260000,-3.825976
0.261000,-3.217563
0.262000,-3.268476
0.263000,-3.680873
0.264000,-3.033003
0.265000,-2.301126
0.266000,-1.532336
0.267000,-1.079209
0.268000,-0.822097
0.269000,-0.379152
0.270000,-0.267143
0.271000,-0.898467
0.272000,-3.021547
0.273000,-4.151820
0.274000,-4.137819
0.275000,-3.892163
0.276000,-2.952815
0.277000,-1.368141
0.278000,0.118524
0.279000,1.158426
0.280000,0.765122
0.281000,-1.174671
0.282000,-1.504334
0.283000,-1.604888
0.284000,-1.518335
0.285000,-0.530619
0.286000,-0.259506
0.287000,0.486372
0.288000,0.672205
0.289000,0.622565
0.290000,0.723118
0.291000,0.677297
0.292000,0.492736
0.293000,-0.491161
0.294000,-1.366868
0.295000,-3.698693
0.296000,-4.422933
0.297000,-2.913357
0.298000,-1.604888
0.299000,-0.940470
0.300000,-0.515345
0.301000,-0.300237
0.302000,-0.442794
0.303000,-0.582805
0.304000,-1.397416
0.305000,-3.260839
0.306000,-3.241747
0.307000,-1.993101
0.308000,-1.615070
0.309000,-2.736433
0.310000,-3.790337
0.311000,-3.906164
0.312000,-3.479766
0.313000,-3.356302
0.314000,-3.721604
0.315000,-3.666872
0.316000,-2.873899
0.317000,-1.697804
0.318000,-0.468250
0.319000,-0.073673
0.320000,-1.234494
0.321000,-1.954916
0.322000,-1.706714
0.323000,-1.207765
0.324000,-0.232777
0.325000,0.985321
0.326000,1.539002
0.327000,1.738837
0.328000,1.199157
0.329000,-1.527245
0.330000,-3.226473
0.331000,-3.365211
0.332000,-3.769971
0.333000,-2.324037
0.334000,-0.817006
0.335000,0.809671
0.336000,1.681559
0.337000,1.694288
0.338000,1.260253
0.339000,0.436732
0.340000,-0.197138
0.341000,-0.619717
0.342000,-1.154306
0.343000,-1.335048
0.344000,-1.441965
0.345000,-1.951097
0.346000,-2.348220
0.347000,-2.296034
0.348000,-2.150932
0.349000,-2.092381
0.350000,-2.115292
0.351000,-2.161114
0.352000,-1.816177
0.353000,-1.715624
0.354000,-1.896366
0.355000,-2.059288
0.356000,-2.187844
0.357000,-2.499687
0.358000,-2.713522
0.359000,-3.017729
0.360000,-3.641416
0.361000,-4.072905
0.362000,-4.131455
0.363000,-4.033447
0.364000,-4.172186
0.365000,-4.142911
0.366000,-3.862888
0.367000,-3.629960
0.368000,-5.564662
0.369000,-5.952875
0.370000,-4.774234
0.371000,-3.150103
0.372000,-1.868363
0.373000,-0.465705
0.374000,0.297993
0.375000,0.581834
0.376000,0.782941
0.377000,0.630202
0.378000,-0.785185
0.379000,-2.959179
0.380000,-5.033892
0.381000,-6.162892
0.382000,-4.975341
0.383000,-3.187015
0.384000,-1.037205
0.385000,0.664568
0.386000,1.252616
0.387000,0.711663
0.388000,1.344260
0.389000,1.564459
0.390000,0.826218
0.391000,1.619191
0.392000,3.037123
0.393000,3.472431
0.394000,3.037123
0.395000,2.379070
0.396000,1.703198
0.397000,1.355715
0.398000,1.020961
0.399000,0.663295
0.400000,0.201258
0.401000,-0.752091
0.402000,-1.524699
0.403000,-1.804722
0.404000,-2.256577
0.405000,-2.532781
0.406000,-2.560783
0.407000,-2.835714
0.408000,-3.197198
0.409000,-3.035548
0.410000,-2.945178
0.411000,-2.814076
0.412000,-2.807712
0.413000,-2.780982
0.414000,-3.025366
0.415000,-3.230291
0.416000,-3.341028
0.417000,-3.388122
0.418000,-3.417397
0.419000,-3.685965
0.420000,-3.758516
0.421000,-3.912528
0.422000,-3.897254
0.423000,-4.004172
0.424000,-4.337654
0.425000,-4.337654
0.426000,-3.965987
0.427000,-3.187015
0.428000,-2.494596
0.429000,-2.619333
0.430000,-1.933278
0.431000,-1.654528
0.432000,-0.769911
0.433000,-0.155134
0.434000,-1.649437
0.435000,-1.202673
0.436000,0.103250
0.437000,1.390081
0.438000,2.480897
0.439000,2.020132
0.440000,-0.484797
0.441000,-4.811146
0.442000,-8.003404
0.443000,-6.920226
0.444000,-4.864605
0.445000,-3.301570
0.446000,-1.072845
0.447000,0.382000
0.448000,1.279345
0.449000,2.023951
0.450000,2.410891
0.451000,2.419801
0.452000,1.416811
0.453000,0.094340
0.454000,-0.116949
0.455000,0.495282
0.456000,0.729483
0.457000,0.934408
0.458000,1.018415
0.459000,0.407457
0.460000,-0.248051
0.461000,-0.430065
0.462000,-0.852645
0.463000,-0.857736
0.464000,-0.584078
0.465000,-1.267588
0.466000,-2.581148
0.467000,-3.456855
0.468000,-4.257465
0.469000,-4.466209
0.470000,-3.776336
0.471000,-2.828077
0.472000,-1.887456
0.473000,-0.747000
0.474000,-1.041024
0.475000,-2.802621
0.476000,-3.431399
0.477000,-3.358847
0.478000,-2.619333
0.479000,-2.002011
0.480000,-1.590886
0.481000,-0.610807
0.482000,-0.258233
0.483000,-1.165761
0.484000,-1.102120
0.485000,-0.599352
0.486000,-0.549712
0.487000,-0.909922
0.488000,-1.608706
0.489000,-3.243020
0.490000,-6.762395
0.491000,-7.326258
0.492000,-6.170529
0.493000,-3.953259
0.494000,-1.791994
0.495000,-0.217503
0.496000,-0.501344
0.497000,-0.488616
0.498000,-0.447885
0.499000,0.173256
0.500000,1.204248
0.501000,1.115150
0.502000,1.260253
0.503000,1.583552
0.504000,1.350624
0.505000,0.916589
0.506000,0.189803
0.507000,-1.318501
0.508000,-2.744070
0.509000,-2.859898
0.510000,-2.450047
0.511000,-1.946006
0.512000,-2.010920
0.513000,-2.278215
0.514000,-1.940915
0.515000,-2.406770
0.516000,-2.564601
0.517000,-3.133556
0.518000,-3.573956
0.519000,-4.365656
0.520000,-5.256637
0.521000,-5.152265
0.522000,-5.082259
0.523000,-4.440753
0.524000,-3.890890
0.525000,-3.801792
0.526000,-3.918892
0.527000,-3.421216
0.528000,-2.699521
0.529000,-1.777992
0.530000,-0.295146
0.531000,1.085875
0.532000,2.339613
0.533000,2.553448
0.534000,2.398163
0.535000,2.009950
0.536000,1.522456
0.537000,0.945864
0.538000,0.339997
0.539000,-0.845008
0.540000,-1.833997
0.541000,-3.008819
0.542000,-2.578603
0.543000,-2.260395
0.544000,-2.847170
0.545000,-1.943460
0.546000,-1.839088
0.547000,-3.217563
0.548000,-4.626586
0.549000,-4.062722
0.550000,-2.344402
0.551000,-1.055025
0.552000,0.179620
0.553000,0.715481
0.554000,1.020961
0.555000,0.506737
0.556000,-0.080037
0.557000,-0.907377
0.558000,-1.813632
0.559000,-2.150932
0.560000,-2.802621
0.561000,-3.007546
0.562000,-3.806883
0.563000,-4.001626
0.564000,-3.501404
0.565000,-2.466593
0.566000,-1.225584
0.567000,0.035790
0.568000,0.774032
0.569000,0.976412
0.570000,1.112604
0.571000,1.563186
0.572000,1.559368
0.573000,1.358261
0.574000,1.645920
0.575000,1.815207
0.576000,1.379899
0.577000,0.566560
0.578000,-0.241687
0.579000,-1.424146
0.580000,-2.324037
0.581000,-2.656245
0.582000,-2.817895
0.583000,-3.030457
0.584000,-3.068642
0.585000,-3.052095
0.586000,-3.047004
0.587000,-2.996091
0.588000,-3.143739
0.589000,-3.078825
0.590000,-2.961724
0.591000,-2.941359
0.592000,-2.952815
0.593000,-3.890890
0.594000,-4.570581
0.595000,-4.206552
0.596000,-3.814520
0.597000,-3.510314
0.598000,-3.049550
0.599000,-2.863716
0.600000,-2.826804
0.601000,-2.444955
0.602000,-2.161114
0.603000,-2.101291
0.604000,-2.870081
0.605000,-3.160286
0.606000,-3.049550
0.607000,-3.594321
0.608000,-4.021992
0.609000,-4.363110
0.610000,-4.155639
0.611000,-3.156467
0.612000,-2.414407
0.613000,-1.865818
0.614000,-0.529346
0.615000,0.199985
0.616000,-2.708431
0.617000,-4.377111
0.618000,-5.325370
0.619000,-3.626142
0.620000,-0.964654
0.621000,1.920851
0.622000,3.196227
0.623000,4.033749
0.624000,4.578521
0.625000,4.311226
0.626000,3.632808
0.627000,3.035851
0.628000,2.275971
0.629000,1.584824
0.630000,1.247524
0.631000,0.986594
0.632000,-0.594261
0.633000,-1.601069
0.634000,-2.453865
0.635000,-2.737706
0.636000,-2.537872
0.637000,-2.479322
0.638000,-2.150932
0.639000,-1.657074
0.640000,-1.361777
0.641000,-1.145396
0.642000,-1.030841
0.643000,-1.870909
0.644000,-2.437318
0.645000,-2.254031
0.646000,-1.641800
0.647000,-0.945562
0.648000,-1.046115
0.649000,-1.417782
0.650000,-1.483969
0.651000,-1.693986
0.652000,-1.393598
0.653000,-1.933278
0.654000,-2.205663
0.655000,-2.680429
0.656000,-3.398305
0.657000,-4.406386
0.658000,-5.247727
0.659000,-4.411478
0.660000,-3.481039
0.661000,-2.526416
0.662000,-1.637981
0.663000,-1.057571
0.664000,-0.586624
0.665000,-0.684631
0.666000,-1.332502
0.667000,-2.176388
0.668000,-4.150548
0.669000,-4.891335
0.670000,-6.502737
0.671000,-5.957966
0.672000,-3.650325
0.673000,-1.595978
0.674000,0.255990
0.675000,1.018415
0.676000,0.972593
0.677000,0.765122
0.678000,0.749848
0.679000,1.040053
0.680000,1.278072
0.681000,1.118969
0.682000,1.197884
0.683000,0.740938
0.684000,-0.222594
0.685000,-0.881920
0.686000,-1.373233
0.687000,-3.156467
0.688000,-3.920165
0.689000,-4.653315
0.690000,-4.020719
0.691000,-3.007546
0.692000,-1.794539
0.693000,-2.026194
0.694000,-2.982090
0.695000,-3.552317
0.696000,-3.982534
0.697000,-3.474675
0.698000,-2.810258
0.699000,-2.110201
0.700000,-0.991384
0.701000,-1.043570
0.702000,-1.310864
0.703000,-0.865373
0.704000,-0.249324
0.705000,0.236897
0.706000,-0.155134
0.707000,-0.554803
0.708000,-0.370242
0.709000,-0.491161
0.710000,-0.207320
0.711000,0.015425
0.712000,-0.391881
0.713000,-0.979928
0.714000,-1.377051
0.715000,-1.467422
0.716000,-1.464876
0.717000,-1.125031
0.718000,-1.015567
0.719000,-0.645174
0.720000,-0.332058
0.721000,-0.353696
0.722000,-1.200128
0.723000,-3.166650
0.724000,-5.063167
0.725000,-4.756415
0.726000,-3.955805
0.727000,-3.232837
0.728000,-1.975281
0.729000,-2.749162
0.730000,-3.041913
0.731000,-2.023649
0.732000,-0.409700
0.733000,0.441823
0.734000,0.818581
0.735000,1.238615
0.736000,1.516092
0.737000,0.907679
0.738000,0.474917
0.739000,-0.114404
0.740000,-0.815733
0.741000,-2.125475
0.742000,-4.499303
0.743000,-4.839149
0.744000,-4.192551
0.745000,-3.080098
0.746000,-2.451320
0.747000,-1.780538
0.748000,-1.149214
0.749000,-0.741909
0.750000,-0.920105
0.751000,-3.638870
0.752000,-4.352928
0.753000,-3.804338
0.754000,-2.400406
0.755000,-0.930288
0.756000,0.222896
0.757000,0.851674
0.758000,0.724391
0.759000,0.287811
0.760000,-0.080037
0.761000,-2.013466
0.762000,-5.173903
0.763000,-6.327087
0.764000,-4.920610
0.765000,-2.709704
0.766000,-0.977382
0.767000,0.118524
0.768000,0.734574
0.769000,0.930590
0.770000,0.415094
0.771000,-0.360060
0.772000,-0.949380
0.773000,-1.267588
0.774000,-0.862828
0.775000,-1.332502
0.776000,-1.629071
0.777000,-1.865818
0.778000,-2.396588
0.779000,-3.523042
0.780000,-4.640587
0.781000,-5.252818
0.782000,-4.496757
0.783000,-3.352483
0.784000,-2.209482
0.785000,-1.976554
0.786000,-1.604888
0.787000,-0.957017
0.788000,-0.568804
0.789000,0.019243
0.790000,0.926771
0.791000,1.084602
0.792000,0.995504
0.793000,0.206349
0.794000,-0.164044
0.795000,-1.239585
0.796000,-2.250212
0.797000,-2.990999
0.798000,-4.214189
0.799000,-3.470856
0.800000,-1.685076
0.801000,-0.507708
0.802000,0.252171
0.803000,0.154163
0.804000,-1.357959
0.805000,-1.937096
0.806000,-1.907821
0.807000,-1.515789
0.808000,-0.337149
0.809000,0.248353
0.810000,-2.152204
0.811000,-2.597695
0.812000,-2.191662
0.813000,-0.939197
0.814000,0.178347
0.815000,0.674751
0.816000,0.835128
0.817000,0.508010
0.818000,0.065065
0.819000,-0.664266
0.820000,-2.189117
0.821000,-3.319390
0.822000,-5.047893
0.823000,-5.350826
0.824000,-5.047893
0.825000,-4.518395
0.826000,-4.290559
0.827000,-3.444127
0.828000,-2.465321
0.829000,-1.839088
0.830000,-1.576885
0.831000,-1.343957
0.832000,-0.707542
0.833000,-0.026578
0.834000,0.544922
0.835000,0.607291
0.836000,0.313267
0.837000,0.029426
0.838000,-0.147497
0.839000,-0.276053
0.840000,-0.752091
0.841000,-0.988838
0.842000,-1.013022
0.843000,-0.865373
0.844000,-0.548439
0.845000,-0.610807
0.846000,-0.781367
0.847000,-1.607433
0.848000,-2.488232
0.849000,-3.122101
0.850000,-3.665599
0.851000,-5.425923
0.852000,-5.755586
0.853000,-4.856968
0.854000,-5.549388
0.855000,-5.559570
0.856000,-5.322824
0.857000,-4.919337
0.858000,-4.569309
0.859000,-3.986352
0.860000,-3.167923
0.861000,-1.844180
0.862000,-0.748273
0.863000,0.488918
0.864000,1.726109
0.865000,2.461804
0.866000,2.711279
0.867000,2.051953
0.868000,0.205077
0.869000,-0.654084
0.870000,-2.409316
0.871000,-2.399133
0.872000,-2.359676
0.873000,-2.173843
0.874000,-0.917559
0.875000,0.052337
0.876000,0.748575
0.877000,1.113877
0.878000,1.107513
0.879000,0.556378
0.880000,0.449460
0.881000,0.802034
0.882000,1.228432
0.883000,1.136788
0.884000,-0.758456
0.885000,-3.486130
0.886000,-5.600301
0.887000,-5.436106
0.888000,-4.453481
0.889000,-3.128465
0.890000,-3.267204
0.891000,-3.510314
0.892000,-4.625313
0.893000,-3.977443
0.894000,-2.439864
0.895000,-0.811914
0.896000,0.578016
0.897000,1.472815
0.898000,2.092684
0.899000,2.323066
0.900000,1.883939
0.901000,1.092239
0.902000,-0.204775
0.903000,-1.097028
0.904000,-1.016840
0.905000,-0.614626
0.906000,-0.105494
0.907000,-0.160226
0.908000,-0.573895
0.909000,-1.072845
0.910000,-1.716897
0.911000,-2.049105
0.912000,-2.170024
0.913000,-2.390224
0.914000,-2.695703
0.915000,-2.829350
0.916000,-2.754253
0.917000,-2.822986
0.918000,-2.693157
0.919000,-2.751707
0.920000,-2.990999
0.921000,-3.066096
0.922000,-3.151376
0.923000,-3.879435
0.924000,-4.523487
0.925000,-5.512476
0.926000,-5.246454
0.927000,-5.040256
0.928000,-4.127637
0.929000,-3.017729
0.930000,-2.190389
0.931000,-1.384688
0.932000,-0.749546
0.933000,-0.286236
0.934000,-0.110585
0.935000,-0.102948
0.936000,-0.290054
0.937000,-0.554803
0.938000,-2.751707
0.939000,-5.439924
0.940000,-6.273628
0.941000,-7.308439
0.942000,-7.883758
0.943000,-6.041973
0.944000,-3.361393
0.945000,-1.047388
0.946000,0.781669
0.947000,1.747747
0.948000,2.407073
0.949000,2.534356
0.950000,1.484271
0.951000,1.470270
0.952000,2.001040
0.953000,1.857210
0.954000,1.769385
0.955000,2.062136
0.956000,2.256879
0.957000,1.764293
0.958000,1.070601
0.959000,0.434186
0.960000,-0.603170
0.961000,-1.856908
0.962000,-1.751263
0.963000,-0.972291
0.964000,-0.693541
0.965000,-1.435601
0.966000,-3.535771
0.967000,-4.416569
0.968000,-5.310096
0.969000,-4.897699
0.970000,-3.781427
0.971000,-3.069915
0.972000,-2.031286
0.973000,-0.991384
0.974000,-0.300237
0.975000,-0.212412
0.976000,-0.382971
0.977000,-0.366424
0.978000,-1.528518
0.979000,-4.284195
0.980000,-5.705946
0.981000,-3.753425
0.982000,-1.732171
0.983000,-0.058399
0.984000,0.883495
0.985000,1.153335
0.986000,0.898769
0.987000,0.738392
0.988000,0.067611
0.989000,-0.488616
0.990000,-0.972291
0.991000,-1.219220
0.992000,-1.528518
0.993000,-1.052479
0.994000,-0.652811
0.995000,-0.925196
0.996000,-1.144123
0.997000,-1.405053
0.998000,-1.657074
0.999000,-2.002011
1.000000,-2.257849
1.001000,-2.410589
1.002000,-2.283306
1.003000,-2.579875
1.004000,-2.849715
1.005000,-3.138648
1.006000,-3.276113
1.007000,-3.220109
1.008000,-2.884082
1.009000,-2.629516
1.010000,-2.456411
1.011000,-2.135658
1.012000,-1.999465
1.013000,-1.830178
1.014000,-1.375778
1.015000,-0.873010
1.016000,-0.824643
1.017000,-1.114848
1.018000,-1.383415
1.019000,-1.545065
1.020000,-1.673620
1.021000,-1.967644
1.022000,-1.958734
1.023000,-2.027467
1.024000,-2.900628
1.025000,-3.852705
1.026000,-4.930792
1.027000,-5.358463
1.028000,-6.267264
1.029000,-6.005061
1.030000,-5.152265
1.031000,-4.146729
1.032000,-3.159013
1.033000,-2.098746
1.034000,-1.637981
1.035000,-2.430954
1.036000,-3.160286
1.037000,-3.087735
1.038000,-2.639698
1.039000,-1.305773
1.040000,0.323450
1.041000,1.801205
1.042000,2.577632
1.043000,2.222512
1.044000,0.243262
1.045000,-1.077936
1.046000,-1.047388
1.047000,-0.097857
1.048000,1.392627
1.049000,2.436348
1.050000,3.254777
1.051000,2.906022
1.052000,2.390526
1.053000,1.440995
1.054000,-0.274780
1.055000,-2.691884
1.056000,-2.822986
1.057000,-1.468695
1.058000,0.271264
1.059000,0.870767
1.060000,1.107513
1.061000,1.155881
1.062000,0.434186
1.063000,-0.399518
1.064000,-1.494151
1.065000,-2.320218
1.066000,-2.730069
1.067000,-2.276942
1.068000,-1.393598
1.069000,-1.198855
1.070000,-1.408872
1.071000,-1.587068
1.072000,-1.486514
1.073000,-3.342301
1.074000,-4.246010
1.075000,-4.230736
1.076000,-4.386021
1.077000,-3.698693
1.078000,-4.262557
1.079000,-4.856968
1.080000,-4.424206
1.081000,-3.544680
1.082000,-2.870081
1.083000,-2.410589
1.084000,-1.989282
1.085000,-2.153477
1.086000,-2.098746
1.087000,-1.818723
1.088000,-1.769083
1.089000,-2.158569
1.090000,-2.724978
1.091000,-2.868808
1.092000,-2.456411
1.093000,-1.912912
1.094000,-2.400406
1.095000,-3.189561
1.096000,-2.275669
1.097000,-0.959563
1.098000,0.171983
1.099000,1.405355
1.100000,2.041770
1.101000,2.169053
1.102000,1.872484
1.103000,1.289528
1.104000,0.898769
1.105000,0.500373
1.106000,-0.088947
1.107000,-0.778821
1.108000,-1.136486
1.109000,-1.486514
1.110000,-1.519608
1.111000,-2.766981
1.112000,-5.457744
1.113000,-6.521830
1.114000,-6.700026
1.115000,-5.778497
1.116000,-4.748778
1.117000,-4.335108
1.118000,-3.768699
1.119000,-3.036821
1.120000,-2.537872
1.121000,-1.896366
1.122000,-1.272679
1.123000,-0.626081
1.124000,-0.464432
1.125000,0.332360
1.126000,1.414265
1.127000,1.591189
1.128000,1.502090
1.129000,0.157982
1.130000,-0.150043
1.131000,-0.883193
1.132000,-0.859009
1.133000,-1.025750
1.134000,-0.869192
1.135000,-0.640082
1.136000,-0.459341
1.137000,-0.657902
1.138000,-1.184854
1.139000,-1.258678
1.140000,-1.215402
1.141000,-3.101736
1.142000,-4.565490
1.143000,-4.524760
1.144000,-3.930348
1.145000,-3.075006
1.146000,-2.500960
1.147000,-1.786902
1.148000,-1.154306
1.149000,-1.256132
1.150000,-1.010476
1.151000,-0.643901
1.152000,-0.554803
1.153000,-0.598079
1.154000,-1.214129
1.155000,-0.722816
1.156000,-0.202229
1.157000,0.031972
1.158000,0.350179
1.159000,-0.744455
1.160000,-2.187844
1.161000,-3.561227
1.162000,-3.645234
1.163000,-2.726251
1.164000,-1.458512
1.165000,-0.668085
1.166000,-0.491161
1.167000,-0.643901
1.168000,-0.669358
1.169000,-0.724089
1.170000,-0.633718
1.171000,-0.668085
1.172000,-0.689723
1.173000,-0.885739
1.174000,-1.066480
1.175000,-1.359231
1.176000,-1.545065
1.177000,-1.790721
1.178000,-4.016900
1.179000,-4.728412
1.180000,-3.944349
1.181000,-2.658791
1.182000,-1.640527
1.183000,-1.076663
1.184000,-1.103393
1.185000,-1.272679
1.186000,-1.756354
1.187000,-2.878990
1.188000,-3.206108
1.189000,-3.884526
1.190000,-5.027527
1.191000,-4.410205
1.192000,-3.342301
1.193000,-2.136931
1.194000,-1.244677
1.195000,-0.692268
1.196000,-0.172954
1.197000,0.147799
1.198000,0.100705
1.199000,-1.574340
1.200000,-2.313854
1.201000,-2.488232
1.202000,-2.100018
1.203000,-1.660892
1.204000,-1.812359
1.205000,-2.147113
1.206000,-1.730898
1.207000,-1.053752
1.208000,-0.372788
1.209000,0.005242
1.210000,0.105796
1.211000,0.231806
1.212000,-0.018941
1.213000,-0.258233
1.214000,-0.058399
1.215000,-0.169135
1.216000,-0.846281
1.217000,-0.572622
1.218000,-0.873010
1.219000,-2.406770
1.220000,-3.496313
1.221000,-5.228635
1.222000,-6.030517
1.223000,-5.506111
1.224000,-3.997808
1.225000,-2.293489
1.226000,-1.038478
1.227000,-0.338422
1.228000,0.238170
1.229000,0.561469
1.230000,0.518193
1.231000,0.494009
1.232000,0.669660
1.233000,0.756212
1.234000,0.561469
1.235000,-1.721988
1.236000,-2.996091
1.237000,-3.642688
1.238000,-6.194713
1.239000,-5.666488
1.240000,-3.741969
1.241000,-1.650709
1.242000,-0.054581
1.243000,0.730755
1.244000,1.138061
1.245000,1.056600
1.246000,0.553832
1.247000,0.082885
1.248000,0.217805
1.249000,-0.160226
1.250000,-0.046944
1.251000,-0.162771
1.252000,-0.122041
1.253000,-0.295146
1.254000,-1.238313
1.255000,-1.751263
1.256000,-2.257849
1.257000,-3.091553
1.258000,-4.755142
1.259000,-5.694490
1.260000,-5.793771
1.261000,-6.034336
1.262000,-4.771689
1.263000,-3.153922
1.264000,-1.663438
1.265000,-1.041024
1.266000,-0.426247
1.267000,0.099432
1.268000,0.297993
1.269000,0.160528
1.270000,-0.001122
1.271000,-0.314238
1.272000,-0.416064
1.273000,-0.228958
1.274000,-0.696087
1.275000,-1.653255
1.276000,-2.791165
1.277000,-3.837431
1.278000,-3.917620
1.279000,-4.262557
1.280000,-5.157356
1.281000,-4.588401
1.282000,-3.122101
1.283000,-1.518335
1.284000,-0.164044
1.285000,0.770213
1.286000,0.999323
1.287000,1.148244
1.288000,1.689196
1.289000,1.845755
1.290000,1.412992
1.291000,0.374363
1.292000,-0.416064
1.293000,-1.018113
1.294000,-1.769083
1.295000,-1.975281
1.296000,-2.348220
1.297000,-2.952815
1.298000,-3.495040
1.299000,-3.470856
1.300000,-4.814965
1.301000,-4.678772
1.302000,-3.418670
1.303000,-1.876000
1.304000,-0.881920
1.305000,-0.806823
1.306000,-3.403396
1.307000,-4.181095
1.308000,-3.467038
1.309000,-2.975725
1.310000,-2.693157
1.311000,-3.197198
1.312000,-2.326582
1.313000,-1.094483
1.314000,0.283992
1.315000,1.008232
1.316000,1.204248
1.317000,1.194066
1.318000,1.020961
1.319000,0.818581
1.320000,0.374363
1.321000,-0.366424
1.322000,-0.360060
1.323000,0.202531
1.324000,0.208895
1.325000,-0.347332
1.326000,-0.949380
1.327000,-1.538700
1.328000,-2.121657
1.329000,-2.904447
1.330000,-3.057187
1.331000,-2.932449
1.332000,-2.978271
1.333000,-2.825532
1.334000,-2.948996
1.335000,-3.165377
1.336000,-3.389395
1.337000,-3.512860
1.338000,-3.673236
1.339000,-4.902790
1.340000,-4.494212
1.341000,-3.738151
1.342000,-2.601513
1.343000,-2.170024
1.344000,-1.695259
1.345000,-0.633718
1.346000,0.410002
1.347000,0.634020
1.348000,1.008232
1.349000,0.422731
1.350000,-0.161498
1.351000,0.295448
1.352000,0.863130
1.353000,1.536457
1.354000,1.927216
1.355000,1.393900
1.356000,0.620019
1.357000,-0.203502
1.358000,-0.690996
1.359000,-1.112302
1.360000,-1.690167
1.361000,-2.046560
1.362000,-2.208209
1.363000,-2.471685
1.364000,-2.700794
1.365000,-2.698249
1.366000,-2.765709
1.367000,-3.024093
1.368000,-3.075006
1.369000,-3.199744
1.370000,-3.257021
1.371000,-3.153922
1.372000,-3.207381
1.373000,-3.043185
1.374000,-3.128465
1.375000,-2.849715
1.376000,-2.143295
1.377000,-1.531063
1.378000,-1.201400
1.379000,-1.272679
1.380000,-1.179762
1.381000,-1.650709
1.382000,-2.129294
1.383000,-2.112747
1.384000,-1.823814
1.385000,-1.583249
1.386000,-1.590886
1.387000,-1.603615
1.388000,-2.157296
1.389000,-4.168367
1.390000,-6.689843
1.391000,-9.436610
1.392000,-9.492615
1.393000,-7.032235
1.394000,-5.452653
1.395000,-6.703844
1.396000,-7.960128
1.397000,-6.010152
1.398000,-3.939258
1.399000,-1.102120
1.400000,1.597553
1.401000,4.531426
1.402000,5.872989
1.403000,5.281123
1.404000,5.666790
1.405000,5.771162
1.406000,5.796619
1.407000,5.659153
1.408000,5.778799
1.409000,5.447863
1.410000,4.180125
1.411000,2.722734
1.412000,1.667558
1.413000,1.177519
1.414000,0.678569
1.415000,0.317086
1.416000,-0.207320
1.417000,-1.086846
1.418000,-1.769083
1.419000,-2.344402
1.420000,-2.730069
1.421000,-2.990999
1.422000,-3.314298
1.423000,-3.503950
1.424000,-3.627414
1.425000,-3.803065
1.426000,-3.679600
1.427000,-3.531952
1.428000,-3.488676
1.429000,-3.729241
1.430000,-3.775063
1.431000,-3.866706
1.432000,-4.156912
1.433000,-4.260011
1.434000,-4.267648
1.435000,-3.864161
1.436000,-3.557409
1.437000,-3.263385
1.438000,-2.950269
1.439000,-2.644790
1.440000,-2.292216
1.441000,-2.201845
1.442000,-1.850544
1.443000,-1.296863
1.444000,-1.137759
1.445000,-1.007930
1.446000,-1.100847
1.447000,-1.107211
1.448000,-1.135213
1.449000,-1.440693
1.450000,-1.686349
1.451000,-1.967644
1.452000,-2.568420
1.453000,-3.615959
1.454000,-5.269365
1.455000,-6.892223
1.456000,-7.666104
1.457000,-7.689015
1.458000,-5.935055
1.459000,-3.759789
1.460000,-1.989282
1.461000,-1.970190
1.462000,-2.097473
1.463000,-1.379597
1.464000,0.173256
1.465000,2.001040
1.466000,3.067671
1.467000,3.102038
1.468000,2.967118
1.469000,2.081228
1.470000,1.631919
1.471000,0.852947
1.472000,0.239443
1.473000,-0.670630
1.474000,-1.471240
1.475000,-1.135213
1.476000,-1.649437
1.477000,-1.622707
1.478000,-0.792822
1.479000,-0.208593
1.480000,0.410002
1.481000,0.910224
1.482000,1.061691
1.483000,0.919134
1.484000,0.500373
1.485000,-0.142406
1.486000,-0.945562
1.487000,-2.812803
1.488000,-4.085633
1.489000,-4.237100
1.490000,-3.444127
1.491000,-2.670246
1.492000,-1.800903
1.493000,-1.020659
1.494000,-0.547166
1.495000,-0.404609
1.496000,-0.538256
1.497000,-0.726635
1.498000,-1.118667
1.499000,-1.480150
1.500000,-1.047388
1.501000,-1.085573
1.502000,-1.704168
1.503000,-1.905275
1.504000,-1.785629
1.505000,-1.847998
1.506000,-2.229847
1.507000,-3.011365
1.508000,-3.682146
1.509000,-3.299024
1.510000,-2.820440
1.511000,-2.241303
1.512000,-1.777992
1.513000,-1.382142
1.514000,-1.650709
1.515000,-2.495869
1.516000,-2.695703
1.517000,-2.385132
1.518000,-1.662165
1.519000,-0.967200
1.520000,-0.641355
1.521000,-0.869192
1.522000,-1.156851
1.523000,-1.088119
1.524000,-1.355413
1.525000,-1.702895
1.526000,-1.876000
1.527000,-1.814905
1.528000,-1.681257
1.529000,-1.345230
1.530000,-1.209037
1.531000,-1.618889
1.532000,-3.757243
1.533000,-4.736049
1.534000,-4.533669
1.535000,-3.851432
1.536000,-3.399578
1.537000,-4.384748
1.538000,-5.940147
1.539000,-6.721664
1.540000,-5.563389
1.541000,-4.202734
1.542000,-2.418226
1.543000,-0.769911
1.544000,0.645476
1.545000,1.176246
1.546000,1.950127
1.547000,2.394344
1.548000,1.620464
1.549000,0.297993
1.550000,-0.281144
1.551000,-0.059672
1.552000,0.995504
1.553000,1.665013
1.554000,0.651840
1.555000,-1.126303
1.556000,-2.527689
1.557000,-3.979988
1.558000,-5.534114
1.559000,-5.126808
1.560000,-4.391112
1.561000,-3.193379
1.562000,-1.515789
1.563000,0.000151
1.564000,0.994231
1.565000,1.768112
1.566000,2.328157
1.567000,2.482170
1.568000,2.331976
1.569000,1.839390
1.570000,1.883939
1.571000,1.423175
1.572000,1.061691
1.573000,0.701480
1.574000,-0.519164
1.575000,-1.173398
1.576000,-1.783084
1.577000,-2.764436
1.578000,-3.717785
1.579000,-3.810702
1.580000,-3.086462
1.581000,-2.446228
1.582000,-1.972735
1.583000,-1.693986
1.584000,-1.654528
1.585000,-1.671075
1.586000,-1.826360
1.587000,-1.995646
1.588000,-2.601513
1.589000,-3.020275
1.590000,-2.838260
1.591000,-2.549327
1.592000,-2.605332
1.593000,-2.401679
1.594000,-2.350766
1.595000,-2.363494
1.596000,-2.353312
1.597000,-2.523871
1.598000,-3.671963
1.599000,-4.730958
1.600000,-5.593937
1.601000,-5.395375
1.602000,-5.873959
1.603000,-5.038983
1.604000,-3.534498
1.605000,-1.923095
1.606000,-0.725362
1.607000,-0.580259
1.608000,-1.217947
1.609000,-2.470412
1.610000,-3.931621
1.611000,-3.650325
1.612000,-2.423317
1.613000,-1.360504
1.614000,-0.908650
1.615000,-0.725362
1.616000,-0.203502
1.617000,0.188530
1.618000,0.796943
1.619000,1.457541
1.620000,1.950127
1.621000,1.835572
1.622000,1.633192
1.623000,1.682832
1.624000,1.522456
1.625000,0.968775
1.626000,0.006515
1.627000,-1.014294
1.628000,-1.772901
1.629000,-3.366484
1.630000,-3.698693
1.631000,-2.769527
1.632000,-1.718169
1.633000,-1.189945
1.634000,-1.025750
1.635000,-1.412690
1.636000,-2.150932
1.637000,-2.651154
1.638000,-3.128465
1.639000,-2.922267
1.640000,-2.190389
1.641000,-2.040195
1.642000,-2.042741
1.643000,-2.036377
1.644000,-1.877273
1.645000,-1.556520
1.646000,-1.226857
1.647000,-0.876829
1.648000,-1.028296
1.649000,-1.235767
1.650000,-3.052095
1.651000,-3.155194
1.652000,-2.532781
1.653000,-1.854362
1.654000,-0.745727
1.655000,-1.063935
1.656000,-1.340139
1.657000,-1.545065
1.658000,-3.100463
1.659000,-3.405942
1.660000,-3.285023
1.661000,-2.658791
1.662000,-1.235767
1.663000,-0.090220
1.664000,-0.066036
1.665000,-0.146224
1.666000,-0.160226
1.667000,-0.288781
1.668000,-0.477160
1.669000,-0.542075
1.670000,-0.562440
1.671000,-0.449158
1.672000,-1.313410
1.673000,-0.297691
1.674000,0.230533
1.675000,-1.425419
1.676000,-2.009648
1.677000,-1.901457
1.678000,-1.571794
1.679000,-1.293044
1.680000,-1.025750
1.681000,-1.210310
1.682000,-1.412690
1.683000,-1.879819
1.684000,-1.940915
1.685000,-2.248940
1.686000,-2.341856
1.687000,-2.432227
1.688000,-2.134385
1.689000,-2.274396
1.690000,-2.474230
1.691000,-2.983362
1.692000,-3.142466
1.693000,-2.982090
1.694000,-2.621879
1.695000,-2.134385
1.696000,-1.870909
1.697000,-1.611252
1.698000,-1.440693
1.699000,-1.382142
1.700000,-1.892547
1.701000,-1.564157
1.702000,-1.338866
1.703000,-1.340139
1.704000,-1.374505
1.705000,-1.532336
1.706000,-1.462331
1.707000,-1.739808
1.708000,-4.426752
1.709000,-6.300357
1.710000,-6.911316
1.711000,-7.006778
1.712000,-7.888849
1.713000,-6.641476
1.714000,-4.624040
1.715000,-2.587512
1.716000,-1.321046
1.717000,0.569106
1.718000,1.927216
1.719000,3.056216
1.720000,3.779183
1.721000,4.243766
1.722000,3.811004
1.723000,2.921296
1.724000,2.534356
1.725000,2.199601
1.726000,1.658649
1.727000,0.528375
1.728000,-0.643901
1.729000,-1.993101
1.730000,-2.597695
1.731000,-2.285852
1.732000,-1.534882
1.733000,-0.906104
1.734000,-0.692268
1.735000,-0.978655
1.736000,-1.960007
1.737000,-1.785629
1.738000,-1.385961
1.739000,-1.277770
1.740000,-1.280316
1.741000,-1.761446
1.742000,-2.649881
1.743000,-2.922267
1.744000,-2.536599
1.745000,-2.726251
1.746000,-3.537043
1.747000,-3.283750
1.748000,-2.486959
1.749000,-2.120384
1.750000,-1.042297
1.751000,-1.193763
1.752000,-1.635435
1.753000,-1.473786
1.754000,-1.277770
1.755000,-1.149214
1.756000,-1.010476
1.757000,-0.925196
1.758000,-0.925196
1.759000,-1.433056
1.760000,-1.210310
1.761000,-0.917559
1.762000,-1.069026
1.763000,-1.415236
1.764000,-1.411417
1.765000,-1.975281
1.766000,-3.377940
1.767000,-4.220553
1.768000,-3.898527
1.769000,-3.739423
1.770000,-4.340199
1.771000,-4.056358
1.772000,-4.284195
1.773000,-4.186187
1.774000,-4.170913
1.775000,-3.296479
1.776000,-2.913357
1.777000,-2.699521
1.778000,-2.115292
1.779000,-1.173398
1.780000,0.356543
1.781000,1.637010
1.782000,2.227604
1.783000,1.945035
1.784000,0.999323
1.785000,1.157153
1.786000,1.018415
1.787000,0.922953
1.788000,0.655658
1.789000,-0.160226
1.790000,-0.172954
1.791000,-0.246778
1.792000,-1.657074
1.793000,-2.297307
1.794000,-2.835714
1.795000,-2.630789
1.796000,-2.198026
1.797000,-1.747445
1.798000,-1.434328
1.799000,-1.433056
1.800000,-1.562884
1.801000,-1.756354
1.802000,-2.047832
1.803000,-2.593876
1.804000,-3.003728
1.805000,-3.105554
1.806000,-3.327027
1.807000,-3.185742
1.808000,-2.520052
1.809000,-2.320218
1.810000,-2.824259
1.811000,-2.595149
1.812000,-2.691884
1.813000,-2.714795
1.814000,-3.530679
1.815000,-3.257021
1.816000,-1.677439
1.817000,-0.169135
1.818000,0.998050
1.819000,1.527547
1.820000,1.040053
1.821000,-1.137759
1.822000,-1.775447
1.823000,-1.448329
1.824000,-0.554803
1.825000,-0.194592
1.826000,-0.144952
1.827000,-0.228958
1.828000,-0.468250
1.829000,-0.646447
1.830000,-0.763547
1.831000,-0.991384
1.832000,-2.130566
1.833000,-2.724978
1.834000,-2.504778
1.835000,-2.257849
1.836000,-2.054197
1.837000,-1.841634
1.838000,-1.718169
1.839000,-1.718169
1.840000,-2.050378
1.841000,-2.568420
1.842000,-3.441581
1.843000,-4.323652
1.844000,-3.999081
1.845000,-3.454310
1.846000,-3.660508
1.847000,-3.222654
1.848000,-2.419499
1.849000,-1.687622
1.850000,-1.696531
1.851000,-1.103393
1.852000,-0.622263
1.853000,-0.248051
1.854000,-0.433884
1.855000,-0.413519
1.856000,-0.792822
1.857000,-2.652427
1.858000,-3.015183
1.859000,-2.177661
1.860000,-1.108484
1.861000,-1.258678
1.862000,-1.629071
1.863000,-1.707987
1.864000,-2.528962
1.865000,-4.762779
1.866000,-6.114524
1.867000,-5.716128
1.868000,-4.375838
1.869000,-2.854807
1.870000,-0.932833
1.871000,0.516920
1.872000,1.717199
1.873000,2.259424
1.874000,1.826662
1.875000,1.258980
1.876000,0.702753
1.877000,0.614928
1.878000,0.733301
1.879000,1.219522
1.880000,1.316257
1.881000,-1.139032
1.882000,-2.956633
1.883000,-2.768254
1.884000,-2.607878
1.885000,-1.711805
1.886000,-0.521709
1.887000,0.443096
1.888000,0.967502
1.889000,1.157153
1.890000,1.097330
1.891000,0.725664
1.892000,0.145254
1.893000,-0.730453
1.894000,-0.941743
1.895000,-1.193763
1.896000,-1.457239
1.897000,-1.566703
1.898000,-1.730898
1.899000,-1.974008
1.900000,-3.517951
1.901000,-3.825976
1.902000,-3.395759
1.903000,-3.426307
1.904000,-3.235383
1.905000,-3.003728
1.906000,-2.870081
1.907000,-2.789892
1.908000,-3.754697
1.909000,-3.713967
1.910000,-2.788619
1.911000,-2.213300
1.912000,-1.812359
1.913000,-1.528518
1.914000,-1.845452
1.915000,-2.595149
1.916000,-3.188288
1.917000,-3.311753
1.918000,-3.179378
1.919000,-2.815349
1.920000,-2.845897
1.921000,-3.058459
1.922000,-3.679600
1.923000,-3.615959
1.924000,-2.913357
1.925000,-2.362221
1.926000,-1.472513
1.927000,-2.493323
1.928000,-5.274456
1.929000,-6.152709
1.930000,-5.208269
1.931000,-3.685965
1.932000,-2.175115
1.933000,-0.869192
1.934000,0.261081
1.935000,1.099876
1.936000,1.373535
1.937000,1.742655
1.938000,1.941217
1.939000,1.704470
1.940000,1.523729
1.941000,2.082501
1.942000,1.950127
1.943000,1.360806
1.944000,0.654386
1.945000,-1.435601
1.946000,-3.660508
1.947000,-3.538316
1.948000,-3.075006
1.949000,-2.106383
1.950000,-1.196309
1.951000,-0.310419
1.952000,0.361635
1.953000,0.538558
1.954000,0.847856
1.955000,0.930590
1.956000,0.662023
1.957000,0.651840
1.958000,1.112604
1.959000,1.300983
1.960000,0.135071
1.961000,-1.193763
1.962000,-0.941743
1.963000,-0.622263
1.964000,-0.520436
1.965000,-0.799186
1.966000,-1.312137
1.967000,-2.073289
1.968000,-2.652427
1.969000,-2.871353
1.970000,-3.085189
1.971000,-3.631233
1.972000,-4.375838
1.973000,-4.608766
1.974000,-4.450935
1.975000,-3.901073
1.976000,-3.814520
1.977000,-3.561227
1.978000,-3.360120
1.979000,-3.133556
1.980000,-3.310480
1.981000,-4.428024
1.982000,-4.676226
1.983000,-3.783973
1.984000,-5.296095
1.985000,-5.831956
1.986000,-4.545125
1.987000,-2.792438
1.988000,-0.996475
1.989000,0.830036
1.990000,1.787204
1.991000,2.130868
1.992000,1.703198
1.993000,1.433358
1.994000,1.381172
1.995000,1.159699
1.996000,0.520739
1.997000,-0.130950
1.998000,-1.076663
1.999000,-1.785629
2.000000,-1.802176
2.001000,-1.678712
2.002000,-1.443238
2.003000,-1.598523
2.004000,-2.464048
2.005000,-2.947723
2.006000,-3.351210
2.007000,-4.991888
2.008000,-5.596482
2.009000,-5.443743
2.010000,-4.281649
2.011000,-2.553146
2.012000,-1.080482
2.013000,0.076521
2.014000,0.547468
2.015000,0.132525
2.016000,-0.008759
2.017000,0.180893
2.018000,0.350179
2.019000,0.145254
2.020000,0.429095
2.021000,0.576743
2.022000,0.415094
2.023000,0.413821
2.024000,-0.212412
2.025000,-1.080482
2.026000,-1.454694
2.027000,-1.357959
2.028000,-1.319774
2.029000,-1.602342
2.030000,-1.888729
2.031000,-1.756354
2.032000,-1.725806
2.033000,-1.699077
2.034000,-1.637981
2.035000,-1.380869
2.036000,-1.280316
2.037000,-1.192491
2.038000,-1.062662
2.039000,-2.438591
2.040000,-3.264658
2.041000,-3.346119
2.042000,-3.416125
2.043000,-3.021547
2.044000,-2.598968
2.045000,-2.567147
2.046000,-2.675338
2.047000,-2.560783
2.048000,-2.121657
2.049000,-1.637981
2.050000,-1.286680
2.051000,-1.448329
2.052000,-2.237484
2.053000,-1.630344
2.054000,-1.104665
2.055000,-0.660448
2.056000,-0.404609
2.057000,-1.317228
2.058000,-2.229847
2.059000,-2.027467
2.060000,-1.417782
2.061000,-0.638810
2.062000,-0.332058
2.063000,-0.740636
2.064000,-1.160670
2.065000,-1.898911
2.066000,-2.372404
2.067000,-2.312581
2.068000,-2.287124
2.069000,-2.724978
2.070000,-2.415680
2.071000,-2.490777
2.072000,-2.055469
2.073000,-1.481423
2.074000,-1.354140
2.075000,-1.196309
2.076000,-1.221766
2.077000,-1.592159
2.078000,-1.781811
2.079000,-1.985464
2.080000,-3.705057
2.081000,-5.280821
2.082000,-5.024982
2.083000,-4.229463
2.084000,-3.015183
2.085000,-1.623980
2.086000,-0.609535
2.087000,-1.105938
2.088000,-1.314682
2.089000,-1.114848
2.090000,-3.351210
2.091000,-3.934166
2.092000,-4.252374
2.093000,-2.549327
2.094000,0.011607
2.095000,2.144870
2.096000,3.170771
2.097000,3.413881
2.098000,3.221684
2.099000,2.880565
2.100000,2.319247
2.101000,1.496999
2.102000,1.219522
2.103000,1.099876
2.104000,-0.029124
2.105000,-1.601069
2.106000,-3.260839
2.107000,-4.053812
2.108000,-4.149275
2.109000,-3.535771
2.110000,-2.817895
2.111000,-2.560783
2.112000,-2.364767
2.113000,-1.805995
2.114000,-1.403780
2.115000,-1.277770
2.116000,-2.766981
2.117000,-2.922267
2.118000,-2.259122
2.119000,-1.273952
2.120000,-0.637537
2.121000,-0.674449
2.122000,-0.725362
2.123000,-0.759728
2.124000,-1.733443
2.125000,-2.926085
2.126000,-3.556136
2.127000,-3.792882
2.128000,-5.457744
2.129000,-6.652931
2.130000,-5.522658
2.131000,-4.648224
2.132000,-3.743242
2.133000,-2.325309
2.134000,-0.871737
2.135000,-0.613353
2.136000,0.305630
2.137000,1.412992
2.138000,1.666285
2.139000,1.654830
2.140000,1.607735
2.141000,1.367170
2.142000,0.943318
2.143000,0.197440
2.144000,-0.038034
2.145000,-0.043125
2.146000,0.016698
2.147000,-0.363878
2.148000,-0.859009
2.149000,-1.167034
2.150000,-1.266315
2.151000,-1.392325
2.152000,-1.566703
2.153000,-1.662165
2.154000,-2.013466
2.155000,-2.145840
2.156000,-1.870909
2.157000,-2.008375
2.158000,-3.117010
2.159000,-3.436490
2.160000,-3.297751
2.161000,-3.150103
2.162000,-3.066096
2.163000,-2.796256
2.164000,-2.539145
2.165000,-3.119555
2.166000,-4.897699
2.167000,-5.182813
2.168000,-4.638041
2.169000,-3.870525
2.170000,-2.811530
2.171000,-1.752536
2.172000,-1.114848
2.173000,-1.075390
2.174000,-1.062662
2.175000,-1.135213
2.176000,-0.818279
2.177000,-0.670630
2.178000,-1.259951
2.179000,-0.783912
2.180000,-0.440248
2.181000,-0.426247
2.182000,-0.287509
2.183000,-2.055469
2.184000,-2.414407
2.185000,-1.758900
2.186000,-0.817006
2.187000,-1.576885
2.188000,-1.668529
2.189000,-2.304944
2.190000,-1.924368
2.191000,-1.126303
2.192000,-0.225140
2.193000,-2.128021
2.194000,-3.587957
2.195000,-3.670691
2.196000,-2.611696
2.197000,-0.488616
2.198000,0.952228
2.199000,1.396446
2.200000,1.536457
2.201000,0.793124
2.202000,0.780396
2.203000,0.593290
2.204000,0.128707
2.205000,-0.164044
2.206000,-0.348604
2.207000,-0.651538
2.208000,-1.237040
2.209000,-2.670246
2.210000,-3.979988
2.211000,-3.899800
2.212000,-3.288842
2.213000,-2.489504
2.214000,-1.912912
2.215000,-1.402508
2.216000,-0.953199
2.217000,-0.888284
2.218000,-0.901013
2.219000,-0.931561
2.220000,-1.184854
2.221000,-2.198026
2.222000,-3.281205
2.223000,-4.004172
2.224000,-4.288013
2.225000,-3.777608
2.226000,-3.109373
2.227000,-2.089836
2.228000,-1.170853
2.229000,-1.095756
2.230000,-1.069026
2.231000,-0.862828
2.232000,-0.930288
2.233000,-0.843735
2.234000,-0.454249
2.235000,-0.613353
2.236000,-0.685904
2.237000,-1.186127
2.238000,-1.938369
2.239000,-2.182752
2.240000,-2.009648
2.241000,-1.976554
2.242000,-1.693986
2.243000,-1.495424
2.244000,-1.539973
2.245000,-1.784357
2.246000,-1.823814
2.247000,-2.116565
2.248000,-2.474230
2.249000,-2.872626
2.250000,-2.903174
2.251000,-3.138648
2.252000,-4.741141
2.253000,-5.653760
2.254000,-5.224816
2.255000,-5.117898
2.256000,-4.312197
2.257000,-3.015183
2.258000,-2.649881
2.259000,-1.907821
2.260000,-0.584078
2.261000,1.024779
2.262000,1.654830
2.263000,0.911497
2.264000,0.543649
2.265000,0.715481
2.266000,1.247524
2.267000,1.971765
2.268000,2.940388
2.269000,3.177135
2.270000,3.025668
2.271000,2.473260
2.272000,1.764293
2.273000,0.770213
2.274000,-0.172954
2.275000,-1.084300
2.276000,-1.842907
2.277000,-2.892992
2.278000,-4.196369
2.279000,-5.003344
2.280000,-4.804782
2.281000,-4.131455
2.282000,-4.746232
2.283000,-4.533669
2.284000,-4.046175
2.285000,-3.245565
2.286000,-2.237484
2.287000,-1.713078
2.288000,-1.891274
2.289000,-1.837815
2.290000,-1.076663
2.291000,-0.218776
2.292000,0.219078
2.293000,-0.108040
2.294000,-0.433884
2.295000,-0.500071
2.296000,-0.731726
2.297000,-0.964654
2.298000,-1.175944
2.299000,-1.499243
2.300000,-1.569248
2.301000,-1.556520
2.302000,-1.574340
2.303000,-2.241303
2.304000,-2.446228
2.305000,-2.241303
2.306000,-2.450047
2.307000,-2.422044
2.308000,-2.296034
2.309000,-2.296034
2.310000,-2.368586
2.311000,-2.581148
2.312000,-2.653699
2.313000,-2.618060
2.314000,-2.265486
2.315000,-3.194652
2.316000,-3.557409
2.317000,-2.498414
2.318000,-1.664711
2.319000,-1.090664
2.320000,-0.897194
2.321000,-0.716452
2.322000,0.011607
2.323000,-0.837371
2.324000,-0.664266
2.325000,-0.134769
2.326000,0.238170
2.327000,-0.338422
2.328000,-0.139860
2.329000,-0.492434
2.330000,-0.604443
2.331000,-0.600625
2.332000,-0.590442
2.333000,-0.585351
2.334000,-1.000293
2.335000,-1.487787
2.336000,-2.514961
2.337000,-2.940086
2.338000,-4.268921
2.339000,-7.442086
2.340000,-8.166326
2.341000,-7.151881
2.342000,-6.063611
2.343000,-4.244737
2.344000,-3.002455
2.345000,-1.887456
2.346000,-0.758456
2.347000,0.011607
2.348000,0.634020
2.349000,1.200430
2.350000,1.351896
2.351000,0.607291
2.352000,0.511829
2.353000,0.555105
2.354000,0.709117
2.355000,0.555105
2.356000,0.401092
2.357000,0.170710
2.358000,-0.526801
2.359000,-0.645174
2.360000,-0.680813
2.361000,-1.293044
2.362000,-1.594705
2.363000,-1.765264
2.364000,-1.720715
2.365000,-0.959563
2.366000,-0.530619
2.367000,-0.582805
2.368000,-0.629900
2.369000,-0.730453
2.370000,-0.925196
2.371000,-1.315955
2.372000,-2.313854
2.373000,-2.577330
2.374000,-3.383031
2.375000,-5.373737
2.376000,-6.030517
2.377000,-5.644850
2.378000,-5.060621
2.379000,-3.829794
2.380000,-2.553146
2.381000,-1.071572
2.382000,-0.363878
2.383000,-0.307874
2.384000,-0.300237
2.385000,-0.912468
2.386000,-1.020659
2.387000,-0.395699
2.388000,0.440550
2.389000,0.570379
2.390000,-1.473786
2.391000,-1.643072
2.392000,-0.740636
2.393000,-1.770355
2.394000,-2.658791
2.395000,-1.975281
2.396000,-1.133940
2.397000,-0.348604
2.398000,0.122343
2.399000,0.011607
2.400000,-0.399518
2.401000,-0.810642
2.402000,-1.126303
2.403000,-1.273952
2.404000,-1.533609
2.405000,-1.371960
2.406000,-1.560339
2.407000,-1.814905
2.408000,-1.861999
2.409000,-1.817450
2.410000,-1.873455
2.411000,-2.264214
2.412000,-2.499687
2.413000,-2.598968
2.414000,-2.592604
2.415000,-2.582421
2.416000,-2.451320
2.417000,-2.450047
2.418000,-3.535771
2.419000,-3.949440
2.420000,-5.466654
2.421000,-5.595210
2.422000,-4.618949
2.423000,-3.241747
2.424000,-1.546337
2.425000,-0.474615
2.426000,-0.018941
2.427000,0.359089
2.428000,0.702753
2.429000,0.760031
2.430000,-0.230231
2.431000,-0.321875
2.432000,-0.348604
2.433000,-0.838644
2.434000,-0.419883
2.435000,-0.235323
2.436000,-0.514072
2.437000,-1.002839
2.438000,-1.122485
2.439000,-1.827633
2.440000,-1.833997
2.441000,-1.729625
2.442000,-1.924368
2.443000,-3.041913
2.444000,-3.026639
2.445000,-3.503950
2.446000,-3.012638
2.447000,-2.240030
2.448000,-1.333775
2.449000,-0.304055
2.450000,-0.071127
2.451000,-0.386789
2.452000,-1.015567
2.453000,-1.382142
2.454000,-1.833997
2.455000,-3.157740
2.456000,-3.909983
2.457000,-4.066541
2.458000,-4.001626
2.459000,-2.537872
2.460000,-1.477605
2.461000,-0.361333
2.462000,0.481281
2.463000,0.908952
2.464000,0.846583
2.465000,0.481281
2.466000,0.319631
2.467000,-0.130950
2.468000,-0.410973
2.469000,-0.272235
2.470000,0.179620
2.471000,0.267445
2.472000,-0.096584
2.473000,-0.841190
2.474000,-2.153477
2.475000,-4.257465
2.476000,-4.214189
2.477000,-3.463219
2.478000,-2.710977
2.479000,-2.320218
2.480000,-1.940915
2.481000,-1.699077
2.482000,-1.392325
2.483000,-1.850544
2.484000,-2.517507
2.485000,-2.546782
2.486000,-2.284579
2.487000,-2.030013
2.488000,-1.405053
2.489000,-1.276497
2.490000,-1.946006
2.491000,-1.856908
2.492000,-2.149659
2.493000,-2.847170
2.494000,-3.120828
2.495000,-2.955360
2.496000,-2.451320
2.497000,-1.671075
2.498000,-0.986292
2.499000,-0.380425
2.500000,-0.232777
2.501000,-0.520436
2.502000,-1.002839
2.503000,-0.841190
2.504000,-0.865373
2.505000,-1.765264
2.506000,-4.968977
2.507000,-7.949945
2.508000,-7.444632
2.509000,-6.972412
2.510000,-5.587573
2.511000,-3.067369
2.512000,-0.762274
2.513000,0.872040
2.514000,2.001040
2.515000,2.471987
2.516000,2.940388
2.517000,2.832198
2.518000,1.959036
2.519000,1.659921
2.520000,2.020132
2.521000,1.998494
2.522000,2.176690
2.523000,1.606462
2.524000,0.827491
2.525000,0.360362
2.526000,-0.043125
2.527000,-0.529346
2.528000,-1.163216
2.529000,-1.531063
2.530000,-1.830178
2.531000,-1.841634
2.532000,-2.218392
2.533000,-3.895982
2.534000,-5.203178
2.535000,-4.798418
2.536000,-4.214189
2.537000,-4.505667
2.538000,-4.574400
2.539000,-4.370747
2.540000,-3.682146
2.541000,-3.617232
2.542000,-4.644406
2.543000,-4.461118
2.544000,-3.688510
2.545000,-3.922711
2.546000,-3.104281
2.547000,-2.371131
2.548000,-0.766093
2.549000,0.926771
2.550000,1.750292
2.551000,1.090966
2.552000,-0.178045
2.553000,-0.529346
2.554000,-0.281144
2.555000,-1.042297
2.556000,-1.038478
2.557000,-0.715179
2.558000,-0.008759
2.559000,0.261081
2.560000,-0.104221
2.561000,-0.712634
2.562000,-1.368141
2.563000,-1.231948
2.564000,-1.051207
2.565000,-0.932833
2.566000,-2.178934
2.567000,-3.663054
2.568000,-3.535771
2.569000,-2.848442
2.570000,-1.891274
2.571000,-1.099574
2.572000,-1.091937
2.573000,-1.621434
2.574000,-2.110201
2.575000,-2.476776
2.576000,-2.733888
2.577000,-2.219664
2.578000,-1.855635
2.579000,-1.424146
2.580000,-2.276942
2.581000,-2.168751
2.582000,-2.369858
2.583000,-2.657518
2.584000,-2.084744
2.585000,-1.253586
2.586000,-0.711361
2.587000,-0.226413
2.588000,0.094340
2.589000,0.250899
2.590000,0.341269
2.591000,-0.105494
2.592000,-0.368970
2.593000,-0.567531
2.594000,-0.783912
2.595000,-1.051207
2.596000,-1.445784
2.597000,-2.023649
2.598000,-2.805166
2.599000,-3.629960
2.600000,-4.925701
2.601000,-4.877333
2.602000,-4.328744
2.603000,-3.543408
2.604000,-2.934995
2.605000,-3.067369
2.606000,-3.887072
2.607000,-3.988898
2.608000,-3.647780
2.609000,-5.098806
2.610000,-4.844240
2.611000,-3.332118
2.612000,-2.214573
2.613000,-0.797913
2.614000,0.015425
2.615000,0.622565
2.616000,0.914043
2.617000,0.243262
2.618000,-1.094483
2.619000,-3.385577
2.620000,-3.117010
2.621000,-1.393598
2.622000,0.658204
2.623000,2.665457
2.624000,3.693904
2.625000,4.265404
2.626000,3.972653
2.627000,3.315873
2.628000,1.917033
2.629000,0.910224
2.630000,-0.088947
2.631000,-0.832280
2.632000,-0.991384
2.633000,-1.014294
2.634000,-1.099574
2.635000,-1.211583
2.636000,-1.371960
2.637000,-2.522598
2.638000,-3.330845
2.639000,-3.945622
2.640000,-4.237100
2.641000,-4.066541
2.642000,-4.506940
2.643000,-5.293549
2.644000,-5.843411
2.645000,-5.750495
2.646000,-4.766597
2.647000,-3.271022
2.648000,-1.725806
2.649000,-0.609535
2.650000,0.156709
2.651000,0.390910
2.652000,0.679842
2.653000,0.565288
2.654000,0.370545
2.655000,0.743484
2.656000,0.747302
2.657000,-0.519164
2.658000,-1.702895
2.659000,-2.143295
2.660000,-2.079653
2.661000,-1.897638
2.662000,-1.818723
2.663000,-1.686349
2.664000,-1.658346
2.665000,-1.663438
2.666000,-1.956189
2.667000,-2.320218
2.668000,-2.730069
2.669000,-3.309207
2.670000,-3.478493
2.671000,-3.472129
2.672000,-2.862444
2.673000,-2.033831
2.674000,-1.930732
2.675000,-1.957461
2.676000,-1.697804
2.677000,-2.399133
2.678000,-3.668145
2.679000,-4.041084
2.680000,-4.089452
2.681000,-4.074178
2.682000,-2.306217
2.683000,-0.898467
2.684000,0.072702
2.685000,0.944591
2.686000,1.223341
2.687000,0.921680
2.688000,0.514374
2.689000,0.430368
2.690000,0.337451
2.691000,0.079067
2.692000,-0.880647
2.693000,-1.545065
2.694000,-1.850544
2.695000,-3.010092
2.696000,-3.500131
2.697000,-4.178550
2.698000,-3.734332
2.699000,-2.381314
2.700000,-1.854362
2.701000,-3.567591
2.702000,-3.478493
2.703000,-2.638426
2.704000,-2.242575
2.705000,-1.911640
2.706000,-1.462331
2.707000,-1.466149
2.708000,-0.944289
2.709000,-0.552257
2.710000,-0.157680
2.711000,-1.165761
2.712000,-0.922651
2.713000,-0.846281
2.714000,-0.514072
2.715000,0.294175
2.716000,1.267890
2.717000,1.850846
2.718000,2.065954
2.719000,1.788477
2.720000,1.033689
2.721000,-0.248051
2.722000,-1.527245
2.723000,-3.450491
2.724000,-3.734332
2.725000,-3.223927
2.726000,-2.682975
2.727000,-2.896810
2.728000,-3.173014
2.729000,-2.950269
2.730000,-2.559510
2.731000,-2.045287
2.732000,-1.545065
2.733000,-1.832724
2.734000,-1.855635
2.735000,-1.911640
2.736000,-2.409316
2.737000,-2.775891
2.738000,-2.294761
2.739000,-2.262941
2.740000,-3.908710
2.741000,-3.557409
2.742000,-2.307490
2.743000,-0.965927
2.744000,-0.017669
2.745000,0.606018
2.746000,0.490191
2.747000,-0.461886
2.748000,-3.687237
2.749000,-4.904063
2.750000,-4.330017
2.751000,-2.868808
2.752000,-1.102120
2.753000,0.249626
2.754000,1.354442
2.755000,1.449904
2.756000,1.164790
2.757000,0.880949
2.758000,0.404911
2.759000,-0.004940
2.760000,-0.444067
2.761000,-0.440248
2.762000,-0.530619
2.763000,-0.344786
2.764000,-0.578987
2.765000,-0.991384
2.766000,-1.243404
2.767000,-1.599796
2.768000,-1.883637
2.769000,-2.177661
2.770000,-2.430954
2.771000,-3.632506
2.772000,-3.777608
2.773000,-3.573956
2.774000,-5.083532
2.775000,-5.929964
2.776000,-7.655921
2.777000,-7.627919
2.778000,-5.900689
2.779000,-3.739423
2.780000,-1.874728
2.781000,-0.500071
2.782000,0.390910
2.783000,1.166063
2.784000,1.365898
2.785000,1.317530
2.786000,0.929317
2.787000,0.837673
2.788000,0.976412
2.789000,0.440550
2.790000,-0.437702
2.791000,-0.930288
2.792000,-0.969745
2.793000,-1.672348
2.794000,-2.373677
2.795000,-2.975725
2.796000,-2.710977
2.797000,-1.924368
2.798000,-1.211583
2.799000,-1.312137
2.800000,-2.316400
2.801000,-3.262112
2.802000,-3.720331
2.803000,-3.876889
2.804000,-4.020719
2.805000,-3.735605
2.806000,-2.619333
2.807000,-1.562884
2.808000,-0.843735
2.809000,-0.374061
2.810000,-0.248051
2.811000,-1.309591
2.812000,-2.497141
2.813000,-2.060561
2.814000,-0.634991
2.815000,1.013324
2.816000,1.901759
2.817000,2.077410
2.818000,1.644647
2.819000,1.251343
2.820000,1.056600
2.821000,0.660750
2.822000,-0.026578
2.823000,-0.729181
2.824000,-1.243404
2.825000,-1.529791
2.826000,-4.154366
2.827000,-5.825592
2.828000,-6.231625
2.829000,-6.479826
2.830000,-6.660568
2.831000,-6.190894
2.832000,-5.879051
2.833000,-4.818783
2.834000,-2.680429
2.835000,-0.683359
2.836000,0.919134
2.837000,1.792296
2.838000,2.298882
2.839000,2.722734
2.840000,2.832198
2.841000,3.056216
2.842000,2.771102
2.843000,2.237786
2.844000,1.462633
2.845000,0.813489
2.846000,0.271264
2.847000,-0.246778
2.848000,-1.030841
2.849000,-1.727079
2.850000,-2.110201
2.851000,-2.466593
2.852000,-2.736433
2.853000,-2.866262
2.854000,-3.033003
2.855000,-3.293933
2.856000,-3.605776
2.857000,-4.398749
2.858000,-5.898143
2.859000,-7.116241
2.860000,-9.518072
2.861000,-10.419235
2.862000,-9.352604
2.863000,-6.689843
2.864000,-4.263829
2.865000,-1.982918
2.866000,-0.642628
2.867000,-0.208593
2.868000,-0.277326
2.869000,-0.452976
2.870000,-0.045671
2.871000,0.469825
2.872000,1.486816
2.873000,2.732917
2.874000,3.085491
2.875000,2.766011
2.876000,2.722734
2.877000,2.554721
2.878000,1.951399
2.879000,1.541548
2.880000,1.190247
2.881000,-0.997748
2.882000,-1.876000
2.883000,-3.305388
2.884000,-3.334664
2.885000,-2.166206
2.886000,-1.021931
2.887000,-0.438975
2.888000,-0.461886
2.889000,-0.913741
2.890000,-2.175115
2.891000,-2.730069
2.892000,-2.984635
2.893000,-3.192107
2.894000,-4.439480
2.895000,-4.947339
2.896000,-4.028356
2.897000,-2.838260
2.898000,-1.464876
2.899000,-0.586624
2.900000,-0.206047
2.901000,-1.107211
2.902000,-1.539973
2.903000,-1.893820
2.904000,-1.836543
2.905000,-2.114020
2.906000,-1.996919
2.907000,-1.620162
2.908000,-1.305773
2.909000,-0.951926
2.910000,-0.901013
2.911000,-2.429681
2.912000,-2.817895
2.913000,-2.392769
2.914000,-1.565430
2.915000,-0.815733
2.916000,-0.409700
2.917000,-0.544620
2.918000,-0.918832
2.919000,-1.034660
2.920000,-0.780094
2.921000,-0.659175
2.922000,-0.656629
2.923000,-0.951926
2.924000,-1.303227
2.925000,-1.665983
2.926000,-2.437318
2.927000,-3.077552
2.928000,-4.191278
2.929000,-5.112807
2.930000,-4.840421
2.931000,-4.554035
2.932000,-3.915074
2.933000,-2.630789
2.934000,-1.443238
2.935000,-0.305328
2.936000,0.593290
2.937000,0.765122
2.938000,0.964956
2.939000,1.177519
2.940000,1.168609
2.941000,0.954774
2.942000,0.343815
2.943000,-0.477160
2.944000,-1.573067
2.945000,-2.814076
2.946000,-2.512415
2.947000,-2.044014
2.948000,-2.349493
2.949000,-2.671519
2.950000,-3.888345
2.951000,-4.618949
2.952000,-4.454754
2.953000,-3.622323
2.954000,-2.579875
2.955000,-2.336765
2.956000,-3.423762
2.957000,-4.242191
2.958000,-5.475564
2.959000,-5.579936
2.960000,-3.981261
2.961000,-1.546337
2.962000,0.245807
2.963000,1.948854
2.964000,2.780012
2.965000,3.245868
2.966000,3.532254
2.967000,3.342603
2.968000,2.865291
2.969000,2.255606
2.970000,1.801205
2.971000,1.435903
2.972000,1.261526
2.973000,0.847856
2.974000,-0.405882
2.975000,-1.781811
2.976000,-2.106383
2.977000,-2.824259
2.978000,-3.730514
2.979000,-4.444571
2.980000,-5.747949
2.981000,-5.996151
2.982000,-5.278275
2.983000,-4.898972
2.984000,-3.976170
2.985000,-2.690612
2.986000,-1.765264
2.987000,-1.158124
2.988000,-0.618444
2.989000,-0.423701
2.990000,-0.323148
2.991000,-0.221321
2.992000,0.211441
2.993000,0.324723
2.994000,-0.055853
2.995000,-0.703724
2.996000,-0.880647
2.997000,-1.210310
2.998000,-1.635435
2.999000,-1.926914
3.000000,-2.108928
3.001000,-3.295206
3.002000,-4.695319
3.003000,-5.600301
3.004000,-5.782316
3.005000,-6.010152
3.006000,-5.899416
3.007000,-6.274901
3.008000,-7.566823
3.009000,-7.209158
3.010000,-6.195985
3.011000,-4.244737
3.012000,-1.794539
3.013000,0.611109
3.014000,0.911497
3.015000,1.572096
3.016000,3.627717
3.017000,5.152567
3.018000,5.508959
3.019000,4.903092
3.020000,3.962471
3.021000,2.797831
3.022000,1.694288
3.023000,0.771486
3.024000,0.175802
3.025000,-0.475887
3.026000,-0.954471
3.027000,-1.637981
3.028000,-2.717341
3.029000,-3.015183
3.030000,-2.744070
3.031000,-2.198026
3.032000,-1.746172
3.033000,-2.619333
3.034000,-2.549327
3.035000,-1.584522
3.036000,-0.762274
3.037000,-0.426247
3.038000,-0.192046
3.039000,-0.451704
3.040000,-1.328683
3.041000,-2.234938
3.042000,-2.353312
3.043000,-2.364767
3.044000,-3.024093
3.045000,-3.288842
3.046000,-2.866262
3.047000,-2.772073
3.048000,-3.231564
3.049000,-3.234110
3.050000,-2.912084
3.051000,-2.929904
3.052000,-3.080098
3.053000,-3.979988
3.054000,-5.119171
3.055000,-7.471361
3.056000,-7.809934
3.057000,-6.292720
3.058000,-3.898527
3.059000,-1.462331
3.060000,0.399820
3.061000,1.596280
3.062000,2.026496
3.063000,2.421074
3.064000,2.594179
3.065000,2.917477
3.066000,3.037123
3.067000,2.540720
3.068000,2.009950
3.069000,1.561913
3.070000,0.608564
3.071000,0.161800
3.072000,-0.227686
3.073000,-1.443238
3.074000,-2.478049
3.075000,-2.941359
3.076000,-3.048277
3.077000,-3.218836
3.078000,-3.234110
3.079000,-4.111090
3.080000,-6.017789
3.081000,-7.200248
3.082000,-7.902850
3.083000,-7.083148
3.084000,-5.163720
3.085000,-3.110645
3.086000,-1.655801
3.087000,-0.450431
3.088000,0.693843
3.089000,1.467724
3.090000,1.695561
3.091000,1.713380
3.092000,1.745201
3.093000,1.337895
3.094000,-0.096584
3.095000,-0.786458
3.096000,-1.317228
3.097000,-2.105110
3.098000,-2.769527
3.099000,-3.203562
3.100000,-4.212916
3.101000,-4.638041
3.102000,-3.601958
3.103000,-2.381314
3.104000,-1.074117
3.105000,0.015425
3.106000,0.455824
3.107000,0.150345
3.108000,0.160528
3.109000,-0.432611
3.110000,-0.521709
3.111000,-0.426247
3.112000,-0.631173
3.113000,-1.291771
3.114000,-2.807712
3.115000,-2.829350
3.116000,-1.878546
3.117000,-0.995202
3.118000,-0.731726
3.119000,-0.893376
3.120000,-2.092381
3.121000,-2.535326
3.122000,-2.214573
3.123000,-1.821269
3.124000,-1.099574
3.125000,-0.474615
3.126000,-0.296418
3.127000,-0.600625
3.128000,-0.759728
3.129000,-0.903558
3.130000,-2.368586
3.131000,-2.996091
3.132000,-2.885355
3.133000,-2.396588
3.134000,-2.732615
3.135000,-2.880263
3.136000,-2.301126
3.137000,-1.870909
3.138000,-1.673620
3.139000,-1.674893
3.140000,-1.494151
3.141000,-2.301126
3.142000,-2.614242
3.143000,-2.035104
3.144000,-1.317228
3.145000,-1.105938
3.146000,-0.847554
3.147000,-0.451704
3.148000,0.132525
3.149000,-0.290054
3.150000,-0.822097
3.151000,-0.902285
3.152000,-1.090664
3.153000,-1.993101
3.154000,-3.040640
3.155000,-3.272295
3.156000,-3.207381
3.157000,-3.323208
3.158000,-3.655417
3.159000,-5.089896
3.160000,-5.455198
3.161000,-4.575673
3.162000,-3.775063
3.163000,-3.492494
3.164000,-2.558237
3.165000,-0.907377
3.166000,0.495282
3.167000,1.215704
3.168000,1.861028
3.169000,1.882667
3.170000,1.412992
3.171000,1.124060
3.172000,0.938227
3.173000,0.866948
3.174000,0.439277
3.175000,-0.090220
3.176000,-0.326966
3.177000,-0.682086
3.178000,-1.126303
3.179000,-3.016456
3.180000,-3.904891
3.181000,-4.229463
3.182000,-3.769971
3.183000,-2.904447
3.184000,-2.106383
3.185000,-1.447057
3.186000,-1.860726
3.187000,-1.853089
3.188000,-2.072016
3.189000,-2.129294
3.190000,-2.054197
3.191000,-1.988009
3.192000,-1.766537
3.193000,-2.497141
3.194000,-2.362221
3.195000,-2.069471
3.196000,-1.688894
3.197000,-1.333775
3.198000,-0.678267
3.199000,0.059974
3.200000,0.888586
3.201000,1.364625
3.202000,1.332804
3.203000,1.050236
3.204000,0.458370
3.205000,-0.139860
3.206000,-0.600625
3.207000,-0.828461
3.208000,-1.102120
3.209000,-1.438147
3.210000,-1.495424
3.211000,-3.244293
3.212000,-3.792882
3.213000,-3.637597
3.214000,-3.436490
3.215000,-3.198471
3.216000,-2.973180
3.217000,-2.586239
3.218000,-2.562056
3.219000,-2.621879
3.220000,-2.374950
3.221000,-2.105110
3.222000,-2.721159
3.223000,-2.787347
3.224000,-2.348220
3.225000,-2.274396
3.226000,-3.095371
3.227000,-3.346119
3.228000,-2.758072
3.229000,-1.788175
3.230000,-1.170853
3.231000,-0.878102
3.232000,-0.795368
3.233000,-0.782639
3.234000,-1.187399
3.235000,-2.559510
3.236000,-2.598968
3.237000,-2.234938
3.238000,-3.437763
3.239000,-4.716957
3.240000,-3.155194
3.241000,-1.416509
3.242000,-0.363878
3.243000,0.262354
3.244000,0.019243
3.245000,-0.627354
3.246000,-1.436874
3.247000,-1.242131
3.248000,-1.243404
3.249000,-1.636708
3.250000,-1.373233
3.251000,-1.296863
3.252000,-1.029568
3.253000,-0.356241
3.254000,0.171983
3.255000,0.562742
3.256000,-0.506435
3.257000,-0.852645
3.258000,-0.236595
3.259000,0.679842
3.260000,1.168609
3.261000,0.999323
3.262000,0.361635
3.263000,-1.024477
3.264000,-1.833997
3.265000,-2.974453
3.266000,-3.372848
3.267000,-3.409760
3.268000,-3.515405
3.269000,-4.063995
3.270000,-4.837876
3.271000,-4.500576
3.272000,-4.020719
3.273000,-4.282922
3.274000,-4.024537
3.275000,-3.167923
3.276000,-1.496697
3.277000,0.133798
3.278000,1.354442
3.279000,2.021405
3.280000,1.624282
3.281000,1.190247
3.282000,0.800761
3.283000,0.550014
3.284000,0.150345
3.285000,-0.408427
3.286000,-0.764820
3.287000,-0.972291
3.288000,-1.273952
3.289000,-2.703340
3.290000,-4.018173
3.291000,-4.317288
3.292000,-4.338926
3.293000,-4.780598
3.294000,-5.562116
3.295000,-5.054257
3.296000,-3.800519
3.297000,-2.359676
3.298000,-1.076663
3.299000,0.035790
3.300000,0.688752
3.301000,0.537285
3.302000,0.077794
3.303000,-0.157680
3.304000,-0.137315
3.305000,-1.116121
3.306000,-1.511971
3.307000,-1.405053
3.308000,-1.583249
3.309000,-1.657074
3.310000,-1.981645
3.311000,-2.461502
3.312000,-3.073733
3.313000,-2.639698
3.314000,-1.813632
3.315000,-1.901457
3.316000,-1.212856
3.317000,-0.533165
3.318000,-0.521709
3.319000,-0.805550
3.320000,-1.119939
3.321000,-1.856908
3.322000,-2.578603
3.323000,-1.962553
3.324000,-1.263769
3.325000,-0.591715
3.326000,-0.109312
3.327000,-0.134769
3.328000,-0.577714
3.329000,-0.608262
3.330000,-0.417337
3.331000,-0.468250
3.332000,-0.660448
3.333000,-1.039751
3.334000,-1.293044
3.335000,-1.469968
3.336000,-1.197582
3.337000,-1.020659
3.338000,-1.322319
3.339000,-2.075835
3.340000,-2.681702
3.341000,-4.060177
3.342000,-4.214189
3.343000,-4.214189
3.344000,-5.545569
3.345000,-5.690672
3.346000,-5.607938
3.347000,-4.305833
3.348000,-3.225200
3.349000,-2.181480
3.350000,-1.368141
3.351000,-2.266759
3.352000,-1.929459
3.353000,-0.853918
3.354000,-0.101675
3.355000,0.642930
3.356000,0.701480
3.357000,0.798215
3.358000,0.850401
3.359000,0.630202
3.360000,0.343815
3.361000,0.299266
3.362000,0.048519
3.363000,-0.372788
3.364000,-0.673176
3.365000,-1.135213
3.366000,-1.746172
3.367000,-5.254091
3.368000,-6.133617
3.369000,-5.158629
3.370000,-3.705057
3.371000,-2.110201
3.372000,-1.093210
3.373000,-1.030841
3.374000,-0.267143
3.375000,0.510556
3.376000,0.751121
3.377000,0.720573
3.378000,0.343815
3.379000,0.178347
3.380000,-0.164044
3.381000,-0.823370
3.382000,-1.434328
3.383000,-2.046560
3.384000,-3.507768
3.385000,-2.938813
3.386000,-1.897638
3.387000,-0.904831
3.388000,-0.785185
3.389000,-0.831007
3.390000,-1.100847
3.391000,-1.247222
3.392000,-1.179762
3.393000,-1.234494
3.394000,-1.529791
3.395000,-1.539973
3.396000,-1.308318
3.397000,-1.485242
3.398000,-1.539973
3.399000,-1.870909
3.400000,-3.727968
3.401000,-4.709320
3.402000,-5.150992
3.403000,-5.166266
3.404000,-3.397032
3.405000,-1.585795
3.406000,-0.146224
3.407000,0.812217
3.408000,0.976412
3.409000,0.644203
3.410000,0.367999
3.411000,-1.234494
3.412000,-1.517062
3.413000,-0.883193
3.414000,-0.377879
3.415000,-0.298964
3.416000,-0.052035
3.417000,-0.281144
3.418000,-0.676995
3.419000,-2.332946
3.420000,-3.749606
3.421000,-4.248555
3.422000,-4.617676
3.423000,-3.656690
3.424000,-2.502233
3.425000,-1.854362
3.426000,-1.186127
3.427000,-0.747000
3.428000,-0.711361
3.429000,-0.887011
3.430000,-1.225584
3.431000,-1.555247
3.432000,-2.381314
3.433000,-2.380041
3.434000,-1.869636
3.435000,-1.519608
3.436000,-1.944733
3.437000,-2.074562
3.438000,-3.251930
3.439000,-3.811975
3.440000,-4.288013
3.441000,-3.951986
3.442000,-3.687237
3.443000,-3.523042
3.444000,-2.644790
3.445000,-1.691440
3.446000,-1.495424
3.447000,-0.860282
3.448000,-0.179318
3.449000,0.276355
3.450000,0.527103
3.451000,0.664568
3.452000,0.667114
3.453000,0.552559
3.454000,-1.715624
3.455000,-2.227301
3.456000,-1.444511
3.457000,-1.042297
3.458000,-0.837371
3.459000,-2.746616
3.460000,-4.013082
3.461000,-3.757243
3.462000,-2.674065
3.463000,-1.863272
3.464000,-1.304500
3.465000,-0.599352
3.466000,-0.021487
3.467000,0.448187
3.468000,0.945864
3.469000,0.963683
3.470000,1.150789
3.471000,1.624282
3.472000,1.617918
3.473000,1.141880
3.474000,-0.376607
3.475000,-1.405053
3.476000,-1.868363
3.477000,-3.251930
3.478000,-4.958795
3.479000,-5.094987
3.480000,-4.722048
3.481000,-3.305388
3.482000,-2.027467
3.483000,-1.172125
3.484000,-0.921378
3.485000,-0.629900
3.486000,-0.256961
3.487000,0.007788
3.488000,0.179620
3.489000,0.154163
3.490000,-0.279872
3.491000,-0.669358
3.492000,-0.628627
3.493000,-0.908650
3.494000,-1.114848
3.495000,-1.450875
3.496000,-1.920549
3.497000,-2.376223
3.498000,-2.882809
3.499000,-3.316844
3.500000,-3.423762
3.501000,-3.852705
3.502000,-3.596867
3.503000,-3.076279
3.504000,-2.651154
3.505000,-2.369858
3.506000,-2.229847
3.507000,-2.609150
3.508000,-3.145012
3.509000,-3.192107
3.510000,-3.321935
3.511000,-3.985080
3.512000,-3.531952
3.513000,-2.947723
3.514000,-2.792438
3.515000,-2.035104
3.516000,-1.158124
3.517000,-0.497525
3.518000,0.052337
3.519000,0.133798
3.520000,-0.194592
3.521000,-1.551429
3.522000,-2.413135
3.523000,-2.498414
3.524000,-2.866262
3.525000,-3.850160
3.526000,-5.350826
3.527000,-5.937601
3.528000,-5.161175
3.529000,-3.384304
3.530000,-1.743626
3.531000,0.398547
3.532000,0.970047
3.533000,-0.213684
3.534000,-1.253586
3.535000,-1.272679
3.536000,-0.260779
3.537000,0.468552
3.538000,0.679842
3.539000,0.543649
3.540000,0.667114
3.541000,1.665013
3.542000,2.074864
3.543000,2.401981
3.544000,2.316702
3.545000,2.253060
3.546000,2.109230
3.547000,0.908952
3.548000,-0.957017
3.549000,-2.083472
3.550000,-2.007102
3.551000,-2.084744
3.552000,-1.949824
3.553000,-1.657074
3.554000,-1.482696
3.555000,-1.541246
3.556000,-1.828906
3.557000,-2.783528
3.558000,-3.082643
3.559000,-3.240474
3.560000,-4.074178
3.561000,-4.612585
3.562000,-4.035993
3.563000,-2.886627
3.564000,-1.876000
3.565000,-0.974837
3.566000,-0.391881
3.567000,-0.329512
3.568000,-0.470796
3.569000,-0.832280
3.570000,-1.513244
3.571000,-1.388506
3.572000,-1.167034
3.573000,-1.193763
3.574000,-1.293044
3.575000,-2.367313
3.576000,-2.559510
3.577000,-2.479322
3.578000,-2.355857
3.579000,-2.049105
3.580000,-1.909094
3.581000,-2.296034
3.582000,-2.282033
3.583000,-2.103837
3.584000,-2.220937
3.585000,-2.240030
3.586000,-2.119111
3.587000,-2.035104
3.588000,-1.915458
3.589000,-1.841634
3.590000,-3.138648
3.591000,-4.102180
3.592000,-4.354200
3.593000,-4.333835
3.594000,-4.594765
3.595000,-5.941419
3.596000,-7.140425
3.597000,-6.297812
3.598000,-4.076723
3.599000,-2.213300
3.600000,-0.162771
3.601000,1.499545
3.602000,2.478351
3.603000,2.802923
3.604000,2.604361
3.605000,1.124060
3.606000,0.250899
3.607000,0.191076
3.608000,-0.250596
3.609000,-0.735545
3.610000,-2.452592
3.611000,-2.080926
3.612000,-1.074117
3.613000,-0.687177
3.614000,-1.453421
3.615000,-1.349049
3.616000,-0.626081
3.617000,0.300539
3.618000,1.500818
3.619000,2.317974
3.620000,2.367615
3.621000,2.189419
3.622000,2.151234
3.623000,1.746474
3.624000,0.758758
3.625000,0.149072
3.626000,-0.491161
3.627000,-1.216674
3.628000,-2.036377
3.629000,-2.344402
3.630000,-2.340583
3.631000,-2.282033
3.632000,-2.397861
3.633000,-2.453865
3.634000,-2.853534
3.635000,-3.691056
3.636000,-3.923984
3.637000,-4.121272
3.638000,-3.608322
3.639000,-3.072461
3.640000,-2.700794
3.641000,-2.779710
3.642000,-4.001626
3.643000,-4.103453
3.644000,-4.429297
3.645000,-6.048337
3.646000,-7.577006
3.647000,-7.355533
3.648000,-6.194713
3.649000,-4.172186
3.650000,-1.926914
3.651000,-0.404609
3.652000,0.376909
3.653000,0.236897
3.654000,0.164346
3.655000,0.894951
3.656000,1.148244
3.657000,0.618746
3.658000,-0.995202
3.659000,-0.867919
3.660000,-0.344786
3.661000,0.712936
3.662000,1.079511
3.663000,0.739665
3.664000,0.662023
3.665000,0.202531
3.666000,-0.086401
3.667000,-0.099130
3.668000,0.015425
3.669000,-0.246778
3.670000,-0.288781
3.671000,-0.241687
3.672000,-0.379152
3.673000,-0.750819
3.674000,-1.864545
3.675000,-4.102180
3.676000,-5.641031
3.677000,-5.983423
3.678000,-5.913417
3.679000,-6.209986
3.680000,-6.896042
3.681000,-5.312641
3.682000,-2.798802
3.683000,-0.441521
3.684000,1.144425
3.685000,1.265344
3.686000,0.916589
3.687000,0.455824
3.688000,-1.024477
3.689000,-1.132668
3.690000,-1.304500
3.691000,-1.606160
3.692000,-0.755910
3.693000,-0.142406
3.694000,-0.296418
3.695000,-1.188672
3.696000,-1.575612
3.697000,-1.501788
3.698000,-0.866646
3.699000,-0.248051
3.700000,-0.048216
3.701000,0.121070
3.702000,0.294175
3.703000,-1.053752
3.704000,-4.142911
3.705000,-5.308823
3.706000,-5.326642
3.707000,-4.386021
3.708000,-3.225200
3.709000,-1.974008
3.710000,-1.201400
3.711000,-2.353312
3.712000,-2.518780
3.713000,-2.231120
3.714000,-1.808540
3.715000,-0.609535
3.716000,0.958592
3.717000,1.946308
3.718000,2.309065
3.719000,1.363352
3.720000,-0.165317
3.721000,-2.124202
3.722000,-3.293933
3.723000,-3.475948
3.724000,-3.441581
3.725000,-2.894264
3.726000,-2.045287
3.727000,-1.048661
3.728000,-0.371515
3.729000,-0.316784
3.730000,-0.451704
3.731000,-0.473342
3.732000,-0.328239
3.733000,-0.418610
3.734000,-0.128405
3.735000,-0.186955
3.736000,-0.520436
3.737000,-1.063935
3.738000,-1.415236
3.739000,-1.696531
3.740000,-1.979100
3.741000,-2.159841
3.742000,-2.302398
3.743000,-2.503506
3.744000,-2.595149
3.745000,-3.047004
3.746000,-4.575673
3.747000,-5.056802
3.748000,-5.515021
3.749000,-4.929519
3.750000,-5.997424
3.751000,-7.172246
3.752000,-5.886688
3.753000,-3.874343
3.754000,-1.887456
3.755000,-0.101675
3.756000,0.362908
3.757000,0.268718
3.758000,0.514374
3.759000,0.945864
3.760000,1.509727
3.761000,1.878848
3.762000,1.774476
3.763000,1.556822
3.764000,1.135515
3.765000,1.157153
3.766000,0.552559
3.767000,-1.397416
3.768000,-2.271850
3.769000,-3.146285
3.770000,-3.430126
3.771000,-3.661781
3.772000,-3.022820
3.773000,-2.395315
3.774000,-2.060561
3.775000,-3.145012
3.776000,-5.343189
3.777000,-4.729685
3.778000,-2.774618
3.779000,-0.953199
3.780000,0.361635
3.781000,0.390910
3.782000,-1.206492
3.783000,-2.271850
3.784000,-2.560783
3.785000,-2.746616
3.786000,-2.066925
3.787000,-0.888284
3.788000,0.135071
3.789000,1.010778
3.790000,1.349351
3.791000,1.071874
3.792000,0.639112
3.793000,0.282719
3.794000,-0.489889
3.795000,-1.459785
3.796000,-1.953643
3.797000,-1.968917
3.798000,-1.556520
3.799000,-0.946834
3.800000,-0.710088
3.801000,-0.995202
3.802000,-1.662165
3.803000,-2.872626
3.804000,-3.509041
3.805000,-3.698693
3.806000,-4.620222
3.807000,-5.789953
3.808000,-5.111534
3.809000,-3.843796
3.810000,-1.802176
3.811000,0.044700
3.812000,1.092239
3.813000,1.504636
3.814000,1.064237
3.815000,0.980230
3.816000,0.929317
3.817000,-0.086401
3.818000,-0.995202
3.819000,-1.251041
3.820000,-2.237484
3.821000,-2.288397
3.822000,-1.640527
3.823000,-1.149214
3.824000,-0.983747
3.825000,-1.188672
3.826000,-1.346503
3.827000,-1.637981
3.828000,-1.808540
3.829000,-2.038923
3.830000,-2.546782
3.831000,-2.814076
3.832000,-2.475503
3.833000,-2.035104
3.834000,-1.840361
3.835000,-1.723261
3.836000,-1.478877
3.837000,-1.494151
3.838000,-1.407599
3.839000,-1.374505
3.840000,-1.495424
3.841000,-1.904003
3.842000,-2.294761
3.843000,-2.861171
3.844000,-3.400851
3.845000,-4.184914
3.846000,-4.433116
3.847000,-6.530740
3.848000,-6.967320
3.849000,-6.069975
3.850000,-6.142526
3.851000,-5.347008
3.852000,-2.961724
3.853000,-0.735545
3.854000,1.107513
3.855000,2.151234
3.856000,2.217421
3.857000,2.059590
3.858000,2.321793
3.859000,2.531810
3.860000,0.878404
3.861000,-0.123313
3.862000,-0.376607
3.863000,-0.008759
3.864000,0.495282
3.865000,0.379454
3.866000,0.104523
3.867000,-0.248051
3.868000,-0.832280
3.869000,-1.108484
3.870000,-1.389779
3.871000,-1.430510
3.872000,-1.361777
3.873000,-1.091937
3.874000,-0.615899
3.875000,-0.521709
3.876000,-2.094927
3.877000,-4.290559
3.878000,-5.437379
3.879000,-5.597755
3.880000,-4.812419
3.881000,-4.662225
3.882000,-4.324925
3.883000,-3.717785
3.884000,-3.607049
3.885000,-5.260455
3.886000,-5.658851
3.887000,-4.032174
3.888000,-1.961280
3.889000,0.034517
3.890000,1.656103
3.891000,2.898385
3.892000,3.152951
3.893000,2.370160
3.894000,1.523729
3.895000,0.683661
3.896000,0.502919
3.897000,1.093512
3.898000,1.495726
3.899000,1.923397
3.900000,2.007404
3.901000,1.135515
3.902000,0.124888
3.903000,-0.517891
3.904000,-1.065208
3.905000,-1.336320
3.906000,-1.567976
3.907000,-1.786902
3.908000,-2.224756
3.909000,-2.592604
3.910000,-2.885355
3.911000,-3.045731
3.912000,-3.442854
3.913000,-3.687237
3.914000,-3.678328
3.915000,-3.754697
3.916000,-3.757243
3.917000,-3.643961
3.918000,-3.563773
3.919000,-3.548499
3.920000,-3.328299
3.921000,-3.851432
3.922000,-3.719058
3.923000,-3.259567
3.924000,-2.540418
3.925000,-1.662165
3.926000,-1.265042
3.927000,-1.439420
3.928000,-1.678712
3.929000,-2.763163
3.930000,-2.741525
3.931000,-3.337209
3.932000,-4.592220
3.933000,-3.878162
3.934000,-3.011365
3.935000,-2.730069
3.936000,-1.822541
3.937000,-1.259951
3.938000,-2.088563
3.939000,-1.947279
3.940000,-1.394871
3.941000,-1.114848
3.942000,-0.775002
3.943000,-0.516618
3.944000,-1.494151
3.945000,-0.494980
3.946000,1.054054
3.947000,2.255606
3.948000,2.908568
3.949000,2.757101
3.950000,2.474533
3.951000,0.776577
3.952000,-0.524255
3.953000,-2.927358
3.954000,-4.772961
3.955000,-4.476392
3.956000,-3.147558
3.957000,-1.630344
3.958000,-0.606989
3.959000,-0.134769
3.960000,-0.636264
3.961000,-1.066480
3.962000,-2.058015
3.963000,-2.647335
3.964000,-2.074562
3.965000,-1.013022
3.966000,0.553832
3.967000,1.611554
3.968000,1.546639
3.969000,0.978957
3.970000,0.374363
3.971000,0.146526
3.972000,-0.850099
3.973000,-1.870909
3.974000,-2.419499
3.975000,-2.498414
3.976000,-2.236211
3.977000,-2.106383
3.978000,-2.642244
3.979000,-2.756799
3.980000,-2.688066
3.981000,-2.656245
3.982000,-2.721159
3.983000,-4.680045
3.984000,-5.504839
3.985000,-4.781871
3.986000,-3.381758
3.987000,-1.811086
3.988000,-0.834825
3.989000,-0.850099
3.990000,-1.309591
3.991000,-1.382142
3.992000,-1.975281
3.993000,-2.024921
3.994000,-1.345230
3.995000,-0.422429
3.996000,0.650567
3.997000,1.087148
3.998000,0.784214
3.999000,0.108342
4.000000,-0.557348
4.001000,-2.512415
4.002000,-6.194713
4.003000,-7.765385
4.004000,-7.023325
4.005000,-5.068258
4.006000,-3.013910
4.007000,-1.291771
4.008000,0.115979
4.009000,0.786760
4.010000,1.166063
4.011000,1.372262
4.012000,1.262798
4.013000,0.757485
4.014000,0.020516
4.015000,-0.311692
4.016000,-0.762274
4.017000,-1.091937
4.018000,-1.967644
4.019000,-2.704613
4.020000,-2.660064
4.021000,-2.218392
4.022000,-1.715624
4.023000,-1.263769
4.024000,-1.410145
4.025000,-2.670246
4.026000,-3.972351
4.027000,-3.579047
4.028000,-2.542963
4.029000,-2.288397
4.030000,-1.890001
4.031000,-0.824643
4.032000,-0.381698
4.033000,0.140162
4.034000,0.585653
4.035000,0.676024
4.036000,0.455824
4.037000,-1.790721
4.038000,-3.572683
4.039000,-4.098362
4.040000,-3.738151
4.041000,-3.045731
4.042000,-2.241303
4.043000,-1.475059
4.044000,-0.731726
4.045000,-0.143679
4.046000,-0.151316
4.047000,-0.977382
4.048000,-1.565430
4.049000,-2.461502
4.050000,-2.444955
4.051000,-1.623980
4.052000,-0.789004
4.053000,-0.497525
4.054000,-0.216230
4.055000,-0.484797
4.056000,-0.735545
4.057000,-0.608262
4.058000,-0.575168
4.059000,-0.730453
4.060000,-0.920105
4.061000,-1.196309
4.062000,-1.850544
4.063000,-3.786518
4.064000,-5.763223
4.065000,-5.245181
4.066000,-4.327471
4.067000,-3.360120
4.068000,-2.896810
4.069000,-2.724978
4.070000,-3.309207
4.071000,-4.274012
4.072000,-4.061449
4.073000,-3.299024
4.074000,-3.080098
4.075000,-2.195481
4.076000,-0.921378
4.077000,-0.353696
4.078000,0.426549
4.079000,1.190247
4.080000,1.598826
4.081000,1.852119
4.082000,2.185600
4.083000,2.525446
4.084000,2.423619
4.085000,1.695561
4.086000,0.170710
4.087000,-0.460613
4.088000,-1.228130
4.089000,-1.660892
4.090000,-1.739808
4.091000,-1.990555
4.092000,-2.506051
4.093000,-2.898083
4.094000,-4.408932
4.095000,-5.733948
4.096000,-5.460290
4.097000,-4.145456
4.098000,-2.321491
4.099000,-0.890830
4.100000,-0.203502
4.101000,-0.268416
4.102000,-0.893376
4.103000,-2.476776
4.104000,-3.010092
4.105000,-4.135274
4.106000,-3.339755
4.107000,-1.401235
4.108000,-0.396972
4.109000,-2.033831
4.110000,-2.479322
4.111000,-2.526416
4.112000,-2.273123
4.113000,-1.622707
4.114000,-0.775002
4.115000,-0.108040
4.116000,0.142708
4.117000,0.192348
4.118000,0.191076
4.119000,0.651840
4.120000,0.557651
4.121000,0.550014
4.122000,0.357816
4.123000,0.114706
4.124000,-0.142406
4.125000,-0.618444
4.126000,-1.055025
4.127000,-1.840361
4.128000,-3.043185
4.129000,-5.397921
4.130000,-6.026699
4.131000,-5.558298
4.132000,-4.573127
4.133000,-3.618505
4.134000,-2.721159
4.135000,-2.070743
4.136000,-1.868363
4.137000,-2.441137
4.138000,-2.270578
4.139000,-1.743626
4.140000,-1.046115
4.141000,-0.718998
4.142000,-1.524699
4.143000,-1.938369
4.144000,-1.858181
4.145000,-1.915458
4.146000,-2.136931
4.147000,-1.963826
4.148000,-1.667256
4.149000,-1.396143
4.150000,-0.972291
4.151000,-0.564985
4.152000,-0.400790
4.153000,0.295448
4.154000,0.532194
4.155000,0.538558
4.156000,0.546195
4.157000,0.034517
4.158000,0.079067
4.159000,0.291629
4.160000,0.208895
4.161000,-0.503890
4.162000,-3.887072
4.163000,-7.238433
4.164000,-7.181156
4.165000,-5.196814
4.166000,-3.006273
4.167000,-0.985019
4.168000,0.431640
4.169000,0.898769
4.170000,0.872040
4.171000,0.536012
4.172000,-0.119495
4.173000,-0.080037
4.174000,0.140162
4.175000,0.522011
4.176000,0.930590
4.177000,0.781669
4.178000,0.028153
4.179000,-0.566258
4.180000,-1.033387
4.181000,-2.565874
4.182000,-3.831067
4.183000,-4.648224
4.184000,-5.917236
4.185000,-4.924428
4.186000,-4.186187
4.187000,-3.691056
4.188000,-2.685520
4.189000,-1.912912
4.190000,-1.326138
4.191000,-1.182308
4.192000,-1.536155
4.193000,-1.828906
4.194000,-2.376223
4.195000,-2.559510
4.196000,-2.343129
4.197000,-2.783528
4.198000,-2.330401
4.199000,-1.958734
4.200000,-1.659619
4.201000,-1.103393
4.202000,-0.475887
4.203000,-1.331229
4.204000,-1.546337
4.205000,-1.293044
4.206000,-0.720271
4.207000,-0.011304
4.208000,0.100705
4.209000,0.472371
4.210000,0.234352
4.211000,-0.612080
4.212000,-1.214129
4.213000,-1.494151
4.214000,-1.238313
4.215000,-1.105938
4.216000,-1.089391
4.217000,-1.086846
4.218000,-1.179762
4.219000,-1.546337
4.220000,-2.712250
4.221000,-3.539589
4.222000,-3.402124
4.223000,-2.959179
4.224000,-2.758072
4.225000,-2.567147
4.226000,-3.332118
4.227000,-5.205724
4.228000,-4.758960
4.229000,-3.285023
4.230000,-1.515789
4.231000,-0.209866
4.232000,0.766395
4.233000,0.397274
4.234000,-0.063490
4.235000,-0.396972
4.236000,-0.591715
4.237000,-0.372788
4.238000,-0.305328
4.239000,-0.086401
4.240000,0.313267
4.241000,-0.413519
4.242000,-0.867919
4.243000,-1.069026
4.244000,-1.102120
4.245000,-1.436874
4.246000,-2.271850
4.247000,-4.551489
4.248000,-5.078441
4.249000,-4.195097
4.250000,-2.526416
4.251000,-1.473786
4.252000,-2.522598
4.253000,-2.180207
4.254000,-1.697804
4.255000,-1.672348
4.256000,-1.621434
4.257000,-1.976554
4.258000,-1.211583
4.259000,-0.430065
4.260000,0.343815
4.261000,0.185984
4.262000,-0.389335
4.263000,-0.899740
4.264000,-0.852645
4.265000,-0.333330
4.266000,0.206349
4.267000,0.150345
4.268000,-0.032943
4.269000,-0.260779
4.270000,-0.843735
4.271000,-1.352867
4.272000,-2.056742
4.273000,-3.523042
4.274000,-5.217179
4.275000,-7.438267
4.276000,-8.263061
4.277000,-7.008051
4.278000,-4.874788
4.279000,-2.780982
4.280000,-1.041024
4.281000,0.149072
4.282000,0.823672
4.283000,1.410447
4.284000,1.573369
4.285000,1.424448
4.286000,1.172427
4.287000,1.057873
4.288000,0.725664
4.289000,-1.363050
4.290000,-2.480595
4.291000,-2.635880
4.292000,-2.406770
4.293000,-1.865818
4.294000,-1.538700
4.295000,-1.116121
4.296000,-0.647719
4.297000,-0.375334
4.298000,-0.500071
4.299000,-0.550984
4.300000,-0.580259
4.301000,-0.572622
4.302000,-0.500071
4.303000,-0.475887
4.304000,-0.624808
4.305000,-1.035933
4.306000,-1.094483
4.307000,-1.021931
4.308000,-1.221766
4.309000,-1.321046
4.310000,-1.480150
4.311000,-2.450047
4.312000,-3.637597
4.313000,-3.739423
4.314000,-4.433116
4.315000,-5.413195
4.316000,-5.931237
4.317000,-7.289346
4.318000,-7.169700
4.319000,-7.123878
4.320000,-5.495929
4.321000,-3.142466
4.322000,-1.168307
4.323000,0.291629
4.324000,1.157153
4.325000,1.219522
4.326000,0.143981
4.327000,-0.124586
4.328000,0.285265
4.329000,0.953501
4.330000,1.866120
4.331000,0.215259
4.332000,-0.250596
4.333000,0.390910
4.334000,0.892405
4.335000,1.110059
4.336000,1.202975
4.337000,0.795670
4.338000,0.252171
4.339000,-0.589169
4.340000,-1.559066
4.341000,-2.620606
4.342000,-3.794155
4.343000,-3.635051
4.344000,-3.470856
4.345000,-3.782700
4.346000,-3.388122
4.347000,-3.792882
4.348000,-3.869252
4.349000,-3.306661
4.350000,-2.162387
4.351000,-1.422873
4.352000,-1.191218
4.353000,-0.955744
4.354000,-0.466978
4.355000,-0.104221
4.356000,0.178347
4.357000,0.557651
4.358000,0.051064
4.359000,-0.954471
4.360000,-1.651982
4.361000,-1.986737
4.362000,-1.770355
4.363000,-1.476332
4.364000,-1.163216
4.365000,-0.856464
4.366000,-0.917559
4.367000,-2.357130
4.368000,-2.740252
4.369000,-2.633334
4.370000,-2.676610
4.371000,-2.194208
4.372000,-1.835270
4.373000,-1.974008
4.374000,-2.329128
4.375000,-2.751707
4.376000,-3.197198
4.377000,-5.361009
4.378000,-8.307610
4.379000,-8.965663
4.380000,-8.105230
4.381000,-5.912144
4.382000,-3.245565
4.383000,-0.576441
4.384000,1.205521
4.385000,2.235240
4.386000,2.945480
4.387000,3.390970
4.388000,3.688812
4.389000,3.562802
4.390000,2.829652
4.391000,2.162689
4.392000,2.365069
4.393000,2.469441
4.394000,1.924670
4.395000,1.255161
4.396000,0.043427
4.397000,-1.424146
4.398000,-2.904447
4.399000,-4.887516
4.400000,-5.950329
4.401000,-4.870969
4.402000,-2.593876
4.403000,-0.591715
4.404000,-0.039307
4.405000,0.164346
4.406000,-0.296418
4.407000,-1.219220
4.408000,-2.506051
4.409000,-3.733059
4.410000,-4.869696
4.411000,-4.994434
4.412000,-4.481483
4.413000,-3.339755
4.414000,-2.528962
4.415000,-2.167478
4.416000,-2.139476
4.417000,-2.098746
4.418000,-1.876000
4.419000,-1.816177
4.420000,-1.532336
4.421000,-1.327411
4.422000,-1.630344
4.423000,-1.205219
4.424000,-0.852645
4.425000,-0.888284
4.426000,-1.417782
4.427000,-2.274396
4.428000,-2.177661
4.429000,-1.612525
4.430000,-1.145396
4.431000,-0.913741
4.432000,-0.601898
4.433000,-0.703724
4.434000,-0.442794
4.435000,-0.340967
4.436000,-0.543347
4.437000,-0.629900
4.438000,-0.567531
4.439000,-0.825916
4.440000,-0.799186
4.441000,-0.794095
4.442000,-1.471240
4.443000,-1.397416
4.444000,-1.417782
4.445000,-1.794539
4.446000,-2.176388
4.447000,-2.652427
4.448000,-2.946450
4.449000,-3.711421
4.450000,-3.814520
4.451000,-3.762334
4.452000,-3.601958
4.453000,-3.777608
4.454000,-2.610423
4.455000,-2.198026
4.456000,-2.532781
4.457000,-2.546782
4.458000,-2.518780
4.459000,-2.110201
4.460000,-1.627799
4.461000,-1.532336
4.462000,-1.884910
4.463000,-1.912912
4.464000,-2.833169
4.465000,-3.652871
4.466000,-2.905720
4.467000,-1.534882
4.468000,-0.026578
4.469000,1.024779
4.470000,1.262798
4.471000,1.265344
4.472000,0.654386
4.473000,0.364180
4.474000,-0.178045
4.475000,-0.358787
4.476000,-1.326138
4.477000,-1.321046
4.478000,-2.604059
4.479000,-4.991888
4.480000,-3.922711
4.481000,-1.826360
4.482000,-0.166590
4.483000,0.669660
4.484000,1.122787
4.485000,1.227159
4.486000,1.255161
4.487000,0.875858
4.488000,0.401092
4.489000,-0.239141
4.490000,-1.178490
4.491000,-1.602342
4.492000,-2.037650
4.493000,-2.280760
4.494000,-3.655417
4.495000,-4.727140
4.496000,-4.471301
4.497000,-3.694874
4.498000,-3.678328
4.499000,-3.460674
4.500000,-3.372848
4.501000,-2.819167
4.502000,-2.013466
4.503000,-1.271406
4.504000,-0.805550
4.505000,-1.328683
4.506000,-1.636708
4.507000,-2.120384
4.508000,-2.124202
4.509000,-2.605332
4.510000,-3.754697
4.511000,-3.302843
4.512000,-2.215846
4.513000,-1.215402
4.514000,-0.361333
4.515000,0.655658
4.516000,1.316257
4.517000,1.015869
4.518000,0.193621
4.519000,0.063793
4.520000,-0.072400
4.521000,0.142708
4.522000,0.236897
4.523000,0.435459
4.524000,0.189803
4.525000,-0.232777
4.526000,-0.598079
4.527000,-1.179762
4.528000,-2.094927
4.529000,-4.100907
4.530000,-5.100079
4.531000,-5.277002
4.532000,-5.091169
4.533000,-4.289286
4.534000,-3.708876
4.535000,-2.886627
4.536000,-1.909094
4.537000,-1.168307
4.538000,-0.748273
4.539000,-0.440248
4.540000,-0.132223
4.541000,-0.119495
4.542000,0.432913
4.543000,0.618746
4.544000,0.768940
4.545000,0.634020
4.546000,-0.109312
4.547000,-0.841190
4.548000,-1.155579
4.549000,-1.578158
4.550000,-2.097473
4.551000,-2.604059
4.552000,-2.800075
4.553000,-3.295206
4.554000,-4.596038
4.555000,-5.459017
4.556000,-4.862060
4.557000,-4.738595
4.558000,-4.416569
4.559000,-4.393658
4.560000,-4.118727
4.561000,-5.144628
4.562000,-5.462835
4.563000,-3.500131
4.564000,-1.158124
4.565000,0.434186
4.566000,1.227159
4.567000,1.545367
4.568000,1.978129
4.569000,1.537730
4.570000,0.906406
4.571000,0.889859
4.572000,-0.482252
4.573000,-1.117394
4.574000,-0.333330
4.575000,0.604745
4.576000,1.374807
4.577000,1.313712
4.578000,1.148244
4.579000,0.407457
4.580000,-0.768638
4.581000,-1.561611
4.582000,-1.890001
4.583000,-2.495869
4.584000,-4.010536
4.585000,-4.192551
4.586000,-4.020719
4.587000,-3.683419
4.588000,-3.100463
4.589000,-3.022820
4.590000,-3.151376
4.591000,-2.783528
4.592000,-2.889173
4.593000,-1.819996
4.594000,-0.641355
4.595000,0.030699
4.596000,0.170710
4.597000,-0.050762
4.598000,-0.575168
4.599000,-1.648164
4.600000,-2.240030
4.601000,-2.504778
4.602000,-2.751707
4.603000,-2.537872
4.604000,-2.045287
4.605000,-1.453421
4.606000,-1.085573
4.607000,-0.909922
4.608000,-0.790276
4.609000,-0.857736
4.610000,-0.767365
4.611000,-0.822097
4.612000,-1.315955
4.613000,-1.559066
4.614000,-1.967644
4.615000,-2.019830
4.616000,-1.606160
4.617000,-1.163216
4.618000,-0.859009
4.619000,-1.126303
4.620000,-2.339310
4.621000,-3.514133
4.622000,-3.338482
4.623000,-2.685520
4.624000,-1.855635
4.625000,-1.085573
4.626000,-0.099130
4.627000,-0.082583
4.628000,-0.170408
4.629000,0.059974
4.630000,0.103250
4.631000,0.263627
4.632000,0.244534
4.633000,0.292902
4.634000,-0.049489
4.635000,-0.076219
4.636000,-0.260779
4.637000,-0.820824
4.638000,-1.441965
4.639000,-2.294761
4.640000,-3.986352
4.641000,-5.559570
4.642000,-5.904507
4.643000,-5.582481
4.644000,-4.792054
4.645000,-4.260011
4.646000,-3.481039
4.647000,-3.113191
4.648000,-2.242575
4.649000,-1.672348
4.650000,-1.301954
4.651000,-1.853089
4.652000,-3.958350
4.653000,-4.498030
4.654000,-3.188288
4.655000,-1.629071
4.656000,-0.684631
4.657000,0.168165
4.658000,0.641657
4.659000,0.772759
4.660000,0.907679
4.661000,0.659477
4.662000,0.066338
4.663000,-0.575168
4.664000,-1.122485
4.665000,-1.734716
4.666000,-1.184854
4.667000,-0.748273
4.668000,-0.381698
4.669000,-0.388062
4.670000,-0.433884
4.671000,-2.222210
4.672000,-4.970250
4.673000,-7.658467
4.674000,-8.830743
4.675000,-7.195157
4.676000,-4.636769
4.677000,-2.014739
4.678000,0.235625
4.679000,1.420629
4.680000,1.948854
4.681000,2.085047
4.682000,1.570823
4.683000,0.347634
4.684000,-0.321875
4.685000,-0.708815
4.686000,-1.038478
4.687000,-0.856464
4.688000,-0.648992
4.689000,-0.206047
4.690000,0.226715
4.691000,0.342542
4.692000,0.082885
4.693000,-0.771184
4.694000,-0.781367
4.695000,-0.372788
4.696000,-0.032943
4.697000,0.072702
4.698000,0.100705
4.699000,-1.399962
4.700000,-3.519224
4.701000,-4.324925
4.702000,-3.819612
4.703000,-3.255748
4.704000,-3.460674
4.705000,-3.097917
4.706000,-2.635880
4.707000,-2.119111
4.708000,-1.589614
4.709000,-1.231948
4.710000,-0.996475
4.711000,-1.164488
4.712000,-1.256132
4.713000,-1.663438
4.714000,-2.093654
4.715000,-1.932005
4.716000,-2.008375
4.717000,-2.418226
4.718000,-1.506880
4.719000,-0.664266
4.720000,-0.076219
4.721000,0.126161
4.722000,-0.295146
4.723000,-0.706270
4.724000,-1.123758
4.725000,-1.612525
4.726000,-2.092381
4.727000,-2.161114
4.728000,-2.602786
4.729000,-2.909538
4.730000,-2.828077
4.731000,-3.054641
4.732000,-4.356746
4.733000,-4.289286
4.734000,-3.706330
4.735000,-2.828077
4.736000,-2.270578
4.737000,-1.942188
4.738000,-1.867091
4.739000,-1.984191
4.740000,-2.750435
4.741000,-4.386021
4.742000,-5.798862
4.743000,-5.737767
4.744000,-4.825147
4.745000,-3.230291
4.746000,-1.375778
4.747000,0.704026
4.748000,2.496171
4.749000,3.208955
4.750000,2.890748
4.751000,2.478351
4.752000,2.251787
4.753000,1.957764
4.754000,2.177963
4.755000,1.901759
4.756000,1.596280
4.757000,0.434186
4.758000,-0.936652
4.759000,-2.418226
4.760000,-3.273568
4.761000,-3.678328
4.762000,-3.218836
4.763000,-2.755526
4.764000,-3.818339
4.765000,-3.724149
4.766000,-3.118282
4.767000,-2.254031
4.768000,-1.797085
4.769000,-1.654528
4.770000,-1.261223
4.771000,-1.083027
4.772000,-0.898467
4.773000,-0.729181
4.774000,-0.703724
4.775000,-1.081754
4.776000,-1.228130
4.777000,-0.918832
4.778000,-1.352867
4.779000,-1.463603
4.780000,-1.443238
4.781000,-1.191218
4.782000,-0.735545
4.783000,-0.521709
4.784000,-0.430065
4.785000,-0.666812
4.786000,-1.569248
4.787000,-2.196754
4.788000,-2.703340
4.789000,-3.048277
4.790000,-3.596867
4.791000,-4.219280
4.792000,-4.732231
4.793000,-6.012698
4.794000,-7.095876
4.795000,-5.882869
4.796000,-4.034720
4.797000,-2.083472
4.798000,-1.643072
4.799000,-1.769083
4.800000,-1.314682
4.801000,-1.298136
4.802000,-1.007930
4.803000,-0.718998
4.804000,-0.619717
4.805000,-0.758456
4.806000,-0.409700
4.807000,0.235625
4.808000,1.232250
4.809000,1.533911
4.810000,1.209340
4.811000,0.898769
4.812000,0.886041
4.813000,1.124060
4.814000,1.216977
4.815000,0.945864
4.816000,0.416366
4.817000,-0.312965
4.818000,-0.839917
4.819000,-1.331229
4.820000,-1.555247
4.821000,-1.867091
4.822000,-2.150932
4.823000,-2.863716
4.824000,-3.640143
4.825000,-6.240534
4.826000,-6.642749
4.827000,-6.082703
4.828000,-5.854867
4.829000,-5.077168
4.830000,-4.405114
4.831000,-4.930792
4.832000,-4.372020
4.833000,-3.045731
4.834000,-2.072016
4.835000,-1.485242
4.836000,-0.486070
4.837000,0.715481
4.838000,1.886485
4.839000,2.295064
4.840000,1.782113
4.841000,1.326440
4.842000,0.818581
4.843000,0.445642
4.844000,-0.599352
4.845000,-0.939197
4.846000,-0.693541
4.847000,-0.447885
4.848000,-0.696087
4.849000,-1.230676
4.850000,-1.760173
4.851000,-2.406770
4.852000,-3.773790
4.853000,-4.358019
4.854000,-3.342301
4.855000,-1.651982
4.856000,-0.472069
4.857000,0.233079
4.858000,0.502919
4.859000,0.454551
4.860000,0.026880
4.861000,-0.053308
4.862000,-0.086401
4.863000,-0.318056
4.864000,-2.610423
4.865000,-3.809429
4.866000,-3.348665
4.867000,-2.560783
4.868000,-1.235767
4.869000,-0.570077
4.870000,-0.576441
4.871000,-0.846281
4.872000,-1.201400
4.873000,-1.480150
4.874000,-3.044458
4.875000,-3.456855
4.876000,-3.371576
4.877000,-3.374121
4.878000,-2.782255
4.879000,-3.590502
4.880000,-3.787791
4.881000,-3.496313
4.882000,-2.886627
4.883000,-1.946006
4.884000,-1.701623
4.885000,-1.735989
4.886000,-1.583249
4.887000,-0.932833
4.888000,-0.505162
4.889000,-0.085129
4.890000,0.166892
4.891000,0.606018
4.892000,0.379454
4.893000,-0.520436
4.894000,-1.027023
4.895000,-1.394871
4.896000,-2.164933
4.897000,-2.433500
4.898000,-2.816622
4.899000,-3.207381
4.900000,-3.374121
4.901000,-3.021547
4.902000,-2.377495
4.903000,-2.091109
4.904000,-3.262112
4.905000,-3.100463
4.906000,-2.374950
4.907000,-1.813632
4.908000,-1.366868
4.909000,-0.619717
4.910000,-0.260779
4.911000,0.333632
4.912000,0.514374
4.913000,0.483826
4.914000,-1.142850
4.915000,-5.092442
4.916000,-6.560015
4.917000,-6.165437
4.918000,-5.255364
4.919000,-4.037266
4.920000,-2.480595
4.921000,-1.229403
4.922000,0.006515
4.923000,0.882222
4.924000,1.294619
4.925000,1.449904
4.926000,1.479179
4.927000,1.775749
4.928000,2.696005
4.929000,3.061307
4.930000,2.804196
4.931000,1.733745
4.932000,0.663295
4.933000,-1.061389
4.934000,-2.722432
4.935000,-3.999081
4.936000,-4.021992
4.937000,-2.829350
4.938000,-1.962553
4.939000,-2.119111
4.940000,-2.549327
4.941000,-2.848442
4.942000,-2.471685
4.943000,-1.621434
4.944000,-1.329956
4.945000,-1.462331
4.946000,-1.953643
4.947000,-2.275669
4.948000,-2.262941
4.949000,-2.345675
4.950000,-2.026194
4.951000,-3.286296
4.952000,-3.794155
4.953000,-3.576501
4.954000,-2.700794
4.955000,-2.274396
4.956000,-2.241303
4.957000,-1.816177
4.958000,-1.336320
4.959000,-0.899740
4.960000,-0.584078
4.961000,-0.164044
4.962000,-0.052035
4.963000,-0.302782
4.964000,-0.417337
4.965000,-0.951926
4.966000,-1.266315
4.967000,-1.284134
4.968000,-1.770355
4.969000,-3.039367
4.970000,-5.590118
4.971000,-6.234170
4.972000,-5.031346
4.973000,-3.664326
4.974000,-2.670246
4.975000,-1.700350
4.976000,-0.865373
4.977000,-0.862828
4.978000,-0.470796
4.979000,0.038336
4.980000,0.090522
4.981000,0.096886
4.982000,0.252171
4.983000,0.663295
4.984000,0.718027
4.985000,0.523284
4.986000,0.068884
4.987000,-0.153861
4.988000,0.105796
4.989000,0.418912
4.990000,0.185984
4.991000,-0.347332
4.992000,-1.063935
4.993000,-2.161114
4.994000,-2.549327
4.995000,-3.005001
4.996000,-3.571410
4.997000,-3.946895
4.998000,-4.893880
4.999000,-5.635940
5.000000,-4.793327
5.001000,-3.576501
5.002000,-2.339310
5.003000,-1.387234
5.004000,-1.132668
5.005000,-0.996475
5.006000,-0.652811
5.007000,-0.568804
5.008000,-0.721544
5.009000,-0.435157
5.010000,-0.283690
5.011000,-0.549712
5.012000,-0.605716
5.013000,-0.909922
5.014000,-1.550156
5.015000,-3.213745
5.016000,-3.048277
5.017000,-2.041468
5.018000,-1.380869
5.019000,-2.060561
5.020000,-4.187460
5.021000,-5.690672
5.022000,-6.194713
5.023000,-5.894325
5.024000,-4.148002
5.025000,-1.886183
5.026000,-0.104221
5.027000,1.295892
5.028000,2.344704
5.029000,2.834743
5.030000,2.794013
5.031000,2.134687
5.032000,1.467724
5.033000,1.284436
5.034000,1.386263
5.035000,1.507182
5.036000,1.304802
5.037000,0.701480
5.038000,-0.038034
5.039000,-0.656629
5.040000,-1.102120
5.041000,-1.595978
5.042000,-1.991828
5.043000,-2.285852
5.044000,-2.609150
5.045000,-2.946450
5.046000,-3.128465
5.047000,-3.986352
5.048000,-4.864605
5.049000,-4.753869
5.050000,-4.139092
5.051000,-3.461947
5.052000,-2.868808
5.053000,-2.373677
5.054000,-2.054197
5.055000,-1.711805
5.056000,-1.817450
5.057000,-1.923095
5.058000,-2.060561
5.059000,-2.854807
5.060000,-3.622323
5.061000,-3.581593
5.062000,-3.105554
5.063000,-2.493323
5.064000,-2.383860
5.065000,-2.447501
5.066000,-2.871353
5.067000,-2.890446
5.068000,-2.386405
5.069000,-1.565430
5.070000,-0.799186
5.071000,-0.570077
5.072000,-0.290054
5.073000,-0.734272
5.074000,-1.608706
5.075000,-2.125475
5.076000,-2.497141
5.077000,-3.325754
5.078000,-3.243020
5.079000,-3.106827
5.080000,-2.674065
5.081000,-2.261668
5.082000,-0.766093
5.083000,0.207622
5.084000,0.964956
5.085000,1.533911
5.086000,1.663740
5.087000,1.188974
5.088000,0.385819
5.089000,-0.811914
5.090000,-0.390608
5.091000,0.790578
5.092000,1.545367
5.093000,1.705743
5.094000,1.050236
5.095000,0.430368
5.096000,0.020516
5.097000,-0.220049
5.098000,-1.005385
5.099000,-1.766537
5.100000,-2.484413
5.101000,-2.773345
5.102000,-3.083916
5.103000,-3.523042
5.104000,-3.330845
5.105000,-3.087735
5.106000,-3.221382
5.107000,-4.103453
5.108000,-5.317733
5.109000,-5.126808
5.110000,-4.405114
5.111000,-3.342301
5.112000,-2.266759
5.113000,-1.322319
5.114000,-1.215402
5.115000,-1.743626
5.116000,-1.589614
5.117000,-1.186127
5.118000,-0.941743
5.119000,-0.817006
5.120000,-0.525528
5.121000,-0.787731
5.122000,-0.444067
5.123000,-0.354969
5.124000,-0.515345
5.125000,-0.740636
5.126000,-0.648992
5.127000,-0.684631
5.128000,-0.832280
5.129000,-0.986292
5.130000,-0.973564
5.131000,-0.875556
5.132000,-0.776275
5.133000,-1.438147
5.134000,-1.996919
5.135000,-2.703340
5.136000,-2.789892
5.137000,-3.365211
5.138000,-3.451764
5.139000,-3.423762
5.140000,-2.876445
5.141000,-2.042741
5.142000,-2.411862
5.143000,-3.605776
5.144000,-3.377940
5.145000,-3.142466
5.146000,-2.782255
5.147000,-1.564157
5.148000,-0.342240
5.149000,0.267445
5.150000,0.569106
5.151000,0.800761
5.152000,0.555105
5.153000,-0.659175
5.154000,-2.044014
5.155000,-2.499687
5.156000,-2.584967
5.157000,-1.962553
5.158000,-1.216674
5.159000,-0.856464
5.160000,-0.917559
5.161000,-2.167478
5.162000,-3.190834
5.163000,-2.219664
5.164000,-0.991384
5.165000,0.015425
5.166000,0.450733
5.167000,0.337451
5.168000,0.003970
5.169000,-0.124586
5.170000,-0.878102
5.171000,-1.361777
5.172000,-1.710532
5.173000,-2.059288
5.174000,-2.091109
5.175000,-1.982918
5.176000,-2.794984
5.177000,-4.001626
5.178000,-3.334664
5.179000,-1.980372
5.180000,-1.168307
5.181000,-1.038478
5.182000,-0.971018
5.183000,-1.009203
5.184000,-1.006657
5.185000,-1.051207
5.186000,-1.123758
5.187000,-1.809813
5.188000,-2.709704
5.189000,-3.453037
5.190000,-3.843796
5.191000,-4.746232
5.192000,-4.859514
5.193000,-4.436934
5.194000,-3.030457
5.195000,-1.856908
5.196000,-1.239585
5.197000,-0.533165
5.198000,-0.269689
5.199000,-0.390608
5.200000,-0.404609
5.201000,-0.666812
5.202000,-0.991384
5.203000,-1.529791
5.204000,-2.976998
5.205000,-5.562116
5.206000,-7.412811
5.207000,-7.528638
5.208000,-6.156528
5.209000,-4.718230
5.210000,-2.339310
5.211000,0.496555
5.212000,2.149961
5.213000,2.942934
5.214000,2.293791
5.215000,1.750292
5.216000,2.233968
5.217000,2.666730
5.218000,2.762192
5.219000,2.776193
5.220000,2.736736
5.221000,2.632363
5.222000,1.202975
5.223000,-0.295146
5.224000,-1.235767
5.225000,-1.640527
5.226000,-1.659619
5.227000,-1.601069
5.228000,-1.468695
5.229000,-1.181035
5.230000,-1.322319
5.231000,-1.720715
5.232000,-1.632890
5.233000,-1.696531
5.234000,-2.246394
5.235000,-3.682146
5.236000,-6.416185
5.237000,-6.234170
5.238000,-4.350382
5.239000,-2.556964
5.240000,-0.781367
5.241000,-0.880647
5.242000,-1.993101
5.243000,-2.540418
5.244000,-3.411033
5.245000,-3.108100
5.246000,-3.040640
5.247000,-2.653699
5.248000,-2.010920
5.249000,-1.439420
5.250000,-0.847554
5.251000,-0.671903
5.252000,-0.456795
5.253000,-0.576441
5.254000,-0.837371
5.255000,-1.335048
5.256000,-1.385961
5.257000,-0.682086
5.258000,-0.086401
5.259000,0.058701
5.260000,-0.083856
5.261000,-0.029124
5.262000,-0.260779
5.263000,-1.010476
5.264000,-1.960007
5.265000,-2.513688
5.266000,-2.719887
5.267000,-3.071188
5.268000,-2.934995
5.269000,-3.399578
5.270000,-4.265102
5.271000,-3.813248
5.272000,-3.180651
5.273000,-2.481867
5.274000,-3.087735
5.275000,-5.226089
5.276000,-5.527750
5.277000,-5.291003
5.278000,-4.501849
5.279000,-3.012638
5.280000,-1.573067
5.281000,-1.365596
5.282000,-0.939197
5.283000,0.049791
5.284000,1.275527
5.285000,2.023951
5.286000,2.087592
5.287000,1.666285
5.288000,1.444813
5.289000,1.033689
5.290000,0.879677
5.291000,0.429095
5.292000,-0.603170
5.293000,-1.415236
5.294000,-1.699077
5.295000,-1.972735
5.296000,-2.280760
5.297000,-2.357130
5.298000,-2.049105
5.299000,-1.636708
5.300000,-1.216674
5.301000,-1.145396
5.302000,-1.407599
5.303000,-1.415236
5.304000,-1.896366
5.305000,-2.993545
5.306000,-4.168367
5.307000,-3.402124
5.308000,-1.766537
5.309000,-0.030397
5.310000,0.272537
5.311000,0.277628
5.312000,0.463461
5.313000,0.692571
5.314000,0.631475
5.315000,0.009061
5.316000,-1.454694
5.317000,-4.080542
5.318000,-6.969866
5.319000,-8.770920
5.320000,-7.193884
5.321000,-5.103897
5.322000,-3.159013
5.323000,-1.682530
5.324000,-0.650265
5.325000,0.007788
5.326000,0.268718
5.327000,0.322177
5.328000,0.399820
5.329000,0.384546
5.330000,0.227988
5.331000,0.681115
5.332000,0.780396
5.333000,0.267445
5.334000,0.297993
5.335000,0.140162
5.336000,-0.320602
5.337000,-1.681257
5.338000,-3.575228
5.339000,-5.240090
5.340000,-5.149719
5.341000,-4.490393
5.342000,-4.610039
5.343000,-3.927802
5.344000,-2.523871
5.345000,-1.314682
5.346000,-0.591715
5.347000,-0.657902
5.348000,-0.931561
5.349000,-1.225584
5.350000,-1.371960
5.351000,-1.209037
5.352000,-0.911195
5.353000,-0.794095
5.354000,-1.690167
5.355000,-2.769527
5.356000,-2.187844
5.357000,-1.347776
5.358000,-0.214957
5.359000,0.990413
5.360000,1.407901
5.361000,1.132970
5.362000,0.673478
5.363000,0.100705
5.364000,-0.298964
5.365000,-0.892103
5.366000,-1.272679
5.367000,-1.545065
5.368000,-1.860726
5.369000,-2.033831
5.370000,-2.428409
5.371000,-2.843351
5.372000,-2.969361
5.373000,-2.984635
5.374000,-2.558237
5.375000,-2.614242
5.376000,-2.677883
5.377000,-2.434773
5.378000,-2.117838
5.379000,-3.316844
5.380000,-3.372848
5.381000,-2.509870
5.382000,-1.693986
5.383000,-0.965927
5.384000,-1.363050
5.385000,-2.362221
5.386000,-4.014355
5.387000,-4.183641
5.388000,-3.444127
5.389000,-2.763163
5.390000,-3.545953
5.391000,-3.979988
5.392000,-3.321935
5.393000,-2.037650
5.394000,-0.390608
5.395000,0.505465
5.396000,0.956046
5.397000,0.879677
5.398000,0.966229
5.399000,0.972593
5.400000,0.187257
5.401000,0.065065
5.402000,0.382000
5.403000,0.412548
5.404000,0.275082
5.405000,-0.073673
5.406000,-0.010032
5.407000,-0.124586
5.408000,-0.441521
5.409000,-1.407599
5.410000,-1.713078
5.411000,-1.821269
5.412000,-1.681257
5.413000,-1.753809
5.414000,-3.432671
5.415000,-5.732675
5.416000,-6.590563
5.417000,-6.184530
5.418000,-4.911700
5.419000,-4.592220
5.420000,-3.940531
5.421000,-3.230291
5.422000,-2.110201
5.423000,-1.154306
5.424000,-0.554803
5.425000,0.119797
5.426000,0.278901
5.427000,0.341269
5.428000,1.118969
5.429000,1.835572
5.430000,1.471543
5.431000,0.758758
5.432000,0.734574
5.433000,0.595835
5.434000,0.238170
5.435000,-0.278599
5.436000,-0.940470
5.437000,-1.303227
5.438000,-1.475059
5.439000,-1.767810
5.440000,-1.786902
5.441000,-1.971463
5.442000,-2.315127
5.443000,-3.361393
5.444000,-4.253647
5.445000,-4.527305
5.446000,-3.463219
5.447000,-2.316400
5.448000,-1.719442
5.449000,-1.256132
5.450000,-1.230676
5.451000,-1.510698
5.452000,-2.862444
5.453000,-3.409760
5.454000,-3.080098
5.455000,-2.252758
5.456000,-2.380041
5.457000,-3.563773
5.458000,-4.167094
5.459000,-3.482312
5.460000,-2.268032
5.461000,-1.173398
5.462000,-0.447885
5.463000,-0.114404
5.464000,0.208895
5.465000,0.454551
5.466000,0.421458
5.467000,-0.668085
5.468000,-0.929015
5.469000,-0.139860
5.470000,0.594563
5.471000,0.752394
5.472000,-0.025306
5.473000,-0.948107
5.474000,-2.523871
5.475000,-3.948168
5.476000,-3.552317
5.477000,-2.492050
5.478000,-1.873455
5.479000,-1.803449
5.480000,-1.907821
5.481000,-1.757627
5.482000,-2.590058
5.483000,-2.927358
5.484000,-2.485686
5.485000,-2.164933
5.486000,-2.593876
5.487000,-4.331289
5.488000,-4.431843
5.489000,-4.307106
5.490000,-3.759789
5.491000,-2.591331
5.492000,-1.674893
5.493000,-0.815733
5.494000,0.159255
5.495000,1.085875
5.496000,1.300983
5.497000,1.484271
5.498000,1.404083
5.499000,0.202531
5.500000,0.149072
5.501000,0.376909
5.502000,0.226715
5.503000,-0.092766
5.504000,-0.875556
5.505000,-1.845452
5.506000,-2.083472
5.507000,-2.120384
5.508000,-2.609150
5.509000,-3.055914
5.510000,-2.954087
5.511000,-2.606605
5.512000,-2.003283
5.513000,-1.668529
5.514000,-0.955744
5.515000,-0.736818
5.516000,-0.720271
5.517000,-0.277326
5.518000,-0.404609
5.519000,-1.172125
5.520000,-1.777992
5.521000,-2.394042
5.522000,-2.518780
5.523000,-3.442854
5.524000,-3.347392
5.525000,-2.896810
5.526000,-2.489504
5.527000,-2.000738
5.528000,-1.636708
5.529000,-2.521325
5.530000,-2.507324
5.531000,-1.984191
5.532000,-1.511971
5.533000,-0.902285
5.534000,-0.862828
5.535000,-0.409700
5.536000,-0.274780
5.537000,-0.592988
5.538000,-1.335048
5.539000,-1.571794
5.540000,-2.507324
5.541000,-3.251930
5.542000,-2.530235
5.543000,-1.760173
5.544000,-1.291771
5.545000,-0.993929
5.546000,-1.621434
5.547000,-4.206552
5.548000,-6.691116
5.549000,-7.415356
5.550000,-6.334724
5.551000,-4.736049
5.552000,-3.785245
5.553000,-1.550156
5.554000,0.705299
5.555000,2.283608
5.556000,3.373151
5.557000,3.975199
5.558000,3.739726
5.559000,2.923842
5.560000,2.665457
5.561000,2.680731
5.562000,2.343431
5.563000,1.038780
5.564000,-0.321875
5.565000,-0.983747
5.566000,-1.776720
5.567000,-1.907821
5.568000,-1.915458
5.569000,-1.946006
5.570000,-2.583694
5.571000,-3.955805
5.572000,-4.459845
5.573000,-3.635051
5.574000,-2.899356
5.575000,-2.413135
5.576000,-2.330401
5.577000,-2.747889
5.578000,-3.688510
5.579000,-5.182813
5.580000,-5.842139
5.581000,-5.647396
5.582000,-5.747949
5.583000,-5.545569
5.584000,-4.011809
5.585000,-2.481867
5.586000,-1.276497
5.587000,-0.489889
5.588000,0.171983
5.589000,0.692571
5.590000,0.915316
5.591000,0.898769
5.592000,1.208067
5.593000,1.183883
5.594000,0.546195
5.595000,0.429095
5.596000,0.753666
5.597000,0.809671
5.598000,-0.305328
5.599000,-1.413963
5.600000,-2.203118
5.601000,-2.792438
5.602000,-2.985908
5.603000,-3.033003
5.604000,-3.045731
5.605000,-3.063551
5.606000,-3.649053
5.607000,-4.200188
5.608000,-4.380930
5.609000,-3.607049
5.610000,-3.553590
5.611000,-2.866262
5.612000,-2.526416
5.613000,-2.732615
5.614000,-1.598523
5.615000,-0.433884
5.616000,0.850401
5.617000,1.754111
5.618000,2.433802
5.619000,2.319247
5.620000,1.140607
5.621000,-0.544620
5.622000,-1.258678
5.623000,-1.273952
5.624000,-1.033387
5.625000,-0.459341
5.626000,-0.027851
5.627000,0.550014
5.628000,0.907679
5.629000,1.046417
5.630000,-0.030397
5.631000,-0.762274
5.632000,-0.981201
5.633000,-1.099574
5.634000,-1.523426
5.635000,-2.367313
5.636000,-2.759344
5.637000,-3.016456
5.638000,-3.208653
5.639000,-3.343573
5.640000,-3.845068
5.641000,-3.834886
5.642000,-4.354200
5.643000,-4.883698
5.644000,-4.262557
5.645000,-3.535771
5.646000,-3.258294
5.647000,-2.442410
5.648000,-2.168751
5.649000,-1.637981
5.650000,-1.044842
5.651000,-1.531063
5.652000,-1.487787
5.653000,-1.002839
5.654000,-2.072016
5.655000,-2.181480
5.656000,-1.942188
5.657000,-0.971018
5.658000,-0.489889
5.659000,-0.871737
5.660000,-0.923924
5.661000,-1.566703
5.662000,-2.395315
5.663000,-2.760617
5.664000,-2.527689
5.665000,-2.490777
5.666000,-2.476776
5.667000,-2.159841
5.668000,-2.084744
5.669000,-1.825087
5.670000,-1.685076
5.671000,-2.308763
5.672000,-2.013466
5.673000,-1.552702
5.674000,-0.881920
5.675000,-0.142406
5.676000,-0.291327
5.677000,-1.332502
5.678000,-2.713522
5.679000,-2.352039
5.680000,-1.588341
5.681000,-0.817006
5.682000,-0.138587
5.683000,0.544922
5.684000,1.182610
5.685000,1.154608
5.686000,1.152062
5.687000,0.609837
5.688000,0.474917
5.689000,-0.339695
5.690000,-2.514961
5.691000,-2.863716
5.692000,-3.642688
5.693000,-4.047448
5.694000,-2.586239
5.695000,-0.929015
5.696000,0.165619
5.697000,0.604745
5.698000,0.297993
5.699000,-0.276053
5.700000,-0.851372
5.701000,-0.941743
5.702000,-0.633718
5.703000,-0.902285
5.704000,-0.951926
5.705000,-0.978655
5.706000,-1.511971
5.707000,-2.951542
5.708000,-3.243020
5.709000,-3.360120
5.710000,-3.482312
5.711000,-4.160730
5.712000,-4.303287
5.713000,-4.895153
5.714000,-6.139981
5.715000,-5.693217
5.716000,-4.021992
5.717000,-2.582421
5.718000,-1.729625
5.719000,-1.186127
5.720000,-0.887011
5.721000,-0.740636
5.722000,-0.740636
5.723000,-0.692268
5.724000,-0.545893
5.725000,-0.927742
5.726000,-1.065208
5.727000,-0.718998
5.728000,-1.021931
5.729000,-2.684247
5.730000,-4.028356
5.731000,-3.431399
5.732000,-1.907821
5.733000,-0.811914
5.734000,-0.582805
5.735000,-0.085129
5.736000,0.347634
5.737000,0.583107
5.738000,1.145698
5.739000,0.002697
5.740000,-2.210755
5.741000,-2.945178
5.742000,-2.862444
5.743000,-2.595149
5.744000,-2.232393
5.745000,-1.907821
5.746000,-1.732171
5.747000,-1.379597
5.748000,-0.969745
5.749000,-0.613353
5.750000,-0.330785
5.751000,0.119797
5.752000,0.802034
5.753000,1.062964
5.754000,-0.445339
5.755000,-0.986292
5.756000,-0.528073
5.757000,0.058701
5.758000,0.427822
5.759000,-0.157680
5.760000,-0.693541
5.761000,-1.238313
5.762000,-1.559066
5.763000,-1.752536
5.764000,-2.360949
5.765000,-3.155194
5.766000,-3.334664
5.767000,-4.844240
5.768000,-4.401295
5.769000,-3.622323
5.770000,-2.880263
5.771000,-2.346947
5.772000,-2.238757
5.773000,-3.598139
5.774000,-4.949885
5.775000,-4.140365
5.776000,-2.600241
5.777000,-1.063935
5.778000,-0.393153
5.779000,-0.027851
5.780000,-0.077492
5.781000,-0.363878
5.782000,-0.407155
5.783000,-0.024033
5.784000,0.202531
5.785000,-0.878102
5.786000,-2.130566
5.787000,-5.171357
5.788000,-6.523103
5.789000,-6.376727
5.790000,-4.820056
5.791000,-3.635051
5.792000,-2.591331
5.793000,-2.240030
5.794000,-1.691440
5.795000,-0.932833
5.796000,-0.472069
5.797000,-0.267143
5.798000,-0.002395
5.799000,0.096886
5.800000,0.229260
5.801000,0.532194
5.802000,0.793124
5.803000,0.477462
5.804000,-0.232777
5.805000,-0.888284
5.806000,-2.280760
5.807000,-2.446228
5.808000,-2.373677
5.809000,-2.623152
5.810000,-3.035548
5.811000,-2.696976
5.812000,-1.937096
5.813000,-0.935379
5.814000,-0.343513
5.815000,-0.402063
5.816000,-0.604443
5.817000,-0.101675
5.818000,0.264900
5.819000,0.866948
5.820000,1.174973
5.821000,1.041326
5.822000,0.716754
5.823000,0.355271
5.824000,-0.689723
5.825000,-1.884910
5.826000,-2.402952
5.827000,-4.606221
5.828000,-6.730574
5.829000,-5.582481
5.830000,-3.790337
5.831000,-1.592159
5.832000,0.047246
5.833000,0.639112
5.834000,0.749848
5.835000,0.038336
5.836000,-0.283690
5.837000,-0.259506
5.838000,-0.480979
5.839000,-0.749546
5.840000,-0.673176
5.841000,-1.308318
5.842000,-1.524699
5.843000,-1.602342
5.844000,-2.285852
5.845000,-3.295206
5.846000,-3.883253
5.847000,-5.088623
5.848000,-5.293549
5.849000,-4.589674
5.850000,-3.600685
5.851000,-2.311308
5.852000,-1.664711
5.853000,-1.379597
5.854000,-0.978655
5.855000,-0.656629
5.856000,-0.750819
5.857000,-1.243404
5.858000,-1.631617
5.859000,-2.637153
5.860000,-3.239201
5.861000,-2.604059
5.862000,-2.396588
5.863000,-2.383860
5.864000,-2.007102
5.865000,-1.476332
5.866000,-1.706714
5.867000,-1.960007
5.868000,-1.664711
5.869000,-1.439420
5.870000,-1.399962
5.871000,-1.286680
5.872000,-1.084300
5.873000,-1.789448
5.874000,-1.832724
5.875000,-1.032114
5.876000,-0.332058
5.877000,-0.012577
5.878000,-0.115676
5.879000,-0.486070
5.880000,-0.576441
5.881000,-0.360060
5.882000,-0.652811
5.883000,-0.852645
5.884000,-0.531892
5.885000,-0.325693
5.886000,-0.272235
5.887000,-0.413519
5.888000,-0.934106
5.889000,-1.109757
5.890000,-2.672792
5.891000,-3.663054
5.892000,-3.195925
5.893000,-2.354584
5.894000,-1.354140
5.895000,-1.111030
5.896000,-1.276497
5.897000,-1.203946
5.898000,-1.161943
5.899000,-0.796641
5.900000,-0.953199
5.901000,-0.771184
5.902000,-1.538700
5.903000,-2.598968
5.904000,-2.539145
5.905000,-1.697804
5.906000,-0.636264
5.907000,-0.038034
5.908000,-0.021487
5.909000,-0.460613
5.910000,-0.758456
5.911000,-0.995202
5.912000,-1.506880
5.913000,-3.255748
5.914000,-3.693602
5.915000,-3.413579
5.916000,-3.265931
5.917000,-3.395759
5.918000,-3.743242
5.919000,-4.139092
5.920000,-5.078441
5.921000,-7.207885
5.922000,-7.850664
5.923000,-6.139981
5.924000,-3.757243
5.925000,-1.338866
5.926000,0.477462
5.927000,1.764293
5.928000,2.417255
5.929000,2.571268
5.930000,2.244150
5.931000,2.101593
5.932000,1.418084
5.933000,0.445642
5.934000,0.179620
5.935000,0.304357
5.936000,0.226715
5.937000,0.049791
5.938000,-0.521709
5.939000,-1.058844
5.940000,-1.779265
5.941000,-2.279487
5.942000,-2.528962
5.943000,-2.844624
5.944000,-3.176833
5.945000,-3.187015
5.946000,-2.620606
5.947000,-1.800903
5.948000,-1.612525
5.949000,-1.653255
5.950000,-2.377495
5.951000,-3.837431
5.952000,-4.391112
5.953000,-4.155639
5.954000,-4.121272
5.955000,-4.369474
5.956000,-4.408932
5.957000,-3.614686
5.958000,-2.934995
5.959000,-1.846725
5.960000,-0.721544
5.961000,-0.265870
5.962000,0.458370
5.963000,1.423175
5.964000,2.086319
5.965000,2.129596
5.966000,1.525001
5.967000,1.234796
5.968000,-0.012577
5.969000,-0.585351
5.970000,-0.170408
5.971000,0.425276
5.972000,0.487645
5.973000,0.044700
5.974000,-0.817006
5.975000,-1.551429
5.976000,-1.990555
5.977000,-2.465321
5.978000,-2.716068
5.979000,-2.680429
5.980000,-3.595594
5.981000,-5.867595
5.982000,-5.558298
5.983000,-4.034720
5.984000,-3.227746
5.985000,-2.792438
5.986000,-3.348665
5.987000,-3.408488
5.988000,-2.721159
5.989000,-1.621434
5.990000,-1.312137
5.991000,-3.124647
5.992000,-3.967260
5.993000,-3.421216
5.994000,-1.788175
5.995000,0.570379
5.996000,1.962855
5.997000,2.381616
5.998000,2.260697
5.999000,1.612827
6.000000,0.459643
6.001000,-0.220049
6.002000,-0.418610
6.003000,-0.445339
6.004000,-0.533165
6.005000,-1.646891
6.006000,-1.977827
6.007000,-1.725806
6.008000,-1.851817
6.009000,-1.993101
6.010000,-2.078380
6.011000,-2.226029
6.012000,-2.642244
6.013000,-2.324037
6.014000,-1.723261
6.015000,-1.473786
6.016000,-2.021103
6.017000,-2.647335
6.018000,-2.400406
6.019000,-1.996919
6.020000,-1.223039
6.021000,-0.472069
6.022000,-0.081310
6.023000,-0.180591
6.024000,-0.704997
6.025000,-0.997748
6.026000,-1.401235
6.027000,-1.775447
6.028000,-1.933278
6.029000,-1.774174
6.030000,-1.609979
6.031000,-1.807268
6.032000,-2.424590
6.033000,-3.459401
6.034000,-3.921438
6.035000,-4.162003
6.036000,-3.887072
6.037000,-4.024537
6.038000,-4.084360
6.039000,-3.790337
6.040000,-3.300297
6.041000,-3.016456
6.042000,-2.500960
6.043000,-1.951097
6.044000,-1.730898
6.045000,-2.287124
6.046000,-2.068198
6.047000,-2.848442
6.048000,-6.012698
6.049000,-6.414912
6.050000,-5.736494
6.051000,-3.372848
6.052000,-0.675722
6.053000,-0.064763
6.054000,1.248797
6.055000,2.340885
6.056000,2.356159
6.057000,2.161416
6.058000,2.331976
6.059000,2.124504
6.060000,2.627272
6.061000,3.249686
6.062000,3.401153
6.063000,2.857654
6.064000,1.229705
6.065000,-0.076219
6.066000,-1.314682
6.067000,-1.394871
6.068000,-0.668085
6.069000,-0.930288
6.070000,-0.743182
6.071000,-0.958290
6.072000,-1.219220
6.073000,-1.212856
6.074000,-1.398689
6.075000,-1.587068
6.076000,-1.660892
6.077000,-1.723261
6.078000,-2.121657
6.079000,-2.825532
6.080000,-3.086462
6.081000,-3.132284
6.082000,-2.787347
6.083000,-2.584967
6.084000,-2.569693
6.085000,-2.530235
6.086000,-2.274396
6.087000,-1.961280
6.088000,-2.191662
6.089000,-2.644790
6.090000,-2.737706
6.091000,-2.964270
6.092000,-3.187015
6.093000,-3.072461
6.094000,-2.812803
6.095000,-2.656245
6.096000,-2.616787
6.097000,-2.775891
6.098000,-3.226473
6.099000,-3.419943
6.100000,-3.865434
6.101000,-4.585855
6.102000,-4.977887
6.103000,-4.943521
6.104000,-4.099634
6.105000,-3.058459
6.106000,-1.906548
6.107000,-0.978655
6.108000,-0.236595
6.109000,0.353998
6.110000,0.863130
6.111000,1.321349
6.112000,1.300983
6.113000,1.244979
6.114000,0.141435
6.115000,-1.481423
6.116000,-3.297751
6.117000,-5.915963
6.118000,-6.392001
6.119000,-5.642304
6.120000,-3.720331
6.121000,-2.728796
6.122000,-1.581977
6.123000,-0.920105
6.124000,-1.519608
6.125000,-0.991384
6.126000,0.305630
6.127000,1.698106
6.128000,2.696005
6.129000,3.369332
6.130000,4.093572
6.131000,3.980290
6.132000,2.702369
6.133000,0.390910
6.134000,-0.892103
6.135000,-2.018557
6.136000,-2.335492
6.137000,-4.454754
6.138000,-5.180267
6.139000,-3.934166
6.140000,-2.374950
6.141000,-1.102120
6.142000,-0.722816
6.143000,-1.006657
6.144000,-1.332502
6.145000,-1.981645
6.146000,-1.906548
6.147000,-1.840361
6.148000,-1.593432
6.149000,-1.079209
6.150000,-0.618444
6.151000,-0.002395
6.152000,0.023062
6.153000,-0.012577
6.154000,-0.137315
6.155000,-1.230676
6.156000,-3.481039
6.157000,-4.191278
6.158000,-3.502677
6.159000,-2.844624
6.160000,-2.518780
6.161000,-1.543792
6.162000,-0.636264
6.163000,-0.426247
6.164000,-0.195865
6.165000,-0.358787
6.166000,-0.613353
6.167000,-0.992656
6.168000,-1.905275
6.169000,-2.269305
6.170000,-3.139921
6.171000,-3.400851
6.172000,-3.311753
6.173000,-3.613413
6.174000,-3.180651
6.175000,-2.634607
6.176000,-2.063106
6.177000,-1.636708
6.178000,-1.300681
6.179000,-1.361777
6.180000,-1.361777
6.181000,-1.473786
6.182000,-1.640527
6.183000,-1.542519
6.184000,-1.183581
6.185000,-0.609535
6.186000,-0.503890
6.187000,-0.683359
6.188000,-0.768638
6.189000,-0.772457
6.190000,-1.046115
6.191000,-1.322319
6.192000,-2.208209
6.193000,-3.043185
6.194000,-5.292276
6.195000,-7.878667
6.196000,-10.419235
6.197000,-10.419235
6.198000,-7.983039
6.199000,-4.219280
6.200000,-2.159841
6.201000,-0.573895
6.202000,1.202975
6.203000,2.721462
6.204000,3.641718
6.205000,3.929377
6.206000,3.917922
6.207000,3.970108
6.208000,4.224674
6.209000,3.429155
6.210000,2.124504
6.211000,1.211885
6.212000,0.425276
6.213000,-0.100403
6.214000,-1.019386
6.215000,-1.865818
6.216000,-2.909538
6.217000,-2.988454
6.218000,-2.584967
6.219000,-2.308763
6.220000,-1.760173
6.221000,-1.242131
6.222000,-0.847554
6.223000,-0.556076
6.224000,-0.559894
6.225000,-0.778821
6.226000,-0.991384
6.227000,-1.492879
6.228000,-1.760173
6.229000,-1.727079
6.230000,-1.962553
6.231000,-2.322764
6.232000,-3.011365
6.233000,-3.393214
6.234000,-3.363939
6.235000,-5.052984
6.236000,-5.526477
6.237000,-4.281649
6.238000,-3.388122
6.239000,-4.104726
6.240000,-4.421660
6.241000,-3.766153
6.242000,-3.188288
6.243000,-3.472129
6.244000,-2.568420
6.245000,-1.618889
6.246000,-0.617172
6.247000,-0.222594
6.248000,0.002697
6.249000,-0.592988
6.250000,-0.342240
6.251000,-0.162771
6.252000,0.208895
6.253000,0.411275
6.254000,0.957319
6.255000,1.209340
6.256000,0.905133
6.257000,0.210168
6.258000,-1.113575
6.259000,-2.091109
6.260000,-2.246394
6.261000,-2.548055
6.262000,-2.278215
6.263000,-2.303671
6.264000,-2.876445
6.265000,-5.016072
6.266000,-5.548115
6.267000,-5.058075
6.268000,-4.094543
6.269000,-2.900628
6.270000,-1.775447
6.271000,-0.603170
6.272000,0.632748
6.273000,1.372262
6.274000,1.833026
6.275000,0.392183
6.276000,-0.894648
6.277000,-2.008375
6.278000,-1.010476
6.279000,0.371817
6.280000,0.753666
6.281000,0.421458
6.282000,0.154163
6.283000,-0.282417
6.284000,-0.943016
6.285000,-1.467422
6.286000,-1.980372
6.287000,-2.503506
6.288000,-2.904447
6.289000,-3.091553
6.290000,-3.283750
6.291000,-3.337209
6.292000,-3.934166
6.293000,-3.454310
6.294000,-2.815349
6.295000,-2.612969
6.296000,-2.088563
6.297000,-1.207765
6.298000,-0.497525
6.299000,-0.431338
6.300000,-0.833553
6.301000,-1.556520
6.302000,-1.658346
6.303000,-1.219220
6.304000,-1.396143
6.305000,-0.869192
6.306000,-0.190773
6.307000,-0.157680
6.308000,-1.309591
6.309000,-2.019830
6.310000,-2.593876
6.311000,-2.516234
6.312000,-1.957461
6.313000,-1.938369
6.314000,-1.475059
6.315000,-1.051207
6.316000,-0.652811
6.317000,-0.342240
6.318000,-0.375334
6.319000,-0.416064
6.320000,-0.982474
6.321000,-2.489504
6.322000,-2.381314
6.323000,-1.860726
6.324000,-1.454694
6.325000,-1.188672
6.326000,-1.220493
6.327000,-1.275225
6.328000,-1.299408
6.329000,-2.098746
6.330000,-2.360949
6.331000,-2.399133
6.332000,-2.621879
6.333000,-2.414407
6.334000,-2.094927
6.335000,-1.677439
6.336000,-1.763991
6.337000,-2.996091
6.338000,-3.585411
6.339000,-4.510758
6.340000,-5.390284
6.341000,-6.607109
6.342000,-6.212532
6.343000,-4.802236
6.344000,-2.780982
6.345000,-0.718998
6.346000,0.654386
6.347000,1.651012
6.348000,2.435075
6.349000,2.697278
6.350000,2.702369
6.351000,2.036679
6.352000,1.696833
6.353000,1.574642
6.354000,1.614099
6.355000,1.186429
6.356000,0.538558
6.357000,-0.086401
6.358000,-0.750819
6.359000,-1.531063
6.360000,-2.318945
6.361000,-2.928631
