LabVIEW Measurement,
Writer_Version,2
Reader_Version,2
Separator,Comma
Decimal_Separator,.
Multi_Headings,No
X_Columns,Multi
Time_Pref,Absolute
Operator,Dymnz
Date,2017/08/30
Time,13:26:15.0367047833533519196
***End_of_Header***,
,
Channels,1,
Samples,1000,
Date,2017/08/30,
Time,13:26:15.0367047833533519196,
Y_Unit_Label,Volts,
X_Dimension,Time,
X0,0.0000000000000000E+0,
Delta_X,0.001000,
***End_of_Header***,,
X_Value,Voltage,Comment
0.000000,0.062520
0.001000,-1.161943
0.002000,-2.450047
0.003000,-3.612140
0.004000,-3.217563
0.005000,-2.318945
0.006000,-1.598523
0.007000,-0.909922
0.008000,-0.284963
0.009000,0.084158
0.010000,-0.032943
0.011000,-0.472069
0.012000,-0.461886
0.013000,-0.085129
0.014000,-0.862828
0.015000,-1.809813
0.016000,-2.542963
0.017000,-2.269305
0.018000,-1.993101
0.019000,-1.738535
0.020000,-1.454694
0.021000,-1.289226
0.022000,-1.578158
0.023000,-1.916731
0.024000,-1.860726
0.025000,-1.975281
0.026000,-2.629516
0.027000,-3.111918
0.028000,-3.589230
0.029000,-3.366484
0.030000,-2.511143
0.031000,-1.588341
0.032000,-1.393598
0.033000,-0.431338
0.034000,-0.012577
0.035000,0.143981
0.036000,0.581834
0.037000,0.914043
0.038000,0.721846
0.039000,-0.556076
0.040000,-2.122929
0.041000,-2.826804
0.042000,-2.970634
0.043000,-2.574784
0.044000,-1.909094
0.045000,-1.562884
0.046000,-1.112302
0.047000,-0.964654
0.048000,-1.014294
0.049000,-0.615899
0.050000,0.030699
0.051000,-0.484797
0.052000,-1.979100
0.053000,-3.377940
0.054000,-3.393214
0.055000,-3.409760
0.056000,-3.029184
0.057000,-4.048721
0.058000,-3.579047
0.059000,-2.548055
0.060000,-1.981645
0.061000,-0.906104
0.062000,0.546195
0.063000,1.559368
0.064000,1.495726
0.065000,0.903860
0.066000,0.217805
0.067000,-0.221321
0.068000,-0.549712
0.069000,-0.591715
0.070000,-0.884466
0.071000,-1.380869
0.072000,-1.203946
0.073000,-1.375778
0.074000,-1.267588
0.075000,-1.257405
0.076000,-1.413963
0.077000,-1.640527
0.078000,-1.816177
0.079000,-2.742798
0.080000,-2.900628
0.081000,-3.038094
0.082000,-3.184470
0.083000,-3.174287
0.084000,-2.975725
0.085000,-2.560783
0.086000,-2.157296
0.087000,-1.113575
0.088000,-0.282417
0.089000,-0.431338
0.090000,-0.704997
0.091000,-1.187399
0.092000,-2.004556
0.093000,-1.904003
0.094000,-1.837815
0.095000,-1.853089
0.096000,-2.004556
0.097000,-1.809813
0.098000,-1.447057
0.099000,-1.809813
0.100000,-2.521325
0.101000,-2.156023
0.102000,-1.419054
0.103000,-1.094483
0.104000,-0.873010
0.105000,-0.767365
0.106000,-0.799186
0.107000,-1.004112
0.108000,-1.201400
0.109000,-1.251041
0.110000,-1.495424
0.111000,-1.382142
0.112000,-1.065208
0.113000,-0.918832
0.114000,-0.673176
0.115000,-0.348604
0.116000,-0.314238
0.117000,-0.427520
0.118000,-1.029568
0.119000,-1.993101
0.120000,-3.902346
0.121000,-4.271466
0.122000,-3.428853
0.123000,-2.530235
0.124000,-1.692713
0.125000,-1.499243
0.126000,-1.524699
0.127000,-1.492879
0.128000,-1.486514
0.129000,-1.136486
0.130000,-0.031670
0.131000,-0.286236
0.132000,-0.409700
0.133000,-0.343513
0.134000,-0.463159
0.135000,-1.144123
0.136000,-1.728352
0.137000,-1.944733
0.138000,-2.150932
0.139000,-2.738979
0.140000,-2.362221
0.141000,-2.068198
0.142000,-1.579431
0.143000,-1.242131
0.144000,-0.778821
0.145000,0.035790
0.146000,0.094340
0.147000,-0.657902
0.148000,-1.752536
0.149000,-3.342301
0.150000,-3.941803
0.151000,-4.813692
0.152000,-4.713138
0.153000,-3.678328
0.154000,-2.732615
0.155000,-1.524699
0.156000,0.006515
0.157000,1.062964
0.158000,2.087592
0.159000,3.236958
0.160000,2.931479
0.161000,1.537730
0.162000,0.313267
0.163000,-0.391881
0.164000,-1.132668
0.165000,-2.466593
0.166000,-4.188732
0.167000,-4.126364
0.168000,-3.437763
0.169000,-2.649881
0.170000,-1.780538
0.171000,-1.151760
0.172000,-0.604443
0.173000,-0.396972
0.174000,-0.904831
0.175000,-1.183581
0.176000,-1.025750
0.177000,-1.435601
0.178000,-2.903174
0.179000,-3.399578
0.180000,-3.206108
0.181000,-2.914630
0.182000,-3.019002
0.183000,-2.498414
0.184000,-1.701623
0.185000,-1.090664
0.186000,-0.660448
0.187000,-0.465705
0.188000,-0.547166
0.189000,-0.521709
0.190000,-0.647719
0.191000,-1.242131
0.192000,-1.233221
0.193000,-1.921822
0.194000,-2.637153
0.195000,-2.968088
0.196000,-2.429681
0.197000,-1.914185
0.198000,-1.907821
0.199000,-1.765264
0.200000,-2.243848
0.201000,-2.634607
0.202000,-2.238757
0.203000,-2.135658
0.204000,-1.990555
0.205000,-1.146669
0.206000,-1.081754
0.207000,-1.587068
0.208000,-1.419054
0.209000,-1.140305
0.210000,-0.920105
0.211000,-1.258678
0.212000,-1.177217
0.213000,-1.433056
0.214000,-1.378324
0.215000,-1.383415
0.216000,-1.560339
0.217000,-0.800459
0.218000,0.189803
0.219000,0.238170
0.220000,-0.013850
0.221000,-0.766093
0.222000,-1.113575
0.223000,-1.552702
0.224000,-2.289670
0.225000,-2.427136
0.226000,-2.190389
0.227000,-1.515789
0.228000,-2.308763
0.229000,-2.532781
0.230000,-1.709260
0.231000,-0.804278
0.232000,-0.018941
0.233000,-0.312965
0.234000,-1.097028
0.235000,-1.655801
0.236000,-1.786902
0.237000,-1.863272
0.238000,-1.654528
0.239000,-1.469968
0.240000,-1.032114
0.241000,-0.736818
0.242000,-0.484797
0.243000,-0.463159
0.244000,-0.287509
0.245000,-0.180591
0.246000,-1.016840
0.247000,-1.259951
0.248000,-1.523426
0.249000,-1.828906
0.250000,-2.349493
0.251000,-3.394487
0.252000,-3.707603
0.253000,-3.148830
0.254000,-2.437318
0.255000,-1.841634
0.256000,-1.217947
0.257000,-0.833553
0.258000,-0.403336
0.259000,-0.012577
0.260000,0.182166
0.261000,0.275082
0.262000,-0.297691
0.263000,-0.806823
0.264000,-1.158124
0.265000,-1.513244
0.266000,-1.855635
0.267000,-1.976554
0.268000,-2.078380
0.269000,-2.252758
0.270000,-2.396588
0.271000,-2.206936
0.272000,-2.242575
0.273000,-2.278215
0.274000,-2.348220
0.275000,-2.714795
0.276000,-3.657962
0.277000,-3.706330
0.278000,-3.444127
0.279000,-3.324481
0.280000,-3.071188
0.281000,-3.276113
0.282000,-3.729241
0.283000,-3.808156
0.284000,-2.682975
0.285000,-1.783084
0.286000,-1.102120
0.287000,-0.094038
0.288000,0.614928
0.289000,1.356988
0.290000,1.374807
0.291000,0.833855
0.292000,0.548741
0.293000,-0.474615
0.294000,-1.118667
0.295000,-1.173398
0.296000,-1.321046
0.297000,-2.196754
0.298000,-1.849271
0.299000,-1.439420
0.300000,-1.228130
0.301000,-0.897194
0.302000,-0.648992
0.303000,-0.259506
0.304000,-0.032943
0.305000,-0.470796
0.306000,-0.767365
0.307000,-1.198855
0.308000,-2.066925
0.309000,-2.092381
0.310000,-1.928186
0.311000,-1.399962
0.312000,-0.974837
0.313000,-0.480979
0.314000,0.161800
0.315000,0.230533
0.316000,-0.087674
0.317000,-0.470796
0.318000,-1.141577
0.319000,-1.564157
0.320000,-2.273123
0.321000,-2.462775
0.322000,-2.072016
0.323000,-1.865818
0.324000,-1.631617
0.325000,-1.350322
0.326000,-1.088119
0.327000,-1.309591
0.328000,-1.748717
0.329000,-1.953643
0.330000,-2.045287
0.331000,-2.078380
0.332000,-1.948552
0.333000,-1.515789
0.334000,-1.509425
0.335000,-1.713078
0.336000,-1.958734
0.337000,-2.182752
0.338000,-2.010920
0.339000,-2.490777
0.340000,-4.095816
0.341000,-4.849331
0.342000,-4.741141
0.343000,-4.005445
0.344000,-3.216290
0.345000,-3.749606
0.346000,-3.475948
0.347000,-2.523871
0.348000,-1.682530
0.349000,-0.586624
0.350000,0.247080
0.351000,1.853392
0.352000,2.251787
0.353000,0.872040
0.354000,-0.002395
0.355000,-0.507708
0.356000,-1.165761
0.357000,-2.206936
0.358000,-3.005001
0.359000,-2.909538
0.360000,-2.429681
0.361000,-1.878546
0.362000,-1.426691
0.363000,-1.070299
0.364000,-0.521709
0.365000,-0.053308
0.366000,0.235625
0.367000,-0.174227
0.368000,-0.666812
0.369000,-1.251041
0.370000,-1.626526
0.371000,-1.284134
0.372000,-1.146669
0.373000,-1.326138
0.374000,-1.332502
0.375000,-1.221766
0.376000,-0.198410
0.377000,0.126161
0.378000,-0.739363
0.379000,-1.047388
0.380000,-0.837371
0.381000,-0.892103
0.382000,-1.313410
0.383000,-1.683803
0.384000,-1.816177
0.385000,-1.864545
0.386000,-1.907821
0.387000,-1.667256
0.388000,-1.189945
0.389000,-1.284134
0.390000,-2.010920
0.391000,-3.054641
0.392000,-3.820885
0.393000,-4.173458
0.394000,-5.297367
0.395000,-5.353372
0.396000,-4.638041
0.397000,-3.568864
0.398000,-2.252758
0.399000,-2.027467
0.400000,-1.364323
0.401000,-0.351150
0.402000,0.642930
0.403000,1.527547
0.404000,2.116867
0.405000,1.591189
0.406000,1.518637
0.407000,1.071874
0.408000,0.771486
0.409000,-0.026578
0.410000,-1.445784
0.411000,-2.957906
0.412000,-3.674509
0.413000,-3.411033
0.414000,-3.215018
0.415000,-2.724978
0.416000,-1.881092
0.417000,-1.447057
0.418000,-1.137759
0.419000,-1.043570
0.420000,-0.657902
0.421000,0.271264
0.422000,0.898769
0.423000,-0.071127
0.424000,-0.606989
0.425000,-0.792822
0.426000,-1.024477
0.427000,-1.295590
0.428000,-1.613797
0.429000,-1.626526
0.430000,-1.635435
0.431000,-1.951097
0.432000,-2.233666
0.433000,-2.084744
0.434000,-2.364767
0.435000,-2.772073
0.436000,-3.302843
0.437000,-3.813248
0.438000,-3.768699
0.439000,-3.416125
0.440000,-2.810258
0.441000,-1.970190
0.442000,-1.683803
0.443000,-2.205663
0.444000,-2.349493
0.445000,-1.631617
0.446000,-0.571350
0.447000,-0.767365
0.448000,-2.145840
0.449000,-2.742798
0.450000,-2.863716
0.451000,-2.432227
0.452000,-1.993101
0.453000,-0.897194
0.454000,0.516920
0.455000,0.283992
0.456000,0.096886
0.457000,1.074420
0.458000,1.419356
0.459000,0.959865
0.460000,0.275082
0.461000,-0.438975
0.462000,-1.719442
0.463000,-2.922267
0.464000,-4.411478
0.465000,-4.458572
0.466000,-3.803065
0.467000,-2.535326
0.468000,-1.631617
0.469000,-0.943016
0.470000,-0.698633
0.471000,-0.548439
0.472000,-0.161498
0.473000,0.600927
0.474000,1.037507
0.475000,0.332360
0.476000,-0.346059
0.477000,-0.473342
0.478000,-0.464432
0.479000,-0.507708
0.480000,-1.481423
0.481000,-1.915458
0.482000,-2.476776
0.483000,-2.654972
0.484000,-2.525144
0.485000,-1.984191
0.486000,-1.709260
0.487000,-1.884910
0.488000,-1.842907
0.489000,-1.471240
0.490000,-0.810642
0.491000,-1.049934
0.492000,-1.355413
0.493000,-1.523426
0.494000,-1.296863
0.495000,-1.375778
0.496000,-2.023649
0.497000,-3.687237
0.498000,-3.949440
0.499000,-3.407215
0.500000,-2.415680
0.501000,-1.380869
0.502000,-0.613353
0.503000,-0.323148
0.504000,-0.685904
0.505000,-0.749546
0.506000,-0.563713
0.507000,-0.808096
0.508000,-1.248495
0.509000,-1.674893
0.510000,-1.727079
0.511000,-1.841634
0.512000,-2.121657
0.513000,-2.632061
0.514000,-2.569693
0.515000,-2.024921
0.516000,-1.823814
0.517000,-1.986737
0.518000,-2.097473
0.519000,-2.074562
0.520000,-1.626526
0.521000,-1.016840
0.522000,-0.461886
0.523000,-1.025750
0.524000,-1.912912
0.525000,-1.962553
0.526000,-2.388951
0.527000,-2.531508
0.528000,-2.010920
0.529000,-1.700350
0.530000,-1.433056
0.531000,-0.693541
0.532000,-0.091493
0.533000,-0.502617
0.534000,-0.776275
0.535000,-0.460613
0.536000,-0.922651
0.537000,-1.448329
0.538000,-2.843351
0.539000,-3.932894
0.540000,-3.348665
0.541000,-2.722432
0.542000,-1.940915
0.543000,-1.178490
0.544000,-1.212856
0.545000,-0.647719
0.546000,-0.024033
0.547000,-0.240414
0.548000,-0.138587
0.549000,0.076521
0.550000,-0.164044
0.551000,-0.469523
0.552000,-1.275225
0.553000,-1.840361
0.554000,-2.060561
0.555000,-2.205663
0.556000,-1.918004
0.557000,-1.399962
0.558000,-0.808096
0.559000,-0.539529
0.560000,-0.694814
0.561000,-0.566258
0.562000,-0.605716
0.563000,-1.486514
0.564000,-2.306217
0.565000,-2.284579
0.566000,-1.960007
0.567000,-1.944733
0.568000,-1.928186
0.569000,-1.918004
0.570000,-1.893820
0.571000,-1.727079
0.572000,-0.959563
0.573000,-0.300237
0.574000,-0.094038
0.575000,-1.402508
0.576000,-1.968917
0.577000,-2.318945
0.578000,-2.158569
0.579000,-2.078380
0.580000,-2.357130
0.581000,-2.699521
0.582000,-3.090280
0.583000,-3.164104
0.584000,-2.668973
0.585000,-1.536155
0.586000,-0.717725
0.587000,-0.528073
0.588000,-0.260779
0.589000,0.221623
0.590000,0.362908
0.591000,-0.538256
0.592000,-1.069026
0.593000,-1.067753
0.594000,-1.673620
0.595000,-2.247667
0.596000,-2.429681
0.597000,-2.241303
0.598000,-2.167478
0.599000,-2.374950
0.600000,-2.264214
0.601000,-1.459785
0.602000,-0.656629
0.603000,-0.721544
0.604000,-0.820824
0.605000,-0.908650
0.606000,-1.286680
0.607000,-1.919277
0.608000,-2.262941
0.609000,-2.565874
0.610000,-2.222210
0.611000,-1.798358
0.612000,-1.356686
0.613000,-0.950653
0.614000,-1.105938
0.615000,-1.651982
0.616000,-2.158569
0.617000,-2.492050
0.618000,-2.380041
0.619000,-2.553146
0.620000,-2.425863
0.621000,-2.602786
0.622000,-2.542963
0.623000,-3.222654
0.624000,-2.820440
0.625000,-2.484413
0.626000,-1.207765
0.627000,-0.536983
0.628000,-0.314238
0.629000,-0.086401
0.630000,0.337451
0.631000,0.872040
0.632000,0.636566
0.633000,0.187257
0.634000,-0.038034
0.635000,0.093068
0.636000,-0.130950
0.637000,-0.929015
0.638000,-0.819551
0.639000,-0.837371
0.640000,-1.207765
0.641000,-1.487787
0.642000,-1.564157
0.643000,-1.364323
0.644000,-1.333775
0.645000,-1.424146
0.646000,-1.565430
0.647000,-1.937096
0.648000,-1.688894
0.649000,-2.278215
0.650000,-2.765709
0.651000,-2.772073
0.652000,-2.691884
0.653000,-2.909538
0.654000,-3.496313
0.655000,-3.911256
0.656000,-3.590502
0.657000,-2.931176
0.658000,-1.986737
0.659000,-0.739363
0.660000,0.261081
0.661000,0.277628
0.662000,-0.713907
0.663000,-0.860282
0.664000,-0.949380
0.665000,-1.626526
0.666000,-1.879819
0.667000,-1.795812
0.668000,-1.483969
0.669000,-1.402508
0.670000,-0.811914
0.671000,-0.258233
0.672000,-0.264598
0.673000,-0.349877
0.674000,-0.529346
0.675000,-0.512799
0.676000,-2.293489
0.677000,-2.713522
0.678000,-2.626970
0.679000,-2.088563
0.680000,-1.503061
0.681000,-1.114848
0.682000,-0.950653
0.683000,-1.363050
0.684000,-2.915902
0.685000,-3.253202
0.686000,-2.658791
0.687000,-1.850544
0.688000,-1.018113
0.689000,-0.334603
0.690000,0.249626
0.691000,-0.039307
0.692000,-0.758456
0.693000,-0.832280
0.694000,-1.290499
0.695000,-1.618889
0.696000,-1.202673
0.697000,-0.738090
0.698000,-0.869192
0.699000,-1.401235
0.700000,-2.064379
0.701000,-1.856908
0.702000,-1.328683
0.703000,-1.294317
0.704000,-1.173398
0.705000,-0.676995
0.706000,-0.848827
0.707000,-1.131395
0.708000,-0.605716
0.709000,-0.441521
0.710000,-0.696087
0.711000,-1.132668
0.712000,-1.501788
0.713000,-1.720715
0.714000,-2.107655
0.715000,-2.271850
0.716000,-2.474230
0.717000,-3.138648
0.718000,-3.520497
0.719000,-3.286296
0.720000,-3.085189
0.721000,-3.451764
0.722000,-3.643961
0.723000,-3.316844
0.724000,-3.291387
0.725000,-2.945178
0.726000,-2.299853
0.727000,-2.340583
0.728000,-2.528962
0.729000,-2.586239
0.730000,-3.212472
0.731000,-2.010920
0.732000,-0.442794
0.733000,0.781669
0.734000,1.503363
0.735000,1.570823
0.736000,1.579733
0.737000,1.116423
0.738000,-0.545893
0.739000,-0.410973
0.740000,0.035790
0.741000,-0.659175
0.742000,-0.624808
0.743000,-0.468250
0.744000,-0.330785
0.745000,-0.664266
0.746000,-1.648164
0.747000,-2.383860
0.748000,-2.362221
0.749000,-3.931621
0.750000,-4.477665
0.751000,-4.660952
0.752000,-5.143355
0.753000,-5.609211
0.754000,-4.697864
0.755000,-2.964270
0.756000,-1.024477
0.757000,0.560196
0.758000,1.397718
0.759000,2.138505
0.760000,2.505080
0.761000,2.590360
0.762000,2.589087
0.763000,2.130868
0.764000,0.984049
0.765000,0.213986
0.766000,-1.354140
0.767000,-2.469139
0.768000,-2.843351
0.769000,-2.555692
0.770000,-2.285852
0.771000,-2.287124
0.772000,-2.059288
0.773000,-1.814905
0.774000,-1.753809
0.775000,-2.387678
0.776000,-2.800075
0.777000,-2.915902
0.778000,-2.338038
0.779000,-1.793266
0.780000,-1.637981
0.781000,-2.196754
0.782000,-2.121657
0.783000,-1.667256
0.784000,-0.585351
0.785000,-0.031670
0.786000,-0.099130
0.787000,-0.267143
0.788000,-0.613353
0.789000,-1.015567
0.790000,-1.301954
0.791000,-1.721988
0.792000,-2.176388
0.793000,-2.301126
0.794000,-2.189117
0.795000,-2.461502
0.796000,-3.318117
0.797000,-3.607049
0.798000,-3.627414
0.799000,-3.810702
0.800000,-4.232009
0.801000,-4.279103
0.802000,-3.445400
0.803000,-2.550600
0.804000,-2.476776
0.805000,-1.854362
0.806000,-1.146669
0.807000,-0.007486
0.808000,0.842764
0.809000,1.197884
0.810000,1.019688
0.811000,-0.232777
0.812000,-0.982474
0.813000,-1.550156
0.814000,-1.550156
0.815000,-1.251041
0.816000,-1.163216
0.817000,-1.368141
0.818000,-1.481423
0.819000,-1.118667
0.820000,-1.303227
0.821000,-1.076663
0.822000,-2.148386
0.823000,-2.877718
0.824000,-2.400406
0.825000,-1.741080
0.826000,-1.412690
0.827000,-0.823370
0.828000,-0.608262
0.829000,-0.394426
0.830000,-0.158953
0.831000,-0.128405
0.832000,0.557651
0.833000,0.569106
0.834000,-0.017669
0.835000,-1.663438
0.836000,-2.615515
0.837000,-2.649881
0.838000,-2.495869
0.839000,-2.350766
0.840000,-1.859454
0.841000,-1.136486
0.842000,-0.890830
0.843000,-0.809369
0.844000,-0.290054
0.845000,0.318359
0.846000,0.212714
0.847000,0.202531
0.848000,-0.255688
0.849000,-0.704997
0.850000,-1.382142
0.851000,-2.177661
0.852000,-2.676610
0.853000,-2.810258
0.854000,-2.905720
0.855000,-3.447945
0.856000,-4.004172
0.857000,-3.893436
0.858000,-3.315571
0.859000,-2.744070
0.860000,-1.883637
0.861000,-0.382971
0.862000,-0.216230
0.863000,-0.486070
0.864000,-0.157680
0.865000,0.104523
0.866000,-0.716452
0.867000,-1.206492
0.868000,-1.748717
0.869000,-2.474230
0.870000,-3.715240
0.871000,-3.850160
0.872000,-3.341028
0.873000,-2.598968
0.874000,-1.898911
0.875000,-1.452148
0.876000,-1.256132
0.877000,-0.859009
0.878000,-0.399518
0.879000,0.132525
0.880000,-0.241687
0.881000,-0.838644
0.882000,-1.313410
0.883000,-2.367313
0.884000,-4.083088
0.885000,-4.167094
0.886000,-3.199744
0.887000,-2.032558
0.888000,-1.002839
0.889000,-0.321875
0.890000,0.059974
0.891000,0.311994
0.892000,0.782941
0.893000,0.427822
0.894000,-0.062218
0.895000,-0.916287
0.896000,-1.763991
0.897000,-2.163660
0.898000,-2.134385
0.899000,-1.991828
0.900000,-2.644790
0.901000,-3.034276
0.902000,-2.693157
0.903000,-2.686793
0.904000,-2.705886
0.905000,-2.201845
0.906000,-1.741080
0.907000,-1.534882
0.908000,-0.901013
0.909000,-0.021487
0.910000,0.315813
0.911000,0.171983
0.912000,0.191076
0.913000,0.206349
0.914000,0.350179
0.915000,0.281446
0.916000,-0.227686
0.917000,-1.284134
0.918000,-2.508597
0.919000,-3.236656
0.920000,-3.441581
0.921000,-3.148830
0.922000,-2.593876
0.923000,-2.231120
0.924000,-2.072016
0.925000,-2.377495
0.926000,-3.400851
0.927000,-2.840805
0.928000,-2.401679
0.929000,-2.626970
0.930000,-2.004556
0.931000,-1.293044
0.932000,-0.993929
0.933000,-0.799186
0.934000,-0.757183
0.935000,-0.647719
0.936000,-0.095311
0.937000,0.370545
0.938000,1.005687
0.939000,0.976412
0.940000,0.630202
0.941000,0.282719
0.942000,0.001424
0.943000,-0.346059
0.944000,-0.720271
0.945000,-1.365596
0.946000,-1.786902
0.947000,-1.976554
0.948000,-1.966371
0.949000,-2.152204
0.950000,-3.003728
0.951000,-2.875172
0.952000,-2.735161
0.953000,-3.001182
0.954000,-3.314298
0.955000,-3.273568
0.956000,-2.927358
0.957000,-2.665155
0.958000,-2.848442
0.959000,-2.929904
0.960000,-2.957906
0.961000,-3.041913
0.962000,-2.406770
0.963000,-1.858181
0.964000,-2.079653
0.965000,-2.031286
0.966000,-1.943460
0.967000,-1.832724
0.968000,-1.127576
0.969000,-0.441521
0.970000,0.198713
0.971000,0.473644
0.972000,0.467280
0.973000,0.463461
0.974000,-0.064763
0.975000,-0.458068
0.976000,-0.586624
0.977000,-0.058399
0.978000,-1.228130
0.979000,-2.256577
0.980000,-2.396588
0.981000,-1.860726
0.982000,-1.443238
0.983000,-1.622707
0.984000,-2.215846
0.985000,-2.484413
0.986000,-2.084744
0.987000,-1.593432
0.988000,-1.191218
0.989000,-0.638810
0.990000,-0.902285
0.991000,-0.619717
0.992000,-0.258233
0.993000,-0.850099
0.994000,-1.741080
0.995000,-2.507324
0.996000,-3.195925
0.997000,-2.383860
0.998000,-1.000293
0.999000,-0.734272
1.000000,-0.534438
1.001000,-0.343513
1.002000,-0.022760
1.003000,0.140162
1.004000,-0.034215
1.005000,-0.431338
1.006000,-0.725362
1.007000,-1.228130
1.008000,-1.578158
1.009000,-1.844180
1.010000,-1.749990
1.011000,-1.911640
1.012000,-2.215846
1.013000,-2.815349
1.014000,-3.195925
1.015000,-3.179378
1.016000,-3.024093
1.017000,-2.716068
1.018000,-1.912912
1.019000,-2.009648
1.020000,-3.030457
1.021000,-4.219280
1.022000,-4.260011
1.023000,-2.327855
1.024000,-0.853918
1.025000,0.509283
1.026000,1.381172
1.027000,1.362079
1.028000,0.919134
1.029000,-0.055853
1.030000,-1.029568
1.031000,-1.616343
1.032000,-2.245121
1.033000,-2.166206
1.034000,-2.134385
1.035000,-2.432227
1.036000,-2.131839
1.037000,-1.304500
1.038000,0.248353
1.039000,0.411275
1.040000,-0.277326
1.041000,-0.730453
1.042000,-0.761001
1.043000,-1.281589
1.044000,-1.691440
1.045000,-2.080926
1.046000,-2.280760
1.047000,-3.500131
1.048000,-4.450935
1.049000,-4.716957
1.050000,-3.710148
1.051000,-2.689339
1.052000,-1.215402
1.053000,-0.183136
1.054000,0.215259
1.055000,0.233079
1.056000,0.252171
1.057000,0.455824
1.058000,0.142708
1.059000,-0.720271
1.060000,-1.389779
1.061000,-1.939642
1.062000,-2.353312
1.063000,-2.909538
1.064000,-3.399578
1.065000,-3.629960
1.066000,-2.951542
1.067000,-1.744899
1.068000,-1.263769
1.069000,-0.917559
1.070000,-0.367697
1.071000,-0.086401
1.072000,-0.474615
1.073000,-0.661721
1.074000,-0.771184
1.075000,-0.851372
1.076000,-1.662165
1.077000,-2.685520
1.078000,-2.586239
1.079000,-2.364767
1.080000,-2.493323
1.081000,-2.702067
1.082000,-3.203562
1.083000,-2.768254
1.084000,-1.840361
1.085000,-1.074117
1.086000,0.313267
1.087000,1.003141
1.088000,0.888586
1.089000,0.897496
1.090000,1.252616
1.091000,0.528375
1.092000,-0.105494
1.093000,-0.475887
1.094000,-2.712250
1.095000,-4.468755
1.096000,-5.704673
1.097000,-5.075895
1.098000,-3.810702
1.099000,-2.741525
1.100000,-2.121657
1.101000,-1.203946
1.102000,-0.127132
1.103000,-0.915014
1.104000,-1.434328
1.105000,-2.390224
1.106000,-3.482312
1.107000,-3.697420
1.108000,-2.640971
1.109000,-0.937925
1.110000,0.136344
1.111000,0.501646
1.112000,1.098603
1.113000,1.951399
1.114000,1.904305
1.115000,1.609008
1.116000,1.484271
1.117000,0.240716
1.118000,-0.693541
1.119000,-1.216674
1.120000,-1.444511
1.121000,-1.415236
1.122000,-1.576885
1.123000,-1.640527
1.124000,-1.751263
1.125000,-1.587068
1.126000,-1.438147
1.127000,-1.685076
1.128000,-1.912912
1.129000,-2.176388
1.130000,-2.296034
1.131000,-2.292216
1.132000,-2.453865
1.133000,-2.652427
1.134000,-2.792438
1.135000,-2.791165
1.136000,-2.574784
1.137000,-2.534053
1.138000,-2.563329
1.139000,-3.520497
1.140000,-4.778053
1.141000,-4.821329
1.142000,-4.088179
1.143000,-3.092826
1.144000,-2.293489
1.145000,-1.499243
1.146000,-0.775002
1.147000,-0.608262
1.148000,-0.634991
1.149000,-0.146224
1.150000,-0.316784
1.151000,-1.732171
1.152000,-2.405498
1.153000,-1.804722
1.154000,-1.234494
1.155000,-0.771184
1.156000,-0.284963
1.157000,0.357816
1.158000,0.500373
1.159000,0.222896
1.160000,-0.319329
1.161000,0.129980
1.162000,0.324723
1.163000,-0.554803
1.164000,-2.131839
1.165000,-3.640143
1.166000,-3.865434
1.167000,-2.750435
1.168000,-1.497970
1.169000,-0.151316
1.170000,0.858038
1.171000,0.780396
1.172000,-0.172954
1.173000,-0.904831
1.174000,-1.313410
1.175000,-1.716897
1.176000,-1.816177
1.177000,-1.814905
1.178000,-1.930732
1.179000,-1.920549
1.180000,-3.071188
1.181000,-3.762334
1.182000,-3.418670
1.183000,-2.759344
1.184000,-2.190389
1.185000,-1.476332
1.186000,-0.660448
1.187000,-0.231504
1.188000,0.001424
1.189000,0.150345
1.190000,0.635293
1.191000,0.882222
1.192000,0.213986
1.193000,-0.342240
1.194000,-0.678267
1.195000,-1.084300
1.196000,-1.421600
1.197000,-1.282862
1.198000,-1.523426
1.199000,-1.846725
1.200000,-1.993101
1.201000,-2.369858
1.202000,-2.933722
1.203000,-3.780154
1.204000,-4.431843
1.205000,-4.963886
1.206000,-4.632950
1.207000,-3.878162
1.208000,-2.780982
1.209000,-2.189117
1.210000,-2.373677
1.211000,-2.229847
1.212000,-1.664711
1.213000,-0.319329
1.214000,-0.127132
1.215000,0.192348
1.216000,0.458370
1.217000,0.412548
1.218000,0.012879
1.219000,-0.619717
1.220000,-0.996475
1.221000,-0.982474
1.222000,-0.985019
1.223000,-0.590442
1.224000,-0.500071
1.225000,-0.950653
1.226000,-1.556520
1.227000,-1.804722
1.228000,-1.981645
1.229000,-1.467422
1.230000,-1.299408
1.231000,-0.990111
1.232000,-1.380869
1.233000,-1.993101
1.234000,-2.352039
1.235000,-2.662609
1.236000,-2.601513
1.237000,-2.311308
1.238000,-2.069471
1.239000,-1.509425
1.240000,-1.359231
1.241000,-1.140305
1.242000,-0.381698
1.243000,-0.198410
1.244000,-0.552257
1.245000,-0.281144
1.246000,-0.300237
1.247000,-0.977382
1.248000,-1.459785
1.249000,-1.408872
1.250000,-1.902730
1.251000,-2.341856
1.252000,-2.143295
1.253000,-1.790721
1.254000,-1.687622
1.255000,-1.612525
1.256000,-1.425419
1.257000,-1.368141
1.258000,-2.191662
1.259000,-2.493323
1.260000,-2.284579
1.261000,-1.650709
1.262000,-1.436874
1.263000,-0.985019
1.264000,-1.081754
1.265000,-1.504334
1.266000,-1.870909
1.267000,-2.615515
1.268000,-3.237928
1.269000,-3.439036
1.270000,-3.698693
1.271000,-2.880263
1.272000,-1.896366
1.273000,-1.052479
1.274000,0.012879
1.275000,0.854220
1.276000,0.576743
1.277000,0.215259
1.278000,-0.367697
1.279000,-0.702451
1.280000,-1.270133
1.281000,-3.313025
1.282000,-3.649053
1.283000,-3.277386
1.284000,-2.625697
1.285000,-1.947279
1.286000,-1.719442
1.287000,-1.835270
1.288000,-1.611252
1.289000,-0.794095
1.290000,-0.109312
1.291000,-0.207320
1.292000,-0.437702
1.293000,-0.500071
1.294000,-0.265870
1.295000,0.268718
1.296000,0.630202
1.297000,0.726937
1.298000,0.539831
1.299000,0.084158
1.300000,-0.114404
1.301000,-0.498798
1.302000,-1.111030
1.303000,-1.677439
1.304000,-2.279487
1.305000,-2.834441
1.306000,-3.384304
1.307000,-3.431399
1.308000,-3.978715
1.309000,-4.415296
1.310000,-5.339371
1.311000,-5.035164
1.312000,-4.032174
1.313000,-2.597695
1.314000,-1.343957
1.315000,-0.273507
1.316000,0.672205
1.317000,0.758758
1.318000,0.370545
1.319000,0.229260
1.320000,0.310722
1.321000,0.211441
1.322000,-0.590442
1.323000,-1.613797
1.324000,-1.873455
1.325000,-2.070743
1.326000,-2.247667
1.327000,-2.108928
1.328000,-1.993101
1.329000,-1.905275
1.330000,-2.387678
1.331000,-3.766153
1.332000,-4.938429
1.333000,-5.008435
1.334000,-4.252374
1.335000,-2.919721
1.336000,-2.145840
1.337000,-1.305773
1.338000,-0.142406
1.339000,0.576743
1.340000,0.902588
1.341000,2.118140
1.342000,2.473260
1.343000,1.911942
1.344000,1.453723
1.345000,0.443096
1.346000,-0.087674
1.347000,-0.188228
1.348000,-0.367697
1.349000,-0.669358
1.350000,-0.944289
1.351000,-1.319774
1.352000,-1.533609
1.353000,-2.241303
1.354000,-2.572238
1.355000,-2.619333
1.356000,-2.601513
1.357000,-2.704613
1.358000,-2.857352
1.359000,-3.512860
1.360000,-3.892163
1.361000,-3.474675
1.362000,-2.705886
1.363000,-2.578603
1.364000,-2.483140
1.365000,-1.541246
1.366000,-1.466149
1.367000,-1.719442
1.368000,-1.649437
1.369000,-1.271406
1.370000,-0.820824
1.371000,-1.238313
1.372000,-1.514517
1.373000,-1.122485
1.374000,-0.776275
1.375000,-0.972291
1.376000,-0.981201
1.377000,-0.837371
1.378000,-1.397416
1.379000,-2.182752
1.380000,-2.019830
1.381000,-1.211583
1.382000,-0.845008
1.383000,-1.462331
1.384000,-1.791994
1.385000,-2.553146
1.386000,-3.399578
1.387000,-3.585411
1.388000,-2.717341
1.389000,-1.603615
1.390000,-1.261223
1.391000,-1.116121
1.392000,-0.627354
1.393000,-0.421156
1.394000,-0.531892
1.395000,-0.436430
1.396000,0.011607
1.397000,0.287811
1.398000,0.178347
1.399000,-0.032943
1.400000,-0.148770
1.401000,-0.307874
1.402000,-0.845008
1.403000,-1.359231
1.404000,-1.319774
1.405000,-0.785185
1.406000,-1.133940
1.407000,-1.762718
1.408000,-1.853089
1.409000,-1.429237
1.410000,-1.363050
1.411000,-1.494151
1.412000,-1.884910
1.413000,-2.292216
1.414000,-2.413135
1.415000,-2.493323
1.416000,-3.064824
1.417000,-3.189561
1.418000,-2.929904
1.419000,-2.660064
1.420000,-2.143295
1.421000,-2.499687
1.422000,-3.259567
1.423000,-3.682146
1.424000,-4.125091
1.425000,-3.712694
1.426000,-3.211199
1.427000,-3.876889
1.428000,-3.362666
1.429000,-2.110201
1.430000,-0.661721
1.431000,0.695116
1.432000,2.071045
1.433000,3.043488
1.434000,3.201318
1.435000,2.230149
1.436000,0.903860
1.437000,-0.430065
1.438000,-1.570521
1.439000,-2.600241
1.440000,-2.392769
1.441000,-2.517507
1.442000,-2.590058
1.443000,-2.705886
1.444000,-3.215018
1.445000,-2.808985
1.446000,-2.002011
1.447000,-1.030841
1.448000,-0.194592
1.449000,0.501646
1.450000,0.159255
1.451000,-0.614626
1.452000,-0.953199
1.453000,-1.234494
1.454000,-1.938369
1.455000,-2.843351
1.456000,-3.216290
1.457000,-2.942632
1.458000,-2.066925
1.459000,-0.713907
1.460000,0.553832
1.461000,1.308620
1.462000,1.224613
1.463000,1.099876
1.464000,1.407901
1.465000,0.696389
1.466000,-0.948107
1.467000,-2.304944
1.468000,-3.137375
1.469000,-3.114464
1.470000,-2.979544
1.471000,-2.847170
1.472000,-2.479322
1.473000,-2.278215
1.474000,-2.262941
1.475000,-2.325309
1.476000,-2.385132
1.477000,-2.339310
1.478000,-3.113191
1.479000,-4.277831
1.480000,-4.118727
1.481000,-3.243020
1.482000,-2.536599
1.483000,-1.830178
1.484000,-1.056298
1.485000,-0.137315
1.486000,0.105796
1.487000,0.277628
1.488000,0.740938
1.489000,1.129151
1.490000,0.569106
1.491000,-0.068582
1.492000,-0.838644
1.493000,-1.164488
1.494000,-1.342685
1.495000,-1.490333
1.496000,-1.685076
1.497000,-1.853089
1.498000,-2.397861
1.499000,-2.810258
1.500000,-3.271022
1.501000,-3.451764
1.502000,-3.883253
1.503000,-4.062722
1.504000,-3.547226
1.505000,-3.040640
1.506000,-2.456411
1.507000,-1.905275
1.508000,-1.721988
1.509000,-1.555247
1.510000,-1.046115
1.511000,-1.378324
1.512000,-1.601069
1.513000,-0.843735
1.514000,-0.601898
1.515000,-0.106767
1.516000,0.403638
1.517000,0.865675
1.518000,1.407901
1.519000,0.917861
1.520000,-0.255688
1.521000,-1.485242
1.522000,-2.694430
1.523000,-3.973624
1.524000,-3.945622
1.525000,-3.281205
1.526000,-2.649881
1.527000,-1.915458
1.528000,-1.868363
1.529000,-1.812359
1.530000,-1.413963
1.531000,-1.033387
1.532000,-0.382971
1.533000,-0.080037
1.534000,0.672205
1.535000,1.188974
1.536000,0.968775
1.537000,0.460915
1.538000,0.089249
1.539000,-0.095311
1.540000,-0.152589
1.541000,0.016698
1.542000,-0.297691
1.543000,-0.674449
1.544000,-1.114848
1.545000,-1.433056
1.546000,-1.560339
1.547000,-1.865818
1.548000,-2.206936
1.549000,-2.500960
1.550000,-3.069915
1.551000,-3.834886
1.552000,-4.705501
1.553000,-5.582481
1.554000,-5.646123
1.555000,-5.074622
1.556000,-4.239646
1.557000,-3.478493
1.558000,-2.565874
1.559000,-1.538700
1.560000,-0.606989
1.561000,-0.083856
1.562000,0.753666
1.563000,1.250070
1.564000,0.751121
1.565000,0.600927
1.566000,0.410002
1.567000,0.236897
1.568000,-0.283690
1.569000,-0.564985
1.570000,-0.932833
1.571000,-1.139032
1.572000,-1.277770
1.573000,-1.890001
1.574000,-2.254031
1.575000,-2.157296
1.576000,-2.452592
1.577000,-2.189117
1.578000,-1.798358
1.579000,-1.994374
1.580000,-2.324037
1.581000,-2.182752
1.582000,-1.982918
1.583000,-1.840361
1.584000,-1.462331
1.585000,-1.854362
1.586000,-2.072016
1.587000,-1.789448
1.588000,-1.613797
1.589000,-1.122485
1.590000,-0.898467
1.591000,-0.769911
1.592000,-0.991384
1.593000,-1.599796
1.594000,-2.195481
1.595000,-3.337209
1.596000,-3.501404
1.597000,-2.802621
1.598000,-2.068198
1.599000,-1.509425
1.600000,-1.117394
1.601000,-1.574340
1.602000,-1.447057
1.603000,-1.378324
1.604000,-1.515789
1.605000,-1.616343
1.606000,-1.775447
1.607000,-1.844180
1.608000,-1.090664
1.609000,-0.689723
1.610000,-0.624808
1.611000,0.077794
1.612000,0.339997
1.613000,0.435459
1.614000,0.388364
1.615000,0.625111
1.616000,0.240716
1.617000,-0.775002
1.618000,-1.854362
1.619000,-2.797529
1.620000,-3.189561
1.621000,-2.970634
1.622000,-2.884082
1.623000,-2.595149
1.624000,-2.017284
1.625000,-1.461058
1.626000,-0.612080
1.627000,-0.048216
1.628000,-0.268416
1.629000,-1.184854
1.630000,-3.199744
1.631000,-4.220553
1.632000,-3.496313
1.633000,-3.029184
1.634000,-2.712250
1.635000,-1.813632
1.636000,-0.772457
1.637000,0.236897
1.638000,0.348906
1.639000,0.626383
1.640000,0.841492
1.641000,0.396001
1.642000,-0.220049
1.643000,-0.524255
1.644000,-0.718998
1.645000,-0.388062
1.646000,-0.664266
1.647000,-0.880647
1.648000,-1.243404
1.649000,-1.772901
1.650000,-2.103837
1.651000,-2.520052
1.652000,-2.951542
1.653000,-3.335936
1.654000,-3.461947
1.655000,-3.083916
1.656000,-2.741525
1.657000,-2.467866
1.658000,-2.133112
1.659000,-1.772901
1.660000,-1.595978
1.661000,-1.487787
1.662000,-1.144123
1.663000,-0.683359
1.664000,-0.883193
1.665000,-1.117394
1.666000,-1.375778
1.667000,-1.244677
1.668000,-0.469523
1.669000,-0.361333
1.670000,-1.034660
1.671000,-1.604888
1.672000,-2.072016
1.673000,-2.339310
1.674000,-2.377495
1.675000,-2.447501
1.676000,-2.268032
1.677000,-2.021103
1.678000,-2.651154
1.679000,-3.955805
1.680000,-4.079269
1.681000,-3.013910
1.682000,-2.220937
1.683000,-1.721988
1.684000,-0.995202
1.685000,-0.305328
1.686000,0.749848
1.687000,1.829208
1.688000,1.666285
1.689000,1.000595
1.690000,0.140162
1.691000,-0.156407
1.692000,-0.044398
1.693000,-0.325693
1.694000,-1.091937
1.695000,-1.870909
1.696000,-1.963826
1.697000,-1.657074
1.698000,-1.588341
1.699000,-1.679985
1.700000,-2.120384
1.701000,-3.290114
1.702000,-5.587573
1.703000,-6.990231
1.704000,-6.067430
1.705000,-4.358019
1.706000,-2.605332
1.707000,-1.224311
1.708000,-0.081310
1.709000,0.572925
1.710000,0.483826
1.711000,0.576743
1.712000,0.542377
1.713000,-0.106767
1.714000,-1.508152
1.715000,-2.222210
1.716000,-2.553146
1.717000,-2.292216
1.718000,-1.883637
1.719000,-1.462331
1.720000,-1.387234
1.721000,-1.363050
1.722000,-0.654084
1.723000,0.594563
1.724000,1.537730
1.725000,1.303529
1.726000,0.421458
1.727000,-0.356241
1.728000,-0.552257
1.729000,-0.324421
1.730000,-0.473342
1.731000,-0.790276
1.732000,-1.094483
1.733000,-1.263769
1.734000,-1.469968
1.735000,-1.840361
1.736000,-2.415680
1.737000,-3.022820
1.738000,-3.292660
1.739000,-3.218836
1.740000,-3.253202
1.741000,-2.906993
1.742000,-2.698249
1.743000,-2.682975
1.744000,-2.750435
1.745000,-2.396588
1.746000,-1.774174
1.747000,-0.656629
1.748000,-0.232777
1.749000,-0.279872
1.750000,-0.066036
1.751000,-0.498798
1.752000,-1.080482
1.753000,-1.509425
1.754000,-1.831451
1.755000,-2.126748
1.756000,-2.247667
1.757000,-2.745343
1.758000,-2.797529
1.759000,-3.433944
1.760000,-3.477220
1.761000,-2.848442
1.762000,-1.685076
1.763000,-0.505162
1.764000,0.052337
1.765000,-0.080037
1.766000,-1.025750
1.767000,-1.303227
1.768000,-1.338866
1.769000,-1.402508
1.770000,-1.267588
1.771000,-1.065208
1.772000,-0.923924
1.773000,-0.895921
1.774000,-1.030841
1.775000,-1.524699
1.776000,-3.001182
1.777000,-3.991444
1.778000,-3.460674
1.779000,-2.744070
1.780000,-2.489504
1.781000,-1.984191
1.782000,-1.732171
1.783000,-1.153033
1.784000,-0.232777
1.785000,0.616201
1.786000,0.637839
1.787000,-0.141133
1.788000,-0.530619
1.789000,-0.486070
1.790000,0.118524
1.791000,0.805852
1.792000,0.704026
1.793000,-0.567531
1.794000,-1.529791
1.795000,-1.804722
1.796000,-2.264214
1.797000,-2.120384
1.798000,-2.304944
1.799000,-2.098746
1.800000,-1.761446
1.801000,-1.926914
1.802000,-1.886183
1.803000,-2.598968
1.804000,-3.972351
1.805000,-4.888789
1.806000,-4.478938
1.807000,-3.036821
1.808000,-1.767810
1.809000,-0.908650
1.810000,-0.538256
1.811000,-0.501344
1.812000,-1.270133
1.813000,-1.819996
1.814000,-1.257405
1.815000,-0.791549
1.816000,-2.017284
1.817000,-2.243848
1.818000,-1.506880
1.819000,-0.605716
1.820000,-0.071127
1.821000,0.860584
1.822000,2.029042
1.823000,2.247969
1.824000,1.265344
1.825000,-0.059672
1.826000,-0.475887
1.827000,-1.117394
1.828000,-1.531063
1.829000,-1.065208
1.830000,-1.172125
1.831000,-1.762718
1.832000,-1.942188
1.833000,-1.970190
1.834000,-2.038923
1.835000,-2.182752
1.836000,-2.404225
1.837000,-2.408043
1.838000,-2.240030
1.839000,-2.019830
1.840000,-1.825087
1.841000,-1.387234
1.842000,-1.597251
1.843000,-1.869636
1.844000,-2.178934
1.845000,-2.274396
1.846000,-2.196754
1.847000,-2.609150
1.848000,-3.423762
1.849000,-4.426752
1.850000,-4.615130
1.851000,-4.168367
1.852000,-3.556136
1.853000,-2.374950
1.854000,-1.753809
1.855000,-1.643072
1.856000,-1.681257
1.857000,-1.091937
1.858000,0.076521
1.859000,0.581834
1.860000,-0.339695
1.861000,-0.473342
1.862000,0.009061
1.863000,0.294175
1.864000,-0.031670
1.865000,-0.015123
1.866000,-0.572622
1.867000,-2.241303
1.868000,-3.005001
1.869000,-2.926085
1.870000,-2.618060
1.871000,-2.154750
1.872000,-2.298580
1.873000,-1.947279
1.874000,-1.048661
1.875000,-0.566258
1.876000,0.418912
1.877000,1.205521
1.878000,0.987867
1.879000,1.169882
1.880000,0.558923
1.881000,-0.227686
1.882000,-1.187399
1.883000,-2.203118
1.884000,-3.054641
1.885000,-3.590502
1.886000,-3.469584
1.887000,-4.380930
1.888000,-4.414023
1.889000,-3.677055
1.890000,-3.991444
1.891000,-3.026639
1.892000,-1.557793
1.893000,0.194894
1.894000,0.868221
1.895000,0.858038
1.896000,0.357816
1.897000,-0.097857
1.898000,-0.155134
1.899000,-0.379152
1.900000,-0.372788
1.901000,-0.539529
1.902000,-0.608262
1.903000,-0.927742
1.904000,-1.539973
1.905000,-2.395315
1.906000,-2.317672
1.907000,-2.218392
1.908000,-2.354584
1.909000,-1.847998
1.910000,-1.657074
1.911000,-1.762718
1.912000,-1.648164
1.913000,-1.496697
1.914000,-1.501788
1.915000,-1.163216
1.916000,-1.625253
1.917000,-2.544236
1.918000,-2.900628
1.919000,-2.923539
1.920000,-2.346947
1.921000,-2.199299
1.922000,-1.882365
1.923000,-1.219220
1.924000,-1.121212
1.925000,-1.272679
1.926000,-1.130122
1.927000,-1.235767
1.928000,-1.169580
1.929000,-0.875556
1.930000,-0.550984
1.931000,0.049791
1.932000,-0.671903
1.933000,-1.188672
1.934000,-1.346503
1.935000,-1.170853
1.936000,-0.567531
1.937000,-0.557348
1.938000,-0.670630
1.939000,-0.884466
1.940000,-1.172125
1.941000,-1.440693
1.942000,-1.519608
1.943000,-1.691440
1.944000,-1.929459
1.945000,-1.951097
1.946000,-2.007102
1.947000,-2.082199
1.948000,-2.334219
1.949000,-2.330401
1.950000,-3.087735
1.951000,-4.228190
1.952000,-4.123818
1.953000,-3.511587
1.954000,-2.590058
1.955000,-1.965098
1.956000,-1.608706
1.957000,-1.546337
1.958000,-1.463603
1.959000,-1.377051
1.960000,-1.032114
1.961000,-0.380425
1.962000,-0.326966
1.963000,-0.094038
1.964000,-0.231504
1.965000,-0.311692
1.966000,-0.349877
1.967000,-0.034215
1.968000,0.314540
1.969000,-0.348604
1.970000,-0.988838
1.971000,-1.156851
1.972000,-1.830178
1.973000,-2.723705
1.974000,-3.371576
1.975000,-3.853978
1.976000,-4.065268
1.977000,-4.015628
1.978000,-3.241747
1.979000,-2.357130
1.980000,-1.599796
1.981000,-1.170853
1.982000,-0.572622
1.983000,0.137617
1.984000,1.073147
1.985000,1.456269
1.986000,-0.790276
1.987000,-1.285407
1.988000,-1.075390
1.989000,-0.825916
1.990000,-0.472069
1.991000,-0.188228
1.992000,-0.197138
1.993000,-0.282417
1.994000,-0.785185
1.995000,-1.391052
1.996000,-2.129294
1.997000,-3.073733
1.998000,-2.758072
1.999000,-2.798802
2.000000,-3.190834
2.001000,-2.998636
2.002000,-3.052095
2.003000,-2.676610
2.004000,-1.993101
2.005000,-1.508152
2.006000,-0.976110
2.007000,-0.307874
2.008000,0.034517
2.009000,0.282719
2.010000,0.776577
2.011000,0.389637
2.012000,-0.288781
2.013000,-0.399518
2.014000,-0.642628
2.015000,-0.884466
2.016000,-1.341412
2.017000,-1.611252
2.018000,-1.648164
2.019000,-1.914185
2.020000,-2.237484
2.021000,-2.752980
2.022000,-3.066096
2.023000,-2.836987
2.024000,-3.208653
2.025000,-3.968533
2.026000,-4.240918
2.027000,-3.773790
2.028000,-3.271022
2.029000,-2.704613
2.030000,-1.878546
2.031000,-0.487343
2.032000,0.215259
2.033000,-0.027851
2.034000,-0.174227
2.035000,0.175802
2.036000,0.086703
2.037000,-0.273507
2.038000,-0.505162
2.039000,-0.992656
2.040000,-1.822541
2.041000,-2.555692
2.042000,-3.184470
2.043000,-3.341028
2.044000,-3.057187
2.045000,-2.677883
2.046000,-2.208209
2.047000,-1.855635
2.048000,-2.248940
2.049000,-2.255304
2.050000,-1.932005
2.051000,-1.757627
2.052000,-1.285407
2.053000,-1.448329
2.054000,-1.887456
2.055000,-1.896366
2.056000,-1.832724
2.057000,-1.081754
2.058000,-0.304055
2.059000,0.396001
2.060000,1.956491
2.061000,1.190247
2.062000,-0.517891
2.063000,-1.550156
2.064000,-3.211199
2.065000,-3.703784
2.066000,-3.066096
2.067000,-2.226029
2.068000,-1.214129
2.069000,-0.428793
2.070000,0.654386
2.071000,1.392627
2.072000,1.447359
2.073000,0.421458
2.074000,-0.487343
2.075000,-0.873010
2.076000,-1.290499
2.077000,-1.895093
2.078000,-1.597251
2.079000,-1.238313
2.080000,-1.532336
2.081000,-0.979928
2.082000,-0.405882
2.083000,-1.631617
2.084000,-2.294761
2.085000,-1.968917
2.086000,-1.663438
2.087000,-1.304500
2.088000,-0.864101
2.089000,-0.689723
2.090000,-0.820824
2.091000,-1.002839
2.092000,-1.422873
2.093000,-1.637981
2.094000,-2.064379
2.095000,-2.506051
2.096000,-2.298580
2.097000,-2.027467
2.098000,-2.024921
2.099000,-2.176388
2.100000,-2.610423
2.101000,-3.761062
2.102000,-3.511587
2.103000,-3.067369
2.104000,-2.546782
2.105000,-2.381314
2.106000,-2.436046
2.107000,-2.466593
2.108000,-2.606605
2.109000,-2.680429
2.110000,-1.791994
2.111000,-1.387234
2.112000,-1.217947
2.113000,-0.976110
2.114000,-0.340967
2.115000,0.496555
2.116000,0.614928
2.117000,0.225442
2.118000,-0.442794
2.119000,-0.745727
2.120000,-1.109757
2.121000,-1.305773
2.122000,-1.571794
2.123000,-1.546337
2.124000,-1.763991
2.125000,-1.637981
2.126000,-1.449602
2.127000,-1.477605
2.128000,-2.234938
2.129000,-3.986352
2.130000,-3.895982
2.131000,-3.335936
2.132000,-3.286296
2.133000,-3.638870
2.134000,-2.957906
2.135000,-2.248940
2.136000,-1.697804
2.137000,-1.080482
2.138000,0.005242
2.139000,0.319631
2.140000,0.121070
2.141000,0.107069
2.142000,0.067611
2.143000,0.034517
2.144000,-0.561167
2.145000,-0.923924
2.146000,-0.950653
2.147000,-0.762274
2.148000,-0.946834
2.149000,-1.646891
2.150000,-2.180207
2.151000,-2.212027
2.152000,-1.818723
2.153000,-1.469968
2.154000,-1.041024
2.155000,-0.883193
2.156000,-1.001566
2.157000,-1.118667
2.158000,-0.990111
2.159000,-0.888284
2.160000,-1.254859
2.161000,-2.591331
2.162000,-2.817895
2.163000,-2.388951
2.164000,-1.963826
2.165000,-0.955744
2.166000,-0.501344
2.167000,-0.662993
2.168000,-0.743182
2.169000,-0.744455
2.170000,-1.354140
2.171000,-1.481423
2.172000,-1.504334
2.173000,-1.317228
2.174000,-1.049934
2.175000,-1.431783
2.176000,-1.956189
2.177000,-1.999465
2.178000,-1.814905
2.179000,-1.846725
2.180000,-1.532336
2.181000,-1.366868
2.182000,-1.979100
2.183000,-2.976998
2.184000,-2.849715
2.185000,-2.182752
2.186000,-1.859454
2.187000,-1.377051
2.188000,-1.727079
2.189000,-2.336765
2.190000,-2.932449
2.191000,-2.675338
2.192000,-1.756354
2.193000,-2.430954
2.194000,-2.539145
2.195000,-1.867091
2.196000,-1.032114
2.197000,-0.267143
2.198000,0.068884
2.199000,0.650567
2.200000,0.846583
2.201000,0.502919
2.202000,0.051064
2.203000,-0.058399
2.204000,-0.225140
2.205000,-0.721544
2.206000,-1.447057
2.207000,-1.580704
2.208000,-1.709260
2.209000,-1.962553
2.210000,-2.304944
2.211000,-3.047004
2.212000,-3.520497
2.213000,-3.271022
2.214000,-3.005001
2.215000,-2.610423
2.216000,-1.869636
2.217000,-0.799186
2.218000,-0.083856
2.219000,-0.127132
2.220000,0.145254
2.221000,0.336178
2.222000,-0.032943
2.223000,-1.130122
2.224000,-2.625697
2.225000,-3.614686
2.226000,-4.001626
2.227000,-3.589230
2.228000,-3.080098
2.229000,-2.372404
2.230000,-2.666428
2.231000,-2.835714
2.232000,-2.205663
2.233000,-0.638810
2.234000,0.104523
2.235000,0.850401
2.236000,1.662467
2.237000,1.658649
2.238000,1.525001
2.239000,0.562742
2.240000,-0.463159
2.241000,-1.485242
2.242000,-1.948552
2.243000,-2.037650
2.244000,-1.933278
2.245000,-2.497141
2.246000,-2.896810
2.247000,-2.531508
2.248000,-2.331673
2.249000,-2.177661
2.250000,-1.849271
2.251000,-1.747445
2.252000,-1.565430
2.253000,-1.499243
2.254000,-2.018557
2.255000,-2.411862
2.256000,-2.929904
2.257000,-2.945178
2.258000,-2.330401
2.259000,-1.932005
2.260000,-2.422044
2.261000,-2.304944
2.262000,-1.779265
2.263000,-1.147942
2.264000,-0.021487
2.265000,0.276355
2.266000,0.216532
2.267000,0.310722
2.268000,0.011607
2.269000,-0.620990
2.270000,-1.167034
2.271000,-1.310864
2.272000,-1.234494
2.273000,-1.223039
2.274000,-1.391052
2.275000,-1.618889
2.276000,-2.105110
2.277000,-2.354584
2.278000,-2.135658
2.279000,-2.285852
2.280000,-2.343129
2.281000,-2.527689
2.282000,-2.290943
2.283000,-1.743626
2.284000,-1.543792
2.285000,-1.319774
2.286000,-1.253586
2.287000,-2.082199
2.288000,-2.343129
2.289000,-2.481867
2.290000,-2.215846
2.291000,-1.988009
2.292000,-2.518780
2.293000,-4.326198
2.294000,-5.162447
2.295000,-4.800964
2.296000,-3.710148
2.297000,-2.098746
2.298000,-0.482252
2.299000,0.879677
2.300000,1.637010
2.301000,1.920851
2.302000,2.359978
2.303000,2.204693
2.304000,1.789750
2.305000,0.912770
2.306000,0.487645
2.307000,-0.445339
2.308000,-1.429237
2.309000,-2.163660
2.310000,-2.399133
2.311000,-2.374950
2.312000,-2.237484
2.313000,-2.058015
2.314000,-1.193763
2.315000,-0.124586
2.316000,-0.388062
2.317000,-1.046115
2.318000,-1.069026
2.319000,-1.001566
2.320000,-0.668085
2.321000,-0.766093
2.322000,-2.386405
2.323000,-3.176833
2.324000,-3.487403
2.325000,-2.983362
2.326000,-2.432227
2.327000,-2.161114
2.328000,-1.785629
2.329000,-1.478877
2.330000,-1.725806
2.331000,-1.802176
2.332000,-1.592159
2.333000,-1.608706
2.334000,-1.901457
2.335000,-2.161114
2.336000,-2.166206
2.337000,-1.984191
2.338000,-2.271850
2.339000,-2.441137
2.340000,-2.227301
2.341000,-1.735989
2.342000,-1.312137
2.343000,-1.052479
2.344000,-0.699905
2.345000,-0.785185
2.346000,-1.191218
2.347000,-1.500516
2.348000,-1.622707
2.349000,-1.970190
2.350000,-2.003283
2.351000,-1.947279
2.352000,-2.185298
2.353000,-1.720715
2.354000,-0.993929
2.355000,-0.422429
2.356000,-0.298964
2.357000,-0.228958
2.358000,-0.274780
2.359000,-0.847554
2.360000,-2.532781
2.361000,-3.319390
2.362000,-3.500131
2.363000,-2.973180
2.364000,-2.175115
2.365000,-1.342685
2.366000,-0.468250
2.367000,-0.148770
2.368000,-0.179318
2.369000,0.157982
2.370000,-0.123313
2.371000,-0.857736
2.372000,-1.321046
2.373000,-1.565430
2.374000,-1.621434
2.375000,-1.629071
2.376000,-1.729625
2.377000,-1.856908
2.378000,-2.192935
2.379000,-2.194208
2.380000,-2.054197
2.381000,-2.041468
2.382000,-2.476776
2.383000,-2.747889
2.384000,-2.438591
2.385000,-2.021103
2.386000,-1.742353
2.387000,-0.687177
2.388000,-0.128405
2.389000,-0.526801
2.390000,-0.048216
2.391000,-0.529346
2.392000,-0.859009
2.393000,-0.997748
2.394000,-1.331229
2.395000,-1.307045
2.396000,-1.044842
2.397000,-1.039751
2.398000,-1.300681
2.399000,-1.420327
2.400000,-1.328683
2.401000,-0.757183
2.402000,-1.116121
2.403000,-1.634163
2.404000,-2.284579
2.405000,-4.027083
2.406000,-3.954532
2.407000,-3.685965
2.408000,-3.708876
2.409000,-2.646063
2.410000,-1.601069
2.411000,-0.936652
2.412000,-0.338422
2.413000,0.109614
2.414000,0.313267
2.415000,0.670932
2.416000,-0.052035
2.417000,-0.073673
2.418000,-0.007486
2.419000,-0.273507
2.420000,-0.771184
2.421000,-0.937925
2.422000,-1.331229
2.423000,-2.162387
2.424000,-2.633334
2.425000,-2.386405
2.426000,-2.097473
2.427000,-1.872182
2.428000,-1.835270
2.429000,-1.897638
2.430000,-1.944733
2.431000,-2.092381
2.432000,-3.881980
2.433000,-4.716957
2.434000,-4.288013
2.435000,-3.440308
2.436000,-2.359676
2.437000,-0.708815
2.438000,0.084158
2.439000,0.308176
2.440000,0.360362
2.441000,0.285265
2.442000,1.360806
2.443000,1.564459
2.444000,0.506737
2.445000,-0.293873
2.446000,-0.755910
2.447000,-1.270133
2.448000,-1.748717
2.449000,-1.897638
2.450000,-2.075835
2.451000,-2.161114
2.452000,-2.288397
2.453000,-2.245121
2.454000,-2.791165
2.455000,-3.160286
2.456000,-2.684247
2.457000,-2.036377
2.458000,-1.963826
2.459000,-1.794539
2.460000,-1.478877
2.461000,-1.193763
2.462000,-0.856464
2.463000,-0.878102
2.464000,-0.869192
2.465000,-1.435601
2.466000,-2.480595
2.467000,-3.772517
2.468000,-4.029629
2.469000,-3.259567
2.470000,-2.796256
2.471000,-3.351210
2.472000,-2.975725
2.473000,-2.134385
2.474000,-1.419054
2.475000,-1.145396
2.476000,-0.326966
2.477000,0.724391
2.478000,0.842764
2.479000,0.296720
2.480000,-0.109312
2.481000,-1.067753
2.482000,-1.830178
2.483000,-1.658346
2.484000,-1.070299
2.485000,-0.837371
2.486000,-0.603170
2.487000,-0.281144
2.488000,-0.256961
2.489000,-0.446612
2.490000,-0.845008
2.491000,-1.299408
2.492000,-1.478877
2.493000,-1.613797
2.494000,-1.928186
2.495000,-2.331673
2.496000,-2.242575
2.497000,-1.371960
2.498000,-1.244677
2.499000,-1.691440
2.500000,-1.444511
2.501000,-1.025750
2.502000,-0.482252
2.503000,-0.221321
2.504000,-0.535710
2.505000,-0.778821
2.506000,-0.735545
2.507000,-1.169580
2.508000,-1.677439
2.509000,-2.936268
2.510000,-4.179823
2.511000,-4.966432
2.512000,-5.178994
2.513000,-4.831512
2.514000,-4.159457
2.515000,-3.237928
2.516000,-2.233666
2.517000,-1.547610
2.518000,-0.847554
2.519000,0.585653
2.520000,1.784659
2.521000,1.149517
2.522000,0.341269
2.523000,-0.436430
2.524000,-0.822097
2.525000,-2.167478
2.526000,-1.925641
2.527000,-1.177217
2.528000,-0.020214
2.529000,0.803307
2.530000,0.891132
2.531000,0.690025
2.532000,-0.236595
2.533000,-1.625253
2.534000,-2.032558
2.535000,-1.907821
2.536000,-2.703340
2.537000,-4.892607
2.538000,-5.167539
2.539000,-4.620222
2.540000,-3.624869
2.541000,-2.362221
2.542000,-1.089391
2.543000,-0.002395
2.544000,0.362908
2.545000,0.382000
2.546000,0.352725
2.547000,0.010334
2.548000,-0.040580
2.549000,-0.069855
2.550000,-0.195865
2.551000,-1.131395
2.552000,-1.803449
2.553000,-1.844180
2.554000,-1.813632
2.555000,-2.493323
2.556000,-3.394487
2.557000,-4.103453
2.558000,-3.995262
2.559000,-3.474675
2.560000,-2.368586
2.561000,-0.745727
2.562000,0.021789
2.563000,0.231806
2.564000,0.331087
2.565000,0.995504
2.566000,1.531366
2.567000,0.905133
2.568000,-0.204775
2.569000,-1.321046
2.570000,-1.608706
2.571000,-1.685076
2.572000,-2.100018
2.573000,-2.606605
2.574000,-3.008819
2.575000,-3.702511
2.576000,-3.927802
2.577000,-4.560399
2.578000,-5.319005
2.579000,-5.425923
2.580000,-4.319834
2.581000,-2.250212
2.582000,-0.842462
2.583000,0.149072
2.584000,0.598381
2.585000,0.933135
2.586000,0.287811
2.587000,0.197440
2.588000,0.495282
2.589000,0.420185
2.590000,0.127434
2.591000,-0.094038
2.592000,-0.444067
2.593000,-0.939197
2.594000,-1.364323
2.595000,-1.809813
2.596000,-1.613797
2.597000,-1.575612
2.598000,-1.869636
2.599000,-1.781811
2.600000,-1.767810
2.601000,-1.869636
2.602000,-1.940915
2.603000,-1.775447
2.604000,-1.632890
2.605000,-2.051651
2.606000,-2.070743
2.607000,-1.914185
2.608000,-1.511971
2.609000,-1.559066
2.610000,-2.064379
2.611000,-2.559510
2.612000,-3.416125
2.613000,-3.423762
2.614000,-2.872626
2.615000,-2.072016
2.616000,-1.441965
2.617000,-0.768638
2.618000,-0.456795
2.619000,-0.379152
2.620000,-0.356241
2.621000,-0.564985
2.622000,-1.105938
2.623000,-2.065652
2.624000,-2.807712
2.625000,-2.597695
2.626000,-1.725806
2.627000,-1.198855
2.628000,-0.771184
2.629000,-0.134769
2.630000,0.014152
2.631000,-0.486070
2.632000,-0.769911
2.633000,-1.239585
2.634000,-2.116565
2.635000,-2.677883
2.636000,-2.802621
2.637000,-2.858625
2.638000,-2.723705
2.639000,-2.231120
2.640000,-1.266315
2.641000,-0.641355
2.642000,-1.263769
2.643000,-1.775447
2.644000,-1.921822
2.645000,-1.930732
2.646000,-1.477605
2.647000,-1.552702
2.648000,-1.847998
2.649000,-1.497970
2.650000,-0.888284
2.651000,-0.999020
2.652000,-0.752091
2.653000,-0.189501
2.654000,-0.446612
2.655000,-1.245950
2.656000,-1.449602
2.657000,-1.566703
2.658000,-1.878546
2.659000,-1.636708
2.660000,-1.024477
2.661000,-0.379152
2.662000,-0.172954
2.663000,-0.587896
2.664000,-0.749546
2.665000,-0.948107
2.666000,-1.002839
2.667000,-1.099574
2.668000,-1.234494
2.669000,-1.155579
2.670000,-1.247222
2.671000,-1.762718
2.672000,-2.409316
2.673000,-2.716068
2.674000,-2.354584
2.675000,-2.283306
2.676000,-1.902730
2.677000,-1.511971
2.678000,-1.562884
2.679000,-1.753809
2.680000,-1.606160
2.681000,-0.777548
2.682000,-1.122485
2.683000,-1.803449
2.684000,-2.382587
2.685000,-2.597695
2.686000,-2.288397
2.687000,-2.103837
2.688000,-1.601069
2.689000,-0.783912
2.690000,-0.753364
2.691000,-0.918832
2.692000,-0.797913
2.693000,-0.764820
2.694000,-0.764820
2.695000,-0.929015
2.696000,-1.331229
2.697000,-1.943460
2.698000,-2.079653
2.699000,-1.896366
2.700000,-1.552702
2.701000,-1.239585
2.702000,-1.569248
2.703000,-1.401235
2.704000,-1.461058
2.705000,-1.870909
2.706000,-2.047832
2.707000,-1.920549
2.708000,-1.579431
2.709000,-1.518335
2.710000,-1.919277
2.711000,-1.930732
2.712000,-2.500960
2.713000,-2.932449
2.714000,-2.213300
2.715000,-1.366868
2.716000,-0.887011
2.717000,-0.562440
2.718000,-0.431338
2.719000,-0.362606
2.720000,-0.307874
2.721000,-0.674449
2.722000,-1.114848
2.723000,-1.646891
2.724000,-1.996919
2.725000,-2.399133
2.726000,-3.138648
2.727000,-3.019002
2.728000,-2.717341
2.729000,-3.133556
2.730000,-3.543408
2.731000,-3.176833
2.732000,-2.730069
2.733000,-2.304944
2.734000,-2.497141
2.735000,-1.631617
2.736000,-0.824643
2.737000,-0.424974
2.738000,0.482554
2.739000,1.351896
2.740000,1.659921
2.741000,2.440166
2.742000,2.301428
2.743000,1.139334
2.744000,-0.043125
2.745000,-1.070299
2.746000,-1.896366
2.747000,-2.196754
2.748000,-3.002455
2.749000,-3.206108
2.750000,-3.806883
2.751000,-3.772517
2.752000,-3.134829
2.753000,-2.056742
2.754000,-0.881920
2.755000,-0.231504
2.756000,-0.288781
2.757000,-0.133496
2.758000,-0.172954
2.759000,-0.025306
2.760000,-0.058399
2.761000,-0.409700
2.762000,-1.086846
2.763000,-1.769083
2.764000,-1.700350
2.765000,-1.762718
2.766000,-1.753809
2.767000,-1.793266
2.768000,-2.077107
2.769000,-2.228574
2.770000,-2.548055
2.771000,-2.852261
2.772000,-3.288842
2.773000,-4.234554
2.774000,-5.019890
2.775000,-4.887516
2.776000,-4.196369
2.777000,-3.344846
2.778000,-2.696976
2.779000,-1.947279
2.780000,-1.172125
2.781000,-0.562440
2.782000,0.566560
2.783000,1.362079
2.784000,1.272981
2.785000,1.311166
2.786000,1.723563
2.787000,1.176246
2.788000,-0.188228
2.789000,-1.310864
2.790000,-1.856908
2.791000,-2.376223
2.792000,-2.437318
2.793000,-2.138203
2.794000,-2.236211
2.795000,-2.716068
2.796000,-2.615515
2.797000,-2.080926
2.798000,-1.431783
2.799000,-1.351594
2.800000,-1.448329
2.801000,-2.564601
2.802000,-3.734332
2.803000,-3.143739
2.804000,-1.797085
2.805000,-0.909922
2.806000,-0.221321
2.807000,0.273809
2.808000,0.202531
2.809000,-0.211139
2.810000,-0.245505
2.811000,0.606018
2.812000,0.445642
2.813000,-0.606989
2.814000,-1.275225
2.815000,-1.621434
2.816000,-2.275669
2.817000,-2.840805
2.818000,-2.843351
2.819000,-2.465321
2.820000,-1.949824
2.821000,-1.529791
2.822000,-0.954471
2.823000,-0.930288
2.824000,-0.985019
2.825000,-1.150487
2.826000,-1.009203
2.827000,-0.608262
2.828000,-1.084300
2.829000,-1.795812
2.830000,-3.044458
2.831000,-3.698693
2.832000,-4.030902
2.833000,-3.948168
2.834000,-4.065268
2.835000,-3.509041
2.836000,-2.385132
2.837000,-1.439420
2.838000,-0.786458
2.839000,-0.077492
2.840000,0.215259
2.841000,-0.044398
2.842000,-0.142406
2.843000,-0.623536
2.844000,-1.005385
2.845000,-1.259951
2.846000,-1.346503
2.847000,-1.285407
2.848000,-1.133940
2.849000,-0.992656
2.850000,-0.730453
2.851000,-0.180591
2.852000,-0.212412
2.853000,-0.633718
2.854000,-0.890830
2.855000,-1.155579
2.856000,-1.378324
2.857000,-1.559066
2.858000,-1.847998
2.859000,-2.227301
2.860000,-3.465765
2.861000,-5.483201
2.862000,-7.211704
2.863000,-6.225260
2.864000,-4.289286
2.865000,-2.308763
2.866000,-0.390608
2.867000,1.012051
2.868000,1.840663
2.869000,1.918306
2.870000,2.483442
2.871000,2.735463
2.872000,2.166508
2.873000,0.656931
2.874000,-0.171681
2.875000,-0.718998
2.876000,-1.300681
2.877000,-1.691440
2.878000,-1.809813
2.879000,-2.112747
2.880000,-2.187844
2.881000,-2.324037
2.882000,-2.513688
2.883000,-2.437318
2.884000,-2.176388
2.885000,-2.126748
2.886000,-3.066096
2.887000,-4.930792
2.888000,-4.967704
2.889000,-4.109817
2.890000,-3.053368
2.891000,-1.846725
2.892000,-1.025750
2.893000,-0.675722
2.894000,-0.279872
2.895000,0.053610
2.896000,0.617474
2.897000,0.924226
2.898000,0.086703
2.899000,-0.741909
2.900000,-1.331229
2.901000,-1.606160
2.902000,-1.949824
2.903000,-2.752980
2.904000,-3.310480
2.905000,-3.193379
2.906000,-2.794984
2.907000,-2.486959
2.908000,-2.257849
2.909000,-2.012193
2.910000,-1.686349
2.911000,-1.284134
2.912000,-0.674449
2.913000,0.038336
2.914000,0.584380
2.915000,0.379454
2.916000,-0.262052
2.917000,-0.417337
2.918000,-0.138587
2.919000,-0.024033
2.920000,-0.407155
2.921000,-0.697360
2.922000,-0.976110
2.923000,-1.800903
2.924000,-2.900628
2.925000,-3.330845
2.926000,-3.263385
2.927000,-3.160286
2.928000,-2.889173
2.929000,-2.321491
2.930000,-1.935823
2.931000,-2.214573
2.932000,-1.920549
2.933000,-1.429237
2.934000,-1.557793
2.935000,-1.431783
2.936000,-0.799186
2.937000,-0.421156
2.938000,-0.388062
2.939000,-0.694814
2.940000,-1.173398
2.941000,-1.480150
2.942000,-1.902730
2.943000,-1.967644
2.944000,-2.327855
2.945000,-1.888729
2.946000,-1.427964
2.947000,-1.097028
2.948000,-0.799186
2.949000,-0.880647
2.950000,-1.175944
2.951000,-1.603615
2.952000,-2.005829
2.953000,-2.442410
2.954000,-2.736433
2.955000,-2.719887
2.956000,-2.280760
2.957000,-1.914185
2.958000,-1.102120
2.959000,-0.349877
2.960000,-0.459341
2.961000,-1.328683
2.962000,-1.561611
2.963000,-0.908650
2.964000,-0.554803
2.965000,-0.888284
2.966000,-1.041024
2.967000,-1.140305
2.968000,-1.099574
2.969000,-1.102120
2.970000,-0.771184
2.971000,-0.820824
2.972000,-1.077936
2.973000,-1.291771
2.974000,-1.525972
2.975000,-1.756354
2.976000,-1.960007
2.977000,-2.103837
2.978000,-2.163660
2.979000,-2.041468
2.980000,-2.051651
2.981000,-2.144567
2.982000,-2.100018
2.983000,-1.672348
2.984000,-1.298136
2.985000,-1.476332
2.986000,-1.433056
2.987000,-1.224311
2.988000,-1.284134
2.989000,-1.794539
2.990000,-2.019830
2.991000,-1.944733
2.992000,-1.912912
2.993000,-2.042741
2.994000,-1.766537
2.995000,-1.343957
2.996000,-0.972291
2.997000,-0.968473
2.998000,-1.644345
2.999000,-2.374950
3.000000,-3.055914
3.001000,-3.075006
3.002000,-3.753425
3.003000,-3.853978
3.004000,-3.871798
3.005000,-3.547226
3.006000,-2.493323
3.007000,-1.427964
3.008000,0.038336
3.009000,1.420629
3.010000,1.409174
3.011000,1.083329
3.012000,1.093512
3.013000,0.709117
3.014000,0.021789
3.015000,-0.108040
3.016000,-0.324421
3.017000,-1.135213
3.018000,-1.685076
3.019000,-1.988009
3.020000,-1.800903
3.021000,-2.111474
3.022000,-2.672792
3.023000,-2.026194
3.024000,-0.740636
3.025000,0.011607
3.026000,0.331087
3.027000,0.161800
3.028000,-0.408427
3.029000,-0.727908
3.030000,-0.857736
3.031000,-1.472513
3.032000,-2.149659
3.033000,-3.091553
3.034000,-3.703784
3.035000,-3.617232
3.036000,-2.928631
3.037000,-2.565874
3.038000,-2.405498
3.039000,-1.630344
3.040000,-0.873010
3.041000,-0.655356
3.042000,-0.150043
3.043000,0.099432
3.044000,-0.164044
3.045000,-0.391881
3.046000,-0.688450
3.047000,-1.184854
3.048000,-2.488232
3.049000,-3.192107
3.050000,-3.565046
3.051000,-3.445400
3.052000,-2.742798
3.053000,-2.125475
3.054000,-1.748717
3.055000,-1.365596
3.056000,-1.077936
3.057000,-0.901013
3.058000,-0.391881
3.059000,-0.139860
3.060000,-1.200128
3.061000,-1.912912
3.062000,-2.353312
3.063000,-2.198026
3.064000,-2.038923
3.065000,-1.869636
3.066000,-1.603615
3.067000,-1.235767
3.068000,-1.575612
3.069000,-1.679985
3.070000,-1.918004
3.071000,-1.811086
3.072000,-2.046560
3.073000,-2.290943
3.074000,-2.010920
3.075000,-1.822541
3.076000,-2.046560
3.077000,-2.166206
3.078000,-1.738535
3.079000,-1.514517
3.080000,-1.155579
3.081000,-1.037205
3.082000,-0.431338
3.083000,-0.239141
3.084000,-0.270962
3.085000,-0.192046
3.086000,-0.050762
3.087000,-0.390608
3.088000,-0.828461
3.089000,-1.308318
3.090000,-1.623980
3.091000,-1.565430
3.092000,-1.723261
3.093000,-2.359676
3.094000,-2.350766
3.095000,-2.139476
3.096000,-1.710532
3.097000,-1.611252
3.098000,-1.965098
3.099000,-3.128465
3.100000,-2.861171
3.101000,-2.086017
3.102000,-2.027467
3.103000,-1.725806
3.104000,-0.986292
3.105000,-0.272235
3.106000,-0.046944
3.107000,0.099432
3.108000,0.191076
3.109000,-0.109312
3.110000,-1.863272
3.111000,-3.013910
3.112000,-3.227746
3.113000,-2.973180
3.114000,-2.149659
3.115000,-0.865373
3.116000,-0.119495
3.117000,0.281446
3.118000,0.413821
3.119000,0.309449
3.120000,0.179620
3.121000,-0.431338
3.122000,-1.186127
3.123000,-1.808540
3.124000,-1.846725
3.125000,-1.876000
3.126000,-1.833997
3.127000,-1.709260
3.128000,-1.539973
3.129000,-1.275225
3.130000,-1.361777
3.131000,-1.426691
3.132000,-1.825087
3.133000,-1.925641
3.134000,-1.828906
3.135000,-1.938369
3.136000,-2.017284
3.137000,-2.367313
3.138000,-2.866262
3.139000,-2.815349
3.140000,-2.357130
3.141000,-2.013466
3.142000,-1.657074
3.143000,-1.359231
3.144000,-0.982474
3.145000,-0.755910
3.146000,-0.720271
3.147000,-1.187399
3.148000,-2.260395
3.149000,-2.737706
3.150000,-2.940086
3.151000,-2.602786
3.152000,-2.494596
3.153000,-2.450047
3.154000,-2.430954
3.155000,-1.907821
3.156000,-1.285407
3.157000,-0.775002
3.158000,-0.483524
3.159000,-0.100403
3.160000,-0.564985
3.161000,-1.102120
3.162000,-1.137759
3.163000,-0.533165
3.164000,0.057428
3.165000,-0.197138
3.166000,-1.077936
3.167000,-2.226029
3.168000,-2.791165
3.169000,-2.951542
3.170000,-2.957906
3.171000,-2.672792
3.172000,-2.779710
3.173000,-2.749162
3.174000,-2.551873
3.175000,-2.318945
3.176000,-2.442410
3.177000,-2.217119
3.178000,-2.073289
3.179000,-1.219220
3.180000,-0.307874
3.181000,0.117251
3.182000,0.394728
3.183000,1.176246
3.184000,1.489362
3.185000,0.977684
3.186000,0.935681
3.187000,0.788033
3.188000,0.283992
3.189000,-0.384244
3.190000,-0.834825
3.191000,-1.098301
3.192000,-1.476332
3.193000,-1.985464
3.194000,-2.484413
3.195000,-2.576057
3.196000,-2.451320
3.197000,-2.540418
3.198000,-2.726251
3.199000,-3.311753
3.200000,-3.138648
3.201000,-2.714795
3.202000,-2.268032
3.203000,-1.734716
3.204000,-1.487787
3.205000,-1.217947
3.206000,-0.857736
3.207000,-1.010476
3.208000,-1.284134
3.209000,-1.309591
3.210000,-1.672348
3.211000,-1.774174
3.212000,-1.738535
3.213000,-1.580704
3.214000,-1.625253
3.215000,-1.723261
3.216000,-1.771628
3.217000,-1.692713
3.218000,-1.455966
3.219000,-1.389779
3.220000,-1.408872
3.221000,-1.170853
3.222000,-1.776720
3.223000,-2.904447
3.224000,-3.505223
3.225000,-3.558682
3.226000,-3.338482
3.227000,-2.808985
3.228000,-2.283306
3.229000,-2.428409
3.230000,-2.143295
3.231000,-2.189117
3.232000,-1.897638
3.233000,-0.516618
3.234000,0.156709
3.235000,-0.221321
3.236000,-0.505162
3.237000,-0.801732
3.238000,-0.640082
3.239000,-0.156407
3.240000,-0.585351
3.241000,-0.796641
3.242000,-0.827188
3.243000,-0.545893
3.244000,-0.109312
3.245000,0.101977
3.246000,0.443096
3.247000,0.367999
3.248000,0.098159
3.249000,-0.632445
3.250000,-1.342685
3.251000,-1.617616
3.252000,-1.251041
3.253000,-1.402508
3.254000,-1.551429
3.255000,-1.749990
3.256000,-2.047832
3.257000,-2.009648
3.258000,-2.201845
3.259000,-2.601513
3.260000,-3.024093
3.261000,-3.258294
3.262000,-3.178105
3.263000,-2.825532
3.264000,-2.229847
3.265000,-1.419054
3.266000,-0.312965
3.267000,0.160528
3.268000,-0.242959
3.269000,-0.707542
3.270000,-0.969745
3.271000,-1.175944
3.272000,-1.765264
3.273000,-1.901457
3.274000,-2.142022
3.275000,-2.092381
3.276000,-1.988009
3.277000,-1.882365
3.278000,-1.739808
3.279000,-1.819996
3.280000,-1.960007
3.281000,-1.654528
3.282000,-1.490333
3.283000,-1.655801
3.284000,-1.629071
3.285000,-1.696531
3.286000,-1.607433
3.287000,-1.548883
3.288000,-1.887456
3.289000,-2.124202
3.290000,-1.999465
3.291000,-1.758900
3.292000,-1.696531
3.293000,-1.608706
3.294000,-1.230676
3.295000,-1.724534
3.296000,-2.698249
3.297000,-2.853534
3.298000,-2.060561
3.299000,-1.135213
3.300000,-0.572622
3.301000,-0.715179
3.302000,-0.298964
3.303000,-0.337149
3.304000,-1.570521
3.305000,-1.449602
3.306000,-1.850544
3.307000,-2.107655
3.308000,-1.892547
3.309000,-1.467422
3.310000,-0.427520
3.311000,0.225442
3.312000,-0.024033
3.313000,-0.351150
3.314000,-0.923924
3.315000,-1.223039
3.316000,-1.220493
3.317000,-1.575612
3.318000,-1.914185
3.319000,-2.049105
3.320000,-2.349493
3.321000,-2.185298
3.322000,-1.982918
3.323000,-1.859454
3.324000,-1.639254
3.325000,-1.601069
3.326000,-2.298580
3.327000,-1.747445
3.328000,-1.057571
3.329000,-0.749546
3.330000,-1.089391
3.331000,-2.568420
3.332000,-3.548499
3.333000,-3.316844
3.334000,-2.689339
3.335000,-2.079653
3.336000,-0.809369
3.337000,-0.587896
3.338000,-0.819551
3.339000,-0.893376
3.340000,-0.585351
3.341000,-0.888284
3.342000,-1.340139
3.343000,-1.439420
3.344000,-0.927742
3.345000,-0.216230
3.346000,0.448187
3.347000,0.613655
3.348000,0.649294
3.349000,-0.254415
3.350000,-1.234494
3.351000,-1.581977
3.352000,-1.583249
3.353000,-1.434328
3.354000,-1.150487
3.355000,-0.948107
3.356000,-1.268860
3.357000,-1.611252
3.358000,-1.747445
3.359000,-2.061834
3.360000,-2.551873
3.361000,-2.712250
3.362000,-2.910811
3.363000,-2.798802
3.364000,-2.766981
3.365000,-2.606605
3.366000,-2.248940
3.367000,-1.606160
3.368000,-1.156851
3.369000,-1.443238
3.370000,-1.557793
3.371000,-1.851817
3.372000,-2.077107
3.373000,-2.187844
3.374000,-1.565430
3.375000,-1.147942
3.376000,-0.901013
3.377000,-0.726635
3.378000,-0.367697
3.379000,-0.396972
3.380000,-0.516618
3.381000,-0.470796
3.382000,-0.761001
3.383000,-1.231948
3.384000,-1.536155
3.385000,-1.674893
3.386000,-1.849271
3.387000,-2.115292
3.388000,-2.136931
3.389000,-2.080926
3.390000,-2.532781
3.391000,-3.178105
3.392000,-3.255748
3.393000,-3.054641
3.394000,-2.615515
3.395000,-1.947279
3.396000,-1.440693
3.397000,-1.065208
3.398000,-1.151760
3.399000,-0.833553
3.400000,-0.349877
3.401000,-0.484797
3.402000,-1.233221
3.403000,-1.683803
3.404000,-1.629071
3.405000,-1.859454
3.406000,-1.784357
3.407000,-1.682530
3.408000,-1.496697
3.409000,-1.281589
3.410000,-1.191218
3.411000,-1.279043
3.412000,-1.169580
3.413000,-1.141577
3.414000,-1.854362
3.415000,-2.083472
3.416000,-2.409316
3.417000,-3.337209
3.418000,-3.599412
3.419000,-3.417397
3.420000,-2.656245
3.421000,-1.802176
3.422000,-0.985019
3.423000,-0.156407
3.424000,0.686206
3.425000,0.636566
3.426000,0.374363
3.427000,-0.029124
3.428000,-0.016396
3.429000,0.129980
3.430000,0.119797
3.431000,-0.395699
3.432000,-1.159397
3.433000,-1.289226
3.434000,-1.489060
3.435000,-1.391052
3.436000,-1.475059
3.437000,-1.637981
3.438000,-1.854362
3.439000,-2.196754
3.440000,-2.157296
3.441000,-2.073289
3.442000,-2.100018
3.443000,-2.110201
3.444000,-1.910367
3.445000,-1.523426
3.446000,-1.587068
3.447000,-1.877273
3.448000,-1.924368
3.449000,-1.892547
3.450000,-1.644345
3.451000,-1.300681
3.452000,-1.041024
3.453000,-0.944289
3.454000,-2.038923
3.455000,-2.315127
3.456000,-2.504778
3.457000,-1.993101
3.458000,-1.104665
3.459000,-0.834825
3.460000,-0.655356
3.461000,-0.946834
3.462000,-0.906104
3.463000,-0.127132
3.464000,0.089249
3.465000,-0.692268
3.466000,-1.486514
3.467000,-1.751263
3.468000,-1.877273
3.469000,-1.763991
3.470000,-1.546337
3.471000,-2.042741
3.472000,-2.420772
3.473000,-2.326582
3.474000,-2.093654
3.475000,-1.932005
3.476000,-1.840361
3.477000,-1.954916
3.478000,-2.028740
3.479000,-2.334219
3.480000,-2.625697
3.481000,-2.124202
3.482000,-1.625253
3.483000,-1.421600
3.484000,-1.464876
3.485000,-1.105938
3.486000,-0.735545
3.487000,-0.688450
3.488000,-0.767365
3.489000,-0.390608
3.490000,-0.314238
3.491000,-0.244232
3.492000,-0.643901
3.493000,-1.783084
3.494000,-2.584967
3.495000,-2.775891
3.496000,-2.497141
3.497000,-2.422044
3.498000,-2.760617
3.499000,-3.367757
3.500000,-3.198471
3.501000,-2.814076
3.502000,-1.924368
3.503000,-1.080482
3.504000,-0.492434
3.505000,-0.528073
3.506000,-0.469523
3.507000,-0.211139
3.508000,0.310722
3.509000,0.536012
3.510000,-0.232777
3.511000,-0.776275
3.512000,-1.042297
3.513000,-1.035933
3.514000,-1.016840
3.515000,-0.885739
3.516000,-0.962108
3.517000,-0.755910
3.518000,-0.726635
3.519000,-1.117394
3.520000,-1.458512
3.521000,-2.158569
3.522000,-2.259122
3.523000,-2.293489
3.524000,-2.646063
3.525000,-2.996091
3.526000,-2.542963
3.527000,-2.261668
3.528000,-1.971463
3.529000,-1.385961
3.530000,-1.155579
3.531000,-0.837371
3.532000,-1.093210
3.533000,-1.355413
3.534000,-1.490333
3.535000,-1.995646
3.536000,-2.406770
3.537000,-2.241303
3.538000,-1.998192
3.539000,-1.884910
3.540000,-1.946006
3.541000,-2.091109
3.542000,-2.649881
3.543000,-2.348220
3.544000,-1.453421
3.545000,-0.755910
3.546000,-0.624808
3.547000,-0.545893
3.548000,-0.211139
3.549000,-0.087674
3.550000,-0.155134
3.551000,-1.053752
3.552000,-2.210755
3.553000,-2.821713
3.554000,-3.586684
3.555000,-4.140365
3.556000,-3.916347
3.557000,-3.153922
3.558000,-2.280760
3.559000,-1.509425
3.560000,-0.795368
3.561000,-0.363878
3.562000,-0.277326
3.563000,-0.525528
3.564000,-0.684631
3.565000,-0.787731
3.566000,-0.710088
3.567000,-0.712634
3.568000,-0.703724
3.569000,-0.703724
3.570000,-0.622263
3.571000,-0.595533
3.572000,-0.354969
3.573000,-0.309147
3.574000,-0.469523
3.575000,-1.192491
3.576000,-1.594705
3.577000,-1.494151
3.578000,-1.422873
3.579000,-1.593432
3.580000,-1.741080
3.581000,-1.462331
3.582000,-1.482696
3.583000,-1.616343
3.584000,-2.027467
3.585000,-3.293933
3.586000,-4.039811
3.587000,-4.406386
3.588000,-4.136546
3.589000,-4.375838
3.590000,-4.229463
3.591000,-3.075006
3.592000,-1.557793
3.593000,0.112160
3.594000,1.536457
3.595000,2.601816
3.596000,2.286154
3.597000,1.628101
3.598000,1.146971
3.599000,-0.017669
3.600000,-1.195036
3.601000,-1.738535
3.602000,-1.637981
3.603000,-1.550156
3.604000,-1.351594
3.605000,-1.111030
3.606000,-0.554803
3.607000,-0.633718
3.608000,-1.146669
3.609000,-1.550156
3.610000,-1.954916
3.611000,-2.142022
3.612000,-2.184025
3.613000,-2.320218
3.614000,-2.456411
3.615000,-2.478049
3.616000,-2.352039
3.617000,-2.388951
3.618000,-2.348220
3.619000,-2.251485
3.620000,-3.035548
3.621000,-3.693602
3.622000,-3.441581
3.623000,-2.861171
3.624000,-2.273123
3.625000,-1.697804
3.626000,-1.415236
3.627000,-1.346503
3.628000,-1.631617
3.629000,-1.389779
3.630000,-0.888284
3.631000,-0.673176
3.632000,-0.510254
3.633000,-0.217503
3.634000,0.264900
3.635000,0.388364
3.636000,0.707845
3.637000,0.758758
3.638000,0.202531
3.639000,-0.578987
3.640000,-0.860282
3.641000,-1.273952
3.642000,-2.251485
3.643000,-2.572238
3.644000,-2.522598
3.645000,-2.247667
3.646000,-1.878546
3.647000,-1.786902
3.648000,-1.853089
3.649000,-1.999465
3.650000,-2.198026
3.651000,-2.343129
3.652000,-2.331673
3.653000,-2.301126
3.654000,-2.339310
3.655000,-2.117838
3.656000,-1.925641
3.657000,-1.772901
3.658000,-1.870909
3.659000,-1.844180
3.660000,-1.473786
3.661000,-1.478877
3.662000,-2.471685
3.663000,-3.071188
3.664000,-4.182368
3.665000,-4.849331
3.666000,-4.618949
3.667000,-3.492494
3.668000,-2.354584
3.669000,-1.753809
3.670000,-0.673176
3.671000,-0.085129
3.672000,0.533467
3.673000,1.438449
3.674000,2.950571
3.675000,3.338784
3.676000,3.005303
3.677000,2.232695
3.678000,1.616645
3.679000,1.015869
3.680000,0.208895
3.681000,-0.636264
3.682000,-0.971018
3.683000,-1.097028
3.684000,-1.328683
3.685000,-1.681257
3.686000,-2.040195
3.687000,-2.479322
3.688000,-2.758072
3.689000,-2.859898
3.690000,-2.956633
3.691000,-2.979544
3.692000,-3.333391
3.693000,-3.657962
3.694000,-3.730514
3.695000,-3.516678
3.696000,-3.105554
3.697000,-2.878990
3.698000,-2.741525
3.699000,-2.352039
3.700000,-2.335492
3.701000,-2.089836
3.702000,-1.650709
3.703000,-1.888729
3.704000,-2.087290
3.705000,-2.089836
3.706000,-2.074562
3.707000,-1.853089
3.708000,-1.752536
3.709000,-1.483969
3.710000,-1.918004
3.711000,-3.255748
3.712000,-4.057631
3.713000,-5.532841
3.714000,-5.714856
3.715000,-4.365656
3.716000,-2.125475
3.717000,-0.123313
3.718000,1.971765
3.719000,3.497888
3.720000,4.326500
3.721000,4.640889
3.722000,4.791083
3.723000,4.821631
3.724000,4.089754
3.725000,2.282335
3.726000,0.399820
3.727000,-0.302782
3.728000,-0.612080
3.729000,-1.094483
3.730000,-1.621434
3.731000,-1.854362
3.732000,-2.070743
3.733000,-2.414407
3.734000,-2.694430
3.735000,-2.772073
3.736000,-2.816622
3.737000,-2.866262
3.738000,-2.950269
3.739000,-3.001182
3.740000,-3.059732
3.741000,-3.008819
3.742000,-2.927358
3.743000,-2.775891
3.744000,-2.492050
3.745000,-2.326582
3.746000,-2.234938
3.747000,-2.184025
3.748000,-2.660064
3.749000,-3.067369
3.750000,-2.980817
3.751000,-2.674065
3.752000,-2.269305
3.753000,-2.018557
3.754000,-1.839088
3.755000,-1.697804
3.756000,-1.697804
3.757000,-1.668529
3.758000,-1.746172
3.759000,-1.713078
3.760000,-1.948552
3.761000,-2.756799
3.762000,-3.157740
3.763000,-3.115737
3.764000,-3.491222
3.765000,-4.613858
3.766000,-4.942248
3.767000,-4.355473
3.768000,-3.519224
3.769000,-2.436046
3.770000,-1.013022
3.771000,0.840219
3.772000,2.342158
3.773000,3.244595
3.774000,4.014657
3.775000,3.781729
3.776000,3.144041
3.777000,2.044316
3.778000,0.836400
3.779000,0.086703
3.780000,-0.167863
3.781000,-0.796641
3.782000,-1.332502
3.783000,-1.617616
3.784000,-1.739808
3.785000,-1.979100
3.786000,-1.911640
3.787000,-1.962553
3.788000,-2.008375
3.789000,-2.173843
3.790000,-2.341856
3.791000,-2.363494
3.792000,-2.264214
3.793000,-2.091109
3.794000,-2.476776
3.795000,-2.470412
3.796000,-2.451320
3.797000,-2.516234
3.798000,-2.340583
3.799000,-2.112747
3.800000,-1.887456
3.801000,-1.802176
3.802000,-1.887456
3.803000,-1.893820
3.804000,-1.682530
3.805000,-2.198026
3.806000,-1.946006
3.807000,-1.716897
3.808000,-1.523426
3.809000,-1.462331
3.810000,-3.016456
3.811000,-3.479766
3.812000,-4.667317
3.813000,-5.467927
3.814000,-5.000798
3.815000,-3.764880
3.816000,-2.443683
3.817000,-1.401235
3.818000,-0.951926
3.819000,0.213986
3.820000,0.930590
3.821000,1.878848
3.822000,2.940388
3.823000,3.286598
3.824000,3.180953
3.825000,2.488534
3.826000,1.915760
3.827000,1.640829
3.828000,0.570379
3.829000,-0.226413
3.830000,-0.550984
3.831000,-1.011749
3.832000,-1.607433
3.833000,-1.901457
3.834000,-2.222210
3.835000,-2.425863
3.836000,-2.537872
3.837000,-2.539145
3.838000,-2.628243
3.839000,-2.632061
3.840000,-2.579875
3.841000,-2.568420
3.842000,-2.591331
3.843000,-2.789892
3.844000,-3.020275
3.845000,-2.964270
3.846000,-2.778437
3.847000,-2.665155
3.848000,-2.637153
3.849000,-2.416953
3.850000,-2.171297
3.851000,-1.926914
3.852000,-1.581977
3.853000,-1.158124
3.854000,-1.067753
3.855000,-1.550156
3.856000,-1.870909
3.857000,-1.755082
3.858000,-1.654528
3.859000,-1.944733
3.860000,-2.056742
3.861000,-1.835270
3.862000,-1.616343
3.863000,-1.450875
3.864000,-1.252314
3.865000,-1.398689
3.866000,-1.515789
3.867000,-1.336320
3.868000,-1.268860
3.869000,-1.546337
3.870000,-1.808540
3.871000,-2.112747
3.872000,-2.275669
3.873000,-3.033003
3.874000,-3.085189
3.875000,-2.672792
3.876000,-2.789892
3.877000,-2.394042
3.878000,-0.920105
3.879000,0.114706
3.880000,0.542377
3.881000,0.712936
3.882000,1.005687
3.883000,1.358261
3.884000,1.132970
3.885000,0.244534
3.886000,-0.282417
3.887000,-1.145396
3.888000,-1.934551
3.889000,-2.411862
3.890000,-2.601513
3.891000,-2.446228
3.892000,-2.187844
3.893000,-1.821269
3.894000,-1.375778
3.895000,-1.219220
3.896000,-1.109757
3.897000,-0.773730
3.898000,-0.365151
3.899000,-0.413519
3.900000,-0.773730
3.901000,-0.903558
3.902000,-1.385961
3.903000,-1.855635
3.904000,-2.192935
3.905000,-2.770800
3.906000,-3.702511
3.907000,-4.594765
3.908000,-5.238817
3.909000,-4.809873
3.910000,-3.684692
3.911000,-2.220937
3.912000,-1.000293
3.913000,-0.127132
3.914000,0.452006
3.915000,1.309893
3.916000,1.635738
3.917000,1.988311
3.918000,1.626828
3.919000,0.614928
3.920000,-0.279872
3.921000,-0.949380
3.922000,-1.322319
3.923000,-1.646891
3.924000,-1.935823
3.925000,-2.172570
3.926000,-2.180207
3.927000,-2.475503
3.928000,-2.988454
3.929000,-2.950269
3.930000,-2.646063
3.931000,-2.208209
3.932000,-1.677439
3.933000,-1.179762
3.934000,-1.211583
3.935000,-1.261223
3.936000,-1.439420
3.937000,-1.626526
3.938000,-1.779265
3.939000,-1.599796
3.940000,-1.434328
3.941000,-1.565430
3.942000,-2.288397
3.943000,-2.768254
3.944000,-2.317672
3.945000,-1.907821
3.946000,-1.508152
3.947000,-1.352867
3.948000,-1.183581
3.949000,-1.323592
3.950000,-1.646891
3.951000,-1.979100
3.952000,-2.329128
3.953000,-2.288397
3.954000,-2.313854
3.955000,-1.968917
3.956000,-1.732171
3.957000,-1.447057
3.958000,-1.469968
3.959000,-1.523426
3.960000,-0.790276
3.961000,-0.460613
3.962000,0.063793
3.963000,0.569106
3.964000,0.877131
3.965000,0.388364
3.966000,-0.441521
3.967000,-0.974837
3.968000,-1.333775
3.969000,-2.652427
3.970000,-2.990999
3.971000,-2.721159
3.972000,-2.457684
3.973000,-2.208209
3.974000,-2.522598
3.975000,-3.183197
3.976000,-3.127192
3.977000,-2.923539
3.978000,-2.395315
3.979000,-1.802176
3.980000,-1.441965
3.981000,-1.239585
3.982000,-1.361777
3.983000,-1.570521
3.984000,-2.096200
3.985000,-2.084744
3.986000,-2.279487
3.987000,-2.420772
3.988000,-2.395315
3.989000,-1.709260
3.990000,-0.614626
3.991000,0.319631
3.992000,0.791851
3.993000,1.032416
3.994000,0.889859
3.995000,0.785487
3.996000,0.761303
3.997000,0.550014
3.998000,0.216532
3.999000,-0.561167
4.000000,-0.969745
4.001000,-1.389779
4.002000,-2.682975
4.003000,-3.050822
4.004000,-3.306661
4.005000,-3.754697
4.006000,-3.484857
4.007000,-2.797529
4.008000,-2.002011
4.009000,-1.403780
4.010000,-0.916287
4.011000,-0.249324
4.012000,-0.040580
4.013000,-0.134769
4.014000,0.115979
4.015000,0.243262
4.016000,-0.064763
4.017000,-0.902285
4.018000,-1.958734
4.019000,-2.759344
4.020000,-2.755526
4.021000,-2.966816
4.022000,-3.237928
4.023000,-3.500131
4.024000,-3.568864
4.025000,-3.017729
4.026000,-2.292216
4.027000,-1.635435
4.028000,-1.020659
4.029000,-1.044842
4.030000,-1.575612
4.031000,-1.771628
4.032000,-1.898911
4.033000,-2.181480
4.034000,-1.925641
4.035000,-1.258678
4.036000,-0.944289
4.037000,-0.867919
4.038000,-0.710088
4.039000,-0.847554
4.040000,-1.063935
4.041000,-0.800459
4.042000,-0.781367
4.043000,-0.847554
4.044000,-0.848827
4.045000,-1.079209
4.046000,-1.072845
4.047000,-1.196309
4.048000,-1.291771
4.049000,-1.067753
4.050000,-0.832280
4.051000,-1.752536
4.052000,-2.782255
4.053000,-2.866262
4.054000,-2.377495
4.055000,-2.079653
4.056000,-2.130566
4.057000,-2.742798
4.058000,-2.866262
4.059000,-2.125475
4.060000,-1.747445
4.061000,-1.804722
4.062000,-1.219220
4.063000,-0.543347
4.064000,-0.265870
4.065000,0.006515
4.066000,0.410002
4.067000,0.789306
4.068000,0.348906
4.069000,-0.202229
4.070000,-0.848827
4.071000,-1.242131
4.072000,-1.173398
4.073000,-1.231948
4.074000,-1.674893
4.075000,-1.960007
4.076000,-2.357130
4.077000,-2.956633
4.078000,-3.372848
4.079000,-3.324481
4.080000,-2.653699
4.081000,-1.892547
4.082000,-1.641800
4.083000,-1.594705
4.084000,-1.595978
4.085000,-1.449602
4.086000,-1.350322
4.087000,-1.061389
4.088000,-0.963381
4.089000,-0.682086
4.090000,-0.647719
4.091000,-0.745727
4.092000,-0.654084
4.093000,-0.763547
4.094000,-1.066480
4.095000,-1.562884
4.096000,-1.890001
4.097000,-2.318945
4.098000,-2.345675
4.099000,-2.130566
4.100000,-2.050378
4.101000,-2.628243
4.102000,-2.782255
4.103000,-2.849715
4.104000,-2.618060
4.105000,-1.986737
4.106000,-1.000293
4.107000,-0.699905
4.108000,-1.585795
4.109000,-1.938369
4.110000,-2.032558
4.111000,-2.516234
4.112000,-2.667701
4.113000,-2.080926
4.114000,-1.514517
4.115000,-1.727079
4.116000,-1.744899
4.117000,-1.198855
4.118000,-0.814460
4.119000,-0.603170
4.120000,-0.456795
4.121000,0.084158
4.122000,0.474917
4.123000,0.129980
4.124000,-0.291327
4.125000,-0.346059
4.126000,-1.263769
4.127000,-2.834441
4.128000,-3.601958
4.129000,-3.782700
4.130000,-2.923539
4.131000,-2.102564
4.132000,-1.072845
4.133000,-0.330785
4.134000,0.179620
4.135000,-0.003667
4.136000,-0.343513
4.137000,0.306903
4.138000,0.179620
4.139000,-0.582805
4.140000,-1.177217
4.141000,-1.457239
4.142000,-1.523426
4.143000,-1.772901
4.144000,-1.926914
4.145000,-1.681257
4.146000,-1.627799
4.147000,-1.168307
4.148000,-0.604443
4.149000,-0.282417
4.150000,-0.276053
4.151000,-0.711361
4.152000,-1.728352
4.153000,-2.824259
4.154000,-3.388122
4.155000,-3.534498
4.156000,-3.311753
4.157000,-2.708431
4.158000,-2.242575
4.159000,-2.037650
4.160000,-1.981645
4.161000,-2.147113
4.162000,-1.550156
4.163000,-0.852645
4.164000,-1.098301
4.165000,-1.314682
4.166000,-1.471240
4.167000,-1.545065
4.168000,-2.074562
4.169000,-1.895093
4.170000,-1.408872
4.171000,-0.712634
4.172000,0.164346
4.173000,-0.190773
4.174000,-0.314238
4.175000,-0.598079
4.176000,-1.089391
4.177000,-1.827633
4.178000,-2.191662
4.179000,-2.380041
4.180000,-2.455138
4.181000,-2.996091
4.182000,-3.184470
4.183000,-3.106827
4.184000,-3.236656
4.185000,-3.064824
4.186000,-2.724978
4.187000,-2.646063
4.188000,-2.304944
4.189000,-1.785629
4.190000,-0.442794
4.191000,0.081612
4.192000,-0.328239
4.193000,-0.776275
4.194000,-0.803005
4.195000,-0.964654
4.196000,-0.395699
4.197000,0.136344
4.198000,-0.076219
4.199000,-0.160226
4.200000,-0.584078
4.201000,-1.203946
4.202000,-1.944733
4.203000,-1.925641
4.204000,-1.677439
4.205000,-1.702895
4.206000,-1.537428
4.207000,-1.299408
4.208000,-0.889557
4.209000,-0.492434
4.210000,-0.727908
4.211000,-0.618444
4.212000,-0.267143
4.213000,-0.514072
4.214000,-1.331229
4.215000,-1.878546
4.216000,-2.110201
4.217000,-2.301126
4.218000,-2.943905
4.219000,-3.250657
4.220000,-3.059732
4.221000,-2.497141
4.222000,-2.018557
4.223000,-1.721988
4.224000,-2.012193
4.225000,-2.321491
4.226000,-2.046560
4.227000,-1.301954
4.228000,-1.032114
4.229000,-0.897194
4.230000,-0.390608
4.231000,0.213986
4.232000,0.413821
4.233000,0.108342
4.234000,-0.442794
4.235000,-1.480150
4.236000,-2.592604
4.237000,-2.577330
4.238000,-2.041468
4.239000,-1.565430
4.240000,-1.491606
4.241000,-1.551429
4.242000,-1.886183
4.243000,-2.329128
4.244000,-2.709704
4.245000,-3.945622
4.246000,-3.781427
4.247000,-2.987181
4.248000,-2.191662
4.249000,-1.290499
4.250000,-0.974837
4.251000,-0.492434
4.252000,-0.244232
4.253000,-0.315511
4.254000,-0.021487
4.255000,-0.016396
4.256000,-0.637537
4.257000,-1.161943
4.258000,-1.046115
4.259000,-0.990111
4.260000,-1.728352
4.261000,-2.261668
4.262000,-2.096200
4.263000,-1.583249
4.264000,-1.214129
4.265000,-1.172125
4.266000,-1.183581
4.267000,-1.164488
4.268000,-1.578158
4.269000,-1.985464
4.270000,-1.975281
4.271000,-1.831451
4.272000,-1.466149
4.273000,-0.845008
4.274000,-0.571350
4.275000,-0.501344
4.276000,-0.599352
4.277000,-0.577714
4.278000,0.188530
4.279000,0.129980
4.280000,-0.643901
4.281000,-1.588341
4.282000,-2.420772
4.283000,-2.875172
4.284000,-3.244293
4.285000,-3.539589
4.286000,-3.767426
4.287000,-4.100907
4.288000,-3.782700
4.289000,-2.920994
4.290000,-2.550600
4.291000,-1.986737
4.292000,-1.290499
4.293000,-0.156407
4.294000,0.637839
4.295000,1.068055
4.296000,0.586926
4.297000,-0.783912
4.298000,-1.263769
4.299000,-1.427964
4.300000,-1.256132
4.301000,-0.824643
4.302000,-0.491161
4.303000,-0.745727
4.304000,-1.010476
4.305000,-1.534882
4.306000,-1.635435
4.307000,-1.585795
4.308000,-1.681257
4.309000,-1.126303
4.310000,-1.280316
4.311000,-1.345230
4.312000,-1.321046
4.313000,-1.326138
4.314000,-1.447057
4.315000,-1.707987
4.316000,-2.026194
4.317000,-2.083472
4.318000,-1.977827
4.319000,-1.841634
4.320000,-2.232393
4.321000,-2.660064
4.322000,-2.646063
4.323000,-3.520497
4.324000,-3.316844
4.325000,-3.255748
4.326000,-2.857352
4.327000,-2.658791
4.328000,-2.339310
4.329000,-1.621434
4.330000,-0.827188
4.331000,-0.174227
4.332000,-0.386789
4.333000,-0.352423
4.334000,-0.648992
4.335000,-0.843735
4.336000,-0.582805
4.337000,-0.249324
4.338000,-0.186955
4.339000,-0.501344
4.340000,-0.470796
4.341000,-0.402063
4.342000,-0.670630
4.343000,-0.862828
4.344000,-0.676995
4.345000,-0.748273
4.346000,-0.965927
4.347000,-1.398689
4.348000,-1.714351
4.349000,-2.068198
4.350000,-3.127192
4.351000,-3.436490
4.352000,-3.343573
4.353000,-3.016456
4.354000,-3.183197
4.355000,-2.892992
4.356000,-2.654972
4.357000,-2.360949
4.358000,-1.904003
4.359000,-1.126303
4.360000,-0.976110
4.361000,-0.679540
4.362000,0.009061
4.363000,0.049791
4.364000,-0.211139
4.365000,-0.762274
4.366000,-0.766093
4.367000,-0.893376
4.368000,-1.009203
4.369000,-1.112302
4.370000,-1.123758
4.371000,-0.950653
4.372000,-1.235767
4.373000,-1.263769
4.374000,-1.104665
4.375000,-0.959563
4.376000,-1.242131
4.377000,-1.038478
4.378000,-1.389779
4.379000,-1.854362
4.380000,-2.308763
4.381000,-2.632061
4.382000,-2.705886
4.383000,-3.660508
4.384000,-3.842523
4.385000,-3.817066
4.386000,-3.072461
4.387000,-2.335492
4.388000,-1.631617
4.389000,-0.903558
4.390000,-0.110585
4.391000,0.459643
4.392000,0.730755
4.393000,1.428266
4.394000,0.673478
4.395000,0.173256
4.396000,-0.030397
4.397000,-0.314238
4.398000,-0.553530
4.399000,-0.875556
4.400000,-1.075390
4.401000,-1.273952
4.402000,-1.728352
4.403000,-2.133112
4.404000,-2.150932
4.405000,-2.425863
4.406000,-2.780982
4.407000,-3.339755
4.408000,-3.633779
4.409000,-3.561227
4.410000,-3.071188
4.411000,-2.740252
4.412000,-2.458956
4.413000,-2.476776
4.414000,-2.895537
4.415000,-3.710148
4.416000,-3.705057
4.417000,-2.847170
4.418000,-2.136931
4.419000,-1.457239
4.420000,-0.940470
4.421000,0.007788
4.422000,0.719300
4.423000,0.921680
4.424000,-0.038034
4.425000,-0.929015
4.426000,-1.076663
4.427000,-0.992656
4.428000,-1.369414
4.429000,-1.473786
4.430000,-1.501788
4.431000,-2.064379
4.432000,-1.583249
4.433000,-1.024477
4.434000,-0.251869
4.435000,0.101977
4.436000,-0.385516
4.437000,-0.241687
4.438000,0.071430
4.439000,-0.133496
4.440000,-0.200956
4.441000,-0.377879
4.442000,-0.879374
4.443000,-1.201400
4.444000,-0.785185
4.445000,-1.046115
4.446000,-1.882365
4.447000,-2.217119
4.448000,-2.156023
4.449000,-2.446228
4.450000,-2.395315
4.451000,-2.233666
4.452000,-2.584967
4.453000,-2.479322
4.454000,-2.016012
4.455000,-1.529791
4.456000,-1.343957
4.457000,-1.368141
4.458000,-1.923095
4.459000,-1.960007
4.460000,-1.627799
4.461000,-1.214129
4.462000,-0.820824
4.463000,-0.657902
4.464000,-0.571350
4.465000,-0.715179
4.466000,-1.067753
4.467000,-1.497970
4.468000,-2.226029
4.469000,-2.763163
4.470000,-2.733888
4.471000,-2.817895
4.472000,-2.766981
4.473000,-2.796256
4.474000,-3.450491
4.475000,-3.272295
4.476000,-2.595149
4.477000,-1.990555
4.478000,-1.971463
4.479000,-2.539145
4.480000,-3.716513
4.481000,-3.109373
4.482000,-2.891719
4.483000,-2.358403
4.484000,-1.383415
4.485000,-0.002395
4.486000,0.417639
4.487000,0.233079
4.488000,0.169437
4.489000,0.221623
4.490000,0.049791
4.491000,-0.078764
4.492000,-0.074946
4.493000,-0.564985
4.494000,-1.056298
4.495000,-1.083027
4.496000,-0.871737
4.497000,-0.374061
4.498000,-0.311692
4.499000,-0.648992
4.500000,-0.486070
4.501000,-0.665539
4.502000,-0.343513
4.503000,-0.273507
4.504000,-0.347332
4.505000,-0.512799
4.506000,-1.154306
4.507000,-1.662165
4.508000,-1.714351
4.509000,-1.890001
4.510000,-2.297307
4.511000,-2.282033
4.512000,-2.092381
4.513000,-1.963826
4.514000,-1.837815
4.515000,-1.883637
4.516000,-1.907821
4.517000,-1.980372
4.518000,-2.422044
4.519000,-3.258294
4.520000,-3.217563
4.521000,-3.100463
4.522000,-2.708431
4.523000,-2.567147
4.524000,-2.812803
4.525000,-2.472958
4.526000,-2.550600
4.527000,-3.143739
4.528000,-4.041084
4.529000,-3.193379
4.530000,-2.324037
4.531000,-1.497970
4.532000,-0.206047
4.533000,0.592017
4.534000,0.714209
4.535000,-0.035488
4.536000,-1.094483
4.537000,-1.088119
4.538000,-1.611252
4.539000,-1.821269
4.540000,-1.314682
4.541000,-0.758456
4.542000,-0.419883
4.543000,-0.048216
4.544000,0.975139
4.545000,1.146971
4.546000,0.450733
4.547000,-0.236595
4.548000,-0.475887
4.549000,-0.711361
4.550000,-0.992656
4.551000,-1.285407
4.552000,-1.650709
4.553000,-2.392769
4.554000,-2.339310
4.555000,-1.942188
4.556000,-1.394871
4.557000,-1.021931
4.558000,-1.034660
4.559000,-1.258678
4.560000,-1.621434
4.561000,-2.012193
4.562000,-2.153477
4.563000,-2.031286
4.564000,-2.047832
4.565000,-2.357130
4.566000,-2.495869
4.567000,-2.401679
4.568000,-2.397861
4.569000,-2.148386
4.570000,-2.236211
4.571000,-2.199299
4.572000,-1.947279
4.573000,-1.915458
4.574000,-1.524699
4.575000,-1.121212
4.576000,-1.360504
4.577000,-1.695259
4.578000,-1.569248
4.579000,-1.399962
4.580000,-1.108484
4.581000,-0.752091
4.582000,-0.968473
4.583000,-1.462331
4.584000,-2.094927
4.585000,-2.570966
4.586000,-2.335492
4.587000,-2.581148
4.588000,-3.097917
4.589000,-3.131011
4.590000,-2.481867
4.591000,-1.868363
4.592000,-1.247222
4.593000,-0.631173
4.594000,-0.440248
4.595000,-0.105494
4.596000,-0.366424
4.597000,-0.400790
4.598000,-0.470796
4.599000,-0.324421
4.600000,-0.132223
4.601000,-1.061389
4.602000,-2.084744
4.603000,-2.217119
4.604000,-1.673620
4.605000,-0.889557
4.606000,-0.662993
4.607000,-1.066480
4.608000,-1.373233
4.609000,-1.699077
4.610000,-1.725806
4.611000,-1.713078
4.612000,-2.058015
4.613000,-2.069471
4.614000,-2.010920
4.615000,-2.182752
4.616000,-1.912912
4.617000,-1.827633
4.618000,-1.856908
4.619000,-1.830178
4.620000,-1.621434
4.621000,-1.284134
4.622000,-0.861555
4.623000,-0.530619
4.624000,-0.792822
4.625000,-0.894648
4.626000,-0.456795
4.627000,-0.361333
4.628000,-0.944289
4.629000,-1.181035
4.630000,-1.159397
4.631000,-1.584522
4.632000,-1.677439
4.633000,-1.452148
4.634000,-1.318501
4.635000,-1.211583
4.636000,-1.309591
4.637000,-1.576885
4.638000,-2.094927
4.639000,-2.135658
4.640000,-1.763991
4.641000,-1.623980
4.642000,-2.406770
4.643000,-3.503950
4.644000,-4.806055
4.645000,-4.582037
4.646000,-3.722877
4.647000,-2.630789
4.648000,-2.283306
4.649000,-1.527245
4.650000,-0.703724
4.651000,0.081612
4.652000,0.463461
4.653000,1.190247
4.654000,1.624282
4.655000,1.014597
4.656000,0.371817
4.657000,-0.054581
4.658000,-0.535710
4.659000,-1.318501
4.660000,-1.291771
4.661000,-1.029568
4.662000,-1.099574
4.663000,-1.430510
4.664000,-1.510698
4.665000,-1.459785
4.666000,-1.611252
4.667000,-2.065652
4.668000,-2.777164
4.669000,-2.898083
4.670000,-2.962997
4.671000,-3.048277
4.672000,-3.160286
4.673000,-3.092826
4.674000,-2.450047
4.675000,-2.633334
4.676000,-4.109817
4.677000,-4.545125
4.678000,-3.842523
4.679000,-3.156467
4.680000,-2.107655
4.681000,-0.755910
4.682000,0.947137
4.683000,1.840663
4.684000,0.888586
4.685000,0.389637
4.686000,0.691298
4.687000,-0.136042
4.688000,-0.636264
4.689000,-1.074117
4.690000,-1.415236
4.691000,-1.556520
4.692000,-1.791994
4.693000,-2.031286
4.694000,-1.438147
4.695000,-0.437702
4.696000,-0.542075
4.697000,-0.702451
4.698000,-0.424974
4.699000,-0.038034
4.700000,0.203804
4.701000,0.333632
4.702000,-0.010032
4.703000,-0.769911
4.704000,-1.029568
4.705000,-1.627799
4.706000,-2.746616
4.707000,-2.419499
4.708000,-2.022376
4.709000,-1.996919
4.710000,-2.220937
4.711000,-2.194208
4.712000,-2.088563
4.713000,-2.094927
4.714000,-2.178934
4.715000,-1.883637
4.716000,-1.620162
4.717000,-1.836543
4.718000,-1.701623
4.719000,-1.595978
4.720000,-1.724534
4.721000,-1.482696
4.722000,-1.846725
4.723000,-2.292216
4.724000,-2.209482
4.725000,-2.214573
4.726000,-2.419499
4.727000,-3.409760
4.728000,-4.177277
4.729000,-4.564217
4.730000,-4.324925
4.731000,-3.822157
4.732000,-3.251930
4.733000,-2.745343
4.734000,-1.863272
4.735000,-0.451704
4.736000,0.553832
4.737000,1.255161
4.738000,1.573369
4.739000,1.224613
4.740000,0.420185
4.741000,-0.343513
4.742000,-0.165317
4.743000,-0.094038
4.744000,-0.330785
4.745000,-0.136042
4.746000,-0.263325
4.747000,-0.469523
4.748000,-0.986292
4.749000,-1.245950
4.750000,-1.604888
4.751000,-2.177661
4.752000,-2.385132
4.753000,-2.196754
4.754000,-2.031286
4.755000,-1.762718
4.756000,-1.841634
4.757000,-1.601069
4.758000,-2.409316
4.759000,-2.850988
4.760000,-2.490777
4.761000,-1.988009
4.762000,-1.912912
4.763000,-1.765264
4.764000,-1.854362
4.765000,-1.944733
4.766000,-2.527689
4.767000,-2.322764
4.768000,-1.650709
4.769000,-1.261223
4.770000,-1.056298
4.771000,-0.731726
4.772000,-0.367697
4.773000,-0.180591
4.774000,0.103250
4.775000,-0.277326
4.776000,-0.954471
4.777000,-1.524699
4.778000,-1.557793
4.779000,-1.304500
4.780000,-1.061389
4.781000,-0.861555
4.782000,-0.991384
4.783000,-1.393598
4.784000,-1.627799
4.785000,-1.576885
4.786000,-1.476332
4.787000,-1.751263
4.788000,-1.878546
4.789000,-1.946006
4.790000,-2.074562
4.791000,-2.240030
4.792000,-1.807268
4.793000,-1.397416
4.794000,-1.539973
4.795000,-1.579431
4.796000,-1.545065
4.797000,-1.781811
4.798000,-1.905275
4.799000,-1.988009
4.800000,-1.550156
4.801000,-1.576885
4.802000,-2.112747
4.803000,-1.976554
4.804000,-1.756354
4.805000,-1.466149
4.806000,-1.430510
4.807000,-1.464876
4.808000,-1.699077
4.809000,-2.374950
4.810000,-2.316400
4.811000,-1.809813
4.812000,-2.075835
4.813000,-2.014739
4.814000,-1.444511
4.815000,-0.904831
4.816000,-0.208593
4.817000,-0.122041
4.818000,-0.776275
4.819000,-1.761446
4.820000,-2.047832
4.821000,-1.968917
4.822000,-1.895093
4.823000,-1.571794
4.824000,-1.001566
4.825000,-0.736818
4.826000,-0.469523
4.827000,-0.839917
4.828000,-1.951097
4.829000,-2.395315
4.830000,-2.525144
4.831000,-2.036377
4.832000,-1.184854
4.833000,-0.452976
4.834000,0.070157
4.835000,0.136344
4.836000,-0.455522
4.837000,-1.044842
4.838000,-1.062662
4.839000,-1.490333
4.840000,-1.538700
4.841000,-1.388506
4.842000,-1.441965
4.843000,-1.337593
4.844000,-1.532336
4.845000,-1.439420
4.846000,-1.308318
4.847000,-1.270133
4.848000,-1.627799
4.849000,-2.246394
4.850000,-2.411862
4.851000,-2.633334
4.852000,-2.652427
4.853000,-2.690612
4.854000,-2.548055
4.855000,-2.768254
4.856000,-2.651154
4.857000,-2.332946
4.858000,-1.812359
4.859000,-1.612525
4.860000,-1.767810
4.861000,-1.489060
4.862000,-1.249768
4.863000,-1.002839
4.864000,-0.514072
4.865000,-0.969745
4.866000,-1.673620
4.867000,-2.234938
4.868000,-2.242575
4.869000,-2.204390
4.870000,-1.735989
4.871000,-1.571794
4.872000,-0.594261
4.873000,0.407457
4.874000,0.672205
4.875000,0.724391
4.876000,0.462188
4.877000,0.425276
4.878000,0.264900
4.879000,-0.650265
4.880000,-1.370687
4.881000,-1.828906
4.882000,-2.592604
4.883000,-3.115737
4.884000,-3.549772
4.885000,-3.240474
4.886000,-2.801348
4.887000,-2.780982
4.888000,-2.802621
4.889000,-2.038923
4.890000,-1.471240
4.891000,-1.261223
4.892000,-1.212856
4.893000,-0.827188
4.894000,-0.352423
4.895000,-0.775002
4.896000,-1.401235
4.897000,-1.221766
4.898000,-0.743182
4.899000,-0.771184
4.900000,-0.852645
4.901000,-0.724089
4.902000,-0.768638
4.903000,-1.043570
4.904000,-1.296863
4.905000,-1.234494
4.906000,-1.010476
4.907000,-1.055025
4.908000,-1.076663
4.909000,-1.261223
4.910000,-1.970190
4.911000,-2.208209
4.912000,-2.089836
4.913000,-2.050378
4.914000,-1.996919
4.915000,-2.016012
4.916000,-2.360949
4.917000,-2.657518
4.918000,-2.423317
4.919000,-0.869192
4.920000,-0.262052
4.921000,-1.039751
4.922000,-1.809813
4.923000,-2.374950
4.924000,-2.391497
4.925000,-2.607878
4.926000,-3.306661
4.927000,-3.515405
4.928000,-4.338926
4.929000,-4.757687
4.930000,-3.754697
4.931000,-2.306217
4.932000,-0.655356
4.933000,0.613655
4.934000,1.076965
4.935000,1.409174
4.936000,1.662467
4.937000,1.275527
4.938000,0.872040
4.939000,0.557651
4.940000,-0.052035
4.941000,-0.516618
4.942000,-0.923924
4.943000,-1.842907
4.944000,-2.723705
4.945000,-3.103008
4.946000,-3.556136
4.947000,-3.823430
4.948000,-3.636324
4.949000,-3.013910
4.950000,-2.332946
4.951000,-1.472513
4.952000,-1.244677
4.953000,-0.251869
4.954000,0.677297
4.955000,0.622565
4.956000,0.732028
4.957000,0.508010
4.958000,-0.332058
4.959000,-0.745727
4.960000,-1.173398
4.961000,-1.342685
4.962000,-2.731342
4.963000,-3.291387
4.964000,-3.330845
4.965000,-3.444127
4.966000,-3.890890
4.967000,-3.850160
4.968000,-3.320662
4.969000,-2.453865
4.970000,-1.447057
4.971000,-0.533165
4.972000,0.196167
4.973000,0.612382
4.974000,0.458370
4.975000,0.705299
4.976000,1.000595
4.977000,0.905133
4.978000,-0.062218
4.979000,-1.027023
4.980000,-1.402508
4.981000,-1.545065
4.982000,-1.651982
4.983000,-1.841634
4.984000,-2.315127
4.985000,-2.206936
4.986000,-2.089836
4.987000,-1.845452
4.988000,-1.429237
4.989000,-1.275225
4.990000,-1.359231
4.991000,-1.791994
4.992000,-2.232393
4.993000,-2.619333
4.994000,-3.320662
4.995000,-3.925257
4.996000,-4.414023
4.997000,-4.271466
4.998000,-4.682590
4.999000,-4.165822
5.000000,-3.493767
5.001000,-3.038094
5.002000,-2.446228
5.003000,-1.490333
5.004000,-0.517891
5.005000,1.018415
5.006000,1.966673
5.007000,1.976856
5.008000,1.774476
5.009000,0.985321
5.010000,0.617474
5.011000,0.303085
5.012000,-0.388062
5.013000,-1.108484
5.014000,-1.363050
5.015000,-1.475059
5.016000,-1.457239
5.017000,-1.299408
5.018000,-1.221766
5.019000,-1.952370
5.020000,-2.908265
5.021000,-3.193379
5.022000,-2.801348
5.023000,-2.040195
5.024000,-1.685076
5.025000,-1.473786
5.026000,-1.650709
5.027000,-1.649437
5.028000,-1.669802
5.029000,-2.066925
5.030000,-2.362221
5.031000,-2.282033
5.032000,-2.103837
5.033000,-1.868363
5.034000,-2.234938
5.035000,-2.198026
5.036000,-1.307045
5.037000,-0.558621
5.038000,-0.736818
5.039000,-1.327411
5.040000,-2.240030
5.041000,-2.614242
5.042000,-2.175115
5.043000,-1.434328
5.044000,-0.815733
5.045000,-0.242959
5.046000,0.261081
5.047000,0.371817
5.048000,0.257263
5.049000,0.528375
5.050000,0.858038
5.051000,0.327268
5.052000,-0.432611
5.053000,-1.184854
5.054000,-1.333775
5.055000,-1.287953
5.056000,-1.366868
5.057000,-1.617616
5.058000,-1.589614
5.059000,-1.695259
5.060000,-2.044014
5.061000,-2.952815
5.062000,-3.338482
5.063000,-3.572683
5.064000,-3.395759
5.065000,-2.831896
5.066000,-1.982918
5.067000,-1.345230
5.068000,-0.988838
5.069000,-1.221766
5.070000,-1.417782
5.071000,-1.117394
5.072000,-1.473786
5.073000,-1.758900
5.074000,-1.679985
5.075000,-1.844180
5.076000,-2.208209
5.077000,-3.156467
5.078000,-3.451764
5.079000,-3.064824
5.080000,-2.618060
5.081000,-2.464048
5.082000,-2.297307
5.083000,-2.614242
5.084000,-2.965543
5.085000,-2.929904
5.086000,-2.498414
5.087000,-3.568864
5.088000,-3.473402
5.089000,-2.262941
5.090000,-0.516618
5.091000,1.080784
5.092000,2.286154
5.093000,3.136404
5.094000,2.634909
5.095000,2.421074
5.096000,3.266233
5.097000,3.229321
5.098000,1.579733
5.099000,-0.105494
5.100000,-0.925196
5.101000,-1.375778
5.102000,-1.816177
5.103000,-2.077107
5.104000,-2.198026
5.105000,-2.406770
5.106000,-2.535326
5.107000,-2.397861
5.108000,-2.366040
5.109000,-2.266759
5.110000,-2.254031
5.111000,-2.214573
5.112000,-2.190389
5.113000,-2.228574
5.114000,-2.238757
5.115000,-2.282033
5.116000,-2.446228
5.117000,-2.579875
5.118000,-2.581148
5.119000,-2.502233
5.120000,-2.833169
5.121000,-2.920994
5.122000,-2.794984
5.123000,-2.626970
5.124000,-2.346947
5.125000,-2.135658
5.126000,-2.065652
5.127000,-2.819167
5.128000,-2.952815
5.129000,-2.418226
5.130000,-1.934551
5.131000,-1.781811
5.132000,-2.276942
5.133000,-2.736433
5.134000,-2.577330
5.135000,-1.994374
5.136000,-1.968917
5.137000,-1.746172
5.138000,-1.604888
5.139000,-1.807268
5.140000,-2.867535
5.141000,-4.095816
5.142000,-4.284195
5.143000,-3.185742
5.144000,-1.590886
5.145000,0.152891
5.146000,1.684105
5.147000,2.973482
5.148000,3.823732
5.149000,3.469886
5.150000,3.767728
5.151000,4.848360
5.152000,4.168669
5.153000,2.413437
5.154000,0.833855
5.155000,-0.195865
5.156000,-0.813187
5.157000,-1.215402
5.158000,-1.265042
5.159000,-1.399962
5.160000,-2.059288
5.161000,-2.458956
5.162000,-2.738979
5.163000,-2.938813
5.164000,-3.078825
5.165000,-3.077552
5.166000,-3.450491
5.167000,-3.491222
5.168000,-3.327027
5.169000,-3.045731
5.170000,-2.829350
5.171000,-2.644790
5.172000,-2.716068
5.173000,-2.976998
5.174000,-3.363939
5.175000,-3.745788
5.176000,-3.077552
5.177000,-2.509870
5.178000,-1.814905
5.179000,-1.691440
5.180000,-1.371960
5.181000,-1.001566
5.182000,-0.902285
5.183000,-0.818279
5.184000,-0.670630
5.185000,-0.824643
5.186000,-1.878546
5.187000,-1.975281
5.188000,-2.139476
5.189000,-2.489504
5.190000,-2.626970
5.191000,-2.577330
5.192000,-3.115737
5.193000,-3.043185
5.194000,-2.297307
5.195000,-2.004556
5.196000,-1.860726
5.197000,-2.051651
5.198000,-1.533609
5.199000,-1.136486
5.200000,-0.403336
5.201000,0.310722
5.202000,0.994231
5.203000,1.609008
5.204000,1.550458
5.205000,0.976412
5.206000,0.789306
5.207000,0.578016
5.208000,0.542377
5.209000,-0.324421
5.210000,-1.009203
5.211000,-1.285407
5.212000,-2.394042
5.213000,-2.642244
5.214000,-2.660064
5.215000,-2.420772
5.216000,-2.283306
5.217000,-2.797529
5.218000,-3.297751
5.219000,-3.860342
5.220000,-3.430126
5.221000,-2.614242
5.222000,-1.312137
5.223000,-0.474615
5.224000,-0.169135
5.225000,-0.572622
5.226000,-0.912468
5.227000,-1.550156
5.228000,-1.893820
5.229000,-1.697804
5.230000,-1.686349
5.231000,-1.590886
5.232000,-0.932833
5.233000,-0.441521
5.234000,-0.318056
5.235000,0.192348
5.236000,-0.894648
5.237000,-1.727079
5.238000,-2.047832
5.239000,-1.952370
5.240000,-1.786902
5.241000,-1.678712
5.242000,-1.469968
5.243000,-1.685076
5.244000,-2.187844
5.245000,-2.436046
5.246000,-3.314298
5.247000,-4.379657
5.248000,-4.225645
5.249000,-3.576501
5.250000,-2.797529
5.251000,-2.082199
5.252000,-1.234494
5.253000,-0.879374
5.254000,-0.361333
5.255000,0.473644
5.256000,1.157153
5.257000,0.940772
5.258000,0.471098
5.259000,0.136344
5.260000,0.132525
5.261000,0.502919
5.262000,0.024335
5.263000,-0.838644
5.264000,-1.184854
5.265000,-1.461058
5.266000,-1.876000
5.267000,-2.124202
5.268000,-2.718614
5.269000,-3.754697
5.270000,-3.991444
5.271000,-3.563773
5.272000,-2.996091
5.273000,-2.261668
5.274000,-1.464876
5.275000,-1.137759
5.276000,-1.209037
5.277000,-2.022376
5.278000,-2.493323
5.279000,-2.180207
5.280000,-1.952370
5.281000,-1.427964
5.282000,-0.894648
5.283000,-0.773730
5.284000,-0.716452
5.285000,-0.338422
5.286000,0.356543
5.287000,1.183883
5.288000,0.324723
5.289000,-0.384244
5.290000,-0.405882
5.291000,-0.738090
5.292000,-1.361777
5.293000,-1.919277
5.294000,-2.690612
5.295000,-2.633334
5.296000,-2.208209
5.297000,-1.560339
5.298000,-1.338866
5.299000,-1.515789
5.300000,-1.715624
5.301000,-2.313854
5.302000,-2.414407
5.303000,-2.509870
5.304000,-2.456411
5.305000,-2.106383
5.306000,-1.734716
5.307000,-1.644345
5.308000,-2.227301
5.309000,-3.486130
5.310000,-3.786518
5.311000,-3.584138
5.312000,-3.309207
5.313000,-2.803893
5.314000,-2.101291
5.315000,-1.209037
5.316000,-0.323148
5.317000,-0.416064
5.318000,0.061247
5.319000,0.206349
5.320000,-0.157680
5.321000,-0.057126
5.322000,0.198713
5.323000,0.080339
5.324000,-0.412246
5.325000,-0.749546
5.326000,-0.862828
5.327000,-0.242959
5.328000,-0.249324
5.329000,-0.488616
5.330000,-0.845008
5.331000,-1.173398
5.332000,-2.117838
5.333000,-2.798802
5.334000,-2.947723
5.335000,-2.875172
5.336000,-2.850988
5.337000,-2.985908
5.338000,-2.875172
5.339000,-2.588785
5.340000,-2.228574
5.341000,-2.035104
5.342000,-2.522598
5.343000,-2.647335
5.344000,-2.481867
5.345000,-1.953643
5.346000,-1.123758
5.347000,-0.307874
5.348000,0.127434
5.349000,0.501646
5.350000,0.185984
5.351000,-0.272235
5.352000,-0.717725
5.353000,-0.767365
5.354000,-0.964654
5.355000,-1.196309
5.356000,-1.177217
5.357000,-1.025750
5.358000,-0.888284
5.359000,-1.043570
5.360000,-1.295590
5.361000,-1.369414
5.362000,-1.737262
5.363000,-2.680429
5.364000,-3.291387
5.365000,-3.836159
5.366000,-3.929075
5.367000,-3.591775
5.368000,-3.008819
5.369000,-2.667701
5.370000,-2.408043
5.371000,-1.790721
5.372000,-1.463603
5.373000,-0.780094
5.374000,-0.018941
5.375000,0.135071
5.376000,-0.808096
5.377000,-1.265042
5.378000,-1.275225
5.379000,-1.352867
5.380000,-1.295590
5.381000,-0.979928
5.382000,-0.697360
5.383000,-0.365151
5.384000,-0.389335
5.385000,-0.309147
5.386000,-0.124586
5.387000,0.090522
5.388000,0.234352
5.389000,0.292902
5.390000,-0.209866
5.391000,-0.987565
5.392000,-1.345230
5.393000,-1.403780
5.394000,-1.604888
5.395000,-2.255304
5.396000,-2.680429
5.397000,-2.634607
5.398000,-2.458956
5.399000,-2.330401
5.400000,-2.382587
5.401000,-3.184470
5.402000,-3.318117
5.403000,-2.604059
5.404000,-1.991828
5.405000,-1.415236
5.406000,-1.281589
5.407000,-0.946834
5.408000,-1.015567
5.409000,-1.623980
5.410000,-1.721988
5.411000,-1.641800
5.412000,-1.813632
5.413000,-1.408872
5.414000,-0.843735
5.415000,-1.198855
5.416000,-1.309591
5.417000,-1.417782
5.418000,-1.219220
5.419000,-0.791549
5.420000,-1.289226
5.421000,-1.853089
5.422000,-2.522598
5.423000,-2.425863
5.424000,-1.935823
5.425000,-1.405053
5.426000,-1.394871
5.427000,-0.889557
5.428000,-0.741909
5.429000,-1.477605
5.430000,-2.685520
5.431000,-3.629960
5.432000,-3.232837
5.433000,-2.932449
5.434000,-2.400406
5.435000,-1.653255
5.436000,-1.083027
5.437000,-0.437702
5.438000,-0.088947
5.439000,0.058701
5.440000,-0.078764
5.441000,0.280174
5.442000,-0.138587
5.443000,-0.716452
5.444000,-0.697360
5.445000,-0.767365
5.446000,-1.160670
5.447000,-2.148386
5.448000,-2.234938
5.449000,-1.827633
5.450000,-1.807268
5.451000,-1.826360
5.452000,-1.676166
5.453000,-1.150487
5.454000,-0.972291
5.455000,-1.234494
5.456000,-2.036377
5.457000,-1.173398
5.458000,-0.628627
5.459000,-1.015567
5.460000,-1.155579
5.461000,-1.361777
5.462000,-1.700350
5.463000,-1.779265
5.464000,-1.753809
5.465000,-1.720715
5.466000,-2.433500
5.467000,-2.297307
5.468000,-1.933278
5.469000,-1.900184
5.470000,-1.699077
5.471000,-1.275225
5.472000,-0.987565
5.473000,-1.285407
5.474000,-1.534882
5.475000,-1.570521
5.476000,-1.286680
5.477000,-1.048661
5.478000,-0.566258
5.479000,-0.479706
5.480000,-0.682086
5.481000,-0.846281
5.482000,-1.949824
5.483000,-2.647335
5.484000,-3.304116
5.485000,-4.061449
5.486000,-4.195097
5.487000,-3.501404
5.488000,-3.547226
5.489000,-2.825532
5.490000,-1.671075
5.491000,-0.772457
5.492000,0.262354
5.493000,1.199157
5.494000,1.331531
5.495000,0.612382
5.496000,-0.622263
5.497000,-1.541246
5.498000,-2.084744
5.499000,-2.172570
5.500000,-1.856908
5.501000,-1.659619
5.502000,-1.746172
5.503000,-2.021103
5.504000,-2.462775
5.505000,-2.492050
5.506000,-2.112747
5.507000,-1.154306
5.508000,-0.409700
5.509000,-0.525528
5.510000,-0.823370
5.511000,-1.035933
5.512000,-0.713907
5.513000,-0.463159
5.514000,-1.174671
5.515000,-1.895093
5.516000,-2.097473
5.517000,-1.723261
5.518000,-1.542519
5.519000,-2.363494
5.520000,-2.416953
5.521000,-2.159841
5.522000,-1.667256
5.523000,-1.044842
5.524000,-0.917559
5.525000,-0.641355
5.526000,-0.521709
5.527000,-0.845008
5.528000,-0.536983
5.529000,-0.510254
5.530000,-0.841190
5.531000,-1.690167
5.532000,-3.189561
5.533000,-3.360120
5.534000,-2.772073
5.535000,-2.797529
5.536000,-2.133112
5.537000,-1.084300
5.538000,-0.576441
5.539000,-0.264598
5.540000,-0.486070
5.541000,-0.618444
5.542000,-1.130122
5.543000,-1.473786
5.544000,-1.581977
5.545000,-1.239585
5.546000,-0.776275
5.547000,-1.520881
5.548000,-2.199299
5.549000,-2.051651
5.550000,-1.733443
5.551000,-1.663438
5.552000,-2.103837
5.553000,-2.462775
5.554000,-2.046560
5.555000,-1.910367
5.556000,-2.248940
5.557000,-1.897638
5.558000,-1.332502
5.559000,-0.995202
5.560000,-0.820824
5.561000,-0.300237
5.562000,0.189803
5.563000,-0.290054
5.564000,-0.879374
5.565000,-1.447057
5.566000,-1.793266
5.567000,-2.462775
5.568000,-2.447501
5.569000,-2.073289
5.570000,-1.630344
5.571000,-1.891274
5.572000,-1.308318
5.573000,-0.694814
5.574000,0.210168
5.575000,0.982776
5.576000,0.569106
5.577000,0.177074
5.578000,-1.420327
5.579000,-3.426307
5.580000,-5.366100
5.581000,-6.220169
5.582000,-5.392830
5.583000,-3.957077
5.584000,-2.570966
5.585000,-1.186127
5.586000,-0.274780
5.587000,-0.200956
5.588000,-0.726635
5.589000,-0.102948
5.590000,-0.226413
5.591000,-1.125031
5.592000,-1.177217
5.593000,-0.792822
5.594000,-0.552257
5.595000,-1.262496
5.596000,-1.743626
5.597000,-0.939197
5.598000,-0.446612
5.599000,0.005242
5.600000,-0.002395
5.601000,-0.017669
5.602000,-0.479706
5.603000,-0.596806
5.604000,-0.726635
5.605000,-0.903558
5.606000,-1.748717
5.607000,-3.159013
5.608000,-3.478493
5.609000,-3.857797
5.610000,-4.186187
5.611000,-4.560399
5.612000,-4.219280
5.613000,-3.607049
5.614000,-3.467038
5.615000,-3.223927
5.616000,-2.395315
5.617000,-1.132668
5.618000,-0.354969
5.619000,1.103695
5.620000,2.208511
5.621000,2.155052
5.622000,1.997221
5.623000,0.999323
5.624000,0.147799
5.625000,0.091795
5.626000,-0.408427
5.627000,-0.871737
5.628000,-1.631617
5.629000,-2.700794
5.630000,-3.426307
5.631000,-4.366929
5.632000,-4.135274
5.633000,-3.503950
5.634000,-3.195925
5.635000,-2.280760
5.636000,-1.216674
5.637000,-0.119495
5.638000,0.528375
5.639000,0.651840
5.640000,0.355271
5.641000,-0.221321
5.642000,-0.613353
5.643000,-0.624808
5.644000,-0.776275
5.645000,-0.987565
5.646000,-1.374505
5.647000,-1.837815
5.648000,-2.111474
5.649000,-1.881092
5.650000,-1.784357
5.651000,-2.205663
5.652000,-2.862444
5.653000,-3.273568
5.654000,-3.528134
5.655000,-3.661781
5.656000,-3.320662
5.657000,-2.570966
5.658000,-2.031286
5.659000,-1.928186
5.660000,-1.626526
5.661000,-1.052479
5.662000,-0.480979
5.663000,-0.082583
5.664000,-0.478433
5.665000,-0.395699
5.666000,-0.183136
5.667000,-0.750819
5.668000,-1.158124
5.669000,-1.335048
5.670000,-1.351594
5.671000,-1.813632
5.672000,-1.923095
5.673000,-1.445784
5.674000,-1.419054
5.675000,-1.842907
5.676000,-2.520052
5.677000,-2.523871
5.678000,-2.520052
5.679000,-2.783528
5.680000,-2.540418
5.681000,-1.948552
5.682000,-1.392325
5.683000,-1.021931
5.684000,-0.978655
5.685000,-0.773730
5.686000,-0.614626
5.687000,-0.557348
5.688000,-0.293873
5.689000,-0.344786
5.690000,-1.132668
5.691000,-2.947723
5.692000,-3.389395
5.693000,-3.146285
5.694000,-2.507324
5.695000,-2.004556
5.696000,-1.737262
5.697000,-1.385961
5.698000,-1.002839
5.699000,-0.512799
5.700000,0.341269
5.701000,0.664568
5.702000,0.268718
5.703000,-0.297691
5.704000,-0.773730
5.705000,-0.761001
5.706000,-1.547610
5.707000,-2.780982
5.708000,-3.059732
5.709000,-2.615515
5.710000,-1.807268
5.711000,-1.427964
5.712000,-1.578158
5.713000,-1.323592
5.714000,-1.164488
5.715000,-1.158124
5.716000,-0.111858
5.717000,0.754939
5.718000,0.001424
5.719000,-0.808096
5.720000,-1.686349
5.721000,-3.763607
5.722000,-4.454754
5.723000,-5.073349
5.724000,-4.682590
5.725000,-3.449218
5.726000,-2.195481
5.727000,-1.024477
5.728000,-0.260779
5.729000,-0.407155
5.730000,-0.703724
5.731000,-0.113131
5.732000,-0.460613
5.733000,-0.535710
5.734000,-1.090664
5.735000,-1.401235
5.736000,-1.411417
5.737000,-1.168307
5.738000,-0.985019
5.739000,-0.529346
5.740000,-0.099130
5.741000,0.194894
5.742000,-0.195865
5.743000,-1.070299
5.744000,-1.369414
5.745000,-1.743626
5.746000,-1.593432
5.747000,-1.321046
5.748000,-1.691440
5.749000,-1.951097
5.750000,-2.353312
5.751000,-2.531508
5.752000,-2.394042
5.753000,-2.494596
5.754000,-2.424590
5.755000,-1.822541
5.756000,-1.230676
5.757000,-1.046115
5.758000,-0.725362
5.759000,-0.001122
5.760000,0.426549
5.761000,0.145254
5.762000,-0.652811
5.763000,-1.477605
5.764000,-3.160286
5.765000,-4.456027
5.766000,-4.526032
5.767000,-3.801792
5.768000,-3.013910
5.769000,-2.168751
5.770000,-1.424146
5.771000,-1.099574
5.772000,-0.955744
5.773000,-1.247222
5.774000,-0.455522
5.775000,-0.082583
5.776000,-0.940470
5.777000,-2.502233
5.778000,-2.933722
5.779000,-3.898527
5.780000,-4.274012
5.781000,-3.729241
5.782000,-2.526416
5.783000,-1.002839
5.784000,0.304357
5.785000,0.869494
5.786000,0.907679
5.787000,0.275082
5.788000,-0.795368
5.789000,-1.443238
5.790000,-1.876000
5.791000,-2.308763
5.792000,-2.611696
5.793000,-3.412306
5.794000,-3.136102
5.795000,-2.050378
5.796000,-0.845008
5.797000,0.137617
5.798000,1.027325
5.799000,1.334077
5.800000,1.358261
5.801000,1.568278
5.802000,0.893678
5.803000,0.510556
5.804000,-0.008759
5.805000,-1.080482
5.806000,-1.468695
5.807000,-1.812359
5.808000,-2.096200
5.809000,-2.192935
5.810000,-2.135658
5.811000,-2.228574
5.812000,-2.401679
5.813000,-2.446228
5.814000,-2.373677
5.815000,-2.175115
5.816000,-1.772901
5.817000,-1.397416
5.818000,-1.312137
5.819000,-1.229403
5.820000,-2.194208
5.821000,-2.359676
5.822000,-2.212027
5.823000,-2.092381
5.824000,-2.312581
5.825000,-2.756799
5.826000,-2.984635
5.827000,-2.742798
5.828000,-3.753425
5.829000,-3.943076
5.830000,-3.019002
5.831000,-1.952370
5.832000,-1.006657
5.833000,-0.216230
5.834000,-0.251869
5.835000,-0.749546
5.836000,-2.121657
5.837000,-2.797529
5.838000,-2.994818
5.839000,-2.377495
5.840000,-2.018557
5.841000,-1.581977
5.842000,-0.642628
5.843000,0.271264
5.844000,0.649294
5.845000,1.271708
5.846000,2.426165
5.847000,2.071045
5.848000,0.424003
5.849000,-0.726635
5.850000,-1.230676
5.851000,-1.499243
5.852000,-1.728352
5.853000,-1.822541
5.854000,-1.757627
5.855000,-1.643072
5.856000,-1.658346
5.857000,-1.850544
5.858000,-2.089836
5.859000,-2.471685
5.860000,-1.735989
5.861000,-0.692268
5.862000,-0.507708
5.863000,-0.368970
5.864000,-0.610807
5.865000,-0.766093
5.866000,-0.923924
5.867000,-1.714351
5.868000,-3.185742
5.869000,-4.168367
5.870000,-4.564217
5.871000,-4.296923
5.872000,-3.301570
5.873000,-2.682975
5.874000,-2.119111
5.875000,-1.780538
5.876000,-2.019830
5.877000,-1.206492
5.878000,-0.492434
5.879000,-0.370242
5.880000,-0.559894
5.881000,-1.169580
5.882000,-1.906548
5.883000,-3.034276
5.884000,-3.320662
5.885000,-5.387738
5.886000,-5.530295
5.887000,-4.288013
5.888000,-2.448774
5.889000,-0.655356
5.890000,0.248353
5.891000,0.896223
5.892000,1.639556
5.893000,2.069773
5.894000,1.961582
5.895000,1.210612
5.896000,0.292902
5.897000,-0.041852
5.898000,-0.318056
5.899000,-0.678267
5.900000,-0.348604
5.901000,-0.142406
5.902000,-0.533165
5.903000,-1.328683
5.904000,-1.886183
5.905000,-2.189117
5.906000,-2.386405
5.907000,-2.560783
5.908000,-2.700794
5.909000,-1.835270
5.910000,-1.407599
5.911000,-1.307045
5.912000,-1.030841
5.913000,-0.450431
5.914000,-0.587896
5.915000,-0.901013
5.916000,-1.006657
5.917000,-0.829734
5.918000,-0.836098
5.919000,-1.508152
5.920000,-1.855635
5.921000,-1.860726
5.922000,-2.102564
5.923000,-2.413135
5.924000,-2.880263
5.925000,-3.617232
5.926000,-3.921438
5.927000,-3.605776
5.928000,-3.173014
5.929000,-2.742798
5.930000,-2.175115
5.931000,-1.210310
5.932000,-0.522982
5.933000,-0.587896
5.934000,-0.883193
5.935000,-1.211583
5.936000,-1.639254
5.937000,-2.590058
5.938000,-3.281205
5.939000,-4.251101
5.940000,-5.553206
5.941000,-5.236272
5.942000,-4.262557
5.943000,-3.879435
5.944000,-2.705886
5.945000,-1.769083
5.946000,-1.015567
5.947000,0.814762
5.948000,1.811388
5.949000,3.077854
5.950000,3.518253
5.951000,2.741827
5.952000,2.303973
5.953000,2.162689
5.954000,1.504636
5.955000,0.987867
5.956000,0.156709
5.957000,-0.683359
5.958000,-1.337593
5.959000,-1.756354
5.960000,-2.100018
5.961000,-2.528962
5.962000,-3.054641
5.963000,-3.584138
5.964000,-5.150992
5.965000,-5.357190
5.966000,-4.823875
5.967000,-3.715240
5.968000,-2.772073
5.969000,-2.075835
5.970000,-1.329956
5.971000,-0.543347
5.972000,-0.333330
5.973000,-0.507708
5.974000,-0.358787
5.975000,-0.987565
5.976000,-1.588341
5.977000,-1.688894
5.978000,-0.897194
5.979000,-0.228958
5.980000,0.206349
5.981000,0.509283
5.982000,0.631475
5.983000,0.585653
5.984000,0.124888
5.985000,-0.346059
5.986000,-0.755910
5.987000,-0.987565
5.988000,-1.756354
5.989000,-2.722432
5.990000,-4.136546
5.991000,-5.817955
5.992000,-6.696208
5.993000,-7.524820
5.994000,-6.899860
5.995000,-5.162447
5.996000,-4.104726
5.997000,-2.486959
5.998000,-1.223039
5.999000,0.959865
6.000000,2.641273
6.001000,3.080400
6.002000,3.029486
6.003000,3.178408
6.004000,2.968391
6.005000,2.205965
6.006000,1.610281
6.007000,1.010778
6.008000,0.404911
6.009000,-0.412246
6.010000,-1.066480
6.011000,-1.365596
6.012000,-1.683803
6.013000,-1.915458
6.014000,-1.923095
6.015000,-2.070743
6.016000,-3.054641
6.017000,-3.465765
6.018000,-3.612140
6.019000,-3.433944
6.020000,-3.735605
6.021000,-4.191278
6.022000,-4.403841
6.023000,-4.537488
6.024000,-4.495484
6.025000,-3.851432
6.026000,-2.586239
6.027000,-1.422873
6.028000,-0.909922
6.029000,-0.794095
6.030000,-0.775002
6.031000,-0.232777
6.032000,-0.091493
6.033000,0.052337
6.034000,0.059974
6.035000,-0.290054
6.036000,-1.183581
6.037000,-2.222210
6.038000,-2.654972
6.039000,-2.093654
6.040000,-1.396143
6.041000,-1.159397
6.042000,-2.326582
6.043000,-3.321935
6.044000,-3.036821
6.045000,-2.458956
6.046000,-1.771628
6.047000,-1.006657
6.048000,-1.550156
6.049000,-1.620162
6.050000,-1.374505
6.051000,-0.599352
6.052000,0.597108
6.053000,1.299710
6.054000,0.813489
6.055000,-0.162771
6.056000,-0.609535
6.057000,-0.152589
6.058000,-0.143679
6.059000,-0.571350
6.060000,-0.790276
6.061000,-0.424974
6.062000,-0.203502
6.063000,-0.464432
6.064000,-0.915014
6.065000,-1.338866
6.066000,-1.702895
6.067000,-1.819996
6.068000,-2.100018
6.069000,-2.240030
6.070000,-2.307490
6.071000,-2.667701
6.072000,-2.624424
6.073000,-2.418226
6.074000,-2.124202
6.075000,-2.066925
6.076000,-1.910367
6.077000,-1.981645
6.078000,-2.046560
6.079000,-2.301126
6.080000,-2.756799
6.081000,-2.658791
6.082000,-2.903174
6.083000,-3.463219
6.084000,-3.809429
6.085000,-4.288013
6.086000,-4.263829
6.087000,-3.916347
6.088000,-2.955360
6.089000,-1.870909
6.090000,-0.436430
6.091000,0.094340
6.092000,0.319631
6.093000,0.804580
6.094000,0.655658
6.095000,0.939500
6.096000,0.744757
6.097000,0.561469
6.098000,0.444369
6.099000,0.154163
6.100000,-0.228958
6.101000,-0.410973
6.102000,-0.409700
6.103000,-1.226857
6.104000,-3.166650
6.105000,-3.969806
6.106000,-3.631233
6.107000,-3.628687
6.108000,-2.792438
6.109000,-1.765264
6.110000,-0.773730
6.111000,-0.269689
6.112000,-0.228958
6.113000,0.252171
6.114000,0.243262
6.115000,-0.400790
6.116000,0.135071
6.117000,-0.235323
6.118000,-1.128849
6.119000,-2.041468
6.120000,-2.542963
6.121000,-2.665155
6.122000,-2.437318
6.123000,-2.047832
6.124000,-1.915458
6.125000,-1.874728
6.126000,-2.018557
6.127000,-1.968917
6.128000,-1.929459
6.129000,-1.435601
6.130000,-0.846281
6.131000,-0.563713
6.132000,-0.775002
6.133000,-1.389779
6.134000,-1.529791
6.135000,-1.402508
6.136000,-1.970190
6.137000,-2.840805
6.138000,-2.924812
6.139000,-3.003728
6.140000,-2.954087
6.141000,-2.956633
6.142000,-2.517507
6.143000,-1.938369
6.144000,-1.529791
6.145000,-1.529791
6.146000,-1.445784
6.147000,-1.533609
6.148000,-1.890001
6.149000,-2.275669
6.150000,-2.108928
6.151000,-1.411417
6.152000,-0.298964
6.153000,0.206349
6.154000,0.348906
6.155000,-0.129678
6.156000,-1.823814
6.157000,-1.944733
6.158000,-2.153477
6.159000,-1.301954
6.160000,-0.647719
6.161000,-0.293873
6.162000,-0.384244
6.163000,-1.015567
6.164000,-1.343957
6.165000,-1.354140
6.166000,-1.333775
6.167000,-0.971018
6.168000,-0.200956
6.169000,-0.503890
6.170000,-0.732999
6.171000,-0.633718
6.172000,-0.533165
6.173000,-0.684631
6.174000,-1.144123
6.175000,-1.169580
6.176000,-1.332502
6.177000,-1.420327
6.178000,-1.478877
6.179000,-1.672348
6.180000,-1.662165
6.181000,-1.636708
6.182000,-2.069471
6.183000,-2.568420
6.184000,-2.573511
6.185000,-2.387678
6.186000,-2.752980
6.187000,-3.078825
6.188000,-2.868808
6.189000,-2.467866
6.190000,-2.371131
6.191000,-2.334219
6.192000,-2.200572
6.193000,-1.597251
6.194000,-1.319774
6.195000,-1.551429
6.196000,-1.847998
6.197000,-2.014739
6.198000,-2.423317
6.199000,-2.973180
6.200000,-3.906164
6.201000,-4.019446
6.202000,-3.283750
6.203000,-2.325309
6.204000,-1.392325
6.205000,-0.445339
6.206000,0.191076
6.207000,0.589471
6.208000,0.588198
6.209000,1.174973
6.210000,0.588198
6.211000,-1.965098
6.212000,-3.165377
6.213000,-3.328299
6.214000,-2.920994
6.215000,-1.762718
6.216000,-0.601898
6.217000,-0.027851
6.218000,0.012879
6.219000,0.439277
6.220000,0.700208
6.221000,1.288255
6.222000,0.366726
6.223000,-0.365151
6.224000,-0.750819
6.225000,-0.605716
6.226000,-0.072400
6.227000,0.360362
6.228000,-0.073673
6.229000,-0.769911
6.230000,-0.785185
6.231000,-1.014294
6.232000,-1.212856
6.233000,-1.541246
6.234000,-2.147113
6.235000,-2.423317
6.236000,-2.554419
6.237000,-3.020275
6.238000,-3.085189
6.239000,-2.833169
6.240000,-2.919721
6.241000,-2.996091
6.242000,-2.798802
6.243000,-2.624424
6.244000,-3.136102
6.245000,-3.642688
6.246000,-3.786518
6.247000,-3.759789
6.248000,-3.880708
6.249000,-3.543408
6.250000,-2.598968
6.251000,-1.341412
6.252000,-0.762274
6.253000,0.038336
6.254000,0.810944
6.255000,1.037507
6.256000,1.135515
6.257000,1.265344
6.258000,0.875858
6.259000,0.007788
6.260000,-0.557348
6.261000,-0.796641
6.262000,-1.178490
6.263000,-1.637981
6.264000,-1.370687
6.265000,-1.797085
6.266000,-2.100018
6.267000,-1.804722
6.268000,-1.601069
6.269000,-1.528518
6.270000,-1.359231
6.271000,-1.718169
6.272000,-2.301126
6.273000,-4.127637
6.274000,-5.924873
6.275000,-6.390728
6.276000,-5.200632
6.277000,-2.918448
6.278000,-1.262496
6.279000,0.058701
6.280000,1.042599
6.281000,1.463906
6.282000,1.512273
6.283000,1.899213
6.284000,1.596280
6.285000,0.872040
6.286000,0.091795
6.287000,-0.496253
6.288000,-0.993929
6.289000,-1.346503
6.290000,-1.739808
6.291000,-2.063106
6.292000,-2.660064
6.293000,-3.195925
6.294000,-3.310480
6.295000,-3.184470
6.296000,-3.003728
6.297000,-2.562056
6.298000,-1.974008
6.299000,-1.536155
6.300000,-1.621434
6.301000,-1.509425
6.302000,-1.075390
6.303000,-0.851372
6.304000,-1.560339
6.305000,-2.359676
6.306000,-3.153922
6.307000,-3.622323
6.308000,-3.804338
6.309000,-4.010536
6.310000,-3.402124
6.311000,-2.110201
6.312000,-0.861555
6.313000,0.082885
6.314000,0.924226
6.315000,1.749019
6.316000,1.983220
6.317000,1.410447
6.318000,1.292073
6.319000,1.285709
6.320000,0.508010
6.321000,-0.554803
6.322000,-1.598523
6.323000,-1.977827
6.324000,-2.231120
6.325000,-2.149659
6.326000,-2.656245
6.327000,-2.469139
6.328000,-2.192935
6.329000,-2.485686
6.330000,-3.057187
6.331000,-3.141193
6.332000,-2.396588
6.333000,-1.728352
