LabVIEW Measurement,
Writer_Version,2
Reader_Version,2
Separator,Comma
Decimal_Separator,.
Multi_Headings,No
X_Columns,Multi
Time_Pref,Absolute
Operator,Dymnz
Date,2017/08/09
Time,14:01:54.3548354833531871934
***End_of_Header***,
,
Channels,1,
Samples,1000,
Date,2017/08/09,
Time,14:01:54.3548354833531871934,
Y_Unit_Label,Volts,
X_Dimension,Time,
X0,0.0000000000000000E+0,
Delta_X,0.001000,
***End_of_Header***,,
X_Value,Voltage,Comment
0.000000,-2.035104
0.001000,-1.974008
0.002000,-1.865818
0.003000,-1.659619
0.004000,-1.480150
0.005000,-1.238313
0.006000,-1.075390
0.007000,-1.136486
0.008000,-1.271406
0.009000,-1.327411
0.010000,-1.375778
0.011000,-1.364323
0.012000,-1.291771
0.013000,-1.209037
0.014000,-1.268860
0.015000,-1.336320
0.016000,-1.403780
0.017000,-1.440693
0.018000,-1.396143
0.019000,-1.360504
0.020000,-1.276497
0.021000,-1.144123
0.022000,-1.287953
0.023000,-1.501788
0.024000,-1.565430
0.025000,-1.700350
0.026000,-1.762718
0.027000,-1.709260
0.028000,-1.704168
0.029000,-1.803449
0.030000,-1.849271
0.031000,-1.901457
0.032000,-2.045287
0.033000,-2.126748
0.034000,-1.827633
0.035000,-1.607433
0.036000,-1.458512
0.037000,-1.346503
0.038000,-1.203946
0.039000,-1.251041
0.040000,-1.380869
0.041000,-1.186127
0.042000,-1.272679
0.043000,-1.401235
0.044000,-1.408872
0.045000,-1.500516
0.046000,-1.571794
0.047000,-1.528518
0.048000,-1.335048
0.049000,-1.384688
0.050000,-1.355413
0.051000,-1.230676
0.052000,-1.228130
0.053000,-1.370687
0.054000,-1.472513
0.055000,-1.683803
0.056000,-1.869636
0.057000,-1.938369
0.058000,-1.753809
0.059000,-1.772901
0.060000,-1.784357
0.061000,-1.774174
0.062000,-1.781811
0.063000,-1.650709
0.064000,-1.524699
0.065000,-1.453421
0.066000,-1.522154
0.067000,-1.659619
0.068000,-1.501788
0.069000,-1.450875
0.070000,-1.463603
0.071000,-1.471240
0.072000,-1.403780
0.073000,-1.211583
0.074000,-1.188672
0.075000,-0.979928
0.076000,-0.652811
0.077000,-0.690996
0.078000,-0.847554
0.079000,-1.247222
0.080000,-1.618889
0.081000,-1.665983
0.082000,-1.699077
0.083000,-1.794539
0.084000,-1.802176
0.085000,-1.957461
0.086000,-1.833997
0.087000,-1.819996
0.088000,-1.924368
0.089000,-1.751263
0.090000,-1.548883
0.091000,-1.560339
0.092000,-1.584522
0.093000,-1.617616
0.094000,-1.565430
0.095000,-1.341412
0.096000,-1.296863
0.097000,-1.295590
0.098000,-1.261223
0.099000,-1.314682
0.100000,-1.298136
0.101000,-1.253586
0.102000,-1.281589
0.103000,-1.342685
0.104000,-1.125031
0.105000,-1.042297
0.106000,-1.029568
0.107000,-1.245950
0.108000,-1.556520
0.109000,-1.770355
0.110000,-1.867091
0.111000,-2.073289
0.112000,-2.208209
0.113000,-1.960007
0.114000,-1.732171
0.115000,-1.753809
0.116000,-1.695259
0.117000,-1.732171
0.118000,-1.681257
0.119000,-1.716897
0.120000,-1.711805
0.121000,-1.579431
0.122000,-1.253586
0.123000,-1.097028
0.124000,-1.137759
0.125000,-1.287953
0.126000,-1.399962
0.127000,-1.389779
0.128000,-1.448329
0.129000,-1.441965
0.130000,-1.537428
0.131000,-1.678712
0.132000,-1.795812
0.133000,-1.817450
0.134000,-1.603615
0.135000,-1.481423
0.136000,-1.478877
0.137000,-1.448329
0.138000,-1.452148
0.139000,-1.509425
0.140000,-1.489060
0.141000,-1.198855
0.142000,-0.978655
0.143000,-0.930288
0.144000,-1.053752
0.145000,-1.224311
0.146000,-1.478877
0.147000,-1.425419
0.148000,-1.504334
0.149000,-1.613797
0.150000,-1.715624
0.151000,-1.662165
0.152000,-1.356686
0.153000,-1.494151
0.154000,-1.601069
0.155000,-1.724534
0.156000,-1.785629
0.157000,-1.837815
0.158000,-1.888729
0.159000,-1.776720
0.160000,-1.655801
0.161000,-1.673620
0.162000,-1.747445
0.163000,-1.634163
0.164000,-1.296863
0.165000,-1.029568
0.166000,-1.107211
0.167000,-1.108484
0.168000,-1.209037
0.169000,-1.262496
0.170000,-1.285407
0.171000,-1.301954
0.172000,-1.364323
0.173000,-1.621434
0.174000,-1.802176
0.175000,-1.735989
0.176000,-1.774174
0.177000,-1.490333
0.178000,-1.293044
0.179000,-1.336320
0.180000,-1.508152
0.181000,-1.715624
0.182000,-1.860726
0.183000,-1.856908
0.184000,-1.702895
0.185000,-1.663438
0.186000,-1.249768
0.187000,-1.189945
0.188000,-1.293044
0.189000,-1.504334
0.190000,-1.529791
0.191000,-1.567976
0.192000,-1.660892
0.193000,-1.753809
0.194000,-1.727079
0.195000,-1.691440
0.196000,-1.693986
0.197000,-1.593432
0.198000,-1.541246
0.199000,-1.524699
0.200000,-1.481423
0.201000,-1.426691
0.202000,-1.298136
0.203000,-1.225584
0.204000,-1.216674
0.205000,-1.235767
0.206000,-1.284134
0.207000,-1.411417
0.208000,-1.585795
0.209000,-1.583249
0.210000,-1.261223
0.211000,-1.065208
0.212000,-1.085573
0.213000,-1.220493
0.214000,-1.453421
0.215000,-1.421600
0.216000,-1.364323
0.217000,-1.555247
0.218000,-1.578158
0.219000,-1.486514
0.220000,-1.489060
0.221000,-1.571794
0.222000,-1.597251
0.223000,-1.597251
0.224000,-1.277770
0.225000,-1.309591
0.226000,-1.407599
0.227000,-1.520881
0.228000,-1.601069
0.229000,-1.645618
0.230000,-1.691440
0.231000,-1.761446
0.232000,-1.749990
0.233000,-1.846725
0.234000,-1.550156
0.235000,-1.468695
0.236000,-1.301954
0.237000,-1.304500
0.238000,-1.317228
0.239000,-1.427964
0.240000,-1.511971
0.241000,-1.564157
0.242000,-1.520881
0.243000,-1.607433
0.244000,-1.804722
0.245000,-1.837815
0.246000,-1.687622
0.247000,-1.327411
0.248000,-1.183581
0.249000,-1.427964
0.250000,-1.629071
0.251000,-1.865818
0.252000,-2.142022
0.253000,-2.204390
0.254000,-2.145840
0.255000,-1.904003
0.256000,-1.674893
0.257000,-1.561611
0.258000,-1.447057
0.259000,-1.416509
0.260000,-1.349049
0.261000,-1.271406
0.262000,-1.296863
0.263000,-1.336320
0.264000,-1.331229
0.265000,-1.374505
0.266000,-1.323592
0.267000,-1.047388
0.268000,-0.979928
0.269000,-1.020659
0.270000,-1.062662
0.271000,-1.151760
0.272000,-1.229403
0.273000,-1.392325
0.274000,-1.518335
0.275000,-1.364323
0.276000,-1.293044
0.277000,-1.324865
0.278000,-1.383415
0.279000,-1.692713
0.280000,-1.794539
0.281000,-1.777992
0.282000,-1.755082
0.283000,-1.688894
0.284000,-1.739808
0.285000,-1.707987
0.286000,-1.752536
0.287000,-1.830178
0.288000,-1.649437
0.289000,-1.425419
0.290000,-1.350322
0.291000,-1.439420
0.292000,-1.482696
0.293000,-1.458512
0.294000,-1.313410
0.295000,-1.303227
0.296000,-1.382142
0.297000,-1.427964
0.298000,-1.560339
0.299000,-1.541246
0.300000,-1.559066
0.301000,-1.620162
0.302000,-1.658346
0.303000,-1.635435
0.304000,-1.660892
0.305000,-1.667256
0.306000,-1.742353
0.307000,-1.664711
0.308000,-1.499243
0.309000,-1.346503
0.310000,-1.356686
0.311000,-1.130122
0.312000,-1.063935
0.313000,-1.043570
0.314000,-1.183581
0.315000,-1.304500
0.316000,-1.436874
0.317000,-1.537428
0.318000,-1.594705
0.319000,-1.677439
0.320000,-1.732171
0.321000,-1.704168
0.322000,-1.357959
0.323000,-0.782639
0.324000,-0.699905
0.325000,-0.874283
0.326000,-1.271406
0.327000,-1.552702
0.328000,-1.599796
0.329000,-1.783084
0.330000,-1.998192
0.331000,-2.033831
0.332000,-2.047832
0.333000,-2.069471
0.334000,-2.121657
0.335000,-2.185298
0.336000,-2.130566
0.337000,-2.058015
0.338000,-1.995646
0.339000,-1.844180
0.340000,-1.674893
0.341000,-1.564157
0.342000,-1.494151
0.343000,-1.494151
0.344000,-1.406326
0.345000,-1.293044
0.346000,-1.253586
0.347000,-1.239585
0.348000,-1.135213
0.349000,-0.979928
0.350000,-0.871737
0.351000,-0.725362
0.352000,-0.503890
0.353000,-0.698633
0.354000,-0.940470
0.355000,-1.193763
0.356000,-1.399962
0.357000,-1.552702
0.358000,-1.683803
0.359000,-1.882365
0.360000,-1.989282
0.361000,-2.101291
0.362000,-2.168751
0.363000,-1.982918
0.364000,-1.895093
0.365000,-1.831451
0.366000,-1.742353
0.367000,-1.737262
0.368000,-1.753809
0.369000,-1.641800
0.370000,-1.548883
0.371000,-1.496697
0.372000,-1.410145
0.373000,-1.345230
0.374000,-1.318501
0.375000,-1.305773
0.376000,-1.267588
0.377000,-0.880647
0.378000,-0.750819
0.379000,-0.818279
0.380000,-1.117394
0.381000,-1.427964
0.382000,-1.590886
0.383000,-1.701623
0.384000,-1.784357
0.385000,-1.845452
0.386000,-1.774174
0.387000,-1.887456
0.388000,-1.932005
0.389000,-1.886183
0.390000,-1.724534
0.391000,-1.500516
0.392000,-1.299408
0.393000,-1.275225
0.394000,-1.411417
0.395000,-1.314682
0.396000,-0.735545
0.397000,-0.432611
0.398000,-0.475887
0.399000,-0.666812
0.400000,-0.999020
0.401000,-1.279043
0.402000,-1.634163
0.403000,-1.965098
0.404000,-2.159841
0.405000,-2.433500
0.406000,-2.315127
0.407000,-2.116565
0.408000,-2.220937
0.409000,-2.201845
0.410000,-1.967644
0.411000,-1.616343
0.412000,-1.472513
0.413000,-1.346503
0.414000,-1.374505
0.415000,-1.391052
0.416000,-1.393598
0.417000,-1.445784
0.418000,-1.398689
0.419000,-1.440693
0.420000,-1.536155
0.421000,-1.478877
0.422000,-1.454694
0.423000,-1.471240
0.424000,-1.478877
0.425000,-1.564157
0.426000,-1.599796
0.427000,-1.548883
0.428000,-1.313410
0.429000,-1.223039
0.430000,-1.256132
0.431000,-1.323592
0.432000,-1.354140
0.433000,-1.440693
0.434000,-1.458512
0.435000,-1.391052
0.436000,-1.425419
0.437000,-1.458512
0.438000,-1.511971
0.439000,-1.547610
0.440000,-1.468695
0.441000,-1.384688
0.442000,-1.332502
0.443000,-1.380869
0.444000,-1.406326
0.445000,-1.343957
0.446000,-1.345230
0.447000,-1.346503
0.448000,-1.392325
0.449000,-1.466149
0.450000,-1.462331
0.451000,-1.536155
0.452000,-1.534882
0.453000,-1.270133
0.454000,-1.021931
0.455000,-1.178490
0.456000,-1.501788
0.457000,-1.742353
0.458000,-1.856908
0.459000,-1.738535
0.460000,-1.310864
0.461000,-1.114848
0.462000,-1.195036
0.463000,-1.546337
0.464000,-1.743626
0.465000,-1.863272
0.466000,-1.949824
0.467000,-1.868363
0.468000,-1.673620
0.469000,-1.729625
0.470000,-1.847998
0.471000,-1.901457
0.472000,-1.730898
0.473000,-1.682530
0.474000,-1.804722
0.475000,-1.876000
0.476000,-1.599796
0.477000,-1.285407
0.478000,-1.184854
0.479000,-1.296863
0.480000,-1.289226
0.481000,-1.309591
0.482000,-1.455966
0.483000,-1.513244
0.484000,-1.713078
0.485000,-1.607433
0.486000,-1.585795
0.487000,-1.685076
0.488000,-1.687622
0.489000,-1.580704
0.490000,-1.730898
0.491000,-1.616343
0.492000,-1.547610
0.493000,-1.527245
0.494000,-1.497970
0.495000,-1.616343
0.496000,-1.522154
0.497000,-1.405053
0.498000,-1.396143
0.499000,-1.471240
0.500000,-1.439420
0.501000,-1.392325
0.502000,-1.403780
0.503000,-1.543792
0.504000,-1.541246
0.505000,-1.481423
0.506000,-1.412690
0.507000,-1.315955
0.508000,-1.251041
0.509000,-1.184854
0.510000,-1.137759
0.511000,-1.240858
0.512000,-1.340139
0.513000,-1.364323
0.514000,-1.349049
0.515000,-1.051207
0.516000,-1.030841
0.517000,-1.224311
0.518000,-1.489060
0.519000,-1.574340
0.520000,-1.685076
0.521000,-1.701623
0.522000,-1.681257
0.523000,-1.643072
0.524000,-1.598523
0.525000,-1.615070
0.526000,-1.557793
0.527000,-1.524699
0.528000,-1.272679
0.529000,-1.049934
0.530000,-1.006657
0.531000,-0.890830
0.532000,-1.172125
0.533000,-1.505607
0.534000,-1.766537
0.535000,-1.876000
0.536000,-1.934551
0.537000,-1.858181
0.538000,-1.671075
0.539000,-1.539973
0.540000,-1.412690
0.541000,-1.327411
0.542000,-1.515789
0.543000,-1.654528
0.544000,-1.671075
0.545000,-1.812359
0.546000,-1.893820
0.547000,-1.962553
0.548000,-1.942188
0.549000,-1.902730
0.550000,-1.910367
0.551000,-1.886183
0.552000,-1.663438
0.553000,-1.528518
0.554000,-1.643072
0.555000,-1.700350
0.556000,-1.579431
0.557000,-1.351594
0.558000,-1.164488
0.559000,-1.136486
0.560000,-1.318501
0.561000,-1.515789
0.562000,-1.713078
0.563000,-1.634163
0.564000,-1.603615
0.565000,-1.458512
0.566000,-1.542519
0.567000,-1.631617
0.568000,-1.448329
0.569000,-1.382142
0.570000,-1.412690
0.571000,-1.458512
0.572000,-1.481423
0.573000,-1.402508
0.574000,-1.303227
0.575000,-1.318501
0.576000,-1.342685
0.577000,-1.364323
0.578000,-1.421600
0.579000,-1.472513
0.580000,-1.454694
0.581000,-1.483969
0.582000,-1.434328
0.583000,-1.431783
0.584000,-1.455966
0.585000,-1.491606
0.586000,-1.377051
0.587000,-1.359231
0.588000,-1.254859
0.589000,-1.235767
0.590000,-1.298136
0.591000,-1.249768
0.592000,-1.063935
0.593000,-1.154306
0.594000,-1.248495
0.595000,-1.314682
0.596000,-1.240858
0.597000,-1.335048
0.598000,-1.405053
0.599000,-1.391052
0.600000,-1.485242
0.601000,-1.482696
0.602000,-1.341412
0.603000,-0.926469
0.604000,-0.925196
0.605000,-1.183581
0.606000,-1.547610
0.607000,-1.891274
0.608000,-2.086017
0.609000,-2.178934
0.610000,-2.041468
0.611000,-1.907821
0.612000,-1.958734
0.613000,-1.835270
0.614000,-1.772901
0.615000,-1.901457
0.616000,-1.998192
0.617000,-2.063106
0.618000,-1.935823
0.619000,-1.807268
0.620000,-1.686349
0.621000,-1.723261
0.622000,-1.662165
0.623000,-1.587068
0.624000,-1.601069
0.625000,-1.660892
0.626000,-1.441965
0.627000,-1.461058
0.628000,-1.496697
0.629000,-1.593432
0.630000,-1.525972
0.631000,-1.354140
0.632000,-1.326138
0.633000,-1.413963
0.634000,-1.528518
0.635000,-1.634163
0.636000,-1.663438
0.637000,-1.601069
0.638000,-1.593432
0.639000,-1.280316
0.640000,-1.035933
0.641000,-1.046115
0.642000,-1.169580
0.643000,-1.304500
0.644000,-1.337593
0.645000,-1.361777
0.646000,-1.402508
0.647000,-1.343957
0.648000,-1.212856
0.649000,-1.055025
0.650000,-1.027023
0.651000,-1.151760
0.652000,-1.165761
0.653000,-1.149214
0.654000,-1.066480
0.655000,-1.069026
0.656000,-1.259951
0.657000,-1.382142
0.658000,-1.517062
0.659000,-1.776720
0.660000,-1.763991
0.661000,-1.841634
0.662000,-1.696531
0.663000,-1.780538
0.664000,-1.813632
0.665000,-1.860726
0.666000,-1.874728
0.667000,-1.948552
0.668000,-1.921822
0.669000,-1.692713
0.670000,-1.589614
0.671000,-1.541246
0.672000,-1.463603
0.673000,-1.309591
0.674000,-1.281589
0.675000,-1.352867
0.676000,-1.366868
0.677000,-1.382142
0.678000,-1.455966
0.679000,-1.524699
0.680000,-1.565430
0.681000,-1.518335
0.682000,-0.943016
0.683000,-0.833553
0.684000,-0.692268
0.685000,-0.704997
0.686000,-0.864101
0.687000,-1.018113
0.688000,-1.271406
0.689000,-1.555247
0.690000,-1.853089
0.691000,-1.938369
0.692000,-1.924368
0.693000,-1.998192
0.694000,-2.231120
0.695000,-2.292216
0.696000,-2.406770
0.697000,-2.289670
0.698000,-2.068198
0.699000,-1.947279
0.700000,-1.845452
0.701000,-1.658346
0.702000,-1.467422
0.703000,-1.472513
0.704000,-1.416509
0.705000,-1.167034
0.706000,-0.806823
0.707000,-0.786458
0.708000,-0.949380
0.709000,-1.182308
0.710000,-1.445784
0.711000,-1.597251
0.712000,-1.663438
0.713000,-1.664711
0.714000,-1.738535
0.715000,-1.854362
0.716000,-1.674893
0.717000,-1.599796
0.718000,-1.653255
0.719000,-1.452148
0.720000,-1.426691
0.721000,-1.564157
0.722000,-1.575612
0.723000,-1.550156
0.724000,-1.590886
0.725000,-1.581977
0.726000,-1.569248
0.727000,-1.669802
0.728000,-1.700350
0.729000,-1.738535
0.730000,-1.707987
0.731000,-1.492879
0.732000,-1.384688
0.733000,-1.228130
0.734000,-1.074117
0.735000,-1.107211
0.736000,-1.142850
0.737000,-1.240858
0.738000,-1.345230
0.739000,-1.387234
0.740000,-1.483969
0.741000,-1.555247
0.742000,-1.621434
0.743000,-1.388506
0.744000,-1.193763
0.745000,-1.251041
0.746000,-1.336320
0.747000,-1.338866
0.748000,-1.365596
0.749000,-1.419054
0.750000,-1.464876
0.751000,-1.523426
0.752000,-1.509425
0.753000,-1.487787
0.754000,-1.730898
0.755000,-1.845452
0.756000,-1.559066
0.757000,-1.322319
0.758000,-1.326138
0.759000,-1.252314
0.760000,-0.813187
0.761000,-0.843735
0.762000,-0.965927
0.763000,-0.941743
0.764000,-0.902285
0.765000,-1.112302
0.766000,-1.408872
0.767000,-1.809813
0.768000,-1.957461
0.769000,-2.004556
0.770000,-2.144567
0.771000,-2.238757
0.772000,-2.016012
0.773000,-1.646891
0.774000,-1.534882
0.775000,-1.830178
0.776000,-1.942188
0.777000,-1.991828
0.778000,-2.078380
0.779000,-2.036377
0.780000,-1.845452
0.781000,-1.724534
0.782000,-1.718169
0.783000,-1.723261
0.784000,-1.793266
0.785000,-1.635435
0.786000,-1.337593
0.787000,-1.116121
0.788000,-1.080482
0.789000,-1.188672
0.790000,-1.411417
0.791000,-1.551429
0.792000,-1.539973
0.793000,-1.476332
0.794000,-1.500516
0.795000,-1.536155
0.796000,-1.567976
0.797000,-1.517062
0.798000,-1.551429
0.799000,-1.450875
0.800000,-1.342685
0.801000,-1.327411
0.802000,-1.289226
0.803000,-1.305773
0.804000,-1.323592
0.805000,-1.411417
0.806000,-1.419054
0.807000,-1.385961
0.808000,-1.355413
0.809000,-1.384688
0.810000,-1.496697
0.811000,-1.524699
0.812000,-1.433056
0.813000,-1.401235
0.814000,-1.454694
0.815000,-1.402508
0.816000,-1.277770
0.817000,-1.225584
0.818000,-1.235767
0.819000,-1.259951
0.820000,-1.272679
0.821000,-1.329956
0.822000,-1.368141
0.823000,-1.354140
0.824000,-0.819551
0.825000,-0.442794
0.826000,-0.699905
0.827000,-1.011749
0.828000,-1.384688
0.829000,-1.724534
0.830000,-1.645618
0.831000,-1.581977
0.832000,-1.770355
0.833000,-1.993101
0.834000,-2.213300
0.835000,-2.301126
0.836000,-2.190389
0.837000,-2.010920
0.838000,-1.873455
0.839000,-1.926914
0.840000,-1.879819
0.841000,-1.713078
0.842000,-1.621434
0.843000,-1.643072
0.844000,-1.648164
0.845000,-1.721988
0.846000,-1.864545
0.847000,-1.807268
0.848000,-1.641800
0.849000,-1.496697
0.850000,-1.537428
0.851000,-1.659619
0.852000,-1.650709
0.853000,-1.482696
0.854000,-1.309591
0.855000,-1.200128
0.856000,-1.104665
0.857000,-0.948107
0.858000,-1.219220
0.859000,-1.233221
0.860000,-1.231948
0.861000,-1.317228
0.862000,-1.140305
0.863000,-1.216674
0.864000,-1.496697
0.865000,-1.346503
0.866000,-1.158124
0.867000,-1.122485
0.868000,-1.361777
0.869000,-1.319774
0.870000,-1.085573
0.871000,-1.281589
0.872000,-1.454694
0.873000,-1.673620
0.874000,-2.017284
0.875000,-2.072016
0.876000,-2.186571
0.877000,-2.317672
0.878000,-2.080926
0.879000,-1.841634
0.880000,-1.608706
0.881000,-1.420327
0.882000,-1.506880
0.883000,-1.510698
0.884000,-1.560339
0.885000,-1.621434
0.886000,-1.505607
0.887000,-1.410145
0.888000,-1.556520
0.889000,-1.567976
0.890000,-1.581977
0.891000,-1.699077
0.892000,-1.657074
0.893000,-1.593432
0.894000,-1.611252
0.895000,-1.533609
0.896000,-1.445784
0.897000,-1.419054
0.898000,-1.483969
0.899000,-1.547610
0.900000,-1.520881
0.901000,-1.459785
0.902000,-1.354140
0.903000,-1.399962
0.904000,-1.447057
0.905000,-1.089391
0.906000,-1.091937
0.907000,-1.214129
0.908000,-1.352867
0.909000,-1.429237
0.910000,-1.445784
0.911000,-1.405053
0.912000,-1.226857
0.913000,-1.153033
0.914000,-1.191218
0.915000,-1.224311
0.916000,-1.365596
0.917000,-1.305773
0.918000,-1.154306
0.919000,-1.174671
0.920000,-1.398689
0.921000,-1.598523
0.922000,-1.833997
0.923000,-1.946006
0.924000,-1.882365
0.925000,-1.777992
0.926000,-1.730898
0.927000,-1.665983
0.928000,-1.631617
0.929000,-1.594705
0.930000,-1.467422
0.931000,-1.296863
0.932000,-1.345230
0.933000,-1.315955
0.934000,-0.981201
0.935000,-0.967200
0.936000,-1.128849
0.937000,-1.380869
0.938000,-1.272679
0.939000,-1.226857
0.940000,-1.497970
0.941000,-1.583249
0.942000,-1.545065
0.943000,-1.671075
0.944000,-1.738535
0.945000,-1.845452
0.946000,-2.040195
0.947000,-2.115292
0.948000,-2.004556
0.949000,-1.860726
0.950000,-1.860726
0.951000,-1.818723
0.952000,-1.779265
0.953000,-1.799631
0.954000,-1.758900
0.955000,-1.660892
0.956000,-1.646891
0.957000,-1.453421
0.958000,-1.483969
0.959000,-1.700350
0.960000,-1.685076
0.961000,-1.528518
0.962000,-1.410145
0.963000,-1.315955
0.964000,-1.262496
0.965000,-1.243404
0.966000,-1.300681
0.967000,-1.270133
0.968000,-1.346503
0.969000,-1.336320
0.970000,-1.284134
0.971000,-1.335048
0.972000,-1.279043
0.973000,-1.298136
0.974000,-1.405053
0.975000,-1.454694
0.976000,-1.457239
0.977000,-1.468695
0.978000,-1.494151
0.979000,-1.550156
0.980000,-1.562884
0.981000,-1.448329
0.982000,-1.244677
0.983000,-1.108484
0.984000,-1.219220
0.985000,-1.191218
0.986000,-1.153033
0.987000,-1.224311
0.988000,-1.315955
0.989000,-1.406326
0.990000,-1.475059
0.991000,-1.602342
0.992000,-1.662165
0.993000,-1.626526
0.994000,-1.350322
0.995000,-1.178490
0.996000,-1.265042
0.997000,-1.455966
0.998000,-1.097028
0.999000,-0.869192
1.000000,-0.871737
1.001000,-1.126303
1.002000,-1.355413
1.003000,-1.536155
1.004000,-1.785629
1.005000,-2.150932
1.006000,-2.153477
1.007000,-2.168751
1.008000,-2.391497
1.009000,-2.324037
1.010000,-2.441137
1.011000,-2.329128
1.012000,-2.082199
1.013000,-1.968917
1.014000,-1.859454
1.015000,-1.677439
1.016000,-1.443238
1.017000,-1.346503
1.018000,-1.319774
1.019000,-1.279043
1.020000,-1.237040
1.021000,-1.193763
1.022000,-1.083027
1.023000,-1.117394
1.024000,-1.229403
1.025000,-1.383415
1.026000,-1.520881
1.027000,-1.573067
1.028000,-1.639254
1.029000,-1.635435
1.030000,-1.669802
1.031000,-1.733443
1.032000,-1.693986
1.033000,-1.672348
1.034000,-1.707987
1.035000,-1.613797
1.036000,-1.509425
1.037000,-1.482696
1.038000,-1.548883
1.039000,-1.590886
1.040000,-1.545065
1.041000,-1.443238
1.042000,-1.366868
1.043000,-1.205219
1.044000,-1.186127
1.045000,-1.127576
1.046000,-1.047388
1.047000,-0.932833
1.048000,-0.935379
1.049000,-1.061389
1.050000,-1.258678
1.051000,-1.463603
1.052000,-1.533609
1.053000,-1.406326
1.054000,-1.382142
1.055000,-1.576885
1.056000,-1.606160
1.057000,-1.716897
1.058000,-1.882365
1.059000,-1.777992
1.060000,-1.733443
1.061000,-1.785629
1.062000,-1.705441
1.063000,-1.598523
1.064000,-1.309591
1.065000,-1.105938
1.066000,-1.029568
1.067000,-1.142850
1.068000,-1.317228
1.069000,-1.478877
1.070000,-1.500516
1.071000,-1.492879
1.072000,-1.480150
1.073000,-1.461058
1.074000,-1.557793
1.075000,-1.532336
1.076000,-1.083027
1.077000,-0.971018
1.078000,-1.097028
1.079000,-1.351594
1.080000,-1.492879
1.081000,-1.615070
1.082000,-1.449602
1.083000,-1.322319
1.084000,-1.359231
1.085000,-1.486514
1.086000,-1.671075
1.087000,-1.930732
1.088000,-2.074562
1.089000,-1.984191
1.090000,-2.129294
1.091000,-2.176388
1.092000,-2.119111
1.093000,-2.125475
1.094000,-2.007102
1.095000,-1.868363
1.096000,-1.746172
1.097000,-1.648164
1.098000,-1.611252
1.099000,-1.567976
1.100000,-1.645618
1.101000,-1.597251
1.102000,-1.538700
1.103000,-1.532336
1.104000,-1.417782
1.105000,-1.280316
1.106000,-1.051207
1.107000,-0.809369
1.108000,-0.843735
1.109000,-0.917559
1.110000,-0.973564
1.111000,-0.873010
1.112000,-1.052479
1.113000,-1.245950
1.114000,-1.517062
1.115000,-1.842907
1.116000,-1.935823
1.117000,-1.876000
1.118000,-1.993101
1.119000,-1.864545
1.120000,-1.550156
1.121000,-1.522154
1.122000,-1.522154
1.123000,-1.494151
1.124000,-1.503061
1.125000,-1.602342
1.126000,-1.601069
1.127000,-1.590886
1.128000,-1.565430
1.129000,-1.492879
1.130000,-1.419054
1.131000,-1.419054
1.132000,-1.377051
1.133000,-1.453421
1.134000,-1.436874
1.135000,-1.341412
1.136000,-1.345230
1.137000,-1.114848
1.138000,-1.062662
1.139000,-1.104665
1.140000,-1.141577
1.141000,-0.694814
1.142000,-0.687177
1.143000,-0.951926
1.144000,-1.281589
1.145000,-1.491606
1.146000,-1.711805
1.147000,-1.886183
1.148000,-2.008375
1.149000,-2.184025
1.150000,-2.243848
1.151000,-2.293489
1.152000,-2.265486
1.153000,-1.872182
1.154000,-1.863272
1.155000,-1.725806
1.156000,-1.548883
1.157000,-1.429237
1.158000,-1.321046
1.159000,-1.287953
1.160000,-1.312137
1.161000,-1.206492
1.162000,-1.038478
1.163000,-0.869192
1.164000,-0.963381
1.165000,-1.135213
1.166000,-1.347776
1.167000,-1.504334
1.168000,-1.571794
1.169000,-1.570521
1.170000,-1.593432
1.171000,-1.597251
1.172000,-1.501788
1.173000,-1.539973
1.174000,-1.714351
1.175000,-1.869636
1.176000,-1.977827
1.177000,-1.915458
1.178000,-1.737262
1.179000,-1.631617
1.180000,-1.466149
1.181000,-1.326138
1.182000,-1.242131
1.183000,-1.457239
1.184000,-1.648164
1.185000,-1.667256
1.186000,-1.618889
1.187000,-1.576885
1.188000,-1.626526
1.189000,-1.532336
1.190000,-1.467422
1.191000,-1.299408
1.192000,-1.039751
1.193000,-1.140305
1.194000,-1.258678
1.195000,-1.410145
1.196000,-1.454694
1.197000,-1.506880
1.198000,-1.604888
1.199000,-1.702895
1.200000,-1.653255
1.201000,-1.603615
1.202000,-1.634163
1.203000,-1.715624
1.204000,-1.844180
1.205000,-1.758900
1.206000,-1.632890
1.207000,-1.690167
1.208000,-1.691440
1.209000,-1.529791
1.210000,-1.508152
1.211000,-1.360504
1.212000,-1.083027
1.213000,-1.006657
1.214000,-1.002839
1.215000,-1.159397
1.216000,-1.285407
1.217000,-1.427964
1.218000,-1.431783
1.219000,-1.317228
1.220000,-1.403780
1.221000,-1.519608
1.222000,-1.641800
1.223000,-1.781811
1.224000,-1.790721
1.225000,-1.701623
1.226000,-1.541246
1.227000,-1.444511
1.228000,-1.485242
1.229000,-1.360504
1.230000,-1.364323
1.231000,-1.340139
1.232000,-1.346503
1.233000,-1.238313
1.234000,-1.240858
1.235000,-1.329956
1.236000,-1.327411
1.237000,-1.394871
1.238000,-1.438147
1.239000,-1.351594
1.240000,-1.528518
1.241000,-1.718169
1.242000,-1.581977
1.243000,-1.426691
1.244000,-1.426691
1.245000,-1.469968
1.246000,-1.585795
1.247000,-1.774174
1.248000,-1.794539
1.249000,-1.519608
1.250000,-1.425419
1.251000,-1.438147
1.252000,-1.461058
1.253000,-1.688894
1.254000,-1.794539
1.255000,-1.713078
1.256000,-1.505607
1.257000,-1.156851
1.258000,-1.200128
1.259000,-1.251041
1.260000,-1.555247
1.261000,-1.797085
1.262000,-1.867091
1.263000,-1.777992
1.264000,-1.870909
1.265000,-1.930732
1.266000,-2.009648
1.267000,-1.870909
1.268000,-1.765264
1.269000,-1.761446
1.270000,-1.511971
1.271000,-1.468695
1.272000,-1.448329
1.273000,-1.415236
1.274000,-1.178490
1.275000,-0.971018
1.276000,-1.145396
1.277000,-1.257405
1.278000,-1.366868
1.279000,-1.439420
1.280000,-1.391052
1.281000,-1.431783
1.282000,-1.458512
1.283000,-1.435601
1.284000,-1.528518
1.285000,-1.606160
1.286000,-1.632890
1.287000,-1.497970
1.288000,-1.545065
1.289000,-1.607433
1.290000,-1.574340
1.291000,-1.564157
1.292000,-1.570521
1.293000,-1.489060
1.294000,-1.506880
1.295000,-1.555247
1.296000,-1.612525
1.297000,-1.472513
1.298000,-1.226857
1.299000,-1.023204
1.300000,-0.915014
1.301000,-0.959563
1.302000,-1.070299
1.303000,-1.259951
1.304000,-1.340139
1.305000,-1.476332
1.306000,-1.524699
1.307000,-1.607433
1.308000,-1.774174
1.309000,-1.904003
1.310000,-1.960007
1.311000,-1.944733
1.312000,-1.748717
1.313000,-1.575612
1.314000,-1.546337
1.315000,-1.682530
1.316000,-1.727079
1.317000,-1.715624
1.318000,-1.629071
1.319000,-1.511971
1.320000,-1.361777
1.321000,-1.351594
1.322000,-1.379597
1.323000,-1.332502
1.324000,-0.909922
1.325000,-0.664266
1.326000,-0.707542
1.327000,-0.976110
1.328000,-1.271406
1.329000,-1.567976
1.330000,-1.809813
1.331000,-2.054197
1.332000,-1.859454
1.333000,-1.552702
1.334000,-1.667256
1.335000,-1.816177
1.336000,-2.059288
1.337000,-2.125475
1.338000,-1.864545
1.339000,-1.676166
1.340000,-1.608706
1.341000,-1.360504
1.342000,-1.343957
1.343000,-1.363050
1.344000,-1.402508
1.345000,-1.471240
1.346000,-1.466149
1.347000,-1.529791
1.348000,-1.601069
1.349000,-1.643072
1.350000,-1.672348
1.351000,-1.741080
1.352000,-1.744899
1.353000,-1.511971
1.354000,-1.396143
1.355000,-1.161943
1.356000,-0.918832
1.357000,-0.950653
1.358000,-1.184854
1.359000,-1.377051
1.360000,-1.467422
1.361000,-1.510698
1.362000,-1.623980
1.363000,-1.739808
1.364000,-1.809813
1.365000,-1.934551
1.366000,-1.982918
1.367000,-1.823814
1.368000,-1.676166
1.369000,-1.574340
1.370000,-1.539973
1.371000,-1.557793
1.372000,-1.396143
1.373000,-1.212856
1.374000,-1.141577
1.375000,-1.219220
1.376000,-1.254859
1.377000,-1.186127
1.378000,-1.111030
1.379000,-1.041024
1.380000,-1.183581
1.381000,-1.309591
1.382000,-1.393598
1.383000,-1.441965
1.384000,-1.450875
1.385000,-1.613797
1.386000,-1.727079
1.387000,-1.732171
1.388000,-1.769083
1.389000,-1.825087
1.390000,-1.718169
1.391000,-1.663438
1.392000,-1.744899
1.393000,-1.795812
1.394000,-1.668529
1.395000,-1.464876
1.396000,-1.140305
1.397000,-1.167034
1.398000,-1.310864
1.399000,-1.183581
1.400000,-0.946834
1.401000,-0.913741
1.402000,-0.749546
1.403000,-0.804278
1.404000,-1.080482
1.405000,-1.391052
1.406000,-1.769083
1.407000,-2.047832
1.408000,-2.134385
1.409000,-2.167478
1.410000,-2.110201
1.411000,-2.228574
1.412000,-2.236211
1.413000,-2.097473
1.414000,-1.919277
1.415000,-1.411417
1.416000,-1.081754
1.417000,-1.105938
1.418000,-1.212856
1.419000,-1.392325
1.420000,-1.587068
1.421000,-1.570521
1.422000,-1.510698
1.423000,-1.489060
1.424000,-1.352867
1.425000,-1.215402
1.426000,-1.275225
1.427000,-1.420327
1.428000,-1.515789
1.429000,-1.566703
1.430000,-1.593432
1.431000,-1.590886
1.432000,-1.529791
1.433000,-1.574340
1.434000,-1.639254
1.435000,-1.760173
1.436000,-1.763991
1.437000,-1.777992
1.438000,-1.711805
1.439000,-1.509425
1.440000,-1.193763
1.441000,-1.142850
1.442000,-1.223039
1.443000,-1.349049
1.444000,-1.389779
1.445000,-1.447057
1.446000,-1.522154
1.447000,-1.503061
1.448000,-1.422873
1.449000,-1.440693
1.450000,-1.660892
1.451000,-1.793266
1.452000,-1.720715
1.453000,-1.635435
1.454000,-1.462331
1.455000,-1.478877
1.456000,-1.543792
1.457000,-1.531063
1.458000,-1.483969
1.459000,-1.459785
1.460000,-1.368141
1.461000,-1.287953
1.462000,-1.370687
1.463000,-1.335048
1.464000,-1.322319
1.465000,-1.294317
1.466000,-1.284134
1.467000,-1.321046
1.468000,-1.335048
1.469000,-1.433056
1.470000,-1.532336
1.471000,-1.581977
1.472000,-1.575612
1.473000,-1.528518
1.474000,-1.098301
1.475000,-0.950653
1.476000,-0.845008
1.477000,-0.871737
1.478000,-0.903558
1.479000,-0.991384
1.480000,-1.261223
1.481000,-1.556520
1.482000,-1.692713
1.483000,-1.720715
1.484000,-1.786902
1.485000,-1.789448
1.486000,-1.960007
1.487000,-2.035104
1.488000,-1.991828
1.489000,-1.861999
1.490000,-1.713078
1.491000,-1.651982
1.492000,-1.794539
1.493000,-1.896366
1.494000,-1.892547
1.495000,-1.840361
1.496000,-1.646891
1.497000,-1.177217
1.498000,-1.126303
1.499000,-1.309591
1.500000,-1.396143
1.501000,-1.156851
1.502000,-1.159397
1.503000,-1.184854
1.504000,-1.422873
1.505000,-1.606160
1.506000,-1.441965
1.507000,-1.291771
1.508000,-1.296863
1.509000,-1.645618
1.510000,-1.892547
1.511000,-2.162387
1.512000,-2.149659
1.513000,-2.126748
1.514000,-1.981645
1.515000,-1.911640
1.516000,-1.960007
1.517000,-1.958734
1.518000,-1.811086
1.519000,-1.701623
1.520000,-1.505607
1.521000,-1.413963
1.522000,-1.399962
1.523000,-1.382142
1.524000,-1.365596
1.525000,-1.331229
1.526000,-1.396143
1.527000,-1.405053
1.528000,-1.259951
1.529000,-1.121212
1.530000,-0.847554
1.531000,-0.701178
1.532000,-0.845008
1.533000,-1.048661
1.534000,-1.198855
1.535000,-1.370687
1.536000,-1.506880
1.537000,-1.646891
1.538000,-1.676166
1.539000,-1.735989
1.540000,-1.835270
1.541000,-1.826360
1.542000,-1.651982
1.543000,-1.625253
1.544000,-1.531063
1.545000,-1.489060
1.546000,-1.491606
1.547000,-1.496697
1.548000,-1.426691
1.549000,-1.370687
1.550000,-1.453421
1.551000,-1.441965
1.552000,-1.335048
1.553000,-1.420327
1.554000,-1.545065
1.555000,-1.575612
1.556000,-1.478877
1.557000,-1.377051
1.558000,-1.172125
1.559000,-1.011749
1.560000,-0.408427
1.561000,-0.114404
1.562000,-0.388062
1.563000,-0.769911
1.564000,-1.160670
1.565000,-1.489060
1.566000,-1.631617
1.567000,-1.896366
1.568000,-2.126748
1.569000,-2.176388
1.570000,-2.282033
1.571000,-2.630789
1.572000,-2.624424
1.573000,-2.336765
1.574000,-1.933278
1.575000,-1.830178
1.576000,-1.878546
1.577000,-1.980372
1.578000,-1.952370
1.579000,-1.902730
1.580000,-1.702895
1.581000,-1.634163
1.582000,-1.613797
1.583000,-1.654528
1.584000,-1.546337
1.585000,-1.458512
1.586000,-1.445784
1.587000,-1.436874
1.588000,-1.427964
1.589000,-1.308318
1.590000,-0.962108
1.591000,-0.931561
1.592000,-1.044842
1.593000,-1.159397
1.594000,-1.000293
1.595000,-0.836098
1.596000,-0.567531
1.597000,-0.603170
1.598000,-0.825916
1.599000,-1.118667
1.600000,-1.378324
1.601000,-1.650709
1.602000,-1.879819
1.603000,-2.051651
1.604000,-2.178934
1.605000,-2.349493
1.606000,-2.335492
1.607000,-2.144567
1.608000,-2.092381
1.609000,-1.817450
1.610000,-1.562884
1.611000,-1.398689
1.612000,-1.385961
1.613000,-1.405053
1.614000,-1.419054
1.615000,-1.458512
1.616000,-1.522154
1.617000,-1.476332
1.618000,-1.482696
1.619000,-1.559066
1.620000,-1.650709
1.621000,-1.520881
1.622000,-1.411417
1.623000,-1.298136
1.624000,-1.172125
1.625000,-1.216674
1.626000,-1.280316
1.627000,-1.214129
1.628000,-1.179762
1.629000,-1.240858
1.630000,-1.314682
1.631000,-1.413963
1.632000,-1.508152
1.633000,-1.531063
1.634000,-1.480150
1.635000,-1.522154
1.636000,-1.659619
1.637000,-1.678712
1.638000,-1.579431
1.639000,-1.497970
1.640000,-1.475059
1.641000,-1.473786
1.642000,-1.411417
1.643000,-1.378324
1.644000,-1.286680
1.645000,-1.137759
1.646000,-1.089391
1.647000,-1.000293
1.648000,-0.873010
1.649000,-1.085573
1.650000,-1.407599
1.651000,-1.657074
1.652000,-1.674893
1.653000,-1.613797
1.654000,-1.718169
1.655000,-1.734716
1.656000,-1.779265
1.657000,-1.646891
1.658000,-1.501788
1.659000,-1.471240
1.660000,-1.196309
1.661000,-1.141577
1.662000,-1.226857
1.663000,-1.384688
1.664000,-1.564157
1.665000,-1.839088
1.666000,-1.954916
1.667000,-2.047832
1.668000,-1.919277
1.669000,-1.783084
1.670000,-1.929459
1.671000,-1.958734
1.672000,-1.847998
1.673000,-1.868363
1.674000,-1.905275
1.675000,-1.836543
1.676000,-1.601069
1.677000,-1.466149
1.678000,-1.545065
1.679000,-1.487787
1.680000,-1.539973
1.681000,-1.615070
1.682000,-1.447057
1.683000,-1.275225
1.684000,-1.289226
1.685000,-1.369414
1.686000,-1.503061
1.687000,-1.508152
1.688000,-1.424146
1.689000,-1.509425
1.690000,-1.682530
1.691000,-1.705441
1.692000,-1.654528
1.693000,-1.693986
1.694000,-1.480150
1.695000,-1.287953
1.696000,-1.267588
1.697000,-1.221766
1.698000,-1.173398
1.699000,-1.233221
1.700000,-1.307045
1.701000,-1.439420
1.702000,-1.637981
1.703000,-1.725806
1.704000,-1.664711
1.705000,-1.585795
1.706000,-1.504334
1.707000,-1.458512
1.708000,-1.364323
1.709000,-1.445784
1.710000,-1.459785
1.711000,-1.403780
1.712000,-1.391052
1.713000,-1.393598
1.714000,-1.357959
1.715000,-1.379597
1.716000,-1.439420
1.717000,-1.366868
1.718000,-1.239585
1.719000,-1.259951
1.720000,-1.291771
1.721000,-1.349049
1.722000,-1.406326
1.723000,-1.444511
1.724000,-1.513244
1.725000,-1.499243
1.726000,-1.337593
1.727000,-1.251041
1.728000,-1.399962
1.729000,-1.599796
1.730000,-1.618889
1.731000,-1.701623
1.732000,-1.842907
1.733000,-1.860726
1.734000,-1.766537
1.735000,-1.746172
1.736000,-1.617616
1.737000,-1.491606
1.738000,-1.513244
1.739000,-1.601069
1.740000,-1.543792
1.741000,-1.406326
1.742000,-1.396143
1.743000,-1.413963
1.744000,-1.416509
1.745000,-1.398689
1.746000,-1.454694
1.747000,-1.514517
1.748000,-1.518335
1.749000,-1.495424
1.750000,-1.182308
1.751000,0.020516
1.752000,0.328541
1.753000,-0.001122
1.754000,-0.540802
1.755000,-1.013022
1.756000,-1.455966
1.757000,-1.742353
1.758000,-1.939642
1.759000,-1.968917
1.760000,-2.191662
1.761000,-2.444955
1.762000,-2.913357
1.763000,-2.606605
1.764000,-2.240030
1.765000,-2.003283
1.766000,-1.663438
1.767000,-1.578158
1.768000,-1.648164
1.769000,-1.420327
1.770000,-0.875556
1.771000,-0.957017
1.772000,-1.356686
1.773000,-1.692713
1.774000,-1.769083
1.775000,-1.841634
1.776000,-1.846725
1.777000,-1.948552
1.778000,-2.072016
1.779000,-2.206936
1.780000,-2.293489
1.781000,-1.900184
1.782000,-1.511971
1.783000,-1.048661
1.784000,-1.046115
1.785000,-0.887011
1.786000,-1.034660
1.787000,-1.203946
1.788000,-1.361777
1.789000,-1.481423
1.790000,-1.713078
1.791000,-1.939642
1.792000,-1.924368
1.793000,-2.014739
1.794000,-2.013466
1.795000,-1.863272
1.796000,-1.847998
1.797000,-1.599796
1.798000,-1.384688
1.799000,-1.336320
1.800000,-1.280316
1.801000,-1.310864
1.802000,-1.392325
1.803000,-1.333775
1.804000,-1.228130
1.805000,-1.178490
1.806000,-1.245950
1.807000,-1.327411
1.808000,-1.245950
1.809000,-1.319774
1.810000,-1.289226
1.811000,-1.300681
1.812000,-1.277770
1.813000,-1.296863
1.814000,-1.401235
1.815000,-1.443238
1.816000,-1.360504
1.817000,-1.252314
1.818000,-1.281589
1.819000,-1.309591
1.820000,-1.323592
1.821000,-1.333775
1.822000,-1.318501
1.823000,-1.444511
1.824000,-1.541246
1.825000,-1.514517
1.826000,-1.473786
1.827000,-1.631617
1.828000,-1.724534
1.829000,-1.742353
1.830000,-1.752536
1.831000,-1.763991
1.832000,-1.822541
1.833000,-1.766537
1.834000,-1.725806
1.835000,-1.643072
1.836000,-1.494151
1.837000,-1.369414
1.838000,-1.193763
1.839000,-1.158124
1.840000,-1.262496
1.841000,-1.360504
1.842000,-1.219220
1.843000,-1.178490
1.844000,-1.080482
1.845000,-1.020659
1.846000,-1.089391
1.847000,-1.249768
1.848000,-1.434328
1.849000,-1.629071
1.850000,-1.785629
1.851000,-1.769083
1.852000,-1.909094
1.853000,-1.942188
1.854000,-1.849271
1.855000,-1.551429
1.856000,-1.566703
1.857000,-1.669802
1.858000,-1.537428
1.859000,-1.365596
1.860000,-1.317228
1.861000,-0.873010
1.862000,-0.671903
1.863000,-0.712634
1.864000,-1.000293
1.865000,-1.191218
1.866000,-1.196309
1.867000,-1.088119
1.868000,-0.927742
1.869000,-1.165761
1.870000,-1.458512
1.871000,-1.751263
1.872000,-1.858181
1.873000,-2.176388
1.874000,-2.276942
1.875000,-2.404225
1.876000,-2.112747
1.877000,-2.031286
1.878000,-2.145840
1.879000,-2.214573
1.880000,-2.107655
1.881000,-2.028740
1.882000,-1.966371
1.883000,-1.897638
1.884000,-1.743626
1.885000,-1.504334
1.886000,-1.254859
1.887000,-0.978655
1.888000,-0.834825
1.889000,-0.778821
1.890000,-0.953199
1.891000,-1.069026
1.892000,-1.291771
1.893000,-1.478877
1.894000,-1.640527
1.895000,-1.716897
1.896000,-1.777992
1.897000,-1.929459
1.898000,-1.742353
1.899000,-1.695259
1.900000,-1.823814
1.901000,-1.700350
1.902000,-1.431783
1.903000,-1.352867
1.904000,-1.318501
1.905000,-1.393598
1.906000,-1.514517
1.907000,-1.567976
1.908000,-1.517062
1.909000,-1.508152
1.910000,-1.567976
1.911000,-1.542519
1.912000,-1.490333
1.913000,-1.545065
1.914000,-1.587068
1.915000,-1.569248
1.916000,-1.485242
1.917000,-1.457239
1.918000,-1.406326
1.919000,-1.266315
1.920000,-1.225584
1.921000,-1.094483
1.922000,-0.957017
1.923000,-1.049934
1.924000,-1.126303
1.925000,-1.253586
1.926000,-1.349049
1.927000,-1.427964
1.928000,-1.487787
1.929000,-1.570521
1.930000,-1.713078
1.931000,-1.559066
1.932000,-1.472513
1.933000,-1.463603
1.934000,-1.439420
1.935000,-1.503061
1.936000,-1.660892
1.937000,-1.711805
1.938000,-1.645618
1.939000,-1.562884
1.940000,-1.392325
1.941000,-1.284134
1.942000,-1.268860
1.943000,-1.336320
1.944000,-1.294317
1.945000,-1.192491
1.946000,-0.895921
1.947000,-0.848827
1.948000,-0.783912
1.949000,-0.629900
1.950000,-0.687177
1.951000,-0.925196
1.952000,-1.531063
1.953000,-1.972735
1.954000,-1.943460
1.955000,-2.055469
1.956000,-2.343129
1.957000,-2.450047
1.958000,-2.476776
1.959000,-2.374950
1.960000,-2.181480
1.961000,-2.125475
1.962000,-1.949824
1.963000,-1.571794
1.964000,-1.443238
1.965000,-1.366868
1.966000,-1.189945
1.967000,-0.879374
1.968000,-0.875556
1.969000,-1.057571
1.970000,-1.187399
1.971000,-1.317228
1.972000,-1.527245
1.973000,-1.851817
1.974000,-1.861999
1.975000,-1.942188
1.976000,-2.190389
1.977000,-2.078380
1.978000,-1.845452
1.979000,-1.760173
1.980000,-1.840361
1.981000,-1.951097
1.982000,-1.933278
1.983000,-1.794539
1.984000,-1.587068
1.985000,-1.528518
1.986000,-1.444511
1.987000,-1.331229
1.988000,-1.228130
1.989000,-1.186127
1.990000,-1.243404
1.991000,-1.307045
1.992000,-1.352867
1.993000,-1.324865
1.994000,-1.394871
1.995000,-1.552702
1.996000,-1.472513
1.997000,-1.380869
1.998000,-1.415236
1.999000,-1.366868
2.000000,-1.426691
2.001000,-1.435601
2.002000,-1.391052
2.003000,-1.380869
2.004000,-1.345230
2.005000,-1.368141
2.006000,-1.405053
2.007000,-1.403780
2.008000,-1.384688
2.009000,-1.374505
2.010000,-1.363050
2.011000,-1.405053
2.012000,-1.441965
2.013000,-1.373233
2.014000,-1.313410
2.015000,-1.156851
2.016000,-1.188672
2.017000,-1.224311
2.018000,-1.192491
2.019000,-1.181035
2.020000,-1.048661
2.021000,-0.622263
2.022000,-0.538256
2.023000,-0.852645
2.024000,-1.280316
2.025000,-1.589614
2.026000,-1.823814
2.027000,-1.877273
2.028000,-2.063106
2.029000,-2.243848
2.030000,-2.292216
2.031000,-2.434773
2.032000,-2.383860
2.033000,-2.350766
2.034000,-1.977827
2.035000,-1.445784
2.036000,-1.135213
2.037000,-1.139032
2.038000,-1.028296
2.039000,-1.201400
2.040000,-1.463603
2.041000,-1.742353
2.042000,-1.948552
2.043000,-2.023649
2.044000,-1.977827
2.045000,-2.027467
2.046000,-2.004556
2.047000,-1.989282
2.048000,-1.939642
2.049000,-1.878546
2.050000,-1.715624
2.051000,-1.427964
2.052000,-1.368141
2.053000,-1.415236
2.054000,-1.433056
2.055000,-1.519608
2.056000,-1.461058
2.057000,-1.427964
2.058000,-1.350322
2.059000,-1.259951
2.060000,-1.235767
2.061000,-1.245950
2.062000,-1.328683
2.063000,-1.224311
2.064000,-1.133940
2.065000,-1.154306
2.066000,-1.235767
2.067000,-1.315955
2.068000,-1.313410
2.069000,-1.397416
2.070000,-1.524699
2.071000,-1.447057
2.072000,-1.331229
2.073000,-1.319774
2.074000,-1.347776
2.075000,-1.354140
2.076000,-1.412690
2.077000,-1.594705
2.078000,-1.651982
2.079000,-1.603615
2.080000,-1.595978
2.081000,-1.630344
2.082000,-1.594705
2.083000,-1.539973
2.084000,-1.525972
2.085000,-1.384688
2.086000,-1.286680
2.087000,-1.317228
2.088000,-1.370687
2.089000,-1.378324
2.090000,-1.466149
2.091000,-1.449602
2.092000,-1.499243
2.093000,-1.664711
2.094000,-1.663438
2.095000,-1.632890
2.096000,-1.396143
2.097000,-1.161943
2.098000,-1.048661
2.099000,-1.063935
2.100000,-1.058844
2.101000,-1.207765
2.102000,-1.383415
2.103000,-1.528518
2.104000,-1.678712
2.105000,-1.672348
2.106000,-1.481423
2.107000,-1.545065
2.108000,-1.359231
2.109000,-1.346503
2.110000,-1.262496
2.111000,-1.459785
2.112000,-1.399962
2.113000,-1.388506
2.114000,-1.481423
2.115000,-1.645618
2.116000,-1.905275
2.117000,-2.242575
2.118000,-2.313854
2.119000,-2.288397
2.120000,-2.044014
2.121000,-1.904003
2.122000,-1.508152
2.123000,-1.163216
2.124000,-1.160670
2.125000,-1.005385
2.126000,-1.005385
2.127000,-1.127576
2.128000,-1.212856
2.129000,-1.272679
2.130000,-1.323592
2.131000,-1.523426
2.132000,-1.713078
2.133000,-2.003283
2.134000,-2.144567
2.135000,-2.237484
2.136000,-2.321491
2.137000,-2.391497
2.138000,-2.344402
2.139000,-2.078380
2.140000,-1.895093
2.141000,-1.728352
2.142000,-1.603615
2.143000,-1.495424
2.144000,-1.382142
2.145000,-1.295590
2.146000,-1.224311
2.147000,-1.178490
2.148000,-1.178490
2.149000,-1.206492
2.150000,-1.179762
2.151000,-1.105938
2.152000,-1.063935
2.153000,-1.058844
2.154000,-1.091937
2.155000,-1.170853
2.156000,-1.328683
2.157000,-1.408872
2.158000,-1.360504
2.159000,-1.209037
2.160000,-1.197582
2.161000,-1.234494
2.162000,-1.369414
2.163000,-1.356686
2.164000,-1.354140
2.165000,-1.412690
2.166000,-1.515789
2.167000,-1.532336
2.168000,-1.671075
2.169000,-1.798358
2.170000,-1.946006
2.171000,-1.988009
2.172000,-1.923095
2.173000,-1.733443
2.174000,-1.677439
2.175000,-1.528518
2.176000,-1.543792
2.177000,-1.510698
2.178000,-1.541246
2.179000,-1.560339
2.180000,-1.466149
2.181000,-1.319774
2.182000,-1.234494
2.183000,-1.168307
2.184000,-1.113575
2.185000,-1.023204
2.186000,-1.065208
2.187000,-1.165761
2.188000,-1.286680
2.189000,-1.417782
2.190000,-1.504334
2.191000,-1.402508
2.192000,-0.927742
2.193000,-1.080482
2.194000,-1.103393
2.195000,-1.290499
2.196000,-1.687622
2.197000,-1.859454
2.198000,-1.864545
2.199000,-1.727079
2.200000,-1.463603
2.201000,-1.360504
2.202000,-1.056298
2.203000,-1.139032
2.204000,-1.365596
2.205000,-1.590886
2.206000,-1.797085
2.207000,-1.758900
2.208000,-1.853089
2.209000,-1.825087
2.210000,-1.861999
2.211000,-1.928186
2.212000,-1.867091
2.213000,-2.097473
2.214000,-2.052924
2.215000,-1.893820
2.216000,-1.836543
2.217000,-1.823814
2.218000,-2.026194
2.219000,-2.195481
2.220000,-2.073289
2.221000,-1.811086
2.222000,-1.603615
2.223000,-1.543792
2.224000,-1.487787
2.225000,-1.354140
2.226000,-1.379597
2.227000,-1.402508
2.228000,-1.394871
2.229000,-1.322319
2.230000,-1.317228
2.231000,-1.285407
2.232000,-1.305773
2.233000,-1.365596
2.234000,-1.284134
2.235000,-1.377051
2.236000,-1.469968
2.237000,-1.422873
2.238000,-1.441965
2.239000,-1.360504
2.240000,-1.273952
2.241000,-1.279043
2.242000,-1.327411
2.243000,-1.312137
2.244000,-1.179762
2.245000,-0.936652
2.246000,-0.866646
2.247000,-0.873010
2.248000,-1.055025
2.249000,-1.385961
2.250000,-1.609979
2.251000,-1.634163
2.252000,-1.635435
2.253000,-1.730898
2.254000,-1.746172
2.255000,-1.860726
2.256000,-1.968917
2.257000,-1.976554
2.258000,-2.002011
2.259000,-1.887456
2.260000,-1.528518
2.261000,-1.234494
2.262000,-0.948107
2.263000,-0.927742
2.264000,-1.033387
2.265000,-1.086846
2.266000,-0.955744
2.267000,-0.838644
2.268000,-0.940470
2.269000,-1.020659
2.270000,-1.357959
2.271000,-1.655801
2.272000,-1.817450
2.273000,-2.124202
2.274000,-2.330401
2.275000,-2.287124
2.276000,-2.254031
2.277000,-2.292216
2.278000,-2.026194
2.279000,-1.832724
2.280000,-1.814905
2.281000,-1.812359
2.282000,-1.672348
2.283000,-1.560339
2.284000,-1.555247
2.285000,-1.429237
2.286000,-1.147942
2.287000,-1.004112
2.288000,-1.009203
2.289000,-1.196309
2.290000,-1.281589
2.291000,-1.392325
2.292000,-1.347776
2.293000,-1.336320
2.294000,-1.318501
2.295000,-1.257405
2.296000,-1.231948
2.297000,-1.366868
2.298000,-1.399962
2.299000,-1.426691
2.300000,-1.415236
2.301000,-1.528518
2.302000,-1.676166
2.303000,-1.767810
2.304000,-1.776720
2.305000,-1.685076
2.306000,-1.573067
2.307000,-1.595978
2.308000,-1.674893
2.309000,-1.551429
2.310000,-1.482696
2.311000,-1.519608
2.312000,-1.503061
2.313000,-1.449602
2.314000,-1.337593
2.315000,-1.217947
2.316000,-1.373233
2.317000,-1.448329
2.318000,-1.401235
2.319000,-1.452148
2.320000,-1.458512
2.321000,-1.438147
2.322000,-1.494151
2.323000,-1.539973
2.324000,-1.570521
2.325000,-1.538700
2.326000,-1.518335
2.327000,-1.513244
2.328000,-1.332502
2.329000,-1.315955
2.330000,-1.345230
2.331000,-1.342685
2.332000,-1.402508
2.333000,-1.440693
2.334000,-1.631617
2.335000,-1.747445
2.336000,-1.707987
2.337000,-1.492879
2.338000,-1.468695
2.339000,-1.450875
2.340000,-1.517062
2.341000,-1.697804
2.342000,-1.738535
2.343000,-1.677439
2.344000,-1.637981
2.345000,-1.570521
2.346000,-1.598523
2.347000,-1.581977
2.348000,-1.649437
2.349000,-1.636708
2.350000,-1.534882
2.351000,-1.588341
2.352000,-1.671075
2.353000,-1.417782
2.354000,-1.192491
2.355000,-1.123758
2.356000,-1.080482
2.357000,-0.847554
2.358000,-0.655356
2.359000,-0.847554
2.360000,-0.949380
2.361000,-1.145396
2.362000,-1.402508
2.363000,-1.621434
2.364000,-1.896366
2.365000,-2.198026
2.366000,-2.032558
2.367000,-1.911640
2.368000,-1.781811
2.369000,-1.693986
2.370000,-1.657074
2.371000,-1.676166
2.372000,-1.830178
2.373000,-1.845452
2.374000,-1.867091
2.375000,-1.812359
2.376000,-1.749990
2.377000,-1.728352
2.378000,-1.622707
2.379000,-1.559066
2.380000,-1.361777
2.381000,-1.350322
2.382000,-1.509425
2.383000,-1.555247
2.384000,-1.490333
2.385000,-1.562884
2.386000,-1.533609
2.387000,-1.492879
2.388000,-1.463603
2.389000,-1.486514
2.390000,-1.503061
2.391000,-1.632890
2.392000,-1.331229
2.393000,-1.209037
2.394000,-1.189945
2.395000,-1.363050
2.396000,-1.537428
2.397000,-1.583249
2.398000,-1.564157
2.399000,-1.519608
2.400000,-1.458512
2.401000,-1.351594
2.402000,-1.412690
2.403000,-1.412690
2.404000,-1.525972
2.405000,-1.573067
2.406000,-1.483969
2.407000,-1.385961
2.408000,-1.284134
2.409000,-1.276497
2.410000,-1.383415
2.411000,-1.584522
2.412000,-1.571794
2.413000,-1.499243
2.414000,-1.491606
2.415000,-1.513244
2.416000,-1.574340
2.417000,-1.557793
2.418000,-1.587068
2.419000,-1.573067
2.420000,-1.495424
2.421000,-1.514517
2.422000,-1.529791
2.423000,-1.538700
2.424000,-1.482696
2.425000,-1.466149
2.426000,-1.452148
2.427000,-1.478877
2.428000,-1.461058
2.429000,-1.421600
2.430000,-1.321046
2.431000,-1.224311
2.432000,-1.231948
2.433000,-1.275225
2.434000,-1.240858
2.435000,-1.216674
2.436000,-1.154306
2.437000,-1.119939
2.438000,-1.098301
2.439000,-1.150487
2.440000,-1.254859
2.441000,-1.534882
2.442000,-1.682530
2.443000,-1.655801
2.444000,-1.677439
2.445000,-1.634163
2.446000,-1.336320
2.447000,-1.212856
2.448000,-1.083027
2.449000,-0.898467
2.450000,-0.646447
2.451000,-0.789004
2.452000,-1.158124
2.453000,-1.730898
2.454000,-2.265486
2.455000,-2.489504
2.456000,-2.788619
2.457000,-3.069915
2.458000,-2.901901
2.459000,-2.839533
2.460000,-2.504778
2.461000,-2.456411
2.462000,-2.329128
2.463000,-2.023649
2.464000,-1.819996
2.465000,-1.699077
2.466000,-1.621434
2.467000,-1.578158
2.468000,-1.505607
2.469000,-1.410145
2.470000,-1.341412
2.471000,-1.327411
2.472000,-1.257405
2.473000,-1.219220
2.474000,-1.183581
2.475000,-1.179762
2.476000,-1.276497
2.477000,-1.254859
2.478000,-1.217947
2.479000,-1.201400
2.480000,-1.192491
2.481000,-1.233221
2.482000,-1.202673
2.483000,-1.161943
2.484000,-1.139032
2.485000,-1.142850
2.486000,-1.151760
2.487000,-1.153033
2.488000,-1.214129
2.489000,-1.277770
2.490000,-1.298136
2.491000,-1.337593
2.492000,-1.366868
2.493000,-1.420327
2.494000,-1.332502
2.495000,-1.289226
2.496000,-1.343957
2.497000,-1.455966
2.498000,-1.553974
2.499000,-1.616343
2.500000,-1.651982
2.501000,-1.629071
2.502000,-1.603615
2.503000,-1.649437
2.504000,-1.609979
2.505000,-1.459785
2.506000,-1.388506
2.507000,-1.221766
2.508000,-1.010476
2.509000,-0.716452
2.510000,-0.684631
2.511000,-0.834825
2.512000,-1.069026
2.513000,-1.184854
2.514000,-1.323592
2.515000,-1.607433
2.516000,-1.926914
2.517000,-1.975281
2.518000,-2.100018
2.519000,-2.327855
2.520000,-2.408043
2.521000,-2.308763
2.522000,-2.143295
2.523000,-1.671075
2.524000,-1.676166
2.525000,-1.760173
2.526000,-1.718169
2.527000,-1.673620
2.528000,-1.580704
2.529000,-1.099574
2.530000,-0.899740
2.531000,-1.048661
2.532000,-1.343957
2.533000,-1.508152
2.534000,-1.627799
2.535000,-1.802176
2.536000,-1.904003
2.537000,-1.928186
2.538000,-1.953643
2.539000,-1.827633
2.540000,-1.833997
2.541000,-1.777992
2.542000,-1.491606
2.543000,-1.248495
2.544000,-1.160670
2.545000,-1.119939
2.546000,-1.102120
2.547000,-1.081754
2.548000,-0.864101
2.549000,-0.895921
2.550000,-1.130122
2.551000,-1.321046
2.552000,-1.438147
2.553000,-1.620162
2.554000,-1.814905
2.555000,-1.861999
2.556000,-1.794539
2.557000,-1.860726
2.558000,-1.957461
2.559000,-1.974008
2.560000,-1.814905
2.561000,-1.723261
2.562000,-1.627799
2.563000,-1.579431
2.564000,-1.529791
2.565000,-1.424146
2.566000,-1.328683
2.567000,-1.319774
2.568000,-1.321046
2.569000,-1.406326
2.570000,-1.462331
2.571000,-1.448329
2.572000,-1.449602
2.573000,-1.393598
2.574000,-1.357959
2.575000,-1.340139
2.576000,-1.401235
2.577000,-1.534882
2.578000,-1.627799
2.579000,-1.620162
2.580000,-1.556520
2.581000,-1.478877
2.582000,-1.537428
2.583000,-1.447057
2.584000,-1.494151
2.585000,-1.471240
2.586000,-1.536155
2.587000,-1.504334
2.588000,-1.398689
2.589000,-1.268860
2.590000,-1.226857
2.591000,-1.305773
2.592000,-1.352867
2.593000,-1.280316
2.594000,-1.215402
2.595000,-1.239585
2.596000,-1.272679
2.597000,-1.275225
2.598000,-1.005385
2.599000,-1.181035
2.600000,-1.574340
2.601000,-2.112747
2.602000,-2.144567
2.603000,-2.078380
2.604000,-2.142022
2.605000,-2.066925
2.606000,-1.932005
2.607000,-1.772901
2.608000,-1.734716
2.609000,-1.669802
2.610000,-1.771628
2.611000,-1.793266
2.612000,-1.462331
2.613000,-1.299408
2.614000,-1.333775
2.615000,-1.327411
2.616000,-1.083027
2.617000,-1.097028
2.618000,-1.270133
2.619000,-1.510698
2.620000,-1.575612
2.621000,-1.571794
2.622000,-1.599796
2.623000,-1.760173
2.624000,-1.849271
2.625000,-1.805995
2.626000,-1.825087
2.627000,-1.739808
2.628000,-1.608706
2.629000,-1.495424
2.630000,-1.575612
2.631000,-1.496697
2.632000,-1.444511
2.633000,-1.463603
2.634000,-1.562884
2.635000,-1.552702
2.636000,-1.519608
2.637000,-1.496697
2.638000,-1.504334
2.639000,-1.545065
2.640000,-1.533609
2.641000,-1.402508
2.642000,-1.341412
2.643000,-1.343957
2.644000,-1.310864
2.645000,-1.189945
2.646000,-1.257405
2.647000,-1.310864
2.648000,-1.335048
2.649000,-1.351594
2.650000,-1.327411
2.651000,-1.303227
2.652000,-1.313410
2.653000,-1.398689
2.654000,-1.557793
2.655000,-1.646891
2.656000,-1.622707
2.657000,-1.506880
2.658000,-1.410145
2.659000,-1.377051
2.660000,-1.397416
2.661000,-1.567976
2.662000,-1.585795
2.663000,-1.411417
2.664000,-1.458512
2.665000,-1.452148
2.666000,-1.519608
2.667000,-1.524699
2.668000,-1.581977
2.669000,-1.692713
2.670000,-1.681257
2.671000,-1.631617
2.672000,-1.673620
2.673000,-1.667256
2.674000,-1.548883
2.675000,-1.508152
2.676000,-1.429237
2.677000,-1.403780
2.678000,-1.244677
2.679000,-1.149214
2.680000,-1.173398
2.681000,-1.285407
2.682000,-1.284134
2.683000,-1.275225
2.684000,-1.035933
2.685000,-0.979928
2.686000,-1.261223
2.687000,-1.525972
2.688000,-1.839088
2.689000,-2.190389
2.690000,-2.214573
2.691000,-2.241303
2.692000,-2.288397
2.693000,-2.170024
2.694000,-1.918004
2.695000,-1.613797
2.696000,-1.467422
2.697000,-1.461058
2.698000,-1.430510
2.699000,-1.380869
2.700000,-1.440693
2.701000,-1.482696
2.702000,-1.564157
2.703000,-1.473786
2.704000,-1.177217
2.705000,-1.000293
2.706000,-1.111030
2.707000,-1.221766
2.708000,-1.377051
2.709000,-1.513244
2.710000,-1.757627
2.711000,-1.733443
2.712000,-1.644345
2.713000,-1.649437
2.714000,-1.567976
2.715000,-1.475059
2.716000,-1.397416
2.717000,-1.443238
2.718000,-1.327411
2.719000,-1.329956
2.720000,-1.471240
2.721000,-1.467422
2.722000,-1.430510
2.723000,-1.448329
2.724000,-1.436874
2.725000,-1.548883
2.726000,-1.632890
2.727000,-1.569248
2.728000,-1.476332
2.729000,-1.352867
2.730000,-1.361777
2.731000,-1.411417
2.732000,-1.371960
2.733000,-1.413963
2.734000,-1.407599
2.735000,-1.388506
2.736000,-1.523426
2.737000,-1.607433
2.738000,-1.585795
2.739000,-1.676166
2.740000,-1.665983
2.741000,-1.548883
2.742000,-1.500516
2.743000,-1.301954
2.744000,-1.161943
2.745000,-1.117394
2.746000,-1.145396
2.747000,-0.997748
2.748000,-0.722816
2.749000,-0.762274
2.750000,-0.916287
2.751000,-1.244677
2.752000,-1.511971
2.753000,-1.741080
2.754000,-1.853089
2.755000,-1.914185
2.756000,-2.033831
2.757000,-2.124202
2.758000,-2.443683
2.759000,-2.355857
2.760000,-2.026194
2.761000,-1.758900
2.762000,-1.408872
2.763000,-1.220493
2.764000,-1.160670
2.765000,-1.188672
2.766000,-1.383415
2.767000,-1.706714
2.768000,-1.780538
2.769000,-1.704168
2.770000,-1.671075
2.771000,-1.579431
2.772000,-1.585795
2.773000,-1.550156
2.774000,-1.177217
2.775000,-0.992656
2.776000,-0.710088
2.777000,-0.542075
2.778000,-0.720271
2.779000,-1.028296
2.780000,-1.426691
2.781000,-1.757627
2.782000,-1.985464
2.783000,-2.279487
2.784000,-2.345675
2.785000,-2.214573
2.786000,-2.126748
2.787000,-1.975281
2.788000,-1.855635
2.789000,-1.873455
2.790000,-1.678712
2.791000,-1.513244
2.792000,-1.471240
2.793000,-1.417782
2.794000,-1.369414
2.795000,-1.396143
2.796000,-1.378324
2.797000,-1.305773
2.798000,-1.205219
2.799000,-1.229403
2.800000,-1.298136
2.801000,-1.312137
2.802000,-1.247222
2.803000,-1.304500
2.804000,-1.389779
2.805000,-1.345230
2.806000,-1.324865
2.807000,-1.364323
2.808000,-1.328683
2.809000,-1.275225
2.810000,-1.161943
2.811000,-1.102120
2.812000,-1.182308
2.813000,-1.266315
2.814000,-0.878102
2.815000,-0.741909
2.816000,-0.894648
2.817000,-1.164488
2.818000,-1.489060
2.819000,-1.766537
2.820000,-2.082199
2.821000,-2.306217
2.822000,-2.315127
2.823000,-2.237484
2.824000,-2.158569
2.825000,-2.021103
2.826000,-1.946006
2.827000,-1.960007
2.828000,-1.912912
2.829000,-1.713078
2.830000,-1.528518
2.831000,-1.394871
2.832000,-1.328683
2.833000,-1.354140
2.834000,-1.333775
2.835000,-1.244677
2.836000,-1.172125
2.837000,-1.088119
2.838000,-1.108484
2.839000,-1.223039
2.840000,-1.307045
2.841000,-1.350322
2.842000,-1.308318
2.843000,-1.365596
2.844000,-1.378324
2.845000,-1.435601
2.846000,-1.599796
2.847000,-1.590886
2.848000,-1.653255
2.849000,-1.565430
2.850000,-1.531063
2.851000,-1.599796
2.852000,-1.612525
2.853000,-1.662165
2.854000,-1.611252
2.855000,-1.454694
2.856000,-1.458512
2.857000,-1.453421
2.858000,-1.471240
2.859000,-0.916287
2.860000,-0.655356
2.861000,-0.356241
2.862000,0.337451
2.863000,0.238170
2.864000,-0.287509
2.865000,-1.057571
2.866000,-1.603615
2.867000,-2.098746
2.868000,-2.427136
2.869000,-2.568420
2.870000,-2.732615
2.871000,-2.877718
2.872000,-2.978271
2.873000,-2.825532
2.874000,-2.810258
2.875000,-2.465321
2.876000,-1.934551
2.877000,-1.685076
2.878000,-1.571794
2.879000,-1.459785
2.880000,-1.519608
2.881000,-1.518335
2.882000,-1.520881
2.883000,-1.523426
2.884000,-1.539973
2.885000,-1.555247
2.886000,-1.485242
2.887000,-1.434328
2.888000,-1.346503
2.889000,-1.240858
2.890000,-1.244677
2.891000,-1.272679
2.892000,-1.380869
2.893000,-1.363050
2.894000,-1.309591
2.895000,-1.293044
2.896000,-1.265042
2.897000,-1.217947
2.898000,-1.216674
2.899000,-1.160670
2.900000,-1.123758
2.901000,-1.172125
2.902000,-1.273952
2.903000,-1.321046
2.904000,-1.322319
2.905000,-1.357959
2.906000,-1.467422
2.907000,-1.485242
2.908000,-1.556520
2.909000,-1.604888
2.910000,-1.505607
2.911000,-1.500516
2.912000,-1.555247
2.913000,-1.576885
2.914000,-1.636708
2.915000,-1.617616
2.916000,-1.560339
2.917000,-1.522154
2.918000,-1.500516
2.919000,-1.458512
2.920000,-1.468695
2.921000,-1.477605
2.922000,-1.489060
2.923000,-1.494151
2.924000,-1.455966
2.925000,-1.448329
2.926000,-1.478877
2.927000,-1.454694
2.928000,-1.439420
2.929000,-1.458512
2.930000,-1.453421
2.931000,-1.439420
2.932000,-1.441965
2.933000,-1.448329
2.934000,-1.407599
2.935000,-1.410145
2.936000,-1.499243
2.937000,-1.475059
2.938000,-1.485242
2.939000,-1.510698
2.940000,-1.468695
2.941000,-1.393598
2.942000,-1.308318
2.943000,-1.346503
2.944000,-1.366868
2.945000,-1.475059
2.946000,-1.542519
2.947000,-1.539973
2.948000,-1.524699
2.949000,-1.473786
2.950000,-1.463603
2.951000,-1.496697
2.952000,-1.621434
2.953000,-1.621434
2.954000,-1.753809
2.955000,-1.859454
2.956000,-1.739808
2.957000,-1.478877
2.958000,-1.200128
2.959000,-0.950653
2.960000,-0.684631
2.961000,-0.776275
2.962000,-0.988838
2.963000,-1.240858
2.964000,-1.592159
2.965000,-1.863272
2.966000,-1.965098
2.967000,-1.895093
2.968000,-1.870909
2.969000,-2.036377
2.970000,-2.121657
2.971000,-2.156023
2.972000,-1.938369
2.973000,-1.322319
2.974000,-0.907377
2.975000,-0.862828
2.976000,-1.042297
2.977000,-1.429237
2.978000,-1.567976
2.979000,-1.641800
2.980000,-1.593432
2.981000,-1.528518
2.982000,-1.685076
2.983000,-1.837815
2.984000,-2.157296
2.985000,-2.339310
2.986000,-2.223483
2.987000,-1.870909
2.988000,-1.665983
2.989000,-1.692713
2.990000,-1.818723
2.991000,-1.743626
2.992000,-1.583249
2.993000,-1.509425
2.994000,-1.476332
2.995000,-1.459785
2.996000,-1.419054
2.997000,-1.420327
2.998000,-1.394871
2.999000,-1.356686
3.000000,-1.340139
3.001000,-1.338866
3.002000,-1.384688
3.003000,-1.399962
3.004000,-1.397416
3.005000,-1.341412
3.006000,-1.321046
3.007000,-1.217947
3.008000,-1.167034
3.009000,-1.193763
3.010000,-1.263769
3.011000,-1.279043
3.012000,-1.308318
3.013000,-1.317228
3.014000,-1.263769
3.015000,-1.254859
3.016000,-1.346503
3.017000,-1.459785
3.018000,-1.575612
3.019000,-1.559066
3.020000,-1.486514
3.021000,-1.396143
3.022000,-1.366868
3.023000,-1.379597
3.024000,-1.343957
3.025000,-1.209037
3.026000,-1.121212
3.027000,-1.062662
3.028000,-1.153033
3.029000,-1.224311
3.030000,-1.280316
3.031000,-1.449602
3.032000,-1.648164
3.033000,-1.635435
3.034000,-1.546337
3.035000,-1.531063
3.036000,-1.576885
3.037000,-1.732171
3.038000,-1.886183
3.039000,-1.849271
3.040000,-1.865818
3.041000,-1.707987
3.042000,-1.323592
3.043000,-0.940470
3.044000,-0.996475
3.045000,-1.043570
3.046000,-1.019386
3.047000,-1.220493
3.048000,-1.193763
3.049000,-1.252314
3.050000,-1.364323
3.051000,-1.497970
3.052000,-1.934551
3.053000,-2.395315
3.054000,-2.385132
3.055000,-2.303671
3.056000,-2.147113
3.057000,-1.956189
3.058000,-2.102564
3.059000,-1.886183
3.060000,-1.744899
3.061000,-1.881092
3.062000,-1.919277
3.063000,-1.761446
3.064000,-1.697804
3.065000,-1.728352
3.066000,-1.861999
3.067000,-1.777992
3.068000,-1.592159
3.069000,-1.439420
3.070000,-1.346503
3.071000,-1.336320
3.072000,-1.270133
3.073000,-1.203946
3.074000,-1.249768
3.075000,-1.286680
3.076000,-1.326138
3.077000,-1.380869
3.078000,-1.396143
3.079000,-1.318501
3.080000,-1.403780
3.081000,-1.419054
3.082000,-1.394871
3.083000,-1.399962
3.084000,-1.357959
3.085000,-1.298136
3.086000,-1.366868
3.087000,-1.359231
3.088000,-1.369414
3.089000,-1.394871
3.090000,-1.443238
3.091000,-1.550156
3.092000,-1.481423
3.093000,-1.406326
3.094000,-1.410145
3.095000,-1.449602
3.096000,-1.426691
3.097000,-1.332502
3.098000,-1.327411
3.099000,-1.308318
3.100000,-1.337593
3.101000,-1.364323
3.102000,-1.431783
3.103000,-1.545065
3.104000,-1.567976
3.105000,-1.543792
3.106000,-1.515789
3.107000,-1.466149
3.108000,-1.459785
3.109000,-1.361777
3.110000,-1.156851
3.111000,-1.046115
3.112000,-0.976110
3.113000,-1.099574
3.114000,-1.205219
3.115000,-1.094483
3.116000,-1.259951
3.117000,-1.164488
3.118000,-1.262496
3.119000,-1.272679
3.120000,-1.357959
3.121000,-1.711805
3.122000,-1.974008
3.123000,-2.105110
3.124000,-1.860726
3.125000,-1.784357
3.126000,-1.713078
3.127000,-1.819996
3.128000,-1.650709
3.129000,-1.760173
3.130000,-1.588341
3.131000,-1.654528
3.132000,-1.495424
3.133000,-1.466149
3.134000,-1.550156
3.135000,-1.783084
3.136000,-1.895093
3.137000,-2.016012
3.138000,-2.191662
3.139000,-2.297307
3.140000,-2.241303
3.141000,-2.162387
3.142000,-1.968917
3.143000,-1.789448
3.144000,-1.651982
3.145000,-1.587068
3.146000,-1.543792
3.147000,-1.420327
3.148000,-1.371960
3.149000,-1.352867
3.150000,-1.273952
3.151000,-1.193763
3.152000,-1.128849
3.153000,-1.154306
3.154000,-1.175944
3.155000,-1.179762
3.156000,-1.231948
3.157000,-1.271406
3.158000,-1.329956
3.159000,-1.287953
3.160000,-1.097028
3.161000,-1.123758
3.162000,-1.077936
3.163000,-0.883193
3.164000,-0.633718
3.165000,-0.598079
3.166000,-0.706270
3.167000,-0.922651
3.168000,-1.178490
3.169000,-1.513244
3.170000,-1.783084
3.171000,-2.044014
3.172000,-2.245121
3.173000,-2.172570
3.174000,-2.190389
3.175000,-2.446228
3.176000,-2.289670
3.177000,-2.128021
3.178000,-2.093654
3.179000,-1.910367
3.180000,-1.687622
3.181000,-1.569248
3.182000,-1.527245
3.183000,-1.515789
3.184000,-1.513244
3.185000,-1.382142
3.186000,-1.267588
3.187000,-0.992656
3.188000,-0.516618
3.189000,-0.472069
3.190000,-0.701178
3.191000,-0.982474
3.192000,-1.196309
3.193000,-1.321046
3.194000,-1.458512
3.195000,-1.629071
3.196000,-1.713078
3.197000,-1.887456
3.198000,-2.017284
3.199000,-1.982918
3.200000,-1.958734
3.201000,-1.822541
3.202000,-1.738535
3.203000,-1.686349
3.204000,-1.798358
3.205000,-1.755082
3.206000,-1.495424
3.207000,-1.253586
3.208000,-1.196309
3.209000,-1.173398
3.210000,-1.169580
3.211000,-1.317228
3.212000,-1.426691
3.213000,-1.551429
3.214000,-1.567976
3.215000,-1.525972
3.216000,-1.546337
3.217000,-1.448329
3.218000,-1.398689
3.219000,-1.453421
3.220000,-1.458512
3.221000,-1.475059
3.222000,-1.464876
3.223000,-1.397416
3.224000,-1.427964
3.225000,-1.518335
3.226000,-1.565430
3.227000,-1.623980
3.228000,-1.534882
3.229000,-1.468695
3.230000,-1.477605
3.231000,-1.528518
3.232000,-1.505607
3.233000,-1.464876
3.234000,-1.475059
3.235000,-1.458512
3.236000,-1.472513
3.237000,-1.524699
3.238000,-1.519608
3.239000,-1.443238
3.240000,-1.416509
3.241000,-1.335048
3.242000,-1.271406
3.243000,-1.343957
3.244000,-1.394871
3.245000,-1.394871
3.246000,-1.125031
3.247000,-0.809369
3.248000,-0.614626
3.249000,-0.568804
3.250000,-0.515345
3.251000,-0.526801
3.252000,-0.222594
3.253000,-0.525528
3.254000,-1.023204
3.255000,-1.668529
3.256000,-1.988009
3.257000,-2.419499
3.258000,-2.847170
3.259000,-2.903174
3.260000,-2.835714
3.261000,-2.993545
3.262000,-3.165377
3.263000,-2.917175
3.264000,-2.629516
3.265000,-2.224756
3.266000,-2.003283
3.267000,-1.988009
3.268000,-1.879819
3.269000,-1.791994
3.270000,-1.725806
3.271000,-1.580704
3.272000,-1.527245
3.273000,-1.497970
3.274000,-1.369414
3.275000,-1.310864
3.276000,-1.262496
3.277000,-1.186127
3.278000,-1.170853
3.279000,-1.164488
3.280000,-1.158124
3.281000,-1.160670
3.282000,-1.178490
3.283000,-1.198855
3.284000,-1.178490
3.285000,-1.144123
3.286000,-1.195036
3.287000,-1.280316
3.288000,-1.254859
3.289000,-1.196309
3.290000,-1.209037
3.291000,-1.183581
3.292000,-1.135213
3.293000,-1.028296
3.294000,-0.814460
3.295000,-0.804278
3.296000,-0.828461
3.297000,-0.839917
3.298000,-0.909922
3.299000,-1.014294
3.300000,-1.203946
3.301000,-1.534882
3.302000,-1.821269
3.303000,-1.990555
3.304000,-1.896366
3.305000,-1.830178
3.306000,-1.925641
3.307000,-2.107655
3.308000,-2.208209
3.309000,-2.108928
3.310000,-2.084744
3.311000,-1.986737
3.312000,-1.811086
3.313000,-1.805995
3.314000,-1.795812
3.315000,-1.840361
3.316000,-1.901457
3.317000,-1.853089
3.318000,-1.658346
3.319000,-1.578158
3.320000,-1.519608
3.321000,-1.447057
3.322000,-1.388506
3.323000,-1.374505
3.324000,-1.368141
3.325000,-1.356686
3.326000,-1.317228
3.327000,-1.294317
3.328000,-1.242131
3.329000,-1.201400
3.330000,-1.207765
3.331000,-1.261223
3.332000,-1.286680
3.333000,-1.272679
3.334000,-1.228130
3.335000,-1.317228
3.336000,-1.356686
3.337000,-1.314682
3.338000,-1.234494
3.339000,-1.209037
3.340000,-0.990111
3.341000,-1.051207
3.342000,-1.191218
3.343000,-1.417782
3.344000,-1.486514
3.345000,-1.662165
3.346000,-1.748717
3.347000,-1.657074
3.348000,-1.590886
3.349000,-1.357959
3.350000,-1.165761
3.351000,-1.093210
3.352000,-1.161943
3.353000,-1.277770
3.354000,-1.364323
3.355000,-1.677439
3.356000,-1.797085
3.357000,-1.877273
3.358000,-1.799631
3.359000,-1.776720
3.360000,-1.923095
3.361000,-2.028740
3.362000,-1.921822
3.363000,-1.957461
3.364000,-2.200572
3.365000,-2.066925
3.366000,-2.110201
3.367000,-2.161114
3.368000,-2.012193
3.369000,-1.753809
3.370000,-1.576885
3.371000,-1.598523
3.372000,-1.531063
3.373000,-1.458512
3.374000,-1.416509
3.375000,-1.375778
3.376000,-1.240858
3.377000,-1.186127
3.378000,-1.205219
3.379000,-1.254859
3.380000,-1.342685
3.381000,-1.322319
3.382000,-1.285407
3.383000,-1.291771
3.384000,-1.308318
3.385000,-1.266315
3.386000,-1.328683
3.387000,-1.394871
3.388000,-1.393598
3.389000,-1.452148
3.390000,-1.518335
3.391000,-1.547610
3.392000,-1.482696
3.393000,-1.378324
3.394000,-1.335048
3.395000,-1.453421
3.396000,-1.439420
3.397000,-1.090664
3.398000,-1.044842
3.399000,-1.214129
3.400000,-1.405053
3.401000,-1.290499
3.402000,-1.097028
3.403000,-1.122485
3.404000,-1.107211
3.405000,-0.892103
3.406000,-0.943016
3.407000,-1.084300
3.408000,-1.104665
3.409000,-0.867919
3.410000,-1.201400
3.411000,-1.478877
3.412000,-1.699077
3.413000,-2.069471
3.414000,-2.220937
3.415000,-2.456411
3.416000,-2.714795
3.417000,-2.900628
3.418000,-2.744070
3.419000,-2.553146
3.420000,-2.525144
3.421000,-2.279487
3.422000,-1.867091
3.423000,-1.541246
3.424000,-1.573067
3.425000,-1.542519
3.426000,-1.483969
3.427000,-1.491606
3.428000,-1.424146
3.429000,-1.360504
3.430000,-1.331229
3.431000,-1.326138
3.432000,-1.300681
3.433000,-1.253586
3.434000,-1.182308
3.435000,-1.137759
3.436000,-1.150487
3.437000,-1.153033
3.438000,-1.128849
3.439000,-1.252314
3.440000,-1.341412
3.441000,-1.313410
3.442000,-1.331229
3.443000,-1.285407
3.444000,-1.293044
3.445000,-1.341412
3.446000,-1.242131
3.447000,-1.127576
3.448000,-1.083027
3.449000,-1.107211
3.450000,-1.142850
3.451000,-1.102120
3.452000,-1.267588
3.453000,-1.407599
3.454000,-1.499243
3.455000,-1.398689
3.456000,-1.324865
3.457000,-1.569248
3.458000,-1.802176
3.459000,-1.909094
3.460000,-1.998192
3.461000,-1.943460
3.462000,-1.881092
3.463000,-1.818723
3.464000,-1.884910
3.465000,-1.839088
3.466000,-1.716897
3.467000,-1.709260
3.468000,-1.644345
3.469000,-1.606160
3.470000,-1.482696
3.471000,-1.327411
3.472000,-1.336320
3.473000,-1.415236
3.474000,-1.541246
3.475000,-1.543792
3.476000,-1.496697
3.477000,-1.439420
3.478000,-1.408872
3.479000,-1.402508
3.480000,-1.389779
3.481000,-1.380869
3.482000,-1.295590
3.483000,-1.234494
3.484000,-1.267588
3.485000,-1.336320
3.486000,-1.397416
3.487000,-1.463603
3.488000,-1.508152
3.489000,-1.478877
3.490000,-1.447057
3.491000,-1.447057
3.492000,-1.462331
3.493000,-1.473786
3.494000,-1.384688
3.495000,-1.368141
3.496000,-1.444511
3.497000,-1.511971
3.498000,-1.463603
3.499000,-1.361777
3.500000,-1.388506
3.501000,-1.424146
3.502000,-1.408872
3.503000,-1.433056
3.504000,-1.546337
3.505000,-1.520881
3.506000,-1.461058
3.507000,-1.406326
3.508000,-1.439420
3.509000,-1.161943
3.510000,-1.052479
3.511000,-0.771184
3.512000,-0.416064
3.513000,-0.302782
3.514000,-0.675722
3.515000,-1.084300
3.516000,-1.564157
3.517000,-1.920549
3.518000,-2.189117
3.519000,-2.293489
3.520000,-2.446228
3.521000,-2.592604
3.522000,-2.680429
3.523000,-2.484413
3.524000,-2.243848
3.525000,-2.129294
3.526000,-2.024921
3.527000,-1.882365
3.528000,-1.799631
3.529000,-1.612525
3.530000,-1.515789
3.531000,-1.179762
3.532000,-1.072845
3.533000,-1.075390
3.534000,-1.248495
3.535000,-1.405053
3.536000,-1.522154
3.537000,-1.587068
3.538000,-1.799631
3.539000,-1.994374
3.540000,-1.886183
3.541000,-1.935823
3.542000,-2.038923
3.543000,-1.835270
3.544000,-1.548883
3.545000,-1.419054
3.546000,-1.476332
3.547000,-1.412690
3.548000,-1.361777
3.549000,-1.384688
3.550000,-1.417782
3.551000,-1.378324
3.552000,-1.315955
3.553000,-1.275225
3.554000,-1.268860
3.555000,-1.254859
3.556000,-1.207765
3.557000,-1.174671
3.558000,-1.174671
3.559000,-1.215402
3.560000,-1.310864
3.561000,-1.322319
3.562000,-1.296863
3.563000,-1.366868
3.564000,-1.352867
3.565000,-1.338866
3.566000,-1.350322
3.567000,-1.323592
3.568000,-1.328683
3.569000,-1.338866
3.570000,-1.324865
3.571000,-1.363050
3.572000,-1.407599
3.573000,-1.500516
3.574000,-1.416509
3.575000,-1.289226
3.576000,-1.332502
3.577000,-1.482696
3.578000,-1.504334
3.579000,-1.504334
3.580000,-1.601069
3.581000,-1.578158
3.582000,-1.513244
3.583000,-1.552702
3.584000,-1.692713
3.585000,-1.734716
3.586000,-1.621434
3.587000,-1.575612
3.588000,-1.561611
3.589000,-1.570521
3.590000,-1.464876
3.591000,-1.420327
3.592000,-1.468695
3.593000,-1.448329
3.594000,-1.307045
3.595000,-1.080482
3.596000,-1.020659
3.597000,-0.836098
3.598000,-0.855191
3.599000,-1.231948
3.600000,-1.455966
3.601000,-1.705441
3.602000,-1.846725
3.603000,-1.860726
3.604000,-1.962553
3.605000,-2.014739
3.606000,-1.827633
3.607000,-1.842907
3.608000,-1.944733
3.609000,-2.241303
3.610000,-2.362221
3.611000,-2.215846
3.612000,-1.606160
3.613000,-1.343957
3.614000,-1.271406
3.615000,-1.333775
3.616000,-1.350322
3.617000,-1.326138
3.618000,-1.315955
3.619000,-1.332502
3.620000,-1.421600
3.621000,-1.466149
3.622000,-1.466149
3.623000,-1.370687
3.624000,-1.434328
3.625000,-1.429237
3.626000,-1.555247
3.627000,-1.756354
3.628000,-1.777992
3.629000,-1.935823
3.630000,-1.850544
3.631000,-1.738535
3.632000,-1.772901
3.633000,-1.874728
3.634000,-1.939642
3.635000,-1.971463
3.636000,-1.690167
3.637000,-1.551429
3.638000,-1.480150
3.639000,-1.335048
3.640000,-1.220493
3.641000,-1.252314
3.642000,-1.321046
3.643000,-1.319774
3.644000,-1.202673
3.645000,-1.170853
3.646000,-1.230676
3.647000,-1.341412
3.648000,-1.379597
3.649000,-1.370687
3.650000,-1.397416
3.651000,-1.440693
3.652000,-1.425419
3.653000,-1.444511
3.654000,-1.450875
3.655000,-1.497970
3.656000,-1.466149
3.657000,-1.424146
3.658000,-1.351594
3.659000,-1.338866
3.660000,-1.373233
3.661000,-1.383415
3.662000,-1.393598
3.663000,-1.368141
3.664000,-1.336320
3.665000,-1.280316
3.666000,-1.293044
3.667000,-1.357959
3.668000,-1.438147
3.669000,-1.490333
3.670000,-1.453421
3.671000,-1.407599
3.672000,-1.384688
3.673000,-1.332502
3.674000,-1.342685
3.675000,-1.398689
3.676000,-1.480150
3.677000,-1.557793
3.678000,-1.539973
3.679000,-1.439420
3.680000,-1.455966
3.681000,-1.396143
3.682000,-1.308318
3.683000,-1.328683
3.684000,-1.343957
3.685000,-1.354140
3.686000,-1.436874
3.687000,-1.489060
3.688000,-1.497970
3.689000,-1.462331
3.690000,-1.421600
3.691000,-1.471240
3.692000,-1.357959
3.693000,-1.338866
3.694000,-1.322319
3.695000,-1.019386
3.696000,-0.482252
3.697000,-0.556076
3.698000,-0.715179
3.699000,-1.001566
3.700000,-0.730453
3.701000,-0.790276
3.702000,-1.301954
3.703000,-1.833997
3.704000,-2.268032
3.705000,-2.644790
3.706000,-3.007546
3.707000,-3.296479
3.708000,-3.347392
3.709000,-2.926085
3.710000,-2.707158
3.711000,-2.761890
3.712000,-2.686793
3.713000,-2.362221
3.714000,-1.965098
3.715000,-1.692713
3.716000,-1.616343
3.717000,-1.606160
3.718000,-1.504334
3.719000,-1.468695
3.720000,-1.406326
3.721000,-1.336320
3.722000,-1.259951
3.723000,-1.215402
3.724000,-1.175944
3.725000,-1.095756
3.726000,-1.076663
3.727000,-1.112302
3.728000,-1.113575
3.729000,-1.123758
3.730000,-1.069026
3.731000,-1.032114
3.732000,-1.097028
3.733000,-1.142850
3.734000,-1.125031
3.735000,-1.112302
3.736000,-1.192491
3.737000,-1.170853
3.738000,-1.158124
3.739000,-1.254859
3.740000,-1.305773
3.741000,-1.371960
3.742000,-1.441965
3.743000,-1.489060
3.744000,-1.539973
3.745000,-1.598523
3.746000,-1.501788
3.747000,-1.509425
3.748000,-1.483969
3.749000,-1.524699
3.750000,-1.452148
3.751000,-1.355413
3.752000,-1.349049
3.753000,-1.408872
3.754000,-1.413963
3.755000,-1.324865
3.756000,-1.265042
3.757000,-1.304500
3.758000,-1.323592
3.759000,-1.305773
3.760000,-1.374505
3.761000,-1.445784
3.762000,-1.517062
3.763000,-1.328683
3.764000,-1.173398
3.765000,-1.287953
3.766000,-1.570521
3.767000,-1.757627
3.768000,-1.942188
3.769000,-1.921822
3.770000,-1.867091
3.771000,-1.699077
3.772000,-1.571794
3.773000,-1.464876
3.774000,-1.294317
3.775000,-1.207765
3.776000,-1.384688
3.777000,-1.307045
3.778000,-1.142850
3.779000,-0.764820
3.780000,-0.563713
3.781000,-0.842462
3.782000,-1.277770
3.783000,-1.588341
3.784000,-1.932005
3.785000,-2.311308
3.786000,-2.587512
3.787000,-2.777164
3.788000,-2.862444
3.789000,-2.662609
3.790000,-2.439864
3.791000,-2.380041
3.792000,-2.331673
3.793000,-2.088563
3.794000,-1.896366
3.795000,-1.700350
3.796000,-1.548883
3.797000,-1.425419
3.798000,-1.345230
3.799000,-1.310864
3.800000,-1.298136
3.801000,-1.248495
3.802000,-1.198855
3.803000,-1.200128
3.804000,-1.198855
3.805000,-1.170853
3.806000,-1.135213
3.807000,-1.130122
3.808000,-1.174671
3.809000,-1.196309
3.810000,-1.215402
3.811000,-1.251041
3.812000,-1.303227
3.813000,-1.319774
3.814000,-1.326138
3.815000,-1.333775
3.816000,-1.356686
3.817000,-1.463603
3.818000,-1.425419
3.819000,-1.323592
3.820000,-1.275225
3.821000,-1.251041
3.822000,-1.224311
3.823000,-1.249768
3.824000,-1.285407
3.825000,-1.201400
3.826000,-1.023204
3.827000,-0.991384
3.828000,-1.067753
3.829000,-1.262496
3.830000,-1.323592
3.831000,-1.111030
3.832000,-1.163216
3.833000,-1.319774
3.834000,-1.499243
3.835000,-1.629071
3.836000,-1.907821
3.837000,-1.989282
3.838000,-1.753809
3.839000,-1.413963
3.840000,-0.974837
3.841000,-1.006657
3.842000,-1.178490
3.843000,-1.505607
3.844000,-1.760173
3.845000,-1.938369
3.846000,-2.080926
3.847000,-2.133112
3.848000,-2.192935
3.849000,-2.232393
3.850000,-2.320218
3.851000,-2.450047
3.852000,-2.441137
3.853000,-2.007102
3.854000,-1.687622
3.855000,-1.496697
3.856000,-1.531063
3.857000,-1.475059
3.858000,-1.444511
3.859000,-1.305773
3.860000,-1.310864
3.861000,-1.413963
3.862000,-1.435601
3.863000,-1.393598
3.864000,-1.387234
3.865000,-1.476332
3.866000,-1.569248
3.867000,-1.565430
3.868000,-1.543792
3.869000,-1.533609
3.870000,-1.593432
3.871000,-1.551429
3.872000,-1.478877
3.873000,-1.397416
3.874000,-1.326138
3.875000,-1.333775
3.876000,-1.399962
3.877000,-1.427964
3.878000,-1.420327
3.879000,-1.377051
3.880000,-1.361777
3.881000,-1.360504
3.882000,-1.439420
3.883000,-1.497970
3.884000,-1.457239
3.885000,-1.244677
3.886000,-1.159397
3.887000,-0.927742
3.888000,-0.757183
3.889000,-0.137315
3.890000,0.191076
3.891000,-0.062218
3.892000,-0.619717
3.893000,-1.266315
3.894000,-1.691440
3.895000,-2.093654
3.896000,-2.373677
3.897000,-2.516234
3.898000,-2.556964
3.899000,-2.698249
3.900000,-2.597695
3.901000,-2.469139
3.902000,-2.275669
3.903000,-1.893820
3.904000,-1.707987
3.905000,-1.662165
3.906000,-1.561611
3.907000,-1.565430
3.908000,-1.686349
3.909000,-1.673620
3.910000,-1.580704
3.911000,-1.527245
3.912000,-1.500516
3.913000,-1.555247
3.914000,-1.579431
3.915000,-1.453421
3.916000,-1.219220
3.917000,-1.079209
3.918000,-1.123758
3.919000,-1.174671
3.920000,-1.192491
3.921000,-1.182308
3.922000,-1.243404
3.923000,-1.373233
3.924000,-1.448329
3.925000,-1.467422
3.926000,-1.560339
3.927000,-1.690167
3.928000,-1.738535
3.929000,-1.686349
3.930000,-1.739808
3.931000,-1.799631
3.932000,-1.673620
3.933000,-1.693986
3.934000,-1.606160
3.935000,-1.581977
3.936000,-1.545065
3.937000,-1.517062
3.938000,-1.478877
3.939000,-1.448329
3.940000,-1.384688
3.941000,-1.337593
3.942000,-1.359231
3.943000,-1.349049
3.944000,-1.321046
3.945000,-1.296863
3.946000,-1.267588
3.947000,-1.256132
3.948000,-1.301954
3.949000,-1.346503
3.950000,-1.332502
3.951000,-1.293044
3.952000,-1.315955
3.953000,-1.322319
3.954000,-1.314682
3.955000,-1.291771
3.956000,-1.374505
3.957000,-1.486514
3.958000,-1.522154
3.959000,-1.391052
3.960000,-1.245950
3.961000,-1.295590
3.962000,-1.408872
3.963000,-1.228130
3.964000,-1.105938
3.965000,-1.070299
3.966000,-1.135213
3.967000,-0.669358
3.968000,-0.676995
3.969000,-0.946834
3.970000,-1.102120
3.971000,-1.408872
3.972000,-1.654528
3.973000,-1.963826
3.974000,-2.265486
3.975000,-2.677883
3.976000,-2.497141
3.977000,-2.243848
3.978000,-2.135658
3.979000,-2.110201
3.980000,-1.976554
3.981000,-1.802176
3.982000,-1.970190
3.983000,-2.257849
3.984000,-2.241303
3.985000,-1.890001
3.986000,-1.650709
3.987000,-1.503061
3.988000,-1.454694
3.989000,-1.471240
3.990000,-1.492879
3.991000,-1.422873
3.992000,-1.392325
3.993000,-1.355413
3.994000,-1.322319
3.995000,-1.277770
3.996000,-1.188672
3.997000,-1.177217
3.998000,-1.175944
3.999000,-1.131395
4.000000,-1.139032
4.001000,-1.186127
4.002000,-1.189945
4.003000,-1.151760
4.004000,-1.211583
4.005000,-1.341412
4.006000,-1.398689
4.007000,-1.472513
4.008000,-1.363050
4.009000,-0.786458
4.010000,-0.581532
4.011000,-0.575168
4.012000,-0.660448
4.013000,-1.028296
4.014000,-1.336320
4.015000,-1.587068
4.016000,-1.986737
4.017000,-2.297307
4.018000,-2.433500
4.019000,-2.521325
4.020000,-2.624424
4.021000,-2.550600
4.022000,-2.591331
4.023000,-2.397861
4.024000,-2.247667
4.025000,-1.958734
4.026000,-1.878546
4.027000,-1.794539
4.028000,-1.641800
4.029000,-1.458512
4.030000,-1.305773
4.031000,-1.211583
4.032000,-1.206492
4.033000,-1.247222
4.034000,-1.267588
4.035000,-1.254859
4.036000,-1.272679
4.037000,-1.192491
4.038000,-1.081754
4.039000,-0.992656
4.040000,-1.111030
4.041000,-1.345230
4.042000,-1.449602
4.043000,-1.366868
4.044000,-1.329956
4.045000,-1.338866
4.046000,-1.401235
4.047000,-1.477605
4.048000,-1.494151
4.049000,-1.448329
4.050000,-1.382142
4.051000,-1.351594
4.052000,-1.310864
4.053000,-1.315955
4.054000,-1.399962
4.055000,-1.489060
4.056000,-1.468695
4.057000,-1.406326
4.058000,-1.391052
4.059000,-1.450875
4.060000,-1.399962
4.061000,-1.394871
4.062000,-1.487787
4.063000,-1.450875
4.064000,-1.434328
4.065000,-1.425419
4.066000,-1.389779
4.067000,-1.346503
4.068000,-1.270133
4.069000,-1.286680
4.070000,-1.388506
4.071000,-1.602342
4.072000,-1.679985
4.073000,-1.644345
4.074000,-1.762718
4.075000,-1.769083
4.076000,-1.738535
4.077000,-1.681257
4.078000,-1.700350
4.079000,-1.790721
4.080000,-1.888729
4.081000,-1.784357
4.082000,-1.691440
4.083000,-1.654528
4.084000,-1.623980
4.085000,-1.467422
4.086000,-1.350322
4.087000,-1.261223
4.088000,-1.228130
4.089000,-1.182308
4.090000,-0.823370
4.091000,-0.735545
4.092000,-0.859009
4.093000,-1.075390
4.094000,-1.228130
4.095000,-1.389779
4.096000,-1.463603
4.097000,-1.196309
4.098000,-0.974837
4.099000,-1.118667
4.100000,-1.438147
4.101000,-1.690167
4.102000,-1.724534
4.103000,-1.729625
4.104000,-1.909094
4.105000,-1.858181
4.106000,-1.559066
4.107000,-1.491606
4.108000,-1.436874
4.109000,-1.562884
4.110000,-1.830178
4.111000,-1.840361
4.112000,-1.827633
4.113000,-1.963826
4.114000,-1.949824
4.115000,-1.948552
4.116000,-2.000738
4.117000,-2.149659
4.118000,-2.416953
4.119000,-2.311308
4.120000,-2.078380
4.121000,-1.811086
4.122000,-1.651982
4.123000,-1.445784
4.124000,-1.360504
4.125000,-1.471240
4.126000,-1.458512
4.127000,-1.399962
4.128000,-1.382142
4.129000,-1.312137
4.130000,-1.304500
4.131000,-1.257405
4.132000,-1.233221
4.133000,-1.290499
4.134000,-1.375778
4.135000,-1.299408
4.136000,-1.268860
4.137000,-1.285407
4.138000,-1.296863
4.139000,-1.270133
4.140000,-1.305773
4.141000,-1.225584
4.142000,-1.224311
4.143000,-1.286680
4.144000,-1.331229
4.145000,-1.267588
4.146000,-1.299408
4.147000,-1.350322
4.148000,-1.392325
4.149000,-1.440693
4.150000,-1.473786
4.151000,-1.483969
4.152000,-1.420327
4.153000,-1.373233
4.154000,-1.415236
4.155000,-1.375778
4.156000,-1.385961
4.157000,-1.352867
4.158000,-1.303227
4.159000,-1.210310
4.160000,-1.273952
4.161000,-1.318501
4.162000,-1.387234
4.163000,-1.501788
4.164000,-1.580704
4.165000,-1.561611
4.166000,-1.497970
4.167000,-1.553974
4.168000,-1.677439
4.169000,-1.693986
4.170000,-1.608706
4.171000,-1.569248
4.172000,-1.520881
4.173000,-1.592159
4.174000,-1.649437
4.175000,-1.723261
4.176000,-1.868363
4.177000,-1.954916
4.178000,-1.906548
4.179000,-1.832724
4.180000,-1.648164
4.181000,-1.569248
4.182000,-1.583249
4.183000,-1.183581
4.184000,-0.761001
4.185000,-0.516618
4.186000,-0.083856
4.187000,-0.195865
4.188000,-0.571350
4.189000,-1.071572
4.190000,-1.608706
4.191000,-2.002011
4.192000,-1.990555
4.193000,-1.867091
4.194000,-1.929459
4.195000,-2.060561
4.196000,-2.443683
4.197000,-2.824259
4.198000,-2.741525
4.199000,-2.495869
4.200000,-2.199299
4.201000,-2.003283
4.202000,-1.819996
4.203000,-1.840361
4.204000,-1.840361
4.205000,-1.704168
4.206000,-1.648164
4.207000,-1.524699
4.208000,-1.462331
4.209000,-1.433056
4.210000,-1.457239
4.211000,-1.416509
4.212000,-1.296863
4.213000,-1.345230
4.214000,-1.410145
4.215000,-1.326138
4.216000,-1.328683
4.217000,-1.337593
4.218000,-1.384688
4.219000,-1.387234
4.220000,-1.328683
4.221000,-1.416509
4.222000,-1.377051
4.223000,-1.338866
4.224000,-1.338866
4.225000,-1.315955
4.226000,-1.295590
4.227000,-1.373233
4.228000,-1.439420
4.229000,-1.441965
4.230000,-1.408872
4.231000,-1.368141
4.232000,-1.359231
4.233000,-1.426691
4.234000,-1.382142
4.235000,-1.384688
4.236000,-1.398689
4.237000,-1.336320
4.238000,-1.271406
4.239000,-1.193763
4.240000,-1.178490
4.241000,-1.172125
4.242000,-1.168307
4.243000,-1.197582
4.244000,-1.137759
4.245000,-1.195036
4.246000,-1.430510
4.247000,-1.542519
4.248000,-1.504334
4.249000,-1.489060
4.250000,-1.650709
4.251000,-1.664711
4.252000,-1.441965
4.253000,-1.333775
4.254000,-1.368141
4.255000,-1.471240
4.256000,-1.416509
4.257000,-1.338866
4.258000,-1.239585
4.259000,-1.084300
4.260000,-1.118667
4.261000,-1.221766
4.262000,-1.510698
4.263000,-1.699077
4.264000,-1.939642
4.265000,-2.385132
4.266000,-2.381314
4.267000,-2.191662
4.268000,-2.047832
4.269000,-1.990555
4.270000,-1.755082
4.271000,-1.195036
4.272000,-1.075390
4.273000,-1.063935
4.274000,-1.136486
4.275000,-1.192491
4.276000,-1.331229
4.277000,-1.286680
4.278000,-1.304500
4.279000,-1.532336
4.280000,-1.788175
4.281000,-2.042741
4.282000,-2.352039
4.283000,-2.332946
4.284000,-2.036377
4.285000,-1.873455
4.286000,-1.756354
4.287000,-1.808540
4.288000,-1.892547
4.289000,-1.795812
4.290000,-1.723261
4.291000,-1.595978
4.292000,-1.546337
4.293000,-1.519608
4.294000,-1.444511
4.295000,-1.345230
4.296000,-1.266315
4.297000,-1.287953
4.298000,-1.337593
4.299000,-1.350322
4.300000,-1.343957
4.301000,-1.393598
4.302000,-1.315955
4.303000,-1.267588
4.304000,-1.201400
4.305000,-1.240858
4.306000,-1.156851
4.307000,-1.097028
4.308000,-1.119939
4.309000,-1.062662
4.310000,-0.964654
4.311000,-0.878102
4.312000,-0.915014
4.313000,-0.991384
4.314000,-1.183581
4.315000,-1.291771
4.316000,-1.327411
4.317000,-1.441965
4.318000,-1.571794
4.319000,-1.668529
4.320000,-1.674893
4.321000,-1.775447
4.322000,-1.855635
4.323000,-1.850544
4.324000,-1.835270
4.325000,-1.588341
4.326000,-1.514517
4.327000,-1.561611
4.328000,-1.667256
4.329000,-1.702895
4.330000,-1.701623
4.331000,-1.725806
4.332000,-1.728352
4.333000,-1.713078
4.334000,-1.659619
4.335000,-1.651982
4.336000,-1.599796
4.337000,-1.699077
4.338000,-1.752536
4.339000,-1.667256
4.340000,-1.593432
4.341000,-1.555247
4.342000,-1.481423
4.343000,-1.403780
4.344000,-1.329956
4.345000,-1.333775
4.346000,-1.317228
4.347000,-1.286680
4.348000,-1.305773
4.349000,-1.291771
4.350000,-1.341412
4.351000,-1.389779
4.352000,-1.405053
4.353000,-1.389779
4.354000,-1.419054
4.355000,-1.379597
4.356000,-1.323592
4.357000,-1.307045
4.358000,-1.245950
4.359000,-1.191218
4.360000,-1.146669
4.361000,-1.041024
4.362000,-1.035933
4.363000,-1.248495
4.364000,-1.276497
4.365000,-1.305773
4.366000,-1.458512
4.367000,-1.645618
4.368000,-1.845452
4.369000,-1.998192
4.370000,-2.102564
4.371000,-2.140749
4.372000,-2.161114
4.373000,-2.108928
4.374000,-1.739808
4.375000,-1.626526
4.376000,-1.625253
4.377000,-1.427964
4.378000,-1.290499
4.379000,-0.995202
4.380000,-1.004112
4.381000,-1.151760
4.382000,-1.361777
4.383000,-1.525972
4.384000,-1.695259
4.385000,-1.966371
4.386000,-2.292216
4.387000,-2.129294
4.388000,-1.895093
4.389000,-1.618889
4.390000,-1.581977
4.391000,-1.620162
4.392000,-1.627799
4.393000,-1.612525
4.394000,-1.766537
4.395000,-1.765264
4.396000,-1.671075
4.397000,-1.613797
4.398000,-1.663438
4.399000,-1.752536
4.400000,-1.721988
4.401000,-1.749990
4.402000,-1.597251
4.403000,-1.424146
4.404000,-1.323592
4.405000,-1.317228
4.406000,-1.346503
4.407000,-1.430510
4.408000,-1.391052
4.409000,-1.407599
4.410000,-1.382142
4.411000,-1.370687
4.412000,-1.355413
4.413000,-1.370687
4.414000,-1.363050
4.415000,-1.347776
4.416000,-1.331229
4.417000,-1.102120
4.418000,-0.943016
4.419000,-1.018113
4.420000,-1.099574
4.421000,-1.259951
4.422000,-1.369414
4.423000,-1.371960
4.424000,-1.336320
4.425000,-1.332502
4.426000,-1.380869
4.427000,-1.463603
4.428000,-1.525972
4.429000,-1.578158
4.430000,-1.701623
4.431000,-1.641800
4.432000,-1.565430
4.433000,-1.552702
4.434000,-1.700350
4.435000,-1.816177
4.436000,-1.601069
4.437000,-1.420327
4.438000,-1.301954
4.439000,-1.243404
4.440000,-1.318501
4.441000,-1.410145
4.442000,-1.369414
4.443000,-1.290499
4.444000,-1.262496
4.445000,-1.397416
4.446000,-1.454694
4.447000,-1.520881
4.448000,-1.546337
4.449000,-1.590886
4.450000,-1.504334
4.451000,-1.209037
4.452000,-1.055025
4.453000,-1.109757
4.454000,-1.234494
4.455000,-1.380869
4.456000,-1.598523
4.457000,-1.822541
4.458000,-1.948552
4.459000,-1.951097
4.460000,-1.998192
4.461000,-2.051651
4.462000,-1.993101
4.463000,-1.859454
4.464000,-1.641800
4.465000,-1.599796
4.466000,-1.659619
4.467000,-1.562884
4.468000,-1.077936
4.469000,-0.815733
4.470000,-0.626081
4.471000,-0.230231
4.472000,-0.469523
4.473000,-0.934106
4.474000,-1.459785
4.475000,-1.816177
4.476000,-2.131839
4.477000,-2.203118
4.478000,-2.251485
4.479000,-2.595149
4.480000,-2.587512
4.481000,-2.339310
4.482000,-2.194208
4.483000,-2.190389
4.484000,-2.089836
4.485000,-1.998192
4.486000,-1.870909
4.487000,-1.744899
4.488000,-1.718169
4.489000,-1.651982
4.490000,-1.505607
4.491000,-1.315955
4.492000,-1.245950
4.493000,-1.174671
4.494000,-1.245950
4.495000,-1.355413
4.496000,-1.296863
4.497000,-1.206492
4.498000,-1.226857
4.499000,-1.253586
4.500000,-1.293044
4.501000,-1.286680
4.502000,-1.242131
4.503000,-1.279043
4.504000,-1.266315
4.505000,-1.314682
4.506000,-1.425419
4.507000,-1.469968
4.508000,-1.449602
4.509000,-1.445784
4.510000,-1.374505
4.511000,-1.284134
4.512000,-1.237040
4.513000,-1.251041
4.514000,-1.230676
4.515000,-1.290499
4.516000,-1.438147
4.517000,-1.541246
4.518000,-1.424146
4.519000,-1.312137
4.520000,-1.299408
4.521000,-1.468695
4.522000,-1.590886
4.523000,-1.553974
4.524000,-1.457239
4.525000,-1.459785
4.526000,-1.487787
4.527000,-1.511971
4.528000,-1.478877
4.529000,-1.387234
4.530000,-1.444511
4.531000,-1.410145
4.532000,-1.444511
4.533000,-1.457239
4.534000,-1.374505
4.535000,-1.373233
4.536000,-1.273952
4.537000,-1.373233
4.538000,-1.377051
4.539000,-1.408872
4.540000,-1.319774
4.541000,-0.906104
4.542000,-0.789004
4.543000,-0.792822
4.544000,-0.950653
4.545000,-1.469968
4.546000,-1.918004
4.547000,-2.115292
4.548000,-2.166206
4.549000,-1.758900
4.550000,-1.411417
4.551000,-1.412690
4.552000,-1.613797
4.553000,-1.853089
4.554000,-1.965098
4.555000,-2.045287
4.556000,-2.122929
4.557000,-2.038923
4.558000,-1.995646
4.559000,-1.938369
4.560000,-1.962553
4.561000,-2.101291
4.562000,-2.101291
4.563000,-1.896366
4.564000,-1.831451
4.565000,-1.728352
4.566000,-1.644345
4.567000,-1.729625
4.568000,-1.662165
4.569000,-1.480150
4.570000,-1.455966
4.571000,-1.450875
4.572000,-1.387234
4.573000,-1.359231
4.574000,-1.332502
4.575000,-1.324865
4.576000,-1.341412
4.577000,-1.304500
4.578000,-1.266315
4.579000,-1.212856
4.580000,-1.151760
4.581000,-1.202673
4.582000,-1.285407
4.583000,-1.261223
4.584000,-1.305773
4.585000,-1.341412
4.586000,-1.276497
4.587000,-1.254859
4.588000,-1.349049
4.589000,-1.520881
4.590000,-1.641800
4.591000,-1.710532
4.592000,-1.677439
4.593000,-1.556520
4.594000,-1.452148
4.595000,-1.403780
4.596000,-1.406326
4.597000,-1.323592
4.598000,-1.267588
4.599000,-1.261223
4.600000,-1.244677
4.601000,-1.310864
4.602000,-1.377051
4.603000,-1.518335
4.604000,-1.551429
4.605000,-1.497970
4.606000,-1.559066
4.607000,-1.601069
4.608000,-1.625253
4.609000,-1.705441
4.610000,-1.678712
4.611000,-1.597251
4.612000,-1.448329
4.613000,-1.435601
4.614000,-1.396143
4.615000,-1.461058
4.616000,-1.482696
4.617000,-1.426691
4.618000,-1.338866
4.619000,-1.228130
4.620000,-1.280316
4.621000,-1.393598
4.622000,-1.365596
4.623000,-1.061389
4.624000,-0.986292
4.625000,-1.080482
4.626000,-1.154306
4.627000,-1.284134
4.628000,-1.450875
4.629000,-1.500516
4.630000,-1.696531
4.631000,-1.809813
4.632000,-1.972735
4.633000,-2.098746
4.634000,-2.150932
4.635000,-1.996919
4.636000,-1.359231
4.637000,-1.205219
4.638000,-1.369414
4.639000,-1.518335
4.640000,-1.561611
4.641000,-1.599796
4.642000,-1.615070
4.643000,-1.585795
4.644000,-1.589614
4.645000,-1.407599
4.646000,-1.433056
4.647000,-1.471240
4.648000,-1.420327
4.649000,-1.466149
4.650000,-1.440693
4.651000,-1.412690
4.652000,-1.541246
4.653000,-1.566703
4.654000,-1.678712
4.655000,-1.769083
4.656000,-2.153477
4.657000,-2.224756
4.658000,-2.201845
4.659000,-2.311308
4.660000,-2.316400
4.661000,-2.033831
4.662000,-1.693986
4.663000,-1.494151
4.664000,-1.333775
4.665000,-1.273952
4.666000,-1.209037
4.667000,-1.128849
4.668000,-1.237040
4.669000,-1.263769
4.670000,-1.237040
4.671000,-1.230676
4.672000,-1.251041
4.673000,-1.347776
4.674000,-1.425419
4.675000,-1.435601
4.676000,-1.433056
4.677000,-1.436874
4.678000,-1.455966
4.679000,-1.429237
4.680000,-1.468695
4.681000,-1.466149
4.682000,-1.406326
4.683000,-1.412690
4.684000,-1.403780
4.685000,-1.387234
4.686000,-1.413963
4.687000,-1.420327
4.688000,-1.336320
4.689000,-1.275225
4.690000,-1.271406
4.691000,-1.225584
4.692000,-1.252314
4.693000,-1.310864
4.694000,-1.359231
4.695000,-1.419054
4.696000,-1.462331
4.697000,-1.463603
4.698000,-1.461058
4.699000,-1.441965
4.700000,-1.489060
4.701000,-1.459785
4.702000,-1.430510
4.703000,-1.403780
4.704000,-1.377051
4.705000,-1.380869
4.706000,-1.363050
4.707000,-1.355413
4.708000,-1.337593
4.709000,-1.369414
4.710000,-1.332502
4.711000,-0.936652
4.712000,-0.604443
4.713000,-0.445339
4.714000,-0.361333
4.715000,-0.688450
4.716000,-1.153033
4.717000,-1.603615
4.718000,-2.106383
4.719000,-2.493323
4.720000,-2.588785
4.721000,-2.612969
4.722000,-2.646063
4.723000,-2.870081
4.724000,-2.801348
4.725000,-2.742798
4.726000,-2.274396
4.727000,-1.949824
4.728000,-1.729625
4.729000,-1.483969
4.730000,-1.322319
4.731000,-1.147942
4.732000,-0.865373
4.733000,-0.706270
4.734000,-0.676995
4.735000,-0.795368
4.736000,-0.979928
4.737000,-1.123758
4.738000,-1.252314
4.739000,-1.403780
4.740000,-1.613797
4.741000,-1.918004
4.742000,-2.087290
4.743000,-2.194208
4.744000,-2.184025
4.745000,-1.914185
4.746000,-1.753809
4.747000,-1.584522
4.748000,-1.322319
4.749000,-1.326138
4.750000,-1.463603
4.751000,-1.575612
4.752000,-1.599796
4.753000,-1.561611
4.754000,-1.537428
4.755000,-1.571794
4.756000,-1.534882
4.757000,-1.441965
4.758000,-1.310864
4.759000,-1.310864
4.760000,-1.304500
4.761000,-1.267588
4.762000,-1.273952
4.763000,-1.350322
4.764000,-1.374505
4.765000,-1.333775
4.766000,-1.109757
4.767000,-1.066480
4.768000,-1.083027
4.769000,-1.105938
4.770000,-1.147942
4.771000,-1.267588
4.772000,-1.410145
4.773000,-1.553974
4.774000,-1.686349
4.775000,-1.729625
4.776000,-1.794539
4.777000,-1.957461
4.778000,-1.817450
4.779000,-1.718169
4.780000,-1.537428
4.781000,-1.371960
4.782000,-1.327411
4.783000,-1.270133
4.784000,-1.203946
4.785000,-1.332502
4.786000,-1.478877
4.787000,-1.585795
4.788000,-1.704168
4.789000,-1.765264
4.790000,-1.702895
4.791000,-1.648164
4.792000,-1.366868
4.793000,-1.159397
4.794000,-1.070299
4.795000,-1.108484
4.796000,-1.201400
4.797000,-1.445784
4.798000,-1.697804
4.799000,-1.753809
4.800000,-1.775447
4.801000,-1.884910
4.802000,-2.005829
4.803000,-2.070743
4.804000,-2.012193
4.805000,-1.557793
4.806000,-1.518335
4.807000,-1.473786
4.808000,-1.300681
4.809000,-1.327411
4.810000,-1.364323
4.811000,-1.422873
4.812000,-1.453421
4.813000,-1.475059
4.814000,-1.551429
4.815000,-1.556520
4.816000,-1.510698
4.817000,-1.536155
4.818000,-1.436874
4.819000,-1.411417
4.820000,-1.461058
4.821000,-1.588341
4.822000,-1.597251
4.823000,-1.598523
4.824000,-1.594705
4.825000,-1.646891
4.826000,-1.469968
4.827000,-1.355413
4.828000,-1.397416
4.829000,-1.374505
4.830000,-1.407599
4.831000,-1.365596
4.832000,-1.391052
4.833000,-1.336320
4.834000,-1.223039
4.835000,-1.296863
4.836000,-1.402508
4.837000,-1.481423
4.838000,-1.580704
4.839000,-1.732171
4.840000,-1.659619
4.841000,-1.487787
4.842000,-1.412690
4.843000,-1.415236
4.844000,-1.448329
4.845000,-1.525972
4.846000,-1.468695
4.847000,-1.331229
4.848000,-1.335048
4.849000,-1.412690
4.850000,-1.515789
4.851000,-1.543792
4.852000,-1.551429
4.853000,-1.485242
4.854000,-1.324865
4.855000,-1.265042
4.856000,-1.294317
4.857000,-1.307045
4.858000,-1.410145
4.859000,-1.562884
4.860000,-1.604888
4.861000,-1.583249
4.862000,-1.631617
4.863000,-1.631617
4.864000,-1.472513
4.865000,-1.448329
4.866000,-1.511971
4.867000,-1.450875
4.868000,-1.420327
4.869000,-1.098301
4.870000,-0.859009
4.871000,-0.885739
4.872000,-1.141577
4.873000,-1.179762
4.874000,-1.379597
4.875000,-1.687622
4.876000,-1.872182
4.877000,-1.940915
4.878000,-1.975281
4.879000,-2.110201
4.880000,-1.974008
4.881000,-1.833997
4.882000,-1.636708
4.883000,-1.548883
4.884000,-1.560339
4.885000,-1.757627
4.886000,-1.988009
4.887000,-1.876000
4.888000,-1.612525
4.889000,-1.587068
4.890000,-1.743626
4.891000,-1.957461
4.892000,-2.181480
4.893000,-2.042741
4.894000,-1.702895
4.895000,-1.518335
4.896000,-1.515789
4.897000,-1.504334
4.898000,-1.473786
4.899000,-1.623980
4.900000,-1.663438
4.901000,-1.552702
4.902000,-1.494151
4.903000,-1.522154
4.904000,-1.531063
4.905000,-1.472513
4.906000,-1.422873
4.907000,-1.441965
4.908000,-1.343957
4.909000,-1.201400
4.910000,-1.144123
4.911000,-1.122485
4.912000,-1.146669
4.913000,-1.142850
4.914000,-1.175944
4.915000,-1.262496
4.916000,-1.299408
4.917000,-1.314682
4.918000,-1.336320
4.919000,-1.424146
4.920000,-1.485242
4.921000,-1.536155
4.922000,-1.520881
4.923000,-1.499243
4.924000,-1.495424
4.925000,-1.435601
4.926000,-1.396143
4.927000,-1.356686
4.928000,-1.343957
4.929000,-1.411417
4.930000,-1.398689
4.931000,-1.387234
4.932000,-1.405053
4.933000,-1.434328
4.934000,-1.458512
4.935000,-1.284134
4.936000,-1.149214
4.937000,-1.107211
4.938000,-0.995202
4.939000,-1.025750
4.940000,-0.934106
4.941000,-1.061389
4.942000,-1.202673
4.943000,-1.291771
4.944000,-1.413963
4.945000,-1.271406
4.946000,-1.396143
4.947000,-1.550156
4.948000,-1.802176
4.949000,-1.991828
4.950000,-2.191662
4.951000,-2.290943
4.952000,-2.195481
4.953000,-2.028740
4.954000,-1.967644
4.955000,-1.897638
4.956000,-1.830178
4.957000,-1.851817
4.958000,-2.061834
4.959000,-2.189117
4.960000,-2.108928
4.961000,-1.925641
4.962000,-1.646891
4.963000,-1.523426
4.964000,-1.483969
4.965000,-1.443238
4.966000,-1.434328
4.967000,-1.443238
4.968000,-1.356686
4.969000,-1.256132
4.970000,-1.230676
4.971000,-1.007930
4.972000,-0.950653
4.973000,-1.011749
4.974000,-1.173398
4.975000,-1.206492
4.976000,-1.280316
4.977000,-1.387234
4.978000,-1.424146
4.979000,-1.528518
4.980000,-1.669802
4.981000,-1.674893
4.982000,-1.612525
4.983000,-1.705441
4.984000,-1.833997
4.985000,-1.807268
4.986000,-1.721988
4.987000,-1.775447
4.988000,-1.653255
4.989000,-1.515789
4.990000,-1.453421
4.991000,-1.433056
4.992000,-1.410145
4.993000,-1.391052
4.994000,-1.380869
4.995000,-1.384688
4.996000,-1.342685
4.997000,-1.279043
4.998000,-1.271406
4.999000,-1.352867
5.000000,-1.434328
5.001000,-1.531063
5.002000,-1.545065
5.003000,-1.551429
5.004000,-1.489060
5.005000,-1.266315
5.006000,-1.114848
5.007000,-1.215402
5.008000,-1.332502
5.009000,-1.438147
5.010000,-1.475059
5.011000,-1.548883
5.012000,-1.608706
5.013000,-1.580704
5.014000,-1.599796
5.015000,-1.542519
5.016000,-1.462331
5.017000,-1.517062
5.018000,-1.447057
5.019000,-1.301954
5.020000,-1.359231
5.021000,-1.471240
5.022000,-1.677439
5.023000,-1.555247
5.024000,-1.385961
5.025000,-1.413963
5.026000,-1.609979
5.027000,-1.631617
5.028000,-1.508152
5.029000,-1.379597
5.030000,-1.331229
5.031000,-1.388506
5.032000,-1.462331
5.033000,-1.541246
5.034000,-1.688894
5.035000,-1.791994
5.036000,-1.621434
5.037000,-1.511971
5.038000,-1.345230
5.039000,-1.212856
5.040000,-1.210310
5.041000,-1.300681
5.042000,-1.477605
5.043000,-1.559066
5.044000,-1.426691
5.045000,-1.407599
5.046000,-1.491606
5.047000,-1.590886
5.048000,-1.715624
5.049000,-1.770355
5.050000,-1.873455
5.051000,-2.050378
5.052000,-1.902730
5.053000,-1.687622
5.054000,-1.550156
5.055000,-1.560339
5.056000,-1.601069
5.057000,-1.695259
5.058000,-1.473786
5.059000,-1.121212
5.060000,-0.983747
5.061000,-0.931561
5.062000,-1.114848
5.063000,-1.354140
5.064000,-1.646891
5.065000,-1.786902
5.066000,-1.729625
5.067000,-1.733443
5.068000,-1.811086
5.069000,-1.774174
5.070000,-1.790721
5.071000,-1.918004
5.072000,-1.962553
5.073000,-1.932005
5.074000,-1.800903
5.075000,-1.706714
5.076000,-1.721988
5.077000,-1.677439
5.078000,-1.659619
5.079000,-1.623980
5.080000,-1.461058
5.081000,-1.359231
5.082000,-1.341412
5.083000,-1.351594
5.084000,-1.318501
5.085000,-1.293044
5.086000,-1.265042
5.087000,-1.294317
5.088000,-1.310864
5.089000,-1.275225
5.090000,-1.254859
5.091000,-1.219220
5.092000,-1.125031
5.093000,-1.098301
5.094000,-1.071572
5.095000,-1.153033
5.096000,-1.271406
5.097000,-1.346503
5.098000,-1.349049
5.099000,-1.420327
5.100000,-1.448329
5.101000,-1.369414
5.102000,-1.276497
5.103000,-1.234494
5.104000,-1.187399
5.105000,-1.195036
5.106000,-1.323592
5.107000,-1.413963
5.108000,-1.457239
5.109000,-1.504334
5.110000,-1.397416
5.111000,-1.464876
5.112000,-1.702895
5.113000,-1.960007
5.114000,-1.929459
5.115000,-1.994374
5.116000,-2.069471
5.117000,-1.956189
5.118000,-1.747445
5.119000,-1.567976
5.120000,-1.579431
5.121000,-1.574340
5.122000,-1.674893
5.123000,-1.445784
5.124000,-1.084300
5.125000,-1.024477
5.126000,-1.058844
5.127000,-1.151760
5.128000,-1.296863
5.129000,-1.443238
5.130000,-1.735989
5.131000,-1.844180
5.132000,-1.853089
5.133000,-1.904003
5.134000,-1.939642
5.135000,-1.914185
5.136000,-1.975281
5.137000,-1.865818
5.138000,-1.817450
5.139000,-1.791994
5.140000,-1.707987
5.141000,-1.609979
5.142000,-1.550156
5.143000,-1.550156
5.144000,-1.506880
5.145000,-1.503061
5.146000,-1.443238
5.147000,-1.402508
5.148000,-1.377051
5.149000,-1.357959
5.150000,-1.318501
5.151000,-1.331229
5.152000,-1.303227
5.153000,-1.254859
5.154000,-1.275225
5.155000,-1.282862
5.156000,-1.195036
5.157000,-1.131395
5.158000,-1.142850
5.159000,-1.211583
5.160000,-1.238313
5.161000,-1.164488
5.162000,-1.198855
5.163000,-1.315955
5.164000,-1.478877
5.165000,-1.625253
5.166000,-1.504334
5.167000,-1.429237
5.168000,-1.206492
5.169000,-1.168307
5.170000,-1.301954
5.171000,-1.431783
5.172000,-1.604888
5.173000,-1.679985
5.174000,-1.692713
5.175000,-1.774174
5.176000,-1.755082
5.177000,-1.794539
5.178000,-1.781811
5.179000,-1.882365
5.180000,-1.775447
5.181000,-1.649437
5.182000,-1.738535
5.183000,-1.741080
5.184000,-1.651982
5.185000,-1.646891
5.186000,-1.668529
5.187000,-1.629071
5.188000,-1.570521
5.189000,-1.581977
5.190000,-1.581977
5.191000,-1.561611
5.192000,-1.349049
5.193000,-0.694814
5.194000,-0.314238
5.195000,-0.456795
5.196000,-0.782639
5.197000,-1.063935
5.198000,-1.436874
5.199000,-1.676166
5.200000,-1.781811
5.201000,-1.850544
5.202000,-1.976554
5.203000,-2.013466
5.204000,-2.233666
5.205000,-2.436046
5.206000,-2.312581
5.207000,-1.925641
5.208000,-1.735989
5.209000,-1.706714
5.210000,-1.606160
5.211000,-1.514517
5.212000,-1.514517
5.213000,-1.425419
5.214000,-1.369414
5.215000,-1.357959
5.216000,-1.312137
5.217000,-1.238313
5.218000,-1.235767
5.219000,-1.186127
5.220000,-1.205219
5.221000,-1.258678
5.222000,-1.244677
5.223000,-1.139032
5.224000,-1.004112
5.225000,-1.146669
5.226000,-1.310864
5.227000,-1.534882
5.228000,-1.629071
5.229000,-1.767810
5.230000,-1.772901
5.231000,-1.637981
5.232000,-1.644345
5.233000,-1.539973
5.234000,-1.455966
5.235000,-1.552702
5.236000,-1.592159
5.237000,-1.518335
5.238000,-1.417782
5.239000,-1.402508
5.240000,-1.329956
5.241000,-1.234494
5.242000,-1.203946
5.243000,-1.310864
5.244000,-1.445784
5.245000,-1.552702
5.246000,-1.508152
5.247000,-1.557793
5.248000,-1.630344
5.249000,-1.556520
5.250000,-1.643072
5.251000,-1.790721
5.252000,-1.809813
5.253000,-1.766537
5.254000,-1.555247
5.255000,-1.440693
5.256000,-1.445784
5.257000,-1.359231
5.258000,-1.382142
5.259000,-1.343957
5.260000,-1.403780
5.261000,-1.443238
5.262000,-1.483969
5.263000,-1.410145
5.264000,-1.517062
5.265000,-1.658346
5.266000,-1.789448
5.267000,-1.845452
5.268000,-1.830178
5.269000,-1.818723
5.270000,-1.830178
5.271000,-1.749990
5.272000,-1.412690
5.273000,-1.235767
5.274000,-1.310864
5.275000,-1.402508
5.276000,-1.438147
5.277000,-1.482696
5.278000,-1.524699
5.279000,-1.564157
5.280000,-1.553974
5.281000,-1.528518
5.282000,-1.509425
5.283000,-1.444511
5.284000,-1.466149
5.285000,-1.417782
5.286000,-1.220493
5.287000,-1.151760
5.288000,-0.832280
5.289000,-0.598079
5.290000,-0.704997
5.291000,-0.971018
5.292000,-1.280316
5.293000,-1.519608
5.294000,-1.690167
5.295000,-1.817450
5.296000,-1.870909
5.297000,-1.924368
5.298000,-2.002011
5.299000,-1.841634
5.300000,-1.819996
5.301000,-1.832724
5.302000,-1.704168
5.303000,-1.676166
5.304000,-1.686349
5.305000,-1.695259
5.306000,-1.553974
5.307000,-1.444511
5.308000,-1.487787
5.309000,-1.573067
5.310000,-1.590886
5.311000,-1.552702
5.312000,-1.463603
5.313000,-1.473786
5.314000,-1.275225
5.315000,-1.093210
5.316000,-1.030841
5.317000,-0.918832
5.318000,-0.973564
5.319000,-1.102120
5.320000,-1.164488
5.321000,-1.224311
5.322000,-1.220493
5.323000,-1.357959
5.324000,-1.659619
5.325000,-1.926914
5.326000,-2.293489
5.327000,-2.444955
5.328000,-2.330401
5.329000,-2.088563
5.330000,-1.921822
5.331000,-1.883637
5.332000,-1.817450
5.333000,-1.826360
5.334000,-1.793266
5.335000,-1.613797
5.336000,-1.467422
5.337000,-1.520881
5.338000,-1.505607
5.339000,-1.509425
5.340000,-1.389779
5.341000,-1.230676
5.342000,-1.130122
5.343000,-1.144123
5.344000,-1.135213
5.345000,-1.058844
5.346000,-1.172125
5.347000,-1.277770
5.348000,-1.327411
5.349000,-1.366868
5.350000,-1.483969
5.351000,-1.433056
5.352000,-1.436874
5.353000,-1.466149
5.354000,-1.682530
5.355000,-1.863272
5.356000,-1.902730
5.357000,-1.704168
5.358000,-1.545065
5.359000,-1.497970
5.360000,-1.449602
5.361000,-1.426691
5.362000,-1.461058
5.363000,-1.522154
5.364000,-1.525972
5.365000,-1.536155
5.366000,-1.393598
5.367000,-1.293044
5.368000,-1.233221
5.369000,-1.223039
5.370000,-1.251041
5.371000,-1.159397
5.372000,-0.921378
5.373000,-0.962108
5.374000,-1.114848
5.375000,-1.189945
5.376000,-1.318501
5.377000,-1.425419
5.378000,-1.529791
5.379000,-1.657074
5.380000,-1.669802
5.381000,-1.709260
5.382000,-1.819996
5.383000,-1.803449
5.384000,-1.788175
5.385000,-1.865818
5.386000,-1.783084
5.387000,-1.644345
5.388000,-1.429237
5.389000,-1.346503
5.390000,-1.393598
5.391000,-1.510698
5.392000,-1.522154
5.393000,-1.387234
5.394000,-1.238313
5.395000,-1.139032
5.396000,-1.239585
5.397000,-0.907377
5.398000,-0.960836
5.399000,-1.245950
5.400000,-1.427964
5.401000,-1.447057
5.402000,-1.480150
5.403000,-1.602342
5.404000,-1.711805
5.405000,-1.772901
5.406000,-1.876000
5.407000,-1.853089
5.408000,-1.882365
5.409000,-2.013466
5.410000,-1.961280
5.411000,-1.805995
5.412000,-1.733443
5.413000,-1.741080
5.414000,-1.840361
5.415000,-1.826360
5.416000,-1.707987
5.417000,-1.611252
5.418000,-1.576885
5.419000,-1.598523
5.420000,-1.611252
5.421000,-1.482696
5.422000,-1.225584
5.423000,-1.029568
5.424000,-1.107211
5.425000,-1.150487
5.426000,-1.121212
5.427000,-1.200128
5.428000,-1.326138
5.429000,-1.426691
5.430000,-1.380869
5.431000,-1.360504
5.432000,-1.431783
5.433000,-1.669802
5.434000,-2.010920
5.435000,-2.133112
5.436000,-2.066925
5.437000,-1.977827
5.438000,-1.822541
5.439000,-1.691440
5.440000,-1.632890
5.441000,-1.573067
5.442000,-1.445784
5.443000,-1.422873
5.444000,-1.326138
5.445000,-1.284134
5.446000,-1.284134
5.447000,-1.366868
5.448000,-1.433056
5.449000,-1.466149
5.450000,-1.435601
5.451000,-1.393598
5.452000,-1.402508
5.453000,-1.359231
5.454000,-1.276497
5.455000,-1.211583
5.456000,-0.951926
5.457000,-0.640082
5.458000,-0.698633
5.459000,-0.829734
5.460000,-0.976110
5.461000,-1.085573
5.462000,-1.186127
5.463000,-1.443238
5.464000,-1.503061
5.465000,-1.539973
5.466000,-1.581977
5.467000,-1.685076
5.468000,-1.869636
5.469000,-2.003283
5.470000,-2.073289
5.471000,-2.040195
5.472000,-2.005829
5.473000,-1.988009
5.474000,-1.882365
5.475000,-1.970190
5.476000,-1.975281
5.477000,-1.919277
5.478000,-1.812359
5.479000,-1.769083
5.480000,-1.695259
5.481000,-1.503061
5.482000,-1.415236
5.483000,-1.443238
5.484000,-1.291771
5.485000,-1.230676
5.486000,-1.298136
5.487000,-1.431783
5.488000,-1.504334
5.489000,-1.461058
5.490000,-1.434328
5.491000,-1.427964
5.492000,-1.312137
5.493000,-1.165761
5.494000,-1.142850
5.495000,-1.256132
5.496000,-1.247222
5.497000,-1.270133
5.498000,-1.265042
5.499000,-1.188672
5.500000,-1.010476
5.501000,-0.867919
5.502000,-0.777548
5.503000,-1.025750
5.504000,-1.336320
5.505000,-1.635435
5.506000,-1.837815
5.507000,-2.114020
5.508000,-2.173843
5.509000,-2.248940
5.510000,-2.087290
5.511000,-1.898911
5.512000,-1.921822
5.513000,-2.088563
5.514000,-2.074562
5.515000,-1.915458
5.516000,-1.772901
5.517000,-1.720715
5.518000,-1.664711
5.519000,-1.566703
5.520000,-1.471240
5.521000,-1.324865
5.522000,-1.174671
5.523000,-1.147942
5.524000,-1.125031
5.525000,-1.173398
5.526000,-1.179762
5.527000,-1.193763
5.528000,-1.343957
5.529000,-1.504334
5.530000,-1.601069
5.531000,-1.615070
5.532000,-1.606160
5.533000,-1.643072
5.534000,-1.748717
5.535000,-1.657074
5.536000,-1.612525
5.537000,-1.548883
5.538000,-1.461058
5.539000,-1.427964
5.540000,-1.394871
5.541000,-1.373233
5.542000,-1.273952
5.543000,-1.224311
5.544000,-1.280316
5.545000,-1.352867
5.546000,-1.262496
5.547000,-0.881920
5.548000,-0.664266
5.549000,-0.801732
5.550000,-1.000293
5.551000,-1.267588
5.552000,-1.601069
5.553000,-1.855635
5.554000,-2.060561
5.555000,-2.054197
5.556000,-2.070743
5.557000,-2.129294
5.558000,-2.030013
5.559000,-1.819996
5.560000,-1.795812
5.561000,-1.585795
5.562000,-1.434328
5.563000,-1.417782
5.564000,-1.373233
5.565000,-1.371960
5.566000,-1.406326
5.567000,-1.433056
5.568000,-1.397416
5.569000,-1.398689
5.570000,-1.397416
5.571000,-1.413963
5.572000,-1.436874
5.573000,-1.275225
5.574000,-1.196309
5.575000,-1.275225
5.576000,-1.366868
5.577000,-1.412690
5.578000,-1.417782
5.579000,-1.335048
5.580000,-1.369414
5.581000,-1.357959
5.582000,-1.405053
5.583000,-1.416509
5.584000,-1.550156
5.585000,-1.478877
5.586000,-1.391052
5.587000,-1.197582
5.588000,-1.342685
5.589000,-1.503061
5.590000,-1.643072
5.591000,-1.878546
5.592000,-1.996919
5.593000,-1.765264
5.594000,-1.725806
5.595000,-1.761446
5.596000,-1.797085
5.597000,-1.346503
5.598000,-1.279043
5.599000,-1.329956
5.600000,-1.453421
5.601000,-1.597251
5.602000,-1.710532
5.603000,-1.667256
5.604000,-1.667256
5.605000,-1.553974
5.606000,-1.464876
5.607000,-1.562884
5.608000,-1.765264
5.609000,-1.692713
5.610000,-1.356686
5.611000,-1.216674
5.612000,-1.243404
5.613000,-1.331229
5.614000,-1.420327
5.615000,-1.509425
5.616000,-1.603615
5.617000,-1.604888
5.618000,-1.562884
5.619000,-1.571794
5.620000,-1.593432
5.621000,-1.687622
5.622000,-1.817450
5.623000,-1.847998
5.624000,-1.797085
5.625000,-1.795812
5.626000,-1.837815
5.627000,-1.896366
5.628000,-1.826360
5.629000,-1.644345
5.630000,-1.416509
5.631000,-1.361777
5.632000,-1.275225
5.633000,-1.249768
5.634000,-1.355413
5.635000,-1.429237
5.636000,-1.343957
5.637000,-1.254859
5.638000,-1.323592
5.639000,-1.447057
5.640000,-1.486514
5.641000,-1.445784
5.642000,-1.555247
5.643000,-1.695259
5.644000,-1.700350
5.645000,-1.517062
5.646000,-1.329956
5.647000,-1.242131
5.648000,-1.257405
5.649000,-1.191218
5.650000,-1.159397
5.651000,-1.175944
5.652000,-1.201400
5.653000,-1.229403
5.654000,-1.249768
5.655000,-1.249768
5.656000,-1.286680
5.657000,-1.312137
5.658000,-1.427964
5.659000,-1.660892
5.660000,-1.594705
5.661000,-1.486514
5.662000,-1.538700
5.663000,-1.589614
5.664000,-1.682530
5.665000,-1.734716
5.666000,-1.780538
5.667000,-1.774174
5.668000,-1.701623
5.669000,-1.650709
5.670000,-1.636708
5.671000,-1.672348
5.672000,-1.676166
5.673000,-1.579431
5.674000,-1.439420
5.675000,-1.257405
5.676000,-1.198855
5.677000,-1.235767
5.678000,-1.164488
5.679000,-1.183581
5.680000,-1.258678
5.681000,-1.313410
5.682000,-1.522154
5.683000,-1.408872
5.684000,-1.329956
5.685000,-1.319774
5.686000,-1.505607
5.687000,-1.685076
5.688000,-1.790721
5.689000,-1.809813
5.690000,-1.729625
5.691000,-1.570521
5.692000,-1.555247
5.693000,-1.651982
5.694000,-1.687622
5.695000,-1.704168
5.696000,-1.733443
5.697000,-1.671075
5.698000,-1.634163
5.699000,-1.752536
5.700000,-1.691440
5.701000,-1.718169
5.702000,-1.587068
5.703000,-1.438147
5.704000,-1.333775
5.705000,-1.321046
5.706000,-1.279043
5.707000,-1.273952
5.708000,-1.219220
5.709000,-1.108484
5.710000,-0.432611
5.711000,-0.242959
5.712000,-0.455522
5.713000,-0.917559
5.714000,-1.369414
5.715000,-1.760173
5.716000,-1.933278
5.717000,-2.028740
5.718000,-1.999465
5.719000,-2.010920
5.720000,-2.042741
5.721000,-2.233666
5.722000,-2.525144
5.723000,-2.339310
5.724000,-1.940915
5.725000,-1.855635
5.726000,-1.616343
5.727000,-1.472513
5.728000,-1.555247
5.729000,-1.550156
5.730000,-1.500516
5.731000,-1.481423
5.732000,-1.494151
5.733000,-1.532336
5.734000,-1.461058
5.735000,-1.452148
5.736000,-1.445784
5.737000,-1.476332
5.738000,-1.441965
5.739000,-1.464876
5.740000,-1.441965
5.741000,-1.461058
5.742000,-1.392325
5.743000,-1.291771
5.744000,-1.275225
5.745000,-1.298136
5.746000,-1.296863
5.747000,-1.312137
5.748000,-1.349049
5.749000,-1.398689
5.750000,-1.475059
5.751000,-1.573067
5.752000,-1.543792
5.753000,-1.464876
5.754000,-1.440693
5.755000,-1.443238
5.756000,-1.413963
5.757000,-1.410145
5.758000,-1.421600
5.759000,-1.417782
5.760000,-1.407599
5.761000,-1.373233
5.762000,-1.189945
5.763000,-1.053752
5.764000,-0.884466
5.765000,-0.612080
5.766000,-0.828461
5.767000,-1.109757
5.768000,-1.312137
5.769000,-1.570521
5.770000,-1.728352
5.771000,-1.762718
5.772000,-1.823814
5.773000,-1.901457
5.774000,-2.017284
5.775000,-2.003283
5.776000,-1.728352
5.777000,-1.328683
5.778000,-1.144123
5.779000,-1.147942
5.780000,-1.368141
5.781000,-1.657074
5.782000,-1.864545
5.783000,-1.849271
5.784000,-1.793266
5.785000,-1.734716
5.786000,-1.822541
5.787000,-1.870909
5.788000,-1.841634
5.789000,-1.925641
5.790000,-1.961280
5.791000,-1.794539
5.792000,-1.580704
5.793000,-1.407599
5.794000,-1.303227
5.795000,-1.281589
5.796000,-1.248495
5.797000,-1.014294
5.798000,-0.503890
5.799000,-0.540802
5.800000,-0.808096
5.801000,-1.217947
5.802000,-1.406326
5.803000,-1.555247
5.804000,-1.616343
5.805000,-1.696531
5.806000,-1.821269
5.807000,-2.022376
5.808000,-2.182752
5.809000,-2.246394
5.810000,-2.082199
5.811000,-1.797085
5.812000,-1.752536
5.813000,-1.756354
5.814000,-1.776720
5.815000,-1.794539
5.816000,-1.807268
5.817000,-1.695259
5.818000,-1.604888
5.819000,-1.461058
5.820000,-1.455966
5.821000,-1.405053
5.822000,-1.347776
5.823000,-1.425419
5.824000,-1.351594
5.825000,-1.256132
5.826000,-1.301954
5.827000,-1.319774
5.828000,-1.351594
5.829000,-1.331229
5.830000,-1.261223
5.831000,-1.275225
5.832000,-1.287953
5.833000,-1.301954
5.834000,-1.234494
5.835000,-1.237040
5.836000,-1.237040
5.837000,-1.160670
5.838000,-1.200128
5.839000,-1.223039
5.840000,-1.275225
5.841000,-1.399962
5.842000,-1.505607
5.843000,-1.594705
5.844000,-1.723261
5.845000,-1.832724
5.846000,-1.856908
5.847000,-1.814905
5.848000,-1.774174
5.849000,-1.663438
5.850000,-1.412690
5.851000,-1.173398
5.852000,-1.331229
5.853000,-1.463603
5.854000,-1.529791
5.855000,-1.416509
5.856000,-1.481423
5.857000,-1.574340
5.858000,-1.564157
5.859000,-1.538700
5.860000,-1.739808
5.861000,-1.639254
5.862000,-1.634163
5.863000,-1.742353
5.864000,-1.565430
5.865000,-1.480150
5.866000,-1.542519
5.867000,-1.608706
5.868000,-1.648164
5.869000,-1.678712
5.870000,-1.523426
5.871000,-1.483969
5.872000,-1.480150
5.873000,-1.448329
5.874000,-1.477605
5.875000,-1.497970
5.876000,-1.553974
5.877000,-1.635435
5.878000,-1.529791
5.879000,-1.457239
5.880000,-1.388506
5.881000,-1.392325
5.882000,-1.328683
5.883000,-1.315955
5.884000,-1.293044
5.885000,-1.323592
5.886000,-1.231948
5.887000,-1.212856
5.888000,-1.127576
5.889000,-1.019386
5.890000,-0.971018
5.891000,-1.107211
5.892000,-1.368141
5.893000,-1.564157
5.894000,-1.613797
5.895000,-1.763991
5.896000,-1.662165
5.897000,-1.452148
5.898000,-1.417782
5.899000,-1.678712
5.900000,-1.825087
5.901000,-1.898911
5.902000,-1.989282
5.903000,-1.933278
5.904000,-1.907821
5.905000,-1.846725
5.906000,-1.769083
5.907000,-1.757627
5.908000,-1.795812
5.909000,-1.753809
5.910000,-1.763991
5.911000,-1.676166
5.912000,-1.609979
5.913000,-1.674893
5.914000,-1.693986
5.915000,-1.483969
5.916000,-1.407599
5.917000,-1.366868
5.918000,-1.346503
5.919000,-1.164488
5.920000,-1.112302
5.921000,-1.173398
5.922000,-1.170853
5.923000,-1.175944
5.924000,-1.270133
5.925000,-1.402508
5.926000,-1.519608
5.927000,-1.599796
5.928000,-1.654528
5.929000,-1.685076
5.930000,-1.667256
5.931000,-1.657074
5.932000,-1.417782
5.933000,-1.327411
5.934000,-1.328683
5.935000,-1.308318
5.936000,-1.405053
5.937000,-1.483969
5.938000,-1.548883
5.939000,-1.612525
5.940000,-1.598523
5.941000,-1.579431
5.942000,-1.458512
5.943000,-1.403780
5.944000,-1.361777
5.945000,-1.374505
5.946000,-1.150487
5.947000,-1.062662
5.948000,-1.193763
5.949000,-1.147942
5.950000,-1.179762
5.951000,-1.238313
5.952000,-1.351594
5.953000,-1.321046
5.954000,-1.298136
5.955000,-1.434328
5.956000,-1.611252
5.957000,-1.718169
5.958000,-1.752536
5.959000,-1.658346
5.960000,-1.688894
5.961000,-1.695259
5.962000,-1.697804
5.963000,-1.545065
5.964000,-1.483969
5.965000,-1.481423
5.966000,-1.492879
5.967000,-1.560339
5.968000,-1.585795
5.969000,-1.639254
5.970000,-1.632890
5.971000,-1.604888
5.972000,-1.560339
5.973000,-1.608706
5.974000,-1.606160
5.975000,-1.500516
5.976000,-1.515789
