LabVIEW Measurement,
Writer_Version,2
Reader_Version,2
Separator,Comma
Decimal_Separator,.
Multi_Headings,No
X_Columns,Multi
Time_Pref,Absolute
Operator,Dymnz
Date,2017/08/09
Time,15:24:46.9113651833528990256
***End_of_Header***,
,
Channels,1,
Samples,1000,
Date,2017/08/09,
Time,15:24:46.9113651833528990256,
Y_Unit_Label,Volts,
X_Dimension,Time,
X0,0.0000000000000000E+0,
Delta_X,0.001000,
***End_of_Header***,,
X_Value,Voltage,Comment
0.000000,-2.140749
0.001000,-1.883637
0.002000,-2.162387
0.003000,-2.190389
0.004000,-1.956189
0.005000,-1.865818
0.006000,-2.087290
0.007000,-2.206936
0.008000,-2.066925
0.009000,-1.776720
0.010000,-1.482696
0.011000,-1.397416
0.012000,-1.387234
0.013000,-1.079209
0.014000,-1.071572
0.015000,-0.976110
0.016000,-0.913741
0.017000,-0.918832
0.018000,-0.912468
0.019000,-0.692268
0.020000,-0.814460
0.021000,-1.048661
0.022000,-1.298136
0.023000,-1.499243
0.024000,-1.396143
0.025000,-0.917559
0.026000,-1.035933
0.027000,-1.364323
0.028000,-1.478877
0.029000,-1.621434
0.030000,-1.142850
0.031000,-1.160670
0.032000,-1.570521
0.033000,-1.743626
0.034000,-1.559066
0.035000,-1.571794
0.036000,-1.794539
0.037000,-1.939642
0.038000,-2.004556
0.039000,-2.111474
0.040000,-2.115292
0.041000,-1.952370
0.042000,-1.574340
0.043000,-1.267588
0.044000,-1.275225
0.045000,-1.382142
0.046000,-1.131395
0.047000,-1.435601
0.048000,-1.340139
0.049000,-0.752091
0.050000,-0.376607
0.051000,-0.535710
0.052000,-0.908650
0.053000,-1.065208
0.054000,-1.560339
0.055000,-1.911640
0.056000,-2.030013
0.057000,-1.960007
0.058000,-1.878546
0.059000,-1.900184
0.060000,-2.028740
0.061000,-1.975281
0.062000,-1.569248
0.063000,-1.473786
0.064000,-1.277770
0.065000,-0.982474
0.066000,-1.108484
0.067000,-0.950653
0.068000,-0.645174
0.069000,-1.132668
0.070000,-1.643072
0.071000,-2.119111
0.072000,-2.572238
0.073000,-2.624424
0.074000,-2.506051
0.075000,-2.285852
0.076000,-2.084744
0.077000,-2.187844
0.078000,-2.472958
0.079000,-2.582421
0.080000,-2.346947
0.081000,-2.270578
0.082000,-1.909094
0.083000,-1.641800
0.084000,-1.547610
0.085000,-1.383415
0.086000,-1.230676
0.087000,-1.267588
0.088000,-0.939197
0.089000,-0.643901
0.090000,-0.136042
0.091000,-0.220049
0.092000,-0.497525
0.093000,-0.769911
0.094000,-0.690996
0.095000,0.000151
0.096000,0.220351
0.097000,0.002697
0.098000,-0.585351
0.099000,-1.091937
0.100000,-1.662165
0.101000,-2.125475
0.102000,-2.306217
0.103000,-1.393598
0.104000,-0.890830
0.105000,-1.097028
0.106000,-1.830178
0.107000,-2.600241
0.108000,-3.097917
0.109000,-3.223927
0.110000,-3.398305
0.111000,-3.138648
0.112000,-2.681702
0.113000,-2.324037
0.114000,-2.051651
0.115000,-1.794539
0.116000,-1.445784
0.117000,-0.771184
0.118000,-0.124586
0.119000,-0.058399
0.120000,-0.125859
0.121000,-0.380425
0.122000,-0.722816
0.123000,-1.126303
0.124000,-1.256132
0.125000,-1.141577
0.126000,-1.427964
0.127000,-1.821269
0.128000,-2.180207
0.129000,-2.441137
0.130000,-2.479322
0.131000,-2.433500
0.132000,-2.341856
0.133000,-2.301126
0.134000,-2.152204
0.135000,-1.429237
0.136000,-0.787731
0.137000,-0.656629
0.138000,-0.803005
0.139000,-1.071572
0.140000,-1.077936
0.141000,-1.016840
0.142000,-0.883193
0.143000,-0.759728
0.144000,-0.390608
0.145000,-0.590442
0.146000,-1.020659
0.147000,-0.806823
0.148000,-0.412246
0.149000,-0.318056
0.150000,-0.633718
0.151000,-1.300681
0.152000,-1.659619
0.153000,-2.058015
0.154000,-2.437318
0.155000,-2.564601
0.156000,-2.522598
0.157000,-2.372404
0.158000,-2.270578
0.159000,-2.442410
0.160000,-2.890446
0.161000,-2.913357
0.162000,-2.103837
0.163000,-1.025750
0.164000,-0.873010
0.165000,-1.144123
0.166000,-1.424146
0.167000,-1.553974
0.168000,-1.719442
0.169000,-1.672348
0.170000,-1.651982
0.171000,-1.517062
0.172000,-1.677439
0.173000,-2.355857
0.174000,-3.110645
0.175000,-2.688066
0.176000,-1.191218
0.177000,0.135071
0.178000,0.627656
0.179000,0.304357
0.180000,-0.502617
0.181000,-1.422873
0.182000,-2.116565
0.183000,-2.368586
0.184000,-2.517507
0.185000,-2.531508
0.186000,-2.316400
0.187000,-2.275669
0.188000,-2.363494
0.189000,-2.306217
0.190000,-2.181480
0.191000,-1.426691
0.192000,0.338724
0.193000,0.950955
0.194000,0.585653
0.195000,-0.170408
0.196000,-0.943016
0.197000,-1.639254
0.198000,-2.166206
0.199000,-2.357130
0.200000,-2.354584
0.201000,-2.251485
0.202000,-2.410589
0.203000,-2.509870
0.204000,-2.320218
0.205000,-2.013466
0.206000,-1.500516
0.207000,-1.077936
0.208000,-0.839917
0.209000,-0.596806
0.210000,-0.372788
0.211000,-0.419883
0.212000,-0.599352
0.213000,-0.941743
0.214000,-1.169580
0.215000,-1.177217
0.216000,-0.809369
0.217000,-0.664266
0.218000,-0.786458
0.219000,-1.310864
0.220000,-1.643072
0.221000,-1.234494
0.222000,-1.280316
0.223000,-1.501788
0.224000,-1.881092
0.225000,-1.920549
0.226000,-2.136931
0.227000,-2.410589
0.228000,-2.677883
0.229000,-2.770800
0.230000,-2.598968
0.231000,-2.369858
0.232000,-2.349493
0.233000,-1.868363
0.234000,-1.702895
0.235000,-2.150932
0.236000,-1.938369
0.237000,-1.580704
0.238000,-1.705441
0.239000,-1.587068
0.240000,-1.585795
0.241000,-1.219220
0.242000,-1.041024
0.243000,-1.133940
0.244000,-0.923924
0.245000,-0.390608
0.246000,-0.380425
0.247000,-0.600625
0.248000,-0.792822
0.249000,-0.987565
0.250000,-0.953199
0.251000,-0.748273
0.252000,-0.752091
0.253000,-1.060116
0.254000,-1.447057
0.255000,-1.644345
0.256000,-1.552702
0.257000,-1.072845
0.258000,-0.488616
0.259000,-0.442794
0.260000,-1.249768
0.261000,-2.204390
0.262000,-2.834441
0.263000,-3.049550
0.264000,-3.024093
0.265000,-2.840805
0.266000,-2.377495
0.267000,-2.413135
0.268000,-2.471685
0.269000,-2.273123
0.270000,-2.330401
0.271000,-2.167478
0.272000,-2.120384
0.273000,-2.035104
0.274000,-1.534882
0.275000,-1.042297
0.276000,-0.780094
0.277000,-0.745727
0.278000,-1.047388
0.279000,-1.011749
0.280000,-1.048661
0.281000,-1.020659
0.282000,-1.100847
0.283000,-0.941743
0.284000,-0.479706
0.285000,-0.207320
0.286000,-0.180591
0.287000,-0.520436
0.288000,-0.396972
0.289000,-0.460613
0.290000,-0.838644
0.291000,-1.356686
0.292000,-1.859454
0.293000,-2.338038
0.294000,-2.794984
0.295000,-3.122101
0.296000,-2.812803
0.297000,-2.036377
0.298000,-1.553974
0.299000,-1.123758
0.300000,-0.548439
0.301000,0.422731
0.302000,0.611109
0.303000,0.208895
0.304000,-0.584078
0.305000,-1.319774
0.306000,-1.760173
0.307000,-2.089836
0.308000,-2.182752
0.309000,-2.723705
0.310000,-3.352483
0.311000,-3.857797
0.312000,-4.243464
0.313000,-3.931621
0.314000,-3.388122
0.315000,-2.956633
0.316000,-1.939642
0.317000,-1.126303
0.318000,-1.041024
0.319000,-1.203946
0.320000,-1.349049
0.321000,-1.361777
0.322000,-0.660448
0.323000,0.161800
0.324000,0.345088
0.325000,0.017971
0.326000,-0.403336
0.327000,-1.001566
0.328000,-1.536155
0.329000,-1.957461
0.330000,-1.951097
0.331000,-1.850544
0.332000,-2.028740
0.333000,-2.096200
0.334000,-1.598523
0.335000,-1.485242
0.336000,-1.424146
0.337000,-1.667256
0.338000,-1.504334
0.339000,-0.888284
0.340000,-0.609535
0.341000,-0.627354
0.342000,-0.055853
0.343000,-0.353696
0.344000,-1.005385
0.345000,-1.584522
0.346000,-1.775447
0.347000,-2.156023
0.348000,-2.184025
0.349000,-2.250212
0.350000,-1.803449
0.351000,-1.490333
0.352000,-1.444511
0.353000,-1.431783
0.354000,-0.786458
0.355000,-0.804278
0.356000,-1.392325
0.357000,-1.839088
0.358000,-2.027467
0.359000,-2.192935
0.360000,-2.380041
0.361000,-2.217119
0.362000,-1.715624
0.363000,-1.594705
0.364000,-1.646891
0.365000,-1.427964
0.366000,-1.346503
0.367000,-1.338866
0.368000,-1.137759
0.369000,-1.149214
0.370000,-0.619717
0.371000,0.110887
0.372000,-0.276053
0.373000,-0.809369
0.374000,-1.229403
0.375000,-1.378324
0.376000,-1.421600
0.377000,-1.508152
0.378000,-1.497970
0.379000,-1.350322
0.380000,-1.504334
0.381000,-1.986737
0.382000,-2.598968
0.383000,-2.741525
0.384000,-2.742798
0.385000,-2.854807
0.386000,-2.759344
0.387000,-2.586239
0.388000,-2.532781
0.389000,-2.257849
0.390000,-1.653255
0.391000,-1.422873
0.392000,-0.932833
0.393000,-0.610807
0.394000,-0.676995
0.395000,-0.920105
0.396000,-1.256132
0.397000,-1.574340
0.398000,-1.849271
0.399000,-1.962553
0.400000,-1.531063
0.401000,-1.228130
0.402000,-1.340139
0.403000,-1.315955
0.404000,-1.422873
0.405000,-1.601069
0.406000,-1.626526
0.407000,-1.023204
0.408000,-0.675722
0.409000,-0.879374
0.410000,-1.219220
0.411000,-1.112302
0.412000,-1.074117
0.413000,-0.155134
0.414000,-0.445339
0.415000,-0.899740
0.416000,-1.102120
0.417000,-1.389779
0.418000,-1.509425
0.419000,-1.546337
0.420000,-1.606160
0.421000,-1.769083
0.422000,-1.839088
0.423000,-1.225584
0.424000,-1.155579
0.425000,-1.500516
0.426000,-2.265486
0.427000,-2.367313
0.428000,-1.747445
0.429000,-1.163216
0.430000,-1.021931
0.431000,-1.378324
0.432000,-1.606160
0.433000,-1.988009
0.434000,-2.572238
0.435000,-2.660064
0.436000,-2.346947
0.437000,-2.166206
0.438000,-1.751263
0.439000,-1.755082
0.440000,-1.965098
0.441000,-1.972735
0.442000,-2.158569
0.443000,-2.248940
0.444000,-2.212027
0.445000,-1.905275
0.446000,-1.729625
0.447000,-1.426691
0.448000,-1.191218
0.449000,-0.951926
0.450000,-0.981201
0.451000,-1.161943
0.452000,-1.224311
0.453000,-1.179762
0.454000,-0.817006
0.455000,-0.587896
0.456000,-0.488616
0.457000,-0.534438
0.458000,-0.757183
0.459000,-0.964654
0.460000,-1.145396
0.461000,-1.361777
0.462000,-1.697804
0.463000,-1.940915
0.464000,-1.850544
0.465000,-1.615070
0.466000,-1.429237
0.467000,-1.627799
0.468000,-1.608706
0.469000,-1.545065
0.470000,-1.377051
0.471000,-0.598079
0.472000,-0.403336
0.473000,-0.729181
0.474000,-1.265042
0.475000,-1.364323
0.476000,-1.522154
0.477000,-1.785629
0.478000,-2.172570
0.479000,-2.288397
0.480000,-2.422044
0.481000,-2.679156
0.482000,-2.182752
0.483000,-1.896366
0.484000,-0.965927
0.485000,-1.033387
0.486000,-1.436874
0.487000,-1.812359
0.488000,-2.031286
0.489000,-1.901457
0.490000,-0.290054
0.491000,0.154163
0.492000,-0.038034
0.493000,-0.678267
0.494000,-1.464876
0.495000,-2.044014
0.496000,-2.601513
0.497000,-2.951542
0.498000,-2.806439
0.499000,-2.610423
0.500000,-2.010920
0.501000,-1.261223
0.502000,-0.399518
0.503000,0.082885
0.504000,-0.114404
0.505000,-0.179318
0.506000,-0.346059
0.507000,-0.957017
0.508000,-1.685076
0.509000,-2.162387
0.510000,-2.503506
0.511000,-2.772073
0.512000,-2.812803
0.513000,-2.920994
0.514000,-2.915902
0.515000,-2.565874
0.516000,-2.301126
0.517000,-1.881092
0.518000,-1.588341
0.519000,-1.313410
0.520000,-0.790276
0.521000,-0.612080
0.522000,-0.805550
0.523000,-0.875556
0.524000,-1.030841
0.525000,-1.179762
0.526000,-0.675722
0.527000,-0.594261
0.528000,-0.572622
0.529000,-1.188672
0.530000,-1.842907
0.531000,-2.073289
0.532000,-2.237484
0.533000,-2.251485
0.534000,-1.867091
0.535000,-1.296863
0.536000,-1.046115
0.537000,-1.477605
0.538000,-1.766537
0.539000,-1.797085
0.540000,-1.972735
0.541000,-2.046560
0.542000,-1.988009
0.543000,-1.998192
0.544000,-2.035104
0.545000,-2.064379
0.546000,-2.119111
0.547000,-2.055469
0.548000,-1.777992
0.549000,-1.478877
0.550000,-0.674449
0.551000,-0.087674
0.552000,-0.012577
0.553000,-0.213684
0.554000,-0.704997
0.555000,-1.359231
0.556000,-1.693986
0.557000,-1.833997
0.558000,-1.966371
0.559000,-1.937096
0.560000,-1.918004
0.561000,-1.772901
0.562000,-1.709260
0.563000,-1.774174
0.564000,-1.762718
0.565000,-1.272679
0.566000,-0.696087
0.567000,0.427822
0.568000,0.533467
0.569000,0.225442
0.570000,-0.935379
0.571000,-1.687622
0.572000,-1.607433
0.573000,-1.527245
0.574000,-1.728352
0.575000,-1.822541
0.576000,-1.988009
0.577000,-2.303671
0.578000,-2.521325
0.579000,-2.343129
0.580000,-1.981645
0.581000,-2.060561
0.582000,-1.865818
0.583000,-2.041468
0.584000,-1.648164
0.585000,-0.564985
0.586000,-0.636264
0.587000,-0.624808
0.588000,-0.755910
0.589000,-1.335048
0.590000,-1.850544
0.591000,-2.208209
0.592000,-2.484413
0.593000,-2.432227
0.594000,-2.051651
0.595000,-2.026194
0.596000,-1.346503
0.597000,-0.787731
0.598000,-0.827188
0.599000,-0.866646
0.600000,-0.887011
0.601000,-0.729181
0.602000,-0.491161
0.603000,-0.932833
0.604000,-1.403780
0.605000,-1.651982
0.606000,-2.205663
0.607000,-2.504778
0.608000,-2.728796
0.609000,-2.624424
0.610000,-2.455138
0.611000,-2.369858
0.612000,-2.260395
0.613000,-1.587068
0.614000,-0.522982
0.615000,-0.119495
0.616000,-0.295146
0.617000,-0.945562
0.618000,-1.566703
0.619000,-1.937096
0.620000,-2.357130
0.621000,-2.628243
0.622000,-2.548055
0.623000,-2.490777
0.624000,-2.354584
0.625000,-2.082199
0.626000,-1.925641
0.627000,-1.729625
0.628000,-1.612525
0.629000,-1.393598
0.630000,-1.229403
0.631000,-1.193763
0.632000,-1.139032
0.633000,-0.943016
0.634000,-0.087674
0.635000,0.374363
0.636000,-0.058399
0.637000,-0.484797
0.638000,-0.652811
0.639000,-1.002839
0.640000,-1.322319
0.641000,-1.070299
0.642000,-1.178490
0.643000,-1.397416
0.644000,-1.960007
0.645000,-2.425863
0.646000,-2.432227
0.647000,-2.344402
0.648000,-2.017284
0.649000,-1.248495
0.650000,-0.422429
0.651000,0.007788
0.652000,-0.377879
0.653000,-0.651538
0.654000,-1.203946
0.655000,-1.562884
0.656000,-1.584522
0.657000,-1.858181
0.658000,-2.231120
0.659000,-2.078380
0.660000,-1.643072
0.661000,-1.397416
0.662000,-1.234494
0.663000,-1.783084
0.664000,-1.705441
0.665000,-1.818723
0.666000,-2.117838
0.667000,-2.676610
0.668000,-2.348220
0.669000,-1.538700
0.670000,-1.476332
0.671000,-1.679985
0.672000,-1.508152
0.673000,-1.214129
0.674000,-1.198855
0.675000,-1.132668
0.676000,-1.221766
0.677000,-1.191218
0.678000,-0.913741
0.679000,-1.007930
0.680000,-1.532336
0.681000,-1.173398
0.682000,-1.072845
0.683000,-1.695259
0.684000,-2.240030
0.685000,-2.329128
0.686000,-2.667701
0.687000,-2.859898
0.688000,-2.979544
0.689000,-2.680429
0.690000,-1.287953
0.691000,-0.720271
0.692000,-0.530619
0.693000,-0.711361
0.694000,-1.167034
0.695000,-1.569248
0.696000,-1.719442
0.697000,-1.520881
0.698000,-0.853918
0.699000,-0.572622
0.700000,-0.842462
0.701000,-1.441965
0.702000,-1.823814
0.703000,-2.185298
0.704000,-2.278215
0.705000,-2.152204
0.706000,-2.131839
0.707000,-2.142022
0.708000,-2.173843
0.709000,-2.359676
0.710000,-2.471685
0.711000,-2.486959
0.712000,-2.259122
0.713000,-1.883637
0.714000,-1.581977
0.715000,-1.294317
0.716000,-0.823370
0.717000,-0.859009
0.718000,-1.203946
0.719000,-1.412690
0.720000,-1.509425
0.721000,-1.552702
0.722000,-1.388506
0.723000,-1.363050
0.724000,-1.066480
0.725000,-0.878102
0.726000,-1.107211
0.727000,-1.408872
0.728000,-1.644345
0.729000,-1.799631
0.730000,-1.784357
0.731000,-1.609979
0.732000,-1.326138
0.733000,-0.996475
0.734000,-0.837371
0.735000,-0.431338
0.736000,-0.310419
0.737000,-0.071127
0.738000,-0.085129
0.739000,-0.164044
0.740000,0.093068
0.741000,0.150345
0.742000,-0.031670
0.743000,0.272537
0.744000,0.249626
0.745000,-0.776275
0.746000,-1.900184
0.747000,-2.923539
0.748000,-3.346119
0.749000,-2.789892
0.750000,-2.003283
0.751000,-1.709260
0.752000,-1.546337
0.753000,-1.757627
0.754000,-2.199299
0.755000,-1.858181
0.756000,-0.708815
0.757000,-0.427520
0.758000,-0.876829
0.759000,-1.821269
0.760000,-2.637153
0.761000,-3.184470
0.762000,-3.271022
0.763000,-3.122101
0.764000,-3.092826
0.765000,-2.912084
0.766000,-2.816622
0.767000,-2.801348
0.768000,-2.587512
0.769000,-2.349493
0.770000,-2.124202
0.771000,-1.977827
0.772000,-1.693986
0.773000,-1.637981
0.774000,-1.505607
0.775000,-1.480150
0.776000,-1.392325
0.777000,-1.074117
0.778000,-0.717725
0.779000,-0.372788
0.780000,-0.100403
0.781000,0.100705
0.782000,-0.286236
0.783000,-0.329512
0.784000,-0.304055
0.785000,-0.460613
0.786000,-0.469523
0.787000,-0.357514
0.788000,-0.620990
0.789000,-0.959563
0.790000,-1.290499
0.791000,-1.593432
0.792000,-1.905275
0.793000,-2.021103
0.794000,-1.692713
0.795000,-1.655801
0.796000,-1.609979
0.797000,-1.665983
0.798000,-1.940915
0.799000,-2.002011
0.800000,-1.948552
0.801000,-1.933278
0.802000,-1.655801
0.803000,-1.667256
0.804000,-2.094927
0.805000,-2.247667
0.806000,-2.196754
0.807000,-1.896366
0.808000,-1.686349
0.809000,-1.859454
0.810000,-2.019830
0.811000,-2.091109
0.812000,-1.975281
0.813000,-1.608706
0.814000,-1.421600
0.815000,-1.483969
0.816000,-1.599796
0.817000,-1.244677
0.818000,-0.936652
0.819000,-0.567531
0.820000,-0.525528
0.821000,-0.903558
0.822000,-1.326138
0.823000,-1.387234
0.824000,-0.887011
0.825000,-0.689723
0.826000,-0.847554
0.827000,-0.450431
0.828000,0.404911
0.829000,0.259808
0.830000,-0.342240
0.831000,-1.104665
0.832000,-1.910367
0.833000,-2.572238
0.834000,-3.120828
0.835000,-3.049550
0.836000,-2.626970
0.837000,-2.427136
0.838000,-2.647335
0.839000,-2.635880
0.840000,-2.570966
0.841000,-1.683803
0.842000,-1.346503
0.843000,-1.506880
0.844000,-1.812359
0.845000,-2.354584
0.846000,-2.681702
0.847000,-2.582421
0.848000,-2.427136
0.849000,-1.998192
0.850000,-0.949380
0.851000,-0.123313
0.852000,0.166892
0.853000,0.016698
0.854000,-0.293873
0.855000,-0.600625
0.856000,-1.013022
0.857000,-1.326138
0.858000,-1.197582
0.859000,-1.256132
0.860000,-1.682530
0.861000,-2.311308
0.862000,-2.775891
0.863000,-2.964270
0.864000,-2.705886
0.865000,-2.424590
0.866000,-2.120384
0.867000,-1.483969
0.868000,-0.904831
0.869000,-0.870465
0.870000,-1.000293
0.871000,-1.112302
0.872000,-1.261223
0.873000,-1.396143
0.874000,-1.621434
0.875000,-1.584522
0.876000,-1.070299
0.877000,-0.390608
0.878000,0.107069
0.879000,-0.071127
0.880000,-0.315511
0.881000,-0.241687
0.882000,-0.320602
0.883000,-0.384244
0.884000,-0.419883
0.885000,-0.533165
0.886000,-1.155579
0.887000,-2.234938
0.888000,-3.479766
0.889000,-3.794155
0.890000,-3.548499
0.891000,-3.381758
0.892000,-3.333391
0.893000,-2.661336
0.894000,-1.953643
0.895000,-0.930288
0.896000,-0.483524
0.897000,-0.596806
0.898000,-0.907377
0.899000,-1.453421
0.900000,-1.536155
0.901000,-1.631617
0.902000,-1.741080
0.903000,-1.459785
0.904000,-1.491606
0.905000,-1.261223
0.906000,-0.710088
0.907000,-0.636264
0.908000,-0.909922
0.909000,-1.211583
0.910000,-0.879374
0.911000,-1.229403
0.912000,-1.154306
0.913000,-0.729181
0.914000,-0.920105
0.915000,-1.368141
0.916000,-1.928186
0.917000,-2.436046
0.918000,-2.858625
0.919000,-3.059732
0.920000,-3.250657
0.921000,-2.993545
0.922000,-2.634607
0.923000,-2.602786
0.924000,-2.718614
0.925000,-2.307490
0.926000,-1.948552
0.927000,-1.651982
0.928000,-1.464876
0.929000,-1.220493
0.930000,-1.165761
0.931000,-1.188672
0.932000,-1.303227
0.933000,-1.481423
0.934000,-1.606160
0.935000,-0.791549
0.936000,-0.382971
0.937000,-0.571350
0.938000,-0.839917
0.939000,-0.918832
0.940000,-0.874283
0.941000,-0.510254
0.942000,-0.106767
0.943000,0.048519
0.944000,-0.054581
0.945000,-0.265870
0.946000,-0.176772
0.947000,-0.805550
0.948000,-1.319774
0.949000,-1.980372
0.950000,-2.597695
0.951000,-3.063551
0.952000,-3.255748
0.953000,-3.215018
0.954000,-3.117010
0.955000,-2.941359
0.956000,-2.607878
0.957000,-1.867091
0.958000,-1.301954
0.959000,-0.484797
0.960000,-0.095311
0.961000,-0.071127
0.962000,-0.106767
0.963000,-0.547166
0.964000,-1.189945
0.965000,-1.695259
0.966000,-1.883637
0.967000,-2.000738
0.968000,-2.245121
0.969000,-2.231120
0.970000,-1.592159
0.971000,-0.451704
0.972000,0.224169
0.973000,1.396446
0.974000,1.521183
0.975000,1.122787
0.976000,0.383273
0.977000,-0.927742
0.978000,-2.262941
0.979000,-3.178105
0.980000,-3.885799
0.981000,-4.172186
0.982000,-4.407659
0.983000,-4.594765
0.984000,-4.557853
0.985000,-4.047448
0.986000,-3.120828
0.987000,-2.568420
0.988000,-2.033831
0.989000,-1.797085
0.990000,-1.525972
0.991000,-1.421600
0.992000,-1.447057
0.993000,-1.389779
0.994000,-1.457239
0.995000,-1.468695
0.996000,-1.263769
0.997000,-1.160670
0.998000,-0.985019
0.999000,-0.725362
1.000000,-0.130950
1.001000,0.247080
1.002000,0.278901
1.003000,0.522011
1.004000,0.746029
1.005000,0.418912
1.006000,-0.090220
1.007000,-0.783912
1.008000,-1.071572
1.009000,-1.219220
1.010000,-2.052924
1.011000,-2.773345
1.012000,-2.973180
1.013000,-2.822986
1.014000,-2.588785
1.015000,-2.596422
1.016000,-2.623152
1.017000,-2.303671
1.018000,-1.646891
1.019000,-0.936652
1.020000,-0.492434
1.021000,-0.220049
1.022000,-0.614626
1.023000,-1.406326
1.024000,-1.897638
1.025000,-2.089836
1.026000,-2.298580
1.027000,-2.298580
1.028000,-1.993101
1.029000,-1.877273
1.030000,-1.229403
1.031000,-0.885739
1.032000,-0.960836
1.033000,-0.587896
1.034000,0.324723
1.035000,0.308176
1.036000,0.127434
1.037000,-0.218776
1.038000,-0.656629
1.039000,-1.257405
1.040000,-1.870909
1.041000,-2.290943
1.042000,-2.508597
1.043000,-2.562056
1.044000,-2.418226
1.045000,-1.617616
1.046000,-0.834825
1.047000,-1.195036
1.048000,-2.074562
1.049000,-2.867535
1.050000,-3.436490
1.051000,-3.292660
1.052000,-3.095371
1.053000,-2.312581
1.054000,-1.629071
1.055000,-1.303227
1.056000,-1.090664
1.057000,-1.042297
1.058000,-1.424146
1.059000,-1.742353
1.060000,-2.007102
1.061000,-1.765264
1.062000,-1.655801
1.063000,-1.993101
1.064000,-1.546337
1.065000,-0.267143
1.066000,0.267445
1.067000,-0.072400
1.068000,-0.796641
1.069000,-1.702895
1.070000,-2.223483
1.071000,-2.324037
1.072000,-2.070743
1.073000,-1.783084
1.074000,-1.655801
1.075000,-1.784357
1.076000,-2.126748
1.077000,-2.402952
1.078000,-2.275669
1.079000,-2.220937
1.080000,-2.092381
1.081000,-1.854362
1.082000,-1.789448
1.083000,-1.658346
1.084000,-1.447057
1.085000,-0.964654
1.086000,-0.699905
1.087000,-0.911195
1.088000,-1.327411
1.089000,-1.676166
1.090000,-1.422873
1.091000,-0.694814
1.092000,-0.410973
1.093000,-0.025306
1.094000,0.033245
1.095000,-0.400790
1.096000,-1.041024
1.097000,-1.634163
1.098000,-2.069471
1.099000,-2.103837
1.100000,-2.012193
1.101000,-1.909094
1.102000,-1.524699
1.103000,-1.081754
1.104000,-0.015123
1.105000,0.506737
1.106000,0.239443
1.107000,-0.542075
1.108000,-1.229403
1.109000,-1.724534
1.110000,-1.984191
1.111000,-2.283306
1.112000,-2.928631
1.113000,-3.030457
1.114000,-2.863716
1.115000,-2.666428
1.116000,-2.441137
1.117000,-1.585795
1.118000,-0.986292
1.119000,-0.731726
1.120000,-0.852645
1.121000,-0.340967
1.122000,-0.251869
1.123000,-0.735545
1.124000,-1.426691
1.125000,-1.895093
1.126000,-2.097473
1.127000,-2.534053
1.128000,-3.002455
1.129000,-2.820440
1.130000,-2.467866
1.131000,-2.502233
1.132000,-2.088563
1.133000,-1.660892
1.134000,-1.476332
1.135000,-1.511971
1.136000,-1.644345
1.137000,-1.786902
1.138000,-1.761446
1.139000,-1.734716
1.140000,-1.721988
1.141000,-1.519608
1.142000,-1.231948
1.143000,-0.920105
1.144000,-0.666812
1.145000,-0.710088
1.146000,-0.608262
1.147000,0.173256
1.148000,0.786760
1.149000,0.662023
1.150000,0.612382
1.151000,-0.057126
1.152000,-0.740636
1.153000,-1.219220
1.154000,-1.639254
1.155000,-2.080926
1.156000,-2.497141
1.157000,-2.915902
1.158000,-2.534053
1.159000,-1.674893
1.160000,-1.566703
1.161000,-1.916731
1.162000,-2.068198
1.163000,-2.320218
1.164000,-2.640971
1.165000,-2.639698
1.166000,-2.653699
1.167000,-2.591331
1.168000,-2.372404
1.169000,-2.348220
1.170000,-2.005829
1.171000,-1.739808
1.172000,-1.612525
1.173000,-1.086846
1.174000,-0.811914
1.175000,-0.860282
1.176000,-0.673176
1.177000,-0.074946
1.178000,-0.091493
1.179000,-0.633718
1.180000,-1.197582
1.181000,-1.444511
1.182000,-1.678712
1.183000,-1.907821
1.184000,-2.135658
1.185000,-2.262941
1.186000,-2.133112
1.187000,-2.120384
1.188000,-2.262941
1.189000,-2.058015
1.190000,-1.295590
1.191000,-0.722816
1.192000,-0.707542
1.193000,-0.913741
1.194000,-1.084300
1.195000,-1.186127
1.196000,-1.319774
1.197000,-1.370687
1.198000,-1.277770
1.199000,-0.804278
1.200000,-0.879374
1.201000,-1.107211
1.202000,-1.327411
1.203000,-1.802176
1.204000,-1.785629
1.205000,-1.067753
1.206000,-0.669358
1.207000,-0.394426
1.208000,-0.542075
1.209000,-1.261223
1.210000,-2.298580
1.211000,-3.078825
1.212000,-3.425034
1.213000,-3.192107
1.214000,-2.932449
1.215000,-2.577330
1.216000,-2.471685
1.217000,-2.369858
1.218000,-1.982918
1.219000,-1.705441
1.220000,-1.111030
1.221000,-0.553530
1.222000,0.281446
1.223000,1.009505
1.224000,0.613655
1.225000,0.352725
1.226000,-0.100403
1.227000,-0.907377
1.228000,-1.713078
1.229000,-2.380041
1.230000,-3.055914
1.231000,-3.603231
1.232000,-3.750879
1.233000,-3.313025
1.234000,-2.940086
1.235000,-2.322764
1.236000,-2.142022
1.237000,-1.634163
1.238000,-1.201400
1.239000,-1.117394
1.240000,-1.149214
1.241000,-1.141577
1.242000,-0.982474
1.243000,-0.526801
1.244000,0.189803
1.245000,0.893678
1.246000,0.649294
1.247000,-0.225140
1.248000,-1.100847
1.249000,-1.827633
1.250000,-2.411862
1.251000,-2.662609
1.252000,-2.411862
1.253000,-2.092381
1.254000,-1.791994
1.255000,-1.721988
1.256000,-2.091109
1.257000,-2.269305
1.258000,-2.213300
1.259000,-2.091109
1.260000,-2.096200
1.261000,-1.993101
1.262000,-1.756354
1.263000,-1.394871
1.264000,-1.146669
1.265000,-0.993929
1.266000,-1.202673
1.267000,-1.275225
1.268000,-1.164488
1.269000,-1.128849
1.270000,-1.112302
1.271000,-1.258678
1.272000,-0.991384
1.273000,-0.701178
1.274000,-0.591715
1.275000,-0.226413
1.276000,0.462188
1.277000,0.287811
1.278000,-0.465705
1.279000,-1.346503
1.280000,-2.196754
1.281000,-2.742798
1.282000,-3.085189
1.283000,-3.150103
1.284000,-2.838260
1.285000,-2.416953
1.286000,-1.780538
1.287000,-1.117394
1.288000,-0.918832
1.289000,-1.360504
1.290000,-1.835270
1.291000,-1.774174
1.292000,-1.546337
1.293000,-1.261223
1.294000,-1.220493
1.295000,-1.329956
1.296000,-1.410145
1.297000,-1.499243
1.298000,-1.657074
1.299000,-1.335048
1.300000,-0.829734
1.301000,-1.039751
1.302000,-1.324865
1.303000,-1.620162
1.304000,-1.919277
1.305000,-2.229847
1.306000,-2.489504
1.307000,-2.329128
1.308000,-2.028740
1.309000,-2.087290
1.310000,-2.348220
1.311000,-2.026194
1.312000,-2.044014
1.313000,-1.895093
1.314000,-1.209037
1.315000,-0.445339
1.316000,-0.240414
1.317000,-0.370242
1.318000,-0.698633
1.319000,-1.167034
1.320000,-1.623980
1.321000,-1.998192
1.322000,-2.094927
1.323000,-2.245121
1.324000,-2.327855
1.325000,-2.499687
1.326000,-2.416953
1.327000,-2.266759
1.328000,-2.070743
1.329000,-1.536155
1.330000,-1.094483
1.331000,-1.072845
1.332000,-1.205219
1.333000,-1.075390
1.334000,-1.072845
1.335000,-0.762274
1.336000,-0.912468
1.337000,-1.032114
1.338000,-0.969745
1.339000,-0.740636
1.340000,-0.623536
1.341000,-0.857736
1.342000,-1.001566
1.343000,-1.284134
1.344000,-1.382142
1.345000,-1.271406
1.346000,-1.394871
1.347000,-1.483969
1.348000,-1.282862
1.349000,-0.601898
1.350000,-0.511527
1.351000,-0.866646
1.352000,-1.102120
1.353000,-1.457239
1.354000,-1.949824
1.355000,-2.523871
1.356000,-2.576057
1.357000,-2.474230
1.358000,-1.856908
1.359000,-1.220493
1.360000,-0.869192
1.361000,-0.722816
1.362000,-0.817006
1.363000,-0.874283
1.364000,-1.034660
1.365000,-0.892103
1.366000,-1.275225
1.367000,-1.402508
1.368000,-1.429237
1.369000,-1.514517
1.370000,-1.402508
1.371000,-1.248495
1.372000,-1.575612
1.373000,-1.657074
1.374000,-2.030013
1.375000,-2.844624
1.376000,-3.307934
1.377000,-2.915902
1.378000,-2.649881
1.379000,-2.744070
1.380000,-3.366484
1.381000,-3.226473
1.382000,-2.766981
1.383000,-2.214573
1.384000,-1.657074
1.385000,-1.389779
1.386000,-0.852645
1.387000,-0.763547
1.388000,-0.904831
1.389000,-1.009203
1.390000,-1.080482
1.391000,-1.067753
1.392000,-0.232777
1.393000,0.273809
1.394000,-0.021487
1.395000,-0.568804
1.396000,-0.390608
1.397000,-0.217503
1.398000,-0.473342
1.399000,-1.071572
1.400000,-1.999465
1.401000,-2.442410
1.402000,-2.923539
1.403000,-3.069915
1.404000,-2.913357
1.405000,-2.534053
1.406000,-1.947279
1.407000,-1.522154
1.408000,-1.099574
1.409000,-1.272679
1.410000,-1.551429
1.411000,-1.609979
1.412000,-1.579431
1.413000,-1.259951
1.414000,-1.107211
1.415000,-1.080482
1.416000,-1.377051
1.417000,-1.455966
1.418000,-1.237040
1.419000,-1.225584
1.420000,-1.483969
1.421000,-1.999465
1.422000,-2.474230
1.423000,-2.576057
1.424000,-2.643517
1.425000,-2.415680
1.426000,-2.007102
1.427000,-1.793266
1.428000,-1.468695
1.429000,-1.270133
1.430000,-0.876829
1.431000,-0.684631
1.432000,-0.573895
1.433000,-0.595533
1.434000,-0.491161
1.435000,-0.404609
1.436000,-0.344786
1.437000,-0.570077
1.438000,-0.856464
1.439000,-0.794095
1.440000,-1.245950
1.441000,-1.772901
1.442000,-1.520881
1.443000,-1.081754
1.444000,-0.343513
1.445000,-0.032943
1.446000,-0.542075
1.447000,-1.107211
1.448000,-1.444511
1.449000,-2.035104
1.450000,-2.744070
1.451000,-2.965543
1.452000,-2.895537
1.453000,-2.432227
1.454000,-1.909094
1.455000,-1.667256
1.456000,-2.089836
1.457000,-2.064379
1.458000,-1.650709
1.459000,-0.270962
1.460000,0.600927
1.461000,0.248353
1.462000,-0.648992
1.463000,-1.466149
1.464000,-2.247667
1.465000,-2.735161
1.466000,-2.642244
1.467000,-2.663882
1.468000,-2.279487
1.469000,-1.989282
1.470000,-2.166206
1.471000,-2.322764
1.472000,-1.883637
1.473000,-1.598523
1.474000,-1.440693
1.475000,-1.282862
1.476000,-1.387234
1.477000,-1.674893
1.478000,-1.942188
1.479000,-2.240030
1.480000,-2.399133
1.481000,-2.385132
1.482000,-2.377495
1.483000,-2.136931
1.484000,-2.138203
1.485000,-1.952370
1.486000,-1.721988
1.487000,-1.571794
1.488000,-1.508152
1.489000,-1.324865
1.490000,-0.804278
1.491000,-0.024033
1.492000,0.305630
1.493000,0.093068
1.494000,0.575470
1.495000,1.211885
1.496000,0.665841
1.497000,-0.494980
1.498000,-1.256132
1.499000,-1.538700
1.500000,-1.850544
1.501000,-2.204390
1.502000,-2.143295
1.503000,-2.237484
1.504000,-2.442410
1.505000,-2.256577
1.506000,-2.648608
1.507000,-2.844624
1.508000,-2.758072
1.509000,-2.658791
1.510000,-2.372404
1.511000,-2.154750
1.512000,-1.681257
1.513000,-1.104665
1.514000,-0.365151
1.515000,0.234352
1.516000,0.253444
1.517000,-0.217503
1.518000,-0.845008
1.519000,-1.541246
1.520000,-2.032558
1.521000,-2.368586
1.522000,-2.610423
1.523000,-2.565874
1.524000,-2.455138
1.525000,-2.257849
1.526000,-2.432227
1.527000,-2.360949
1.528000,-2.084744
1.529000,-1.937096
1.530000,-1.690167
1.531000,-1.539973
1.532000,-1.415236
1.533000,-1.284134
1.534000,-1.044842
1.535000,-0.878102
1.536000,-0.388062
1.537000,-0.076219
1.538000,-0.097857
1.539000,-0.198410
1.540000,-0.306601
1.541000,-0.468250
1.542000,-0.934106
1.543000,-1.439420
1.544000,-1.693986
1.545000,-1.629071
1.546000,-1.461058
1.547000,-1.659619
1.548000,-1.238313
1.549000,-0.808096
1.550000,-0.697360
1.551000,-0.622263
1.552000,-1.028296
1.553000,-1.391052
1.554000,-1.346503
1.555000,-1.249768
1.556000,-0.973564
1.557000,-0.328239
1.558000,-0.833553
1.559000,-1.850544
1.560000,-2.609150
1.561000,-3.160286
1.562000,-3.262112
1.563000,-3.478493
1.564000,-3.544680
1.565000,-3.300297
1.566000,-2.774618
1.567000,-2.331673
1.568000,-2.196754
1.569000,-1.359231
1.570000,-0.680813
1.571000,-0.360060
1.572000,-0.407155
1.573000,-0.734272
1.574000,-1.076663
1.575000,-1.501788
1.576000,-1.853089
1.577000,-1.982918
1.578000,-1.910367
1.579000,-2.284579
1.580000,-2.206936
1.581000,-2.227301
1.582000,-2.427136
1.583000,-2.782255
1.584000,-2.703340
1.585000,-2.167478
1.586000,-1.865818
1.587000,-1.746172
1.588000,-1.578158
1.589000,-1.223039
1.590000,-1.055025
1.591000,-0.859009
1.592000,-0.752091
1.593000,-0.744455
1.594000,-0.747000
1.595000,-0.335876
1.596000,0.081612
1.597000,-0.116949
1.598000,-0.197138
1.599000,-0.264598
1.600000,-0.619717
1.601000,-1.020659
1.602000,-1.160670
1.603000,-1.592159
1.604000,-1.972735
1.605000,-2.073289
1.606000,-2.366040
1.607000,-2.279487
1.608000,-2.241303
1.609000,-2.362221
1.610000,-2.094927
1.611000,-1.140305
1.612000,0.342542
1.613000,0.593290
1.614000,-0.108040
1.615000,-0.915014
1.616000,-1.662165
1.617000,-2.283306
1.618000,-2.586239
1.619000,-2.654972
1.620000,-2.182752
1.621000,-1.144123
1.622000,-0.736818
1.623000,-0.684631
1.624000,-0.801732
1.625000,-1.207765
1.626000,-1.613797
1.627000,-1.529791
1.628000,-1.293044
1.629000,-1.205219
1.630000,-1.235767
1.631000,-1.977827
1.632000,-2.336765
1.633000,-2.069471
1.634000,-1.847998
1.635000,-1.201400
1.636000,-1.212856
1.637000,-1.655801
1.638000,-2.088563
1.639000,-2.392769
1.640000,-2.471685
1.641000,-2.354584
1.642000,-2.232393
1.643000,-2.098746
1.644000,-1.999465
1.645000,-1.881092
1.646000,-2.116565
1.647000,-2.035104
1.648000,-1.803449
1.649000,-1.830178
1.650000,-1.277770
1.651000,-1.094483
1.652000,-0.820824
1.653000,-0.549712
1.654000,-0.404609
1.655000,0.305630
1.656000,0.339997
1.657000,0.390910
1.658000,-0.288781
1.659000,-1.220493
1.660000,-1.859454
1.661000,-2.114020
1.662000,-2.223483
1.663000,-2.196754
1.664000,-2.215846
1.665000,-2.352039
1.666000,-2.348220
1.667000,-2.385132
1.668000,-2.406770
1.669000,-2.870081
1.670000,-2.843351
1.671000,-2.458956
1.672000,-2.100018
1.673000,-1.197582
1.674000,-0.491161
1.675000,-0.595533
1.676000,-0.809369
1.677000,-1.051207
1.678000,-1.214129
1.679000,-1.473786
1.680000,-1.309591
1.681000,-1.002839
1.682000,-0.934106
1.683000,-1.201400
1.684000,-1.687622
1.685000,-1.597251
1.686000,-1.798358
1.687000,-2.003283
1.688000,-1.968917
1.689000,-1.890001
1.690000,-1.940915
1.691000,-1.963826
1.692000,-1.923095
1.693000,-1.977827
1.694000,-1.692713
1.695000,-1.030841
1.696000,-0.567531
1.697000,-0.110585
1.698000,0.402365
1.699000,0.388364
1.700000,0.042154
1.701000,-0.290054
1.702000,-0.778821
1.703000,-0.981201
1.704000,-1.314682
1.705000,-1.943460
1.706000,-2.684247
1.707000,-2.833169
1.708000,-3.150103
1.709000,-3.243020
1.710000,-2.450047
1.711000,-1.631617
1.712000,-0.931561
1.713000,-0.469523
1.714000,-0.227686
1.715000,-0.624808
1.716000,-1.272679
1.717000,-1.886183
1.718000,-2.248940
1.719000,-2.093654
1.720000,-1.612525
1.721000,-1.229403
1.722000,-0.267143
1.723000,0.136344
1.724000,0.135071
1.725000,-0.330785
1.726000,-1.389779
1.727000,-2.147113
1.728000,-2.635880
1.729000,-2.948996
1.730000,-3.081370
1.731000,-3.034276
1.732000,-2.959179
1.733000,-3.304116
1.734000,-3.314298
1.735000,-2.810258
1.736000,-1.762718
1.737000,-1.125031
1.738000,-0.601898
1.739000,-0.610807
1.740000,-1.021931
1.741000,-1.352867
1.742000,-1.448329
1.743000,-1.463603
1.744000,-1.290499
1.745000,-0.974837
1.746000,-0.855191
1.747000,-0.901013
1.748000,-0.741909
1.749000,-0.368970
1.750000,-0.045671
1.751000,-0.276053
1.752000,-0.875556
1.753000,-1.370687
1.754000,-1.693986
1.755000,-2.166206
1.756000,-2.684247
1.757000,-2.425863
1.758000,-2.213300
1.759000,-2.131839
1.760000,-1.970190
1.761000,-1.766537
1.762000,-1.069026
1.763000,-1.009203
1.764000,-1.345230
1.765000,-1.672348
1.766000,-1.900184
1.767000,-2.129294
1.768000,-2.223483
1.769000,-2.439864
1.770000,-2.714795
1.771000,-2.661336
1.772000,-2.404225
1.773000,-2.033831
1.774000,-1.608706
1.775000,-1.343957
1.776000,-1.164488
1.777000,-0.902285
1.778000,-0.601898
1.779000,-0.684631
1.780000,-0.837371
1.781000,-1.071572
1.782000,-1.374505
1.783000,-1.495424
1.784000,-1.105938
1.785000,-0.954471
1.786000,-0.458068
1.787000,0.065065
1.788000,0.103250
1.789000,-0.111858
1.790000,-0.017669
1.791000,0.448187
1.792000,0.271264
1.793000,-0.469523
1.794000,-1.271406
1.795000,-1.738535
1.796000,-2.331673
1.797000,-3.117010
1.798000,-3.367757
1.799000,-3.245565
1.800000,-3.175560
1.801000,-2.802621
1.802000,-2.624424
1.803000,-1.972735
1.804000,-1.552702
1.805000,-1.323592
1.806000,-0.873010
1.807000,-0.521709
1.808000,-0.475887
1.809000,-0.846281
1.810000,-1.352867
1.811000,-1.626526
1.812000,-1.825087
1.813000,-1.901457
1.814000,-1.860726
1.815000,-2.106383
1.816000,-2.478049
1.817000,-2.472958
1.818000,-2.247667
1.819000,-2.187844
1.820000,-2.044014
1.821000,-2.125475
1.822000,-2.041468
1.823000,-1.867091
1.824000,-1.794539
1.825000,-1.483969
1.826000,-0.526801
1.827000,1.214431
1.828000,1.933580
1.829000,1.553004
1.830000,0.534740
1.831000,-0.684631
1.832000,-1.777992
1.833000,-2.546782
1.834000,-3.087735
1.835000,-3.044458
1.836000,-2.708431
1.837000,-2.852261
1.838000,-2.615515
1.839000,-2.569693
1.840000,-2.289670
1.841000,-1.510698
1.842000,-0.721544
1.843000,-0.502617
1.844000,-0.929015
1.845000,-1.346503
1.846000,-1.707987
1.847000,-2.086017
1.848000,-2.013466
1.849000,-1.585795
1.850000,-1.046115
1.851000,-1.085573
1.852000,-1.132668
1.853000,-0.898467
1.854000,-1.135213
1.855000,-1.374505
1.856000,-1.573067
1.857000,-1.882365
1.858000,-2.229847
1.859000,-2.383860
1.860000,-2.504778
1.861000,-2.534053
1.862000,-2.373677
1.863000,-2.344402
1.864000,-2.280760
1.865000,-2.059288
1.866000,-1.933278
1.867000,-1.906548
1.868000,-1.721988
1.869000,-1.643072
1.870000,-1.662165
1.871000,-1.235767
1.872000,-0.851372
1.873000,-0.529346
1.874000,-0.001122
1.875000,0.785487
1.876000,0.934408
1.877000,0.558923
1.878000,0.054883
1.879000,-0.436430
1.880000,-1.011749
1.881000,-1.649437
1.882000,-1.977827
1.883000,-2.346947
1.884000,-2.290943
1.885000,-2.217119
1.886000,-1.882365
1.887000,-2.049105
1.888000,-2.423317
1.889000,-2.229847
1.890000,-1.711805
1.891000,-0.675722
1.892000,-0.106767
1.893000,-0.208593
1.894000,-0.750819
1.895000,-1.174671
1.896000,-1.679985
1.897000,-2.102564
1.898000,-1.407599
1.899000,-0.762274
1.900000,-0.965927
1.901000,-1.396143
1.902000,-1.943460
1.903000,-2.458956
1.904000,-2.310035
1.905000,-1.865818
1.906000,-1.732171
1.907000,-1.860726
1.908000,-1.625253
1.909000,-0.992656
1.910000,-1.029568
1.911000,-0.875556
1.912000,-0.976110
1.913000,-1.286680
1.914000,-1.634163
1.915000,-1.883637
1.916000,-2.089836
1.917000,-2.344402
1.918000,-2.414407
1.919000,-2.712250
1.920000,-2.824259
1.921000,-2.644790
1.922000,-2.596422
1.923000,-2.481867
1.924000,-2.181480
1.925000,-1.974008
1.926000,-1.508152
1.927000,-1.257405
1.928000,-1.023204
1.929000,-1.020659
1.930000,-1.013022
1.931000,-1.052479
1.932000,-1.207765
1.933000,-1.383415
1.934000,-1.450875
1.935000,-1.392325
1.936000,-1.303227
1.937000,-1.037205
1.938000,-0.674449
1.939000,-0.447885
1.940000,-0.194592
1.941000,-0.260779
1.942000,-0.641355
1.943000,-1.174671
1.944000,-1.514517
1.945000,-1.859454
1.946000,-2.021103
1.947000,-2.008375
1.948000,-2.128021
1.949000,-2.298580
1.950000,-2.414407
1.951000,-2.199299
1.952000,-1.844180
1.953000,-1.706714
1.954000,-1.681257
1.955000,-1.805995
1.956000,-1.907821
1.957000,-1.751263
1.958000,-1.727079
1.959000,-1.761446
1.960000,-1.879819
1.961000,-1.469968
1.962000,-0.202229
1.963000,0.425276
1.964000,0.558923
1.965000,0.336178
1.966000,0.094340
1.967000,0.280174
1.968000,0.331087
1.969000,-0.354969
1.970000,-1.393598
1.971000,-2.022376
1.972000,-2.752980
1.973000,-2.948996
1.974000,-3.120828
1.975000,-3.091553
1.976000,-2.778437
1.977000,-2.425863
1.978000,-1.999465
1.979000,-2.167478
1.980000,-2.718614
1.981000,-3.039367
1.982000,-2.670246
1.983000,-1.794539
1.984000,-1.112302
1.985000,-0.745727
1.986000,-0.764820
1.987000,-0.690996
1.988000,-0.828461
1.989000,-1.249768
1.990000,-1.578158
1.991000,-1.789448
1.992000,-1.892547
1.993000,-1.853089
1.994000,-1.888729
1.995000,-1.631617
1.996000,-0.620990
1.997000,0.049791
1.998000,-0.150043
1.999000,-0.581532
2.000000,-1.066480
2.001000,-1.177217
2.002000,-1.251041
2.003000,-1.165761
2.004000,-1.095756
2.005000,-1.108484
2.006000,-1.314682
2.007000,-1.641800
2.008000,-1.854362
2.009000,-1.994374
2.010000,-2.310035
2.011000,-2.218392
2.012000,-2.163660
2.013000,-2.357130
2.014000,-2.610423
2.015000,-2.909538
2.016000,-2.878990
2.017000,-2.436046
2.018000,-1.730898
2.019000,-1.211583
2.020000,-0.827188
2.021000,-0.781367
2.022000,-1.112302
2.023000,-1.472513
2.024000,-1.379597
2.025000,-1.239585
2.026000,-1.000293
2.027000,-0.650265
2.028000,-0.298964
2.029000,-0.010032
2.030000,-0.461886
2.031000,-1.267588
2.032000,-2.229847
2.033000,-2.540418
2.034000,-2.615515
2.035000,-2.462775
2.036000,-2.422044
2.037000,-2.359676
2.038000,-2.296034
2.039000,-1.868363
2.040000,-1.335048
2.041000,-1.095756
2.042000,-1.014294
2.043000,-0.897194
2.044000,-0.715179
2.045000,-0.678267
2.046000,-0.561167
2.047000,-0.277326
2.048000,-0.304055
2.049000,-0.761001
2.050000,-1.363050
2.051000,-1.870909
2.052000,-2.214573
2.053000,-2.130566
2.054000,-2.280760
2.055000,-1.884910
2.056000,-1.112302
2.057000,-0.576441
2.058000,-0.642628
2.059000,-0.727908
2.060000,-0.810642
2.061000,-0.932833
2.062000,-1.565430
2.063000,-2.052924
2.064000,-2.621879
2.065000,-2.727524
2.066000,-2.285852
2.067000,-2.212027
2.068000,-2.173843
2.069000,-1.972735
2.070000,-1.977827
2.071000,-2.181480
2.072000,-2.246394
2.073000,-0.903558
2.074000,0.341269
2.075000,0.481281
2.076000,0.620019
2.077000,0.609837
2.078000,-0.162771
2.079000,-1.203946
2.080000,-2.055469
2.081000,-2.374950
2.082000,-2.153477
2.083000,-2.222210
2.084000,-2.619333
2.085000,-2.550600
2.086000,-2.032558
2.087000,-2.112747
2.088000,-2.191662
2.089000,-1.951097
2.090000,-1.608706
2.091000,-1.615070
2.092000,-2.016012
2.093000,-2.294761
2.094000,-2.499687
2.095000,-2.598968
2.096000,-2.606605
2.097000,-2.544236
2.098000,-2.504778
2.099000,-2.665155
2.100000,-2.592604
2.101000,-2.374950
2.102000,-2.265486
2.103000,-1.658346
2.104000,-1.257405
2.105000,-1.112302
2.106000,-0.972291
2.107000,-0.852645
2.108000,-0.937925
2.109000,-1.090664
2.110000,-1.104665
2.111000,-1.083027
2.112000,-0.898467
2.113000,-0.556076
2.114000,0.110887
2.115000,0.318359
2.116000,0.351452
2.117000,0.252171
2.118000,-0.171681
2.119000,-0.615899
2.120000,-0.907377
2.121000,-1.113575
2.122000,-1.291771
2.123000,-1.500516
2.124000,-1.417782
2.125000,-1.458512
2.126000,-1.651982
2.127000,-1.603615
2.128000,-1.761446
2.129000,-2.030013
2.130000,-2.161114
2.131000,-1.884910
2.132000,-1.536155
2.133000,-1.413963
2.134000,-1.611252
2.135000,-0.915014
2.136000,-0.053308
2.137000,0.240716
2.138000,0.211441
2.139000,0.180893
2.140000,0.226715
2.141000,-0.125859
2.142000,-0.776275
2.143000,-1.419054
2.144000,-2.102564
2.145000,-3.054641
2.146000,-3.539589
2.147000,-3.623596
2.148000,-3.843796
2.149000,-3.831067
2.150000,-3.609595
2.151000,-3.357574
2.152000,-2.834441
2.153000,-2.320218
2.154000,-2.150932
2.155000,-2.413135
2.156000,-2.654972
2.157000,-2.747889
2.158000,-2.681702
2.159000,-2.583694
2.160000,-1.960007
2.161000,-1.534882
2.162000,-1.127576
2.163000,-1.083027
2.164000,-0.930288
2.165000,-0.497525
2.166000,-0.180591
2.167000,-0.017669
2.168000,-0.344786
2.169000,-0.827188
2.170000,-1.247222
2.171000,-1.562884
2.172000,-1.699077
2.173000,-1.817450
2.174000,-1.882365
2.175000,-1.687622
2.176000,-1.755082
2.177000,-1.529791
2.178000,-0.832280
2.179000,-0.720271
2.180000,-0.834825
2.181000,-1.000293
2.182000,-1.066480
2.183000,-1.183581
2.184000,-1.201400
2.185000,-0.979928
2.186000,-1.020659
2.187000,-1.333775
2.188000,-1.654528
2.189000,-1.789448
2.190000,-1.676166
2.191000,-1.402508
2.192000,-1.010476
2.193000,-0.674449
2.194000,-0.718998
2.195000,-1.016840
2.196000,-1.304500
2.197000,-1.758900
2.198000,-1.989282
2.199000,-1.828906
2.200000,-1.734716
2.201000,-1.737262
2.202000,-1.631617
2.203000,-1.701623
2.204000,-1.766537
2.205000,-1.771628
2.206000,-1.819996
2.207000,-1.939642
2.208000,-1.841634
2.209000,-1.635435
2.210000,-1.599796
2.211000,-1.329956
2.212000,-1.159397
2.213000,-1.126303
2.214000,-1.044842
2.215000,-0.619717
2.216000,-0.241687
2.217000,0.062520
2.218000,1.026052
2.219000,1.442267
2.220000,0.963683
2.221000,-0.069855
2.222000,-0.979928
2.223000,-1.662165
2.224000,-2.175115
2.225000,-2.595149
2.226000,-2.802621
2.227000,-3.081370
2.228000,-3.362666
2.229000,-3.264658
2.230000,-2.654972
2.231000,-1.897638
2.232000,-1.790721
2.233000,-2.270578
2.234000,-2.162387
2.235000,-1.366868
2.236000,-1.347776
2.237000,-1.595978
2.238000,-1.882365
2.239000,-2.097473
2.240000,-2.259122
2.241000,-2.517507
2.242000,-2.779710
2.243000,-2.415680
2.244000,-2.222210
2.245000,-2.116565
2.246000,-1.715624
2.247000,-1.928186
2.248000,-1.066480
2.249000,0.404911
2.250000,1.020961
2.251000,0.385819
2.252000,-0.426247
2.253000,-1.401235
2.254000,-2.075835
2.255000,-2.512415
2.256000,-2.782255
2.257000,-3.080098
2.258000,-3.348665
2.259000,-3.301570
2.260000,-3.273568
2.261000,-3.128465
2.262000,-2.906993
2.263000,-2.368586
2.264000,-1.676166
2.265000,-0.990111
2.266000,-0.713907
2.267000,-0.585351
2.268000,-0.430065
2.269000,-0.461886
2.270000,-0.603170
2.271000,-0.572622
2.272000,-0.680813
2.273000,-0.833553
2.274000,-0.901013
2.275000,-0.856464
2.276000,-0.940470
2.277000,-1.005385
2.278000,-0.960836
2.279000,-0.997748
2.280000,-0.468250
2.281000,-0.450431
2.282000,-0.685904
2.283000,-0.921378
2.284000,-1.230676
2.285000,-1.405053
2.286000,-1.532336
2.287000,-2.009648
2.288000,-2.074562
2.289000,-1.928186
2.290000,-1.761446
2.291000,-1.814905
2.292000,-1.651982
2.293000,-1.435601
2.294000,-1.388506
2.295000,-0.915014
2.296000,-0.548439
2.297000,-0.684631
2.298000,-0.795368
2.299000,-0.646447
2.300000,-0.889557
2.301000,-1.242131
2.302000,-1.704168
2.303000,-2.399133
2.304000,-2.775891
2.305000,-2.868808
2.306000,-2.746616
2.307000,-2.415680
2.308000,-2.084744
2.309000,-1.974008
2.310000,-2.306217
2.311000,-2.041468
2.312000,-1.623980
2.313000,-1.480150
2.314000,-1.629071
2.315000,-1.779265
2.316000,-1.826360
2.317000,-1.593432
2.318000,-0.817006
2.319000,0.093068
2.320000,0.911497
2.321000,0.908952
2.322000,0.653113
2.323000,-0.041852
2.324000,-0.836098
2.325000,-1.462331
2.326000,-2.409316
2.327000,-3.138648
2.328000,-3.402124
2.329000,-3.293933
2.330000,-2.791165
2.331000,-2.558237
2.332000,-2.717341
2.333000,-2.598968
2.334000,-2.366040
2.335000,-2.087290
2.336000,-1.473786
2.337000,-1.057571
2.338000,-0.651538
2.339000,0.401092
2.340000,0.877131
2.341000,0.765122
2.342000,0.043427
2.343000,-0.805550
2.344000,-1.382142
2.345000,-1.962553
2.346000,-2.378768
2.347000,-2.415680
2.348000,-2.186571
2.349000,-2.283306
2.350000,-3.058459
2.351000,-3.972351
2.352000,-3.943076
2.353000,-3.057187
2.354000,-2.343129
2.355000,-2.058015
2.356000,-1.805995
2.357000,-1.421600
2.358000,-1.002839
2.359000,-0.687177
2.360000,-0.722816
2.361000,-0.822097
2.362000,-0.845008
2.363000,-1.020659
2.364000,-1.235767
2.365000,-1.313410
2.366000,-1.230676
2.367000,-1.234494
2.368000,-1.359231
2.369000,-1.182308
2.370000,-0.834825
2.371000,-0.470796
2.372000,-0.277326
2.373000,0.193621
2.374000,0.323450
2.375000,0.019243
2.376000,-0.361333
2.377000,-0.920105
2.378000,-1.058844
2.379000,-1.200128
2.380000,-1.760173
2.381000,-2.274396
2.382000,-2.789892
2.383000,-3.192107
2.384000,-3.190834
2.385000,-2.878990
2.386000,-2.429681
2.387000,-2.336765
2.388000,-2.446228
2.389000,-2.298580
2.390000,-1.181035
2.391000,-0.316784
2.392000,-0.113131
2.393000,0.114706
2.394000,-0.344786
2.395000,-0.645174
2.396000,-0.538256
2.397000,-0.939197
2.398000,-0.971018
2.399000,-1.352867
2.400000,-1.896366
2.401000,-2.443683
2.402000,-2.458956
2.403000,-2.190389
2.404000,-2.283306
2.405000,-2.311308
2.406000,-2.364767
2.407000,-2.868808
2.408000,-3.134829
2.409000,-3.005001
2.410000,-2.590058
2.411000,-2.145840
2.412000,-1.906548
2.413000,-1.571794
2.414000,-0.823370
2.415000,0.154163
2.416000,0.268718
2.417000,-0.045671
2.418000,-0.419883
2.419000,-0.758456
2.420000,-0.890830
2.421000,-0.991384
2.422000,-0.878102
2.423000,-1.020659
2.424000,-1.245950
2.425000,-1.679985
2.426000,-1.993101
2.427000,-1.972735
2.428000,-1.942188
2.429000,-1.858181
2.430000,-2.175115
2.431000,-2.465321
2.432000,-2.562056
2.433000,-2.494596
2.434000,-2.625697
2.435000,-2.793711
2.436000,-2.596422
2.437000,-2.103837
2.438000,-1.589614
2.439000,-1.142850
2.440000,-1.132668
2.441000,-1.192491
2.442000,-1.351594
2.443000,-1.631617
2.444000,-1.742353
2.445000,-1.522154
2.446000,-1.102120
2.447000,-0.473342
2.448000,0.915316
2.449000,1.397718
2.450000,1.024779
2.451000,0.247080
2.452000,-0.823370
2.453000,-1.737262
2.454000,-2.444955
2.455000,-2.612969
2.456000,-2.466593
2.457000,-2.212027
2.458000,-1.956189
2.459000,-2.066925
2.460000,-2.171297
2.461000,-2.162387
2.462000,-2.087290
2.463000,-2.042741
2.464000,-1.585795
2.465000,-0.572622
2.466000,-0.502617
2.467000,-0.722816
2.468000,-0.568804
2.469000,-0.834825
2.470000,-1.131395
2.471000,-1.257405
2.472000,-1.426691
2.473000,-1.693986
2.474000,-2.115292
2.475000,-2.554419
2.476000,-2.668973
2.477000,-2.465321
2.478000,-2.218392
2.479000,-1.814905
2.480000,-1.538700
2.481000,-1.695259
2.482000,-1.886183
2.483000,-1.725806
2.484000,-1.713078
2.485000,-1.333775
2.486000,-0.697360
2.487000,-0.472069
2.488000,-0.851372
2.489000,-1.580704
2.490000,-1.695259
2.491000,-1.513244
2.492000,-1.023204
2.493000,-0.710088
2.494000,-0.953199
2.495000,-1.263769
2.496000,-1.571794
2.497000,-1.904003
2.498000,-2.105110
2.499000,-2.285852
2.500000,-2.374950
2.501000,-1.951097
2.502000,-1.673620
2.503000,-1.912912
2.504000,-1.588341
2.505000,-1.327411
2.506000,-1.029568
2.507000,-1.109757
2.508000,-0.977382
2.509000,-1.083027
2.510000,-1.285407
2.511000,-1.429237
2.512000,-1.705441
2.513000,-1.990555
2.514000,-2.209482
2.515000,-2.055469
2.516000,-1.817450
2.517000,-1.687622
2.518000,-1.562884
2.519000,-1.519608
2.520000,-1.126303
2.521000,-0.837371
2.522000,-0.799186
2.523000,-0.703724
2.524000,-0.804278
2.525000,-0.917559
2.526000,-1.167034
2.527000,-1.440693
2.528000,-1.542519
2.529000,-1.622707
2.530000,-1.312137
2.531000,-0.573895
2.532000,0.023062
2.533000,0.057428
2.534000,-0.292600
2.535000,-0.631173
2.536000,-1.240858
2.537000,-1.844180
2.538000,-2.260395
2.539000,-2.768254
2.540000,-2.873899
2.541000,-2.886627
2.542000,-3.195925
2.543000,-3.216290
2.544000,-2.624424
2.545000,-1.944733
2.546000,-1.100847
2.547000,-0.647719
2.548000,-0.646447
2.549000,-1.013022
2.550000,-1.422873
2.551000,-1.685076
2.552000,-1.804722
2.553000,-1.650709
2.554000,-1.469968
2.555000,-1.149214
2.556000,-0.438975
2.557000,-0.618444
2.558000,-1.099574
2.559000,-1.847998
2.560000,-2.362221
2.561000,-2.674065
2.562000,-2.755526
2.563000,-2.787347
2.564000,-2.689339
2.565000,-2.243848
2.566000,-1.789448
2.567000,-1.402508
2.568000,-1.444511
2.569000,-1.193763
2.570000,-0.368970
2.571000,0.813489
2.572000,0.865675
2.573000,0.287811
2.574000,-0.389335
2.575000,-0.881920
2.576000,-0.587896
2.577000,-0.480979
2.578000,-1.098301
2.579000,-1.723261
2.580000,-2.276942
2.581000,-2.881536
2.582000,-3.132284
2.583000,-2.969361
2.584000,-2.763163
2.585000,-2.604059
2.586000,-2.437318
2.587000,-2.425863
2.588000,-2.423317
2.589000,-2.233666
2.590000,-1.847998
2.591000,-1.672348
2.592000,-1.388506
2.593000,-1.098301
2.594000,-0.722816
2.595000,-0.536983
2.596000,-0.722816
2.597000,-0.923924
2.598000,-1.122485
2.599000,-1.275225
2.600000,-1.391052
2.601000,-1.475059
2.602000,-1.098301
2.603000,-0.957017
2.604000,-0.909922
2.605000,-0.869192
2.606000,-1.201400
2.607000,-1.497970
2.608000,-1.677439
2.609000,-1.982918
2.610000,-2.242575
2.611000,-2.154750
2.612000,-1.883637
2.613000,-1.564157
2.614000,-1.144123
2.615000,-0.343513
2.616000,0.160528
2.617000,-0.431338
2.618000,-1.160670
2.619000,-1.709260
2.620000,-2.059288
2.621000,-2.250212
2.622000,-2.186571
2.623000,-2.204390
2.624000,-2.254031
2.625000,-2.293489
2.626000,-2.176388
2.627000,-2.000738
2.628000,-1.954916
2.629000,-2.027467
2.630000,-1.772901
2.631000,-1.326138
2.632000,-1.295590
2.633000,-0.885739
2.634000,0.286538
2.635000,0.828763
2.636000,0.530921
2.637000,-0.109312
2.638000,-0.511527
2.639000,-1.178490
2.640000,-1.770355
2.641000,-1.926914
2.642000,-1.930732
2.643000,-1.891274
2.644000,-2.212027
2.645000,-2.707158
2.646000,-3.106827
2.647000,-3.225200
2.648000,-2.990999
2.649000,-2.833169
2.650000,-2.353312
2.651000,-1.939642
2.652000,-1.887456
2.653000,-1.809813
2.654000,-1.649437
2.655000,-1.473786
2.656000,-1.248495
2.657000,-0.993929
2.658000,-0.903558
2.659000,-0.300237
2.660000,-0.470796
2.661000,-0.887011
2.662000,-1.275225
2.663000,-1.543792
2.664000,-1.682530
2.665000,-1.663438
2.666000,-1.271406
2.667000,-1.060116
2.668000,-0.973564
2.669000,-1.105938
2.670000,-0.685904
2.671000,-0.645174
2.672000,-0.624808
2.673000,-0.404609
2.674000,-0.563713
2.675000,-0.832280
2.676000,-1.220493
2.677000,-1.783084
2.678000,-2.152204
2.679000,-2.317672
2.680000,-2.457684
2.681000,-2.619333
2.682000,-2.741525
2.683000,-2.206936
2.684000,-1.710532
2.685000,-1.445784
2.686000,-1.452148
2.687000,-1.826360
2.688000,-2.028740
2.689000,-1.805995
2.690000,-1.746172
2.691000,-1.785629
2.692000,-1.844180
2.693000,-1.844180
2.694000,-1.915458
2.695000,-1.877273
2.696000,-1.887456
2.697000,-1.637981
2.698000,-1.575612
2.699000,-1.850544
2.700000,-1.219220
2.701000,-0.352423
2.702000,-0.094038
2.703000,-0.171681
2.704000,-0.640082
2.705000,-0.950653
2.706000,-1.275225
2.707000,-1.613797
2.708000,-1.837815
2.709000,-2.061834
2.710000,-2.136931
2.711000,-2.082199
2.712000,-1.696531
2.713000,-1.369414
2.714000,-1.266315
2.715000,-1.043570
2.716000,-0.809369
2.717000,-0.545893
2.718000,-0.794095
2.719000,-1.153033
2.720000,-1.411417
2.721000,-1.452148
2.722000,-1.671075
2.723000,-1.723261
2.724000,-1.592159
2.725000,-1.335048
2.726000,-1.629071
2.727000,-1.960007
2.728000,-1.884910
2.729000,-1.276497
2.730000,-0.986292
2.731000,-1.149214
2.732000,-1.359231
2.733000,-1.296863
2.734000,-1.268860
2.735000,-0.990111
2.736000,-0.595533
2.737000,-0.814460
2.738000,-1.144123
2.739000,-1.592159
2.740000,-2.091109
2.741000,-2.344402
2.742000,-1.898911
2.743000,-1.276497
2.744000,-1.407599
2.745000,-1.928186
2.746000,-2.441137
2.747000,-2.680429
2.748000,-2.080926
2.749000,-1.683803
2.750000,-1.420327
2.751000,-1.328683
2.752000,-1.112302
2.753000,-1.122485
2.754000,-1.018113
2.755000,-1.239585
2.756000,-1.825087
2.757000,-2.265486
2.758000,-2.334219
2.759000,-1.837815
2.760000,-1.765264
2.761000,-2.019830
2.762000,-2.130566
2.763000,-2.175115
2.764000,-1.419054
2.765000,-0.501344
2.766000,-0.220049
2.767000,-0.675722
2.768000,-1.145396
2.769000,-1.823814
2.770000,-2.471685
2.771000,-2.648608
2.772000,-2.779710
2.773000,-2.840805
2.774000,-2.755526
2.775000,-2.097473
2.776000,-1.384688
2.777000,-1.364323
2.778000,-1.761446
2.779000,-1.883637
2.780000,-1.835270
2.781000,-1.905275
2.782000,-1.783084
2.783000,-1.562884
2.784000,-1.304500
2.785000,-0.941743
2.786000,-0.619717
2.787000,-0.643901
2.788000,-0.333330
2.789000,-0.391881
2.790000,-0.547166
2.791000,-0.684631
2.792000,-0.629900
2.793000,-0.799186
2.794000,-0.828461
2.795000,-1.043570
2.796000,-1.398689
2.797000,-1.812359
2.798000,-1.979100
2.799000,-1.881092
2.800000,-1.865818
2.801000,-1.867091
2.802000,-1.823814
2.803000,-1.841634
2.804000,-2.108928
2.805000,-2.069471
2.806000,-1.855635
2.807000,-1.476332
2.808000,-1.251041
2.809000,-1.052479
2.810000,-0.764820
2.811000,-0.862828
2.812000,-0.859009
2.813000,-0.724089
2.814000,-0.823370
2.815000,-1.111030
2.816000,-1.318501
2.817000,-1.504334
2.818000,-1.644345
2.819000,-1.814905
2.820000,-1.896366
2.821000,-1.802176
2.822000,-1.715624
2.823000,-1.342685
2.824000,-1.151760
2.825000,-0.576441
2.826000,-0.342240
2.827000,-0.049489
2.828000,0.336178
2.829000,0.814762
2.830000,0.721846
2.831000,0.291629
2.832000,-0.090220
2.833000,-1.200128
2.834000,-2.465321
2.835000,-3.318117
2.836000,-3.814520
2.837000,-3.823430
2.838000,-3.330845
2.839000,-2.996091
2.840000,-2.966816
2.841000,-2.554419
2.842000,-1.779265
2.843000,-1.081754
2.844000,-1.010476
2.845000,-1.308318
2.846000,-1.562884
2.847000,-1.534882
2.848000,-1.564157
2.849000,-2.010920
2.850000,-2.695703
2.851000,-2.915902
2.852000,-3.137375
2.853000,-3.474675
2.854000,-3.386850
2.855000,-2.797529
2.856000,-2.334219
2.857000,-1.932005
2.858000,-1.533609
2.859000,-1.393598
2.860000,-1.399962
2.861000,-1.534882
2.862000,-1.623980
2.863000,-1.508152
2.864000,-1.156851
2.865000,-1.205219
2.866000,-1.221766
2.867000,-1.061389
2.868000,-0.912468
2.869000,-0.539529
2.870000,-0.278599
2.871000,-0.063490
2.872000,-0.123313
2.873000,-0.491161
2.874000,-0.962108
2.875000,-1.426691
2.876000,-1.231948
2.877000,-0.754637
2.878000,-0.664266
2.879000,-0.632445
2.880000,-0.782639
2.881000,-1.112302
2.882000,-1.454694
2.883000,-1.721988
2.884000,-1.942188
2.885000,-1.809813
2.886000,-1.599796
2.887000,-0.965927
2.888000,-0.274780
2.889000,-0.045671
2.890000,-0.533165
2.891000,-1.293044
2.892000,-1.202673
2.893000,-1.259951
2.894000,-1.426691
2.895000,-1.627799
2.896000,-2.008375
2.897000,-2.205663
2.898000,-2.640971
2.899000,-2.997364
2.900000,-3.309207
2.901000,-3.534498
2.902000,-3.274841
2.903000,-2.969361
2.904000,-2.598968
2.905000,-2.387678
2.906000,-2.056742
2.907000,-1.800903
2.908000,-1.593432
2.909000,-0.887011
2.910000,-0.059672
2.911000,-0.053308
2.912000,-0.418610
2.913000,-0.852645
2.914000,-1.052479
2.915000,-1.317228
2.916000,-1.476332
2.917000,-1.733443
2.918000,-1.539973
2.919000,-0.841190
2.920000,-0.926469
2.921000,-1.289226
2.922000,-1.444511
2.923000,-1.807268
2.924000,-2.041468
2.925000,-2.326582
2.926000,-2.385132
2.927000,-2.077107
2.928000,-1.728352
2.929000,-1.360504
2.930000,-1.279043
2.931000,-1.145396
2.932000,-0.664266
2.933000,-0.181864
2.934000,-0.175499
2.935000,-0.199683
2.936000,-0.295146
2.937000,-0.594261
2.938000,-0.682086
2.939000,-1.046115
2.940000,-1.453421
2.941000,-1.427964
2.942000,-1.172125
2.943000,-1.203946
2.944000,-1.444511
2.945000,-1.518335
2.946000,-1.930732
2.947000,-2.312581
2.948000,-2.470412
2.949000,-2.486959
2.950000,-2.626970
2.951000,-2.639698
2.952000,-2.324037
2.953000,-2.355857
2.954000,-2.176388
2.955000,-1.537428
2.956000,-1.458512
2.957000,-1.421600
2.958000,-0.991384
2.959000,-1.094483
2.960000,-1.690167
2.961000,-2.064379
2.962000,-1.734716
2.963000,-1.406326
2.964000,-1.063935
2.965000,-1.165761
2.966000,-1.599796
2.967000,-1.935823
2.968000,-2.083472
2.969000,-2.262941
2.970000,-2.377495
2.971000,-2.390224
2.972000,-2.428409
2.973000,-2.302398
2.974000,-2.130566
2.975000,-1.856908
2.976000,-1.716897
2.977000,-1.695259
2.978000,-1.368141
2.979000,-0.930288
2.980000,-0.571350
2.981000,-0.587896
2.982000,-0.502617
2.983000,-0.122041
2.984000,0.432913
2.985000,0.469825
2.986000,0.627656
2.987000,0.177074
2.988000,-0.298964
2.989000,-0.357514
2.990000,-1.200128
2.991000,-2.152204
2.992000,-2.892992
2.993000,-3.035548
2.994000,-3.045731
2.995000,-2.942632
2.996000,-2.752980
2.997000,-2.320218
2.998000,-1.776720
2.999000,-1.420327
3.000000,-1.497970
3.001000,-1.513244
3.002000,-1.625253
3.003000,-1.788175
3.004000,-1.878546
3.005000,-1.630344
3.006000,-1.515789
3.007000,-1.304500
3.008000,-0.679540
3.009000,-0.012577
3.010000,0.094340
3.011000,-0.129678
3.012000,-0.288781
3.013000,-0.402063
3.014000,-0.699905
3.015000,-1.075390
3.016000,-1.475059
3.017000,-1.625253
3.018000,-1.655801
3.019000,-1.714351
3.020000,-1.869636
3.021000,-2.436046
3.022000,-2.539145
3.023000,-2.260395
3.024000,-2.226029
3.025000,-2.157296
3.026000,-2.173843
3.027000,-1.807268
3.028000,-1.616343
3.029000,-1.887456
3.030000,-2.278215
3.031000,-2.368586
3.032000,-2.195481
3.033000,-2.236211
3.034000,-2.204390
3.035000,-1.967644
3.036000,-1.534882
3.037000,-1.248495
3.038000,-1.399962
3.039000,-1.397416
3.040000,-1.280316
3.041000,-1.033387
3.042000,-0.249324
3.043000,0.126161
3.044000,-0.339695
3.045000,-0.761001
3.046000,-0.720271
3.047000,-1.104665
3.048000,-2.038923
3.049000,-2.548055
3.050000,-2.670246
3.051000,-2.522598
3.052000,-2.308763
3.053000,-2.152204
3.054000,-1.832724
3.055000,-1.882365
3.056000,-1.813632
3.057000,-1.705441
3.058000,-1.584522
3.059000,-1.402508
3.060000,-0.931561
3.061000,-0.389335
3.062000,-0.422429
3.063000,-0.385516
3.064000,-0.832280
3.065000,-1.161943
3.066000,-1.378324
3.067000,-0.999020
3.068000,-0.640082
3.069000,-0.884466
3.070000,-1.497970
3.071000,-1.998192
3.072000,-2.301126
3.073000,-2.647335
3.074000,-2.665155
3.075000,-2.802621
3.076000,-2.637153
3.077000,-1.919277
3.078000,-1.621434
3.079000,-1.307045
3.080000,-0.869192
3.081000,-0.778821
3.082000,-1.032114
3.083000,-1.403780
3.084000,-1.728352
3.085000,-1.896366
3.086000,-1.962553
3.087000,-1.932005
3.088000,-1.942188
3.089000,-1.943460
3.090000,-1.576885
3.091000,-1.122485
3.092000,-0.442794
3.093000,-0.115676
3.094000,-0.301510
3.095000,-0.598079
3.096000,-0.955744
3.097000,-0.949380
3.098000,-0.995202
3.099000,-1.193763
3.100000,-1.566703
3.101000,-1.819996
3.102000,-2.075835
3.103000,-1.935823
3.104000,-1.784357
3.105000,-1.553974
3.106000,-1.513244
3.107000,-1.402508
3.108000,-1.293044
3.109000,-1.463603
3.110000,-1.711805
3.111000,-2.022376
3.112000,-1.970190
3.113000,-1.909094
3.114000,-1.962553
3.115000,-1.706714
3.116000,-1.445784
3.117000,-1.156851
3.118000,-0.828461
3.119000,-0.601898
3.120000,-0.578987
3.121000,-0.696087
3.122000,-0.876829
3.123000,-1.074117
3.124000,-1.308318
3.125000,-1.486514
3.126000,-1.486514
3.127000,-1.343957
3.128000,-1.299408
3.129000,-1.361777
3.130000,-1.635435
3.131000,-1.961280
3.132000,-2.220937
3.133000,-2.395315
3.134000,-2.213300
3.135000,-2.045287
3.136000,-2.083472
3.137000,-2.103837
3.138000,-1.876000
3.139000,-1.517062
3.140000,-1.345230
3.141000,-1.511971
3.142000,-1.711805
3.143000,-1.118667
3.144000,-0.725362
3.145000,-0.325693
3.146000,-0.564985
3.147000,-1.383415
3.148000,-2.158569
3.149000,-2.397861
3.150000,-2.344402
3.151000,-2.509870
3.152000,-2.339310
3.153000,-1.790721
3.154000,-1.365596
3.155000,-1.505607
3.156000,-1.394871
3.157000,-1.706714
3.158000,-1.988009
3.159000,-2.115292
3.160000,-2.194208
3.161000,-2.206936
3.162000,-2.237484
3.163000,-1.951097
3.164000,-1.482696
3.165000,-1.071572
3.166000,-1.323592
3.167000,-1.441965
3.168000,-1.435601
3.169000,-1.611252
3.170000,-1.417782
3.171000,-1.154306
3.172000,-1.122485
3.173000,-0.988838
3.174000,-0.599352
3.175000,-0.533165
3.176000,-0.650265
3.177000,-0.727908
3.178000,-0.515345
3.179000,-0.496253
3.180000,-0.615899
3.181000,-0.893376
3.182000,-1.074117
3.183000,-1.298136
3.184000,-1.453421
3.185000,-1.322319
3.186000,-0.950653
3.187000,-0.799186
3.188000,-0.637537
3.189000,-0.971018
3.190000,-1.388506
3.191000,-1.742353
3.192000,-2.059288
3.193000,-2.324037
3.194000,-2.565874
3.195000,-2.429681
3.196000,-2.390224
3.197000,-2.358403
3.198000,-2.269305
3.199000,-1.870909
3.200000,-1.421600
3.201000,-0.809369
3.202000,-0.711361
3.203000,-0.852645
3.204000,-1.019386
3.205000,-0.540802
3.206000,0.477462
3.207000,0.430368
3.208000,0.093068
3.209000,-0.470796
3.210000,-1.371960
3.211000,-1.677439
3.212000,-2.108928
3.213000,-2.304944
3.214000,-2.633334
3.215000,-2.839533
3.216000,-3.201016
3.217000,-3.542135
3.218000,-3.871798
3.219000,-3.437763
3.220000,-3.062278
3.221000,-2.914630
3.222000,-2.391497
3.223000,-1.677439
3.224000,-1.214129
3.225000,-0.734272
3.226000,-0.763547
3.227000,-0.465705
3.228000,-0.408427
3.229000,-0.876829
3.230000,-1.383415
3.231000,-1.719442
3.232000,-1.995646
3.233000,-2.544236
3.234000,-2.764436
3.235000,-2.341856
3.236000,-1.967644
3.237000,-1.587068
3.238000,-1.131395
3.239000,-0.842462
3.240000,-1.079209
3.241000,-1.102120
3.242000,-0.971018
3.243000,-0.859009
3.244000,-1.074117
3.245000,-1.369414
3.246000,-1.356686
3.247000,-1.343957
3.248000,-1.127576
3.249000,-0.939197
3.250000,-1.132668
3.251000,-1.523426
3.252000,-1.565430
3.253000,-1.377051
3.254000,-1.312137
3.255000,-0.794095
3.256000,-0.846281
3.257000,-1.466149
3.258000,-1.818723
3.259000,-1.918004
3.260000,-1.823814
3.261000,-1.659619
3.262000,-1.534882
3.263000,-1.247222
3.264000,-0.925196
3.265000,-0.773730
3.266000,-0.386789
3.267000,-0.486070
3.268000,-0.654084
3.269000,-0.690996
3.270000,-0.666812
3.271000,-1.139032
3.272000,-1.817450
3.273000,-2.418226
3.274000,-2.429681
3.275000,-2.536599
3.276000,-2.793711
3.277000,-2.826804
3.278000,-2.430954
3.279000,-1.763991
3.280000,-1.172125
3.281000,0.472371
3.282000,1.031143
3.283000,0.529648
3.284000,-0.358787
3.285000,-1.459785
3.286000,-2.194208
3.287000,-2.756799
3.288000,-3.012638
3.289000,-3.034276
3.290000,-2.766981
3.291000,-2.675338
3.292000,-2.844624
3.293000,-2.957906
3.294000,-2.730069
3.295000,-2.726251
3.296000,-2.651154
3.297000,-1.981645
3.298000,-0.954471
3.299000,-0.531892
3.300000,-0.567531
3.301000,-0.979928
3.302000,-1.191218
3.303000,-0.953199
3.304000,-1.095756
3.305000,-1.290499
3.306000,-1.259951
3.307000,-1.067753
3.308000,-1.080482
3.309000,-1.173398
3.310000,-0.993929
3.311000,-0.783912
3.312000,-0.780094
3.313000,-1.168307
3.314000,-1.578158
3.315000,-1.452148
3.316000,-0.959563
3.317000,-0.389335
3.318000,-0.529346
3.319000,-0.987565
3.320000,-1.461058
3.321000,-1.989282
3.322000,-2.462775
3.323000,-2.625697
3.324000,-2.845897
3.325000,-3.039367
3.326000,-2.866262
3.327000,-2.546782
3.328000,-2.348220
3.329000,-2.349493
3.330000,-1.863272
3.331000,-1.151760
3.332000,-0.839917
3.333000,-0.517891
3.334000,-0.372788
3.335000,0.143981
3.336000,0.821126
3.337000,0.819854
3.338000,0.151618
3.339000,-0.869192
3.340000,-1.637981
3.341000,-2.257849
3.342000,-2.661336
3.343000,-2.754253
3.344000,-2.765709
3.345000,-2.751707
3.346000,-2.919721
3.347000,-3.054641
3.348000,-2.794984
3.349000,-2.335492
3.350000,-1.907821
3.351000,-1.686349
3.352000,-1.102120
3.353000,-0.326966
3.354000,0.753666
3.355000,1.059146
3.356000,0.511829
3.357000,-0.432611
3.358000,-1.371960
3.359000,-1.924368
3.360000,-2.209482
3.361000,-2.324037
3.362000,-2.299853
3.363000,-2.369858
3.364000,-2.378768
3.365000,-2.147113
3.366000,-1.811086
3.367000,-1.800903
3.368000,-1.533609
3.369000,-1.392325
3.370000,-0.818279
3.371000,-0.697360
3.372000,-0.605716
3.373000,-0.659175
3.374000,-0.603170
3.375000,-0.836098
3.376000,-1.366868
3.377000,-1.721988
3.378000,-1.775447
3.379000,-1.514517
3.380000,-1.702895
3.381000,-1.878546
3.382000,-1.851817
3.383000,-1.841634
3.384000,-2.033831
3.385000,-2.058015
3.386000,-2.203118
3.387000,-2.018557
3.388000,-1.648164
3.389000,-1.490333
3.390000,-1.449602
3.391000,-1.478877
3.392000,-1.514517
3.393000,-1.606160
3.394000,-1.234494
3.395000,-0.586624
3.396000,-0.596806
3.397000,-0.935379
3.398000,-1.336320
3.399000,-1.616343
3.400000,-1.469968
3.401000,-1.226857
3.402000,-1.010476
3.403000,-1.063935
3.404000,-1.142850
3.405000,-0.941743
3.406000,-0.902285
3.407000,-1.032114
3.408000,-1.268860
3.409000,-1.529791
3.410000,-1.575612
3.411000,-1.368141
3.412000,-0.898467
3.413000,-0.656629
3.414000,-0.806823
3.415000,-0.921378
3.416000,-1.461058
3.417000,-1.564157
3.418000,-1.882365
3.419000,-1.873455
3.420000,-2.056742
3.421000,-2.140749
3.422000,-2.312581
3.423000,-2.756799
3.424000,-2.830623
3.425000,-2.559510
3.426000,-2.198026
3.427000,-2.243848
3.428000,-2.318945
3.429000,-2.228574
3.430000,-1.864545
3.431000,-1.560339
3.432000,-1.569248
3.433000,-1.571794
3.434000,-1.570521
3.435000,-1.793266
3.436000,-1.911640
3.437000,-1.545065
3.438000,-1.189945
3.439000,-0.673176
3.440000,-0.721544
3.441000,-1.356686
3.442000,-1.519608
3.443000,-1.422873
3.444000,-1.539973
3.445000,-1.514517
3.446000,-1.296863
3.447000,-0.715179
3.448000,-0.470796
3.449000,-1.084300
3.450000,-1.748717
3.451000,-1.953643
3.452000,-0.941743
3.453000,-0.302782
3.454000,-0.456795
3.455000,-0.972291
3.456000,-1.239585
3.457000,-1.580704
3.458000,-2.061834
3.459000,-2.546782
3.460000,-2.590058
3.461000,-2.643517
3.462000,-2.651154
3.463000,-3.117010
3.464000,-3.268476
3.465000,-2.802621
3.466000,-2.439864
3.467000,-2.066925
3.468000,-1.767810
3.469000,-1.604888
3.470000,-1.527245
3.471000,-1.429237
3.472000,-1.350322
3.473000,-1.234494
3.474000,-1.058844
3.475000,-0.918832
3.476000,-0.925196
3.477000,-0.670630
3.478000,-0.398245
3.479000,-0.389335
3.480000,-0.464432
3.481000,-0.538256
3.482000,-0.768638
3.483000,-1.009203
3.484000,-1.049934
3.485000,-0.939197
3.486000,-0.995202
3.487000,-1.165761
3.488000,-1.275225
3.489000,-1.319774
3.490000,-0.741909
3.491000,-0.572622
3.492000,-0.789004
3.493000,-0.939197
3.494000,-0.969745
3.495000,-0.500071
3.496000,-0.368970
3.497000,-0.506435
3.498000,-0.591715
3.499000,-0.674449
3.500000,-0.931561
3.501000,-1.387234
3.502000,-1.881092
3.503000,-2.344402
3.504000,-2.413135
3.505000,-2.326582
3.506000,-2.929904
3.507000,-3.118282
3.508000,-2.302398
3.509000,-1.310864
3.510000,-0.712634
3.511000,-0.307874
3.512000,-0.648992
3.513000,-1.244677
3.514000,-2.125475
3.515000,-3.137375
3.516000,-3.412306
3.517000,-3.094099
3.518000,-2.777164
3.519000,-2.194208
3.520000,-2.446228
3.521000,-2.231120
3.522000,-2.180207
3.523000,-2.424590
3.524000,-2.429681
3.525000,-2.458956
3.526000,-2.334219
3.527000,-2.274396
3.528000,-2.092381
3.529000,-2.264214
3.530000,-2.324037
3.531000,-1.730898
3.532000,-1.319774
3.533000,-0.843735
3.534000,-0.620990
3.535000,-0.508981
3.536000,-0.147497
3.537000,-0.069855
3.538000,1.285709
3.539000,2.297609
3.540000,2.046862
3.541000,0.998050
3.542000,-0.162771
3.543000,-1.214129
3.544000,-2.218392
3.545000,-3.085189
3.546000,-3.311753
3.547000,-3.167923
3.548000,-3.243020
3.549000,-3.601958
3.550000,-3.358847
3.551000,-2.604059
3.552000,-1.975281
3.553000,-1.631617
3.554000,-1.430510
3.555000,-1.389779
3.556000,-1.371960
3.557000,-1.469968
3.558000,-1.753809
3.559000,-1.635435
3.560000,-1.439420
3.561000,-1.300681
3.562000,-1.005385
3.563000,-1.033387
3.564000,-0.871737
3.565000,-1.010476
3.566000,-1.399962
3.567000,-1.655801
3.568000,-1.949824
3.569000,-2.092381
3.570000,-2.142022
3.571000,-1.965098
3.572000,-1.434328
3.573000,-0.562440
3.574000,0.300539
3.575000,0.828763
3.576000,0.644203
3.577000,0.236897
3.578000,-0.668085
3.579000,-1.445784
3.580000,-1.827633
3.581000,-2.287124
3.582000,-2.569693
3.583000,-2.761890
3.584000,-2.842078
3.585000,-2.742798
3.586000,-2.522598
3.587000,-2.033831
3.588000,-1.691440
3.589000,-1.440693
3.590000,-1.573067
3.591000,-1.763991
3.592000,-1.753809
3.593000,-1.748717
3.594000,-1.719442
3.595000,-1.682530
3.596000,-1.604888
3.597000,-1.639254
3.598000,-1.520881
3.599000,-1.444511
3.600000,-1.192491
3.601000,-0.605716
3.602000,0.005242
3.603000,0.147799
3.604000,-0.253142
3.605000,-0.730453
3.606000,-0.903558
3.607000,-1.234494
3.608000,-1.590886
3.609000,-1.991828
3.610000,-2.223483
3.611000,-2.433500
3.612000,-2.191662
3.613000,-1.865818
3.614000,-1.799631
3.615000,-1.844180
3.616000,-1.874728
3.617000,-1.981645
3.618000,-2.191662
3.619000,-1.846725
3.620000,-1.630344
3.621000,-1.657074
3.622000,-1.513244
3.623000,-0.684631
3.624000,-0.510254
3.625000,-0.724089
3.626000,-1.090664
3.627000,-1.327411
3.628000,-1.482696
3.629000,-1.425419
3.630000,-1.420327
3.631000,-1.341412
3.632000,-1.307045
3.633000,-1.588341
3.634000,-1.846725
3.635000,-2.147113
3.636000,-2.301126
3.637000,-2.483140
3.638000,-1.979100
3.639000,-1.781811
3.640000,-1.289226
3.641000,-0.915014
3.642000,-0.796641
3.643000,-1.340139
3.644000,-1.551429
3.645000,-1.579431
3.646000,-1.546337
3.647000,-1.585795
3.648000,-1.673620
3.649000,-1.688894
3.650000,-1.611252
3.651000,-1.840361
3.652000,-2.063106
3.653000,-1.929459
3.654000,-1.881092
3.655000,-1.918004
3.656000,-1.767810
3.657000,-1.478877
3.658000,-1.279043
3.659000,-1.105938
3.660000,-1.015567
3.661000,-0.629900
3.662000,-0.558621
3.663000,-0.782639
3.664000,-1.007930
3.665000,-0.346059
3.666000,0.278901
3.667000,-0.161498
3.668000,-0.757183
3.669000,-1.116121
3.670000,-1.709260
3.671000,-2.304944
3.672000,-2.392769
3.673000,-2.192935
3.674000,-2.017284
3.675000,-1.923095
3.676000,-2.004556
3.677000,-2.424590
3.678000,-2.802621
3.679000,-2.915902
3.680000,-2.822986
3.681000,-2.429681
3.682000,-2.045287
3.683000,-1.646891
3.684000,-0.673176
3.685000,-0.412246
3.686000,-0.736818
3.687000,-0.971018
3.688000,-0.971018
3.689000,-1.322319
3.690000,-1.598523
3.691000,-1.822541
3.692000,-2.044014
3.693000,-1.790721
3.694000,-1.616343
3.695000,-1.602342
3.696000,-1.220493
3.697000,-0.754637
3.698000,-0.889557
3.699000,-0.925196
3.700000,-1.055025
3.701000,-1.448329
3.702000,-1.651982
3.703000,-1.268860
3.704000,-0.143679
3.705000,0.417639
3.706000,-0.066036
3.707000,-1.004112
3.708000,-1.552702
3.709000,-1.957461
3.710000,-2.243848
3.711000,-2.444955
3.712000,-2.494596
3.713000,-2.558237
3.714000,-2.587512
3.715000,-1.907821
3.716000,-1.804722
3.717000,-1.841634
3.718000,-1.914185
3.719000,-2.058015
3.720000,-2.171297
3.721000,-2.063106
3.722000,-2.016012
3.723000,-1.867091
3.724000,-1.430510
3.725000,-1.251041
3.726000,-1.293044
3.727000,-1.557793
3.728000,-1.704168
3.729000,-1.925641
3.730000,-1.844180
3.731000,-1.641800
3.732000,-1.494151
3.733000,-1.188672
3.734000,-0.552257
3.735000,0.614928
3.736000,0.688752
3.737000,0.341269
3.738000,-0.375334
3.739000,-1.049934
3.740000,-1.611252
3.741000,-1.943460
3.742000,-2.089836
3.743000,-2.222210
3.744000,-2.117838
3.745000,-1.900184
3.746000,-1.888729
3.747000,-1.816177
3.748000,-1.730898
3.749000,-1.556520
3.750000,-1.347776
3.751000,-1.113575
3.752000,-1.189945
3.753000,-1.081754
3.754000,0.217805
3.755000,1.088421
3.756000,0.945864
3.757000,-0.018941
3.758000,-1.212856
3.759000,-2.110201
3.760000,-2.932449
3.761000,-3.599412
3.762000,-3.893436
3.763000,-3.753425
3.764000,-3.347392
3.765000,-2.770800
3.766000,-1.937096
3.767000,-1.804722
3.768000,-2.172570
3.769000,-1.996919
3.770000,-1.525972
3.771000,-1.336320
3.772000,-1.453421
3.773000,-1.560339
3.774000,-1.825087
3.775000,-2.049105
3.776000,-1.953643
3.777000,-2.187844
3.778000,-2.056742
3.779000,-1.758900
3.780000,-2.002011
3.781000,-1.713078
3.782000,-1.427964
3.783000,-1.109757
3.784000,-0.902285
3.785000,-0.897194
3.786000,-0.268416
3.787000,0.280174
3.788000,-0.054581
3.789000,-0.740636
3.790000,-1.108484
3.791000,-1.380869
3.792000,-1.384688
3.793000,-1.397416
3.794000,-1.578158
3.795000,-1.667256
3.796000,-1.635435
3.797000,-1.691440
3.798000,-1.679985
3.799000,-1.743626
3.800000,-1.739808
3.801000,-1.809813
3.802000,-1.734716
3.803000,-1.637981
3.804000,-1.515789
3.805000,-1.308318
3.806000,-1.153033
3.807000,-1.090664
3.808000,-1.028296
3.809000,-1.177217
3.810000,-1.153033
3.811000,-0.424974
3.812000,-0.258233
3.813000,-0.576441
3.814000,-1.105938
3.815000,-1.539973
3.816000,-1.765264
3.817000,-1.606160
3.818000,-1.154306
3.819000,-1.161943
3.820000,-1.262496
3.821000,-1.431783
3.822000,-1.980372
3.823000,-2.241303
3.824000,-2.051651
3.825000,-1.842907
3.826000,-1.823814
3.827000,-1.529791
3.828000,-1.365596
3.829000,-1.664711
3.830000,-1.993101
3.831000,-1.906548
3.832000,-1.606160
3.833000,-0.522982
3.834000,0.642930
3.835000,0.929317
3.836000,0.617474
3.837000,0.107069
3.838000,-0.871737
3.839000,-1.765264
3.840000,-2.674065
3.841000,-3.344846
3.842000,-3.563773
3.843000,-3.786518
3.844000,-3.745788
3.845000,-3.523042
3.846000,-3.455582
3.847000,-2.844624
3.848000,-1.546337
3.849000,-1.253586
3.850000,-1.598523
3.851000,-1.800903
3.852000,-2.103837
3.853000,-2.245121
3.854000,-2.119111
3.855000,-2.059288
3.856000,-2.128021
3.857000,-1.859454
3.858000,-1.351594
3.859000,-1.189945
3.860000,-1.173398
3.861000,-1.041024
3.862000,-0.363878
3.863000,-0.185682
3.864000,-0.142406
3.865000,-0.058399
3.866000,-0.085129
3.867000,-0.452976
3.868000,-0.776275
3.869000,-0.855191
3.870000,-1.067753
3.871000,-1.211583
3.872000,-1.261223
3.873000,-1.252314
3.874000,-1.593432
3.875000,-2.292216
3.876000,-2.474230
3.877000,-1.989282
3.878000,-1.473786
3.879000,-1.243404
3.880000,-1.184854
3.881000,-1.150487
3.882000,-0.890830
3.883000,-0.640082
3.884000,-0.370242
3.885000,-0.003667
3.886000,-0.049489
3.887000,-0.136042
3.888000,-0.645174
3.889000,-0.590442
3.890000,-1.179762
3.891000,-1.858181
3.892000,-2.688066
3.893000,-3.716513
3.894000,-3.985080
3.895000,-3.759789
3.896000,-3.464492
3.897000,-2.642244
3.898000,-2.038923
3.899000,-1.704168
3.900000,-1.559066
3.901000,-1.566703
3.902000,-1.715624
3.903000,-1.753809
3.904000,-1.902730
3.905000,-2.070743
3.906000,-2.222210
3.907000,-2.452592
3.908000,-2.772073
3.909000,-2.945178
3.910000,-2.786074
3.911000,-2.338038
3.912000,-1.995646
3.913000,-1.691440
3.914000,-1.346503
3.915000,-0.982474
3.916000,-0.745727
3.917000,-0.646447
3.918000,-0.419883
3.919000,-0.207320
3.920000,0.017971
3.921000,-0.041852
3.922000,-0.181864
3.923000,-0.055853
3.924000,0.019243
3.925000,-0.307874
3.926000,-0.333330
3.927000,-0.326966
3.928000,-0.368970
3.929000,-0.349877
3.930000,-0.330785
3.931000,0.129980
3.932000,0.808398
3.933000,0.100705
3.934000,-1.010476
3.935000,-2.173843
3.936000,-3.053368
3.937000,-3.908710
3.938000,-4.261284
3.939000,-4.361837
3.940000,-3.831067
3.941000,-3.433944
3.942000,-3.525588
3.943000,-3.771244
3.944000,-3.632506
3.945000,-2.826804
3.946000,-2.084744
3.947000,-1.947279
3.948000,-1.831451
3.949000,-1.598523
3.950000,-1.459785
3.951000,-1.105938
3.952000,-0.684631
3.953000,-0.240414
3.954000,0.095613
3.955000,-0.096584
3.956000,-0.120768
3.957000,-0.189501
3.958000,-0.204775
3.959000,-0.287509
3.960000,-0.246778
3.961000,-0.553530
3.962000,-0.697360
3.963000,-0.976110
3.964000,-1.279043
3.965000,-1.643072
3.966000,-1.825087
3.967000,-2.079653
3.968000,-2.136931
3.969000,-2.142022
3.970000,-1.775447
3.971000,-1.055025
3.972000,-0.088947
3.973000,0.698935
3.974000,1.006960
3.975000,1.164790
3.976000,1.320076
3.977000,0.660750
3.978000,-0.814460
3.979000,-2.251485
3.980000,-3.506496
3.981000,-4.459845
3.982000,-5.117898
3.983000,-5.455198
3.984000,-5.558298
3.985000,-5.741585
3.986000,-5.610484
3.987000,-4.943521
3.988000,-3.825976
3.989000,-2.808985
3.990000,-2.234938
3.991000,-1.743626
3.992000,-1.417782
3.993000,-1.175944
3.994000,-0.974837
3.995000,-0.880647
3.996000,-0.894648
3.997000,-0.866646
3.998000,-0.806823
3.999000,-0.752091
4.000000,-0.699905
4.001000,-0.572622
4.002000,-0.309147
4.003000,-0.080037
4.004000,0.272537
4.005000,0.226715
4.006000,0.066338
4.007000,-0.171681
4.008000,-0.343513
4.009000,-0.390608
4.010000,-0.129678
4.011000,-0.251869
4.012000,-0.407155
4.013000,-0.703724
4.014000,-0.972291
4.015000,-1.107211
4.016000,-1.107211
4.017000,-1.343957
4.018000,-1.223039
4.019000,-1.108484
4.020000,-1.033387
4.021000,-0.818279
4.022000,-0.599352
4.023000,-0.981201
4.024000,-1.377051
4.025000,-1.559066
4.026000,-1.438147
4.027000,-1.649437
4.028000,-1.625253
4.029000,-1.864545
4.030000,-2.072016
4.031000,-2.192935
4.032000,-2.150932
4.033000,-2.396588
4.034000,-2.747889
4.035000,-2.770800
4.036000,-2.646063
4.037000,-2.791165
4.038000,-2.845897
4.039000,-2.625697
4.040000,-2.322764
4.041000,-2.395315
4.042000,-2.534053
4.043000,-2.554419
4.044000,-2.628243
4.045000,-2.238757
4.046000,-1.826360
4.047000,-1.304500
4.048000,-0.930288
4.049000,-0.591715
4.050000,-0.363878
4.051000,-0.249324
4.052000,0.648022
4.053000,1.199157
4.054000,0.738392
4.055000,-0.059672
4.056000,-0.582805
4.057000,-0.979928
4.058000,-1.361777
4.059000,-1.671075
4.060000,-1.793266
4.061000,-2.016012
4.062000,-2.348220
4.063000,-2.850988
4.064000,-3.136102
4.065000,-3.285023
4.066000,-2.858625
4.067000,-2.424590
4.068000,-2.108928
4.069000,-1.403780
4.070000,-0.188228
4.071000,-0.048216
4.072000,-0.702451
4.073000,-1.412690
4.074000,-2.016012
4.075000,-2.534053
4.076000,-2.716068
4.077000,-2.740252
4.078000,-2.759344
4.079000,-2.578603
4.080000,-2.130566
4.081000,-2.159841
4.082000,-2.156023
4.083000,-2.019830
4.084000,-1.765264
4.085000,-1.263769
4.086000,-1.000293
4.087000,-0.867919
4.088000,-0.874283
4.089000,-0.869192
4.090000,-0.837371
4.091000,-0.927742
4.092000,-1.001566
4.093000,-0.743182
4.094000,-0.540802
4.095000,-0.456795
4.096000,-0.638810
4.097000,-0.752091
4.098000,-0.913741
4.099000,-0.871737
4.100000,-1.238313
4.101000,-1.196309
4.102000,-1.046115
4.103000,-0.965927
4.104000,-0.843735
4.105000,-0.473342
4.106000,-0.536983
4.107000,-0.948107
4.108000,-1.524699
4.109000,-1.966371
4.110000,-2.269305
4.111000,-2.107655
4.112000,-1.212856
4.113000,-0.368970
4.114000,-0.587896
4.115000,-0.699905
4.116000,-1.379597
4.117000,-1.938369
4.118000,-1.940915
4.119000,-2.284579
4.120000,-2.680429
4.121000,-2.878990
4.122000,-2.969361
4.123000,-3.481039
4.124000,-3.225200
4.125000,-2.681702
4.126000,-1.844180
4.127000,-0.646447
4.128000,-0.216230
4.129000,-0.503890
4.130000,-1.114848
4.131000,-1.000293
4.132000,-1.062662
4.133000,-1.588341
4.134000,-1.800903
4.135000,-1.391052
4.136000,-1.415236
4.137000,-1.272679
4.138000,-1.919277
4.139000,-2.714795
4.140000,-2.646063
4.141000,-2.064379
4.142000,-1.539973
4.143000,-1.159397
4.144000,-1.308318
4.145000,-1.906548
4.146000,-1.968917
4.147000,-2.125475
4.148000,-2.023649
4.149000,-1.995646
4.150000,-1.730898
4.151000,-1.629071
4.152000,-1.696531
4.153000,-1.849271
4.154000,-1.980372
4.155000,-1.842907
4.156000,-1.746172
4.157000,-1.676166
4.158000,-1.601069
4.159000,-1.458512
4.160000,-1.271406
4.161000,-1.146669
4.162000,-0.866646
4.163000,-0.379152
4.164000,0.665841
4.165000,1.139334
4.166000,0.635293
4.167000,-0.262052
4.168000,-1.069026
4.169000,-1.514517
4.170000,-1.707987
4.171000,-1.921822
4.172000,-1.819996
4.173000,-1.919277
4.174000,-2.139476
4.175000,-2.428409
4.176000,-2.218392
4.177000,-2.019830
4.178000,-2.100018
4.179000,-2.013466
4.180000,-1.643072
4.181000,-1.281589
4.182000,-1.066480
4.183000,-0.086401
4.184000,1.017142
4.185000,0.869494
4.186000,0.370545
4.187000,-0.525528
4.188000,-1.319774
4.189000,-1.882365
4.190000,-2.233666
4.191000,-2.447501
4.192000,-2.530235
4.193000,-2.481867
4.194000,-2.760617
4.195000,-2.868808
4.196000,-2.980817
4.197000,-3.017729
4.198000,-2.878990
4.199000,-2.186571
4.200000,-1.538700
4.201000,-0.982474
4.202000,-0.246778
4.203000,0.229260
4.204000,0.287811
4.205000,-0.111858
4.206000,-0.846281
4.207000,-1.323592
4.208000,-1.533609
4.209000,-1.513244
4.210000,-1.716897
4.211000,-2.399133
4.212000,-2.741525
4.213000,-2.766981
4.214000,-3.061005
4.215000,-3.227746
4.216000,-2.943905
4.217000,-2.143295
4.218000,-1.620162
4.219000,-1.366868
4.220000,-1.174671
4.221000,-1.239585
4.222000,-1.245950
4.223000,-1.154306
4.224000,-0.566258
4.225000,-0.581532
4.226000,-0.824643
4.227000,-1.379597
4.228000,-2.035104
4.229000,-2.070743
4.230000,-1.511971
4.231000,-1.408872
4.232000,-1.055025
4.233000,-0.464432
4.234000,-0.419883
4.235000,-0.596806
4.236000,-0.668085
4.237000,-0.432611
4.238000,-0.344786
4.239000,-0.118222
4.240000,-0.767365
4.241000,-1.340139
4.242000,-1.606160
4.243000,-2.000738
4.244000,-2.242575
4.245000,-2.783528
4.246000,-3.187015
4.247000,-3.698693
4.248000,-3.992717
4.249000,-3.363939
4.250000,-2.707158
4.251000,-2.325309
4.252000,-2.247667
4.253000,-2.077107
4.254000,-1.938369
4.255000,-1.673620
4.256000,-1.574340
4.257000,-1.491606
4.258000,-1.163216
4.259000,-0.839917
4.260000,-0.711361
4.261000,-0.741909
4.262000,-0.626081
4.263000,-0.633718
4.264000,-0.454249
4.265000,-0.552257
4.266000,-0.771184
4.267000,-0.861555
4.268000,-0.792822
4.269000,-0.298964
4.270000,-0.416064
4.271000,-0.469523
4.272000,-0.822097
4.273000,-1.132668
4.274000,-1.172125
4.275000,-1.126303
4.276000,-1.662165
4.277000,-2.265486
4.278000,-2.182752
4.279000,-2.154750
4.280000,-2.348220
4.281000,-2.195481
4.282000,-1.865818
4.283000,-2.008375
4.284000,-2.213300
4.285000,-2.383860
4.286000,-2.357130
4.287000,-2.059288
4.288000,-1.167034
4.289000,-0.838644
4.290000,-0.538256
4.291000,-0.372788
4.292000,-0.142406
4.293000,-0.473342
4.294000,-0.941743
4.295000,-1.216674
4.296000,-1.653255
4.297000,-1.910367
4.298000,-1.990555
4.299000,-2.139476
4.300000,-2.028740
4.301000,-1.514517
4.302000,-0.674449
4.303000,-0.480979
4.304000,-0.528073
4.305000,-0.759728
4.306000,-1.249768
4.307000,-1.831451
4.308000,-2.284579
4.309000,-2.691884
4.310000,-2.797529
4.311000,-2.716068
4.312000,-2.311308
4.313000,-2.360949
4.314000,-2.429681
4.315000,-2.103837
4.316000,-1.742353
4.317000,-1.385961
4.318000,-1.127576
4.319000,-1.259951
4.320000,-1.336320
4.321000,-1.340139
4.322000,-1.515789
4.323000,-1.522154
4.324000,-1.286680
4.325000,-0.626081
4.326000,-0.670630
4.327000,-1.079209
4.328000,-1.341412
4.329000,-1.615070
4.330000,-1.849271
4.331000,-1.961280
4.332000,-2.204390
4.333000,-2.377495
4.334000,-2.635880
4.335000,-2.404225
4.336000,-1.575612
4.337000,-1.276497
4.338000,-1.487787
4.339000,-1.587068
4.340000,-1.595978
4.341000,-1.081754
4.342000,-0.837371
4.343000,-0.881920
4.344000,-1.044842
4.345000,-1.186127
4.346000,-1.203946
4.347000,-1.361777
4.348000,-1.548883
4.349000,-1.515789
4.350000,-1.491606
4.351000,-1.426691
4.352000,-1.371960
4.353000,-1.585795
4.354000,-1.769083
4.355000,-2.010920
4.356000,-1.907821
4.357000,-1.187399
4.358000,-0.572622
4.359000,0.225442
4.360000,0.631475
4.361000,0.515647
4.362000,-0.078764
4.363000,0.515647
4.364000,1.164790
4.365000,0.622565
4.366000,-0.440248
4.367000,-1.627799
4.368000,-2.961724
4.369000,-3.698693
4.370000,-3.996535
4.371000,-3.804338
4.372000,-3.641416
4.373000,-3.324481
4.374000,-2.755526
4.375000,-1.940915
4.376000,-0.874283
4.377000,-0.815733
4.378000,-0.918832
4.379000,-0.808096
4.380000,-0.290054
4.381000,-0.950653
4.382000,-1.315955
4.383000,-1.776720
4.384000,-1.938369
4.385000,-2.171297
4.386000,-2.399133
4.387000,-2.639698
4.388000,-2.464048
4.389000,-2.429681
4.390000,-2.787347
4.391000,-2.973180
4.392000,-3.086462
4.393000,-2.873899
4.394000,-2.588785
4.395000,-2.278215
4.396000,-1.896366
4.397000,-1.757627
4.398000,-1.649437
4.399000,-1.179762
4.400000,-0.660448
4.401000,-0.433884
4.402000,-0.550984
4.403000,-0.684631
4.404000,-0.628627
4.405000,-0.692268
4.406000,-0.804278
4.407000,-0.898467
4.408000,-0.934106
4.409000,-1.020659
4.410000,-1.267588
4.411000,-1.229403
4.412000,-0.903558
4.413000,-0.449158
4.414000,-0.460613
4.415000,-0.876829
4.416000,-1.207765
4.417000,-1.315955
4.418000,-1.408872
4.419000,-1.641800
4.420000,-1.849271
4.421000,-2.105110
4.422000,-2.181480
4.423000,-2.394042
4.424000,-2.383860
4.425000,-1.758900
4.426000,-1.163216
4.427000,-1.114848
4.428000,-1.141577
4.429000,-1.107211
4.430000,-1.244677
4.431000,-1.313410
4.432000,-1.466149
4.433000,-1.685076
4.434000,-1.854362
4.435000,-2.091109
4.436000,-2.035104
4.437000,-1.522154
4.438000,-0.775002
4.439000,-0.749546
4.440000,-1.005385
4.441000,-1.326138
4.442000,-1.576885
4.443000,-1.612525
4.444000,-1.657074
4.445000,-1.364323
4.446000,-1.275225
4.447000,-0.847554
4.448000,-0.613353
4.449000,-0.969745
4.450000,-0.553530
4.451000,-0.293873
4.452000,-0.664266
4.453000,-1.189945
4.454000,-1.734716
4.455000,-2.304944
4.456000,-2.723705
4.457000,-3.005001
4.458000,-2.808985
4.459000,-2.247667
4.460000,-1.491606
4.461000,-0.293873
4.462000,0.272537
4.463000,0.219078
4.464000,-0.492434
4.465000,-1.522154
4.466000,-2.232393
4.467000,-2.674065
4.468000,-2.898083
4.469000,-2.978271
4.470000,-2.923539
4.471000,-2.555692
4.472000,-1.901457
4.473000,-1.752536
4.474000,-1.553974
4.475000,-1.567976
4.476000,-1.702895
4.477000,-1.920549
4.478000,-1.925641
4.479000,-1.487787
4.480000,-1.340139
4.481000,-1.550156
4.482000,-1.884910
4.483000,-2.139476
4.484000,-2.022376
4.485000,-1.196309
4.486000,-0.768638
4.487000,-0.828461
4.488000,-0.988838
4.489000,-0.823370
4.490000,-0.857736
4.491000,-1.033387
4.492000,-1.347776
4.493000,-1.662165
4.494000,-1.230676
4.495000,-0.859009
4.496000,-0.906104
4.497000,-1.002839
4.498000,-1.328683
4.499000,-1.794539
4.500000,-2.161114
4.501000,-2.278215
4.502000,-2.063106
4.503000,-1.854362
4.504000,-1.579431
4.505000,-1.233221
4.506000,-0.791549
4.507000,-0.883193
4.508000,-1.285407
4.509000,-1.541246
4.510000,-1.478877
4.511000,-0.971018
4.512000,-0.799186
4.513000,-0.766093
4.514000,-0.852645
4.515000,-1.394871
4.516000,-2.032558
4.517000,-2.467866
4.518000,-3.007546
4.519000,-3.016456
4.520000,-2.713522
4.521000,-2.296034
4.522000,-1.972735
4.523000,-1.632890
4.524000,-1.321046
4.525000,-1.111030
4.526000,-1.188672
4.527000,-1.242131
4.528000,-1.028296
4.529000,-1.037205
4.530000,-0.820824
4.531000,-1.046115
4.532000,-1.287953
4.533000,-1.564157
4.534000,-1.574340
4.535000,-1.214129
4.536000,-1.037205
4.537000,-1.247222
4.538000,-1.351594
4.539000,-1.398689
4.540000,-1.341412
4.541000,-0.846281
4.542000,-0.971018
4.543000,-1.271406
4.544000,-1.433056
4.545000,-0.929015
4.546000,-0.992656
4.547000,-1.025750
4.548000,-1.168307
4.549000,-1.210310
4.550000,-1.168307
4.551000,-1.214129
4.552000,-1.416509
4.553000,-1.594705
4.554000,-1.669802
4.555000,-1.569248
4.556000,-1.062662
4.557000,-1.149214
4.558000,-1.831451
4.559000,-2.745343
4.560000,-3.484857
4.561000,-3.162831
4.562000,-2.685520
4.563000,-2.224756
4.564000,-2.289670
4.565000,-2.467866
4.566000,-2.704613
4.567000,-2.693157
4.568000,-2.458956
4.569000,-2.098746
4.570000,-1.882365
4.571000,-1.724534
4.572000,-1.412690
4.573000,-1.282862
4.574000,-0.831007
4.575000,-0.209866
4.576000,-0.015123
4.577000,-0.039307
4.578000,0.135071
4.579000,0.077794
4.580000,-0.393153
4.581000,-0.930288
4.582000,-1.286680
4.583000,-1.459785
4.584000,-1.331229
4.585000,-1.481423
4.586000,-1.202673
4.587000,-1.099574
4.588000,-1.529791
4.589000,-1.752536
4.590000,-1.749990
4.591000,-1.555247
4.592000,-1.611252
4.593000,-1.707987
4.594000,-1.999465
4.595000,-2.280760
4.596000,-2.479322
4.597000,-2.570966
4.598000,-2.105110
4.599000,-1.839088
4.600000,-1.636708
4.601000,-1.497970
4.602000,-1.193763
4.603000,-0.809369
4.604000,-0.745727
4.605000,-0.887011
4.606000,-1.032114
4.607000,-1.323592
4.608000,-1.489060
4.609000,-1.407599
4.610000,-1.422873
4.611000,-1.426691
4.612000,-1.455966
4.613000,-1.429237
4.614000,-1.396143
4.615000,-1.548883
4.616000,-1.387234
4.617000,-1.221766
4.618000,-1.147942
4.619000,-0.968473
4.620000,-1.117394
4.621000,-0.915014
4.622000,-0.651538
4.623000,-0.761001
4.624000,-1.254859
4.625000,-1.947279
4.626000,-2.310035
4.627000,-2.116565
4.628000,-1.097028
4.629000,-0.848827
4.630000,-1.519608
4.631000,-2.128021
4.632000,-2.116565
4.633000,-1.590886
4.634000,-1.641800
4.635000,-1.865818
4.636000,-1.567976
4.637000,-1.058844
4.638000,-0.918832
4.639000,-1.454694
4.640000,-2.035104
4.641000,-2.343129
4.642000,-2.452592
4.643000,-2.540418
4.644000,-2.396588
4.645000,-2.534053
4.646000,-2.330401
4.647000,-2.094927
4.648000,-1.982918
4.649000,-1.767810
4.650000,-1.631617
4.651000,-1.847998
4.652000,-1.702895
4.653000,-1.108484
4.654000,-0.564985
4.655000,-0.540802
4.656000,-0.834825
4.657000,-0.729181
4.658000,-0.724089
4.659000,-0.949380
4.660000,-0.778821
4.661000,-0.959563
4.662000,-0.576441
4.663000,-0.452976
4.664000,-1.072845
4.665000,-2.021103
4.666000,-2.485686
4.667000,-2.709704
4.668000,-2.997364
4.669000,-3.048277
4.670000,-2.541690
4.671000,-2.233666
4.672000,-1.896366
4.673000,-1.592159
4.674000,-1.369414
4.675000,-1.226857
4.676000,-0.990111
4.677000,-0.684631
4.678000,-0.626081
4.679000,-0.514072
4.680000,-0.670630
4.681000,-0.823370
4.682000,-1.027023
4.683000,-1.528518
4.684000,-1.990555
4.685000,-2.363494
4.686000,-2.292216
4.687000,-2.033831
4.688000,-1.700350
4.689000,-1.105938
4.690000,-1.189945
4.691000,-1.237040
4.692000,-1.103393
4.693000,-1.411417
4.694000,-1.566703
4.695000,-1.270133
4.696000,-1.379597
4.697000,-1.552702
4.698000,-1.669802
4.699000,-1.785629
4.700000,-1.645618
4.701000,-1.083027
4.702000,-0.370242
4.703000,-0.088947
4.704000,-0.379152
4.705000,-0.869192
4.706000,-0.973564
4.707000,-0.974837
4.708000,-1.046115
4.709000,-1.133940
4.710000,-1.309591
4.711000,-1.509425
4.712000,-1.785629
4.713000,-1.660892
4.714000,-1.373233
4.715000,-1.189945
4.716000,-1.383415
4.717000,-1.963826
4.718000,-2.674065
4.719000,-3.043185
4.720000,-3.086462
4.721000,-2.850988
4.722000,-2.447501
4.723000,-1.826360
4.724000,-1.650709
4.725000,-1.468695
4.726000,-0.659175
4.727000,0.728210
4.728000,1.358261
4.729000,1.307347
4.730000,0.459643
4.731000,-0.866646
4.732000,-2.289670
4.733000,-3.295206
4.734000,-3.880708
4.735000,-4.065268
4.736000,-3.708876
4.737000,-2.829350
4.738000,-2.448774
4.739000,-2.550600
4.740000,-2.424590
4.741000,-2.518780
4.742000,-2.540418
4.743000,-2.135658
4.744000,-0.834825
4.745000,0.808398
4.746000,0.880949
4.747000,0.311994
4.748000,-0.554803
4.749000,-1.189945
4.750000,-1.711805
4.751000,-1.938369
4.752000,-2.233666
4.753000,-2.434773
4.754000,-2.469139
4.755000,-2.168751
4.756000,-1.197582
4.757000,-0.656629
4.758000,-0.754637
4.759000,-0.590442
4.760000,-0.781367
4.761000,-1.361777
4.762000,-2.010920
4.763000,-2.341856
4.764000,-2.541690
4.765000,-2.777164
4.766000,-2.773345
4.767000,-2.425863
4.768000,-2.069471
4.769000,-1.909094
4.770000,-1.939642
4.771000,-2.246394
4.772000,-2.065652
4.773000,-1.683803
4.774000,-1.542519
4.775000,-1.458512
4.776000,-1.035933
4.777000,-0.531892
4.778000,-0.188228
4.779000,-0.337149
4.780000,0.010334
4.781000,-0.272235
4.782000,-0.755910
4.783000,-1.156851
4.784000,-1.495424
4.785000,-1.511971
4.786000,-1.574340
4.787000,-1.387234
4.788000,-1.272679
4.789000,-1.304500
4.790000,-1.220493
4.791000,-1.221766
4.792000,-1.342685
4.793000,-1.584522
4.794000,-1.704168
4.795000,-1.620162
4.796000,-1.603615
4.797000,-1.273952
4.798000,-1.066480
4.799000,-1.053752
4.800000,-1.076663
4.801000,-0.799186
4.802000,-0.620990
4.803000,-0.316784
4.804000,-0.319329
4.805000,-0.710088
4.806000,-1.200128
4.807000,-1.657074
4.808000,-2.049105
4.809000,-2.262941
4.810000,-2.014739
4.811000,-1.147942
4.812000,-0.852645
4.813000,-1.193763
4.814000,-1.125031
4.815000,-0.823370
4.816000,-1.086846
4.817000,-1.640527
4.818000,-2.129294
4.819000,-2.433500
4.820000,-2.507324
4.821000,-2.590058
4.822000,-2.392769
4.823000,-2.661336
4.824000,-2.722432
4.825000,-2.446228
4.826000,-1.972735
4.827000,-2.036377
4.828000,-1.993101
4.829000,-1.359231
4.830000,-1.425419
4.831000,-1.329956
4.832000,-1.181035
4.833000,-1.076663
4.834000,-1.253586
4.835000,-1.835270
4.836000,-2.256577
4.837000,-2.080926
4.838000,-1.769083
4.839000,-0.874283
4.840000,-0.370242
4.841000,-0.394426
4.842000,-0.613353
4.843000,-1.155579
4.844000,-1.665983
4.845000,-2.056742
4.846000,-2.117838
4.847000,-2.276942
4.848000,-2.283306
4.849000,-2.107655
4.850000,-2.069471
4.851000,-2.083472
4.852000,-2.059288
4.853000,-1.924368
4.854000,-1.597251
4.855000,-1.350322
4.856000,-0.718998
4.857000,-0.358787
4.858000,-0.310419
4.859000,-0.563713
4.860000,-1.163216
4.861000,-1.562884
4.862000,-1.753809
4.863000,-1.660892
4.864000,-1.550156
4.865000,-1.760173
4.866000,-1.935823
4.867000,-1.844180
4.868000,-1.593432
4.869000,-1.626526
4.870000,-1.431783
4.871000,-0.996475
4.872000,-0.842462
4.873000,-0.889557
4.874000,-0.613353
4.875000,-0.384244
4.876000,-0.645174
4.877000,-0.762274
4.878000,-0.979928
4.879000,-1.034660
4.880000,-1.373233
4.881000,-1.971463
4.882000,-2.394042
4.883000,-2.423317
4.884000,-2.565874
4.885000,-2.852261
4.886000,-2.998636
4.887000,-2.909538
4.888000,-2.442410
4.889000,-2.036377
4.890000,-1.636708
4.891000,-1.149214
4.892000,-0.931561
4.893000,-0.109312
4.894000,0.704026
4.895000,0.238170
4.896000,-0.707542
4.897000,-1.357959
4.898000,-1.728352
4.899000,-1.784357
4.900000,-1.799631
4.901000,-1.911640
4.902000,-1.510698
4.903000,-1.214129
4.904000,-1.463603
4.905000,-1.363050
4.906000,-0.817006
4.907000,-0.480979
4.908000,-0.343513
4.909000,-0.948107
4.910000,-1.527245
4.911000,-1.953643
4.912000,-2.350766
4.913000,-2.695703
4.914000,-2.539145
4.915000,-2.446228
4.916000,-2.367313
4.917000,-2.288397
4.918000,-2.486959
4.919000,-2.611696
4.920000,-2.247667
4.921000,-1.205219
4.922000,-0.834825
4.923000,-1.010476
4.924000,-1.153033
4.925000,-0.853918
4.926000,-1.100847
4.927000,-1.655801
4.928000,-1.993101
4.929000,-2.227301
4.930000,-2.022376
4.931000,-1.277770
4.932000,-0.814460
4.933000,-1.007930
4.934000,-1.153033
4.935000,-1.356686
4.936000,-1.763991
4.937000,-1.915458
4.938000,-1.393598
4.939000,-1.015567
4.940000,-1.146669
4.941000,-1.127576
4.942000,-1.531063
4.943000,-2.101291
4.944000,-2.106383
4.945000,-1.998192
4.946000,-1.947279
4.947000,-1.864545
4.948000,-1.581977
4.949000,-1.267588
4.950000,-0.888284
4.951000,-0.614626
4.952000,-0.608262
4.953000,-0.606989
4.954000,-0.912468
4.955000,-1.284134
4.956000,-1.552702
4.957000,-1.506880
4.958000,-1.403780
4.959000,-1.438147
4.960000,-1.257405
4.961000,-0.923924
4.962000,-0.990111
4.963000,-1.130122
4.964000,-1.193763
4.965000,-1.351594
4.966000,-1.539973
4.967000,-1.618889
4.968000,-1.565430
4.969000,-1.672348
4.970000,-1.839088
4.971000,-2.126748
4.972000,-2.542963
4.973000,-2.562056
4.974000,-2.262941
4.975000,-2.240030
4.976000,-2.535326
4.977000,-2.122929
4.978000,-0.581532
4.979000,0.061247
4.980000,-0.318056
4.981000,-0.838644
4.982000,-0.395699
4.983000,0.201258
4.984000,-0.553530
4.985000,-1.393598
4.986000,-1.998192
4.987000,-2.289670
4.988000,-2.493323
4.989000,-2.758072
4.990000,-2.367313
4.991000,-1.231948
4.992000,-0.778821
4.993000,-0.540802
4.994000,-0.767365
4.995000,-1.355413
4.996000,-1.870909
4.997000,-2.334219
4.998000,-2.629516
4.999000,-2.457684
5.000000,-2.250212
5.001000,-2.346947
5.002000,-2.181480
5.003000,-1.784357
5.004000,-1.000293
5.005000,-0.533165
5.006000,0.000151
5.007000,0.166892
5.008000,-0.004940
5.009000,-0.403336
5.010000,-0.270962
5.011000,-0.614626
5.012000,-1.149214
5.013000,-1.976554
5.014000,-2.919721
5.015000,-3.772517
5.016000,-4.190005
5.017000,-3.974897
5.018000,-3.147558
5.019000,-2.213300
5.020000,-1.890001
5.021000,-1.644345
5.022000,-1.472513
5.023000,-1.146669
5.024000,-0.789004
5.025000,-0.391881
5.026000,-0.589169
5.027000,-0.954471
5.028000,-1.272679
5.029000,-1.480150
5.030000,-1.904003
5.031000,-2.018557
5.032000,-2.284579
5.033000,-2.192935
5.034000,-1.816177
5.035000,-1.539973
5.036000,-1.366868
5.037000,-0.987565
5.038000,-0.845008
5.039000,-1.089391
5.040000,-1.100847
5.041000,-1.041024
5.042000,-1.220493
5.043000,-1.128849
5.044000,-1.005385
5.045000,-0.959563
5.046000,-0.704997
5.047000,-0.277326
5.048000,-0.398245
5.049000,-0.674449
5.050000,-1.331229
5.051000,-1.587068
5.052000,-1.440693
5.053000,-1.263769
5.054000,-1.412690
5.055000,-1.475059
5.056000,-0.586624
5.057000,-0.447885
5.058000,-0.738090
5.059000,-1.177217
5.060000,-1.723261
5.061000,-2.224756
5.062000,-2.997364
5.063000,-3.475948
5.064000,-3.626142
5.065000,-3.556136
5.066000,-3.206108
5.067000,-3.082643
5.068000,-2.896810
5.069000,-2.674065
5.070000,-1.867091
5.071000,-1.368141
5.072000,-1.237040
5.073000,-1.084300
5.074000,-0.833553
5.075000,-0.320602
5.076000,0.280174
5.077000,0.518193
5.078000,0.452006
5.079000,-0.006213
5.080000,-0.748273
5.081000,-1.350322
5.082000,-2.050378
5.083000,-2.559510
5.084000,-2.656245
5.085000,-2.623152
5.086000,-2.545509
5.087000,-2.343129
5.088000,-2.350766
5.089000,-2.130566
5.090000,-1.490333
5.091000,-1.188672
5.092000,-0.926469
5.093000,-0.838644
5.094000,-0.948107
5.095000,-0.757183
5.096000,-0.410973
5.097000,-0.078764
5.098000,-0.039307
5.099000,-0.348604
5.100000,-1.001566
5.101000,-1.686349
5.102000,-2.000738
5.103000,-2.280760
5.104000,-2.410589
5.105000,-2.340583
5.106000,-2.290943
5.107000,-1.984191
5.108000,-1.275225
5.109000,-1.244677
5.110000,-1.118667
5.111000,-0.072400
5.112000,0.415094
5.113000,-0.004940
5.114000,-0.225140
5.115000,-0.659175
5.116000,-1.391052
5.117000,-1.984191
5.118000,-2.443683
5.119000,-2.766981
5.120000,-2.904447
5.121000,-3.069915
5.122000,-3.117010
5.123000,-2.737706
5.124000,-2.592604
5.125000,-2.259122
5.126000,-1.630344
5.127000,-1.294317
5.128000,-1.043570
5.129000,-0.883193
5.130000,-0.730453
5.131000,-0.895921
5.132000,-1.349049
5.133000,-1.100847
5.134000,-0.346059
5.135000,-0.435157
5.136000,-0.824643
5.137000,-1.090664
5.138000,-1.513244
5.139000,-1.818723
5.140000,-2.134385
5.141000,-2.458956
5.142000,-2.647335
5.143000,-2.792438
5.144000,-3.124647
5.145000,-3.206108
5.146000,-2.335492
5.147000,-1.387234
5.148000,-0.413519
5.149000,-0.106767
5.150000,-0.108040
5.151000,-0.430065
5.152000,-0.428793
5.153000,-0.479706
5.154000,-0.669358
5.155000,-1.081754
5.156000,-1.765264
5.157000,-2.702067
5.158000,-3.148830
5.159000,-3.705057
5.160000,-3.934166
5.161000,-3.565046
5.162000,-2.982090
5.163000,-2.517507
5.164000,-2.065652
5.165000,-1.609979
5.166000,-0.930288
5.167000,-0.430065
5.168000,0.173256
5.169000,0.343815
5.170000,-0.133496
5.171000,-0.687177
5.172000,-0.978655
5.173000,-0.548439
5.174000,0.245807
5.175000,0.135071
5.176000,-0.376607
5.177000,-0.911195
5.178000,-1.463603
5.179000,-1.934551
5.180000,-2.178934
5.181000,-2.236211
5.182000,-2.145840
5.183000,-2.147113
5.184000,-2.136931
5.185000,-2.175115
5.186000,-1.930732
5.187000,-1.942188
5.188000,-1.840361
5.189000,-1.791994
5.190000,-1.690167
5.191000,-1.192491
5.192000,-0.552257
5.193000,-0.253142
5.194000,-0.291327
5.195000,-0.334603
5.196000,-0.343513
5.197000,-0.487343
5.198000,-1.029568
5.199000,-1.552702
5.200000,-1.849271
5.201000,-1.975281
5.202000,-2.044014
5.203000,-2.097473
5.204000,-2.032558
5.205000,-1.861999
5.206000,-1.907821
5.207000,-2.078380
5.208000,-2.135658
5.209000,-1.761446
5.210000,-1.280316
5.211000,-1.215402
5.212000,-1.408872
5.213000,-1.965098
5.214000,-2.089836
5.215000,-2.133112
5.216000,-1.944733
5.217000,-1.794539
5.218000,-1.483969
5.219000,-1.254859
5.220000,-1.053752
5.221000,-0.876829
5.222000,-0.715179
5.223000,-0.502617
5.224000,-0.628627
5.225000,-1.011749
5.226000,-1.349049
5.227000,-1.350322
5.228000,-1.458512
5.229000,-1.611252
5.230000,-1.812359
5.231000,-1.867091
5.232000,-1.243404
5.233000,-1.035933
5.234000,-1.200128
5.235000,-2.094927
5.236000,-2.707158
5.237000,-2.863716
5.238000,-3.148830
5.239000,-3.087735
5.240000,-2.661336
5.241000,-2.139476
5.242000,-1.911640
5.243000,-1.733443
5.244000,-1.718169
5.245000,-1.926914
5.246000,-2.002011
5.247000,-1.811086
5.248000,-1.529791
5.249000,-1.388506
5.250000,-1.114848
5.251000,-0.608262
5.252000,0.332360
5.253000,1.596280
5.254000,1.861028
5.255000,1.211885
5.256000,0.030699
5.257000,-1.038478
5.258000,-1.664711
5.259000,-1.970190
5.260000,-2.033831
5.261000,-1.578158
5.262000,-1.825087
5.263000,-2.632061
5.264000,-3.563773
5.265000,-3.416125
5.266000,-3.104281
5.267000,-3.104281
5.268000,-2.726251
5.269000,-2.280760
5.270000,-2.065652
5.271000,-1.943460
5.272000,-1.822541
5.273000,-1.598523
5.274000,-1.393598
5.275000,-1.328683
5.276000,-0.850099
5.277000,0.133798
5.278000,0.691298
5.279000,0.382000
5.280000,-0.031670
5.281000,-0.333330
5.282000,-0.073673
5.283000,0.071430
5.284000,-0.253142
5.285000,-0.395699
5.286000,-0.725362
5.287000,-0.734272
5.288000,-1.244677
5.289000,-1.706714
5.290000,-1.976554
5.291000,-2.555692
5.292000,-3.268476
5.293000,-3.344846
5.294000,-2.965543
5.295000,-2.768254
5.296000,-2.894264
5.297000,-3.259567
5.298000,-3.371576
5.299000,-3.150103
5.300000,-2.920994
5.301000,-2.638426
5.302000,-2.359676
5.303000,-2.047832
5.304000,-1.683803
5.305000,-1.338866
5.306000,-1.131395
5.307000,-1.005385
5.308000,-0.828461
5.309000,-0.500071
5.310000,-0.435157
5.311000,-0.703724
5.312000,-0.876829
5.313000,-0.940470
5.314000,-1.169580
5.315000,-1.525972
5.316000,-1.817450
5.317000,-1.974008
5.318000,-1.461058
5.319000,-0.761001
5.320000,-0.270962
5.321000,0.015425
5.322000,-0.095311
5.323000,-0.498798
5.324000,-0.902285
5.325000,-1.408872
5.326000,-1.692713
5.327000,-2.007102
5.328000,-2.112747
5.329000,-2.075835
5.330000,-2.058015
5.331000,-2.385132
5.332000,-1.990555
5.333000,-1.468695
5.334000,-1.231948
5.335000,-1.097028
5.336000,-1.057571
5.337000,-0.222594
5.338000,0.707845
5.339000,0.670932
5.340000,0.072702
5.341000,-0.846281
5.342000,-1.543792
5.343000,-2.289670
5.344000,-2.984635
5.345000,-3.404669
5.346000,-3.393214
5.347000,-3.181924
5.348000,-3.024093
5.349000,-2.814076
5.350000,-2.530235
5.351000,-2.077107
5.352000,-1.244677
5.353000,-0.818279
5.354000,-0.753364
5.355000,-0.901013
5.356000,-1.137759
5.357000,-1.273952
5.358000,-1.392325
5.359000,-1.486514
5.360000,-1.724534
5.361000,-1.777992
5.362000,-1.799631
5.363000,-1.464876
5.364000,-1.105938
5.365000,0.271264
5.366000,1.250070
5.367000,0.952228
5.368000,0.045973
5.369000,-0.814460
5.370000,-1.615070
5.371000,-2.301126
5.372000,-2.699521
5.373000,-2.968088
5.374000,-3.013910
5.375000,-2.429681
5.376000,-2.153477
5.377000,-1.863272
5.378000,-1.870909
5.379000,-1.868363
5.380000,-1.956189
5.381000,-2.130566
5.382000,-2.280760
5.383000,-2.282033
5.384000,-2.260395
5.385000,-2.131839
5.386000,-2.103837
5.387000,-1.944733
5.388000,-1.967644
5.389000,-1.697804
5.390000,-0.263325
5.391000,0.360362
5.392000,0.291629
5.393000,-0.360060
5.394000,-0.876829
5.395000,-1.415236
5.396000,-1.687622
5.397000,-1.784357
5.398000,-2.149659
5.399000,-2.425863
5.400000,-2.526416
5.401000,-2.470412
5.402000,-2.241303
5.403000,-2.064379
5.404000,-1.520881
5.405000,-0.685904
5.406000,-0.389335
5.407000,-0.012577
5.408000,-0.020214
5.409000,-0.025306
5.410000,-0.374061
5.411000,-0.946834
5.412000,-1.135213
5.413000,-1.174671
5.414000,-1.331229
5.415000,-1.622707
5.416000,-1.886183
5.417000,-2.079653
5.418000,-2.283306
5.419000,-2.531508
5.420000,-2.452592
5.421000,-2.033831
5.422000,-1.551429
5.423000,-1.001566
5.424000,-1.104665
5.425000,-1.237040
5.426000,-1.165761
5.427000,-1.412690
5.428000,-1.560339
5.429000,-1.561611
5.430000,-1.753809
5.431000,-1.822541
5.432000,-1.823814
5.433000,-1.791994
5.434000,-1.890001
5.435000,-2.007102
5.436000,-2.130566
5.437000,-2.002011
5.438000,-1.907821
5.439000,-1.816177
5.440000,-1.761446
5.441000,-1.541246
5.442000,-1.511971
5.443000,-1.551429
5.444000,-1.545065
5.445000,-0.744455
5.446000,-0.118222
5.447000,0.817308
5.448000,1.286982
5.449000,1.298438
5.450000,0.525830
5.451000,-0.575168
5.452000,-1.304500
5.453000,-1.671075
5.454000,-2.013466
5.455000,-2.052924
5.456000,-2.338038
5.457000,-2.567147
5.458000,-3.226473
5.459000,-3.805611
5.460000,-4.056358
5.461000,-4.004172
5.462000,-3.351210
5.463000,-2.789892
5.464000,-2.205663
5.465000,-1.683803
5.466000,-1.391052
5.467000,-1.419054
5.468000,-1.123758
5.469000,-0.983747
5.470000,-0.899740
5.471000,-1.130122
5.472000,-1.441965
5.473000,-1.391052
5.474000,-1.338866
5.475000,-1.524699
5.476000,-1.641800
5.477000,-1.538700
5.478000,-1.603615
5.479000,-1.251041
5.480000,-1.004112
5.481000,-1.027023
5.482000,-0.750819
5.483000,-0.544620
5.484000,-0.707542
5.485000,-0.978655
5.486000,-1.039751
5.487000,-0.792822
5.488000,-0.179318
5.489000,-0.062218
5.490000,-0.472069
5.491000,-0.409700
5.492000,-0.632445
5.493000,-0.931561
5.494000,-1.727079
5.495000,-2.422044
5.496000,-2.980817
5.497000,-3.301570
5.498000,-3.321935
5.499000,-3.279932
5.500000,-3.105554
5.501000,-2.742798
5.502000,-2.164933
5.503000,-1.873455
5.504000,-1.939642
5.505000,-2.010920
5.506000,-1.996919
5.507000,-1.893820
5.508000,-1.396143
5.509000,-0.528073
5.510000,-0.262052
5.511000,-0.310419
5.512000,-0.535710
5.513000,-0.516618
5.514000,-0.398245
5.515000,-0.717725
5.516000,-1.189945
5.517000,-1.445784
5.518000,-1.702895
5.519000,-2.186571
5.520000,-2.581148
5.521000,-2.377495
5.522000,-2.086017
5.523000,-1.523426
5.524000,-1.287953
5.525000,-1.219220
5.526000,-0.836098
5.527000,-0.660448
5.528000,-0.710088
5.529000,-0.904831
5.530000,-0.753364
5.531000,-0.890830
5.532000,-1.298136
5.533000,-1.191218
5.534000,-1.062662
5.535000,-0.862828
5.536000,0.786760
5.537000,2.132141
5.538000,1.489362
5.539000,0.772759
5.540000,0.073975
5.541000,-1.093210
5.542000,-2.607878
5.543000,-3.725422
5.544000,-4.517123
5.545000,-4.887516
5.546000,-4.758960
5.547000,-4.476392
5.548000,-3.670691
5.549000,-3.039367
5.550000,-2.900628
5.551000,-2.931176
5.552000,-3.239201
5.553000,-2.828077
5.554000,-2.558237
5.555000,-2.457684
5.556000,-2.158569
5.557000,-1.725806
5.558000,-1.434328
5.559000,-1.000293
5.560000,-0.806823
5.561000,-0.846281
5.562000,-0.811914
5.563000,-0.652811
5.564000,-0.670630
5.565000,-0.795368
5.566000,-0.674449
5.567000,-0.674449
5.568000,-0.678267
5.569000,-0.458068
5.570000,-0.482252
5.571000,-0.435157
5.572000,-0.575168
5.573000,-0.936652
5.574000,-0.999020
5.575000,-0.873010
5.576000,-1.058844
5.577000,-1.262496
5.578000,-1.169580
5.579000,-0.901013
5.580000,-0.912468
5.581000,-0.978655
5.582000,-0.813187
5.583000,-0.689723
5.584000,-0.558621
5.585000,-0.755910
5.586000,-0.881920
5.587000,-1.163216
5.588000,-1.565430
5.589000,-2.111474
5.590000,-2.471685
5.591000,-2.712250
5.592000,-3.115737
5.593000,-3.080098
5.594000,-2.821713
5.595000,-2.512415
5.596000,-2.408043
5.597000,-2.345675
5.598000,-2.497141
5.599000,-2.274396
5.600000,-1.667256
5.601000,0.019243
5.602000,0.454551
5.603000,0.469825
5.604000,0.719300
5.605000,0.480008
5.606000,-0.166590
5.607000,-1.104665
5.608000,-1.567976
5.609000,-1.918004
5.610000,-2.170024
5.611000,-2.168751
5.612000,-2.492050
5.613000,-2.905720
5.614000,-3.199744
5.615000,-3.171741
5.616000,-3.083916
5.617000,-2.769527
5.618000,-2.582421
5.619000,-2.605332
5.620000,-2.414407
5.621000,-1.765264
5.622000,-1.441965
5.623000,-1.310864
5.624000,-1.052479
5.625000,-0.934106
5.626000,-1.020659
5.627000,-0.857736
5.628000,-0.894648
5.629000,-0.735545
5.630000,-0.272235
5.631000,0.855493
5.632000,2.908568
5.633000,2.990029
5.634000,2.610725
5.635000,1.959036
5.636000,0.817308
5.637000,-1.133940
5.638000,-2.373677
5.639000,-3.642688
5.640000,-4.587128
5.641000,-5.462835
5.642000,-6.171802
5.643000,-6.487463
5.644000,-5.928691
5.645000,-4.607494
5.646000,-3.702511
5.647000,-3.118282
5.648000,-2.754253
5.649000,-2.605332
5.650000,-2.345675
5.651000,-2.019830
5.652000,-1.710532
5.653000,-1.528518
5.654000,-1.371960
5.655000,-1.109757
5.656000,-0.820824
5.657000,-0.590442
5.658000,-0.365151
5.659000,-0.265870
5.660000,-0.241687
5.661000,-0.262052
5.662000,-0.218776
5.663000,-0.166590
5.664000,-0.188228
5.665000,-0.315511
5.666000,-0.456795
5.667000,-0.562440
5.668000,-0.372788
5.669000,-0.156407
5.670000,0.290356
5.671000,0.882222
5.672000,0.623838
5.673000,0.084158
5.674000,-0.521709
5.675000,-1.370687
5.676000,-2.103837
5.677000,-2.504778
5.678000,-2.764436
5.679000,-2.974453
5.680000,-2.929904
5.681000,-2.494596
5.682000,-2.066925
5.683000,-1.897638
5.684000,-1.883637
5.685000,-2.051651
5.686000,-2.138203
5.687000,-2.096200
5.688000,-1.886183
5.689000,-1.234494
5.690000,-0.265870
5.691000,0.287811
5.692000,-0.043125
5.693000,-0.524255
5.694000,-1.019386
5.695000,-1.341412
5.696000,-1.839088
5.697000,-2.391497
5.698000,-2.703340
5.699000,-2.629516
5.700000,-2.537872
5.701000,-2.578603
5.702000,-1.988009
5.703000,-1.514517
5.704000,-0.867919
5.705000,0.225442
5.706000,-0.158953
5.707000,-0.867919
5.708000,-0.643901
5.709000,-0.472069
5.710000,-0.880647
5.711000,-1.200128
5.712000,-1.486514
5.713000,-1.868363
5.714000,-2.466593
5.715000,-2.821713
5.716000,-2.467866
5.717000,-2.357130
5.718000,-2.834441
5.719000,-3.603231
5.720000,-4.004172
5.721000,-4.037266
5.722000,-3.587957
5.723000,-2.751707
5.724000,-2.017284
5.725000,-1.088119
5.726000,-0.399518
5.727000,-0.426247
5.728000,-0.680813
5.729000,-0.743182
5.730000,-1.080482
5.731000,-1.245950
5.732000,-1.327411
5.733000,-1.578158
5.734000,-1.947279
5.735000,-2.014739
5.736000,-1.901457
5.737000,-1.629071
5.738000,-1.304500
5.739000,-1.153033
5.740000,-1.133940
5.741000,-1.202673
5.742000,-1.341412
5.743000,-1.383415
5.744000,-1.122485
5.745000,-0.307874
5.746000,0.093068
5.747000,-0.049489
5.748000,-0.500071
5.749000,-1.016840
5.750000,-1.434328
5.751000,-1.729625
5.752000,-2.002011
5.753000,-1.939642
5.754000,-1.774174
5.755000,-1.617616
5.756000,-1.468695
5.757000,-1.531063
5.758000,-1.361777
5.759000,-1.224311
5.760000,-0.963381
5.761000,-0.184409
5.762000,0.193621
5.763000,-0.150043
5.764000,-0.643901
5.765000,-1.047388
5.766000,-1.517062
5.767000,-1.839088
5.768000,-2.139476
5.769000,-1.949824
5.770000,-1.743626
5.771000,-2.176388
5.772000,-2.616787
5.773000,-2.689339
5.774000,-2.405498
5.775000,-2.063106
5.776000,-1.678712
5.777000,-0.846281
5.778000,-0.403336
5.779000,-0.505162
5.780000,-0.828461
5.781000,-0.380425
5.782000,-0.426247
5.783000,-1.011749
5.784000,-1.629071
5.785000,-1.111030
5.786000,-0.795368
5.787000,-0.996475
5.788000,-1.636708
5.789000,-2.142022
5.790000,-2.780982
5.791000,-3.138648
5.792000,-3.385577
5.793000,-3.507768
5.794000,-3.067369
5.795000,-2.817895
5.796000,-2.693157
5.797000,-2.399133
5.798000,-2.045287
5.799000,-1.734716
5.800000,-1.506880
5.801000,-1.258678
5.802000,-0.954471
5.803000,-0.985019
5.804000,-1.169580
5.805000,-1.084300
5.806000,-1.363050
5.807000,-1.743626
5.808000,-1.798358
5.809000,-1.673620
5.810000,-1.748717
5.811000,-1.833997
5.812000,-1.743626
5.813000,-1.321046
5.814000,-1.183581
5.815000,-1.357959
5.816000,-1.753809
5.817000,-1.814905
5.818000,-1.184854
5.819000,-0.698633
5.820000,-0.231504
5.821000,-0.076219
5.822000,-0.147497
5.823000,-0.366424
5.824000,-0.711361
5.825000,-0.789004
5.826000,-0.694814
5.827000,-0.912468
5.828000,-0.987565
5.829000,-1.021931
5.830000,-0.790276
5.831000,-0.511527
5.832000,-0.729181
5.833000,-1.240858
5.834000,-1.584522
5.835000,-1.974008
5.836000,-2.360949
5.837000,-2.620606
5.838000,-2.768254
5.839000,-2.965543
5.840000,-2.951542
5.841000,-2.602786
5.842000,-2.560783
5.843000,-2.334219
5.844000,-2.271850
5.845000,-1.897638
5.846000,-1.481423
5.847000,-1.195036
5.848000,-0.687177
5.849000,-0.662993
5.850000,-0.666812
5.851000,-0.706270
5.852000,0.079067
5.853000,1.031143
5.854000,0.463461
5.855000,-0.491161
5.856000,-1.407599
5.857000,-2.045287
5.858000,-2.502233
5.859000,-2.974453
5.860000,-3.031730
5.861000,-2.716068
5.862000,-2.829350
5.863000,-3.187015
5.864000,-3.185742
5.865000,-3.013910
5.866000,-2.287124
5.867000,-1.170853
5.868000,-0.791549
5.869000,-0.850099
5.870000,-0.903558
5.871000,-1.140305
5.872000,-1.345230
5.873000,-1.597251
5.874000,-1.991828
5.875000,-2.227301
5.876000,-1.678712
5.877000,-1.043570
5.878000,-0.676995
5.879000,-0.418610
5.880000,-0.277326
5.881000,0.040882
5.882000,0.105796
5.883000,-0.153861
5.884000,-0.717725
5.885000,-1.220493
5.886000,-1.718169
5.887000,-2.143295
5.888000,-2.684247
5.889000,-2.712250
5.890000,-2.420772
5.891000,-2.204390
5.892000,-2.100018
5.893000,-2.187844
5.894000,-1.798358
5.895000,-0.529346
5.896000,0.511829
5.897000,1.442267
5.898000,1.186429
5.899000,0.103250
5.900000,-1.408872
5.901000,-2.452592
5.902000,-3.138648
5.903000,-3.652871
5.904000,-3.749606
5.905000,-3.570137
5.906000,-3.416125
5.907000,-3.332118
5.908000,-3.097917
5.909000,-2.698249
5.910000,-2.152204
5.911000,-1.968917
5.912000,-1.956189
5.913000,-1.571794
5.914000,-1.298136
5.915000,-0.904831
5.916000,-0.536983
5.917000,-0.556076
5.918000,-0.721544
5.919000,-1.097028
5.920000,-1.100847
5.921000,-1.084300
5.922000,-0.969745
5.923000,-0.683359
5.924000,-0.363878
5.925000,-0.058399
5.926000,-0.004940
5.927000,-0.324421
5.928000,-0.628627
5.929000,-0.948107
5.930000,-1.571794
5.931000,-1.944733
5.932000,-2.112747
5.933000,-2.030013
5.934000,-2.066925
5.935000,-1.813632
5.936000,-1.738535
5.937000,-0.862828
5.938000,-0.270962
5.939000,-0.007486
5.940000,0.328541
5.941000,0.171983
5.942000,0.015425
5.943000,-0.380425
5.944000,-1.243404
5.945000,-2.017284
5.946000,-2.483140
5.947000,-2.937541
5.948000,-3.315571
5.949000,-3.361393
5.950000,-3.287569
5.951000,-2.876445
5.952000,-0.999020
5.953000,-0.239141
5.954000,-0.298964
5.955000,-0.948107
5.956000,-1.481423
5.957000,-1.424146
5.958000,-1.126303
5.959000,-0.943016
5.960000,-1.343957
5.961000,-2.022376
5.962000,-2.955360
5.963000,-3.304116
5.964000,-3.445400
5.965000,-3.437763
5.966000,-3.301570
5.967000,-3.216290
5.968000,-2.954087
5.969000,-2.937541
5.970000,-2.974453
5.971000,-1.830178
5.972000,-0.656629
5.973000,-0.207320
5.974000,-0.240414
5.975000,-0.474615
5.976000,-0.846281
5.977000,-1.100847
5.978000,-1.221766
5.979000,-1.457239
5.980000,-1.506880
5.981000,-1.426691
5.982000,-1.425419
5.983000,-1.424146
5.984000,-1.063935
5.985000,-0.626081
5.986000,-0.386789
5.987000,-0.655356
5.988000,-0.791549
5.989000,-0.908650
5.990000,-1.187399
5.991000,-1.313410
