LabVIEW Measurement,
Writer_Version,2
Reader_Version,2
Separator,Comma
Decimal_Separator,.
Multi_Headings,No
X_Columns,Multi
Time_Pref,Absolute
Operator,Dymnz
Date,2017/05/09
Time,22:05:20.3135127833532082842
***End_of_Header***,
,
Channels,1,
Samples,5000,
Date,2017/05/09,
Time,22:05:20.3135127833532082842,
Y_Unit_Label,Volts,
X_Dimension,Time,
X0,0.0000000000000000E+0,
Delta_X,0.000200,
***End_of_Header***,,
X_Value,Voltage_0,Comment
0.000000,-1.531004
0.000200,-1.538650
0.000400,-1.553944
0.000600,-1.561590
0.000800,-1.580707
0.001000,-1.588353
0.001200,-1.596000
0.001400,-1.580707
0.001600,-1.573060
0.001800,-1.574335
0.002000,-1.566688
0.002200,-1.561590
0.002400,-1.559041
0.002600,-1.543748
0.002800,-1.533553
0.003000,-1.522083
0.003200,-1.519534
0.003400,-1.520808
0.003600,-1.519534
0.003800,-1.523357
0.004000,-1.534827
0.004200,-1.536102
0.004400,-1.532278
0.004600,-1.543748
0.004800,-1.570511
0.005000,-1.581981
0.005200,-1.598549
0.005400,-1.617665
0.005600,-1.618940
0.005800,-1.636782
0.006000,-1.634233
0.006200,-1.644428
0.006400,-1.653349
0.006600,-1.631684
0.006800,-1.627861
0.007000,-1.618940
0.007200,-1.596000
0.007400,-1.576883
0.007600,-1.570511
0.007800,-1.580707
0.008000,-1.585804
0.008200,-1.590902
0.008400,-1.598549
0.008600,-1.607470
0.008800,-1.604921
0.009000,-1.593451
0.009200,-1.567962
0.009400,-1.565414
0.009600,-1.566688
0.009800,-1.561590
0.010000,-1.565414
0.010200,-1.569237
0.010400,-1.583256
0.010600,-1.602372
0.010800,-1.621488
0.011000,-1.636782
0.011200,-1.658447
0.011400,-1.667368
0.011600,-1.676289
0.011800,-1.677563
0.012000,-1.667368
0.012200,-1.652075
0.012400,-1.639331
0.012600,-1.622763
0.012800,-1.613842
0.013000,-1.597274
0.013200,-1.604921
0.013400,-1.607470
0.013600,-1.602372
0.013800,-1.592177
0.014000,-1.588353
0.014200,-1.587079
0.014400,-1.587079
0.014600,-1.587079
0.014800,-1.590902
0.015000,-1.578158
0.015200,-1.576883
0.015400,-1.585804
0.015600,-1.583256
0.015800,-1.578158
0.016000,-1.569237
0.016200,-1.566688
0.016400,-1.552669
0.016600,-1.546297
0.016800,-1.542474
0.017000,-1.533553
0.017200,-1.524632
0.017400,-1.518260
0.017600,-1.516985
0.017800,-1.510613
0.018000,-1.518260
0.018200,-1.519534
0.018400,-1.516985
0.018600,-1.518260
0.018800,-1.516985
0.019000,-1.513162
0.019200,-1.510613
0.019400,-1.524632
0.019600,-1.532278
0.019800,-1.551395
0.020000,-1.555218
0.020200,-1.564139
0.020400,-1.555218
0.020600,-1.550120
0.020800,-1.555218
0.021000,-1.556493
0.021200,-1.557767
0.021400,-1.569237
0.021600,-1.576883
0.021800,-1.580707
0.022000,-1.589628
0.022200,-1.603646
0.022400,-1.613842
0.022600,-1.607470
0.022800,-1.610019
0.023000,-1.613842
0.023200,-1.611293
0.023400,-1.607470
0.023600,-1.594725
0.023800,-1.598549
0.024000,-1.594725
0.024200,-1.583256
0.024400,-1.584530
0.024600,-1.573060
0.024800,-1.555218
0.025000,-1.546297
0.025200,-1.546297
0.025400,-1.542474
0.025600,-1.570511
0.025800,-1.583256
0.026000,-1.612567
0.026200,-1.650800
0.026400,-1.664819
0.026600,-1.696680
0.026800,-1.713247
0.027000,-1.725992
0.027200,-1.714522
0.027400,-1.700503
0.027600,-1.677563
0.027800,-1.657173
0.028000,-1.646977
0.028200,-1.635507
0.028400,-1.636782
0.028600,-1.639331
0.028800,-1.629135
0.029000,-1.646977
0.029200,-1.644428
0.029400,-1.636782
0.029600,-1.635507
0.029800,-1.618940
0.030000,-1.626586
0.030200,-1.639331
0.030400,-1.635507
0.030600,-1.626586
0.030800,-1.621488
0.031000,-1.607470
0.031200,-1.611293
0.031400,-1.599823
0.031600,-1.590902
0.031800,-1.593451
0.032000,-1.583256
0.032200,-1.592177
0.032400,-1.580707
0.032600,-1.576883
0.032800,-1.589628
0.033000,-1.596000
0.033200,-1.602372
0.033400,-1.616391
0.033600,-1.607470
0.033800,-1.602372
0.034000,-1.604921
0.034200,-1.610019
0.034400,-1.621488
0.034600,-1.625312
0.034800,-1.627861
0.035000,-1.638056
0.035200,-1.644428
0.035400,-1.657173
0.035600,-1.653349
0.035800,-1.658447
0.036000,-1.658447
0.036200,-1.672466
0.036400,-1.690308
0.036600,-1.711973
0.036800,-1.725992
0.037000,-1.754029
0.037200,-1.750206
0.037400,-1.764225
0.037600,-1.766774
0.037800,-1.775695
0.038000,-1.769322
0.038200,-1.743834
0.038400,-1.736187
0.038600,-1.717071
0.038800,-1.706875
0.039000,-1.685210
0.039200,-1.682661
0.039400,-1.705601
0.039600,-1.718345
0.039800,-1.733638
0.040000,-1.750206
0.040200,-1.770597
0.040400,-1.769322
0.040600,-1.765499
0.040800,-1.766774
0.041000,-1.775695
0.041200,-1.770597
0.041400,-1.761676
0.041600,-1.757853
0.041800,-1.764225
0.042000,-1.742559
0.042200,-1.732364
0.042400,-1.715796
0.042600,-1.700503
0.042800,-1.697954
0.043000,-1.686484
0.043200,-1.701778
0.043400,-1.710699
0.043600,-1.718345
0.043800,-1.728541
0.044000,-1.722169
0.044200,-1.731090
0.044400,-1.734913
0.044600,-1.727266
0.044800,-1.724717
0.045000,-1.733638
0.045200,-1.718345
0.045400,-1.713247
0.045600,-1.697954
0.045800,-1.710699
0.046000,-1.700503
0.046200,-1.699229
0.046400,-1.703052
0.046600,-1.699229
0.046800,-1.686484
0.047000,-1.673740
0.047200,-1.646977
0.047400,-1.635507
0.047600,-1.639331
0.047800,-1.648252
0.048000,-1.658447
0.048200,-1.667368
0.048400,-1.682661
0.048600,-1.681387
0.048800,-1.687759
0.049000,-1.690308
0.049200,-1.692857
0.049400,-1.686484
0.049600,-1.669917
0.049800,-1.657173
0.050000,-1.658447
0.050200,-1.649526
0.050400,-1.627861
0.050600,-1.618940
0.050800,-1.615116
0.051000,-1.608744
0.051200,-1.606195
0.051400,-1.616391
0.051600,-1.629135
0.051800,-1.643154
0.052000,-1.638056
0.052200,-1.639331
0.052400,-1.635507
0.052600,-1.639331
0.052800,-1.652075
0.053000,-1.649526
0.053200,-1.643154
0.053400,-1.650800
0.053600,-1.652075
0.053800,-1.667368
0.054000,-1.663545
0.054200,-1.668642
0.054400,-1.673740
0.054600,-1.671191
0.054800,-1.667368
0.055000,-1.652075
0.055200,-1.657173
0.055400,-1.648252
0.055600,-1.646977
0.055800,-1.644428
0.056000,-1.639331
0.056200,-1.617665
0.056400,-1.616391
0.056600,-1.616391
0.056800,-1.613842
0.057000,-1.613842
0.057200,-1.616391
0.057400,-1.631684
0.057600,-1.639331
0.057800,-1.636782
0.058000,-1.640605
0.058200,-1.635507
0.058400,-1.639331
0.058600,-1.639331
0.058800,-1.640605
0.059000,-1.646977
0.059200,-1.649526
0.059400,-1.652075
0.059600,-1.658447
0.059800,-1.659721
0.060000,-1.654624
0.060200,-1.645703
0.060400,-1.616391
0.060600,-1.602372
0.060800,-1.579432
0.061000,-1.570511
0.061200,-1.575609
0.061400,-1.574335
0.061600,-1.570511
0.061800,-1.581981
0.062000,-1.598549
0.062200,-1.624037
0.062400,-1.626586
0.062600,-1.626586
0.062800,-1.640605
0.063000,-1.641879
0.063200,-1.631684
0.063400,-1.618940
0.063600,-1.621488
0.063800,-1.612567
0.064000,-1.604921
0.064200,-1.602372
0.064400,-1.602372
0.064600,-1.607470
0.064800,-1.608744
0.065000,-1.602372
0.065200,-1.596000
0.065400,-1.578158
0.065600,-1.579432
0.065800,-1.570511
0.066000,-1.570511
0.066200,-1.550120
0.066400,-1.536102
0.066600,-1.508064
0.066800,-1.501692
0.067000,-1.486399
0.067200,-1.481301
0.067400,-1.490222
0.067600,-1.509339
0.067800,-1.532278
0.068000,-1.550120
0.068200,-1.547572
0.068400,-1.552669
0.068600,-1.564139
0.068800,-1.565414
0.069000,-1.538650
0.069200,-1.513162
0.069400,-1.513162
0.069600,-1.519534
0.069800,-1.524632
0.070000,-1.539925
0.070200,-1.553944
0.070400,-1.565414
0.070600,-1.596000
0.070800,-1.627861
0.071000,-1.659721
0.071200,-1.667368
0.071400,-1.672466
0.071600,-1.681387
0.071800,-1.691582
0.072000,-1.696680
0.072200,-1.692857
0.072400,-1.689033
0.072600,-1.685210
0.072800,-1.680112
0.073000,-1.672466
0.073200,-1.676289
0.073400,-1.668642
0.073600,-1.673740
0.073800,-1.660996
0.074000,-1.652075
0.074200,-1.649526
0.074400,-1.655898
0.074600,-1.662270
0.074800,-1.664819
0.075000,-1.655898
0.075200,-1.650800
0.075400,-1.636782
0.075600,-1.629135
0.075800,-1.604921
0.076000,-1.589628
0.076200,-1.561590
0.076400,-1.520808
0.076600,-1.497869
0.076800,-1.488948
0.077000,-1.495320
0.077200,-1.508064
0.077400,-1.522083
0.077600,-1.548846
0.077800,-1.565414
0.078000,-1.584530
0.078200,-1.606195
0.078400,-1.613842
0.078600,-1.627861
0.078800,-1.624037
0.079000,-1.615116
0.079200,-1.622763
0.079400,-1.611293
0.079600,-1.607470
0.079800,-1.615116
0.080000,-1.624037
0.080200,-1.631684
0.080400,-1.649526
0.080600,-1.657173
0.080800,-1.666094
0.081000,-1.668642
0.081200,-1.662270
0.081400,-1.652075
0.081600,-1.646977
0.081800,-1.631684
0.082000,-1.617665
0.082200,-1.602372
0.082400,-1.601098
0.082600,-1.597274
0.082800,-1.587079
0.083000,-1.590902
0.083200,-1.596000
0.083400,-1.593451
0.083600,-1.596000
0.083800,-1.608744
0.084000,-1.617665
0.084200,-1.639331
0.084400,-1.649526
0.084600,-1.652075
0.084800,-1.652075
0.085000,-1.655898
0.085200,-1.646977
0.085400,-1.634233
0.085600,-1.632958
0.085800,-1.630410
0.086000,-1.643154
0.086200,-1.644428
0.086400,-1.643154
0.086600,-1.650800
0.086800,-1.675015
0.087000,-1.680112
0.087200,-1.695405
0.087400,-1.719620
0.087600,-1.719620
0.087800,-1.732364
0.088000,-1.752755
0.088200,-1.780792
0.088400,-1.785890
0.088600,-1.792262
0.088800,-1.793537
0.089000,-1.782067
0.089200,-1.755304
0.089400,-1.723443
0.089600,-1.699229
0.089800,-1.680112
0.090000,-1.664819
0.090200,-1.657173
0.090400,-1.655898
0.090600,-1.657173
0.090800,-1.678838
0.091000,-1.682661
0.091200,-1.692857
0.091400,-1.699229
0.091600,-1.710699
0.091800,-1.724717
0.092000,-1.723443
0.092200,-1.710699
0.092400,-1.692857
0.092600,-1.689033
0.092800,-1.673740
0.093000,-1.668642
0.093200,-1.666094
0.093400,-1.644428
0.093600,-1.627861
0.093800,-1.608744
0.094000,-1.590902
0.094200,-1.575609
0.094400,-1.552669
0.094600,-1.537376
0.094800,-1.546297
0.095000,-1.538650
0.095200,-1.539925
0.095400,-1.529729
0.095600,-1.537376
0.095800,-1.552669
0.096000,-1.575609
0.096200,-1.585804
0.096400,-1.588353
0.096600,-1.612567
0.096800,-1.624037
0.097000,-1.631684
0.097200,-1.629135
0.097400,-1.631684
0.097600,-1.616391
0.097800,-1.581981
0.098000,-1.550120
0.098200,-1.509339
0.098400,-1.485124
0.098600,-1.476203
0.098800,-1.469831
0.099000,-1.471106
0.099200,-1.473655
0.099400,-1.495320
0.099600,-1.499143
0.099800,-1.508064
0.100000,-1.510613
0.100200,-1.515711
0.100400,-1.533553
0.100600,-1.557767
0.100800,-1.603646
0.101000,-1.652075
0.101200,-1.683936
0.101400,-1.724717
0.101600,-1.742559
0.101800,-1.751480
0.102000,-1.745108
0.102200,-1.720894
0.102400,-1.708150
0.102600,-1.699229
0.102800,-1.689033
0.103000,-1.682661
0.103200,-1.681387
0.103400,-1.672466
0.103600,-1.672466
0.103800,-1.672466
0.104000,-1.676289
0.104200,-1.677563
0.104400,-1.681387
0.104600,-1.696680
0.104800,-1.705601
0.105000,-1.714522
0.105200,-1.714522
0.105400,-1.699229
0.105600,-1.689033
0.105800,-1.677563
0.106000,-1.667368
0.106200,-1.650800
0.106400,-1.646977
0.106600,-1.641879
0.106800,-1.639331
0.107000,-1.634233
0.107200,-1.626586
0.107400,-1.643154
0.107600,-1.641879
0.107800,-1.653349
0.108000,-1.680112
0.108200,-1.697954
0.108400,-1.727266
0.108600,-1.752755
0.108800,-1.782067
0.109000,-1.801183
0.109200,-1.820300
0.109400,-1.815202
0.109600,-1.799909
0.109800,-1.808830
0.110000,-1.811379
0.110200,-1.815202
0.110400,-1.816476
0.110600,-1.811379
0.110800,-1.810104
0.111000,-1.798634
0.111200,-1.788439
0.111400,-1.780792
0.111600,-1.778243
0.111800,-1.776969
0.112000,-1.775695
0.112200,-1.782067
0.112400,-1.776969
0.112600,-1.780792
0.112800,-1.779518
0.113000,-1.768048
0.113200,-1.750206
0.113400,-1.727266
0.113600,-1.708150
0.113800,-1.697954
0.114000,-1.692857
0.114200,-1.686484
0.114400,-1.668642
0.114600,-1.655898
0.114800,-1.658447
0.115000,-1.653349
0.115200,-1.652075
0.115400,-1.636782
0.115600,-1.617665
0.115800,-1.593451
0.116000,-1.570511
0.116200,-1.539925
0.116400,-1.500418
0.116600,-1.464734
0.116800,-1.430324
0.117000,-1.407384
0.117200,-1.404835
0.117400,-1.408659
0.117600,-1.413756
0.117800,-1.440519
0.118000,-1.457087
0.118200,-1.478752
0.118400,-1.485124
0.118600,-1.508064
0.118800,-1.509339
0.119000,-1.502966
0.119200,-1.492771
0.119400,-1.501692
0.119600,-1.519534
0.119800,-1.525906
0.120000,-1.541199
0.120200,-1.547572
0.120400,-1.555218
0.120600,-1.559041
0.120800,-1.565414
0.121000,-1.573060
0.121200,-1.561590
0.121400,-1.546297
0.121600,-1.538650
0.121800,-1.542474
0.122000,-1.545023
0.122200,-1.542474
0.122400,-1.550120
0.122600,-1.546297
0.122800,-1.560316
0.123000,-1.588353
0.123200,-1.590902
0.123400,-1.589628
0.123600,-1.573060
0.123800,-1.576883
0.124000,-1.565414
0.124200,-1.561590
0.124400,-1.565414
0.124600,-1.564139
0.124800,-1.573060
0.125000,-1.565414
0.125200,-1.569237
0.125400,-1.583256
0.125600,-1.581981
0.125800,-1.585804
0.126000,-1.598549
0.126200,-1.602372
0.126400,-1.612567
0.126600,-1.621488
0.126800,-1.626586
0.127000,-1.630410
0.127200,-1.648252
0.127400,-1.655898
0.127600,-1.662270
0.127800,-1.660996
0.128000,-1.663545
0.128200,-1.652075
0.128400,-1.639331
0.128600,-1.627861
0.128800,-1.608744
0.129000,-1.596000
0.129200,-1.571786
0.129400,-1.553944
0.129600,-1.550120
0.129800,-1.553944
0.130000,-1.547572
0.130200,-1.551395
0.130400,-1.551395
0.130600,-1.557767
0.130800,-1.570511
0.131000,-1.570511
0.131200,-1.557767
0.131400,-1.532278
0.131600,-1.510613
0.131800,-1.494045
0.132000,-1.485124
0.132200,-1.476203
0.132400,-1.460910
0.132600,-1.463459
0.132800,-1.462185
0.133000,-1.464734
0.133200,-1.472380
0.133400,-1.488948
0.133600,-1.488948
0.133800,-1.504241
0.134000,-1.499143
0.134200,-1.494045
0.134400,-1.478752
0.134600,-1.473655
0.134800,-1.472380
0.135000,-1.459636
0.135200,-1.476203
0.135400,-1.469831
0.135600,-1.477478
0.135800,-1.486399
0.136000,-1.501692
0.136200,-1.506790
0.136400,-1.506790
0.136600,-1.524632
0.136800,-1.525906
0.137000,-1.524632
0.137200,-1.534827
0.137400,-1.532278
0.137600,-1.525906
0.137800,-1.523357
0.138000,-1.506790
0.138200,-1.514436
0.138400,-1.534827
0.138600,-1.569237
0.138800,-1.598549
0.139000,-1.629135
0.139200,-1.669917
0.139400,-1.724717
0.139600,-1.737462
0.139800,-1.742559
0.140000,-1.752755
0.140200,-1.741285
0.140400,-1.725992
0.140600,-1.708150
0.140800,-1.692857
0.141000,-1.704326
0.141200,-1.711973
0.141400,-1.709424
0.141600,-1.720894
0.141800,-1.731090
0.142000,-1.738736
0.142200,-1.723443
0.142400,-1.713247
0.142600,-1.695405
0.142800,-1.685210
0.143000,-1.675015
0.143200,-1.667368
0.143400,-1.669917
0.143600,-1.667368
0.143800,-1.669917
0.144000,-1.662270
0.144200,-1.636782
0.144400,-1.606195
0.144600,-1.583256
0.144800,-1.560316
0.145000,-1.557767
0.145200,-1.553944
0.145400,-1.566688
0.145600,-1.570511
0.145800,-1.576883
0.146000,-1.590902
0.146200,-1.611293
0.146400,-1.620214
0.146600,-1.625312
0.146800,-1.631684
0.147000,-1.625312
0.147200,-1.618940
0.147400,-1.616391
0.147600,-1.618940
0.147800,-1.611293
0.148000,-1.597274
0.148200,-1.604921
0.148400,-1.588353
0.148600,-1.594725
0.148800,-1.581981
0.149000,-1.565414
0.149200,-1.561590
0.149400,-1.570511
0.149600,-1.573060
0.149800,-1.571786
0.150000,-1.587079
0.150200,-1.587079
0.150400,-1.571786
0.150600,-1.561590
0.150800,-1.565414
0.151000,-1.576883
0.151200,-1.570511
0.151400,-1.584530
0.151600,-1.575609
0.151800,-1.564139
0.152000,-1.570511
0.152200,-1.571786
0.152400,-1.574335
0.152600,-1.590902
0.152800,-1.596000
0.153000,-1.624037
0.153200,-1.641879
0.153400,-1.658447
0.153600,-1.663545
0.153800,-1.664819
0.154000,-1.664819
0.154200,-1.673740
0.154400,-1.681387
0.154600,-1.671191
0.154800,-1.683936
0.155000,-1.689033
0.155200,-1.691582
0.155400,-1.699229
0.155600,-1.703052
0.155800,-1.706875
0.156000,-1.699229
0.156200,-1.708150
0.156400,-1.696680
0.156600,-1.697954
0.156800,-1.704326
0.157000,-1.715796
0.157200,-1.722169
0.157400,-1.741285
0.157600,-1.759127
0.157800,-1.775695
0.158000,-1.785890
0.158200,-1.773146
0.158400,-1.778243
0.158600,-1.778243
0.158800,-1.789713
0.159000,-1.790988
0.159200,-1.799909
0.159400,-1.785890
0.159600,-1.780792
0.159800,-1.770597
0.160000,-1.757853
0.160200,-1.742559
0.160400,-1.727266
0.160600,-1.725992
0.160800,-1.728541
0.161000,-1.755304
0.161200,-1.773146
0.161400,-1.778243
0.161600,-1.790988
0.161800,-1.806281
0.162000,-1.816476
0.162200,-1.812653
0.162400,-1.808830
0.162600,-1.799909
0.162800,-1.778243
0.163000,-1.743834
0.163200,-1.709424
0.163400,-1.695405
0.163600,-1.687759
0.163800,-1.671191
0.164000,-1.695405
0.164200,-1.706875
0.164400,-1.731090
0.164600,-1.733638
0.164800,-1.759127
0.165000,-1.769322
0.165200,-1.771871
0.165400,-1.773146
0.165600,-1.770597
0.165800,-1.761676
0.166000,-1.745108
0.166200,-1.736187
0.166400,-1.738736
0.166600,-1.732364
0.166800,-1.715796
0.167000,-1.704326
0.167200,-1.699229
0.167400,-1.697954
0.167600,-1.677563
0.167800,-1.668642
0.168000,-1.664819
0.168200,-1.655898
0.168400,-1.658447
0.168600,-1.669917
0.168800,-1.677563
0.169000,-1.686484
0.169200,-1.685210
0.169400,-1.687759
0.169600,-1.692857
0.169800,-1.683936
0.170000,-1.687759
0.170200,-1.686484
0.170400,-1.687759
0.170600,-1.682661
0.170800,-1.687759
0.171000,-1.692857
0.171200,-1.709424
0.171400,-1.714522
0.171600,-1.709424
0.171800,-1.713247
0.172000,-1.718345
0.172200,-1.715796
0.172400,-1.708150
0.172600,-1.719620
0.172800,-1.724717
0.173000,-1.728541
0.173200,-1.728541
0.173400,-1.733638
0.173600,-1.728541
0.173800,-1.732364
0.174000,-1.741285
0.174200,-1.740011
0.174400,-1.743834
0.174600,-1.722169
0.174800,-1.709424
0.175000,-1.696680
0.175200,-1.689033
0.175400,-1.689033
0.175600,-1.672466
0.175800,-1.662270
0.176000,-1.646977
0.176200,-1.640605
0.176400,-1.629135
0.176600,-1.626586
0.176800,-1.624037
0.177000,-1.610019
0.177200,-1.617665
0.177400,-1.617665
0.177600,-1.606195
0.177800,-1.606195
0.178000,-1.587079
0.178200,-1.580707
0.178400,-1.585804
0.178600,-1.588353
0.178800,-1.574335
0.179000,-1.585804
0.179200,-1.598549
0.179400,-1.604921
0.179600,-1.616391
0.179800,-1.622763
0.180000,-1.615116
0.180200,-1.611293
0.180400,-1.611293
0.180600,-1.607470
0.180800,-1.621488
0.181000,-1.625312
0.181200,-1.611293
0.181400,-1.604921
0.181600,-1.602372
0.181800,-1.602372
0.182000,-1.602372
0.182200,-1.596000
0.182400,-1.597274
0.182600,-1.610019
0.182800,-1.626586
0.183000,-1.655898
0.183200,-1.673740
0.183400,-1.680112
0.183600,-1.686484
0.183800,-1.692857
0.184000,-1.701778
0.184200,-1.708150
0.184400,-1.710699
0.184600,-1.689033
0.184800,-1.686484
0.185000,-1.680112
0.185200,-1.663545
0.185400,-1.657173
0.185600,-1.652075
0.185800,-1.657173
0.186000,-1.658447
0.186200,-1.671191
0.186400,-1.672466
0.186600,-1.682661
0.186800,-1.683936
0.187000,-1.682661
0.187200,-1.687759
0.187400,-1.690308
0.187600,-1.714522
0.187800,-1.725992
0.188000,-1.728541
0.188200,-1.720894
0.188400,-1.705601
0.188600,-1.692857
0.188800,-1.663545
0.189000,-1.638056
0.189200,-1.621488
0.189400,-1.604921
0.189600,-1.598549
0.189800,-1.603646
0.190000,-1.611293
0.190200,-1.622763
0.190400,-1.630410
0.190600,-1.640605
0.190800,-1.645703
0.191000,-1.650800
0.191200,-1.657173
0.191400,-1.663545
0.191600,-1.652075
0.191800,-1.650800
0.192000,-1.644428
0.192200,-1.653349
0.192400,-1.657173
0.192600,-1.659721
0.192800,-1.659721
0.193000,-1.652075
0.193200,-1.654624
0.193400,-1.652075
0.193600,-1.687759
0.193800,-1.717071
0.194000,-1.756578
0.194200,-1.793537
0.194400,-1.807555
0.194600,-1.845788
0.194800,-1.849612
0.195000,-1.858533
0.195200,-1.859807
0.195400,-1.867454
0.195600,-1.850886
0.195800,-1.845788
0.196000,-1.834318
0.196200,-1.812653
0.196400,-1.801183
0.196600,-1.782067
0.196800,-1.770597
0.197000,-1.754029
0.197200,-1.740011
0.197400,-1.723443
0.197600,-1.714522
0.197800,-1.706875
0.198000,-1.696680
0.198200,-1.687759
0.198400,-1.676289
0.198600,-1.672466
0.198800,-1.673740
0.199000,-1.677563
0.199200,-1.683936
0.199400,-1.671191
0.199600,-1.663545
0.199800,-1.663545
0.200000,-1.652075
0.200200,-1.638056
0.200400,-1.627861
0.200600,-1.615116
0.200800,-1.592177
0.201000,-1.588353
0.201200,-1.576883
0.201400,-1.560316
0.201600,-1.553944
0.201800,-1.539925
0.202000,-1.536102
0.202200,-1.543748
0.202400,-1.555218
0.202600,-1.555218
0.202800,-1.561590
0.203000,-1.571786
0.203200,-1.575609
0.203400,-1.579432
0.203600,-1.575609
0.203800,-1.571786
0.204000,-1.565414
0.204200,-1.548846
0.204400,-1.516985
0.204600,-1.491497
0.204800,-1.473655
0.205000,-1.455813
0.205200,-1.450715
0.205400,-1.468557
0.205600,-1.488948
0.205800,-1.505515
0.206000,-1.523357
0.206200,-1.546297
0.206400,-1.562865
0.206600,-1.580707
0.206800,-1.596000
0.207000,-1.616391
0.207200,-1.650800
0.207400,-1.677563
0.207600,-1.697954
0.207800,-1.711973
0.208000,-1.718345
0.208200,-1.727266
0.208400,-1.738736
0.208600,-1.740011
0.208800,-1.750206
0.209000,-1.760401
0.209200,-1.766774
0.209400,-1.769322
0.209600,-1.750206
0.209800,-1.725992
0.210000,-1.699229
0.210200,-1.678838
0.210400,-1.660996
0.210600,-1.644428
0.210800,-1.632958
0.211000,-1.626586
0.211200,-1.607470
0.211400,-1.607470
0.211600,-1.629135
0.211800,-1.630410
0.212000,-1.649526
0.212200,-1.663545
0.212400,-1.669917
0.212600,-1.663545
0.212800,-1.641879
0.213000,-1.626586
0.213200,-1.611293
0.213400,-1.620214
0.213600,-1.613842
0.213800,-1.603646
0.214000,-1.610019
0.214200,-1.611293
0.214400,-1.606195
0.214600,-1.599823
0.214800,-1.606195
0.215000,-1.602372
0.215200,-1.602372
0.215400,-1.598549
0.215600,-1.596000
0.215800,-1.587079
0.216000,-1.584530
0.216200,-1.570511
0.216400,-1.562865
0.216600,-1.565414
0.216800,-1.570511
0.217000,-1.555218
0.217200,-1.536102
0.217400,-1.527181
0.217600,-1.515711
0.217800,-1.513162
0.218000,-1.505515
0.218200,-1.508064
0.218400,-1.524632
0.218600,-1.525906
0.218800,-1.537376
0.219000,-1.534827
0.219200,-1.534827
0.219400,-1.542474
0.219600,-1.557767
0.219800,-1.570511
0.220000,-1.565414
0.220200,-1.574335
0.220400,-1.588353
0.220600,-1.606195
0.220800,-1.590902
0.221000,-1.576883
0.221200,-1.576883
0.221400,-1.565414
0.221600,-1.559041
0.221800,-1.553944
0.222000,-1.547572
0.222200,-1.557767
0.222400,-1.561590
0.222600,-1.578158
0.222800,-1.601098
0.223000,-1.616391
0.223200,-1.622763
0.223400,-1.632958
0.223600,-1.632958
0.223800,-1.644428
0.224000,-1.649526
0.224200,-1.638056
0.224400,-1.635507
0.224600,-1.631684
0.224800,-1.648252
0.225000,-1.636782
0.225200,-1.646977
0.225400,-1.652075
0.225600,-1.669917
0.225800,-1.689033
0.226000,-1.690308
0.226200,-1.694131
0.226400,-1.700503
0.226600,-1.689033
0.226800,-1.678838
0.227000,-1.657173
0.227200,-1.650800
0.227400,-1.629135
0.227600,-1.607470
0.227800,-1.593451
0.228000,-1.590902
0.228200,-1.571786
0.228400,-1.569237
0.228600,-1.575609
0.228800,-1.584530
0.229000,-1.606195
0.229200,-1.621488
0.229400,-1.631684
0.229600,-1.643154
0.229800,-1.672466
0.230000,-1.689033
0.230200,-1.708150
0.230400,-1.724717
0.230600,-1.741285
0.230800,-1.759127
0.231000,-1.779518
0.231200,-1.790988
0.231400,-1.790988
0.231600,-1.799909
0.231800,-1.799909
0.232000,-1.796085
0.232200,-1.778243
0.232400,-1.751480
0.232600,-1.742559
0.232800,-1.713247
0.233000,-1.697954
0.233200,-1.677563
0.233400,-1.666094
0.233600,-1.655898
0.233800,-1.643154
0.234000,-1.631684
0.234200,-1.625312
0.234400,-1.607470
0.234600,-1.608744
0.234800,-1.606195
0.235000,-1.604921
0.235200,-1.604921
0.235400,-1.612567
0.235600,-1.607470
0.235800,-1.604921
0.236000,-1.602372
0.236200,-1.604921
0.236400,-1.615116
0.236600,-1.621488
0.236800,-1.634233
0.237000,-1.622763
0.237200,-1.621488
0.237400,-1.621488
0.237600,-1.617665
0.237800,-1.612567
0.238000,-1.620214
0.238200,-1.627861
0.238400,-1.634233
0.238600,-1.644428
0.238800,-1.645703
0.239000,-1.652075
0.239200,-1.667368
0.239400,-1.659721
0.239600,-1.648252
0.239800,-1.620214
0.240000,-1.607470
0.240200,-1.581981
0.240400,-1.565414
0.240600,-1.561590
0.240800,-1.562865
0.241000,-1.569237
0.241200,-1.574335
0.241400,-1.583256
0.241600,-1.606195
0.241800,-1.641879
0.242000,-1.667368
0.242200,-1.713247
0.242400,-1.765499
0.242600,-1.822849
0.242800,-1.859807
0.243000,-1.884021
0.243200,-1.886570
0.243400,-1.871277
0.243600,-1.852160
0.243800,-1.831770
0.244000,-1.810104
0.244200,-1.808830
0.244400,-1.820300
0.244600,-1.821574
0.244800,-1.822849
0.245000,-1.824123
0.245200,-1.817751
0.245400,-1.796085
0.245600,-1.780792
0.245800,-1.741285
0.246000,-1.709424
0.246200,-1.678838
0.246400,-1.662270
0.246600,-1.646977
0.246800,-1.629135
0.247000,-1.613842
0.247200,-1.592177
0.247400,-1.574335
0.247600,-1.550120
0.247800,-1.538650
0.248000,-1.510613
0.248200,-1.494045
0.248400,-1.481301
0.248600,-1.485124
0.248800,-1.482576
0.249000,-1.483850
0.249200,-1.506790
0.249400,-1.518260
0.249600,-1.520808
0.249800,-1.511887
0.250000,-1.500418
0.250200,-1.491497
0.250400,-1.492771
0.250600,-1.495320
0.250800,-1.490222
0.251000,-1.499143
0.251200,-1.495320
0.251400,-1.482576
0.251600,-1.476203
0.251800,-1.454538
0.252000,-1.444343
0.252200,-1.440519
0.252400,-1.439245
0.252600,-1.443068
0.252800,-1.459636
0.253000,-1.485124
0.253200,-1.505515
0.253400,-1.524632
0.253600,-1.532278
0.253800,-1.546297
0.254000,-1.565414
0.254200,-1.587079
0.254400,-1.587079
0.254600,-1.580707
0.254800,-1.570511
0.255000,-1.545023
0.255200,-1.523357
0.255400,-1.509339
0.255600,-1.508064
0.255800,-1.506790
0.256000,-1.510613
0.256200,-1.542474
0.256400,-1.608744
0.256600,-1.691582
0.256800,-1.766774
0.257000,-1.845788
0.257200,-1.910784
0.257400,-1.951566
0.257600,-1.982152
0.257800,-1.968134
0.258000,-1.941371
0.258200,-1.892942
0.258400,-1.838142
0.258600,-1.783341
0.258800,-1.740011
0.259000,-1.699229
0.259200,-1.676289
0.259400,-1.668642
0.259600,-1.673740
0.259800,-1.694131
0.260000,-1.694131
0.260200,-1.700503
0.260400,-1.673740
0.260600,-1.650800
0.260800,-1.641879
0.261000,-1.622763
0.261200,-1.608744
0.261400,-1.592177
0.261600,-1.583256
0.261800,-1.587079
0.262000,-1.606195
0.262200,-1.625312
0.262400,-1.643154
0.262600,-1.657173
0.262800,-1.645703
0.263000,-1.630410
0.263200,-1.608744
0.263400,-1.584530
0.263600,-1.559041
0.263800,-1.516985
0.264000,-1.474929
0.264200,-1.449440
0.264400,-1.423952
0.264600,-1.392091
0.264800,-1.384444
0.265000,-1.378072
0.265200,-1.378072
0.265400,-1.389542
0.265600,-1.402286
0.265800,-1.401012
0.266000,-1.392091
0.266200,-1.384444
0.266400,-1.390817
0.266600,-1.397189
0.266800,-1.411207
0.267000,-1.409933
0.267200,-1.404835
0.267400,-1.402286
0.267600,-1.404835
0.267800,-1.408659
0.268000,-1.423952
0.268200,-1.480027
0.268400,-1.533553
0.268600,-1.587079
0.268800,-1.636782
0.269000,-1.681387
0.269200,-1.713247
0.269400,-1.725992
0.269600,-1.733638
0.269800,-1.762950
0.270000,-1.782067
0.270200,-1.806281
0.270400,-1.840691
0.270600,-1.847063
0.270800,-1.844514
0.271000,-1.850886
0.271200,-1.827946
0.271400,-1.810104
0.271600,-1.780792
0.271800,-1.745108
0.272000,-1.713247
0.272200,-1.677563
0.272400,-1.666094
0.272600,-1.662270
0.272800,-1.662270
0.273000,-1.680112
0.273200,-1.675015
0.273400,-1.682661
0.273600,-1.681387
0.273800,-1.689033
0.274000,-1.689033
0.274200,-1.673740
0.274400,-1.669917
0.274600,-1.676289
0.274800,-1.677563
0.275000,-1.675015
0.275200,-1.683936
0.275400,-1.677563
0.275600,-1.680112
0.275800,-1.685210
0.276000,-1.663545
0.276200,-1.654624
0.276400,-1.663545
0.276600,-1.669917
0.276800,-1.683936
0.277000,-1.701778
0.277200,-1.713247
0.277400,-1.728541
0.277600,-1.734913
0.277800,-1.743834
0.278000,-1.738736
0.278200,-1.731090
0.278400,-1.718345
0.278600,-1.689033
0.278800,-1.657173
0.279000,-1.640605
0.279200,-1.645703
0.279400,-1.644428
0.279600,-1.655898
0.279800,-1.668642
0.280000,-1.672466
0.280200,-1.683936
0.280400,-1.686484
0.280600,-1.675015
0.280800,-1.673740
0.281000,-1.657173
0.281200,-1.634233
0.281400,-1.613842
0.281600,-1.602372
0.281800,-1.604921
0.282000,-1.604921
0.282200,-1.611293
0.282400,-1.618940
0.282600,-1.627861
0.282800,-1.645703
0.283000,-1.657173
0.283200,-1.658447
0.283400,-1.649526
0.283600,-1.645703
0.283800,-1.618940
0.284000,-1.611293
0.284200,-1.597274
0.284400,-1.604921
0.284600,-1.603646
0.284800,-1.604921
0.285000,-1.607470
0.285200,-1.608744
0.285400,-1.611293
0.285600,-1.606195
0.285800,-1.608744
0.286000,-1.612567
0.286200,-1.602372
0.286400,-1.602372
0.286600,-1.590902
0.286800,-1.588353
0.287000,-1.575609
0.287200,-1.581981
0.287400,-1.579432
0.287600,-1.576883
0.287800,-1.567962
0.288000,-1.569237
0.288200,-1.561590
0.288400,-1.550120
0.288600,-1.551395
0.288800,-1.546297
0.289000,-1.533553
0.289200,-1.545023
0.289400,-1.542474
0.289600,-1.545023
0.289800,-1.550120
0.290000,-1.547572
0.290200,-1.551395
0.290400,-1.567962
0.290600,-1.557767
0.290800,-1.541199
0.291000,-1.516985
0.291200,-1.495320
0.291400,-1.483850
0.291600,-1.471106
0.291800,-1.457087
0.292000,-1.458361
0.292200,-1.463459
0.292400,-1.463459
0.292600,-1.464734
0.292800,-1.464734
0.293000,-1.467282
0.293200,-1.454538
0.293400,-1.439245
0.293600,-1.453264
0.293800,-1.468557
0.294000,-1.476203
0.294200,-1.478752
0.294400,-1.504241
0.294600,-1.527181
0.294800,-1.537376
0.295000,-1.542474
0.295200,-1.548846
0.295400,-1.555218
0.295600,-1.566688
0.295800,-1.565414
0.296000,-1.573060
0.296200,-1.566688
0.296400,-1.573060
0.296600,-1.570511
0.296800,-1.574335
0.297000,-1.575609
0.297200,-1.561590
0.297400,-1.545023
0.297600,-1.522083
0.297800,-1.520808
0.298000,-1.508064
0.298200,-1.502966
0.298400,-1.490222
0.298600,-1.478752
0.298800,-1.474929
0.299000,-1.482576
0.299200,-1.485124
0.299400,-1.491497
0.299600,-1.509339
0.299800,-1.506790
0.300000,-1.501692
0.300200,-1.515711
0.300400,-1.514436
0.300600,-1.499143
0.300800,-1.509339
0.301000,-1.513162
0.301200,-1.527181
0.301400,-1.547572
0.301600,-1.574335
0.301800,-1.594725
0.302000,-1.617665
0.302200,-1.636782
0.302400,-1.654624
0.302600,-1.669917
0.302800,-1.681387
0.303000,-1.700503
0.303200,-1.706875
0.303400,-1.710699
0.303600,-1.706875
0.303800,-1.696680
0.304000,-1.673740
0.304200,-1.643154
0.304400,-1.612567
0.304600,-1.602372
0.304800,-1.583256
0.305000,-1.550120
0.305200,-1.524632
0.305400,-1.494045
0.305600,-1.472380
0.305800,-1.432873
0.306000,-1.411207
0.306200,-1.403561
0.306400,-1.402286
0.306600,-1.385719
0.306800,-1.378072
0.307000,-1.389542
0.307200,-1.376798
0.307400,-1.362779
0.307600,-1.370426
0.307800,-1.358956
0.308000,-1.342388
0.308200,-1.341114
0.308400,-1.364054
0.308600,-1.393365
0.308800,-1.412482
0.309000,-1.435422
0.309200,-1.437970
0.309400,-1.434147
0.309600,-1.443068
0.309800,-1.439245
0.310000,-1.437970
0.310200,-1.443068
0.310400,-1.453264
0.310600,-1.466008
0.310800,-1.486399
0.311000,-1.496594
0.311200,-1.509339
0.311400,-1.519534
0.311600,-1.500418
0.311800,-1.504241
0.312000,-1.514436
0.312200,-1.519534
0.312400,-1.547572
0.312600,-1.570511
0.312800,-1.583256
0.313000,-1.587079
0.313200,-1.587079
0.313400,-1.592177
0.313600,-1.618940
0.313800,-1.643154
0.314000,-1.672466
0.314200,-1.695405
0.314400,-1.708150
0.314600,-1.723443
0.314800,-1.761676
0.315000,-1.815202
0.315200,-1.872551
0.315400,-1.903138
0.315600,-1.949017
0.315800,-1.977055
0.316000,-2.001269
0.316200,-2.014013
0.316400,-2.014013
0.316600,-1.989799
0.316800,-1.951566
0.317000,-1.923529
0.317200,-1.886570
0.317400,-1.859807
0.317600,-1.819025
0.317800,-1.789713
0.318000,-1.764225
0.318200,-1.741285
0.318400,-1.718345
0.318600,-1.703052
0.318800,-1.692857
0.319000,-1.700503
0.319200,-1.719620
0.319400,-1.738736
0.319600,-1.745108
0.319800,-1.734913
0.320000,-1.703052
0.320200,-1.682661
0.320400,-1.659721
0.320600,-1.662270
0.320800,-1.666094
0.321000,-1.667368
0.321200,-1.686484
0.321400,-1.704326
0.321600,-1.725992
0.321800,-1.743834
0.322000,-1.745108
0.322200,-1.746383
0.322400,-1.754029
0.322600,-1.746383
0.322800,-1.741285
0.323000,-1.745108
0.323200,-1.751480
0.323400,-1.751480
0.323600,-1.745108
0.323800,-1.750206
0.324000,-1.751480
0.324200,-1.752755
0.324400,-1.766774
0.324600,-1.779518
0.324800,-1.805006
0.325000,-1.819025
0.325200,-1.825397
0.325400,-1.821574
0.325600,-1.811379
0.325800,-1.798634
0.326000,-1.785890
0.326200,-1.790988
0.326400,-1.807555
0.326600,-1.822849
0.326800,-1.822849
0.327000,-1.841965
0.327200,-1.852160
0.327400,-1.855984
0.327600,-1.840691
0.327800,-1.827946
0.328000,-1.806281
0.328200,-1.778243
0.328400,-1.750206
0.328600,-1.728541
0.328800,-1.701778
0.329000,-1.678838
0.329200,-1.667368
0.329400,-1.640605
0.329600,-1.617665
0.329800,-1.598549
0.330000,-1.584530
0.330200,-1.587079
0.330400,-1.611293
0.330600,-1.617665
0.330800,-1.631684
0.331000,-1.639331
0.331200,-1.641879
0.331400,-1.629135
0.331600,-1.612567
0.331800,-1.596000
0.332000,-1.576883
0.332200,-1.557767
0.332400,-1.543748
0.332600,-1.520808
0.332800,-1.529729
0.333000,-1.525906
0.333200,-1.533553
0.333400,-1.532278
0.333600,-1.537376
0.333800,-1.538650
0.334000,-1.557767
0.334200,-1.579432
0.334400,-1.604921
0.334600,-1.643154
0.334800,-1.662270
0.335000,-1.658447
0.335200,-1.643154
0.335400,-1.629135
0.335600,-1.612567
0.335800,-1.590902
0.336000,-1.596000
0.336200,-1.612567
0.336400,-1.648252
0.336600,-1.708150
0.336800,-1.754029
0.337000,-1.785890
0.337200,-1.799909
0.337400,-1.820300
0.337600,-1.811379
0.337800,-1.790988
0.338000,-1.783341
0.338200,-1.789713
0.338400,-1.796085
0.338600,-1.803732
0.338800,-1.815202
0.339000,-1.829221
0.339200,-1.850886
0.339400,-1.881472
0.339600,-1.890393
0.339800,-1.882747
0.340000,-1.872551
0.340200,-1.843239
0.340400,-1.825397
0.340600,-1.782067
0.340800,-1.745108
0.341000,-1.723443
0.341200,-1.692857
0.341400,-1.669917
0.341600,-1.663545
0.341800,-1.663545
0.342000,-1.650800
0.342200,-1.653349
0.342400,-1.653349
0.342600,-1.676289
0.342800,-1.708150
0.343000,-1.734913
0.343200,-1.745108
0.343400,-1.768048
0.343600,-1.764225
0.343800,-1.759127
0.344000,-1.755304
0.344200,-1.734913
0.344400,-1.708150
0.344600,-1.676289
0.344800,-1.650800
0.345000,-1.608744
0.345200,-1.566688
0.345400,-1.534827
0.345600,-1.500418
0.345800,-1.485124
0.346000,-1.466008
0.346200,-1.473655
0.346400,-1.471106
0.346600,-1.480027
0.346800,-1.474929
0.347000,-1.485124
0.347200,-1.496594
0.347400,-1.504241
0.347600,-1.495320
0.347800,-1.495320
0.348000,-1.496594
0.348200,-1.482576
0.348400,-1.466008
0.348600,-1.440519
0.348800,-1.415031
0.349000,-1.394640
0.349200,-1.389542
0.349400,-1.383170
0.349600,-1.392091
0.349800,-1.413756
0.350000,-1.431598
0.350200,-1.440519
0.350400,-1.439245
0.350600,-1.423952
0.350800,-1.421403
0.351000,-1.430324
0.351200,-1.444343
0.351400,-1.476203
0.351600,-1.494045
0.351800,-1.519534
0.352000,-1.520808
0.352200,-1.546297
0.352400,-1.553944
0.352600,-1.578158
0.352800,-1.607470
0.353000,-1.607470
0.353200,-1.624037
0.353400,-1.645703
0.353600,-1.652075
0.353800,-1.669917
0.354000,-1.683936
0.354200,-1.673740
0.354400,-1.685210
0.354600,-1.677563
0.354800,-1.678838
0.355000,-1.683936
0.355200,-1.687759
0.355400,-1.687759
0.355600,-1.690308
0.355800,-1.662270
0.356000,-1.648252
0.356200,-1.636782
0.356400,-1.626586
0.356600,-1.604921
0.356800,-1.587079
0.357000,-1.606195
0.357200,-1.630410
0.357400,-1.650800
0.357600,-1.680112
0.357800,-1.696680
0.358000,-1.695405
0.358200,-1.681387
0.358400,-1.669917
0.358600,-1.631684
0.358800,-1.607470
0.359000,-1.592177
0.359200,-1.579432
0.359400,-1.592177
0.359600,-1.598549
0.359800,-1.617665
0.360000,-1.631684
0.360200,-1.646977
0.360400,-1.655898
0.360600,-1.663545
0.360800,-1.667368
0.361000,-1.676289
0.361200,-1.680112
0.361400,-1.692857
0.361600,-1.685210
0.361800,-1.683936
0.362000,-1.685210
0.362200,-1.680112
0.362400,-1.668642
0.362600,-1.657173
0.362800,-1.644428
0.363000,-1.646977
0.363200,-1.652075
0.363400,-1.635507
0.363600,-1.654624
0.363800,-1.655898
0.364000,-1.662270
0.364200,-1.653349
0.364400,-1.646977
0.364600,-1.638056
0.364800,-1.611293
0.365000,-1.606195
0.365200,-1.603646
0.365400,-1.598549
0.365600,-1.604921
0.365800,-1.622763
0.366000,-1.636782
0.366200,-1.658447
0.366400,-1.672466
0.366600,-1.683936
0.366800,-1.689033
0.367000,-1.697954
0.367200,-1.694131
0.367400,-1.704326
0.367600,-1.709424
0.367800,-1.715796
0.368000,-1.719620
0.368200,-1.717071
0.368400,-1.690308
0.368600,-1.658447
0.368800,-1.627861
0.369000,-1.624037
0.369200,-1.631684
0.369400,-1.652075
0.369600,-1.666094
0.369800,-1.697954
0.370000,-1.724717
0.370200,-1.736187
0.370400,-1.738736
0.370600,-1.745108
0.370800,-1.731090
0.371000,-1.722169
0.371200,-1.718345
0.371400,-1.703052
0.371600,-1.687759
0.371800,-1.686484
0.372000,-1.694131
0.372200,-1.703052
0.372400,-1.704326
0.372600,-1.717071
0.372800,-1.723443
0.373000,-1.737462
0.373200,-1.727266
0.373400,-1.708150
0.373600,-1.692857
0.373800,-1.678838
0.374000,-1.659721
0.374200,-1.640605
0.374400,-1.635507
0.374600,-1.635507
0.374800,-1.641879
0.375000,-1.641879
0.375200,-1.645703
0.375400,-1.636782
0.375600,-1.638056
0.375800,-1.629135
0.376000,-1.622763
0.376200,-1.625312
0.376400,-1.615116
0.376600,-1.610019
0.376800,-1.610019
0.377000,-1.620214
0.377200,-1.616391
0.377400,-1.617665
0.377600,-1.598549
0.377800,-1.587079
0.378000,-1.570511
0.378200,-1.566688
0.378400,-1.574335
0.378600,-1.585804
0.378800,-1.590902
0.379000,-1.596000
0.379200,-1.589628
0.379400,-1.589628
0.379600,-1.588353
0.379800,-1.574335
0.380000,-1.575609
0.380200,-1.580707
0.380400,-1.573060
0.380600,-1.567962
0.380800,-1.567962
0.381000,-1.543748
0.381200,-1.538650
0.381400,-1.524632
0.381600,-1.520808
0.381800,-1.514436
0.382000,-1.510613
0.382200,-1.506790
0.382400,-1.497869
0.382600,-1.508064
0.382800,-1.520808
0.383000,-1.525906
0.383200,-1.538650
0.383400,-1.534827
0.383600,-1.532278
0.383800,-1.548846
0.384000,-1.564139
0.384200,-1.561590
0.384400,-1.559041
0.384600,-1.574335
0.384800,-1.588353
0.385000,-1.584530
0.385200,-1.596000
0.385400,-1.612567
0.385600,-1.626586
0.385800,-1.635507
0.386000,-1.655898
0.386200,-1.658447
0.386400,-1.659721
0.386600,-1.646977
0.386800,-1.631684
0.387000,-1.616391
0.387200,-1.598549
0.387400,-1.604921
0.387600,-1.616391
0.387800,-1.610019
0.388000,-1.613842
0.388200,-1.622763
0.388400,-1.626586
0.388600,-1.626586
0.388800,-1.627861
0.389000,-1.648252
0.389200,-1.652075
0.389400,-1.658447
0.389600,-1.659721
0.389800,-1.667368
0.390000,-1.675015
0.390200,-1.668642
0.390400,-1.666094
0.390600,-1.666094
0.390800,-1.657173
0.391000,-1.658447
0.391200,-1.648252
0.391400,-1.663545
0.391600,-1.666094
0.391800,-1.672466
0.392000,-1.668642
0.392200,-1.678838
0.392400,-1.675015
0.392600,-1.675015
0.392800,-1.663545
0.393000,-1.652075
0.393200,-1.648252
0.393400,-1.653349
0.393600,-1.655898
0.393800,-1.666094
0.394000,-1.669917
0.394200,-1.677563
0.394400,-1.677563
0.394600,-1.671191
0.394800,-1.644428
0.395000,-1.625312
0.395200,-1.598549
0.395400,-1.575609
0.395600,-1.561590
0.395800,-1.548846
0.396000,-1.575609
0.396200,-1.578158
0.396400,-1.594725
0.396600,-1.603646
0.396800,-1.588353
0.397000,-1.606195
0.397200,-1.603646
0.397400,-1.611293
0.397600,-1.599823
0.397800,-1.596000
0.398000,-1.598549
0.398200,-1.596000
0.398400,-1.594725
0.398600,-1.597274
0.398800,-1.601098
0.399000,-1.615116
0.399200,-1.615116
0.399400,-1.612567
0.399600,-1.624037
0.399800,-1.634233
0.400000,-1.631684
0.400200,-1.626586
0.400400,-1.611293
0.400600,-1.596000
0.400800,-1.567962
0.401000,-1.533553
0.401200,-1.504241
0.401400,-1.457087
0.401600,-1.416305
0.401800,-1.376798
0.402000,-1.358956
0.402200,-1.356407
0.402400,-1.394640
0.402600,-1.429049
0.402800,-1.463459
0.403000,-1.495320
0.403200,-1.520808
0.403400,-1.519534
0.403600,-1.500418
0.403800,-1.486399
0.404000,-1.482576
0.404200,-1.468557
0.404400,-1.469831
0.404600,-1.471106
0.404800,-1.495320
0.405000,-1.527181
0.405200,-1.545023
0.405400,-1.557767
0.405600,-1.560316
0.405800,-1.548846
0.406000,-1.542474
0.406200,-1.539925
0.406400,-1.543748
0.406600,-1.547572
0.406800,-1.541199
0.407000,-1.543748
0.407200,-1.561590
0.407400,-1.587079
0.407600,-1.616391
0.407800,-1.655898
0.408000,-1.678838
0.408200,-1.691582
0.408400,-1.705601
0.408600,-1.719620
0.408800,-1.743834
0.409000,-1.808830
0.409200,-1.843239
0.409400,-1.857258
0.409600,-1.855984
0.409800,-1.852160
0.410000,-1.830495
0.410200,-1.801183
0.410400,-1.794811
0.410600,-1.782067
0.410800,-1.766774
0.411000,-1.740011
0.411200,-1.727266
0.411400,-1.713247
0.411600,-1.696680
0.411800,-1.682661
0.412000,-1.671191
0.412200,-1.671191
0.412400,-1.662270
0.412600,-1.662270
0.412800,-1.663545
0.413000,-1.681387
0.413200,-1.687759
0.413400,-1.690308
0.413600,-1.709424
0.413800,-1.713247
0.414000,-1.694131
0.414200,-1.689033
0.414400,-1.683936
0.414600,-1.673740
0.414800,-1.659721
0.415000,-1.646977
0.415200,-1.631684
0.415400,-1.622763
0.415600,-1.611293
0.415800,-1.597274
0.416000,-1.578158
0.416200,-1.562865
0.416400,-1.555218
0.416600,-1.555218
0.416800,-1.565414
0.417000,-1.578158
0.417200,-1.598549
0.417400,-1.615116
0.417600,-1.626586
0.417800,-1.622763
0.418000,-1.621488
0.418200,-1.621488
0.418400,-1.610019
0.418600,-1.617665
0.418800,-1.611293
0.419000,-1.622763
0.419200,-1.621488
0.419400,-1.631684
0.419600,-1.648252
0.419800,-1.658447
0.420000,-1.658447
0.420200,-1.646977
0.420400,-1.636782
0.420600,-1.622763
0.420800,-1.631684
0.421000,-1.638056
0.421200,-1.641879
0.421400,-1.663545
0.421600,-1.680112
0.421800,-1.699229
0.422000,-1.705601
0.422200,-1.697954
0.422400,-1.699229
0.422600,-1.701778
0.422800,-1.697954
0.423000,-1.703052
0.423200,-1.692857
0.423400,-1.669917
0.423600,-1.667368
0.423800,-1.663545
0.424000,-1.663545
0.424200,-1.672466
0.424400,-1.686484
0.424600,-1.685210
0.424800,-1.695405
0.425000,-1.697954
0.425200,-1.708150
0.425400,-1.718345
0.425600,-1.717071
0.425800,-1.723443
0.426000,-1.725992
0.426200,-1.718345
0.426400,-1.710699
0.426600,-1.713247
0.426800,-1.705601
0.427000,-1.703052
0.427200,-1.687759
0.427400,-1.682661
0.427600,-1.673740
0.427800,-1.678838
0.428000,-1.687759
0.428200,-1.703052
0.428400,-1.713247
0.428600,-1.742559
0.428800,-1.745108
0.429000,-1.741285
0.429200,-1.733638
0.429400,-1.728541
0.429600,-1.717071
0.429800,-1.700503
0.430000,-1.696680
0.430200,-1.700503
0.430400,-1.708150
0.430600,-1.718345
0.430800,-1.719620
0.431000,-1.727266
0.431200,-1.725992
0.431400,-1.708150
0.431600,-1.683936
0.431800,-1.662270
0.432000,-1.639331
0.432200,-1.617665
0.432400,-1.602372
0.432600,-1.598549
0.432800,-1.607470
0.433000,-1.606195
0.433200,-1.622763
0.433400,-1.620214
0.433600,-1.597274
0.433800,-1.580707
0.434000,-1.556493
0.434200,-1.545023
0.434400,-1.537376
0.434600,-1.539925
0.434800,-1.545023
0.435000,-1.564139
0.435200,-1.581981
0.435400,-1.602372
0.435600,-1.603646
0.435800,-1.599823
0.436000,-1.597274
0.436200,-1.589628
0.436400,-1.575609
0.436600,-1.559041
0.436800,-1.564139
0.437000,-1.560316
0.437200,-1.553944
0.437400,-1.566688
0.437600,-1.596000
0.437800,-1.612567
0.438000,-1.646977
0.438200,-1.653349
0.438400,-1.660996
0.438600,-1.636782
0.438800,-1.612567
0.439000,-1.570511
0.439200,-1.537376
0.439400,-1.514436
0.439600,-1.495320
0.439800,-1.506790
0.440000,-1.516985
0.440200,-1.533553
0.440400,-1.547572
0.440600,-1.559041
0.440800,-1.571786
0.441000,-1.585804
0.441200,-1.606195
0.441400,-1.621488
0.441600,-1.645703
0.441800,-1.638056
0.442000,-1.652075
0.442200,-1.659721
0.442400,-1.667368
0.442600,-1.657173
0.442800,-1.658447
0.443000,-1.658447
0.443200,-1.667368
0.443400,-1.667368
0.443600,-1.672466
0.443800,-1.668642
0.444000,-1.663545
0.444200,-1.655898
0.444400,-1.643154
0.444600,-1.624037
0.444800,-1.598549
0.445000,-1.571786
0.445200,-1.555218
0.445400,-1.534827
0.445600,-1.537376
0.445800,-1.532278
0.446000,-1.529729
0.446200,-1.561590
0.446400,-1.603646
0.446600,-1.636782
0.446800,-1.643154
0.447000,-1.657173
0.447200,-1.664819
0.447400,-1.664819
0.447600,-1.652075
0.447800,-1.648252
0.448000,-1.650800
0.448200,-1.646977
0.448400,-1.652075
0.448600,-1.650800
0.448800,-1.658447
0.449000,-1.648252
0.449200,-1.639331
0.449400,-1.632958
0.449600,-1.645703
0.449800,-1.645703
0.450000,-1.646977
0.450200,-1.653349
0.450400,-1.660996
0.450600,-1.678838
0.450800,-1.687759
0.451000,-1.692857
0.451200,-1.695405
0.451400,-1.690308
0.451600,-1.681387
0.451800,-1.682661
0.452000,-1.678838
0.452200,-1.672466
0.452400,-1.652075
0.452600,-1.631684
0.452800,-1.601098
0.453000,-1.580707
0.453200,-1.556493
0.453400,-1.550120
0.453600,-1.533553
0.453800,-1.525906
0.454000,-1.534827
0.454200,-1.546297
0.454400,-1.552669
0.454600,-1.571786
0.454800,-1.578158
0.455000,-1.588353
0.455200,-1.588353
0.455400,-1.589628
0.455600,-1.584530
0.455800,-1.576883
0.456000,-1.567962
0.456200,-1.574335
0.456400,-1.581981
0.456600,-1.596000
0.456800,-1.615116
0.457000,-1.635507
0.457200,-1.648252
0.457400,-1.657173
0.457600,-1.660996
0.457800,-1.652075
0.458000,-1.641879
0.458200,-1.629135
0.458400,-1.629135
0.458600,-1.625312
0.458800,-1.621488
0.459000,-1.622763
0.459200,-1.626586
0.459400,-1.622763
0.459600,-1.622763
0.459800,-1.621488
0.460000,-1.618940
0.460200,-1.608744
0.460400,-1.610019
0.460600,-1.618940
0.460800,-1.629135
0.461000,-1.625312
0.461200,-1.618940
0.461400,-1.616391
0.461600,-1.617665
0.461800,-1.627861
0.462000,-1.636782
0.462200,-1.667368
0.462400,-1.680112
0.462600,-1.708150
0.462800,-1.722169
0.463000,-1.738736
0.463200,-1.748932
0.463400,-1.738736
0.463600,-1.717071
0.463800,-1.723443
0.464000,-1.708150
0.464200,-1.703052
0.464400,-1.680112
0.464600,-1.666094
0.464800,-1.667368
0.465000,-1.666094
0.465200,-1.668642
0.465400,-1.668642
0.465600,-1.680112
0.465800,-1.694131
0.466000,-1.703052
0.466200,-1.714522
0.466400,-1.717071
0.466600,-1.704326
0.466800,-1.703052
0.467000,-1.683936
0.467200,-1.686484
0.467400,-1.673740
0.467600,-1.649526
0.467800,-1.654624
0.468000,-1.660996
0.468200,-1.669917
0.468400,-1.663545
0.468600,-1.662270
0.468800,-1.662270
0.469000,-1.662270
0.469200,-1.652075
0.469400,-1.650800
0.469600,-1.648252
0.469800,-1.646977
0.470000,-1.643154
0.470200,-1.648252
0.470400,-1.636782
0.470600,-1.639331
0.470800,-1.643154
0.471000,-1.654624
0.471200,-1.657173
0.471400,-1.673740
0.471600,-1.677563
0.471800,-1.699229
0.472000,-1.706875
0.472200,-1.714522
0.472400,-1.699229
0.472600,-1.677563
0.472800,-1.654624
0.473000,-1.646977
0.473200,-1.638056
0.473400,-1.643154
0.473600,-1.672466
0.473800,-1.682661
0.474000,-1.704326
0.474200,-1.715796
0.474400,-1.708150
0.474600,-1.706875
0.474800,-1.678838
0.475000,-1.659721
0.475200,-1.629135
0.475400,-1.611293
0.475600,-1.606195
0.475800,-1.611293
0.476000,-1.621488
0.476200,-1.629135
0.476400,-1.644428
0.476600,-1.666094
0.476800,-1.668642
0.477000,-1.676289
0.477200,-1.666094
0.477400,-1.667368
0.477600,-1.659721
0.477800,-1.645703
0.478000,-1.657173
0.478200,-1.668642
0.478400,-1.677563
0.478600,-1.681387
0.478800,-1.662270
0.479000,-1.650800
0.479200,-1.624037
0.479400,-1.606195
0.479600,-1.606195
0.479800,-1.601098
0.480000,-1.603646
0.480200,-1.604921
0.480400,-1.625312
0.480600,-1.632958
0.480800,-1.636782
0.481000,-1.640605
0.481200,-1.635507
0.481400,-1.613842
0.481600,-1.585804
0.481800,-1.562865
0.482000,-1.537376
0.482200,-1.516985
0.482400,-1.519534
0.482600,-1.496594
0.482800,-1.487673
0.483000,-1.471106
0.483200,-1.459636
0.483400,-1.449440
0.483600,-1.455813
0.483800,-1.455813
0.484000,-1.453264
0.484200,-1.448166
0.484400,-1.434147
0.484600,-1.430324
0.484800,-1.432873
0.485000,-1.418854
0.485200,-1.415031
0.485400,-1.429049
0.485600,-1.445617
0.485800,-1.464734
0.486000,-1.504241
0.486200,-1.532278
0.486400,-1.534827
0.486600,-1.534827
0.486800,-1.514436
0.487000,-1.504241
0.487200,-1.483850
0.487400,-1.463459
0.487600,-1.460910
0.487800,-1.451989
0.488000,-1.463459
0.488200,-1.502966
0.488400,-1.551395
0.488600,-1.602372
0.488800,-1.672466
0.489000,-1.719620
0.489200,-1.760401
0.489400,-1.768048
0.489600,-1.752755
0.489800,-1.719620
0.490000,-1.687759
0.490200,-1.634233
0.490400,-1.550120
0.490600,-1.488948
0.490800,-1.437970
0.491000,-1.412482
0.491200,-1.397189
0.491400,-1.394640
0.491600,-1.404835
0.491800,-1.430324
0.492000,-1.454538
0.492200,-1.471106
0.492400,-1.476203
0.492600,-1.477478
0.492800,-1.450715
0.493000,-1.418854
0.493200,-1.409933
0.493400,-1.402286
0.493600,-1.411207
0.493800,-1.434147
0.494000,-1.476203
0.494200,-1.506790
0.494400,-1.547572
0.494600,-1.576883
0.494800,-1.606195
0.495000,-1.627861
0.495200,-1.648252
0.495400,-1.664819
0.495600,-1.676289
0.495800,-1.690308
0.496000,-1.718345
0.496200,-1.769322
0.496400,-1.825397
0.496600,-1.873826
0.496800,-1.910784
0.497000,-1.949017
0.497200,-1.969408
0.497400,-1.977055
0.497600,-2.005092
0.497800,-2.053520
0.498000,-2.085381
0.498200,-2.127437
0.498400,-2.172043
0.498600,-2.207727
0.498800,-2.253606
0.499000,-2.289290
0.499200,-2.310955
0.499400,-2.309681
0.499600,-2.294388
0.499800,-2.284192
0.500000,-2.254880
0.500200,-2.240862
0.500400,-2.219196
0.500600,-2.193708
0.500800,-2.146554
0.501000,-2.100674
0.501200,-2.068814
0.501400,-2.043325
0.501600,-2.014013
0.501800,-1.993622
0.502000,-1.971957
0.502200,-1.963036
0.502400,-1.941371
0.502600,-1.915882
0.502800,-1.900589
0.503000,-1.891668
0.503200,-1.887844
0.503400,-1.881472
0.503600,-1.872551
0.503800,-1.873826
0.504000,-1.887844
0.504200,-1.908235
0.504400,-1.919705
0.504600,-1.927352
0.504800,-1.923529
0.505000,-1.927352
0.505200,-1.922254
0.505400,-1.920980
0.505600,-1.918431
0.505800,-1.903138
0.506000,-1.890393
0.506200,-1.868728
0.506400,-1.857258
0.506600,-1.855984
0.506800,-1.845788
0.507000,-1.813928
0.507200,-1.793537
0.507400,-1.770597
0.507600,-1.751480
0.507800,-1.742559
0.508000,-1.745108
0.508200,-1.731090
0.508400,-1.724717
0.508600,-1.718345
0.508800,-1.720894
0.509000,-1.720894
0.509200,-1.725992
0.509400,-1.710699
0.509600,-1.704326
0.509800,-1.697954
0.510000,-1.683936
0.510200,-1.680112
0.510400,-1.664819
0.510600,-1.663545
0.510800,-1.644428
0.511000,-1.638056
0.511200,-1.629135
0.511400,-1.621488
0.511600,-1.626586
0.511800,-1.624037
0.512000,-1.620214
0.512200,-1.621488
0.512400,-1.617665
0.512600,-1.620214
0.512800,-1.615116
0.513000,-1.611293
0.513200,-1.601098
0.513400,-1.603646
0.513600,-1.604921
0.513800,-1.606195
0.514000,-1.617665
0.514200,-1.618940
0.514400,-1.597274
0.514600,-1.590902
0.514800,-1.565414
0.515000,-1.550120
0.515200,-1.525906
0.515400,-1.504241
0.515600,-1.495320
0.515800,-1.482576
0.516000,-1.467282
0.516200,-1.463459
0.516400,-1.471106
0.516600,-1.478752
0.516800,-1.464734
0.517000,-1.466008
0.517200,-1.458361
0.517400,-1.460910
0.517600,-1.469831
0.517800,-1.485124
0.518000,-1.497869
0.518200,-1.506790
0.518400,-1.523357
0.518600,-1.516985
0.518800,-1.519534
0.519000,-1.518260
0.519200,-1.510613
0.519400,-1.500418
0.519600,-1.496594
0.519800,-1.492771
0.520000,-1.496594
0.520200,-1.510613
0.520400,-1.528455
0.520600,-1.559041
0.520800,-1.570511
0.521000,-1.575609
0.521200,-1.576883
0.521400,-1.570511
0.521600,-1.559041
0.521800,-1.539925
0.522000,-1.528455
0.522200,-1.509339
0.522400,-1.495320
0.522600,-1.477478
0.522800,-1.476203
0.523000,-1.472380
0.523200,-1.480027
0.523400,-1.485124
0.523600,-1.491497
0.523800,-1.494045
0.524000,-1.509339
0.524200,-1.514436
0.524400,-1.519534
0.524600,-1.522083
0.524800,-1.519534
0.525000,-1.529729
0.525200,-1.541199
0.525400,-1.538650
0.525600,-1.534827
0.525800,-1.545023
0.526000,-1.550120
0.526200,-1.570511
0.526400,-1.578158
0.526600,-1.587079
0.526800,-1.589628
0.527000,-1.587079
0.527200,-1.587079
0.527400,-1.589628
0.527600,-1.597274
0.527800,-1.597274
0.528000,-1.587079
0.528200,-1.578158
0.528400,-1.565414
0.528600,-1.556493
0.528800,-1.543748
0.529000,-1.528455
0.529200,-1.525906
0.529400,-1.527181
0.529600,-1.519534
0.529800,-1.522083
0.530000,-1.514436
0.530200,-1.513162
0.530400,-1.520808
0.530600,-1.519534
0.530800,-1.524632
0.531000,-1.525906
0.531200,-1.523357
0.531400,-1.529729
0.531600,-1.532278
0.531800,-1.523357
0.532000,-1.523357
0.532200,-1.534827
0.532400,-1.542474
0.532600,-1.542474
0.532800,-1.537376
0.533000,-1.547572
0.533200,-1.542474
0.533400,-1.551395
0.533600,-1.547572
0.533800,-1.536102
0.534000,-1.529729
0.534200,-1.532278
0.534400,-1.541199
0.534600,-1.543748
0.534800,-1.537376
0.535000,-1.538650
0.535200,-1.541199
0.535400,-1.551395
0.535600,-1.551395
0.535800,-1.556493
0.536000,-1.562865
0.536200,-1.552669
0.536400,-1.536102
0.536600,-1.519534
0.536800,-1.495320
0.537000,-1.472380
0.537200,-1.463459
0.537400,-1.453264
0.537600,-1.453264
0.537800,-1.472380
0.538000,-1.478752
0.538200,-1.482576
0.538400,-1.488948
0.538600,-1.490222
0.538800,-1.483850
0.539000,-1.464734
0.539200,-1.454538
0.539400,-1.448166
0.539600,-1.434147
0.539800,-1.429049
0.540000,-1.448166
0.540200,-1.472380
0.540400,-1.492771
0.540600,-1.529729
0.540800,-1.559041
0.541000,-1.581981
0.541200,-1.593451
0.541400,-1.610019
0.541600,-1.615116
0.541800,-1.604921
0.542000,-1.606195
0.542200,-1.603646
0.542400,-1.581981
0.542600,-1.576883
0.542800,-1.564139
0.543000,-1.553944
0.543200,-1.552669
0.543400,-1.546297
0.543600,-1.527181
0.543800,-1.506790
0.544000,-1.502966
0.544200,-1.505515
0.544400,-1.501692
0.544600,-1.505515
0.544800,-1.520808
0.545000,-1.515711
0.545200,-1.509339
0.545400,-1.496594
0.545600,-1.495320
0.545800,-1.486399
0.546000,-1.480027
0.546200,-1.483850
0.546400,-1.500418
0.546600,-1.533553
0.546800,-1.564139
0.547000,-1.601098
0.547200,-1.632958
0.547400,-1.649526
0.547600,-1.655898
0.547800,-1.638056
0.548000,-1.598549
0.548200,-1.550120
0.548400,-1.515711
0.548600,-1.473655
0.548800,-1.453264
0.549000,-1.435422
0.549200,-1.430324
0.549400,-1.436696
0.549600,-1.437970
0.549800,-1.453264
0.550000,-1.468557
0.550200,-1.488948
0.550400,-1.504241
0.550600,-1.525906
0.550800,-1.528455
0.551000,-1.529729
0.551200,-1.519534
0.551400,-1.506790
0.551600,-1.488948
0.551800,-1.483850
0.552000,-1.466008
0.552200,-1.467282
0.552400,-1.468557
0.552600,-1.473655
0.552800,-1.478752
0.553000,-1.487673
0.553200,-1.509339
0.553400,-1.524632
0.553600,-1.523357
0.553800,-1.516985
0.554000,-1.514436
0.554200,-1.510613
0.554400,-1.510613
0.554600,-1.496594
0.554800,-1.491497
0.555000,-1.486399
0.555200,-1.476203
0.555400,-1.469831
0.555600,-1.481301
0.555800,-1.494045
0.556000,-1.502966
0.556200,-1.532278
0.556400,-1.538650
0.556600,-1.557767
0.556800,-1.564139
0.557000,-1.583256
0.557200,-1.587079
0.557400,-1.596000
0.557600,-1.602372
0.557800,-1.611293
0.558000,-1.617665
0.558200,-1.602372
0.558400,-1.601098
0.558600,-1.603646
0.558800,-1.585804
0.559000,-1.574335
0.559200,-1.575609
0.559400,-1.574335
0.559600,-1.596000
0.559800,-1.606195
0.560000,-1.617665
0.560200,-1.625312
0.560400,-1.641879
0.560600,-1.644428
0.560800,-1.648252
0.561000,-1.653349
0.561200,-1.652075
0.561400,-1.646977
0.561600,-1.658447
0.561800,-1.660996
0.562000,-1.648252
0.562200,-1.652075
0.562400,-1.659721
0.562600,-1.662270
0.562800,-1.664819
0.563000,-1.668642
0.563200,-1.668642
0.563400,-1.672466
0.563600,-1.653349
0.563800,-1.640605
0.564000,-1.627861
0.564200,-1.611293
0.564400,-1.585804
0.564600,-1.564139
0.564800,-1.550120
0.565000,-1.548846
0.565200,-1.555218
0.565400,-1.573060
0.565600,-1.581981
0.565800,-1.597274
0.566000,-1.598549
0.566200,-1.606195
0.566400,-1.607470
0.566600,-1.617665
0.566800,-1.626586
0.567000,-1.632958
0.567200,-1.638056
0.567400,-1.636782
0.567600,-1.613842
0.567800,-1.599823
0.568000,-1.590902
0.568200,-1.587079
0.568400,-1.584530
0.568600,-1.598549
0.568800,-1.606195
0.569000,-1.621488
0.569200,-1.632958
0.569400,-1.650800
0.569600,-1.666094
0.569800,-1.687759
0.570000,-1.704326
0.570200,-1.706875
0.570400,-1.717071
0.570600,-1.709424
0.570800,-1.691582
0.571000,-1.667368
0.571200,-1.634233
0.571400,-1.612567
0.571600,-1.597274
0.571800,-1.596000
0.572000,-1.598549
0.572200,-1.610019
0.572400,-1.620214
0.572600,-1.635507
0.572800,-1.646977
0.573000,-1.658447
0.573200,-1.667368
0.573400,-1.667368
0.573600,-1.677563
0.573800,-1.678838
0.574000,-1.676289
0.574200,-1.669917
0.574400,-1.682661
0.574600,-1.686484
0.574800,-1.681387
0.575000,-1.687759
0.575200,-1.694131
0.575400,-1.683936
0.575600,-1.677563
0.575800,-1.663545
0.576000,-1.678838
0.576200,-1.683936
0.576400,-1.692857
0.576600,-1.697954
0.576800,-1.691582
0.577000,-1.686484
0.577200,-1.677563
0.577400,-1.652075
0.577600,-1.636782
0.577800,-1.631684
0.578000,-1.615116
0.578200,-1.606195
0.578400,-1.602372
0.578600,-1.598549
0.578800,-1.590902
0.579000,-1.590902
0.579200,-1.573060
0.579400,-1.564139
0.579600,-1.551395
0.579800,-1.534827
0.580000,-1.514436
0.580200,-1.495320
0.580400,-1.473655
0.580600,-1.462185
0.580800,-1.449440
0.581000,-1.449440
0.581200,-1.463459
0.581400,-1.476203
0.581600,-1.485124
0.581800,-1.514436
0.582000,-1.524632
0.582200,-1.551395
0.582400,-1.583256
0.582600,-1.617665
0.582800,-1.648252
0.583000,-1.692857
0.583200,-1.706875
0.583400,-1.717071
0.583600,-1.715796
0.583800,-1.694131
0.584000,-1.687759
0.584200,-1.678838
0.584400,-1.687759
0.584600,-1.724717
0.584800,-1.740011
0.585000,-1.787164
0.585200,-1.813928
0.585400,-1.830495
0.585600,-1.841965
0.585800,-1.852160
0.586000,-1.844514
0.586200,-1.829221
0.586400,-1.799909
0.586600,-1.757853
0.586800,-1.737462
0.587000,-1.711973
0.587200,-1.695405
0.587400,-1.692857
0.587600,-1.685210
0.587800,-1.699229
0.588000,-1.685210
0.588200,-1.676289
0.588400,-1.672466
0.588600,-1.671191
0.588800,-1.685210
0.589000,-1.691582
0.589200,-1.719620
0.589400,-1.746383
0.589600,-1.785890
0.589800,-1.825397
0.590000,-1.850886
0.590200,-1.858533
0.590400,-1.861081
0.590600,-1.871277
0.590800,-1.866179
0.591000,-1.859807
0.591200,-1.835593
0.591400,-1.816476
0.591600,-1.787164
0.591800,-1.754029
0.592000,-1.715796
0.592200,-1.700503
0.592400,-1.701778
0.592600,-1.701778
0.592800,-1.692857
0.593000,-1.685210
0.593200,-1.677563
0.593400,-1.675015
0.593600,-1.677563
0.593800,-1.680112
0.594000,-1.668642
0.594200,-1.660996
0.594400,-1.641879
0.594600,-1.626586
0.594800,-1.610019
0.595000,-1.604921
0.595200,-1.592177
0.595400,-1.587079
0.595600,-1.594725
0.595800,-1.603646
0.596000,-1.626586
0.596200,-1.645703
0.596400,-1.667368
0.596600,-1.689033
0.596800,-1.694131
0.597000,-1.710699
0.597200,-1.708150
0.597400,-1.733638
0.597600,-1.765499
0.597800,-1.766774
0.598000,-1.759127
0.598200,-1.743834
0.598400,-1.705601
0.598600,-1.677563
0.598800,-1.659721
0.599000,-1.652075
0.599200,-1.658447
0.599400,-1.682661
0.599600,-1.694131
0.599800,-1.690308
0.600000,-1.682661
0.600200,-1.689033
0.600400,-1.706875
0.600600,-1.725992
0.600800,-1.750206
0.601000,-1.774420
0.601200,-1.790988
0.601400,-1.799909
0.601600,-1.794811
0.601800,-1.762950
0.602000,-1.733638
0.602200,-1.708150
0.602400,-1.700503
0.602600,-1.685210
0.602800,-1.677563
0.603000,-1.682661
0.603200,-1.699229
0.603400,-1.724717
0.603600,-1.731090
0.603800,-1.746383
0.604000,-1.756578
0.604200,-1.754029
0.604400,-1.759127
0.604600,-1.741285
0.604800,-1.737462
0.605000,-1.737462
0.605200,-1.746383
0.605400,-1.756578
0.605600,-1.757853
0.605800,-1.765499
0.606000,-1.785890
0.606200,-1.797360
0.606400,-1.815202
0.606600,-1.825397
0.606800,-1.822849
0.607000,-1.819025
0.607200,-1.817751
0.607400,-1.826672
0.607600,-1.822849
0.607800,-1.820300
0.608000,-1.826672
0.608200,-1.826672
0.608400,-1.830495
0.608600,-1.815202
0.608800,-1.824123
0.609000,-1.820300
0.609200,-1.822849
0.609400,-1.819025
0.609600,-1.829221
0.609800,-1.830495
0.610000,-1.826672
0.610200,-1.829221
0.610400,-1.831770
0.610600,-1.830495
0.610800,-1.830495
0.611000,-1.826672
0.611200,-1.819025
0.611400,-1.797360
0.611600,-1.792262
0.611800,-1.771871
0.612000,-1.761676
0.612200,-1.764225
0.612400,-1.769322
0.612600,-1.770597
0.612800,-1.771871
0.613000,-1.774420
0.613200,-1.779518
0.613400,-1.788439
0.613600,-1.812653
0.613800,-1.844514
0.614000,-1.876375
0.614200,-1.890393
0.614400,-1.881472
0.614600,-1.882747
0.614800,-1.871277
0.615000,-1.849612
0.615200,-1.833044
0.615400,-1.810104
0.615600,-1.790988
0.615800,-1.776969
0.616000,-1.764225
0.616200,-1.750206
0.616400,-1.740011
0.616600,-1.720894
0.616800,-1.724717
0.617000,-1.728541
0.617200,-1.738736
0.617400,-1.754029
0.617600,-1.756578
0.617800,-1.762950
0.618000,-1.760401
0.618200,-1.771871
0.618400,-1.774420
0.618600,-1.780792
0.618800,-1.771871
0.619000,-1.759127
0.619200,-1.733638
0.619400,-1.697954
0.619600,-1.678838
0.619800,-1.667368
0.620000,-1.662270
0.620200,-1.662270
0.620400,-1.664819
0.620600,-1.689033
0.620800,-1.691582
0.621000,-1.699229
0.621200,-1.695405
0.621400,-1.699229
0.621600,-1.718345
0.621800,-1.718345
0.622000,-1.745108
0.622200,-1.756578
0.622400,-1.765499
0.622600,-1.762950
0.622800,-1.765499
0.623000,-1.766774
0.623200,-1.757853
0.623400,-1.745108
0.623600,-1.733638
0.623800,-1.729815
0.624000,-1.714522
0.624200,-1.714522
0.624400,-1.700503
0.624600,-1.691582
0.624800,-1.685210
0.625000,-1.675015
0.625200,-1.663545
0.625400,-1.657173
0.625600,-1.666094
0.625800,-1.659721
0.626000,-1.655898
0.626200,-1.660996
0.626400,-1.657173
0.626600,-1.655898
0.626800,-1.649526
0.627000,-1.653349
0.627200,-1.659721
0.627400,-1.643154
0.627600,-1.646977
0.627800,-1.631684
0.628000,-1.629135
0.628200,-1.612567
0.628400,-1.592177
0.628600,-1.564139
0.628800,-1.534827
0.629000,-1.518260
0.629200,-1.497869
0.629400,-1.466008
0.629600,-1.436696
0.629800,-1.421403
0.630000,-1.398463
0.630200,-1.374249
0.630400,-1.380621
0.630600,-1.383170
0.630800,-1.398463
0.631000,-1.420128
0.631200,-1.431598
0.631400,-1.443068
0.631600,-1.453264
0.631800,-1.458361
0.632000,-1.440519
0.632200,-1.436696
0.632400,-1.436696
0.632600,-1.443068
0.632800,-1.448166
0.633000,-1.444343
0.633200,-1.422677
0.633400,-1.421403
0.633600,-1.413756
0.633800,-1.390817
0.634000,-1.386993
0.634200,-1.366602
0.634400,-1.351309
0.634600,-1.361505
0.634800,-1.370426
0.635000,-1.380621
0.635200,-1.383170
0.635400,-1.383170
0.635600,-1.392091
0.635800,-1.403561
0.636000,-1.401012
0.636200,-1.398463
0.636400,-1.371700
0.636600,-1.364054
0.636800,-1.364054
0.637000,-1.378072
0.637200,-1.388268
0.637400,-1.403561
0.637600,-1.422677
0.637800,-1.432873
0.638000,-1.443068
0.638200,-1.459636
0.638400,-1.473655
0.638600,-1.496594
0.638800,-1.504241
0.639000,-1.527181
0.639200,-1.524632
0.639400,-1.527181
0.639600,-1.524632
0.639800,-1.522083
0.640000,-1.515711
0.640200,-1.524632
0.640400,-1.520808
0.640600,-1.524632
0.640800,-1.516985
0.641000,-1.534827
0.641200,-1.531004
0.641400,-1.531004
0.641600,-1.541199
0.641800,-1.552669
0.642000,-1.548846
0.642200,-1.556493
0.642400,-1.570511
0.642600,-1.584530
0.642800,-1.598549
0.643000,-1.621488
0.643200,-1.629135
0.643400,-1.649526
0.643600,-1.658447
0.643800,-1.663545
0.644000,-1.676289
0.644200,-1.668642
0.644400,-1.666094
0.644600,-1.657173
0.644800,-1.634233
0.645000,-1.629135
0.645200,-1.634233
0.645400,-1.639331
0.645600,-1.643154
0.645800,-1.653349
0.646000,-1.643154
0.646200,-1.641879
0.646400,-1.639331
0.646600,-1.638056
0.646800,-1.645703
0.647000,-1.648252
0.647200,-1.666094
0.647400,-1.660996
0.647600,-1.645703
0.647800,-1.626586
0.648000,-1.617665
0.648200,-1.596000
0.648400,-1.573060
0.648600,-1.541199
0.648800,-1.537376
0.649000,-1.528455
0.649200,-1.519534
0.649400,-1.518260
0.649600,-1.528455
0.649800,-1.520808
0.650000,-1.524632
0.650200,-1.522083
0.650400,-1.522083
0.650600,-1.520808
0.650800,-1.531004
0.651000,-1.543748
0.651200,-1.555218
0.651400,-1.567962
0.651600,-1.580707
0.651800,-1.594725
0.652000,-1.618940
0.652200,-1.629135
0.652400,-1.631684
0.652600,-1.631684
0.652800,-1.603646
0.653000,-1.587079
0.653200,-1.556493
0.653400,-1.518260
0.653600,-1.501692
0.653800,-1.494045
0.654000,-1.481301
0.654200,-1.487673
0.654400,-1.490222
0.654600,-1.523357
0.654800,-1.536102
0.655000,-1.537376
0.655200,-1.539925
0.655400,-1.536102
0.655600,-1.543748
0.655800,-1.532278
0.656000,-1.528455
0.656200,-1.520808
0.656400,-1.504241
0.656600,-1.500418
0.656800,-1.524632
0.657000,-1.545023
0.657200,-1.570511
0.657400,-1.583256
0.657600,-1.574335
0.657800,-1.570511
0.658000,-1.550120
0.658200,-1.532278
0.658400,-1.524632
0.658600,-1.514436
0.658800,-1.500418
0.659000,-1.476203
0.659200,-1.463459
0.659400,-1.453264
0.659600,-1.439245
0.659800,-1.422677
0.660000,-1.417580
0.660200,-1.407384
0.660400,-1.415031
0.660600,-1.411207
0.660800,-1.418854
0.661000,-1.439245
0.661200,-1.449440
0.661400,-1.455813
0.661600,-1.474929
0.661800,-1.490222
0.662000,-1.510613
0.662200,-1.533553
0.662400,-1.543748
0.662600,-1.550120
0.662800,-1.587079
0.663000,-1.606195
0.663200,-1.631684
0.663400,-1.646977
0.663600,-1.657173
0.663800,-1.678838
0.664000,-1.690308
0.664200,-1.722169
0.664400,-1.732364
0.664600,-1.751480
0.664800,-1.760401
0.665000,-1.766774
0.665200,-1.760401
0.665400,-1.751480
0.665600,-1.743834
0.665800,-1.723443
0.666000,-1.704326
0.666200,-1.690308
0.666400,-1.676289
0.666600,-1.641879
0.666800,-1.617665
0.667000,-1.597274
0.667200,-1.588353
0.667400,-1.587079
0.667600,-1.584530
0.667800,-1.585804
0.668000,-1.576883
0.668200,-1.576883
0.668400,-1.581981
0.668600,-1.585804
0.668800,-1.587079
0.669000,-1.607470
0.669200,-1.612567
0.669400,-1.626586
0.669600,-1.636782
0.669800,-1.657173
0.670000,-1.681387
0.670200,-1.692857
0.670400,-1.699229
0.670600,-1.720894
0.670800,-1.722169
0.671000,-1.706875
0.671200,-1.694131
0.671400,-1.685210
0.671600,-1.663545
0.671800,-1.657173
0.672000,-1.650800
0.672200,-1.652075
0.672400,-1.641879
0.672600,-1.653349
0.672800,-1.643154
0.673000,-1.639331
0.673200,-1.622763
0.673400,-1.621488
0.673600,-1.629135
0.673800,-1.636782
0.674000,-1.649526
0.674200,-1.663545
0.674400,-1.685210
0.674600,-1.713247
0.674800,-1.748932
0.675000,-1.770597
0.675200,-1.789713
0.675400,-1.794811
0.675600,-1.810104
0.675800,-1.801183
0.676000,-1.810104
0.676200,-1.805006
0.676400,-1.803732
0.676600,-1.794811
0.676800,-1.807555
0.677000,-1.810104
0.677200,-1.792262
0.677400,-1.782067
0.677600,-1.768048
0.677800,-1.748932
0.678000,-1.741285
0.678200,-1.728541
0.678400,-1.714522
0.678600,-1.708150
0.678800,-1.699229
0.679000,-1.691582
0.679200,-1.704326
0.679400,-1.727266
0.679600,-1.743834
0.679800,-1.757853
0.680000,-1.756578
0.680200,-1.745108
0.680400,-1.750206
0.680600,-1.750206
0.680800,-1.740011
0.681000,-1.734913
0.681200,-1.733638
0.681400,-1.727266
0.681600,-1.718345
0.681800,-1.708150
0.682000,-1.682661
0.682200,-1.686484
0.682400,-1.682661
0.682600,-1.667368
0.682800,-1.652075
0.683000,-1.626586
0.683200,-1.606195
0.683400,-1.579432
0.683600,-1.570511
0.683800,-1.560316
0.684000,-1.566688
0.684200,-1.587079
0.684400,-1.608744
0.684600,-1.632958
0.684800,-1.657173
0.685000,-1.675015
0.685200,-1.673740
0.685400,-1.672466
0.685600,-1.673740
0.685800,-1.683936
0.686000,-1.672466
0.686200,-1.668642
0.686400,-1.671191
0.686600,-1.658447
0.686800,-1.658447
0.687000,-1.653349
0.687200,-1.653349
0.687400,-1.659721
0.687600,-1.663545
0.687800,-1.649526
0.688000,-1.646977
0.688200,-1.652075
0.688400,-1.641879
0.688600,-1.631684
0.688800,-1.620214
0.689000,-1.610019
0.689200,-1.612567
0.689400,-1.611293
0.689600,-1.611293
0.689800,-1.611293
0.690000,-1.617665
0.690200,-1.616391
0.690400,-1.629135
0.690600,-1.632958
0.690800,-1.643154
0.691000,-1.644428
0.691200,-1.649526
0.691400,-1.645703
0.691600,-1.645703
0.691800,-1.644428
0.692000,-1.646977
0.692200,-1.648252
0.692400,-1.657173
0.692600,-1.653349
0.692800,-1.648252
0.693000,-1.646977
0.693200,-1.652075
0.693400,-1.660996
0.693600,-1.667368
0.693800,-1.669917
0.694000,-1.683936
0.694200,-1.699229
0.694400,-1.706875
0.694600,-1.717071
0.694800,-1.719620
0.695000,-1.718345
0.695200,-1.718345
0.695400,-1.699229
0.695600,-1.677563
0.695800,-1.653349
0.696000,-1.652075
0.696200,-1.640605
0.696400,-1.635507
0.696600,-1.644428
0.696800,-1.638056
0.697000,-1.643154
0.697200,-1.632958
0.697400,-1.622763
0.697600,-1.626586
0.697800,-1.625312
0.698000,-1.617665
0.698200,-1.611293
0.698400,-1.598549
0.698600,-1.596000
0.698800,-1.587079
0.699000,-1.583256
0.699200,-1.580707
0.699400,-1.574335
0.699600,-1.573060
0.699800,-1.571786
0.700000,-1.581981
0.700200,-1.573060
0.700400,-1.580707
0.700600,-1.590902
0.700800,-1.588353
0.701000,-1.585804
0.701200,-1.565414
0.701400,-1.557767
0.701600,-1.555218
0.701800,-1.555218
0.702000,-1.551395
0.702200,-1.561590
0.702400,-1.556493
0.702600,-1.560316
0.702800,-1.561590
0.703000,-1.560316
0.703200,-1.559041
0.703400,-1.555218
0.703600,-1.552669
0.703800,-1.537376
0.704000,-1.532278
0.704200,-1.523357
0.704400,-1.516985
0.704600,-1.505515
0.704800,-1.496594
0.705000,-1.492771
0.705200,-1.499143
0.705400,-1.515711
0.705600,-1.520808
0.705800,-1.531004
0.706000,-1.557767
0.706200,-1.565414
0.706400,-1.565414
0.706600,-1.573060
0.706800,-1.575609
0.707000,-1.588353
0.707200,-1.579432
0.707400,-1.575609
0.707600,-1.565414
0.707800,-1.539925
0.708000,-1.508064
0.708200,-1.501692
0.708400,-1.508064
0.708600,-1.545023
0.708800,-1.580707
0.709000,-1.627861
0.709200,-1.667368
0.709400,-1.690308
0.709600,-1.704326
0.709800,-1.692857
0.710000,-1.680112
0.710200,-1.673740
0.710400,-1.664819
0.710600,-1.643154
0.710800,-1.624037
0.711000,-1.593451
0.711200,-1.565414
0.711400,-1.550120
0.711600,-1.539925
0.711800,-1.532278
0.712000,-1.533553
0.712200,-1.537376
0.712400,-1.560316
0.712600,-1.576883
0.712800,-1.588353
0.713000,-1.597274
0.713200,-1.603646
0.713400,-1.594725
0.713600,-1.596000
0.713800,-1.576883
0.714000,-1.561590
0.714200,-1.561590
0.714400,-1.584530
0.714600,-1.611293
0.714800,-1.655898
0.715000,-1.677563
0.715200,-1.694131
0.715400,-1.714522
0.715600,-1.709424
0.715800,-1.695405
0.716000,-1.690308
0.716200,-1.692857
0.716400,-1.700503
0.716600,-1.720894
0.716800,-1.745108
0.717000,-1.765499
0.717200,-1.784616
0.717400,-1.801183
0.717600,-1.799909
0.717800,-1.798634
0.718000,-1.792262
0.718200,-1.802458
0.718400,-1.799909
0.718600,-1.796085
0.718800,-1.789713
0.719000,-1.782067
0.719200,-1.768048
0.719400,-1.759127
0.719600,-1.747657
0.719800,-1.750206
0.720000,-1.745108
0.720200,-1.729815
0.720400,-1.711973
0.720600,-1.711973
0.720800,-1.724717
0.721000,-1.725992
0.721200,-1.728541
0.721400,-1.728541
0.721600,-1.715796
0.721800,-1.710699
0.722000,-1.708150
0.722200,-1.713247
0.722400,-1.706875
0.722600,-1.683936
0.722800,-1.672466
0.723000,-1.657173
0.723200,-1.650800
0.723400,-1.660996
0.723600,-1.683936
0.723800,-1.700503
0.724000,-1.722169
0.724200,-1.725992
0.724400,-1.724717
0.724600,-1.720894
0.724800,-1.710699
0.725000,-1.713247
0.725200,-1.692857
0.725400,-1.689033
0.725600,-1.668642
0.725800,-1.635507
0.726000,-1.615116
0.726200,-1.606195
0.726400,-1.606195
0.726600,-1.611293
0.726800,-1.617665
0.727000,-1.622763
0.727200,-1.607470
0.727400,-1.596000
0.727600,-1.583256
0.727800,-1.570511
0.728000,-1.553944
0.728200,-1.550120
0.728400,-1.546297
0.728600,-1.551395
0.728800,-1.555218
0.729000,-1.560316
0.729200,-1.565414
0.729400,-1.570511
0.729600,-1.567962
0.729800,-1.575609
0.730000,-1.579432
0.730200,-1.583256
0.730400,-1.578158
0.730600,-1.578158
0.730800,-1.576883
0.731000,-1.576883
0.731200,-1.578158
0.731400,-1.564139
0.731600,-1.543748
0.731800,-1.532278
0.732000,-1.509339
0.732200,-1.504241
0.732400,-1.515711
0.732600,-1.520808
0.732800,-1.520808
0.733000,-1.534827
0.733200,-1.536102
0.733400,-1.537376
0.733600,-1.529729
0.733800,-1.532278
0.734000,-1.538650
0.734200,-1.551395
0.734400,-1.580707
0.734600,-1.607470
0.734800,-1.616391
0.735000,-1.618940
0.735200,-1.601098
0.735400,-1.583256
0.735600,-1.578158
0.735800,-1.580707
0.736000,-1.584530
0.736200,-1.603646
0.736400,-1.604921
0.736600,-1.598549
0.736800,-1.602372
0.737000,-1.602372
0.737200,-1.603646
0.737400,-1.594725
0.737600,-1.590902
0.737800,-1.585804
0.738000,-1.598549
0.738200,-1.590902
0.738400,-1.597274
0.738600,-1.597274
0.738800,-1.611293
0.739000,-1.606195
0.739200,-1.607470
0.739400,-1.608744
0.739600,-1.622763
0.739800,-1.635507
0.740000,-1.629135
0.740200,-1.636782
0.740400,-1.627861
0.740600,-1.630410
0.740800,-1.626586
0.741000,-1.624037
0.741200,-1.622763
0.741400,-1.631684
0.741600,-1.638056
0.741800,-1.635507
0.742000,-1.636782
0.742200,-1.652075
0.742400,-1.666094
0.742600,-1.669917
0.742800,-1.662270
0.743000,-1.655898
0.743200,-1.643154
0.743400,-1.636782
0.743600,-1.629135
0.743800,-1.626586
0.744000,-1.648252
0.744200,-1.658447
0.744400,-1.672466
0.744600,-1.669917
0.744800,-1.668642
0.745000,-1.658447
0.745200,-1.646977
0.745400,-1.648252
0.745600,-1.641879
0.745800,-1.622763
0.746000,-1.612567
0.746200,-1.592177
0.746400,-1.593451
0.746600,-1.592177
0.746800,-1.611293
0.747000,-1.626586
0.747200,-1.635507
0.747400,-1.646977
0.747600,-1.652075
0.747800,-1.646977
0.748000,-1.646977
0.748200,-1.635507
0.748400,-1.630410
0.748600,-1.621488
0.748800,-1.625312
0.749000,-1.622763
0.749200,-1.627861
0.749400,-1.629135
0.749600,-1.635507
0.749800,-1.643154
0.750000,-1.635507
0.750200,-1.627861
0.750400,-1.621488
0.750600,-1.620214
0.750800,-1.616391
0.751000,-1.607470
0.751200,-1.610019
0.751400,-1.602372
0.751600,-1.588353
0.751800,-1.584530
0.752000,-1.575609
0.752200,-1.561590
0.752400,-1.550120
0.752600,-1.522083
0.752800,-1.501692
0.753000,-1.485124
0.753200,-1.486399
0.753400,-1.488948
0.753600,-1.506790
0.753800,-1.539925
0.754000,-1.566688
0.754200,-1.567962
0.754400,-1.581981
0.754600,-1.578158
0.754800,-1.570511
0.755000,-1.571786
0.755200,-1.579432
0.755400,-1.581981
0.755600,-1.585804
0.755800,-1.587079
0.756000,-1.587079
0.756200,-1.590902
0.756400,-1.585804
0.756600,-1.606195
0.756800,-1.622763
0.757000,-1.636782
0.757200,-1.646977
0.757400,-1.668642
0.757600,-1.668642
0.757800,-1.658447
0.758000,-1.657173
0.758200,-1.652075
0.758400,-1.663545
0.758600,-1.690308
0.758800,-1.710699
0.759000,-1.727266
0.759200,-1.755304
0.759400,-1.771871
0.759600,-1.784616
0.759800,-1.813928
0.760000,-1.833044
0.760200,-1.839416
0.760400,-1.822849
0.760600,-1.821574
0.760800,-1.812653
0.761000,-1.805006
0.761200,-1.801183
0.761400,-1.821574
0.761600,-1.822849
0.761800,-1.812653
0.762000,-1.797360
0.762200,-1.783341
0.762400,-1.774420
0.762600,-1.752755
0.762800,-1.743834
0.763000,-1.734913
0.763200,-1.736187
0.763400,-1.748932
0.763600,-1.760401
0.763800,-1.747657
0.764000,-1.748932
0.764200,-1.734913
0.764400,-1.711973
0.764600,-1.691582
0.764800,-1.655898
0.765000,-1.617665
0.765200,-1.581981
0.765400,-1.560316
0.765600,-1.542474
0.765800,-1.556493
0.766000,-1.565414
0.766200,-1.573060
0.766400,-1.573060
0.766600,-1.569237
0.766800,-1.567962
0.767000,-1.576883
0.767200,-1.580707
0.767400,-1.587079
0.767600,-1.604921
0.767800,-1.624037
0.768000,-1.634233
0.768200,-1.646977
0.768400,-1.640605
0.768600,-1.635507
0.768800,-1.639331
0.769000,-1.641879
0.769200,-1.639331
0.769400,-1.634233
0.769600,-1.636782
0.769800,-1.646977
0.770000,-1.662270
0.770200,-1.680112
0.770400,-1.677563
0.770600,-1.662270
0.770800,-1.640605
0.771000,-1.613842
0.771200,-1.602372
0.771400,-1.602372
0.771600,-1.597274
0.771800,-1.610019
0.772000,-1.625312
0.772200,-1.644428
0.772400,-1.666094
0.772600,-1.690308
0.772800,-1.711973
0.773000,-1.718345
0.773200,-1.719620
0.773400,-1.714522
0.773600,-1.697954
0.773800,-1.683936
0.774000,-1.662270
0.774200,-1.648252
0.774400,-1.634233
0.774600,-1.618940
0.774800,-1.616391
0.775000,-1.636782
0.775200,-1.652075
0.775400,-1.668642
0.775600,-1.703052
0.775800,-1.737462
0.776000,-1.769322
0.776200,-1.779518
0.776400,-1.775695
0.776600,-1.779518
0.776800,-1.774420
0.777000,-1.754029
0.777200,-1.727266
0.777400,-1.692857
0.777600,-1.663545
0.777800,-1.644428
0.778000,-1.618940
0.778200,-1.601098
0.778400,-1.587079
0.778600,-1.571786
0.778800,-1.575609
0.779000,-1.581981
0.779200,-1.581981
0.779400,-1.590902
0.779600,-1.598549
0.779800,-1.603646
0.780000,-1.606195
0.780200,-1.617665
0.780400,-1.616391
0.780600,-1.617665
0.780800,-1.616391
0.781000,-1.603646
0.781200,-1.583256
0.781400,-1.562865
0.781600,-1.537376
0.781800,-1.518260
0.782000,-1.518260
0.782200,-1.506790
0.782400,-1.504241
0.782600,-1.492771
0.782800,-1.491497
0.783000,-1.492771
0.783200,-1.483850
0.783400,-1.491497
0.783600,-1.487673
0.783800,-1.480027
0.784000,-1.476203
0.784200,-1.473655
0.784400,-1.482576
0.784600,-1.478752
0.784800,-1.463459
0.785000,-1.466008
0.785200,-1.462185
0.785400,-1.482576
0.785600,-1.488948
0.785800,-1.492771
0.786000,-1.483850
0.786200,-1.474929
0.786400,-1.481301
0.786600,-1.485124
0.786800,-1.492771
0.787000,-1.495320
0.787200,-1.514436
0.787400,-1.533553
0.787600,-1.546297
0.787800,-1.573060
0.788000,-1.611293
0.788200,-1.640605
0.788400,-1.659721
0.788600,-1.685210
0.788800,-1.700503
0.789000,-1.710699
0.789200,-1.720894
0.789400,-1.727266
0.789600,-1.717071
0.789800,-1.708150
0.790000,-1.692857
0.790200,-1.689033
0.790400,-1.683936
0.790600,-1.703052
0.790800,-1.734913
0.791000,-1.751480
0.791200,-1.757853
0.791400,-1.748932
0.791600,-1.729815
0.791800,-1.710699
0.792000,-1.690308
0.792200,-1.666094
0.792400,-1.654624
0.792600,-1.646977
0.792800,-1.626586
0.793000,-1.621488
0.793200,-1.618940
0.793400,-1.615116
0.793600,-1.608744
0.793800,-1.585804
0.794000,-1.578158
0.794200,-1.555218
0.794400,-1.555218
0.794600,-1.545023
0.794800,-1.528455
0.795000,-1.516985
0.795200,-1.502966
0.795400,-1.492771
0.795600,-1.474929
0.795800,-1.453264
0.796000,-1.436696
0.796200,-1.418854
0.796400,-1.401012
0.796600,-1.370426
0.796800,-1.358956
0.797000,-1.352584
0.797200,-1.351309
0.797400,-1.339839
0.797600,-1.337290
0.797800,-1.347486
0.798000,-1.355132
0.798200,-1.343663
0.798400,-1.343663
0.798600,-1.337290
0.798800,-1.336016
0.799000,-1.342388
0.799200,-1.364054
0.799400,-1.379347
0.799600,-1.411207
0.799800,-1.432873
0.800000,-1.462185
0.800200,-1.472380
0.800400,-1.478752
0.800600,-1.481301
0.800800,-1.464734
0.801000,-1.449440
0.801200,-1.450715
0.801400,-1.467282
0.801600,-1.499143
0.801800,-1.566688
0.802000,-1.632958
0.802200,-1.692857
0.802400,-1.742559
0.802600,-1.769322
0.802800,-1.766774
0.803000,-1.745108
0.803200,-1.711973
0.803400,-1.692857
0.803600,-1.683936
0.803800,-1.672466
0.804000,-1.664819
0.804200,-1.636782
0.804400,-1.617665
0.804600,-1.590902
0.804800,-1.589628
0.805000,-1.590902
0.805200,-1.592177
0.805400,-1.585804
0.805600,-1.585804
0.805800,-1.588353
0.806000,-1.596000
0.806200,-1.617665
0.806400,-1.630410
0.806600,-1.636782
0.806800,-1.641879
0.807000,-1.657173
0.807200,-1.696680
0.807400,-1.732364
0.807600,-1.760401
0.807800,-1.785890
0.808000,-1.830495
0.808200,-1.861081
0.808400,-1.880198
0.808600,-1.891668
0.808800,-1.891668
0.809000,-1.895491
0.809200,-1.895491
0.809400,-1.917156
0.809600,-1.924803
0.809800,-1.946468
0.810000,-1.968134
0.810200,-1.994897
0.810400,-2.012739
0.810600,-2.010190
0.810800,-2.030581
0.811000,-2.042051
0.811200,-2.084107
0.811400,-2.128712
0.811600,-2.178415
0.811800,-2.196257
0.812000,-2.226843
0.812200,-2.238313
0.812400,-2.251057
0.812600,-2.247234
0.812800,-2.225569
0.813000,-2.209001
0.813200,-2.180964
0.813400,-2.146554
0.813600,-2.118516
0.813800,-2.077735
0.814000,-2.040776
0.814200,-2.011464
0.814400,-1.978329
0.814600,-1.957938
0.814800,-1.946468
0.815000,-1.952840
0.815200,-1.964310
0.815400,-1.965585
0.815600,-1.969408
0.815800,-1.973231
0.816000,-1.969408
0.816200,-1.961761
0.816400,-1.937547
0.816600,-1.908235
0.816800,-1.867454
0.817000,-1.836867
0.817200,-1.805006
0.817400,-1.783341
0.817600,-1.769322
0.817800,-1.756578
0.818000,-1.760401
0.818200,-1.764225
0.818400,-1.789713
0.818600,-1.822849
0.818800,-1.840691
0.819000,-1.849612
0.819200,-1.843239
0.819400,-1.839416
0.819600,-1.840691
0.819800,-1.830495
0.820000,-1.826672
0.820200,-1.843239
0.820400,-1.850886
0.820600,-1.853435
0.820800,-1.850886
0.821000,-1.855984
0.821200,-1.850886
0.821400,-1.830495
0.821600,-1.801183
0.821800,-1.766774
0.822000,-1.733638
0.822200,-1.694131
0.822400,-1.680112
0.822600,-1.667368
0.822800,-1.652075
0.823000,-1.636782
0.823200,-1.643154
0.823400,-1.652075
0.823600,-1.664819
0.823800,-1.686484
0.824000,-1.708150
0.824200,-1.709424
0.824400,-1.706875
0.824600,-1.692857
0.824800,-1.690308
0.825000,-1.677563
0.825200,-1.683936
0.825400,-1.689033
0.825600,-1.678838
0.825800,-1.692857
0.826000,-1.696680
0.826200,-1.687759
0.826400,-1.677563
0.826600,-1.673740
0.826800,-1.671191
0.827000,-1.660996
0.827200,-1.653349
0.827400,-1.643154
0.827600,-1.622763
0.827800,-1.596000
0.828000,-1.566688
0.828200,-1.528455
0.828400,-1.499143
0.828600,-1.495320
0.828800,-1.488948
0.829000,-1.509339
0.829200,-1.524632
0.829400,-1.551395
0.829600,-1.578158
0.829800,-1.598549
0.830000,-1.606195
0.830200,-1.616391
0.830400,-1.611293
0.830600,-1.584530
0.830800,-1.570511
0.831000,-1.550120
0.831200,-1.542474
0.831400,-1.546297
0.831600,-1.545023
0.831800,-1.538650
0.832000,-1.547572
0.832200,-1.541199
0.832400,-1.533553
0.832600,-1.536102
0.832800,-1.542474
0.833000,-1.533553
0.833200,-1.538650
0.833400,-1.542474
0.833600,-1.551395
0.833800,-1.546297
0.834000,-1.557767
0.834200,-1.556493
0.834400,-1.555218
0.834600,-1.547572
0.834800,-1.539925
0.835000,-1.532278
0.835200,-1.519534
0.835400,-1.500418
0.835600,-1.473655
0.835800,-1.451989
0.836000,-1.445617
0.836200,-1.453264
0.836400,-1.469831
0.836600,-1.487673
0.836800,-1.516985
0.837000,-1.541199
0.837200,-1.564139
0.837400,-1.573060
0.837600,-1.573060
0.837800,-1.555218
0.838000,-1.555218
0.838200,-1.551395
0.838400,-1.561590
0.838600,-1.556493
0.838800,-1.550120
0.839000,-1.548846
0.839200,-1.548846
0.839400,-1.548846
0.839600,-1.546297
0.839800,-1.569237
0.840000,-1.575609
0.840200,-1.584530
0.840400,-1.593451
0.840600,-1.604921
0.840800,-1.615116
0.841000,-1.621488
0.841200,-1.611293
0.841400,-1.604921
0.841600,-1.598549
0.841800,-1.585804
0.842000,-1.580707
0.842200,-1.579432
0.842400,-1.580707
0.842600,-1.564139
0.842800,-1.564139
0.843000,-1.562865
0.843200,-1.551395
0.843400,-1.556493
0.843600,-1.550120
0.843800,-1.555218
0.844000,-1.557767
0.844200,-1.566688
0.844400,-1.565414
0.844600,-1.570511
0.844800,-1.579432
0.845000,-1.578158
0.845200,-1.576883
0.845400,-1.578158
0.845600,-1.581981
0.845800,-1.570511
0.846000,-1.564139
0.846200,-1.556493
0.846400,-1.555218
0.846600,-1.547572
0.846800,-1.527181
0.847000,-1.520808
0.847200,-1.520808
0.847400,-1.525906
0.847600,-1.525906
0.847800,-1.532278
0.848000,-1.531004
0.848200,-1.529729
0.848400,-1.536102
0.848600,-1.523357
0.848800,-1.518260
0.849000,-1.506790
0.849200,-1.506790
0.849400,-1.497869
0.849600,-1.499143
0.849800,-1.488948
0.850000,-1.487673
0.850200,-1.480027
0.850400,-1.486399
0.850600,-1.495320
0.850800,-1.499143
0.851000,-1.514436
0.851200,-1.525906
0.851400,-1.532278
0.851600,-1.537376
0.851800,-1.528455
0.852000,-1.527181
0.852200,-1.532278
0.852400,-1.529729
0.852600,-1.541199
0.852800,-1.539925
0.853000,-1.552669
0.853200,-1.561590
0.853400,-1.566688
0.853600,-1.570511
0.853800,-1.574335
0.854000,-1.584530
0.854200,-1.587079
0.854400,-1.585804
0.854600,-1.598549
0.854800,-1.602372
0.855000,-1.607470
0.855200,-1.613842
0.855400,-1.624037
0.855600,-1.621488
0.855800,-1.626586
0.856000,-1.631684
0.856200,-1.635507
0.856400,-1.646977
0.856600,-1.652075
0.856800,-1.658447
0.857000,-1.673740
0.857200,-1.680112
0.857400,-1.689033
0.857600,-1.676289
0.857800,-1.669917
0.858000,-1.668642
0.858200,-1.676289
0.858400,-1.696680
0.858600,-1.708150
0.858800,-1.703052
0.859000,-1.692857
0.859200,-1.672466
0.859400,-1.649526
0.859600,-1.655898
0.859800,-1.645703
0.860000,-1.627861
0.860200,-1.615116
0.860400,-1.590902
0.860600,-1.567962
0.860800,-1.536102
0.861000,-1.516985
0.861200,-1.510613
0.861400,-1.514436
0.861600,-1.518260
0.861800,-1.523357
0.862000,-1.537376
0.862200,-1.539925
0.862400,-1.545023
0.862600,-1.545023
0.862800,-1.545023
0.863000,-1.536102
0.863200,-1.536102
0.863400,-1.532278
0.863600,-1.529729
0.863800,-1.529729
0.864000,-1.523357
0.864200,-1.519534
0.864400,-1.531004
0.864600,-1.536102
0.864800,-1.545023
0.865000,-1.553944
0.865200,-1.564139
0.865400,-1.566688
0.865600,-1.566688
0.865800,-1.556493
0.866000,-1.570511
0.866200,-1.560316
0.866400,-1.551395
0.866600,-1.551395
0.866800,-1.550120
0.867000,-1.541199
0.867200,-1.534827
0.867400,-1.524632
0.867600,-1.524632
0.867800,-1.506790
0.868000,-1.504241
0.868200,-1.501692
0.868400,-1.506790
0.868600,-1.514436
0.868800,-1.514436
0.869000,-1.519534
0.869200,-1.524632
0.869400,-1.525906
0.869600,-1.556493
0.869800,-1.566688
0.870000,-1.574335
0.870200,-1.590902
0.870400,-1.594725
0.870600,-1.602372
0.870800,-1.607470
0.871000,-1.617665
0.871200,-1.622763
0.871400,-1.611293
0.871600,-1.590902
0.871800,-1.570511
0.872000,-1.541199
0.872200,-1.519534
0.872400,-1.509339
0.872600,-1.519534
0.872800,-1.529729
0.873000,-1.536102
0.873200,-1.523357
0.873400,-1.529729
0.873600,-1.524632
0.873800,-1.527181
0.874000,-1.541199
0.874200,-1.555218
0.874400,-1.587079
0.874600,-1.625312
0.874800,-1.648252
0.875000,-1.655898
0.875200,-1.649526
0.875400,-1.640605
0.875600,-1.644428
0.875800,-1.639331
0.876000,-1.632958
0.876200,-1.624037
0.876400,-1.624037
0.876600,-1.606195
0.876800,-1.581981
0.877000,-1.559041
0.877200,-1.541199
0.877400,-1.539925
0.877600,-1.545023
0.877800,-1.555218
0.878000,-1.567962
0.878200,-1.576883
0.878400,-1.581981
0.878600,-1.565414
0.878800,-1.546297
0.879000,-1.528455
0.879200,-1.514436
0.879400,-1.506790
0.879600,-1.513162
0.879800,-1.537376
0.880000,-1.546297
0.880200,-1.567962
0.880400,-1.562865
0.880600,-1.545023
0.880800,-1.529729
0.881000,-1.510613
0.881200,-1.490222
0.881400,-1.476203
0.881600,-1.464734
0.881800,-1.462185
0.882000,-1.463459
0.882200,-1.454538
0.882400,-1.448166
0.882600,-1.444343
0.882800,-1.446891
0.883000,-1.439245
0.883200,-1.429049
0.883400,-1.427775
0.883600,-1.439245
0.883800,-1.448166
0.884000,-1.462185
0.884200,-1.476203
0.884400,-1.505515
0.884600,-1.529729
0.884800,-1.543748
0.885000,-1.557767
0.885200,-1.566688
0.885400,-1.574335
0.885600,-1.575609
0.885800,-1.579432
0.886000,-1.580707
0.886200,-1.588353
0.886400,-1.570511
0.886600,-1.548846
0.886800,-1.520808
0.887000,-1.495320
0.887200,-1.495320
0.887400,-1.509339
0.887600,-1.539925
0.887800,-1.565414
0.888000,-1.607470
0.888200,-1.636782
0.888400,-1.657173
0.888600,-1.667368
0.888800,-1.677563
0.889000,-1.675015
0.889200,-1.659721
0.889400,-1.646977
0.889600,-1.622763
0.889800,-1.607470
0.890000,-1.604921
0.890200,-1.597274
0.890400,-1.596000
0.890600,-1.583256
0.890800,-1.584530
0.891000,-1.581981
0.891200,-1.596000
0.891400,-1.616391
0.891600,-1.631684
0.891800,-1.643154
0.892000,-1.662270
0.892200,-1.683936
0.892400,-1.699229
0.892600,-1.711973
0.892800,-1.722169
0.893000,-1.710699
0.893200,-1.701778
0.893400,-1.690308
0.893600,-1.678838
0.893800,-1.669917
0.894000,-1.667368
0.894200,-1.672466
0.894400,-1.667368
0.894600,-1.663545
0.894800,-1.667368
0.895000,-1.666094
0.895200,-1.649526
0.895400,-1.646977
0.895600,-1.626586
0.895800,-1.608744
0.896000,-1.601098
0.896200,-1.606195
0.896400,-1.626586
0.896600,-1.629135
0.896800,-1.638056
0.897000,-1.654624
0.897200,-1.672466
0.897400,-1.681387
0.897600,-1.700503
0.897800,-1.700503
0.898000,-1.708150
0.898200,-1.719620
0.898400,-1.725992
0.898600,-1.731090
0.898800,-1.729815
0.899000,-1.715796
0.899200,-1.717071
0.899400,-1.708150
0.899600,-1.719620
0.899800,-1.727266
0.900000,-1.728541
0.900200,-1.748932
0.900400,-1.754029
0.900600,-1.759127
0.900800,-1.745108
0.901000,-1.734913
0.901200,-1.720894
0.901400,-1.697954
0.901600,-1.672466
0.901800,-1.634233
0.902000,-1.592177
0.902200,-1.565414
0.902400,-1.561590
0.902600,-1.564139
0.902800,-1.573060
0.903000,-1.610019
0.903200,-1.645703
0.903400,-1.676289
0.903600,-1.711973
0.903800,-1.750206
0.904000,-1.748932
0.904200,-1.751480
0.904400,-1.762950
0.904600,-1.759127
0.904800,-1.751480
0.905000,-1.745108
0.905200,-1.732364
0.905400,-1.704326
0.905600,-1.678838
0.905800,-1.654624
0.906000,-1.652075
0.906200,-1.648252
0.906400,-1.646977
0.906600,-1.646977
0.906800,-1.653349
0.907000,-1.649526
0.907200,-1.650800
0.907400,-1.646977
0.907600,-1.621488
0.907800,-1.608744
0.908000,-1.587079
0.908200,-1.555218
0.908400,-1.529729
0.908600,-1.520808
0.908800,-1.523357
0.909000,-1.537376
0.909200,-1.552669
0.909400,-1.560316
0.909600,-1.570511
0.909800,-1.574335
0.910000,-1.578158
0.910200,-1.573060
0.910400,-1.566688
0.910600,-1.562865
0.910800,-1.552669
0.911000,-1.534827
0.911200,-1.527181
0.911400,-1.524632
0.911600,-1.514436
0.911800,-1.514436
0.912000,-1.501692
0.912200,-1.523357
0.912400,-1.546297
0.912600,-1.555218
0.912800,-1.567962
0.913000,-1.564139
0.913200,-1.551395
0.913400,-1.529729
0.913600,-1.506790
0.913800,-1.504241
0.914000,-1.501692
0.914200,-1.508064
0.914400,-1.520808
0.914600,-1.522083
0.914800,-1.537376
0.915000,-1.537376
0.915200,-1.518260
0.915400,-1.491497
0.915600,-1.449440
0.915800,-1.411207
0.916000,-1.380621
0.916200,-1.343663
0.916400,-1.347486
0.916600,-1.362779
0.916800,-1.401012
0.917000,-1.458361
0.917200,-1.513162
0.917400,-1.562865
0.917600,-1.587079
0.917800,-1.598549
0.918000,-1.601098
0.918200,-1.596000
0.918400,-1.579432
0.918600,-1.555218
0.918800,-1.533553
0.919000,-1.511887
0.919200,-1.500418
0.919400,-1.492771
0.919600,-1.502966
0.919800,-1.529729
0.920000,-1.555218
0.920200,-1.580707
0.920400,-1.622763
0.920600,-1.668642
0.920800,-1.718345
0.921000,-1.750206
0.921200,-1.780792
0.921400,-1.799909
0.921600,-1.815202
0.921800,-1.810104
0.922000,-1.788439
0.922200,-1.770597
0.922400,-1.729815
0.922600,-1.700503
0.922800,-1.689033
0.923000,-1.673740
0.923200,-1.669917
0.923400,-1.680112
0.923600,-1.681387
0.923800,-1.675015
0.924000,-1.680112
0.924200,-1.677563
0.924400,-1.686484
0.924600,-1.699229
0.924800,-1.692857
0.925000,-1.704326
0.925200,-1.705601
0.925400,-1.689033
0.925600,-1.662270
0.925800,-1.626586
0.926000,-1.601098
0.926200,-1.592177
0.926400,-1.590902
0.926600,-1.612567
0.926800,-1.632958
0.927000,-1.652075
0.927200,-1.685210
0.927400,-1.727266
0.927600,-1.756578
0.927800,-1.782067
0.928000,-1.799909
0.928200,-1.815202
0.928400,-1.838142
0.928600,-1.857258
0.928800,-1.890393
0.929000,-1.924803
0.929200,-1.965585
0.929400,-1.973231
0.929600,-1.982152
0.929800,-1.978329
0.930000,-1.975780
0.930200,-1.969408
0.930400,-1.968134
0.930600,-1.950292
0.930800,-1.933724
0.931000,-1.918431
0.931200,-1.931175
0.931400,-1.917156
0.931600,-1.905687
0.931800,-1.910784
0.932000,-1.878923
0.932200,-1.870002
0.932400,-1.853435
0.932600,-1.847063
0.932800,-1.836867
0.933000,-1.831770
0.933200,-1.825397
0.933400,-1.826672
0.933600,-1.816476
0.933800,-1.801183
0.934000,-1.805006
0.934200,-1.801183
0.934400,-1.805006
0.934600,-1.799909
0.934800,-1.775695
0.935000,-1.756578
0.935200,-1.729815
0.935400,-1.700503
0.935600,-1.669917
0.935800,-1.653349
0.936000,-1.640605
0.936200,-1.631684
0.936400,-1.639331
0.936600,-1.649526
0.936800,-1.655898
0.937000,-1.658447
0.937200,-1.667368
0.937400,-1.655898
0.937600,-1.641879
0.937800,-1.639331
0.938000,-1.652075
0.938200,-1.662270
0.938400,-1.678838
0.938600,-1.704326
0.938800,-1.725992
0.939000,-1.748932
0.939200,-1.761676
0.939400,-1.760401
0.939600,-1.769322
0.939800,-1.761676
0.940000,-1.754029
0.940200,-1.743834
0.940400,-1.751480
0.940600,-1.750206
0.940800,-1.754029
0.941000,-1.760401
0.941200,-1.748932
0.941400,-1.733638
0.941600,-1.711973
0.941800,-1.713247
0.942000,-1.727266
0.942200,-1.743834
0.942400,-1.751480
0.942600,-1.751480
0.942800,-1.748932
0.943000,-1.745108
0.943200,-1.733638
0.943400,-1.724717
0.943600,-1.718345
0.943800,-1.710699
0.944000,-1.682661
0.944200,-1.667368
0.944400,-1.662270
0.944600,-1.649526
0.944800,-1.645703
0.945000,-1.640605
0.945200,-1.630410
0.945400,-1.617665
0.945600,-1.610019
0.945800,-1.610019
0.946000,-1.599823
0.946200,-1.596000
0.946400,-1.599823
0.946600,-1.622763
0.946800,-1.631684
0.947000,-1.641879
0.947200,-1.638056
0.947400,-1.641879
0.947600,-1.617665
0.947800,-1.597274
0.948000,-1.588353
0.948200,-1.590902
0.948400,-1.585804
0.948600,-1.580707
0.948800,-1.585804
0.949000,-1.588353
0.949200,-1.590902
0.949400,-1.590902
0.949600,-1.588353
0.949800,-1.581981
0.950000,-1.580707
0.950200,-1.592177
0.950400,-1.602372
0.950600,-1.621488
0.950800,-1.634233
0.951000,-1.649526
0.951200,-1.649526
0.951400,-1.646977
0.951600,-1.644428
0.951800,-1.617665
0.952000,-1.610019
0.952200,-1.612567
0.952400,-1.613842
0.952600,-1.612567
0.952800,-1.613842
0.953000,-1.615116
0.953200,-1.636782
0.953400,-1.653349
0.953600,-1.667368
0.953800,-1.658447
0.954000,-1.664819
0.954200,-1.655898
0.954400,-1.645703
0.954600,-1.627861
0.954800,-1.612567
0.955000,-1.593451
0.955200,-1.588353
0.955400,-1.588353
0.955600,-1.576883
0.955800,-1.584530
0.956000,-1.588353
0.956200,-1.592177
0.956400,-1.607470
0.956600,-1.622763
0.956800,-1.638056
0.957000,-1.649526
0.957200,-1.667368
0.957400,-1.675015
0.957600,-1.668642
0.957800,-1.663545
0.958000,-1.652075
0.958200,-1.655898
0.958400,-1.652075
0.958600,-1.660996
0.958800,-1.667368
0.959000,-1.675015
0.959200,-1.687759
0.959400,-1.683936
0.959600,-1.687759
0.959800,-1.697954
0.960000,-1.695405
0.960200,-1.689033
0.960400,-1.678838
0.960600,-1.678838
0.960800,-1.678838
0.961000,-1.672466
0.961200,-1.668642
0.961400,-1.653349
0.961600,-1.645703
0.961800,-1.635507
0.962000,-1.622763
0.962200,-1.604921
0.962400,-1.597274
0.962600,-1.581981
0.962800,-1.578158
0.963000,-1.573060
0.963200,-1.567962
0.963400,-1.575609
0.963600,-1.578158
0.963800,-1.581981
0.964000,-1.583256
0.964200,-1.581981
0.964400,-1.581981
0.964600,-1.593451
0.964800,-1.598549
0.965000,-1.601098
0.965200,-1.607470
0.965400,-1.621488
0.965600,-1.640605
0.965800,-1.652075
0.966000,-1.654624
0.966200,-1.657173
0.966400,-1.662270
0.966600,-1.640605
0.966800,-1.626586
0.967000,-1.615116
0.967200,-1.612567
0.967400,-1.617665
0.967600,-1.634233
0.967800,-1.645703
0.968000,-1.667368
0.968200,-1.683936
0.968400,-1.701778
0.968600,-1.710699
0.968800,-1.722169
0.969000,-1.729815
0.969200,-1.728541
0.969400,-1.727266
0.969600,-1.731090
0.969800,-1.722169
0.970000,-1.713247
0.970200,-1.713247
0.970400,-1.710699
0.970600,-1.696680
0.970800,-1.682661
0.971000,-1.666094
0.971200,-1.659721
0.971400,-1.649526
0.971600,-1.648252
0.971800,-1.658447
0.972000,-1.657173
0.972200,-1.657173
0.972400,-1.666094
0.972600,-1.672466
0.972800,-1.673740
0.973000,-1.677563
0.973200,-1.696680
0.973400,-1.699229
0.973600,-1.686484
0.973800,-1.663545
0.974000,-1.631684
0.974200,-1.625312
0.974400,-1.624037
0.974600,-1.615116
0.974800,-1.616391
0.975000,-1.603646
0.975200,-1.578158
0.975400,-1.557767
0.975600,-1.545023
0.975800,-1.541199
0.976000,-1.536102
0.976200,-1.539925
0.976400,-1.536102
0.976600,-1.524632
0.976800,-1.515711
0.977000,-1.514436
0.977200,-1.522083
0.977400,-1.541199
0.977600,-1.541199
0.977800,-1.543748
0.978000,-1.534827
0.978200,-1.539925
0.978400,-1.539925
0.978600,-1.531004
0.978800,-1.513162
0.979000,-1.515711
0.979200,-1.500418
0.979400,-1.488948
0.979600,-1.473655
0.979800,-1.468557
0.980000,-1.480027
0.980200,-1.474929
0.980400,-1.458361
0.980600,-1.445617
0.980800,-1.435422
0.981000,-1.432873
0.981200,-1.427775
0.981400,-1.422677
0.981600,-1.429049
0.981800,-1.417580
0.982000,-1.407384
0.982200,-1.393365
0.982400,-1.388268
0.982600,-1.376798
0.982800,-1.376798
0.983000,-1.371700
0.983200,-1.376798
0.983400,-1.378072
0.983600,-1.381896
0.983800,-1.364054
0.984000,-1.357681
0.984200,-1.339839
0.984400,-1.333467
0.984600,-1.341114
0.984800,-1.347486
0.985000,-1.371700
0.985200,-1.386993
0.985400,-1.398463
0.985600,-1.415031
0.985800,-1.437970
0.986000,-1.462185
0.986200,-1.478752
0.986400,-1.497869
0.986600,-1.515711
0.986800,-1.539925
0.987000,-1.555218
0.987200,-1.587079
0.987400,-1.604921
0.987600,-1.620214
0.987800,-1.625312
0.988000,-1.638056
0.988200,-1.652075
0.988400,-1.653349
0.988600,-1.639331
0.988800,-1.621488
0.989000,-1.613842
0.989200,-1.606195
0.989400,-1.599823
0.989600,-1.603646
0.989800,-1.622763
0.990000,-1.638056
0.990200,-1.644428
0.990400,-1.636782
0.990600,-1.618940
0.990800,-1.593451
0.991000,-1.546297
0.991200,-1.500418
0.991400,-1.449440
0.991600,-1.421403
0.991800,-1.398463
0.992000,-1.361505
0.992200,-1.338565
0.992400,-1.323272
0.992600,-1.305430
0.992800,-1.295234
0.993000,-1.281216
0.993200,-1.279941
0.993400,-1.310527
0.993600,-1.328369
0.993800,-1.347486
0.994000,-1.362779
0.994200,-1.339839
0.994400,-1.321997
0.994600,-1.310527
0.994800,-1.292685
0.995000,-1.286313
0.995200,-1.281216
0.995400,-1.279941
0.995600,-1.285039
0.995800,-1.290137
0.996000,-1.292685
0.996200,-1.315625
0.996400,-1.323272
0.996600,-1.339839
0.996800,-1.339839
0.997000,-1.353858
0.997200,-1.366602
0.997400,-1.371700
0.997600,-1.383170
0.997800,-1.402286
0.998000,-1.425226
0.998200,-1.439245
0.998400,-1.471106
0.998600,-1.509339
0.998800,-1.566688
0.999000,-1.636782
0.999200,-1.711973
0.999400,-1.790988
0.999600,-1.867454
0.999800,-1.956664
1.000000,-2.063716
1.000200,-2.150377
1.000400,-2.237038
1.000600,-2.300760
1.000800,-2.363207
1.001000,-2.401440
1.001200,-2.421831
1.001400,-2.419282
1.001600,-2.401440
1.001800,-2.360658
1.002000,-2.327523
1.002200,-2.284192
1.002400,-2.230666
1.002600,-2.173317
1.002800,-2.107047
1.003000,-2.045874
1.003200,-2.003818
1.003400,-1.966859
1.003600,-1.928626
1.003800,-1.892942
1.004000,-1.857258
1.004200,-1.835593
1.004400,-1.810104
1.004600,-1.789713
1.004800,-1.780792
1.005000,-1.787164
1.005200,-1.798634
1.005400,-1.796085
1.005600,-1.805006
1.005800,-1.811379
1.006000,-1.830495
1.006200,-1.834318
1.006400,-1.835593
1.006600,-1.830495
1.006800,-1.815202
1.007000,-1.806281
1.007200,-1.789713
1.007400,-1.775695
1.007600,-1.759127
1.007800,-1.761676
1.008000,-1.761676
1.008200,-1.768048
1.008400,-1.771871
1.008600,-1.764225
1.008800,-1.751480
1.009000,-1.738736
1.009200,-1.725992
1.009400,-1.733638
1.009600,-1.728541
1.009800,-1.757853
1.010000,-1.792262
1.010200,-1.826672
1.010400,-1.863630
1.010600,-1.908235
1.010800,-1.940096
1.011000,-1.974506
1.011200,-1.988525
1.011400,-1.996171
1.011600,-1.965585
1.011800,-1.937547
1.012000,-1.908235
1.012200,-1.881472
1.012400,-1.868728
1.012600,-1.835593
1.012800,-1.808830
1.013000,-1.778243
1.013200,-1.729815
1.013400,-1.689033
1.013600,-1.645703
1.013800,-1.598549
1.014000,-1.542474
1.014200,-1.500418
1.014400,-1.444343
1.014600,-1.383170
1.014800,-1.318174
1.015000,-1.268471
1.015200,-1.235336
1.015400,-1.214945
1.015600,-1.206024
1.015800,-1.199652
1.016000,-1.212396
1.016200,-1.214945
1.016400,-1.221317
1.016600,-1.241708
1.016800,-1.249355
1.017000,-1.287588
1.017200,-1.307979
1.017400,-1.325821
1.017600,-1.323272
1.017800,-1.332193
1.018000,-1.337290
1.018200,-1.330918
1.018400,-1.357681
1.018600,-1.378072
1.018800,-1.390817
1.019000,-1.408659
1.019200,-1.421403
1.019400,-1.431598
1.019600,-1.431598
1.019800,-1.448166
1.020000,-1.462185
1.020200,-1.478752
1.020400,-1.529729
1.020600,-1.556493
1.020800,-1.584530
1.021000,-1.611293
1.021200,-1.652075
1.021400,-1.700503
1.021600,-1.771871
1.021800,-1.843239
1.022000,-1.903138
1.022200,-1.963036
1.022400,-2.021660
1.022600,-2.049697
1.022800,-2.044599
1.023000,-2.047148
1.023200,-2.049697
1.023400,-2.079009
1.023600,-2.112144
1.023800,-2.152926
1.024000,-2.177140
1.024200,-2.200080
1.024400,-2.196257
1.024600,-2.165670
1.024800,-2.123614
1.025000,-2.075186
1.025200,-2.035678
1.025400,-1.996171
1.025600,-1.955389
1.025800,-1.914608
1.026000,-1.887844
1.026200,-1.855984
1.026400,-1.839416
1.026600,-1.821574
1.026800,-1.821574
1.027000,-1.830495
1.027200,-1.838142
1.027400,-1.861081
1.027600,-1.877649
1.027800,-1.903138
1.028000,-1.924803
1.028200,-1.928626
1.028400,-1.940096
1.028600,-1.942645
1.028800,-1.920980
1.029000,-1.903138
1.029200,-1.885296
1.029400,-1.873826
1.029600,-1.871277
1.029800,-1.881472
1.030000,-1.878923
1.030200,-1.877649
1.030400,-1.872551
1.030600,-1.861081
1.030800,-1.855984
1.031000,-1.836867
1.031200,-1.831770
1.031400,-1.821574
1.031600,-1.805006
1.031800,-1.799909
1.032000,-1.788439
1.032200,-1.788439
1.032400,-1.771871
1.032600,-1.751480
1.032800,-1.746383
1.033000,-1.741285
1.033200,-1.723443
1.033400,-1.704326
1.033600,-1.690308
1.033800,-1.669917
1.034000,-1.672466
1.034200,-1.677563
1.034400,-1.686484
1.034600,-1.701778
1.034800,-1.714522
1.035000,-1.714522
1.035200,-1.717071
1.035400,-1.699229
1.035600,-1.671191
1.035800,-1.627861
1.036000,-1.612567
1.036200,-1.596000
1.036400,-1.578158
1.036600,-1.545023
1.036800,-1.532278
1.037000,-1.522083
1.037200,-1.509339
1.037400,-1.496594
1.037600,-1.492771
1.037800,-1.483850
1.038000,-1.472380
1.038200,-1.462185
1.038400,-1.458361
1.038600,-1.459636
1.038800,-1.455813
1.039000,-1.444343
1.039200,-1.427775
1.039400,-1.425226
1.039600,-1.422677
1.039800,-1.415031
1.040000,-1.417580
1.040200,-1.427775
1.040400,-1.450715
1.040600,-1.472380
1.040800,-1.497869
1.041000,-1.509339
1.041200,-1.518260
1.041400,-1.520808
1.041600,-1.531004
1.041800,-1.541199
1.042000,-1.541199
1.042200,-1.534827
1.042400,-1.537376
1.042600,-1.536102
1.042800,-1.534827
1.043000,-1.520808
1.043200,-1.525906
1.043400,-1.529729
1.043600,-1.552669
1.043800,-1.579432
1.044000,-1.613842
1.044200,-1.631684
1.044400,-1.658447
1.044600,-1.685210
1.044800,-1.718345
1.045000,-1.740011
1.045200,-1.742559
1.045400,-1.745108
1.045600,-1.748932
1.045800,-1.738736
1.046000,-1.727266
1.046200,-1.710699
1.046400,-1.701778
1.046600,-1.671191
1.046800,-1.632958
1.047000,-1.615116
1.047200,-1.581981
1.047400,-1.556493
1.047600,-1.534827
1.047800,-1.523357
1.048000,-1.518260
1.048200,-1.513162
1.048400,-1.515711
1.048600,-1.504241
1.048800,-1.519534
1.049000,-1.520808
1.049200,-1.547572
1.049400,-1.547572
1.049600,-1.547572
1.049800,-1.542474
1.050000,-1.529729
1.050200,-1.522083
1.050400,-1.523357
1.050600,-1.523357
1.050800,-1.520808
1.051000,-1.525906
1.051200,-1.524632
1.051400,-1.529729
1.051600,-1.538650
1.051800,-1.550120
1.052000,-1.545023
1.052200,-1.557767
1.052400,-1.564139
1.052600,-1.564139
1.052800,-1.553944
1.053000,-1.550120
1.053200,-1.553944
1.053400,-1.560316
1.053600,-1.587079
1.053800,-1.588353
1.054000,-1.606195
1.054200,-1.618940
1.054400,-1.621488
1.054600,-1.631684
1.054800,-1.624037
1.055000,-1.610019
1.055200,-1.608744
1.055400,-1.625312
1.055600,-1.643154
1.055800,-1.668642
1.056000,-1.687759
1.056200,-1.695405
1.056400,-1.692857
1.056600,-1.696680
1.056800,-1.686484
1.057000,-1.690308
1.057200,-1.692857
1.057400,-1.681387
1.057600,-1.663545
1.057800,-1.655898
1.058000,-1.655898
1.058200,-1.644428
1.058400,-1.632958
1.058600,-1.643154
1.058800,-1.636782
1.059000,-1.626586
1.059200,-1.598549
1.059400,-1.590902
1.059600,-1.576883
1.059800,-1.584530
1.060000,-1.589628
1.060200,-1.611293
1.060400,-1.626586
1.060600,-1.635507
1.060800,-1.641879
1.061000,-1.650800
1.061200,-1.649526
1.061400,-1.631684
1.061600,-1.617665
1.061800,-1.607470
1.062000,-1.592177
1.062200,-1.580707
1.062400,-1.561590
1.062600,-1.534827
1.062800,-1.515711
1.063000,-1.496594
1.063200,-1.482576
1.063400,-1.485124
1.063600,-1.467282
1.063800,-1.459636
1.064000,-1.451989
1.064200,-1.439245
1.064400,-1.425226
1.064600,-1.415031
1.064800,-1.403561
1.065000,-1.393365
1.065200,-1.384444
1.065400,-1.374249
1.065600,-1.365328
1.065800,-1.376798
1.066000,-1.369151
1.066200,-1.381896
1.066400,-1.383170
1.066600,-1.395914
1.066800,-1.409933
1.067000,-1.415031
1.067200,-1.418854
1.067400,-1.432873
1.067600,-1.450715
1.067800,-1.462185
1.068000,-1.476203
1.068200,-1.488948
1.068400,-1.495320
1.068600,-1.491497
1.068800,-1.483850
1.069000,-1.466008
1.069200,-1.459636
1.069400,-1.448166
1.069600,-1.455813
1.069800,-1.455813
1.070000,-1.459636
1.070200,-1.448166
1.070400,-1.443068
1.070600,-1.429049
1.070800,-1.432873
1.071000,-1.441794
1.071200,-1.435422
1.071400,-1.443068
1.071600,-1.439245
1.071800,-1.448166
1.072000,-1.467282
1.072200,-1.481301
1.072400,-1.492771
1.072600,-1.523357
1.072800,-1.555218
1.073000,-1.570511
1.073200,-1.581981
1.073400,-1.587079
1.073600,-1.585804
1.073800,-1.565414
1.074000,-1.555218
1.074200,-1.562865
1.074400,-1.539925
1.074600,-1.525906
1.074800,-1.500418
1.075000,-1.472380
1.075200,-1.448166
1.075400,-1.439245
1.075600,-1.432873
1.075800,-1.422677
1.076000,-1.403561
1.076200,-1.393365
1.076400,-1.383170
1.076600,-1.378072
1.076800,-1.371700
1.077000,-1.386993
1.077200,-1.398463
1.077400,-1.417580
1.077600,-1.448166
1.077800,-1.473655
1.078000,-1.511887
1.078200,-1.561590
1.078400,-1.608744
1.078600,-1.639331
1.078800,-1.664819
1.079000,-1.682661
1.079200,-1.699229
1.079400,-1.696680
1.079600,-1.700503
1.079800,-1.689033
1.080000,-1.680112
1.080200,-1.680112
1.080400,-1.697954
1.080600,-1.718345
1.080800,-1.759127
1.081000,-1.802458
1.081200,-1.822849
1.081400,-1.871277
1.081600,-1.918431
1.081800,-1.957938
1.082000,-1.973231
1.082200,-2.003818
1.082400,-2.042051
1.082600,-2.049697
1.082800,-2.043325
1.083000,-2.028032
1.083200,-2.008915
1.083400,-1.974506
1.083600,-1.934998
1.083800,-1.884021
1.084000,-1.819025
1.084200,-1.759127
1.084400,-1.709424
1.084600,-1.662270
1.084800,-1.634233
1.085000,-1.617665
1.085200,-1.607470
1.085400,-1.602372
1.085600,-1.602372
1.085800,-1.592177
1.086000,-1.592177
1.086200,-1.596000
1.086400,-1.588353
1.086600,-1.606195
1.086800,-1.635507
1.087000,-1.650800
1.087200,-1.666094
1.087400,-1.685210
1.087600,-1.703052
1.087800,-1.714522
1.088000,-1.715796
1.088200,-1.722169
1.088400,-1.713247
1.088600,-1.713247
1.088800,-1.703052
1.089000,-1.689033
1.089200,-1.668642
1.089400,-1.652075
1.089600,-1.635507
1.089800,-1.601098
1.090000,-1.581981
1.090200,-1.564139
1.090400,-1.567962
1.090600,-1.569237
1.090800,-1.584530
1.091000,-1.594725
1.091200,-1.599823
1.091400,-1.606195
1.091600,-1.615116
1.091800,-1.629135
1.092000,-1.643154
1.092200,-1.667368
1.092400,-1.697954
1.092600,-1.713247
1.092800,-1.724717
1.093000,-1.724717
1.093200,-1.713247
1.093400,-1.682661
1.093600,-1.655898
1.093800,-1.627861
1.094000,-1.606195
1.094200,-1.589628
1.094400,-1.573060
1.094600,-1.567962
1.094800,-1.546297
1.095000,-1.541199
1.095200,-1.545023
1.095400,-1.574335
1.095600,-1.580707
1.095800,-1.597274
1.096000,-1.621488
1.096200,-1.645703
1.096400,-1.659721
1.096600,-1.673740
1.096800,-1.680112
1.097000,-1.677563
1.097200,-1.677563
1.097400,-1.667368
1.097600,-1.660996
1.097800,-1.640605
1.098000,-1.612567
1.098200,-1.592177
1.098400,-1.550120
1.098600,-1.506790
1.098800,-1.443068
1.099000,-1.380621
1.099200,-1.337290
1.099400,-1.315625
1.099600,-1.292685
1.099800,-1.274843
1.100000,-1.257001
1.100200,-1.232787
1.100400,-1.217494
1.100600,-1.177987
1.100800,-1.169066
1.101000,-1.177987
1.101200,-1.192005
1.101400,-1.241708
1.101600,-1.268471
1.101800,-1.290137
1.102000,-1.336016
1.102200,-1.393365
1.102400,-1.446891
1.102600,-1.486399
1.102800,-1.514436
1.103000,-1.545023
1.103200,-1.580707
1.103400,-1.608744
1.103600,-1.606195
1.103800,-1.606195
1.104000,-1.576883
1.104200,-1.550120
1.104400,-1.534827
1.104600,-1.536102
1.104800,-1.556493
1.105000,-1.598549
1.105200,-1.635507
1.105400,-1.687759
1.105600,-1.742559
1.105800,-1.788439
1.106000,-1.858533
1.106200,-1.932450
1.106400,-2.005092
1.106600,-2.094302
1.106800,-2.201354
1.107000,-2.319876
1.107200,-2.428203
1.107400,-2.512315
1.107600,-2.558195
1.107800,-2.574763
1.108000,-2.569665
1.108200,-2.546725
1.108400,-2.499571
1.108600,-2.451143
1.108800,-2.388696
1.109000,-2.330072
1.109200,-2.249783
1.109400,-2.186061
1.109600,-2.123614
1.109800,-2.067539
1.110000,-2.012739
1.110200,-1.970682
1.110400,-1.938822
1.110600,-1.914608
1.110800,-1.878923
1.111000,-1.850886
1.111200,-1.820300
1.111400,-1.793537
1.111600,-1.765499
1.111800,-1.745108
1.112000,-1.743834
1.112200,-1.740011
1.112400,-1.750206
1.112600,-1.765499
1.112800,-1.769322
1.113000,-1.774420
1.113200,-1.774420
1.113400,-1.766774
1.113600,-1.765499
1.113800,-1.750206
1.114000,-1.741285
1.114200,-1.742559
1.114400,-1.733638
1.114600,-1.737462
1.114800,-1.748932
1.115000,-1.748932
1.115200,-1.737462
1.115400,-1.737462
1.115600,-1.723443
1.115800,-1.708150
1.116000,-1.682661
1.116200,-1.648252
1.116400,-1.639331
1.116600,-1.626586
1.116800,-1.615116
1.117000,-1.596000
1.117200,-1.598549
1.117400,-1.594725
1.117600,-1.587079
1.117800,-1.581981
1.118000,-1.571786
1.118200,-1.551395
1.118400,-1.536102
1.118600,-1.524632
1.118800,-1.514436
1.119000,-1.500418
1.119200,-1.473655
1.119400,-1.474929
1.119600,-1.481301
1.119800,-1.490222
1.120000,-1.500418
1.120200,-1.504241
1.120400,-1.514436
1.120600,-1.528455
1.120800,-1.545023
1.121000,-1.542474
1.121200,-1.545023
1.121400,-1.547572
1.121600,-1.550120
1.121800,-1.531004
1.122000,-1.502966
1.122200,-1.473655
1.122400,-1.445617
1.122600,-1.434147
1.122800,-1.436696
1.123000,-1.448166
1.123200,-1.468557
1.123400,-1.494045
1.123600,-1.522083
1.123800,-1.536102
1.124000,-1.569237
1.124200,-1.594725
1.124400,-1.635507
1.124600,-1.677563
1.124800,-1.718345
1.125000,-1.752755
1.125200,-1.768048
1.125400,-1.780792
1.125600,-1.770597
1.125800,-1.746383
1.126000,-1.713247
1.126200,-1.692857
1.126400,-1.667368
1.126600,-1.641879
1.126800,-1.624037
1.127000,-1.596000
1.127200,-1.579432
1.127400,-1.567962
1.127600,-1.560316
1.127800,-1.553944
1.128000,-1.531004
1.128200,-1.519534
1.128400,-1.509339
1.128600,-1.515711
1.128800,-1.525906
1.129000,-1.505515
1.129200,-1.496594
1.129400,-1.478752
1.129600,-1.478752
1.129800,-1.473655
1.130000,-1.476203
1.130200,-1.481301
1.130400,-1.494045
1.130600,-1.488948
1.130800,-1.483850
1.131000,-1.495320
1.131200,-1.502966
1.131400,-1.483850
1.131600,-1.482576
1.131800,-1.486399
1.132000,-1.473655
1.132200,-1.483850
1.132400,-1.504241
1.132600,-1.508064
1.132800,-1.510613
1.133000,-1.516985
1.133200,-1.524632
1.133400,-1.541199
1.133600,-1.551395
1.133800,-1.550120
1.134000,-1.550120
1.134200,-1.542474
1.134400,-1.541199
1.134600,-1.534827
1.134800,-1.525906
1.135000,-1.523357
1.135200,-1.524632
1.135400,-1.528455
1.135600,-1.516985
1.135800,-1.504241
1.136000,-1.492771
1.136200,-1.486399
1.136400,-1.471106
1.136600,-1.468557
1.136800,-1.466008
1.137000,-1.455813
1.137200,-1.450715
1.137400,-1.459636
1.137600,-1.469831
1.137800,-1.468557
1.138000,-1.464734
1.138200,-1.474929
1.138400,-1.459636
1.138600,-1.446891
1.138800,-1.420128
1.139000,-1.392091
1.139200,-1.379347
1.139400,-1.364054
1.139600,-1.365328
1.139800,-1.369151
1.140000,-1.386993
1.140200,-1.406110
1.140400,-1.434147
1.140600,-1.463459
1.140800,-1.471106
1.141000,-1.476203
1.141200,-1.480027
1.141400,-1.478752
1.141600,-1.480027
1.141800,-1.492771
1.142000,-1.504241
1.142200,-1.527181
1.142400,-1.536102
1.142600,-1.546297
1.142800,-1.548846
1.143000,-1.555218
1.143200,-1.546297
1.143400,-1.527181
1.143600,-1.501692
1.143800,-1.463459
1.144000,-1.437970
1.144200,-1.413756
1.144400,-1.404835
1.144600,-1.386993
1.144800,-1.375523
1.145000,-1.403561
1.145200,-1.408659
1.145400,-1.434147
1.145600,-1.486399
1.145800,-1.551395
1.146000,-1.606195
1.146200,-1.668642
1.146400,-1.725992
1.146600,-1.757853
1.146800,-1.780792
1.147000,-1.774420
1.147200,-1.768048
1.147400,-1.754029
1.147600,-1.728541
1.147800,-1.694131
1.148000,-1.652075
1.148200,-1.636782
1.148400,-1.613842
1.148600,-1.601098
1.148800,-1.580707
1.149000,-1.561590
1.149200,-1.542474
1.149400,-1.520808
1.149600,-1.513162
1.149800,-1.501692
1.150000,-1.497869
1.150200,-1.510613
1.150400,-1.504241
1.150600,-1.508064
1.150800,-1.500418
1.151000,-1.501692
1.151200,-1.499143
1.151400,-1.496594
1.151600,-1.491497
1.151800,-1.500418
1.152000,-1.504241
1.152200,-1.520808
1.152400,-1.532278
1.152600,-1.552669
1.152800,-1.566688
1.153000,-1.580707
1.153200,-1.579432
1.153400,-1.564139
1.153600,-1.555218
1.153800,-1.543748
1.154000,-1.545023
1.154200,-1.541199
1.154400,-1.543748
1.154600,-1.555218
1.154800,-1.548846
1.155000,-1.553944
1.155200,-1.560316
1.155400,-1.560316
1.155600,-1.565414
1.155800,-1.559041
1.156000,-1.555218
1.156200,-1.550120
1.156400,-1.561590
1.156600,-1.553944
1.156800,-1.552669
1.157000,-1.537376
1.157200,-1.522083
1.157400,-1.514436
1.157600,-1.495320
1.157800,-1.478752
1.158000,-1.463459
1.158200,-1.450715
1.158400,-1.455813
1.158600,-1.458361
1.158800,-1.437970
1.159000,-1.439245
1.159200,-1.432873
1.159400,-1.443068
1.159600,-1.431598
1.159800,-1.422677
1.160000,-1.417580
1.160200,-1.415031
1.160400,-1.397189
1.160600,-1.361505
1.160800,-1.339839
1.161000,-1.325821
1.161200,-1.314351
1.161400,-1.307979
1.161600,-1.300332
1.161800,-1.283764
1.162000,-1.272295
1.162200,-1.254452
1.162400,-1.240434
1.162600,-1.249355
1.162800,-1.260825
1.163000,-1.269746
1.163200,-1.272295
1.163400,-1.283764
1.163600,-1.296509
1.163800,-1.305430
1.164000,-1.315625
1.164200,-1.333467
1.164400,-1.346211
1.164600,-1.367877
1.164800,-1.378072
1.165000,-1.392091
1.165200,-1.418854
1.165400,-1.443068
1.165600,-1.468557
1.165800,-1.499143
1.166000,-1.522083
1.166200,-1.531004
1.166400,-1.531004
1.166600,-1.524632
1.166800,-1.508064
1.167000,-1.490222
1.167200,-1.455813
1.167400,-1.431598
1.167600,-1.418854
1.167800,-1.407384
1.168000,-1.418854
1.168200,-1.453264
1.168400,-1.483850
1.168600,-1.537376
1.168800,-1.601098
1.169000,-1.659721
1.169200,-1.723443
1.169400,-1.796085
1.169600,-1.857258
1.169800,-1.912059
1.170000,-1.973231
1.170200,-2.022934
1.170400,-2.071362
1.170600,-2.096851
1.170800,-2.114693
1.171000,-2.128712
1.171200,-2.132535
1.171400,-2.114693
1.171600,-2.099400
1.171800,-2.068814
1.172000,-2.034404
1.172200,-2.012739
1.172400,-1.996171
1.172600,-2.003818
1.172800,-2.030581
1.173000,-2.039502
1.173200,-2.053520
1.173400,-2.067539
1.173600,-2.081558
1.173800,-2.073911
1.174000,-2.053520
1.174200,-2.008915
1.174400,-1.973231
1.174600,-1.942645
1.174800,-1.903138
1.175000,-1.870002
1.175200,-1.843239
1.175400,-1.816476
1.175600,-1.788439
1.175800,-1.766774
1.176000,-1.745108
1.176200,-1.734913
1.176400,-1.718345
1.176600,-1.703052
1.176800,-1.692857
1.177000,-1.677563
1.177200,-1.667368
1.177400,-1.659721
1.177600,-1.649526
1.177800,-1.627861
1.178000,-1.601098
1.178200,-1.580707
1.178400,-1.573060
1.178600,-1.546297
1.178800,-1.527181
1.179000,-1.505515
1.179200,-1.488948
1.179400,-1.468557
1.179600,-1.453264
1.179800,-1.432873
1.180000,-1.407384
1.180200,-1.401012
1.180400,-1.392091
1.180600,-1.392091
1.180800,-1.390817
1.181000,-1.398463
1.181200,-1.407384
1.181400,-1.422677
1.181600,-1.423952
1.181800,-1.412482
1.182000,-1.381896
1.182200,-1.367877
1.182400,-1.371700
1.182600,-1.398463
1.182800,-1.425226
1.183000,-1.455813
1.183200,-1.480027
1.183400,-1.511887
1.183600,-1.514436
1.183800,-1.504241
1.184000,-1.481301
1.184200,-1.453264
1.184400,-1.448166
1.184600,-1.450715
1.184800,-1.466008
1.185000,-1.513162
1.185200,-1.569237
1.185400,-1.611293
1.185600,-1.649526
1.185800,-1.689033
1.186000,-1.719620
1.186200,-1.750206
1.186400,-1.780792
1.186600,-1.817751
1.186800,-1.850886
1.187000,-1.890393
1.187200,-1.933724
1.187400,-1.963036
1.187600,-2.019111
1.187800,-2.063716
1.188000,-2.112144
1.188200,-2.178415
1.188400,-2.242136
1.188600,-2.295662
1.188800,-2.342816
1.189000,-2.372128
1.189200,-2.395068
1.189400,-2.395068
1.189600,-2.358109
1.189800,-2.302034
1.190000,-2.248508
1.190200,-2.198806
1.190400,-2.158024
1.190600,-2.105772
1.190800,-2.049697
1.191000,-2.016562
1.191200,-1.996171
1.191400,-1.966859
1.191600,-1.957938
1.191800,-1.932450
1.192000,-1.934998
1.192200,-1.922254
1.192400,-1.905687
1.192600,-1.867454
1.192800,-1.833044
1.193000,-1.778243
1.193200,-1.710699
1.193400,-1.655898
1.193600,-1.601098
1.193800,-1.557767
1.194000,-1.532278
1.194200,-1.532278
1.194400,-1.532278
1.194600,-1.520808
1.194800,-1.527181
1.195000,-1.527181
