LabVIEW Measurement,
Writer_Version,2
Reader_Version,2
Separator,Comma
Decimal_Separator,.
Multi_Headings,No
X_Columns,Multi
Time_Pref,Absolute
Operator,Dymnz
Date,2017/09/16
Time,13:35:46.4279455833531493374
***End_of_Header***,
,
Channels,1,
Samples,1000,
Date,2017/09/16,
Time,13:35:46.4279455833531493374,
Y_Unit_Label,Volts,
X_Dimension,Time,
X0,0.0000000000000000E+0,
Delta_X,0.001000,
***End_of_Header***,,
X_Value,Voltage,Comment
0.000000,0.063793
0.001000,-0.038034
0.002000,-0.761001
0.003000,-1.373233
0.004000,-0.926469
0.005000,-0.342240
0.006000,-0.671903
0.007000,-1.436874
0.008000,-1.711805
0.009000,-1.944733
0.010000,-2.241303
0.011000,-2.466593
0.012000,-2.610423
0.013000,-2.682975
0.014000,-2.578603
0.015000,-2.458956
0.016000,-2.302398
0.017000,-2.205663
0.018000,-2.061834
0.019000,-1.646891
0.020000,-0.955744
0.021000,-0.847554
0.022000,-0.740636
0.023000,-0.024033
0.024000,0.594563
0.025000,0.045973
0.026000,-0.990111
0.027000,-1.925641
0.028000,-2.480595
0.029000,-2.783528
0.030000,-2.814076
0.031000,-2.676610
0.032000,-2.447501
0.033000,-2.343129
0.034000,-1.891274
0.035000,-1.469968
0.036000,-1.393598
0.037000,-1.275225
0.038000,-1.196309
0.039000,-1.118667
0.040000,-0.964654
0.041000,-1.019386
0.042000,-1.029568
0.043000,-0.721544
0.044000,-0.781367
0.045000,-1.043570
0.046000,-1.378324
0.047000,-1.612525
0.048000,-1.813632
0.049000,-1.772901
0.050000,-1.699077
0.051000,-1.660892
0.052000,-1.593432
0.053000,-1.285407
0.054000,-0.494980
0.055000,-0.510254
0.056000,-0.617172
0.057000,0.048519
0.058000,-0.236595
0.059000,-0.592988
0.060000,-1.361777
0.061000,-2.030013
0.062000,-2.453865
0.063000,-2.572238
0.064000,-2.541690
0.065000,-2.252758
0.066000,-2.154750
0.067000,-2.044014
0.068000,-1.915458
0.069000,-1.797085
0.070000,-1.762718
0.071000,-1.976554
0.072000,-1.643072
0.073000,-1.394871
0.074000,-1.412690
0.075000,-0.801732
0.076000,-0.488616
0.077000,-0.767365
0.078000,-1.172125
0.079000,-1.532336
0.080000,-1.870909
0.081000,-2.072016
0.082000,-2.116565
0.083000,-1.594705
0.084000,-0.188228
0.085000,-0.282417
0.086000,-0.865373
0.087000,-1.620162
0.088000,-2.355857
0.089000,-2.786074
0.090000,-2.840805
0.091000,-2.602786
0.092000,-1.331229
0.093000,0.037063
0.094000,0.039609
0.095000,-0.647719
0.096000,-1.531063
0.097000,-1.646891
0.098000,-1.611252
0.099000,-1.290499
0.100000,-0.929015
0.101000,-0.599352
0.102000,-1.299408
0.103000,-1.892547
0.104000,-2.447501
0.105000,-2.898083
0.106000,-2.868808
0.107000,-2.811530
0.108000,-2.512415
0.109000,-1.958734
0.110000,-1.817450
0.111000,-1.542519
0.112000,-1.298136
0.113000,-0.648992
0.114000,-0.302782
0.115000,-0.412246
0.116000,-0.741909
0.117000,-1.037205
0.118000,-1.252314
0.119000,-1.396143
0.120000,-1.515789
0.121000,-1.407599
0.122000,-1.245950
0.123000,-0.300237
0.124000,-0.440248
0.125000,-1.142850
0.126000,-1.732171
0.127000,-1.295590
0.128000,-1.321046
0.129000,-1.679985
0.130000,-1.963826
0.131000,-1.356686
0.132000,-1.581977
0.133000,-1.926914
0.134000,-2.336765
0.135000,-2.783528
0.136000,-2.621879
0.137000,-1.999465
0.138000,-2.018557
0.139000,-2.208209
0.140000,-2.386405
0.141000,-2.349493
0.142000,-2.125475
0.143000,-2.163660
0.144000,-1.729625
0.145000,-0.053308
0.146000,0.202531
0.147000,-0.295146
0.148000,-0.935379
0.149000,-1.441965
0.150000,-1.648164
0.151000,-1.751263
0.152000,-1.845452
0.153000,-1.720715
0.154000,-1.657074
0.155000,-1.621434
0.156000,-1.495424
0.157000,-1.364323
0.158000,-1.268860
0.159000,-1.319774
0.160000,-1.038478
0.161000,-0.694814
0.162000,-0.789004
0.163000,0.392183
0.164000,1.239887
0.165000,1.829208
0.166000,0.824945
0.167000,-0.861555
0.168000,-2.420772
0.169000,-3.313025
0.170000,-3.587957
0.171000,-3.426307
0.172000,-3.031730
0.173000,-2.733888
0.174000,-2.504778
0.175000,-2.397861
0.176000,-2.602786
0.177000,-2.535326
0.178000,-2.350766
0.179000,-2.120384
0.180000,-1.489060
0.181000,-0.491161
0.182000,-0.542075
0.183000,-0.940470
0.184000,-0.388062
0.185000,-0.330785
0.186000,-0.804278
0.187000,-1.321046
0.188000,-1.742353
0.189000,-2.111474
0.190000,-2.262941
0.191000,-2.250212
0.192000,-2.166206
0.193000,-2.102564
0.194000,-1.485242
0.195000,-1.086846
0.196000,-1.240858
0.197000,-1.452148
0.198000,-1.583249
0.199000,-1.692713
0.200000,-1.711805
0.201000,-1.794539
0.202000,-1.646891
0.203000,-1.514517
0.204000,-1.363050
0.205000,-1.299408
0.206000,-0.985019
0.207000,-0.591715
0.208000,-0.731726
0.209000,-1.063935
0.210000,-1.109757
0.211000,-0.130950
0.212000,0.413821
0.213000,0.494009
0.214000,0.566560
0.215000,0.356543
0.216000,-0.912468
0.217000,-2.284579
0.218000,-3.291387
0.219000,-3.642688
0.220000,-3.515405
0.221000,-3.320662
0.222000,-2.850988
0.223000,-2.383860
0.224000,-2.021103
0.225000,-1.601069
0.226000,-1.538700
0.227000,-1.602342
0.228000,-1.739808
0.229000,-1.758900
0.230000,-1.048661
0.231000,0.043427
0.232000,0.165619
0.233000,-0.404609
0.234000,-1.192491
0.235000,-1.854362
0.236000,-2.111474
0.237000,-1.356686
0.238000,-1.291771
0.239000,-1.545065
0.240000,-1.850544
0.241000,-2.148386
0.242000,-2.359676
0.243000,-2.345675
0.244000,-2.329128
0.245000,-2.144567
0.246000,-2.008375
0.247000,-1.926914
0.248000,-1.630344
0.249000,-0.694814
0.250000,-0.488616
0.251000,-0.726635
0.252000,-1.174671
0.253000,-1.687622
0.254000,-2.168751
0.255000,-2.177661
0.256000,-1.800903
0.257000,-1.564157
0.258000,-1.475059
0.259000,-1.275225
0.260000,-0.922651
0.261000,-0.587896
0.262000,-0.440248
0.263000,-0.685904
0.264000,-0.948107
0.265000,-1.033387
0.266000,-1.155579
0.267000,-1.501788
0.268000,-1.697804
0.269000,-1.816177
0.270000,-1.500516
0.271000,-1.440693
0.272000,-1.594705
0.273000,-0.957017
0.274000,-0.935379
0.275000,-1.379597
0.276000,-1.795812
0.277000,-1.972735
0.278000,-1.545065
0.279000,-1.693986
0.280000,-1.989282
0.281000,-2.096200
0.282000,-2.218392
0.283000,-2.191662
0.284000,-1.693986
0.285000,-0.927742
0.286000,-1.127576
0.287000,-1.510698
0.288000,-1.856908
0.289000,-2.046560
0.290000,-1.920549
0.291000,-1.909094
0.292000,-1.845452
0.293000,-1.341412
0.294000,-0.412246
0.295000,-0.320602
0.296000,-0.690996
0.297000,-1.282862
0.298000,-1.020659
0.299000,0.788033
0.300000,0.505465
0.301000,-0.548439
0.302000,-1.688894
0.303000,-2.682975
0.304000,-3.250657
0.305000,-3.413579
0.306000,-3.016456
0.307000,-2.572238
0.308000,-2.404225
0.309000,-2.115292
0.310000,-1.541246
0.311000,-1.533609
0.312000,-1.503061
0.313000,-1.365596
0.314000,-1.258678
0.315000,-1.478877
0.316000,-1.641800
0.317000,-1.257405
0.318000,-0.287509
0.319000,-0.354969
0.320000,-0.909922
0.321000,-1.263769
0.322000,-1.587068
0.323000,-1.715624
0.324000,-1.963826
0.325000,-2.038923
0.326000,-1.832724
0.327000,-1.559066
0.328000,-0.977382
0.329000,-0.804278
0.330000,-0.540802
0.331000,-0.768638
0.332000,-1.102120
0.333000,-1.356686
0.334000,-1.841634
0.335000,-2.298580
0.336000,-1.723261
0.337000,-0.945562
0.338000,-0.804278
0.339000,-0.791549
0.340000,-0.666812
0.341000,-0.539529
0.342000,-1.163216
0.343000,-1.850544
0.344000,-2.294761
0.345000,-2.549327
0.346000,-2.758072
0.347000,-2.651154
0.348000,-2.534053
0.349000,-1.640527
0.350000,-0.960836
0.351000,-1.077936
0.352000,-1.331229
0.353000,-1.575612
0.354000,-1.734716
0.355000,-1.993101
0.356000,-1.944733
0.357000,-1.980372
0.358000,-1.976554
0.359000,-1.912912
0.360000,-1.952370
0.361000,-1.327411
0.362000,-0.268416
0.363000,-0.144952
0.364000,-0.600625
0.365000,-1.188672
0.366000,-1.786902
0.367000,-2.086017
0.368000,-1.069026
0.369000,-0.258233
0.370000,-0.298964
0.371000,-0.640082
0.372000,-0.484797
0.373000,-1.091937
0.374000,-2.018557
0.375000,-2.618060
0.376000,-2.661336
0.377000,-2.581148
0.378000,-2.513688
0.379000,-2.273123
0.380000,-2.255304
0.381000,-2.264214
0.382000,-2.135658
0.383000,-2.022376
0.384000,-1.893820
0.385000,-1.590886
0.386000,-1.001566
0.387000,-0.655356
0.388000,-0.556076
0.389000,-0.707542
0.390000,-1.060116
0.391000,-1.234494
0.392000,-1.398689
0.393000,-1.555247
0.394000,-1.616343
0.395000,-1.637981
0.396000,-1.627799
0.397000,-1.464876
0.398000,-1.296863
0.399000,-1.126303
0.400000,-0.097857
0.401000,-0.058399
0.402000,-0.440248
0.403000,-0.618444
0.404000,-0.748273
0.405000,-1.473786
0.406000,-1.891274
0.407000,-1.466149
0.408000,-1.719442
0.409000,-2.124202
0.410000,-2.493323
0.411000,-2.746616
0.412000,-2.956633
0.413000,-2.948996
0.414000,-2.646063
0.415000,-1.618889
0.416000,-1.025750
0.417000,-0.985019
0.418000,-0.995202
0.419000,-1.249768
0.420000,-1.183581
0.421000,-0.643901
0.422000,-0.274780
0.423000,-0.307874
0.424000,-1.000293
0.425000,-1.214129
0.426000,-1.385961
0.427000,-1.811086
0.428000,-2.159841
0.429000,-2.126748
0.430000,-2.058015
0.431000,-2.116565
0.432000,-2.145840
0.433000,-2.182752
0.434000,-2.297307
0.435000,-2.278215
0.436000,-1.948552
0.437000,-1.667256
0.438000,-1.019386
0.439000,-0.422429
0.440000,-0.610807
0.441000,-0.915014
0.442000,-1.113575
0.443000,-0.836098
0.444000,-0.951926
0.445000,-1.136486
0.446000,-1.369414
0.447000,-0.703724
0.448000,-0.101675
0.449000,-0.486070
0.450000,-0.894648
0.451000,-1.511971
0.452000,-1.956189
0.453000,-2.306217
0.454000,-2.495869
0.455000,-1.711805
0.456000,-1.496697
0.457000,-1.763991
0.458000,-2.102564
0.459000,-2.395315
0.460000,-2.556964
0.461000,-2.514961
0.462000,-2.441137
0.463000,-2.138203
0.464000,-1.958734
0.465000,-2.003283
0.466000,-1.471240
0.467000,-0.963381
0.468000,-0.954471
0.469000,-1.122485
0.470000,-1.277770
0.471000,-1.440693
0.472000,-1.447057
0.473000,-1.476332
0.474000,-1.471240
0.475000,-1.417782
0.476000,-1.335048
0.477000,-0.529346
0.478000,-0.263325
0.479000,0.096886
0.480000,0.145254
0.481000,-0.567531
0.482000,-1.447057
0.483000,-1.672348
0.484000,-1.603615
0.485000,-1.790721
0.486000,-2.050378
0.487000,-2.091109
0.488000,-2.168751
0.489000,-2.105110
0.490000,-2.055469
0.491000,-1.893820
0.492000,-1.333775
0.493000,-1.309591
0.494000,-1.519608
0.495000,-1.677439
0.496000,-2.044014
0.497000,-1.662165
0.498000,-1.151760
0.499000,-1.265042
0.500000,-1.475059
0.501000,-1.626526
0.502000,-0.808096
0.503000,0.071430
0.504000,0.005242
0.505000,-0.839917
0.506000,-1.844180
0.507000,-2.259122
0.508000,-2.274396
0.509000,-2.462775
0.510000,-2.400406
0.511000,-2.401679
0.512000,-2.256577
0.513000,-2.206936
0.514000,-2.157296
0.515000,-2.068198
0.516000,-1.817450
0.517000,-1.454694
0.518000,-1.399962
0.519000,-1.234494
0.520000,-1.144123
0.521000,-0.300237
0.522000,1.172427
0.523000,1.382444
0.524000,0.505465
0.525000,-0.515345
0.526000,-1.389779
0.527000,-2.318945
0.528000,-2.777164
0.529000,-2.089836
0.530000,-1.430510
0.531000,-1.607433
0.532000,-1.965098
0.533000,-2.329128
0.534000,-2.494596
0.535000,-2.528962
0.536000,-2.427136
0.537000,-2.371131
0.538000,-2.185298
0.539000,-1.881092
0.540000,-1.799631
0.541000,-1.832724
0.542000,-1.886183
0.543000,-1.713078
0.544000,-1.062662
0.545000,-0.754637
0.546000,-0.776275
0.547000,-0.860282
0.548000,-0.701178
0.549000,-0.717725
0.550000,-0.921378
0.551000,-1.279043
0.552000,-1.653255
0.553000,-1.897638
0.554000,-1.991828
0.555000,-1.947279
0.556000,-1.928186
0.557000,-1.825087
0.558000,-1.597251
0.559000,-1.486514
0.560000,-1.454694
0.561000,-1.458512
0.562000,-1.242131
0.563000,-0.693541
0.564000,-0.666812
0.565000,0.219078
0.566000,0.112160
0.567000,0.263627
0.568000,-0.479706
0.569000,-1.584522
0.570000,-2.570966
0.571000,-2.912084
0.572000,-3.067369
0.573000,-2.866262
0.574000,-2.464048
0.575000,-2.159841
0.576000,-1.878546
0.577000,-1.729625
0.578000,-1.721988
0.579000,-1.193763
0.580000,-0.972291
0.581000,-1.243404
0.582000,-1.365596
0.583000,-1.665983
0.584000,-1.860726
0.585000,-2.027467
0.586000,-1.993101
0.587000,-1.912912
0.588000,-1.776720
0.589000,-1.653255
0.590000,-1.489060
0.591000,-1.259951
0.592000,-0.306601
0.593000,-0.153861
0.594000,-0.418610
0.595000,-0.729181
0.596000,-1.200128
0.597000,-1.440693
0.598000,-1.527245
0.599000,-1.658346
0.600000,-1.677439
0.601000,-1.757627
0.602000,-1.845452
0.603000,-1.864545
0.604000,-1.839088
0.605000,-1.784357
0.606000,-1.595978
0.607000,-1.198855
0.608000,-0.837371
0.609000,-0.843735
0.610000,-0.665539
0.611000,0.579289
0.612000,1.430812
0.613000,0.611109
0.614000,-0.907377
0.615000,-2.196754
0.616000,-3.167923
0.617000,-3.750879
0.618000,-3.875616
0.619000,-3.693602
0.620000,-3.375394
0.621000,-3.010092
0.622000,-2.633334
0.623000,-2.308763
0.624000,-1.938369
0.625000,-0.841190
0.626000,-0.234050
0.627000,-0.218776
0.628000,-0.468250
0.629000,-0.889557
0.630000,-1.186127
0.631000,-1.398689
0.632000,-1.635435
0.633000,-1.690167
0.634000,-1.679985
0.635000,-1.766537
0.636000,-1.849271
0.637000,-1.938369
0.638000,-1.937096
0.639000,-1.748717
0.640000,-1.457239
0.641000,-1.259951
0.642000,-0.497525
0.643000,0.383273
0.644000,0.129980
0.645000,-0.643901
0.646000,-1.408872
0.647000,-1.947279
0.648000,-2.304944
0.649000,-2.102564
0.650000,-1.879819
0.651000,-1.825087
0.652000,-1.822541
0.653000,-1.826360
0.654000,-0.974837
0.655000,-0.511527
0.656000,-0.394426
0.657000,-0.315511
0.658000,-0.974837
0.659000,-1.709260
0.660000,-2.240030
0.661000,-2.723705
0.662000,-2.892992
0.663000,-2.626970
0.664000,-2.186571
0.665000,-1.974008
0.666000,-1.844180
0.667000,-1.691440
0.668000,-0.819551
0.669000,-0.612080
0.670000,0.006515
0.671000,0.295448
0.672000,-0.174227
0.673000,-0.776275
0.674000,-1.453421
0.675000,-1.998192
0.676000,-2.206936
0.677000,-2.271850
0.678000,-2.226029
0.679000,-2.168751
0.680000,-2.122929
0.681000,-1.850544
0.682000,-1.651982
0.683000,-1.562884
0.684000,-1.305773
0.685000,-1.303227
0.686000,-1.312137
0.687000,-1.277770
0.688000,-1.415236
0.689000,-1.565430
0.690000,-1.575612
0.691000,-1.520881
0.692000,-1.413963
0.693000,-1.315955
0.694000,-1.427964
0.695000,-1.616343
0.696000,-1.807268
0.697000,-1.733443
0.698000,-1.672348
0.699000,-1.570521
0.700000,-1.375778
0.701000,-1.202673
0.702000,-1.165761
0.703000,-0.104221
0.704000,0.431640
0.705000,-0.085129
0.706000,-0.941743
0.707000,-1.426691
0.708000,-1.178490
0.709000,-1.328683
0.710000,-1.859454
0.711000,-2.292216
0.712000,-2.189117
0.713000,-1.622707
0.714000,-1.448329
0.715000,-1.713078
0.716000,-2.070743
0.717000,-2.212027
0.718000,-1.954916
0.719000,-1.398689
0.720000,-1.410145
0.721000,-1.683803
0.722000,0.389637
0.723000,0.364180
0.724000,0.205077
0.725000,-0.554803
0.726000,-1.701623
0.727000,-2.824259
0.728000,-3.454310
0.729000,-3.561227
0.730000,-3.441581
0.731000,-3.254475
0.732000,-2.798802
0.733000,-2.428409
0.734000,-2.100018
0.735000,-2.088563
0.736000,-1.958734
0.737000,-1.844180
0.738000,-1.588341
0.739000,-1.435601
0.740000,-0.803005
0.741000,-0.735545
0.742000,-0.164044
0.743000,-0.356241
0.744000,-0.911195
0.745000,-1.261223
0.746000,-1.499243
0.747000,-1.560339
0.748000,-1.636708
0.749000,-1.687622
0.750000,-1.746172
0.751000,-1.130122
0.752000,-0.959563
0.753000,-1.242131
0.754000,-1.123758
0.755000,-0.865373
0.756000,-0.838644
0.757000,-0.993929
0.758000,-1.099574
0.759000,-1.266315
0.760000,-1.453421
0.761000,-1.583249
0.762000,-1.639254
0.763000,-1.774174
0.764000,-1.803449
0.765000,-1.939642
0.766000,-2.044014
0.767000,-1.951097
0.768000,-1.795812
0.769000,-1.676166
0.770000,-1.513244
0.771000,-0.949380
0.772000,-0.837371
0.773000,-1.034660
0.774000,-1.265042
0.775000,-1.425419
0.776000,-1.201400
0.777000,-0.968473
0.778000,-0.894648
0.779000,-0.939197
0.780000,-1.140305
0.781000,-1.677439
0.782000,-1.870909
0.783000,-0.958290
0.784000,-0.514072
0.785000,-0.776275
0.786000,-1.198855
0.787000,-1.473786
0.788000,-1.603615
0.789000,-1.149214
0.790000,-0.837371
0.791000,-1.195036
0.792000,-1.632890
0.793000,-1.827633
0.794000,-2.012193
0.795000,-2.508597
0.796000,-2.919721
0.797000,-3.180651
0.798000,-1.499243
0.799000,-1.005385
0.800000,-1.182308
0.801000,-1.436874
0.802000,-1.963826
0.803000,-2.321491
0.804000,-2.469139
0.805000,-2.461502
0.806000,-2.321491
0.807000,-2.087290
0.808000,-1.747445
0.809000,-1.336320
0.810000,-1.332502
0.811000,-1.547610
0.812000,-0.628627
0.813000,-0.043125
0.814000,0.590744
0.815000,0.310722
0.816000,-0.623536
0.817000,-1.443238
0.818000,-2.037650
0.819000,-2.302398
0.820000,-2.415680
0.821000,-2.341856
0.822000,-2.265486
0.823000,-2.023649
0.824000,-1.876000
0.825000,-1.444511
0.826000,-0.974837
0.827000,-1.147942
0.828000,-0.750819
0.829000,-0.025306
0.830000,-0.249324
0.831000,-0.912468
0.832000,-1.719442
0.833000,-2.455138
0.834000,-2.811530
0.835000,-2.871353
0.836000,-2.900628
0.837000,-1.802176
0.838000,-0.885739
0.839000,-0.809369
0.840000,-1.063935
0.841000,-1.285407
0.842000,-1.144123
0.843000,-1.240858
0.844000,-1.635435
0.845000,-1.943460
0.846000,-2.028740
0.847000,-2.013466
0.848000,-2.064379
0.849000,-2.128021
0.850000,-1.886183
0.851000,-1.616343
0.852000,-1.413963
0.853000,-1.187399
0.854000,-1.174671
0.855000,-1.182308
0.856000,-1.317228
0.857000,-1.360504
0.858000,-1.279043
0.859000,-1.196309
0.860000,-1.220493
0.861000,-1.254859
0.862000,-1.234494
0.863000,-1.248495
0.864000,-1.280316
0.865000,-1.299408
0.866000,-1.314682
0.867000,-1.280316
0.868000,-1.341412
0.869000,-1.384688
0.870000,-1.413963
0.871000,-1.417782
0.872000,-1.424146
0.873000,-1.398689
0.874000,-1.387234
0.875000,-1.407599
0.876000,-1.405053
0.877000,-1.415236
0.878000,-1.394871
0.879000,-1.453421
0.880000,-1.487787
0.881000,-1.483969
0.882000,-1.522154
0.883000,-1.533609
0.884000,-0.717725
0.885000,-0.753364
0.886000,-0.060945
0.887000,-0.450431
0.888000,-1.496697
0.889000,-2.120384
0.890000,-2.507324
0.891000,-2.680429
0.892000,-2.555692
0.893000,-2.326582
0.894000,-1.946006
0.895000,-1.691440
0.896000,-1.590886
0.897000,-1.469968
0.898000,-1.378324
0.899000,-0.796641
0.900000,1.789750
0.901000,2.088865
0.902000,1.872484
0.903000,1.064237
0.904000,-0.750819
0.905000,-2.694430
0.906000,-3.831067
0.907000,-4.351655
0.908000,-4.289286
0.909000,-4.006718
0.910000,-3.708876
0.911000,-3.305388
0.912000,-2.905720
0.913000,-2.485686
0.914000,-1.772901
0.915000,-1.159397
0.916000,-1.007930
0.917000,-1.039751
0.918000,-1.114848
0.919000,-1.182308
0.920000,-1.323592
0.921000,-1.296863
0.922000,-1.238313
0.923000,-1.240858
0.924000,-1.315955
0.925000,-1.570521
0.926000,-1.593432
0.927000,-1.599796
0.928000,-1.467422
0.929000,-1.342685
0.930000,-1.225584
0.931000,-1.189945
0.932000,-1.189945
0.933000,-1.203946
0.934000,-0.923924
0.935000,-0.062218
0.936000,1.118969
0.937000,1.499545
0.938000,0.460915
0.939000,-0.999020
0.940000,-2.223483
0.941000,-3.001182
0.942000,-3.348665
0.943000,-3.095371
0.944000,-2.864989
0.945000,-2.722432
0.946000,-2.657518
0.947000,-2.516234
0.948000,-2.284579
0.949000,-2.100018
0.950000,-1.979100
0.951000,-1.851817
0.952000,-1.627799
0.953000,-1.547610
0.954000,-1.576885
0.955000,-1.594705
0.956000,-1.758900
0.957000,-1.769083
0.958000,-1.626526
0.959000,-1.524699
0.960000,-1.481423
0.961000,-1.636708
0.962000,-0.683359
0.963000,-0.246778
0.964000,-0.240414
0.965000,-0.666812
0.966000,-1.220493
0.967000,-1.094483
0.968000,-0.879374
0.969000,-0.624808
0.970000,-0.137315
0.971000,-0.563713
0.972000,-1.233221
0.973000,-1.753809
0.974000,-2.324037
0.975000,-2.408043
0.976000,-2.124202
0.977000,-1.793266
0.978000,-1.785629
0.979000,-1.753809
0.980000,-1.604888
0.981000,-1.547610
0.982000,-1.186127
0.983000,0.159255
0.984000,0.487645
0.985000,-0.060945
0.986000,-1.174671
0.987000,-2.124202
0.988000,-2.717341
0.989000,-3.029184
0.990000,-1.949824
0.991000,-0.908650
0.992000,-0.923924
0.993000,-1.275225
0.994000,-0.982474
0.995000,-1.492879
0.996000,-2.024921
0.997000,-1.905275
0.998000,-1.859454
0.999000,-1.909094
1.000000,-1.910367
1.001000,-1.915458
1.002000,-1.967644
1.003000,-2.116565
1.004000,-2.288397
1.005000,-2.388951
1.006000,-2.189117
1.007000,-2.148386
1.008000,-2.017284
1.009000,-1.896366
1.010000,-1.789448
1.011000,-1.590886
1.012000,-1.441965
1.013000,-1.272679
1.014000,-1.100847
1.015000,-0.993929
1.016000,-0.810642
1.017000,-0.810642
1.018000,-0.786458
1.019000,-0.446612
1.020000,0.422731
1.021000,0.174529
1.022000,-0.320602
1.023000,-0.818279
1.024000,-1.495424
1.025000,-1.753809
1.026000,-1.459785
1.027000,-1.621434
1.028000,-1.846725
1.029000,-2.061834
1.030000,-2.159841
1.031000,-2.316400
1.032000,-2.377495
1.033000,-2.136931
1.034000,-2.079653
1.035000,-2.049105
1.036000,-1.566703
1.037000,-0.761001
1.038000,0.100705
1.039000,0.519466
1.040000,-0.174227
1.041000,-1.061389
1.042000,-1.757627
1.043000,-2.364767
1.044000,-2.540418
1.045000,-2.409316
1.046000,-2.364767
1.047000,-2.163660
1.048000,-1.501788
1.049000,-1.508152
1.050000,-1.590886
1.051000,-1.685076
1.052000,-1.715624
1.053000,-1.882365
1.054000,-1.058844
1.055000,-0.679540
1.056000,-0.949380
1.057000,-1.337593
1.058000,-1.702895
1.059000,-2.066925
1.060000,-2.138203
1.061000,-1.816177
1.062000,-1.637981
1.063000,-1.743626
1.064000,-1.774174
1.065000,-1.746172
1.066000,-1.877273
1.067000,-1.389779
1.068000,1.480452
1.069000,1.411719
1.070000,0.319631
1.071000,-1.024477
1.072000,-2.261668
1.073000,-2.894264
1.074000,-3.066096
1.075000,-3.062278
1.076000,-2.807712
1.077000,-2.457684
1.078000,-2.405498
1.079000,-2.302398
1.080000,-2.270578
1.081000,-2.308763
1.082000,-1.975281
1.083000,-1.613797
1.084000,-1.335048
1.085000,-1.203946
1.086000,-0.608262
1.087000,-0.418610
1.088000,0.444369
1.089000,0.295448
1.090000,-0.358787
1.091000,-0.898467
1.092000,-1.060116
1.093000,-1.282862
1.094000,-1.303227
1.095000,-1.282862
1.096000,-0.889557
1.097000,-1.069026
1.098000,-1.575612
1.099000,-2.024921
1.100000,-2.033831
1.101000,-1.599796
1.102000,-1.753809
1.103000,-1.821269
1.104000,-2.041468
1.105000,-2.413135
1.106000,-2.414407
1.107000,-2.289670
1.108000,-2.246394
1.109000,-2.125475
1.110000,-1.851817
1.111000,-1.342685
1.112000,-0.384244
1.113000,-0.334603
1.114000,-0.748273
1.115000,-1.307045
1.116000,-1.893820
1.117000,-2.256577
1.118000,-2.334219
1.119000,-2.271850
1.120000,-2.033831
1.121000,-1.831451
1.122000,-1.664711
1.123000,-1.522154
1.124000,-1.416509
1.125000,-1.317228
1.126000,-1.179762
1.127000,-1.345230
1.128000,-1.504334
1.129000,-0.806823
1.130000,0.264900
1.131000,-0.026578
1.132000,-0.654084
1.133000,-1.282862
1.134000,-1.869636
1.135000,-2.289670
1.136000,-2.327855
1.137000,-2.126748
1.138000,-1.891274
1.139000,-1.830178
1.140000,-1.741080
1.141000,-1.853089
1.142000,-1.884910
1.143000,-1.560339
1.144000,0.880949
1.145000,2.568722
1.146000,1.998494
1.147000,0.770213
1.148000,-1.047388
1.149000,-2.709704
1.150000,-3.587957
1.151000,-3.894709
1.152000,-3.556136
1.153000,-2.343129
1.154000,-1.396143
1.155000,-0.906104
1.156000,-1.160670
1.157000,-1.856908
1.158000,-2.206936
1.159000,-2.190389
1.160000,-2.154750
1.161000,-1.951097
1.162000,-1.704168
1.163000,-1.659619
1.164000,-1.720715
1.165000,-1.937096
1.166000,-2.079653
1.167000,-2.176388
1.168000,-2.093654
1.169000,-1.855635
1.170000,-1.556520
1.171000,-1.454694
1.172000,-1.621434
1.173000,-1.648164
1.174000,-1.402508
1.175000,-1.293044
1.176000,-1.335048
1.177000,-1.397416
1.178000,-1.410145
1.179000,-1.373233
1.180000,-1.210310
1.181000,-0.643901
1.182000,-0.665539
1.183000,-0.408427
1.184000,-0.017669
1.185000,-0.432611
1.186000,-0.902285
1.187000,-1.602342
1.188000,-2.119111
1.189000,-2.171297
1.190000,-2.049105
1.191000,-1.886183
1.192000,-1.714351
1.193000,-1.641800
1.194000,-1.640527
1.195000,-1.748717
1.196000,-1.841634
1.197000,-1.742353
1.198000,-1.704168
1.199000,-1.788175
1.200000,-1.741080
1.201000,-1.539973
1.202000,-1.542519
1.203000,-1.014294
1.204000,-0.873010
1.205000,-0.396972
1.206000,-0.608262
1.207000,-1.206492
1.208000,-1.085573
1.209000,-0.887011
1.210000,-0.999020
1.211000,-1.361777
1.212000,-1.691440
1.213000,-1.737262
1.214000,-1.687622
1.215000,-1.420327
1.216000,-1.251041
1.217000,-1.108484
1.218000,-1.267588
1.219000,-0.538256
1.220000,-0.199683
1.221000,-0.904831
1.222000,-1.713078
1.223000,-2.380041
1.224000,-2.670246
1.225000,-1.630344
1.226000,-1.128849
1.227000,-1.518335
1.228000,-2.040195
1.229000,-1.519608
1.230000,-1.569248
1.231000,-2.059288
1.232000,-2.438591
1.233000,-1.015567
1.234000,-0.912468
1.235000,-1.249768
1.236000,-1.547610
1.237000,-1.845452
1.238000,-2.423317
1.239000,-2.649881
1.240000,-2.526416
1.241000,-2.405498
1.242000,-2.288397
1.243000,-2.116565
1.244000,-1.944733
1.245000,-1.874728
1.246000,-1.833997
1.247000,-1.705441
1.248000,-1.654528
1.249000,-1.551429
1.250000,-1.463603
1.251000,-1.363050
1.252000,-1.074117
1.253000,-0.889557
1.254000,-0.778821
1.255000,0.019243
1.256000,0.558923
1.257000,0.185984
1.258000,-0.520436
1.259000,-1.140305
1.260000,-1.673620
1.261000,-1.960007
1.262000,-2.050378
1.263000,-2.040195
1.264000,-1.996919
1.265000,-2.033831
1.266000,-2.052924
1.267000,-0.895921
1.268000,-0.750819
1.269000,-1.326138
1.270000,-1.769083
1.271000,-2.080926
1.272000,-2.088563
1.273000,-2.028740
1.274000,-1.974008
1.275000,-1.847998
1.276000,-1.686349
1.277000,-1.555247
1.278000,-1.514517
1.279000,-1.468695
1.280000,-1.424146
1.281000,-0.834825
1.282000,-0.458068
1.283000,-0.531892
1.284000,-0.811914
1.285000,-1.093210
1.286000,-1.341412
1.287000,-1.657074
1.288000,-2.078380
1.289000,-0.831007
1.290000,0.813489
1.291000,0.403638
1.292000,-0.750819
1.293000,-1.847998
1.294000,-2.681702
1.295000,-3.008819
1.296000,-3.066096
1.297000,-2.871353
1.298000,-2.624424
1.299000,-2.438591
1.300000,-2.259122
1.301000,-1.905275
1.302000,-1.741080
1.303000,-1.282862
1.304000,-0.911195
1.305000,-0.791549
1.306000,-0.823370
1.307000,-0.745727
1.308000,-0.833553
1.309000,-1.016840
1.310000,-1.189945
1.311000,-1.365596
1.312000,-1.495424
1.313000,-1.622707
1.314000,-1.817450
1.315000,-1.884910
1.316000,-1.841634
1.317000,-1.839088
1.318000,-1.682530
1.319000,-1.410145
1.320000,-0.982474
1.321000,-0.898467
1.322000,-0.356241
1.323000,-0.542075
1.324000,-0.590442
1.325000,0.502919
1.326000,-0.053308
1.327000,-0.820824
1.328000,-1.212856
1.329000,-1.940915
1.330000,-2.772073
1.331000,-3.174287
1.332000,-3.249384
1.333000,-3.407215
1.334000,-3.201016
1.335000,-2.920994
1.336000,-2.376223
1.337000,-2.004556
1.338000,-1.858181
1.339000,-1.784357
1.340000,-1.234494
1.341000,-0.220049
1.342000,-0.430065
1.343000,-0.859009
1.344000,-1.071572
1.345000,-1.461058
1.346000,-1.841634
1.347000,-1.989282
1.348000,-1.993101
1.349000,-1.799631
1.350000,-1.653255
1.351000,-1.560339
1.352000,-1.589614
1.353000,-1.458512
1.354000,-1.093210
1.355000,-0.848827
1.356000,-0.480979
1.357000,-0.148770
1.358000,0.430368
1.359000,0.180893
1.360000,-0.619717
1.361000,-1.201400
1.362000,-1.767810
1.363000,-2.271850
1.364000,-2.385132
1.365000,-2.318945
1.366000,-2.241303
1.367000,-2.166206
1.368000,-2.074562
1.369000,-1.989282
1.370000,-1.921822
1.371000,-1.918004
1.372000,-1.892547
1.373000,-1.847998
1.374000,-1.760173
1.375000,-1.433056
1.376000,-0.888284
1.377000,-0.472069
1.378000,-0.011304
1.379000,-0.329512
1.380000,-0.996475
1.381000,-1.553974
1.382000,-1.942188
1.383000,-1.972735
1.384000,-2.115292
1.385000,-2.234938
1.386000,-2.261668
1.387000,-2.255304
1.388000,-2.163660
1.389000,-1.939642
1.390000,-1.637981
1.391000,-1.286680
1.392000,-0.925196
1.393000,-0.480979
1.394000,-0.192046
1.395000,-0.521709
1.396000,-0.940470
1.397000,-1.405053
1.398000,-1.713078
1.399000,-1.873455
1.400000,-1.864545
1.401000,-1.839088
1.402000,-1.990555
1.403000,-2.134385
1.404000,0.043427
1.405000,0.688752
1.406000,0.786760
1.407000,-0.043125
1.408000,-1.519608
1.409000,-2.866262
1.410000,-3.491222
1.411000,-3.623596
1.412000,-3.383031
1.413000,-2.974453
1.414000,-2.570966
1.415000,-2.041468
1.416000,-1.669802
1.417000,-1.253586
1.418000,-0.670630
1.419000,-0.536983
1.420000,-0.739363
1.421000,-0.912468
1.422000,-1.100847
1.423000,-1.326138
1.424000,-1.405053
1.425000,-1.455966
1.426000,-1.480150
1.427000,-1.083027
1.428000,0.110887
1.429000,0.129980
1.430000,-0.460613
1.431000,-0.664266
1.432000,-0.878102
1.433000,-1.380869
1.434000,-2.045287
1.435000,-2.591331
1.436000,-2.872626
1.437000,-2.971907
1.438000,-2.870081
1.439000,-2.640971
1.440000,-2.464048
1.441000,-2.241303
1.442000,-1.786902
1.443000,-1.534882
1.444000,-1.523426
1.445000,-1.398689
1.446000,-1.346503
1.447000,-1.247222
1.448000,-1.182308
1.449000,-1.052479
1.450000,-1.027023
1.451000,-1.308318
1.452000,-1.366868
1.453000,-0.841190
1.454000,-0.637537
1.455000,-0.491161
1.456000,-1.006657
1.457000,-1.548883
1.458000,-1.961280
1.459000,-2.220937
1.460000,-2.290943
1.461000,-2.012193
1.462000,-1.713078
1.463000,-1.529791
1.464000,-1.537428
1.465000,-1.524699
1.466000,-1.419054
1.467000,-1.296863
1.468000,-1.049934
1.469000,-1.126303
1.470000,-1.183581
1.471000,-1.267588
1.472000,-1.318501
1.473000,-1.440693
1.474000,-1.416509
1.475000,-1.322319
1.476000,-1.293044
1.477000,-1.307045
1.478000,-1.309591
1.479000,-1.281589
1.480000,-1.268860
1.481000,-0.806823
1.482000,-0.715179
1.483000,-0.949380
1.484000,-1.354140
1.485000,-1.819996
1.486000,-2.260395
1.487000,-2.756799
1.488000,-1.636708
1.489000,0.707845
1.490000,2.034133
1.491000,1.785932
1.492000,0.249626
1.493000,-1.593432
1.494000,-2.862444
1.495000,-3.621050
1.496000,-3.893436
1.497000,-3.786518
1.498000,-3.456855
1.499000,-2.946450
1.500000,-2.756799
1.501000,-2.593876
1.502000,-2.569693
1.503000,-2.430954
1.504000,-2.016012
1.505000,-1.597251
1.506000,-1.364323
1.507000,-1.108484
1.508000,-1.140305
1.509000,-1.214129
1.510000,-1.192491
1.511000,-1.295590
1.512000,-1.215402
1.513000,-1.252314
1.514000,-1.341412
1.515000,-1.422873
1.516000,-1.449602
1.517000,-1.410145
1.518000,-1.429237
1.519000,-1.378324
1.520000,-1.361777
1.521000,-1.475059
1.522000,-1.556520
1.523000,-1.537428
1.524000,-1.513244
1.525000,-1.503061
1.526000,-1.541246
1.527000,-1.459785
1.528000,-1.384688
1.529000,-1.420327
1.530000,-1.379597
1.531000,-0.377879
1.532000,-0.218776
1.533000,-0.183136
1.534000,-0.127132
1.535000,-0.808096
1.536000,-1.607433
1.537000,-2.427136
1.538000,-2.926085
1.539000,-0.754637
1.540000,0.455824
1.541000,0.241989
1.542000,-0.789004
1.543000,-1.979100
1.544000,-2.632061
1.545000,-2.786074
1.546000,-2.593876
1.547000,-2.117838
1.548000,-1.755082
1.549000,-1.671075
1.550000,-1.627799
1.551000,-1.430510
1.552000,-1.659619
1.553000,-1.929459
1.554000,-1.786902
1.555000,-1.598523
1.556000,-1.658346
1.557000,-1.693986
1.558000,-1.676166
1.559000,-1.607433
1.560000,-1.551429
1.561000,-1.524699
1.562000,-1.494151
1.563000,-1.450875
1.564000,-1.463603
1.565000,-1.461058
1.566000,-1.497970
1.567000,-1.536155
1.568000,-1.587068
1.569000,-1.569248
1.570000,-1.520881
1.571000,-1.408872
1.572000,-1.416509
1.573000,-1.482696
1.574000,-1.504334
1.575000,-1.513244
1.576000,-1.509425
1.577000,-1.394871
1.578000,-1.309591
1.579000,-0.628627
1.580000,-0.377879
1.581000,-0.757183
1.582000,-1.364323
1.583000,-1.910367
1.584000,-1.547610
1.585000,-0.909922
1.586000,-0.496253
1.587000,-1.281589
1.588000,-1.397416
1.589000,0.143981
1.590000,0.067611
1.591000,-0.328239
1.592000,-1.044842
1.593000,-1.459785
1.594000,-2.078380
1.595000,-2.616787
1.596000,-2.782255
1.597000,-2.758072
1.598000,-2.863716
1.599000,-2.866262
1.600000,-2.671519
1.601000,-2.481867
1.602000,-2.517507
1.603000,-2.262941
1.604000,-2.261668
1.605000,-2.065652
1.606000,-1.817450
1.607000,-1.327411
1.608000,-1.000293
1.609000,-0.894648
1.610000,-0.913741
1.611000,-1.066480
1.612000,-1.132668
1.613000,-1.009203
1.614000,-0.865373
1.615000,-0.860282
1.616000,-0.944289
1.617000,-1.114848
1.618000,-1.285407
1.619000,-1.405053
1.620000,-1.542519
1.621000,-1.651982
1.622000,-1.760173
1.623000,-1.905275
1.624000,-1.710532
1.625000,-1.495424
1.626000,-1.449602
1.627000,-1.490333
1.628000,-1.665983
1.629000,-1.167034
1.630000,-1.209037
1.631000,-1.029568
1.632000,-0.911195
1.633000,-1.192491
1.634000,-1.664711
1.635000,-1.984191
1.636000,-1.487787
1.637000,-0.655356
1.638000,-0.099130
1.639000,-0.108040
1.640000,0.328541
1.641000,-0.320602
1.642000,-1.268860
1.643000,-1.943460
1.644000,-2.436046
1.645000,-2.391497
1.646000,-2.142022
1.647000,-2.027467
1.648000,-2.143295
1.649000,-2.201845
1.650000,-2.120384
1.651000,-1.932005
1.652000,-1.888729
1.653000,-1.967644
1.654000,-1.886183
1.655000,-1.813632
1.656000,-1.697804
1.657000,-1.532336
1.658000,-1.021931
1.659000,-0.767365
1.660000,-0.015123
1.661000,-0.306601
1.662000,-1.013022
1.663000,-1.765264
1.664000,-2.143295
1.665000,-2.322764
1.666000,-2.425863
1.667000,-2.390224
1.668000,-2.288397
1.669000,-2.140749
1.670000,-1.957461
1.671000,-1.900184
1.672000,-1.785629
1.673000,-1.613797
1.674000,-1.532336
1.675000,-1.354140
1.676000,-1.277770
1.677000,-1.271406
1.678000,-1.420327
1.679000,-1.548883
1.680000,-1.616343
1.681000,-1.676166
1.682000,-0.750819
1.683000,-0.031670
1.684000,-0.175499
1.685000,-0.416064
1.686000,-0.735545
1.687000,-0.169135
1.688000,-0.403336
1.689000,-1.002839
1.690000,-1.580704
1.691000,-1.940915
1.692000,-2.184025
1.693000,-2.080926
1.694000,-1.921822
1.695000,-2.152204
1.696000,-1.886183
1.697000,-1.735989
1.698000,-2.010920
1.699000,-2.340583
1.700000,-2.390224
1.701000,-2.052924
1.702000,0.056156
1.703000,0.664568
1.704000,0.738392
1.705000,0.174529
1.706000,-1.057571
1.707000,-2.105110
1.708000,-2.464048
1.709000,-2.955360
1.710000,-3.085189
1.711000,-3.013910
1.712000,-2.866262
1.713000,-2.542963
1.714000,-2.325309
1.715000,-2.306217
1.716000,-2.075835
1.717000,-1.985464
1.718000,-1.784357
1.719000,-1.542519
1.720000,-1.321046
1.721000,-1.221766
1.722000,-1.221766
1.723000,-0.620990
1.724000,0.379454
1.725000,0.364180
1.726000,-0.282417
1.727000,-1.149214
1.728000,-1.929459
1.729000,-2.383860
1.730000,-2.596422
1.731000,-2.357130
1.732000,-2.055469
1.733000,-1.721988
1.734000,-1.491606
1.735000,-1.275225
1.736000,-1.112302
1.737000,-0.927742
1.738000,-0.739363
1.739000,-0.839917
1.740000,-0.950653
1.741000,-1.037205
1.742000,-1.252314
1.743000,-1.364323
1.744000,-1.458512
1.745000,-1.449602
1.746000,-1.483969
1.747000,-1.585795
1.748000,-1.644345
1.749000,-1.510698
1.750000,-1.539973
1.751000,-1.584522
1.752000,-1.640527
1.753000,-1.746172
1.754000,-1.771628
1.755000,-1.737262
1.756000,-1.660892
1.757000,-1.524699
1.758000,-1.417782
1.759000,-1.393598
1.760000,-1.399962
1.761000,-1.338866
1.762000,-0.278599
1.763000,0.021789
1.764000,-0.245505
1.765000,-0.890830
1.766000,-1.629071
1.767000,-2.273123
1.768000,-2.796256
1.769000,-2.976998
1.770000,-2.705886
1.771000,-2.059288
1.772000,-1.832724
1.773000,0.122343
1.774000,1.057873
1.775000,1.097330
1.776000,-0.326966
1.777000,-0.152589
1.778000,-0.893376
1.779000,-1.985464
1.780000,-2.848442
1.781000,-3.053368
1.782000,-2.994818
1.783000,-2.936268
1.784000,-2.800075
1.785000,-2.696976
1.786000,-2.721159
1.787000,-2.588785
1.788000,-2.411862
1.789000,-2.096200
1.790000,-1.812359
1.791000,-1.688894
1.792000,-1.635435
1.793000,-1.455966
1.794000,-1.300681
1.795000,-1.175944
1.796000,-1.137759
1.797000,-1.099574
1.798000,-1.058844
1.799000,-1.055025
1.800000,-1.089391
1.801000,-1.153033
1.802000,-1.140305
1.803000,-1.118667
1.804000,-1.221766
1.805000,-1.281589
1.806000,-1.349049
1.807000,-1.459785
1.808000,-1.654528
1.809000,-1.732171
1.810000,-1.695259
1.811000,-1.621434
1.812000,-1.557793
1.813000,-1.569248
1.814000,-1.524699
1.815000,-1.650709
1.816000,-1.669802
1.817000,-1.581977
1.818000,-1.118667
1.819000,0.072702
1.820000,1.788477
1.821000,2.834743
1.822000,1.437176
1.823000,-0.766093
1.824000,-2.716068
1.825000,-3.990171
1.826000,-4.373293
1.827000,-4.191278
1.828000,-3.731786
1.829000,-3.058459
1.830000,-2.367313
1.831000,-1.930732
1.832000,-1.529791
1.833000,-1.220493
1.834000,-0.776275
1.835000,-0.641355
1.836000,-0.622263
1.837000,-0.548439
1.838000,-0.608262
1.839000,-0.772457
1.840000,-0.995202
1.841000,-1.091937
1.842000,-1.149214
1.843000,-1.231948
1.844000,-1.384688
1.845000,-1.557793
1.846000,-1.669802
1.847000,-1.704168
1.848000,-1.215402
1.849000,-1.014294
1.850000,-1.094483
1.851000,-1.328683
1.852000,-1.639254
1.853000,-1.991828
1.854000,-2.178934
1.855000,-2.237484
1.856000,-2.181480
1.857000,-2.030013
1.858000,-1.896366
1.859000,-1.786902
1.860000,-1.804722
1.861000,-1.876000
1.862000,-1.836543
1.863000,-1.093210
1.864000,-0.869192
1.865000,-1.032114
1.866000,-1.382142
1.867000,-1.807268
1.868000,-2.032558
1.869000,-1.925641
1.870000,-1.007930
1.871000,-0.978655
1.872000,-1.209037
1.873000,-1.531063
1.874000,-1.780538
1.875000,-1.911640
1.876000,-1.989282
1.877000,-1.809813
1.878000,-1.789448
1.879000,-1.695259
1.880000,-1.602342
1.881000,-1.517062
1.882000,-1.603615
1.883000,-1.438147
1.884000,-0.231504
1.885000,0.025608
1.886000,-0.403336
1.887000,-1.090664
1.888000,-1.411417
1.889000,-1.744899
1.890000,-1.892547
1.891000,-1.923095
1.892000,-1.909094
1.893000,-1.197582
1.894000,0.380727
1.895000,1.934853
1.896000,0.860584
1.897000,0.021789
1.898000,-0.254415
1.899000,-1.583249
1.900000,-2.886627
1.901000,-3.607049
1.902000,-3.983807
1.903000,-3.878162
1.904000,-3.549772
1.905000,-3.216290
1.906000,-2.829350
1.907000,-2.411862
1.908000,-2.493323
1.909000,-2.262941
1.910000,-1.858181
1.911000,-1.547610
1.912000,-1.472513
1.913000,-1.425419
1.914000,-1.205219
1.915000,-1.058844
1.916000,-1.015567
1.917000,-1.033387
1.918000,-1.084300
1.919000,-1.125031
1.920000,-1.121212
1.921000,-1.089391
1.922000,-1.112302
1.923000,-1.184854
1.924000,-1.189945
1.925000,-1.095756
1.926000,-1.119939
1.927000,-1.191218
1.928000,-0.909922
1.929000,-0.633718
1.930000,-0.766093
1.931000,-1.102120
1.932000,-1.592159
1.933000,-1.951097
1.934000,-1.690167
1.935000,-0.825916
1.936000,-0.865373
1.937000,-1.112302
1.938000,-1.461058
1.939000,-1.746172
1.940000,-1.919277
1.941000,-2.049105
1.942000,-2.103837
1.943000,-1.965098
1.944000,-1.741080
1.945000,-1.570521
1.946000,-1.774174
1.947000,-1.739808
1.948000,-1.014294
1.949000,-0.521709
1.950000,-0.827188
1.951000,-1.480150
1.952000,-1.952370
1.953000,-2.232393
1.954000,-2.360949
1.955000,-2.184025
1.956000,-1.749990
1.957000,-1.503061
1.958000,-1.457239
1.959000,-0.841190
1.960000,-0.493707
1.961000,-0.841190
1.962000,-1.200128
1.963000,-1.506880
1.964000,-1.777992
1.965000,-1.794539
1.966000,-1.709260
1.967000,-0.953199
1.968000,-0.640082
1.969000,-0.945562
1.970000,-1.155579
1.971000,-1.495424
1.972000,-1.718169
1.973000,-1.864545
1.974000,-2.038923
1.975000,-1.882365
1.976000,-1.704168
1.977000,-1.626526
1.978000,-1.592159
1.979000,0.735847
1.980000,1.136788
1.981000,0.313267
1.982000,-0.795368
1.983000,-1.957461
1.984000,-2.657518
1.985000,-3.069915
1.986000,-3.220109
1.987000,-3.048277
1.988000,-2.354584
1.989000,-1.566703
1.990000,-1.394871
1.991000,-1.655801
1.992000,-2.315127
1.993000,-2.688066
1.994000,-2.649881
1.995000,-2.341856
1.996000,-1.951097
1.997000,-1.536155
1.998000,0.062520
1.999000,0.962411
2.000000,0.410002
2.001000,-0.265870
2.002000,-1.228130
2.003000,-1.970190
2.004000,-2.597695
2.005000,-2.938813
2.006000,-2.909538
2.007000,-2.738979
2.008000,-2.479322
2.009000,-2.212027
2.010000,-1.946006
2.011000,-1.794539
2.012000,-1.004112
2.013000,-0.175499
2.014000,-0.213684
2.015000,-0.430065
2.016000,-0.720271
2.017000,-1.132668
2.018000,-1.650709
2.019000,-1.797085
2.020000,-1.695259
2.021000,-1.557793
2.022000,-1.338866
2.023000,-1.046115
2.024000,-0.920105
2.025000,-0.979928
2.026000,-1.051207
2.027000,-1.181035
2.028000,-1.391052
2.029000,-1.461058
2.030000,-1.542519
2.031000,-0.785185
2.032000,-0.615899
2.033000,-1.051207
2.034000,-1.490333
2.035000,-1.775447
2.036000,-2.051651
2.037000,-2.092381
2.038000,-1.876000
2.039000,-1.763991
2.040000,-1.743626
2.041000,-1.688894
2.042000,-1.569248
2.043000,-1.503061
2.044000,-1.406326
2.045000,-1.076663
2.046000,-0.227686
2.047000,-0.324421
2.048000,-0.741909
2.049000,-1.223039
2.050000,-1.388506
2.051000,-1.001566
2.052000,-1.453421
2.053000,-2.007102
2.054000,-2.475503
2.055000,-2.961724
2.056000,-2.257849
2.057000,-1.168307
2.058000,-1.370687
2.059000,-1.855635
2.060000,-2.301126
2.061000,-2.500960
2.062000,-2.439864
2.063000,-2.341856
2.064000,-2.433500
2.065000,-2.478049
2.066000,-2.290943
2.067000,-1.914185
2.068000,-1.444511
2.069000,-1.282862
2.070000,-1.074117
2.071000,-0.175499
2.072000,1.099876
2.073000,1.624282
2.074000,1.057873
2.075000,0.384546
2.076000,-0.609535
2.077000,-1.609979
2.078000,-2.363494
2.079000,-2.973180
2.080000,-3.300297
2.081000,-3.160286
2.082000,-2.727524
2.083000,-2.266759
2.084000,-2.089836
2.085000,-2.111474
2.086000,-1.938369
2.087000,-1.990555
2.088000,-1.909094
2.089000,-1.593432
2.090000,-1.300681
2.091000,-1.225584
2.092000,-1.224311
2.093000,-1.268860
2.094000,-1.422873
2.095000,-1.440693
2.096000,-1.231948
2.097000,-1.112302
2.098000,-1.262496
2.099000,-1.433056
2.100000,-0.726635
2.101000,-0.470796
2.102000,0.359089
2.103000,0.226715
2.104000,-0.394426
2.105000,-1.039751
2.106000,-1.500516
2.107000,-1.934551
2.108000,-2.079653
2.109000,-2.157296
2.110000,-2.195481
2.111000,-2.294761
2.112000,-2.273123
2.113000,-2.142022
2.114000,-2.194208
2.115000,-2.247667
2.116000,-1.960007
2.117000,-1.609979
2.118000,-1.457239
2.119000,-1.444511
2.120000,-1.463603
2.121000,-1.522154
2.122000,-1.541246
2.123000,-1.573067
2.124000,-1.546337
2.125000,-1.529791
2.126000,-1.546337
2.127000,-1.580704
2.128000,-0.054581
2.129000,0.622565
2.130000,0.627656
2.131000,-0.161498
2.132000,-1.093210
2.133000,-1.872182
2.134000,-2.390224
2.135000,-2.681702
2.136000,-2.735161
2.137000,-2.662609
2.138000,-2.401679
2.139000,-2.269305
2.140000,-1.953643
2.141000,-1.995646
2.142000,-1.963826
2.143000,-1.177217
2.144000,-0.552257
2.145000,-0.320602
2.146000,-0.212412
2.147000,-0.772457
2.148000,-1.537428
2.149000,-2.035104
2.150000,-2.180207
2.151000,-1.221766
2.152000,0.571652
2.153000,0.473644
2.154000,-0.223867
2.155000,-1.033387
2.156000,-1.822541
2.157000,-2.400406
2.158000,-2.763163
2.159000,-2.704613
2.160000,-2.420772
2.161000,-2.115292
2.162000,-2.181480
2.163000,-2.344402
2.164000,-2.551873
2.165000,-2.699521
2.166000,-2.526416
2.167000,-2.255304
2.168000,-1.963826
2.169000,-1.770355
2.170000,-1.621434
2.171000,-1.416509
2.172000,-1.496697
2.173000,-1.559066
2.174000,-1.601069
2.175000,-1.520881
2.176000,-1.354140
2.177000,-1.242131
2.178000,-1.108484
2.179000,-0.996475
2.180000,-0.494980
2.181000,-0.417337
2.182000,-0.682086
2.183000,-0.963381
2.184000,-1.267588
2.185000,-1.492879
2.186000,-1.374505
2.187000,-1.315955
2.188000,-1.163216
2.189000,-0.329512
2.190000,-0.414792
2.191000,-0.974837
2.192000,-0.631173
2.193000,-0.837371
2.194000,-1.368141
2.195000,-1.800903
2.196000,-2.069471
2.197000,-2.018557
2.198000,-2.005829
2.199000,-2.035104
2.200000,-1.858181
2.201000,-1.477605
2.202000,-1.080482
2.203000,-1.163216
2.204000,-1.383415
2.205000,-1.685076
2.206000,-1.893820
2.207000,-1.788175
2.208000,-1.732171
2.209000,-1.877273
2.210000,-1.839088
2.211000,-1.589614
2.212000,-1.094483
2.213000,-1.047388
2.214000,-1.094483
2.215000,-1.195036
2.216000,-1.305773
2.217000,-1.266315
2.218000,-0.036761
2.219000,0.357816
2.220000,-0.185682
2.221000,-1.191218
2.222000,-1.836543
2.223000,-2.264214
2.224000,-2.503506
2.225000,-2.511143
2.226000,-2.586239
2.227000,-2.472958
2.228000,-2.278215
2.229000,-2.248940
2.230000,-2.360949
2.231000,-2.312581
2.232000,-2.254031
2.233000,-2.088563
2.234000,-1.864545
2.235000,-1.536155
2.236000,-1.403780
2.237000,-1.392325
2.238000,-1.336320
2.239000,-1.445784
2.240000,-1.448329
2.241000,0.304357
2.242000,0.931863
2.243000,0.350179
2.244000,-0.515345
2.245000,-1.328683
2.246000,-1.887456
2.247000,-2.073289
2.248000,-2.175115
2.249000,-1.957461
2.250000,-0.664266
2.251000,-0.020214
2.252000,-0.470796
2.253000,-1.131395
2.254000,-1.868363
2.255000,-2.499687
2.256000,-2.777164
2.257000,-2.765709
2.258000,-2.534053
2.259000,-2.176388
2.260000,-2.007102
2.261000,-1.947279
2.262000,-1.977827
2.263000,-1.853089
2.264000,-1.640527
2.265000,-1.556520
2.266000,-1.254859
2.267000,-1.071572
2.268000,-0.609535
2.269000,-0.185682
2.270000,0.861857
2.271000,0.835128
2.272000,-0.071127
2.273000,-1.109757
2.274000,-2.059288
2.275000,-2.862444
2.276000,-3.185742
2.277000,-3.131011
2.278000,-2.843351
2.279000,-2.570966
2.280000,-2.233666
2.281000,-1.982918
2.282000,-1.511971
2.283000,-1.153033
2.284000,-1.159397
2.285000,-1.300681
2.286000,-1.543792
2.287000,-1.626526
2.288000,-1.570521
2.289000,-1.673620
2.290000,-1.695259
2.291000,-1.644345
2.292000,-1.565430
2.293000,-1.426691
2.294000,-1.317228
2.295000,-1.272679
2.296000,-1.173398
2.297000,-1.094483
2.298000,-1.165761
2.299000,-1.322319
2.300000,-0.352423
2.301000,0.980230
2.302000,0.631475
2.303000,-0.430065
2.304000,-1.590886
2.305000,-2.461502
2.306000,-2.950269
2.307000,-3.013910
2.308000,-2.873899
2.309000,-2.512415
2.310000,-2.135658
2.311000,-1.953643
2.312000,-1.825087
2.313000,-1.678712
2.314000,-1.533609
2.315000,-1.310864
2.316000,-1.081754
2.317000,-0.934106
2.318000,-1.024477
2.319000,-1.112302
2.320000,-1.221766
2.321000,-1.299408
2.322000,-1.312137
2.323000,-1.371960
2.324000,-1.296863
2.325000,-1.198855
2.326000,-1.258678
2.327000,-1.285407
2.328000,-1.369414
2.329000,-1.467422
2.330000,-1.585795
2.331000,-1.181035
2.332000,-0.768638
2.333000,-0.867919
2.334000,-1.231948
2.335000,-0.853918
2.336000,-0.213684
2.337000,-0.567531
2.338000,-1.215402
2.339000,-2.181480
2.340000,-2.877718
2.341000,-3.145012
2.342000,-3.118282
2.343000,-3.016456
2.344000,-2.812803
2.345000,-2.430954
2.346000,-2.038923
2.347000,-1.879819
2.348000,-1.753809
2.349000,-1.439420
2.350000,-1.195036
2.351000,-1.023204
2.352000,-1.076663
2.353000,-1.027023
2.354000,-0.917559
2.355000,-0.531892
2.356000,0.160528
2.357000,0.314540
2.358000,-0.227686
2.359000,-1.081754
2.360000,-1.828906
2.361000,-2.168751
2.362000,-2.294761
2.363000,-2.270578
2.364000,-2.150932
2.365000,-2.028740
2.366000,-1.597251
2.367000,-1.238313
2.368000,-1.083027
2.369000,-1.076663
2.370000,-1.142850
2.371000,-1.308318
2.372000,-1.352867
2.373000,-1.472513
2.374000,-1.532336
2.375000,-1.021931
2.376000,0.337451
2.377000,0.416366
2.378000,-0.371515
2.379000,-1.308318
2.380000,-2.143295
2.381000,-2.105110
2.382000,-1.967644
2.383000,-2.374950
2.384000,-2.182752
2.385000,-2.208209
2.386000,-2.279487
2.387000,-2.395315
2.388000,-2.563329
2.389000,-2.661336
2.390000,-2.600241
2.391000,-1.590886
2.392000,-0.908650
2.393000,-0.983747
2.394000,-1.277770
2.395000,-1.228130
2.396000,-0.689723
2.397000,-0.876829
2.398000,-1.177217
2.399000,-1.613797
2.400000,-1.886183
2.401000,-1.869636
2.402000,-1.995646
2.403000,-2.068198
2.404000,-2.130566
2.405000,-2.075835
2.406000,-1.918004
2.407000,-1.679985
2.408000,-1.545065
2.409000,-1.412690
2.410000,-1.310864
2.411000,-1.254859
2.412000,-1.273952
2.413000,-1.265042
2.414000,-1.312137
2.415000,-1.449602
2.416000,-1.471240
2.417000,-1.508152
2.418000,-1.249768
2.419000,-0.955744
2.420000,-1.071572
2.421000,-1.299408
2.422000,-1.287953
2.423000,-1.072845
2.424000,-0.416064
2.425000,-0.506435
2.426000,-0.865373
2.427000,-1.111030
2.428000,-1.471240
2.429000,-1.634163
2.430000,-1.733443
2.431000,-1.990555
2.432000,-2.242575
2.433000,-2.297307
2.434000,-2.079653
2.435000,-1.835270
2.436000,-1.613797
2.437000,-1.505607
2.438000,-1.137759
2.439000,-1.028296
2.440000,-0.934106
2.441000,-0.962108
2.442000,-1.168307
2.443000,-1.490333
2.444000,-1.635435
2.445000,-1.637981
2.446000,-1.648164
2.447000,-1.679985
2.448000,-1.301954
2.449000,-0.725362
2.450000,-0.845008
2.451000,0.028153
2.452000,-0.531892
2.453000,-1.467422
2.454000,-2.437318
2.455000,-3.137375
2.456000,-3.321935
2.457000,-3.061005
2.458000,-2.565874
2.459000,-2.002011
2.460000,-1.620162
2.461000,-1.300681
2.462000,-1.149214
2.463000,-1.192491
2.464000,-1.177217
2.465000,-1.181035
2.466000,-1.136486
2.467000,-0.945562
2.468000,-0.935379
2.469000,-1.184854
2.470000,-1.321046
2.471000,-1.408872
2.472000,-0.808096
2.473000,-0.526801
2.474000,-0.860282
2.475000,-0.964654
2.476000,-0.997748
2.477000,-1.043570
2.478000,-0.530619
2.479000,-0.841190
2.480000,-1.527245
2.481000,-0.572622
2.482000,-0.615899
2.483000,-1.263769
2.484000,-1.887456
2.485000,-2.484413
2.486000,-2.955360
2.487000,-3.133556
2.488000,-3.162831
2.489000,-2.988454
2.490000,-2.632061
2.491000,-2.448774
2.492000,-2.194208
2.493000,-1.811086
2.494000,-1.621434
2.495000,-1.419054
2.496000,-1.233221
2.497000,-1.327411
2.498000,-1.223039
2.499000,-0.997748
2.500000,-0.859009
2.501000,-0.894648
2.502000,-0.978655
2.503000,-1.103393
2.504000,-1.093210
2.505000,-1.205219
2.506000,-1.380869
2.507000,-1.560339
2.508000,-1.724534
2.509000,-1.923095
2.510000,-2.024921
2.511000,-1.010476
2.512000,-0.053308
2.513000,1.048963
2.514000,1.041326
2.515000,-0.277326
2.516000,-1.803449
2.517000,-2.830623
2.518000,-3.501404
2.519000,-3.507768
2.520000,-3.353756
2.521000,-2.955360
2.522000,-2.517507
2.523000,-2.217119
2.524000,-1.965098
2.525000,-1.797085
2.526000,-1.459785
2.527000,-1.245950
2.528000,-1.286680
2.529000,-1.253586
2.530000,-1.066480
2.531000,-1.046115
2.532000,-1.081754
2.533000,-0.993929
2.534000,-1.225584
2.535000,-0.297691
2.536000,0.870767
2.537000,0.367999
2.538000,-0.589169
2.539000,-1.503061
2.540000,-2.296034
2.541000,-2.817895
2.542000,-2.736433
2.543000,-2.559510
2.544000,-2.344402
2.545000,-1.943460
2.546000,-1.041024
2.547000,-0.948107
2.548000,-1.221766
2.549000,-1.608706
2.550000,-1.890001
2.551000,-1.925641
2.552000,-1.760173
2.553000,-1.555247
2.554000,-1.515789
2.555000,-1.401235
2.556000,-1.137759
2.557000,-0.941743
2.558000,-0.965927
2.559000,-1.049934
2.560000,-1.167034
2.561000,-1.235767
2.562000,-1.315955
2.563000,-1.374505
2.564000,-1.406326
2.565000,-1.397416
2.566000,-1.555247
2.567000,-1.707987
2.568000,-1.500516
2.569000,-0.175499
2.570000,0.005242
2.571000,-0.482252
2.572000,-1.183581
2.573000,-1.822541
2.574000,-2.285852
2.575000,-2.457684
2.576000,-2.402952
2.577000,-2.170024
2.578000,-0.259506
2.579000,0.791851
2.580000,0.407457
2.581000,-0.508981
2.582000,-1.602342
2.583000,-2.516234
2.584000,-2.950269
2.585000,-3.031730
2.586000,-2.943905
2.587000,-2.325309
2.588000,-1.589614
2.589000,-1.583249
2.590000,-1.863272
2.591000,-2.270578
2.592000,-2.520052
2.593000,-1.953643
2.594000,-1.807268
2.595000,-1.821269
2.596000,-1.842907
2.597000,-1.888729
2.598000,-1.915458
2.599000,-1.277770
2.600000,-0.629900
2.601000,-0.636264
2.602000,-0.932833
2.603000,-1.267588
2.604000,-1.468695
2.605000,-1.307045
2.606000,-1.508152
2.607000,-1.841634
2.608000,-1.947279
2.609000,-1.911640
2.610000,-1.822541
2.611000,-1.714351
2.612000,-1.641800
2.613000,-1.342685
2.614000,-1.135213
2.615000,-1.245950
2.616000,-0.330785
2.617000,-0.324421
2.618000,-0.906104
2.619000,-1.384688
2.620000,-2.005829
2.621000,-2.172570
2.622000,-2.156023
2.623000,-1.804722
2.624000,-0.642628
2.625000,-0.544620
2.626000,-0.346059
2.627000,-0.640082
2.628000,-1.235767
2.629000,-1.831451
2.630000,-2.224756
2.631000,-2.488232
2.632000,-2.283306
2.633000,-1.981645
2.634000,-1.679985
2.635000,-1.463603
2.636000,-1.434328
2.637000,-1.471240
2.638000,-1.511971
2.639000,-1.419054
2.640000,-1.410145
2.641000,-1.252314
2.642000,-1.165761
2.643000,-1.276497
2.644000,-1.406326
2.645000,-1.602342
2.646000,-1.594705
2.647000,-1.636708
2.648000,-1.659619
2.649000,-1.641800
2.650000,-1.640527
2.651000,-1.608706
2.652000,-1.578158
2.653000,-1.369414
2.654000,-0.120768
2.655000,1.372262
2.656000,1.104967
2.657000,0.598381
2.658000,-0.618444
2.659000,-1.771628
2.660000,-2.512415
2.661000,-2.783528
2.662000,-2.671519
2.663000,-2.433500
2.664000,-1.742353
2.665000,-0.436430
2.666000,-0.449158
2.667000,-1.055025
2.668000,-1.790721
2.669000,-1.854362
2.670000,-2.238757
2.671000,-2.516234
2.672000,-2.980817
2.673000,-3.198471
2.674000,-3.258294
2.675000,-3.173014
2.676000,-2.926085
2.677000,-2.583694
2.678000,-2.354584
2.679000,-1.957461
2.680000,-1.541246
2.681000,-1.293044
2.682000,-1.209037
2.683000,-1.188672
2.684000,-1.195036
2.685000,-1.223039
2.686000,-1.159397
2.687000,-1.055025
2.688000,-0.999020
2.689000,-0.951926
2.690000,-0.907377
2.691000,-1.030841
2.692000,-1.294317
2.693000,-1.433056
2.694000,-1.378324
2.695000,-0.776275
2.696000,0.098159
2.697000,0.150345
2.698000,0.738392
2.699000,1.099876
2.700000,0.220351
2.701000,-1.419054
2.702000,-2.675338
2.703000,-3.529407
2.704000,-3.833613
2.705000,-3.391941
2.706000,-2.971907
2.707000,-2.878990
2.708000,-2.763163
2.709000,-2.326582
2.710000,-1.743626
2.711000,-1.419054
2.712000,-1.195036
2.713000,-0.991384
2.714000,-0.773730
2.715000,-0.818279
2.716000,-0.870465
2.717000,-0.884466
2.718000,-0.929015
2.719000,-0.954471
2.720000,-1.077936
2.721000,-1.183581
2.722000,-1.249768
2.723000,-1.256132
2.724000,-1.248495
2.725000,-1.253586
2.726000,-1.271406
2.727000,-1.312137
2.728000,-1.392325
2.729000,-1.388506
2.730000,-1.420327
2.731000,-1.515789
2.732000,-1.719442
2.733000,-1.789448
2.734000,-1.826360
2.735000,-1.798358
2.736000,-1.601069
2.737000,-1.070299
2.738000,-0.862828
2.739000,-0.941743
2.740000,-1.125031
2.741000,-1.441965
2.742000,-1.769083
2.743000,-1.898911
2.744000,-1.946006
2.745000,-1.901457
2.746000,-1.878546
2.747000,-1.341412
2.748000,-1.350322
2.749000,-1.524699
2.750000,-1.779265
2.751000,-0.156407
2.752000,0.613655
2.753000,0.331087
2.754000,-0.539529
2.755000,-1.649437
2.756000,-2.696976
2.757000,-3.170468
2.758000,-3.206108
2.759000,-3.095371
2.760000,-2.820440
2.761000,-2.494596
2.762000,-2.055469
2.763000,-1.928186
2.764000,-1.669802
2.765000,-1.188672
2.766000,-0.902285
2.767000,-1.032114
2.768000,-1.141577
2.769000,-1.356686
2.770000,-1.573067
2.771000,-1.823814
2.772000,-0.918832
2.773000,-0.517891
2.774000,-0.833553
2.775000,-1.439420
2.776000,-1.962553
2.777000,-2.096200
2.778000,-2.154750
2.779000,-1.555247
2.780000,-0.015123
2.781000,0.989140
2.782000,0.478735
2.783000,-0.419883
2.784000,-1.298136
2.785000,-2.047832
2.786000,-2.623152
2.787000,-2.656245
2.788000,-2.411862
2.789000,-2.156023
2.790000,-2.213300
2.791000,-2.111474
2.792000,-2.103837
2.793000,-2.046560
2.794000,-2.066925
2.795000,-1.925641
2.796000,-1.780538
2.797000,-1.519608
2.798000,-1.337593
2.799000,-1.160670
2.800000,-1.133940
2.801000,-1.299408
2.802000,-1.422873
2.803000,-1.361777
2.804000,-1.287953
2.805000,-1.453421
2.806000,-1.620162
2.807000,-1.387234
2.808000,-0.506435
2.809000,-0.650265
2.810000,-1.007930
2.811000,-1.458512
2.812000,-1.685076
2.813000,-1.867091
2.814000,-1.938369
2.815000,-1.963826
2.816000,-2.065652
2.817000,-1.985464
2.818000,-1.763991
2.819000,-1.654528
2.820000,-1.569248
2.821000,-1.452148
2.822000,-0.823370
2.823000,-0.408427
2.824000,0.053610
2.825000,0.159255
2.826000,-0.343513
2.827000,0.054883
2.828000,-0.339695
2.829000,-1.427964
2.830000,-2.171297
2.831000,-2.724978
2.832000,-2.940086
2.833000,-2.975725
2.834000,-2.694430
2.835000,-2.390224
2.836000,-2.056742
2.837000,-1.010476
2.838000,-0.486070
2.839000,-0.544620
2.840000,-0.820824
2.841000,-1.093210
2.842000,-0.535710
2.843000,-0.305328
2.844000,-0.548439
2.845000,-1.133940
2.846000,-1.527245
2.847000,-1.861999
2.848000,-2.101291
2.849000,-2.243848
2.850000,-2.418226
2.851000,-2.387678
2.852000,-2.471685
2.853000,-2.480595
2.854000,-2.289670
2.855000,-2.070743
2.856000,-1.822541
2.857000,-1.809813
2.858000,-2.009648
2.859000,-1.939642
2.860000,-0.246778
2.861000,-0.242959
2.862000,-0.195865
2.863000,-0.417337
2.864000,-1.461058
2.865000,-2.315127
2.866000,-2.915902
2.867000,-3.295206
2.868000,-3.459401
2.869000,-2.433500
2.870000,-0.977382
2.871000,-0.683359
2.872000,-0.366424
2.873000,-0.594261
2.874000,-0.819551
2.875000,-1.321046
2.876000,-1.738535
2.877000,-1.763991
2.878000,-1.287953
2.879000,-0.804278
2.880000,-0.945562
2.881000,-1.206492
2.882000,-1.371960
2.883000,-1.665983
2.884000,-1.896366
2.885000,-1.904003
2.886000,-1.809813
2.887000,-1.688894
2.888000,-1.623980
2.889000,-1.495424
2.890000,-1.380869
2.891000,-1.402508
2.892000,-1.299408
2.893000,-1.242131
2.894000,-1.296863
2.895000,-1.233221
2.896000,-1.137759
2.897000,-1.098301
2.898000,-1.153033
2.899000,-1.175944
2.900000,-1.309591
2.901000,-1.481423
2.902000,-1.081754
2.903000,-0.053308
2.904000,-0.338422
2.905000,-0.963381
2.906000,-1.658346
2.907000,-2.224756
2.908000,-2.238757
2.909000,-2.270578
2.910000,-2.350766
2.911000,-2.303671
2.912000,-2.156023
2.913000,-2.056742
2.914000,-1.985464
2.915000,-1.697804
2.916000,-1.545065
2.917000,-0.645174
2.918000,-0.764820
2.919000,-1.305773
2.920000,-1.266315
2.921000,-0.923924
2.922000,-1.287953
2.923000,-1.707987
2.924000,-2.091109
2.925000,-2.405498
2.926000,-2.237484
2.927000,-1.711805
2.928000,-0.650265
2.929000,0.388364
2.930000,0.126161
2.931000,-0.666812
2.932000,0.178347
2.933000,-0.465705
2.934000,-1.331229
2.935000,-2.051651
2.936000,-2.709704
2.937000,-3.235383
2.938000,-3.384304
2.939000,-3.391941
2.940000,-3.253202
2.941000,-2.834441
2.942000,-2.383860
2.943000,-2.028740
2.944000,-1.524699
2.945000,-1.125031
2.946000,-0.879374
2.947000,-0.753364
2.948000,-0.764820
2.949000,-0.813187
2.950000,-0.971018
2.951000,-0.999020
2.952000,-0.935379
2.953000,-0.967200
2.954000,-0.949380
2.955000,-1.041024
2.956000,-1.258678
2.957000,-1.391052
2.958000,-1.509425
2.959000,-1.678712
2.960000,-1.929459
2.961000,-1.888729
2.962000,-1.790721
2.963000,-1.663438
2.964000,-1.557793
2.965000,-1.370687
2.966000,-1.321046
2.967000,-1.347776
2.968000,-1.366868
2.969000,-1.452148
2.970000,-1.192491
2.971000,-0.500071
2.972000,-0.634991
2.973000,-0.111858
2.974000,-0.010032
2.975000,-0.949380
2.976000,-1.616343
2.977000,-1.281589
2.978000,-1.821269
2.979000,-1.818723
2.980000,-2.063106
2.981000,-2.483140
2.982000,-2.747889
2.983000,-1.671075
2.984000,-1.090664
2.985000,-1.259951
2.986000,-1.724534
2.987000,-2.382587
2.988000,-2.461502
2.989000,-2.601513
2.990000,-2.581148
2.991000,-2.443683
2.992000,-2.145840
2.993000,-1.918004
2.994000,-1.765264
2.995000,-1.817450
2.996000,-1.770355
2.997000,-1.450875
2.998000,-1.298136
2.999000,-0.538256
3.000000,-0.374061
3.001000,-0.614626
3.002000,-0.960836
3.003000,-1.261223
3.004000,-1.483969
3.005000,-1.608706
3.006000,-1.701623
3.007000,-1.728352
3.008000,-1.623980
3.009000,-1.538700
3.010000,-1.629071
3.011000,-1.590886
3.012000,-1.426691
3.013000,-1.214129
3.014000,-1.091937
3.015000,-1.116121
3.016000,-1.103393
3.017000,-1.117394
3.018000,-1.074117
3.019000,-1.133940
3.020000,-1.207765
3.021000,-1.307045
3.022000,-1.234494
3.023000,-1.296863
3.024000,-1.336320
3.025000,-1.193763
3.026000,-1.135213
3.027000,-1.139032
3.028000,-1.305773
3.029000,-1.532336
3.030000,-1.331229
3.031000,1.792296
3.032000,3.194954
3.033000,2.692186
3.034000,0.500373
3.035000,-1.575612
3.036000,-3.474675
3.037000,-4.585855
3.038000,-5.107716
3.039000,-5.063167
3.040000,-4.588401
3.041000,-3.945622
3.042000,-2.819167
3.043000,-1.748717
3.044000,-1.781811
3.045000,-1.724534
3.046000,-1.667256
3.047000,-1.016840
3.048000,-0.853918
3.049000,-0.808096
3.050000,-0.450431
3.051000,-0.833553
3.052000,-1.431783
3.053000,-1.856908
3.054000,-2.106383
3.055000,-2.209482
3.056000,-2.469139
3.057000,-1.543792
3.058000,-1.245950
3.059000,-1.417782
3.060000,-1.748717
3.061000,-2.120384
3.062000,-2.364767
3.063000,-2.264214
3.064000,-1.960007
3.065000,-1.707987
3.066000,-1.625253
3.067000,-1.601069
3.068000,-1.267588
3.069000,-0.590442
3.070000,-0.577714
3.071000,-0.827188
3.072000,-1.037205
3.073000,-0.878102
3.074000,-0.208593
3.075000,-0.367697
3.076000,-0.824643
3.077000,-1.412690
3.078000,-1.790721
3.079000,-1.374505
3.080000,0.355271
3.081000,1.099876
3.082000,0.236897
3.083000,-0.676995
3.084000,-1.293044
3.085000,-1.984191
3.086000,-2.831896
3.087000,-3.078825
3.088000,-3.020275
3.089000,-2.593876
3.090000,-2.352039
3.091000,-2.117838
3.092000,-2.105110
3.093000,-2.060561
3.094000,-1.999465
3.095000,-1.900184
3.096000,-1.828906
3.097000,-1.293044
3.098000,-1.121212
3.099000,-1.279043
3.100000,-1.388506
3.101000,-1.603615
3.102000,-1.121212
3.103000,-0.845008
3.104000,-0.845008
3.105000,-1.020659
3.106000,-1.337593
3.107000,-1.673620
3.108000,-1.769083
3.109000,-1.608706
3.110000,-1.506880
3.111000,-1.377051
3.112000,-1.491606
3.113000,-1.553974
3.114000,-1.603615
3.115000,-1.589614
3.116000,-1.609979
3.117000,-1.396143
3.118000,-1.457239
3.119000,-1.408872
3.120000,-1.047388
3.121000,-1.147942
3.122000,-1.575612
3.123000,-1.524699
3.124000,-0.873010
3.125000,-1.015567
3.126000,-1.457239
3.127000,-0.040580
3.128000,0.964956
3.129000,0.929317
3.130000,-0.081310
3.131000,-1.615070
3.132000,-2.996091
3.133000,-3.836159
3.134000,-4.128909
3.135000,-3.864161
3.136000,-3.241747
3.137000,-2.632061
3.138000,-2.243848
3.139000,-2.122929
3.140000,-1.613797
3.141000,-1.239585
3.142000,-1.141577
3.143000,-1.067753
3.144000,-0.907377
3.145000,-1.084300
3.146000,-1.225584
3.147000,-1.231948
3.148000,-1.371960
3.149000,-1.450875
3.150000,-1.483969
3.151000,-1.546337
3.152000,-1.861999
3.153000,-1.907821
3.154000,-1.774174
3.155000,-1.508152
3.156000,-1.421600
3.157000,-1.273952
3.158000,-1.169580
3.159000,-1.225584
3.160000,0.229260
3.161000,0.469825
3.162000,-0.171681
3.163000,-1.121212
3.164000,-2.010920
3.165000,-2.461502
3.166000,-2.461502
3.167000,-2.219664
3.168000,-1.845452
3.169000,-1.604888
3.170000,-1.653255
3.171000,-1.649437
3.172000,-1.511971
3.173000,-1.290499
3.174000,-1.355413
3.175000,-1.477605
3.176000,-1.486514
3.177000,-1.077936
3.178000,-0.236595
3.179000,-0.424974
3.180000,-1.038478
3.181000,-1.551429
3.182000,-1.881092
3.183000,-2.120384
3.184000,-2.145840
3.185000,-2.087290
3.186000,-2.082199
3.187000,-1.767810
3.188000,-0.200956
3.189000,0.048519
3.190000,-0.582805
3.191000,-1.383415
3.192000,-1.984191
3.193000,-2.399133
3.194000,-2.527689
3.195000,-2.490777
3.196000,-2.237484
3.197000,-1.252314
3.198000,-0.969745
3.199000,-1.004112
3.200000,-0.866646
3.201000,-1.228130
3.202000,-1.338866
3.203000,-0.726635
3.204000,-0.141133
3.205000,-0.853918
3.206000,-1.634163
3.207000,-2.299853
3.208000,-2.764436
3.209000,-2.965543
3.210000,-3.020275
3.211000,-2.777164
3.212000,-2.388951
3.213000,-1.998192
3.214000,-1.578158
3.215000,-1.356686
3.216000,-1.506880
3.217000,-1.576885
3.218000,-1.286680
3.219000,-1.220493
3.220000,-1.126303
3.221000,-0.953199
3.222000,-0.379152
3.223000,-0.209866
3.224000,-0.268416
3.225000,-0.781367
3.226000,-1.416509
3.227000,-1.925641
3.228000,-2.054197
3.229000,-2.044014
3.230000,-0.974837
3.231000,-0.240414
3.232000,-0.202229
3.233000,-0.848827
3.234000,-1.402508
3.235000,-1.086846
3.236000,-1.084300
3.237000,-1.433056
3.238000,-1.901457
3.239000,-2.354584
3.240000,-2.733888
3.241000,-2.870081
3.242000,-2.495869
3.243000,-1.529791
3.244000,-1.164488
3.245000,-1.417782
3.246000,-1.640527
3.247000,-2.111474
3.248000,-2.278215
3.249000,-2.247667
3.250000,-2.091109
3.251000,-1.952370
3.252000,-1.741080
3.253000,-1.517062
3.254000,-1.433056
3.255000,-1.514517
3.256000,-1.556520
3.257000,-1.496697
3.258000,-1.350322
3.259000,-1.075390
3.260000,-1.080482
3.261000,-1.155579
3.262000,-1.228130
3.263000,-0.857736
3.264000,0.543649
3.265000,0.889859
3.266000,0.690025
3.267000,0.309449
3.268000,-0.662993
3.269000,-1.783084
3.270000,-2.526416
3.271000,-2.947723
3.272000,-3.080098
3.273000,-2.933722
3.274000,-2.614242
3.275000,-2.401679
3.276000,-2.289670
3.277000,-2.212027
3.278000,-1.812359
3.279000,-1.584522
3.280000,-1.254859
3.281000,-0.977382
3.282000,-0.642628
3.283000,-0.414792
3.284000,0.935681
3.285000,1.000595
3.286000,0.054883
3.287000,-0.991384
3.288000,-1.986737
3.289000,-2.626970
3.290000,-2.876445
3.291000,-2.878990
3.292000,-2.738979
3.293000,-2.382587
3.294000,-2.075835
3.295000,-1.895093
3.296000,-1.921822
3.297000,-0.678267
3.298000,-0.558621
3.299000,-0.898467
3.300000,-1.332502
3.301000,-1.058844
3.302000,-1.487787
3.303000,-2.079653
3.304000,-2.604059
3.305000,-2.727524
3.306000,-2.070743
3.307000,-1.602342
3.308000,-1.618889
3.309000,-1.721988
3.310000,-1.776720
3.311000,-1.657074
3.312000,-1.494151
3.313000,-1.275225
3.314000,-0.874283
3.315000,0.224169
3.316000,0.585653
3.317000,0.478735
3.318000,-0.081310
3.319000,-1.196309
3.320000,-2.124202
3.321000,-2.873899
3.322000,-3.157740
3.323000,-3.025366
3.324000,-2.768254
3.325000,-2.427136
3.326000,-2.018557
3.327000,-1.701623
3.328000,-1.621434
3.329000,-1.665983
3.330000,-1.763991
3.331000,-0.748273
3.332000,0.081612
3.333000,-0.063490
3.334000,-0.529346
3.335000,-1.112302
3.336000,-1.706714
3.337000,-2.079653
3.338000,-2.138203
3.339000,-2.055469
3.340000,-1.607433
3.341000,-1.291771
3.342000,-1.443238
3.343000,-1.494151
3.344000,-1.639254
3.345000,-1.734716
3.346000,-1.741080
3.347000,-1.589614
3.348000,-1.399962
3.349000,-1.254859
3.350000,-1.219220
3.351000,-1.196309
3.352000,-1.127576
3.353000,-1.041024
3.354000,-0.729181
3.355000,-0.836098
3.356000,-0.776275
3.357000,-0.111858
3.358000,-0.568804
3.359000,-1.133940
3.360000,-1.775447
3.361000,-2.410589
3.362000,-2.794984
3.363000,-2.838260
3.364000,-2.817895
3.365000,-2.402952
3.366000,-1.783084
3.367000,-1.671075
3.368000,-1.788175
3.369000,-0.857736
3.370000,-0.781367
3.371000,-0.930288
3.372000,-1.249768
3.373000,-1.822541
3.374000,-2.154750
3.375000,-2.047832
3.376000,-1.555247
3.377000,-1.463603
3.378000,-1.473786
3.379000,-1.373233
3.380000,-1.405053
3.381000,-0.419883
3.382000,0.040882
3.383000,-0.175499
3.384000,-0.562440
3.385000,-0.382971
3.386000,-0.951926
3.387000,-0.598079
3.388000,-1.175944
3.389000,-2.133112
3.390000,-2.876445
3.391000,-3.258294
3.392000,-3.053368
3.393000,-2.662609
3.394000,-2.681702
3.395000,-1.606160
3.396000,-0.524255
3.397000,-0.811914
3.398000,-1.373233
3.399000,-1.933278
3.400000,-2.540418
3.401000,-2.676610
3.402000,-2.630789
3.403000,-2.443683
3.404000,-2.212027
3.405000,-1.865818
3.406000,-1.539973
3.407000,-1.359231
3.408000,-1.397416
3.409000,-1.323592
3.410000,-1.149214
3.411000,-1.010476
3.412000,-0.801732
3.413000,-0.731726
3.414000,-0.881920
3.415000,-0.934106
3.416000,-1.037205
3.417000,-1.043570
3.418000,-1.086846
3.419000,-1.132668
3.420000,-1.086846
3.421000,-1.065208
3.422000,-1.192491
3.423000,-1.307045
3.424000,-1.444511
3.425000,-1.651982
3.426000,-1.655801
3.427000,-0.813187
3.428000,-0.704997
3.429000,-0.498798
3.430000,-0.711361
3.431000,-1.135213
3.432000,-1.597251
3.433000,-2.059288
3.434000,-2.376223
3.435000,-2.494596
3.436000,-2.424590
3.437000,-2.292216
3.438000,-2.116565
3.439000,-2.012193
3.440000,-1.575612
3.441000,-0.843735
3.442000,-0.591715
3.443000,-0.517891
3.444000,-0.778821
3.445000,-1.142850
3.446000,-1.335048
3.447000,-0.460613
3.448000,-0.634991
3.449000,-1.317228
3.450000,-2.028740
3.451000,-2.469139
3.452000,-2.717341
3.453000,-2.839533
3.454000,-2.719887
3.455000,-2.382587
3.456000,-1.818723
3.457000,-0.819551
3.458000,2.242877
3.459000,2.232695
3.460000,0.626383
3.461000,-1.025750
3.462000,-2.451320
3.463000,-3.330845
3.464000,-3.595594
3.465000,-3.642688
3.466000,-3.371576
3.467000,-2.980817
3.468000,-2.639698
3.469000,-1.988009
3.470000,-1.859454
3.471000,-1.822541
3.472000,-1.644345
3.473000,-1.644345
3.474000,-1.514517
3.475000,-1.341412
3.476000,-1.436874
3.477000,-1.421600
3.478000,-1.233221
3.479000,-1.009203
3.480000,-0.622263
3.481000,-0.697360
3.482000,-0.907377
3.483000,-0.929015
3.484000,-1.066480
3.485000,-1.243404
3.486000,-1.385961
3.487000,-1.139032
3.488000,-0.997748
3.489000,-1.212856
3.490000,-1.245950
3.491000,-0.748273
3.492000,-0.701178
3.493000,-1.253586
3.494000,-1.696531
3.495000,-2.007102
3.496000,-2.032558
3.497000,-2.072016
3.498000,-1.982918
3.499000,-1.962553
3.500000,-2.007102
3.501000,-1.932005
3.502000,-1.855635
3.503000,-1.795812
3.504000,-1.690167
3.505000,-1.598523
3.506000,-1.427964
3.507000,-1.179762
3.508000,-1.093210
3.509000,-1.060116
3.510000,-1.023204
3.511000,-1.069026
3.512000,-1.093210
3.513000,-1.158124
3.514000,-1.242131
3.515000,-1.308318
3.516000,-1.385961
3.517000,-1.570521
3.518000,-1.906548
3.519000,-1.966371
3.520000,-1.902730
3.521000,-1.520881
3.522000,-0.216230
3.523000,1.318803
3.524000,1.117696
3.525000,-0.054581
3.526000,-1.467422
3.527000,-2.619333
3.528000,-3.282477
3.529000,-3.304116
3.530000,-3.064824
3.531000,-2.471685
3.532000,-2.177661
3.533000,-1.651982
3.534000,-1.668529
3.535000,-1.125031
3.536000,-0.180591
3.537000,-0.441521
3.538000,-0.971018
3.539000,-1.564157
3.540000,-1.081754
3.541000,-1.043570
3.542000,-1.237040
3.543000,-1.375778
3.544000,-2.106383
3.545000,-2.621879
3.546000,-2.772073
3.547000,-2.868808
3.548000,-2.853534
3.549000,-2.649881
3.550000,-2.241303
3.551000,-1.944733
3.552000,-1.742353
3.553000,-1.772901
3.554000,-1.798358
3.555000,-1.606160
3.556000,-1.452148
3.557000,-0.878102
3.558000,-0.585351
3.559000,-0.618444
3.560000,-0.766093
3.561000,-1.056298
3.562000,-1.377051
3.563000,-1.631617
3.564000,-1.836543
3.565000,-1.911640
3.566000,-1.811086
3.567000,-1.618889
3.568000,-1.380869
3.569000,-0.828461
3.570000,-0.158953
3.571000,-0.374061
3.572000,-0.795368
3.573000,-1.233221
3.574000,-1.556520
3.575000,-1.704168
3.576000,-1.870909
3.577000,-1.957461
3.578000,-1.938369
3.579000,-1.735989
3.580000,-1.621434
3.581000,-1.581977
3.582000,-1.503061
3.583000,-1.422873
3.584000,-1.374505
3.585000,-1.340139
3.586000,-1.271406
3.587000,-1.277770
3.588000,-0.428793
3.589000,-0.389335
3.590000,-0.848827
3.591000,-1.006657
3.592000,-1.177217
3.593000,-1.545065
3.594000,-1.860726
3.595000,-2.074562
3.596000,-2.191662
3.597000,-1.960007
3.598000,-1.520881
3.599000,-1.335048
3.600000,-1.184854
3.601000,-1.396143
3.602000,-1.393598
3.603000,-1.328683
3.604000,-0.386789
3.605000,0.276355
3.606000,-0.305328
3.607000,-1.296863
3.608000,-2.223483
3.609000,-2.875172
3.610000,-3.027911
3.611000,-2.887900
3.612000,-2.620606
3.613000,-1.244677
3.614000,0.012879
3.615000,-0.083856
3.616000,-0.590442
3.617000,-1.361777
3.618000,-2.066925
3.619000,-2.433500
3.620000,-2.593876
3.621000,-2.630789
3.622000,-2.338038
3.623000,-2.248940
3.624000,-2.153477
3.625000,-2.023649
3.626000,-1.961280
3.627000,-1.946006
3.628000,-1.706714
3.629000,-0.801732
3.630000,-0.300237
3.631000,-0.403336
3.632000,-0.732999
3.633000,-1.233221
3.634000,-1.765264
3.635000,-1.963826
3.636000,-2.018557
3.637000,-2.008375
3.638000,-2.073289
3.639000,-2.222210
3.640000,-1.622707
3.641000,-0.959563
3.642000,-1.020659
3.643000,-1.256132
3.644000,-1.364323
3.645000,-1.524699
3.646000,-1.646891
3.647000,-1.602342
3.648000,-1.492879
3.649000,-1.323592
3.650000,-1.131395
3.651000,-1.049934
3.652000,-1.121212
3.653000,-1.309591
3.654000,-1.107211
3.655000,-0.750819
3.656000,-0.703724
3.657000,-0.937925
3.658000,-1.317228
3.659000,-1.646891
3.660000,-1.831451
3.661000,-1.346503
3.662000,-0.923924
3.663000,-1.051207
3.664000,-1.304500
3.665000,-1.435601
3.666000,-1.587068
3.667000,-1.762718
3.668000,-1.915458
3.669000,-1.864545
3.670000,-1.821269
3.671000,-1.707987
3.672000,-1.118667
3.673000,-0.996475
3.674000,-0.761001
3.675000,1.732473
3.676000,2.241605
3.677000,1.005687
3.678000,-0.832280
3.679000,-2.503506
3.680000,-3.692329
3.681000,-4.117454
3.682000,-4.061449
3.683000,-3.814520
3.684000,-3.325754
3.685000,-3.005001
3.686000,-2.746616
3.687000,-2.416953
3.688000,-2.201845
3.689000,-1.841634
3.690000,-1.654528
3.691000,-0.032943
3.692000,1.369716
3.693000,1.225886
3.694000,0.146526
3.695000,-1.267588
3.696000,-2.419499
3.697000,-2.968088
3.698000,-2.985908
3.699000,-2.721159
3.700000,-2.406770
3.701000,-2.198026
3.702000,-1.909094
3.703000,-1.748717
3.704000,-1.687622
3.705000,-1.704168
3.706000,-1.527245
3.707000,-1.509425
3.708000,-1.607433
3.709000,-1.132668
3.710000,-0.385516
3.711000,0.056156
3.712000,-0.206047
3.713000,-0.753364
3.714000,-1.280316
3.715000,-1.635435
3.716000,-1.886183
3.717000,-1.965098
3.718000,-1.886183
3.719000,-1.921822
3.720000,-2.074562
3.721000,-1.882365
3.722000,-1.709260
3.723000,-1.580704
3.724000,-1.328683
3.725000,-0.479706
3.726000,0.014152
3.727000,-0.143679
3.728000,-0.687177
3.729000,-1.142850
3.730000,-1.522154
3.731000,-1.650709
3.732000,-1.644345
3.733000,-1.641800
3.734000,-1.543792
3.735000,-1.398689
3.736000,-1.282862
3.737000,-1.312137
3.738000,-1.371960
3.739000,-1.654528
3.740000,-1.113575
3.741000,-0.255688
3.742000,-0.482252
3.743000,-0.999020
3.744000,-1.606160
3.745000,-1.262496
3.746000,-1.525972
3.747000,-2.135658
3.748000,-2.574784
3.749000,-2.877718
3.750000,-2.848442
3.751000,-2.693157
3.752000,-1.533609
3.753000,-1.023204
3.754000,-1.007930
3.755000,-1.177217
3.756000,-1.515789
3.757000,-2.021103
3.758000,-2.289670
3.759000,-2.430954
3.760000,-2.285852
3.761000,-1.640527
3.762000,-1.365596
3.763000,-0.955744
3.764000,-0.827188
3.765000,-1.173398
3.766000,-1.485242
3.767000,-1.548883
3.768000,-1.630344
3.769000,-1.807268
3.770000,-1.634163
3.771000,-1.539973
3.772000,-0.018941
3.773000,0.277628
3.774000,-0.102948
3.775000,-0.724089
3.776000,-1.448329
3.777000,-1.943460
3.778000,-2.181480
3.779000,-2.457684
3.780000,-1.747445
3.781000,-1.393598
3.782000,-0.543347
3.783000,-0.544620
3.784000,-1.387234
3.785000,-1.980372
3.786000,-2.364767
3.787000,-2.520052
3.788000,-2.366040
3.789000,-2.248940
3.790000,-1.984191
3.791000,-1.673620
3.792000,-1.593432
3.793000,-1.449602
3.794000,0.048519
3.795000,0.054883
3.796000,-0.596806
3.797000,-1.313410
3.798000,-2.084744
3.799000,-2.324037
3.800000,-2.114020
3.801000,-2.077107
3.802000,-2.142022
3.803000,-2.114020
3.804000,-1.990555
3.805000,-1.900184
3.806000,-1.761446
3.807000,-1.581977
3.808000,-1.301954
3.809000,-1.131395
3.810000,-0.312965
3.811000,0.323450
3.812000,0.413821
3.813000,-0.290054
3.814000,-1.055025
3.815000,-1.805995
3.816000,-2.401679
3.817000,-2.653699
3.818000,-2.570966
3.819000,-2.418226
3.820000,-1.679985
3.821000,-1.352867
3.822000,-1.514517
3.823000,-1.803449
3.824000,-1.779265
3.825000,-1.669802
3.826000,-1.212856
3.827000,-1.164488
3.828000,-1.388506
3.829000,-1.682530
3.830000,-1.868363
3.831000,-1.851817
3.832000,-1.805995
3.833000,-1.744899
3.834000,-1.727079
3.835000,-1.151760
3.836000,-0.676995
3.837000,0.690025
3.838000,0.858038
3.839000,0.721846
3.840000,0.441823
3.841000,0.024335
3.842000,-1.080482
3.843000,-2.119111
3.844000,-2.826804
3.845000,-2.714795
3.846000,-2.269305
3.847000,-2.329128
3.848000,-2.610423
3.849000,-2.927358
3.850000,-3.192107
3.851000,-3.239201
3.852000,-2.816622
3.853000,-2.514961
3.854000,-2.292216
3.855000,-1.974008
3.856000,-1.583249
3.857000,-0.731726
3.858000,-0.386789
3.859000,-0.427520
3.860000,-0.493707
3.861000,-0.780094
3.862000,-1.169580
3.863000,-1.408872
3.864000,-0.772457
3.865000,-0.810642
3.866000,-1.139032
3.867000,-1.626526
3.868000,-2.070743
3.869000,-2.388951
3.870000,-2.443683
3.871000,-2.483140
3.872000,-2.422044
3.873000,-2.103837
3.874000,-1.877273
3.875000,-1.589614
3.876000,-1.310864
3.877000,-1.121212
3.878000,-0.480979
3.879000,-0.407155
3.880000,-0.640082
3.881000,-1.055025
3.882000,-1.463603
3.883000,-1.505607
3.884000,-1.164488
3.885000,-1.182308
3.886000,-1.219220
3.887000,-1.276497
3.888000,-1.371960
3.889000,-1.253586
3.890000,-1.244677
3.891000,-1.444511
3.892000,-1.631617
3.893000,-1.677439
3.894000,-1.518335
3.895000,-1.545065
3.896000,-1.528518
3.897000,-1.550156
3.898000,-1.569248
3.899000,-1.499243
3.900000,-1.340139
3.901000,-1.329956
3.902000,-1.308318
3.903000,-1.602342
3.904000,-0.950653
3.905000,0.235625
3.906000,0.343815
3.907000,-0.558621
3.908000,-1.594705
3.909000,-2.391497
3.910000,-2.906993
3.911000,-3.010092
3.912000,-2.926085
3.913000,-2.642244
3.914000,-2.248940
3.915000,-1.944733
3.916000,-1.587068
3.917000,-1.374505
3.918000,-1.356686
3.919000,-1.209037
3.920000,-0.508981
3.921000,1.785932
3.922000,1.640829
3.923000,0.463461
3.924000,-0.949380
3.925000,-2.093654
3.926000,-2.749162
3.927000,-2.942632
3.928000,-1.590886
3.929000,-1.312137
3.930000,-1.570521
3.931000,-2.042741
3.932000,-2.504778
3.933000,-3.142466
3.934000,-3.371576
3.935000,-2.467866
3.936000,-1.963826
3.937000,-1.940915
3.938000,-1.842907
3.939000,-1.718169
3.940000,-1.823814
3.941000,-1.933278
3.942000,-1.738535
3.943000,-1.604888
3.944000,-0.794095
3.945000,-0.641355
3.946000,-0.979928
3.947000,-1.427964
3.948000,-1.184854
3.949000,-0.517891
3.950000,-0.838644
3.951000,-1.327411
3.952000,-1.855635
3.953000,-2.404225
3.954000,-2.649881
3.955000,-1.966371
3.956000,-1.223039
3.957000,-0.529346
3.958000,-0.479706
3.959000,-1.044842
3.960000,-1.611252
3.961000,-1.895093
3.962000,-2.026194
3.963000,-2.120384
3.964000,-1.977827
3.965000,-1.742353
3.966000,-1.503061
3.967000,-1.459785
3.968000,-1.553974
3.969000,-1.444511
3.970000,-1.426691
3.971000,-1.312137
3.972000,-1.051207
3.973000,-0.855191
3.974000,-0.898467
3.975000,-0.454249
3.976000,0.185984
3.977000,-0.122041
3.978000,-0.661721
3.979000,-0.461886
3.980000,-0.837371
3.981000,-1.454694
3.982000,-1.933278
3.983000,-2.316400
3.984000,-2.341856
3.985000,-2.360949
3.986000,-1.907821
3.987000,-1.690167
3.988000,-1.790721
3.989000,-1.845452
3.990000,-1.858181
3.991000,-1.939642
3.992000,-1.816177
3.993000,-0.141133
3.994000,-0.034215
3.995000,-0.297691
3.996000,0.348906
3.997000,-0.335876
3.998000,-1.523426
3.999000,-2.479322
4.000000,-3.150103
4.001000,-3.461947
4.002000,-2.569693
4.003000,-1.770355
4.004000,-1.646891
4.005000,-1.954916
4.006000,-2.374950
4.007000,-2.558237
4.008000,-2.634607
4.009000,-2.512415
4.010000,-2.052924
4.011000,-1.668529
4.012000,-1.542519
4.013000,-1.590886
4.014000,-1.646891
4.015000,-1.475059
4.016000,-1.314682
4.017000,-1.284134
4.018000,-1.153033
4.019000,-1.080482
4.020000,-0.430065
4.021000,-0.372788
4.022000,-0.726635
4.023000,-1.004112
4.024000,-1.324865
4.025000,-1.625253
4.026000,-1.635435
4.027000,-1.612525
4.028000,-1.434328
4.029000,-1.426691
4.030000,-1.383415
4.031000,-1.113575
4.032000,-1.257405
4.033000,-1.424146
4.034000,-1.609979
4.035000,-0.983747
4.036000,-1.117394
4.037000,-1.366868
4.038000,-1.621434
4.039000,-1.817450
4.040000,-2.028740
4.041000,-2.041468
4.042000,-1.960007
4.043000,-1.881092
4.044000,-1.677439
4.045000,-1.137759
4.046000,-0.067309
4.047000,0.147799
4.048000,-0.414792
4.049000,-1.146669
4.050000,-1.819996
4.051000,-2.220937
4.052000,-2.242575
4.053000,-2.292216
4.054000,-2.268032
4.055000,-2.242575
4.056000,-2.079653
4.057000,-1.952370
4.058000,-1.906548
4.059000,-1.808540
4.060000,-1.659619
4.061000,-1.528518
4.062000,-1.559066
4.063000,-1.564157
4.064000,-0.716452
4.065000,-0.116949
4.066000,-0.421156
4.067000,-1.030841
4.068000,-1.483969
4.069000,-1.760173
4.070000,-1.891274
4.071000,-1.980372
4.072000,-1.732171
4.073000,-0.990111
4.074000,-0.259506
4.075000,0.207622
4.076000,-0.316784
4.077000,-1.202673
4.078000,-1.756354
4.079000,-2.128021
4.080000,-2.380041
4.081000,-2.418226
4.082000,-2.432227
4.083000,-2.292216
4.084000,-1.799631
4.085000,-1.299408
4.086000,-1.379597
4.087000,-1.284134
4.088000,-1.298136
4.089000,-1.315955
4.090000,-1.469968
4.091000,-1.369414
4.092000,0.422731
4.093000,2.354887
4.094000,1.726109
4.095000,0.499100
4.096000,-1.169580
4.097000,-2.929904
4.098000,-4.018173
4.099000,-4.035993
4.100000,-3.640143
4.101000,-3.330845
4.102000,-3.076279
4.103000,-2.905720
4.104000,-2.699521
4.105000,-2.695703
4.106000,-2.418226
4.107000,-1.847998
4.108000,-1.128849
4.109000,-0.200956
4.110000,-0.262052
4.111000,0.166892
4.112000,0.034517
4.113000,-0.703724
4.114000,-1.482696
4.115000,-2.022376
4.116000,-2.158569
4.117000,-2.237484
4.118000,-2.284579
4.119000,-2.316400
4.120000,-2.294761
4.121000,-2.180207
4.122000,-1.896366
4.123000,-1.550156
4.124000,-1.345230
4.125000,-0.860282
4.126000,-0.180591
4.127000,-0.222594
4.128000,-0.618444
4.129000,-1.027023
4.130000,-1.309591
4.131000,-1.525972
4.132000,-1.469968
4.133000,-1.419054
4.134000,-1.505607
4.135000,-1.723261
4.136000,-1.898911
4.137000,-1.935823
4.138000,-1.883637
4.139000,-1.807268
4.140000,-1.553974
4.141000,-1.407599
4.142000,-1.392325
4.143000,-1.485242
4.144000,-1.579431
4.145000,-1.573067
4.146000,-1.626526
4.147000,-1.318501
4.148000,-1.056298
4.149000,-0.706270
4.150000,0.054883
4.151000,-0.044398
4.152000,-0.589169
4.153000,-1.108484
4.154000,-1.709260
4.155000,-1.668529
4.156000,-1.677439
4.157000,-1.846725
4.158000,-1.998192
4.159000,-1.388506
4.160000,-1.341412
4.161000,-1.081754
4.162000,-0.020214
4.163000,-0.586624
4.164000,-1.333775
4.165000,-1.975281
4.166000,-2.495869
4.167000,-2.924812
4.168000,-3.045731
4.169000,-2.900628
4.170000,-1.284134
4.171000,-0.178045
4.172000,-0.531892
4.173000,-1.188672
4.174000,-1.911640
4.175000,-2.600241
4.176000,-2.416953
4.177000,-2.072016
4.178000,-1.924368
4.179000,-1.876000
4.180000,-1.844180
4.181000,-1.814905
4.182000,-1.747445
4.183000,-1.861999
4.184000,-0.917559
4.185000,-0.730453
4.186000,-0.976110
4.187000,-1.340139
4.188000,-1.520881
4.189000,-1.644345
4.190000,-1.746172
4.191000,-1.727079
4.192000,-1.440693
4.193000,-1.347776
4.194000,-1.293044
4.195000,-1.533609
4.196000,-1.476332
4.197000,-1.622707
4.198000,-1.646891
4.199000,-1.601069
4.200000,-1.602342
4.201000,-1.509425
4.202000,-1.504334
4.203000,-1.504334
4.204000,-1.458512
4.205000,-1.419054
4.206000,-1.336320
4.207000,-0.071127
4.208000,1.289528
4.209000,1.110059
4.210000,0.112160
4.211000,-1.023204
4.212000,-2.010920
4.213000,-2.497141
4.214000,-2.787347
4.215000,-2.738979
4.216000,-2.582421
4.217000,-2.339310
4.218000,-2.172570
4.219000,-2.164933
4.220000,-2.206936
4.221000,-2.136931
4.222000,-1.924368
4.223000,-1.691440
4.224000,-1.749990
4.225000,-1.718169
4.226000,-0.932833
4.227000,-0.225140
4.228000,0.010334
4.229000,-0.502617
4.230000,-1.295590
4.231000,-1.910367
4.232000,-2.264214
4.233000,-2.383860
4.234000,-2.339310
4.235000,-2.162387
4.236000,-0.767365
4.237000,1.710835
4.238000,1.614099
4.239000,0.683661
4.240000,-0.592988
4.241000,-1.749990
4.242000,-2.514961
4.243000,-3.108100
4.244000,-3.301570
4.245000,-3.179378
4.246000,-2.945178
4.247000,-2.825532
4.248000,-2.439864
4.249000,-2.192935
4.250000,-2.092381
4.251000,-1.802176
4.252000,-1.557793
4.253000,-1.415236
4.254000,-1.285407
4.255000,-1.063935
4.256000,0.164346
4.257000,0.631475
4.258000,-0.134769
4.259000,-1.093210
4.260000,-1.821269
4.261000,-1.794539
4.262000,-2.161114
4.263000,-2.177661
4.264000,-2.143295
4.265000,-2.133112
4.266000,-2.092381
4.267000,-1.925641
4.268000,-1.923095
4.269000,-1.911640
4.270000,-1.780538
4.271000,-1.444511
4.272000,-1.184854
4.273000,-1.105938
4.274000,-1.015567
4.275000,-0.086401
4.276000,0.213986
4.277000,-0.134769
4.278000,-0.688450
4.279000,-1.373233
4.280000,-1.769083
4.281000,-1.886183
4.282000,-1.884910
4.283000,-1.746172
4.284000,-1.576885
4.285000,-1.625253
4.286000,-1.077936
4.287000,-0.764820
4.288000,-1.015567
4.289000,-1.438147
4.290000,-0.904831
4.291000,-0.668085
4.292000,-1.039751
4.293000,-1.662165
4.294000,-1.817450
4.295000,-1.878546
4.296000,-2.217119
4.297000,-2.003283
4.298000,-1.524699
4.299000,-1.900184
4.300000,-2.302398
4.301000,-2.467866
4.302000,-2.293489
4.303000,-2.028740
4.304000,-1.887456
4.305000,-1.835270
4.306000,-2.022376
4.307000,-1.980372
4.308000,-1.817450
4.309000,-0.988838
4.310000,-0.407155
4.311000,-0.344786
4.312000,0.170710
4.313000,1.486816
4.314000,0.938227
4.315000,-0.575168
4.316000,-2.036377
4.317000,-3.165377
4.318000,-3.520497
4.319000,-3.430126
4.320000,-3.241747
4.321000,-2.891719
4.322000,-2.750435
4.323000,-2.324037
4.324000,-1.988009
4.325000,-1.850544
4.326000,-1.713078
4.327000,-1.318501
4.328000,-1.047388
4.329000,-0.847554
4.330000,-0.920105
4.331000,-1.117394
4.332000,-1.286680
4.333000,-1.382142
4.334000,-1.331229
4.335000,-1.261223
4.336000,-1.224311
4.337000,-1.021931
4.338000,-1.076663
4.339000,-1.191218
4.340000,-1.126303
4.341000,-1.080482
4.342000,-0.552257
4.343000,-0.263325
4.344000,-0.628627
4.345000,-1.147942
4.346000,-1.587068
4.347000,-1.944733
4.348000,-1.888729
4.349000,-1.716897
4.350000,-1.682530
4.351000,-1.601069
4.352000,-1.602342
4.353000,-1.634163
4.354000,-1.687622
4.355000,-1.721988
4.356000,-1.595978
4.357000,-1.472513
4.358000,-1.410145
4.359000,-1.491606
4.360000,-0.897194
4.361000,-0.167863
4.362000,0.791851
4.363000,0.532194
4.364000,-0.483524
4.365000,-1.522154
4.366000,-2.353312
4.367000,-2.768254
4.368000,-2.660064
4.369000,-2.558237
4.370000,-2.523871
4.371000,-2.444955
4.372000,-2.206936
4.373000,-1.715624
4.374000,-1.385961
4.375000,-1.524699
4.376000,-1.665983
4.377000,-1.769083
4.378000,-1.609979
4.379000,-0.230231
4.380000,-0.250596
4.381000,-0.613353
4.382000,-0.463159
4.383000,-0.640082
4.384000,-1.005385
4.385000,-1.870909
4.386000,-2.324037
4.387000,-2.470412
4.388000,-2.872626
4.389000,-3.288842
4.390000,-3.571410
4.391000,-3.556136
4.392000,-3.402124
4.393000,-2.872626
4.394000,-2.322764
4.395000,-1.789448
4.396000,-1.406326
4.397000,-1.263769
4.398000,-0.468250
4.399000,0.249626
4.400000,-0.001122
4.401000,-0.328239
4.402000,-0.620990
4.403000,-0.740636
4.404000,-0.666812
4.405000,-0.876829
4.406000,-0.992656
4.407000,-0.797913
4.408000,-0.319329
4.409000,0.530921
4.410000,0.714209
4.411000,-0.542075
4.412000,-1.966371
4.413000,-2.801348
4.414000,-3.376667
4.415000,-3.446673
4.416000,-2.928631
4.417000,-2.520052
4.418000,-2.154750
4.419000,-1.817450
4.420000,-1.654528
4.421000,-1.515789
4.422000,-1.550156
4.423000,-1.640527
4.424000,-1.495424
4.425000,-1.576885
4.426000,-1.581977
4.427000,-1.483969
4.428000,-1.542519
4.429000,-1.522154
4.430000,-1.393598
4.431000,-1.298136
4.432000,-1.000293
4.433000,-0.314238
4.434000,-0.418610
4.435000,-0.775002
4.436000,-1.182308
4.437000,-1.616343
4.438000,-1.780538
4.439000,-1.785629
4.440000,-1.729625
4.441000,-1.576885
4.442000,-1.503061
4.443000,-1.588341
4.444000,-1.257405
4.445000,0.695116
4.446000,0.611109
4.447000,-0.209866
4.448000,-1.276497
4.449000,-1.872182
4.450000,-1.935823
4.451000,-1.980372
4.452000,-2.122929
4.453000,-2.433500
4.454000,-2.690612
4.455000,-2.660064
4.456000,-1.858181
4.457000,-1.566703
4.458000,-1.870909
4.459000,-1.793266
4.460000,-0.960836
4.461000,-0.945562
4.462000,-1.173398
4.463000,-1.677439
4.464000,-1.846725
4.465000,-1.790721
4.466000,-1.655801
4.467000,-1.634163
4.468000,-0.995202
4.469000,-1.169580
4.470000,-1.517062
4.471000,-1.215402
4.472000,-1.475059
4.473000,-1.714351
4.474000,-1.732171
4.475000,-0.671903
4.476000,-0.545893
4.477000,-1.028296
4.478000,-1.765264
4.479000,-2.441137
4.480000,-2.780982
4.481000,-2.763163
4.482000,-2.671519
4.483000,-2.243848
4.484000,-1.930732
4.485000,-1.770355
4.486000,-1.594705
4.487000,-1.421600
4.488000,-1.197582
4.489000,-1.023204
4.490000,-0.837371
4.491000,-0.794095
4.492000,-0.874283
4.493000,-1.002839
4.494000,-1.069026
4.495000,0.253444
4.496000,0.636566
4.497000,0.240716
4.498000,0.089249
4.499000,-0.561167
4.500000,-1.277770
4.501000,-2.037650
4.502000,-2.802621
4.503000,-3.305388
4.504000,-3.414852
4.505000,-3.403396
4.506000,-3.138648
4.507000,-2.763163
4.508000,-2.512415
4.509000,-1.998192
4.510000,-1.557793
4.511000,-1.359231
4.512000,-1.163216
4.513000,-0.958290
4.514000,-0.708815
4.515000,-0.628627
4.516000,-0.748273
4.517000,-0.871737
4.518000,-0.898467
4.519000,-1.044842
4.520000,-1.195036
4.521000,-1.303227
4.522000,-1.373233
4.523000,-0.461886
4.524000,-0.533165
4.525000,-1.084300
4.526000,-1.182308
4.527000,-0.739363
4.528000,-0.973564
4.529000,-1.473786
4.530000,-1.799631
4.531000,-1.856908
4.532000,-1.314682
4.533000,-1.475059
4.534000,-1.953643
4.535000,-2.414407
4.536000,-2.797529
4.537000,-2.895537
4.538000,-2.667701
4.539000,-2.592604
4.540000,-2.506051
4.541000,-2.374950
4.542000,-2.092381
4.543000,-1.604888
4.544000,-1.410145
4.545000,-1.494151
4.546000,-1.702895
4.547000,-1.580704
4.548000,-0.920105
4.549000,-0.869192
4.550000,-1.005385
4.551000,-1.174671
4.552000,-1.279043
4.553000,-1.189945
4.554000,-0.771184
4.555000,1.555549
4.556000,1.652284
4.557000,0.494009
4.558000,-0.888284
4.559000,-2.135658
4.560000,-2.920994
4.561000,-3.199744
4.562000,-2.936268
4.563000,-2.704613
4.564000,-2.562056
4.565000,-2.317672
4.566000,-1.125031
4.567000,-0.915014
4.568000,-1.056298
4.569000,-0.528073
4.570000,-0.883193
4.571000,-1.721988
4.572000,-2.256577
4.573000,-1.632890
4.574000,-1.443238
4.575000,-1.682530
4.576000,-1.872182
4.577000,-2.172570
4.578000,-2.271850
4.579000,-1.803449
4.580000,-1.032114
4.581000,-1.018113
4.582000,-1.455966
4.583000,-1.700350
4.584000,-1.910367
4.585000,-1.853089
4.586000,-1.876000
4.587000,-0.684631
4.588000,-0.656629
4.589000,-0.781367
4.590000,-0.976110
4.591000,-1.328683
4.592000,-1.590886
4.593000,-1.739808
4.594000,-1.928186
4.595000,-2.100018
4.596000,-2.088563
4.597000,-1.990555
4.598000,-1.901457
4.599000,-1.855635
4.600000,-1.635435
4.601000,-1.287953
4.602000,-0.296418
4.603000,0.268718
4.604000,-0.164044
4.605000,-0.799186
4.606000,-1.044842
4.607000,-1.730898
4.608000,-2.084744
4.609000,-2.262941
4.610000,-2.378768
4.611000,-2.432227
4.612000,-2.220937
4.613000,-2.005829
4.614000,-1.830178
4.615000,-1.659619
4.616000,-1.641800
4.617000,-1.242131
4.618000,-1.125031
4.619000,-1.173398
4.620000,-1.253586
4.621000,-1.220493
4.622000,-1.231948
4.623000,-1.140305
4.624000,-1.247222
4.625000,-1.343957
4.626000,-1.413963
4.627000,-1.441965
4.628000,-1.388506
4.629000,-0.389335
4.630000,0.434186
4.631000,0.866948
4.632000,1.527547
4.633000,0.337451
4.634000,-1.429237
4.635000,-1.982918
4.636000,-1.951097
4.637000,-2.512415
4.638000,-2.876445
4.639000,-3.226473
4.640000,-3.498859
4.641000,-3.693602
4.642000,-3.593048
4.643000,-3.311753
4.644000,-2.742798
4.645000,-2.302398
4.646000,-2.022376
4.647000,-1.816177
4.648000,-1.713078
4.649000,-1.354140
4.650000,-0.836098
4.651000,-0.909922
4.652000,-1.086846
4.653000,-1.163216
4.654000,-1.368141
4.655000,-1.473786
4.656000,-1.492879
4.657000,-1.273952
4.658000,-1.071572
4.659000,-1.007930
4.660000,-1.327411
4.661000,-1.303227
4.662000,0.748575
4.663000,0.982776
4.664000,-0.102948
4.665000,-0.939197
4.666000,-1.537428
4.667000,-1.321046
4.668000,0.199985
4.669000,0.054883
4.670000,-0.993929
4.671000,-2.161114
4.672000,-3.337209
4.673000,-3.792882
4.674000,-3.752152
4.675000,-3.498859
4.676000,-2.910811
4.677000,-2.490777
4.678000,-1.937096
4.679000,-1.601069
4.680000,-1.482696
4.681000,-1.449602
4.682000,-1.281589
4.683000,-1.187399
4.684000,-1.229403
4.685000,-1.286680
4.686000,-1.393598
4.687000,-1.533609
4.688000,-1.491606
4.689000,-1.450875
4.690000,-1.495424
4.691000,-1.379597
4.692000,-1.147942
4.693000,-0.878102
4.694000,-0.796641
4.695000,-0.827188
4.696000,-0.892103
4.697000,-0.991384
4.698000,-0.978655
4.699000,-0.915014
4.700000,-0.810642
4.701000,-0.996475
4.702000,-0.543347
4.703000,0.558923
4.704000,0.254717
4.705000,-0.455522
4.706000,-1.257405
4.707000,-1.863272
4.708000,-2.288397
4.709000,-2.492050
4.710000,-2.611696
4.711000,-2.644790
4.712000,-2.703340
4.713000,-2.461502
4.714000,-1.794539
4.715000,-1.817450
4.716000,-1.984191
4.717000,-1.919277
4.718000,-2.110201
4.719000,-2.362221
4.720000,-2.045287
4.721000,-1.926914
4.722000,-1.326138
4.723000,-1.449602
4.724000,-1.452148
4.725000,0.105796
4.726000,0.403638
4.727000,-0.157680
4.728000,-0.904831
4.729000,-1.163216
4.730000,-1.942188
4.731000,-2.577330
4.732000,-2.793711
4.733000,-2.737706
4.734000,-2.240030
4.735000,-1.786902
4.736000,-1.904003
4.737000,-2.325309
4.738000,-2.494596
4.739000,-2.339310
4.740000,-2.092381
4.741000,-1.705441
4.742000,-1.405053
4.743000,-1.098301
4.744000,-1.131395
4.745000,-0.982474
4.746000,-1.009203
4.747000,-1.267588
4.748000,-1.369414
4.749000,-1.355413
4.750000,-1.312137
4.751000,-1.256132
4.752000,-1.324865
4.753000,-1.239585
4.754000,-1.145396
4.755000,0.390910
4.756000,0.665841
4.757000,0.007788
4.758000,-0.636264
4.759000,-1.378324
4.760000,-1.957461
4.761000,-2.084744
4.762000,-2.231120
4.763000,-2.255304
4.764000,-2.205663
4.765000,-2.248940
4.766000,-2.066925
4.767000,-1.836543
4.768000,-1.891274
4.769000,-1.229403
4.770000,-0.553530
4.771000,-0.629900
4.772000,-1.005385
4.773000,-1.398689
4.774000,-1.371960
4.775000,-1.644345
4.776000,-1.986737
4.777000,-1.172125
4.778000,0.589471
4.779000,1.481725
4.780000,1.163518
4.781000,-0.430065
4.782000,-2.184025
4.783000,-3.570137
4.784000,-4.277831
4.785000,-4.305833
4.786000,-3.744515
4.787000,-3.248111
4.788000,-2.208209
4.789000,-1.662165
4.790000,-1.007930
4.791000,-1.079209
4.792000,-1.539973
4.793000,-1.793266
4.794000,-1.886183
4.795000,-1.986737
4.796000,-1.988009
4.797000,-1.994374
4.798000,-1.893820
4.799000,-1.751263
4.800000,-1.655801
4.801000,-1.570521
4.802000,-1.441965
4.803000,-1.202673
4.804000,-1.000293
4.805000,-0.782639
4.806000,-0.684631
4.807000,-0.785185
4.808000,-0.929015
4.809000,-0.949380
4.810000,-1.056298
4.811000,-1.049934
4.812000,-1.097028
4.813000,-1.233221
4.814000,-1.253586
4.815000,-1.277770
4.816000,-1.177217
4.817000,-1.324865
4.818000,-1.380869
4.819000,-1.317228
4.820000,-1.391052
4.821000,-1.570521
4.822000,-1.891274
4.823000,-1.947279
4.824000,-1.916731
4.825000,-1.886183
4.826000,-1.770355
4.827000,-1.597251
4.828000,-1.483969
4.829000,-1.305773
4.830000,-0.776275
4.831000,1.173700
4.832000,2.505080
4.833000,1.801205
4.834000,1.194066
4.835000,-0.138587
4.836000,-1.299408
4.837000,-2.780982
4.838000,-3.483585
4.839000,-3.514133
4.840000,-3.122101
4.841000,-3.273568
4.842000,-3.627414
4.843000,-3.795428
4.844000,-3.671963
4.845000,-3.451764
4.846000,-2.909538
4.847000,-2.271850
4.848000,-1.205219
4.849000,-0.828461
4.850000,-0.381698
4.851000,-0.668085
4.852000,-1.270133
4.853000,-1.538700
4.854000,-1.585795
4.855000,-1.560339
4.856000,-1.520881
4.857000,-1.439420
4.858000,-1.528518
4.859000,-1.552702
4.860000,-1.525972
4.861000,-1.533609
4.862000,-1.492879
4.863000,-1.421600
4.864000,-1.468695
4.865000,-1.555247
4.866000,-1.463603
4.867000,-1.388506
4.868000,-1.107211
4.869000,-1.065208
4.870000,-1.217947
4.871000,-1.346503
4.872000,-1.373233
4.873000,-1.503061
4.874000,-1.660892
4.875000,-1.786902
4.876000,-1.630344
4.877000,-1.448329
4.878000,-1.314682
4.879000,-1.165761
4.880000,-0.730453
4.881000,-0.334603
4.882000,-0.454249
4.883000,-0.771184
4.884000,-1.024477
4.885000,-1.319774
4.886000,-1.481423
4.887000,-1.621434
4.888000,-1.569248
4.889000,-1.438147
4.890000,-0.795368
4.891000,0.269991
4.892000,0.252171
4.893000,-0.417337
4.894000,-1.345230
4.895000,-2.217119
4.896000,-2.903174
4.897000,-2.970634
4.898000,-3.026639
4.899000,-2.299853
4.900000,-1.088119
4.901000,-0.385516
4.902000,0.247080
4.903000,0.345088
4.904000,-0.582805
4.905000,-1.588341
4.906000,-2.203118
4.907000,-2.693157
4.908000,-3.040640
4.909000,-3.008819
4.910000,-2.974453
4.911000,-2.676610
4.912000,-2.446228
4.913000,-2.236211
4.914000,-2.220937
4.915000,-2.261668
4.916000,-2.162387
4.917000,-1.960007
4.918000,-2.019830
4.919000,-1.765264
4.920000,-1.579431
4.921000,-1.388506
4.922000,-1.206492
4.923000,-1.203946
4.924000,-1.123758
4.925000,-0.693541
4.926000,-0.562440
4.927000,-0.715179
4.928000,-1.079209
4.929000,-1.380869
4.930000,-1.579431
4.931000,-1.669802
4.932000,-1.299408
4.933000,-1.300681
4.934000,-1.476332
4.935000,-1.113575
4.936000,0.803307
4.937000,0.802034
4.938000,-0.206047
4.939000,-1.385961
4.940000,-2.192935
4.941000,-2.838260
4.942000,-3.062278
4.943000,-3.015183
4.944000,-2.751707
4.945000,-2.462775
4.946000,-1.753809
4.947000,-1.346503
4.948000,-1.041024
4.949000,-0.855191
4.950000,-0.743182
4.951000,-0.754637
4.952000,-0.899740
4.953000,-0.573895
4.954000,-0.424974
4.955000,-0.782639
4.956000,-1.243404
4.957000,-1.567976
4.958000,-1.841634
4.959000,-1.995646
4.960000,-2.122929
4.961000,-2.079653
4.962000,-1.928186
4.963000,-1.849271
4.964000,-1.784357
4.965000,-1.756354
4.966000,-1.700350
4.967000,-1.735989
4.968000,-1.788175
4.969000,-1.651982
4.970000,-1.499243
4.971000,-1.375778
4.972000,-0.431338
4.973000,0.510556
4.974000,0.001424
4.975000,-0.245505
4.976000,0.208895
4.977000,-0.318056
4.978000,-0.703724
4.979000,-1.527245
4.980000,-2.478049
4.981000,-3.092826
4.982000,-3.349937
4.983000,-3.386850
4.984000,-3.206108
4.985000,-3.095371
4.986000,-2.761890
4.987000,-2.559510
4.988000,-2.162387
4.989000,-1.821269
4.990000,-1.457239
4.991000,-1.384688
4.992000,-1.159397
4.993000,-1.084300
4.994000,-0.929015
4.995000,-0.810642
4.996000,-0.352423
4.997000,-0.454249
4.998000,-0.768638
4.999000,-1.168307
5.000000,-1.590886
5.001000,-1.769083
5.002000,-1.799631
5.003000,-1.770355
5.004000,-1.592159
5.005000,-1.499243
5.006000,-1.436874
5.007000,-1.324865
5.008000,-1.345230
5.009000,-1.331229
5.010000,-0.468250
5.011000,-0.109312
5.012000,-0.413519
5.013000,-0.898467
5.014000,-0.410973
5.015000,-0.704997
5.016000,-1.304500
5.017000,-1.809813
5.018000,-2.156023
5.019000,-2.530235
5.020000,-2.661336
5.021000,-1.691440
5.022000,-0.194592
5.023000,-0.598079
5.024000,-1.532336
5.025000,-2.406770
5.026000,-3.108100
5.027000,-3.342301
5.028000,-3.052095
5.029000,-2.831896
5.030000,-2.578603
5.031000,-2.224756
5.032000,-2.077107
5.033000,-1.365596
5.034000,-0.929015
5.035000,-0.654084
5.036000,-0.251869
5.037000,-0.212412
5.038000,-0.556076
5.039000,-0.871737
5.040000,-1.067753
5.041000,-1.263769
5.042000,-1.399962
5.043000,-1.607433
5.044000,-1.696531
5.045000,-1.728352
5.046000,-1.756354
5.047000,-1.805995
5.048000,-1.798358
5.049000,-1.678712
5.050000,-1.560339
5.051000,-1.499243
5.052000,-1.501788
5.053000,-1.258678
5.054000,-1.230676
5.055000,-1.294317
5.056000,-1.374505
5.057000,-1.416509
5.058000,-1.420327
5.059000,-1.405053
5.060000,-1.360504
5.061000,-1.363050
5.062000,-1.335048
5.063000,-1.421600
5.064000,-1.606160
5.065000,-1.140305
5.066000,0.323450
5.067000,0.673478
5.068000,0.555105
5.069000,0.411275
5.070000,-0.745727
5.071000,-1.887456
5.072000,-1.608706
5.073000,-1.318501
5.074000,-1.786902
5.075000,-2.294761
5.076000,-2.638426
5.077000,-2.994818
5.078000,-3.240474
5.079000,-3.454310
5.080000,-3.402124
5.081000,-3.423762
5.082000,-2.980817
5.083000,-2.578603
5.084000,-1.660892
5.085000,-1.114848
5.086000,-1.265042
5.087000,-1.081754
5.088000,-1.189945
5.089000,-1.455966
5.090000,-1.669802
5.091000,-1.733443
5.092000,-1.720715
5.093000,-1.557793
5.094000,-0.540802
5.095000,-0.305328
5.096000,-0.136042
5.097000,-0.304055
5.098000,-0.892103
5.099000,-1.205219
5.100000,-1.623980
5.101000,-1.932005
5.102000,-1.803449
5.103000,-1.709260
5.104000,-1.790721
5.105000,-1.793266
5.106000,-1.760173
5.107000,-1.734716
5.108000,-1.623980
5.109000,-1.635435
5.110000,-1.565430
5.111000,-0.883193
5.112000,-0.138587
5.113000,-0.385516
5.114000,-0.402063
5.115000,-0.413519
5.116000,-0.088947
5.117000,-0.640082
5.118000,-1.051207
5.119000,-1.327411
5.120000,-1.851817
5.121000,-2.293489
5.122000,-2.213300
5.123000,-2.209482
5.124000,-2.458956
5.125000,-2.460229
5.126000,-2.429681
5.127000,-2.304944
5.128000,-2.150932
5.129000,-1.967644
5.130000,-1.533609
5.131000,-1.450875
5.132000,-1.637981
5.133000,-1.707987
5.134000,-1.785629
5.135000,-1.795812
5.136000,-1.758900
5.137000,-1.621434
5.138000,-1.520881
5.139000,-0.983747
5.140000,-0.654084
5.141000,-0.769911
5.142000,-1.041024
5.143000,-1.257405
5.144000,-1.575612
5.145000,-1.651982
5.146000,-1.085573
5.147000,-0.878102
5.148000,-0.216230
5.149000,-0.310419
5.150000,-1.043570
5.151000,-1.774174
5.152000,-2.336765
5.153000,-2.615515
5.154000,-1.632890
5.155000,-1.472513
5.156000,-1.375778
5.157000,0.014152
5.158000,0.347634
5.159000,-0.292600
5.160000,-1.098301
5.161000,-1.954916
5.162000,-2.437318
5.163000,-2.670246
5.164000,-2.637153
5.165000,-2.479322
5.166000,-2.330401
5.167000,-2.406770
5.168000,-1.291771
5.169000,-0.801732
5.170000,-0.766093
5.171000,-0.890830
5.172000,-1.552702
5.173000,-2.261668
5.174000,-2.672792
5.175000,-2.875172
5.176000,-2.968088
5.177000,-2.774618
5.178000,-2.247667
5.179000,-1.776720
5.180000,-1.541246
5.181000,-1.378324
5.182000,-1.149214
5.183000,-1.147942
5.184000,-1.089391
5.185000,-0.930288
5.186000,-0.739363
5.187000,-0.761001
5.188000,-0.959563
5.189000,-1.091937
5.190000,-1.123758
5.191000,-1.268860
5.192000,-0.895921
5.193000,-0.743182
5.194000,-0.932833
5.195000,-1.085573
5.196000,-1.272679
5.197000,-1.434328
5.198000,-1.517062
5.199000,-1.681257
5.200000,-1.634163
5.201000,-1.545065
5.202000,-1.506880
5.203000,-1.546337
5.204000,-1.663438
5.205000,-1.776720
5.206000,-1.523426
5.207000,-1.357959
5.208000,-1.268860
5.209000,-1.249768
5.210000,-1.291771
5.211000,-1.350322
5.212000,-1.279043
5.213000,-1.247222
5.214000,-1.266315
5.215000,-0.944289
5.216000,-0.433884
5.217000,0.555105
5.218000,0.211441
5.219000,-0.822097
5.220000,-1.733443
5.221000,-1.739808
5.222000,-2.052924
5.223000,-2.461502
5.224000,-2.694430
5.225000,-1.716897
5.226000,-1.678712
5.227000,-2.087290
5.228000,-1.662165
5.229000,-0.979928
5.230000,-1.193763
5.231000,-1.924368
5.232000,-2.688066
5.233000,-3.366484
5.234000,-3.697420
5.235000,-2.311308
5.236000,-1.212856
5.237000,-1.069026
5.238000,-1.261223
5.239000,-1.489060
5.240000,-2.030013
5.241000,-2.388951
5.242000,-2.427136
5.243000,-2.171297
5.244000,-1.874728
5.245000,-1.541246
5.246000,-1.356686
5.247000,-1.445784
5.248000,-1.570521
5.249000,-1.802176
5.250000,-1.832724
5.251000,-1.704168
5.252000,-1.524699
5.253000,-1.347776
5.254000,-1.131395
5.255000,-0.822097
5.256000,-0.797913
5.257000,-0.943016
5.258000,-1.193763
5.259000,-0.648992
5.260000,-0.099130
5.261000,-0.408427
5.262000,-0.786458
5.263000,-0.923924
5.264000,-0.581532
5.265000,-1.009203
5.266000,-1.491606
5.267000,-1.816177
5.268000,-1.984191
5.269000,-2.089836
5.270000,-2.101291
5.271000,-1.920549
5.272000,-1.681257
5.273000,-1.705441
5.274000,-1.382142
5.275000,-1.277770
5.276000,-1.304500
5.277000,-1.229403
5.278000,-0.646447
5.279000,-0.338422
5.280000,0.250899
5.281000,0.012879
5.282000,-0.856464
5.283000,-1.728352
5.284000,-2.289670
5.285000,-2.554419
5.286000,-2.474230
5.287000,-2.329128
5.288000,-2.264214
5.289000,-1.327411
5.290000,-0.538256
5.291000,-0.832280
5.292000,-0.398245
5.293000,-0.969745
5.294000,-0.959563
5.295000,-1.168307
5.296000,-1.861999
5.297000,-2.586239
5.298000,-3.021547
5.299000,-3.173014
5.300000,-3.173014
5.301000,-2.914630
5.302000,-2.945178
5.303000,-2.885355
5.304000,-2.700794
5.305000,-2.157296
5.306000,-1.574340
5.307000,-1.223039
5.308000,-1.038478
5.309000,-1.007930
5.310000,-0.959563
5.311000,-0.985019
5.312000,-1.076663
5.313000,-1.043570
5.314000,-0.817006
5.315000,-0.931561
5.316000,-1.070299
5.317000,-1.042297
5.318000,-0.944289
5.319000,-1.030841
5.320000,-0.946834
5.321000,-0.915014
5.322000,-0.990111
5.323000,-0.836098
5.324000,-0.423701
5.325000,0.558923
5.326000,0.718027
5.327000,-0.115676
5.328000,-1.179762
5.329000,-2.027467
5.330000,-2.161114
5.331000,-2.031286
5.332000,-2.497141
5.333000,-2.894264
5.334000,-2.948996
5.335000,-2.820440
5.336000,-2.470412
5.337000,-2.166206
5.338000,-2.157296
5.339000,-2.186571
5.340000,-1.845452
5.341000,-1.237040
5.342000,-0.100403
5.343000,0.802034
5.344000,0.332360
5.345000,-0.767365
5.346000,-1.686349
5.347000,-1.730898
5.348000,-1.519608
5.349000,-1.809813
5.350000,-2.304944
5.351000,-2.689339
5.352000,-2.919721
5.353000,-2.962997
5.354000,-2.880263
5.355000,-2.700794
5.356000,-2.181480
5.357000,-1.748717
5.358000,-1.580704
5.359000,-1.351594
5.360000,-1.177217
5.361000,-0.806823
5.362000,-0.976110
5.363000,-1.100847
5.364000,-1.272679
5.365000,-1.505607
5.366000,-1.673620
5.367000,-1.742353
5.368000,-1.682530
5.369000,-1.686349
5.370000,-1.573067
5.371000,-1.387234
5.372000,-1.155579
5.373000,-0.976110
5.374000,-0.893376
5.375000,-0.768638
5.376000,-0.805550
5.377000,-0.739363
5.378000,-0.786458
5.379000,-0.822097
5.380000,-0.976110
5.381000,-1.056298
5.382000,-1.270133
5.383000,-1.483969
5.384000,-1.528518
5.385000,-1.503061
5.386000,-1.561611
5.387000,-1.671075
5.388000,-1.650709
5.389000,-1.299408
5.390000,-1.281589
5.391000,-1.295590
5.392000,-1.420327
5.393000,-1.685076
5.394000,-1.901457
5.395000,-1.878546
5.396000,-1.836543
5.397000,-1.475059
5.398000,-0.878102
5.399000,-0.468250
5.400000,0.212714
5.401000,0.282719
5.402000,-0.377879
5.403000,-1.307045
5.404000,-2.156023
5.405000,-2.632061
5.406000,-2.764436
5.407000,-2.731342
5.408000,-2.598968
5.409000,-2.368586
5.410000,-2.167478
5.411000,-1.888729
5.412000,-1.832724
5.413000,-1.071572
5.414000,0.687479
5.415000,1.920851
5.416000,1.089694
5.417000,-0.326966
5.418000,-1.786902
5.419000,-2.969361
5.420000,-3.685965
5.421000,-4.002899
5.422000,-3.939258
5.423000,-3.601958
5.424000,-3.119555
5.425000,-2.784801
5.426000,-2.872626
5.427000,-2.679156
5.428000,-2.391497
5.429000,-1.919277
5.430000,-1.363050
5.431000,-0.852645
5.432000,-0.776275
5.433000,-0.870465
5.434000,-0.913741
5.435000,-0.445339
5.436000,0.203804
5.437000,0.303085
5.438000,0.140162
5.439000,-0.459341
5.440000,-1.238313
5.441000,-1.612525
5.442000,-1.587068
5.443000,-1.797085
5.444000,-1.909094
5.445000,-1.746172
5.446000,-1.548883
5.447000,-1.490333
5.448000,-1.453421
5.449000,-0.724089
5.450000,-0.180591
5.451000,-0.416064
5.452000,-0.908650
5.453000,-1.265042
5.454000,-0.264598
5.455000,-0.595533
5.456000,-1.477605
5.457000,-2.283306
5.458000,-2.506051
5.459000,-2.708431
5.460000,-1.654528
5.461000,-1.291771
5.462000,-1.611252
5.463000,-1.688894
5.464000,-1.895093
5.465000,-2.336765
5.466000,-2.598968
5.467000,-2.689339
5.468000,-2.568420
5.469000,-2.292216
5.470000,-2.054197
5.471000,-1.005385
5.472000,0.612382
5.473000,0.345088
5.474000,-0.412246
5.475000,-1.309591
5.476000,-1.896366
5.477000,-2.355857
5.478000,-2.400406
5.479000,-2.362221
5.480000,-2.250212
5.481000,-1.924368
5.482000,-1.230676
5.483000,-1.186127
5.484000,-1.251041
5.485000,-1.268860
5.486000,-1.487787
5.487000,-1.758900
5.488000,-1.786902
5.489000,-1.601069
5.490000,-1.514517
5.491000,-1.448329
5.492000,-1.459785
5.493000,-1.430510
5.494000,-1.536155
5.495000,-1.715624
5.496000,-1.677439
5.497000,-1.635435
5.498000,-1.463603
5.499000,-1.352867
5.500000,-1.393598
5.501000,-1.531063
5.502000,-1.195036
5.503000,-0.525528
5.504000,-0.595533
5.505000,-0.945562
5.506000,-1.188672
5.507000,-1.481423
5.508000,-1.655801
5.509000,-1.685076
5.510000,-1.635435
5.511000,-1.491606
5.512000,-1.371960
5.513000,-1.416509
5.514000,-0.629900
5.515000,-0.736818
5.516000,-1.262496
5.517000,-0.277326
5.518000,-0.015123
5.519000,-0.724089
5.520000,-1.651982
5.521000,-2.383860
5.522000,-2.744070
5.523000,-2.815349
5.524000,-2.634607
5.525000,-2.335492
5.526000,-1.715624
5.527000,-1.131395
5.528000,-1.079209
5.529000,-1.495424
5.530000,-1.881092
5.531000,-2.120384
5.532000,-1.410145
5.533000,-1.336320
5.534000,-1.643072
5.535000,-1.916731
5.536000,-2.256577
5.537000,-2.461502
5.538000,-2.299853
5.539000,-1.290499
5.540000,-0.971018
5.541000,-1.063935
5.542000,-0.866646
5.543000,-1.169580
5.544000,-1.663438
5.545000,-1.939642
5.546000,-2.153477
5.547000,-1.831451
5.548000,-1.478877
5.549000,-1.172125
5.550000,-1.229403
5.551000,-1.243404
5.552000,-1.224311
5.553000,-1.242131
5.554000,-1.219220
5.555000,-1.132668
5.556000,-1.187399
5.557000,-1.239585
5.558000,-1.214129
5.559000,-1.167034
5.560000,-1.273952
5.561000,-1.375778
5.562000,-1.296863
5.563000,-1.366868
5.564000,-1.388506
5.565000,-1.333775
5.566000,-1.150487
5.567000,-0.988838
5.568000,-1.169580
5.569000,-1.314682
5.570000,-1.508152
5.571000,-0.922651
5.572000,0.558923
5.573000,0.852947
5.574000,1.426993
5.575000,0.285265
5.576000,-1.453421
5.577000,-2.895537
5.578000,-3.822157
5.579000,-4.183641
5.580000,-4.125091
5.581000,-3.609595
5.582000,-2.889173
5.583000,-2.401679
5.584000,-2.329128
5.585000,-2.350766
5.586000,-2.206936
5.587000,-1.948552
5.588000,-1.639254
5.589000,-1.374505
5.590000,-1.183581
5.591000,-0.890830
5.592000,-0.441521
5.593000,-0.651538
5.594000,-1.027023
5.595000,-1.408872
5.596000,-1.696531
5.597000,-1.287953
5.598000,-0.698633
5.599000,-0.375334
5.600000,0.807125
5.601000,0.472371
5.602000,-0.575168
5.603000,-1.523426
5.604000,-2.320218
5.605000,-2.909538
5.606000,-2.961724
5.607000,-2.817895
5.608000,-2.460229
5.609000,-2.140749
5.610000,-2.030013
5.611000,-1.977827
5.612000,-2.018557
5.613000,-1.921822
5.614000,-1.543792
5.615000,-1.336320
5.616000,-1.364323
5.617000,-1.503061
5.618000,-1.553974
5.619000,-1.602342
5.620000,-1.584522
5.621000,-1.407599
5.622000,-1.067753
5.623000,-1.047388
5.624000,-1.239585
5.625000,-1.286680
5.626000,-1.289226
5.627000,-0.358787
5.628000,-0.018941
5.629000,-0.207320
5.630000,0.454551
5.631000,0.133798
5.632000,-0.659175
5.633000,-1.463603
5.634000,-1.822541
5.635000,-2.416953
5.636000,-2.707158
5.637000,-2.751707
5.638000,-2.605332
5.639000,-1.915458
5.640000,-1.164488
5.641000,-1.005385
5.642000,-1.513244
5.643000,-2.058015
5.644000,-2.372404
5.645000,-2.265486
5.646000,-2.134385
5.647000,-1.960007
5.648000,-1.789448
5.649000,-1.631617
5.650000,-1.522154
5.651000,-1.533609
5.652000,-1.366868
5.653000,-1.503061
5.654000,-1.637981
5.655000,-1.594705
5.656000,-1.649437
5.657000,-1.555247
5.658000,-1.580704
5.659000,-1.695259
5.660000,-1.523426
5.661000,-1.553974
5.662000,-1.695259
5.663000,-1.127576
5.664000,-0.932833
5.665000,-1.034660
5.666000,-1.307045
5.667000,-1.411417
5.668000,-1.452148
5.669000,-0.767365
5.670000,-0.473342
5.671000,-0.797913
5.672000,-0.988838
5.673000,-1.301954
5.674000,-1.448329
5.675000,-1.402508
5.676000,-1.427964
5.677000,-1.333775
5.678000,-1.285407
5.679000,-1.368141
5.680000,-1.399962
5.681000,-1.366868
5.682000,-1.741080
5.683000,-2.210755
5.684000,-2.117838
5.685000,-1.802176
5.686000,-1.678712
5.687000,-1.800903
5.688000,-1.904003
5.689000,-2.042741
5.690000,-2.078380
5.691000,-1.844180
5.692000,-0.792822
5.693000,-0.459341
5.694000,-0.494980
5.695000,-0.020214
5.696000,-0.194592
5.697000,-0.652811
5.698000,-1.261223
5.699000,-1.860726
5.700000,-2.247667
5.701000,-2.376223
5.702000,-2.465321
5.703000,-2.366040
5.704000,-2.107655
5.705000,-0.955744
5.706000,1.084602
5.707000,2.036679
5.708000,1.247524
5.709000,-0.404609
5.710000,-1.971463
5.711000,-3.346119
5.712000,-4.201461
5.713000,-4.461118
5.714000,-4.215462
5.715000,-3.785245
5.716000,-3.160286
5.717000,-2.619333
5.718000,-2.259122
5.719000,-2.130566
5.720000,-1.785629
5.721000,-1.510698
5.722000,-1.319774
5.723000,-1.049934
5.724000,-0.930288
5.725000,-0.895921
5.726000,-0.950653
5.727000,-1.000293
5.728000,-0.538256
5.729000,0.053610
5.730000,0.154163
5.731000,-0.367697
5.732000,-1.172125
5.733000,-1.788175
5.734000,-1.984191
5.735000,-1.989282
5.736000,-1.739808
5.737000,-1.329956
5.738000,-0.813187
5.739000,-0.740636
5.740000,-0.890830
5.741000,-1.375778
5.742000,-1.784357
5.743000,-1.990555
5.744000,-2.201845
5.745000,-2.247667
5.746000,-2.031286
5.747000,-1.841634
5.748000,-1.672348
5.749000,-1.602342
5.750000,-1.457239
5.751000,-1.587068
5.752000,-1.650709
5.753000,-1.733443
5.754000,-1.657074
5.755000,-1.419054
5.756000,0.098159
5.757000,1.056600
5.758000,0.509283
5.759000,-0.334603
5.760000,-1.424146
5.761000,-2.362221
5.762000,-2.956633
5.763000,-2.737706
5.764000,-2.289670
5.765000,-2.031286
5.766000,-2.033831
5.767000,-1.807268
5.768000,-0.339695
5.769000,0.084158
5.770000,-0.568804
5.771000,-1.415236
5.772000,-1.926914
5.773000,-2.191662
5.774000,-2.196754
5.775000,-2.101291
5.776000,-2.016012
5.777000,-2.012193
5.778000,-1.928186
5.779000,-1.705441
5.780000,-1.511971
5.781000,-1.506880
5.782000,-1.461058
5.783000,-1.453421
5.784000,-1.542519
5.785000,-1.777992
5.786000,-1.583249
5.787000,-0.092766
5.788000,0.329814
5.789000,0.093068
5.790000,-0.622263
5.791000,-1.378324
5.792000,-2.089836
5.793000,-2.507324
5.794000,-2.814076
5.795000,-2.738979
5.796000,-2.606605
5.797000,-2.429681
5.798000,-1.195036
5.799000,-0.957017
5.800000,-1.482696
5.801000,-1.803449
5.802000,-1.996919
5.803000,-1.827633
5.804000,-1.202673
5.805000,-0.678267
5.806000,-0.736818
5.807000,-0.608262
5.808000,-0.353696
5.809000,-0.333330
5.810000,-0.088947
5.811000,-0.923924
5.812000,-1.898911
5.813000,-2.394042
5.814000,-2.555692
5.815000,-2.326582
5.816000,-2.036377
5.817000,-1.993101
5.818000,-2.065652
5.819000,-2.120384
5.820000,-2.125475
5.821000,-2.106383
5.822000,-1.918004
5.823000,-1.528518
5.824000,-1.281589
5.825000,-1.030841
5.826000,-0.889557
5.827000,-0.127132
5.828000,0.835128
5.829000,0.396001
5.830000,-0.674449
5.831000,-1.650709
5.832000,-2.382587
5.833000,-2.868808
5.834000,-3.001182
5.835000,-2.850988
5.836000,-2.691884
5.837000,-2.457684
5.838000,-2.126748
5.839000,-1.870909
5.840000,-1.749990
5.841000,-1.504334
5.842000,-1.280316
5.843000,-1.193763
5.844000,-1.085573
5.845000,-0.969745
5.846000,-1.067753
5.847000,-1.235767
5.848000,-1.337593
5.849000,-1.392325
5.850000,-1.383415
5.851000,-1.285407
5.852000,-1.187399
5.853000,-0.501344
5.854000,-0.444067
5.855000,-0.864101
5.856000,-1.188672
5.857000,-1.349049
5.858000,-1.578158
5.859000,-1.599796
5.860000,-1.355413
5.861000,0.546195
5.862000,0.830036
5.863000,0.104523
5.864000,-0.884466
5.865000,-1.784357
5.866000,-2.204390
5.867000,-1.416509
5.868000,-1.590886
5.869000,-2.041468
5.870000,-2.388951
5.871000,-2.702067
5.872000,-2.947723
5.873000,-2.987181
5.874000,-3.064824
5.875000,-2.806439
5.876000,-2.442410
5.877000,-2.079653
5.878000,-1.649437
5.879000,-0.843735
5.880000,-0.674449
5.881000,-0.875556
5.882000,-0.822097
5.883000,-1.048661
5.884000,-1.746172
5.885000,-1.020659
5.886000,0.528375
5.887000,0.737120
5.888000,0.476189
5.889000,-0.780094
5.890000,-2.084744
5.891000,-3.003728
5.892000,-3.459401
5.893000,-3.646507
5.894000,-3.594321
5.895000,-3.253202
5.896000,-2.708431
5.897000,-2.170024
5.898000,-1.865818
5.899000,-1.588341
5.900000,-1.548883
5.901000,-1.552702
5.902000,-1.234494
5.903000,-1.112302
5.904000,-1.188672
5.905000,-1.091937
5.906000,-1.005385
5.907000,-1.161943
5.908000,-1.296863
5.909000,-1.341412
5.910000,-1.415236
5.911000,-1.298136
5.912000,-1.121212
5.913000,-1.186127
5.914000,-1.314682
5.915000,-1.443238
5.916000,-1.580704
5.917000,-1.584522
5.918000,-1.447057
5.919000,-0.662993
5.920000,-0.423701
5.921000,-0.703724
5.922000,-0.950653
5.923000,-1.108484
5.924000,-0.099130
5.925000,0.215259
5.926000,0.505465
5.927000,0.062520
5.928000,-0.713907
5.929000,-1.601069
5.930000,-2.220937
5.931000,-2.551873
5.932000,-2.685520
5.933000,-2.792438
5.934000,-2.877718
5.935000,-2.348220
5.936000,-1.611252
5.937000,-1.758900
5.938000,-2.061834
5.939000,-2.494596
5.940000,-2.618060
5.941000,-2.629516
5.942000,-2.433500
5.943000,-2.161114
5.944000,-2.008375
5.945000,-1.697804
5.946000,-1.010476
5.947000,-0.817006
5.948000,-0.944289
5.949000,-1.139032
5.950000,-1.357959
5.951000,-1.397416
5.952000,-1.413963
5.953000,-1.351594
5.954000,-1.373233
5.955000,-1.438147
5.956000,-0.995202
5.957000,-0.834825
5.958000,-0.506435
5.959000,-0.344786
5.960000,-0.484797
5.961000,-1.035933
5.962000,-1.781811
5.963000,-2.302398
5.964000,-2.579875
5.965000,-2.615515
5.966000,-2.352039
5.967000,-1.881092
5.968000,-1.537428
5.969000,-1.335048
5.970000,-1.165761
5.971000,-1.104665
5.972000,-1.010476
5.973000,-0.968473
5.974000,-0.921378
5.975000,-0.977382
5.976000,-0.940470
5.977000,-1.188672
5.978000,-1.480150
5.979000,-1.715624
5.980000,-1.864545
5.981000,-1.900184
5.982000,-1.497970
5.983000,-0.671903
5.984000,-0.641355
5.985000,-1.048661
5.986000,-1.567976
5.987000,-1.999465
5.988000,-2.266759
5.989000,-2.385132
5.990000,-2.251485
5.991000,-2.512415
5.992000,0.052337
5.993000,1.104967
5.994000,0.700208
5.995000,0.571652
5.996000,0.266173
5.997000,-0.996475
5.998000,-2.126748
5.999000,-2.861171
6.000000,-3.175560
6.001000,-3.318117
6.002000,-3.454310
6.003000,-3.472129
6.004000,-3.235383
6.005000,-3.047004
6.006000,-2.629516
6.007000,-2.251485
6.008000,-2.189117
6.009000,-1.870909
6.010000,-1.438147
6.011000,-1.277770
6.012000,-1.239585
6.013000,-1.074117
6.014000,-1.060116
6.015000,-0.959563
6.016000,-0.208593
6.017000,0.453279
6.018000,-0.004940
6.019000,-0.321875
6.020000,-0.971018
6.021000,-1.657074
6.022000,-2.049105
6.023000,-2.436046
6.024000,-2.540418
6.025000,-2.458956
6.026000,-2.139476
6.027000,-1.651982
6.028000,-1.304500
6.029000,-1.223039
6.030000,-1.254859
6.031000,-1.228130
6.032000,-1.074117
6.033000,-1.046115
6.034000,-1.103393
6.035000,-1.167034
6.036000,-1.351594
6.037000,-1.324865
6.038000,-1.328683
6.039000,-1.379597
6.040000,-1.346503
6.041000,-1.397416
6.042000,-1.417782
6.043000,-1.369414
6.044000,-1.416509
6.045000,-1.388506
6.046000,-0.323148
6.047000,-0.136042
6.048000,-0.514072
6.049000,-1.085573
6.050000,-1.674893
6.051000,-2.255304
6.052000,-2.570966
6.053000,-2.578603
6.054000,-1.397416
6.055000,-0.222594
6.056000,-0.287509
6.057000,-0.211139
6.058000,-0.052035
6.059000,-0.912468
6.060000,-1.919277
6.061000,-2.848442
6.062000,-3.169196
6.063000,-3.113191
6.064000,-2.882809
6.065000,-2.600241
6.066000,-2.490777
6.067000,-2.355857
6.068000,-2.234938
6.069000,-1.979100
6.070000,-1.739808
6.071000,-0.997748
6.072000,-0.260779
6.073000,-0.255688
6.074000,-0.609535
6.075000,-1.089391
6.076000,-1.490333
6.077000,-1.789448
6.078000,-1.939642
6.079000,-2.097473
6.080000,-2.229847
6.081000,-1.751263
6.082000,-1.178490
6.083000,-1.249768
6.084000,-1.462331
6.085000,-1.682530
6.086000,-1.780538
6.087000,-2.150932
6.088000,-2.397861
6.089000,-2.451320
6.090000,-2.274396
6.091000,-1.865818
6.092000,-1.415236
6.093000,-1.365596
6.094000,-0.771184
6.095000,-0.554803
6.096000,-0.662993
6.097000,-0.889557
6.098000,-1.100847
6.099000,-0.815733
6.100000,-0.296418
6.101000,-0.082583
6.102000,-0.376607
6.103000,-0.838644
6.104000,-1.522154
6.105000,-2.054197
6.106000,-2.144567
6.107000,-2.010920
6.108000,-1.929459
6.109000,-1.738535
6.110000,-1.784357
6.111000,-1.706714
6.112000,-1.687622
6.113000,-1.636708
6.114000,-1.081754
6.115000,-0.097857
6.116000,-0.170408
6.117000,-0.587896
6.118000,-1.200128
6.119000,-1.770355
6.120000,-2.223483
6.121000,-2.346947
6.122000,-2.349493
6.123000,-2.218392
6.124000,-1.989282
6.125000,-1.742353
6.126000,-1.616343
6.127000,-1.637981
6.128000,-1.606160
6.129000,-1.547610
6.130000,-1.405053
6.131000,-1.307045
6.132000,-1.191218
6.133000,-1.117394
6.134000,-0.997748
6.135000,-0.799186
6.136000,-0.778821
6.137000,-0.861555
6.138000,-1.336320
6.139000,-0.983747
6.140000,-0.272235
6.141000,-0.158953
6.142000,-1.001566
6.143000,-1.751263
6.144000,-2.148386
6.145000,-2.434773
6.146000,-2.271850
6.147000,-1.408872
6.148000,-1.252314
6.149000,-1.150487
6.150000,-1.490333
6.151000,-2.313854
6.152000,-2.978271
6.153000,-3.474675
6.154000,-3.419943
6.155000,-2.966816
6.156000,-2.554419
6.157000,-2.182752
6.158000,-1.865818
6.159000,-1.641800
6.160000,-1.509425
6.161000,-1.065208
6.162000,-0.791549
6.163000,-0.683359
6.164000,-0.519164
6.165000,0.486372
6.166000,0.486372
6.167000,-0.111858
6.168000,-0.867919
6.169000,-1.548883
6.170000,-1.664711
6.171000,-1.629071
6.172000,-1.744899
6.173000,-1.013022
6.174000,-1.074117
6.175000,-1.527245
6.176000,-1.980372
6.177000,-2.251485
6.178000,-2.372404
6.179000,-2.442410
6.180000,-2.242575
6.181000,-1.954916
6.182000,-1.785629
6.183000,-1.687622
6.184000,-1.271406
6.185000,-1.221766
6.186000,-1.420327
6.187000,-1.616343
6.188000,0.562742
6.189000,1.162245
6.190000,0.525830
6.191000,-0.447885
6.192000,-1.461058
6.193000,-2.209482
6.194000,-2.730069
6.195000,-2.976998
6.196000,-2.982090
6.197000,-2.811530
6.198000,-2.670246
6.199000,-2.480595
6.200000,-2.209482
6.201000,-1.905275
6.202000,-1.800903
6.203000,-1.819996
6.204000,-1.714351
6.205000,-1.575612
6.206000,-1.411417
6.207000,-1.291771
6.208000,-1.169580
6.209000,-0.403336
6.210000,0.788033
6.211000,0.550014
6.212000,-0.391881
6.213000,-1.308318
6.214000,-2.056742
6.215000,-2.332946
6.216000,-2.273123
6.217000,-2.119111
6.218000,-1.800903
6.219000,-1.588341
6.220000,-1.573067
6.221000,-1.609979
6.222000,-1.681257
6.223000,-1.679985
6.224000,-1.784357
6.225000,-1.203946
6.226000,-0.320602
6.227000,0.248353
6.228000,0.105796
6.229000,-0.500071
6.230000,-1.205219
6.231000,-1.865818
6.232000,-2.265486
6.233000,-2.324037
6.234000,-2.298580
6.235000,-2.243848
6.236000,-2.178934
6.237000,-2.094927
6.238000,-2.240030
6.239000,-2.112747
6.240000,-1.895093
6.241000,-1.905275
6.242000,-0.943016
6.243000,0.042154
6.244000,0.011607
6.245000,-0.459341
6.246000,-1.057571
6.247000,-1.771628
6.248000,-2.191662
6.249000,-2.206936
6.250000,-2.047832
6.251000,-1.974008
6.252000,-1.884910
6.253000,-1.795812
6.254000,-1.800903
6.255000,-1.833997
6.256000,-1.752536
6.257000,-1.635435
6.258000,-1.602342
6.259000,-1.468695
6.260000,-1.262496
6.261000,-1.226857
6.262000,-1.170853
6.263000,-0.151316
6.264000,0.081612
6.265000,-0.204775
6.266000,-0.592988
6.267000,0.129980
6.268000,0.094340
6.269000,-0.594261
6.270000,-1.427964
6.271000,-1.663438
6.272000,-1.930732
6.273000,-2.191662
6.274000,-2.528962
6.275000,-2.875172
6.276000,-3.062278
6.277000,-2.469139
6.278000,-1.427964
6.279000,-1.146669
6.280000,-1.546337
6.281000,-1.867091
6.282000,-1.995646
6.283000,-2.153477
6.284000,-2.236211
6.285000,-2.101291
6.286000,-2.120384
6.287000,-2.066925
6.288000,-1.856908
6.289000,-1.769083
6.290000,-1.795812
6.291000,-1.755082
6.292000,-1.595978
6.293000,-1.333775
6.294000,-1.458512
6.295000,-0.749546
6.296000,-0.204775
6.297000,-0.634991
6.298000,-1.310864
6.299000,-1.813632
6.300000,-2.130566
6.301000,-2.097473
6.302000,-1.974008
6.303000,-1.807268
6.304000,-1.634163
6.305000,-1.608706
6.306000,-1.365596
6.307000,-1.069026
6.308000,-1.032114
6.309000,-0.981201
6.310000,-0.929015
