6
9573 4
-0.003528	0.001857	-0.000070	-0.000030	-0.002307	0.001368	-0.000070	0.000946	-0.001330	0.003077	0.000418	0.000946	-0.000354	0.003077	0.000174	0.000946	-0.002307	0.002589	-0.000070	0.000702	-0.002551	0.002101	0.000174	-0.000519	-0.001574	0.002345	0.000418	0.000214	-0.001819	0.002101	0.002127	0.000214	-0.003039	0.001857	0.000663	0.000702	-0.001086	0.002589	0.001151	0.000214	-0.001330	0.001857	0.000907	-0.000274	-0.001819	0.003077	0.000418	-0.000519	-0.002307	0.001124	-0.000070	-0.000763	-0.002307	0.001124	-0.000314	-0.000763	-0.005969	-0.001073	-0.001290	-0.001739	-0.004992	0.000148	-0.000802	-0.001251	-0.004016	0.000392	-0.001290	-0.001495	-0.004260	-0.000097	0.000174	-0.001495	-0.003283	0.000148	-0.000802	-0.001251	-0.002795	0.000636	0.000174	-0.001007	-0.004016	0.001124	-0.001046	-0.000763	-0.002795	0.001368	-0.000314	-0.001251	-0.002551	0.000148	-0.000558	-0.000519	-0.002063	0.000880	-0.000558	-0.001007	-0.001330	-0.002050	-0.000070	-0.000519	-0.001819	0.000392	-0.000070	-0.000763	-0.004260	-0.000341	-0.000314	-0.002228	-0.003772	-0.001073	-0.000314	-0.002228	-0.003528	-0.000341	-0.000070	-0.000763	-0.003283	-0.000341	-0.000070	-0.001251	-0.002551	-0.001317	-0.000314	-0.001495	-0.002551	-0.000829	-0.000070	-0.001251	-0.002551	-0.000829	0.000174	-0.001251	-0.002795	-0.000341	-0.000070	-0.000274	-0.002551	0.000880	0.000663	0.000214	-0.002551	0.000392	-0.000070	-0.000763	-0.003772	0.000148	-0.000070	-0.000763	-0.003283	0.000392	-0.000314	-0.001007	-0.002551	0.000392	0.000174	-0.001007	-0.003528	-0.002050	-0.000070	-0.000763	-0.004504	-0.001073	-0.000558	-0.001739	-0.001819	0.000880	-0.000314	-0.001739	-0.001330	0.000636	0.000174	-0.001007	-0.001574	0.001124	0.000174	-0.001007	-0.000598	0.001368	0.000174	-0.000763	-0.001086	0.002589	0.000663	0.000458	-0.000598	-0.002050	0.000907	-0.001007	-0.000598	0.002589	0.001639	-0.000274	-0.000842	0.000880	-0.000070	-0.000763	-0.000598	0.000880	0.000418	-0.000519	-0.000110	0.001368	0.000663	-0.000274	-0.000598	0.000880	0.000907	-0.000030	-0.000598	0.001124	0.000174	-0.000763	-0.002063	0.000636	-0.000314	-0.001007	-0.001574	0.000636	-0.000314	-0.001007	0.000135	0.001124	0.003104	-0.000763	-0.000842	0.000392	-0.000070	-0.000763	-0.001574	0.000636	-0.000558	-0.000519	-0.000598	-0.000341	-0.000070	-0.000519	-0.000842	-0.000829	-0.000070	-0.000763	0.000379	0.001124	-0.000314	-0.000763	-0.000110	-0.000585	-0.001046	-0.000519	-0.001574	-0.001561	-0.000558	-0.000763	0.000379	-0.001317	-0.001046	-0.000763	0.000379	-0.001073	-0.000314	-0.000519	-0.000598	-0.000341	0.000418	-0.001251	-0.003039	-0.000341	-0.000314	-0.001007	-0.001819	0.000392	0.000174	-0.000519	-0.000354	0.000636	-0.000314	-0.000274	0.000623	0.001124	0.000174	-0.000030	0.002332	0.000880	0.000174	-0.000763	0.000623	0.000880	0.000418	0.000214	0.000379	-0.000585	0.000418	-0.000519	0.000135	0.000636	-0.000070	-0.000030	0.001111	-0.000585	0.000907	-0.000519	0.001599	-0.000341	0.000663	-0.000274	0.001844	-0.000097	0.000907	0.000214	0.000867	0.000148	0.000907	-0.000030	0.002576	0.000392	0.000663	-0.000030	0.000135	-0.000829	0.000174	-0.000763	0.001111	-0.000341	0.000663	-0.000763	0.002088	-0.000829	0.000418	-0.000519	0.003064	0.000636	-0.000070	-0.000519	0.001111	0.000392	0.000663	-0.000519	0.001111	0.000880	0.001151	0.000214	0.002332	0.000148	-0.000070	0.000214	0.002820	0.000880	-0.000314	0.000702	0.002332	0.000148	0.001151	-0.000030	0.002332	0.000392	0.000663	-0.001739	0.002576	0.000636	0.001395	-0.000274	0.002576	0.000148	0.001151	0.000458	0.002332	-0.000097	0.000663	-0.000030	0.001599	-0.002050	0.001395	0.000214	-0.000842	-0.000829	0.000174	-0.000763	-0.000110	0.003077	0.000907	-0.000030	0.001111	-0.000585	0.000663	0.000702	0.000867	0.000392	0.001639	0.000214	0.001599	0.000148	0.002616	0.000458	0.001599	-0.000097	0.001151	0.000702	0.001844	-0.000341	0.001151	0.000702	0.001111	-0.000341	0.001151	0.000214	0.002088	-0.001317	0.001151	0.001435	0.001355	-0.002050	0.001151	0.000214	0.001355	-0.001806	0.000663	-0.000030	0.001599	-0.000341	0.000663	0.000702	-0.003528	-0.002538	-0.000558	0.000458	-0.000842	-0.004491	-0.000070	0.000458	-0.000354	-0.003026	-0.000558	0.000214	0.001111	-0.001317	0.000174	0.000458	0.001599	-0.002050	0.000663	0.000702	0.000867	-0.002050	0.000174	0.000458	0.002088	-0.001806	0.001151	0.000458	0.001599	-0.000341	0.000907	0.000702	0.001844	-0.001806	0.001395	0.000702	0.001111	-0.002294	0.001395	0.000946	0.001111	-0.002782	0.000174	0.000702	0.001599	-0.001806	0.001395	0.001190	0.001844	-0.002050	0.001151	0.000458	0.001111	-0.002050	-0.000070	0.000946	-0.001086	-0.003026	-0.000558	-0.000030	0.001111	-0.001806	0.000663	0.000702	0.001355	-0.000585	0.000418	0.000702	0.003064	-0.000341	-0.000070	0.000214	0.003308	-0.000341	0.000907	-0.000274	0.002088	-0.000341	0.000907	-0.000763	0.002576	-0.000585	-0.000070	-0.000763	0.002576	0.000880	0.000174	-0.001495	0.002576	0.000392	0.000663	-0.001739	0.002332	0.000148	0.000174	-0.001983	0.002332	-0.000097	0.000418	-0.001983	0.002820	0.000880	0.000663	-0.001007	-0.000110	0.000148	0.001151	-0.001251	0.000623	0.001124	-0.000070	-0.000030	0.001111	0.000880	0.000418	-0.000274	0.001599	0.001612	0.000418	0.000946	0.001599	0.001124	0.000663	0.001190	0.002576	0.000880	0.000663	0.002411	0.002332	0.002101	0.000174	0.002167	0.001844	0.000636	0.000174	0.002655	0.002088	0.000880	0.001395	0.002655	0.003308	0.000392	0.000174	0.003143	0.003308	0.000392	0.000663	0.003388	0.001844	-0.000585	0.000174	0.002899	0.002332	0.000636	0.000418	0.004364	0.001844	0.000148	0.000418	0.003388	-0.002063	-0.001561	-0.000314	0.002655	-0.001086	-0.001317	0.000418	0.002899	-0.000110	-0.001317	0.000663	0.002899	-0.002063	-0.001561	-0.000070	0.002899	-0.000598	-0.001806	-0.000558	0.002655	0.000135	-0.001317	0.000174	0.002899	-0.000598	-0.002294	0.000418	0.002655	0.000135	-0.002538	-0.000558	0.002411	-0.000842	-0.002050	0.000174	0.002167	0.000135	-0.002782	-0.000070	0.000946	0.000379	-0.000829	0.000174	0.000214	-0.000110	-0.001561	0.000663	-0.000763	-0.000110	0.000880	-0.001779	-0.001007	-0.004016	0.005275	-0.000314	-0.004181	-0.002063	0.005519	0.000907	-0.002716	-0.002063	0.005763	0.000907	-0.002716	-0.000842	0.004542	0.001151	-0.002472	-0.001086	0.003321	0.000907	-0.003448	-0.000842	0.002833	0.001151	-0.002960	-0.000110	0.002345	0.000174	-0.002960	-0.001086	0.001612	0.000663	-0.002716	-0.001819	0.001124	0.000663	-0.003448	-0.001574	0.002101	-0.000070	-0.004181	-0.002063	0.001124	0.000663	-0.004669	-0.000354	0.002345	0.000418	-0.003937	0.000379	0.001612	0.000907	-0.004425	-0.001330	-0.000097	-0.001046	-0.002472	-0.000110	0.000148	-0.000314	-0.000519	0.000135	0.000148	-0.000070	0.000702	0.000867	0.000636	-0.000070	0.001190	0.001599	0.001124	0.000418	0.001190	0.002088	0.006007	0.001151	0.002899	0.001111	0.002345	0.000907	0.005341	0.002576	0.002345	0.000418	0.006561	0.001355	0.001124	0.000174	0.005829	0.001111	0.000636	-0.000314	0.006073	0.001844	0.000636	0.000174	0.007050	0.002088	0.001368	-0.000070	0.007294	0.001844	0.001368	-0.000314	0.006073	-0.000598	-0.000341	-0.001535	0.005585	0.000379	-0.000341	-0.001046	0.006073	-0.000110	0.000392	-0.001046	0.005341	0.001355	0.000636	-0.000802	0.004852	0.001111	0.000392	-0.001290	0.004608	0.000623	0.000392	-0.001290	0.005097	0.001355	-0.000097	-0.001046	0.004852	0.000623	-0.000341	-0.001535	0.005097	0.000135	0.000392	-0.001535	0.003876	0.000135	-0.000097	-0.001046	0.002899	0.000379	-0.001806	-0.001290	0.002411	0.000379	-0.000097	-0.001779	0.002655	-0.000354	-0.000341	-0.000802	0.001923	-0.000842	-0.001561	-0.002267	0.001435	-0.001819	-0.002050	-0.001535	-0.000274	-0.002307	-0.001073	-0.001535	-0.000274	-0.001574	-0.000341	-0.000558	-0.000274	-0.002795	-0.000585	-0.000802	0.000214	-0.000598	-0.000097	-0.000558	0.000458	-0.002307	-0.000341	-0.000558	-0.000519	-0.001330	-0.000829	-0.000558	-0.000519	-0.002551	-0.000341	-0.000314	-0.000519	-0.002307	-0.000097	-0.000070	0.000214	-0.001330	0.000880	0.000174	-0.000519	-0.001819	-0.000097	-0.000314	-0.000274	-0.001574	0.000880	-0.000314	-0.000763	-0.002551	-0.001561	-0.000314	-0.001739	-0.001086	-0.000585	-0.000314	-0.001251	-0.000110	0.000392	0.000418	-0.001007	0.000379	0.001368	-0.000314	-0.001251	0.000867	0.001124	-0.002267	-0.001007	0.000867	0.001368	-0.000070	-0.001007	0.000379	0.000636	-0.000070	-0.001007	0.001599	0.000392	0.000174	-0.000763	0.001111	0.001124	-0.000802	-0.001983	0.000379	0.001124	-0.000070	-0.001251	0.000867	0.001368	-0.000070	-0.001251	0.000623	0.001368	-0.000558	-0.001251	0.000867	0.000880	-0.000070	-0.001251	0.000867	0.000392	-0.000802	-0.001251	-0.003528	0.000880	-0.000314	-0.002472	-0.000110	0.000392	0.000663	-0.002472	0.000135	0.000636	0.000418	-0.001251	0.000135	0.001368	0.000174	-0.001007	0.000379	0.001857	0.000418	-0.000763	-0.000110	0.001368	0.000663	-0.001251	-0.000110	0.000636	0.000174	-0.000763	-0.000110	0.000880	0.000663	-0.000274	0.000379	0.001124	0.000663	-0.001251	-0.000110	-0.000829	0.000907	-0.001251	0.001599	0.000636	0.001395	-0.001495	0.000135	0.002101	0.000663	-0.001007	-0.000354	-0.000097	0.001151	-0.001495	-0.002551	-0.000585	-0.000314	-0.002716	-0.001086	-0.001073	-0.000558	-0.002228	-0.000598	-0.001317	0.000418	-0.002472	-0.001086	-0.001317	0.001151	-0.001983	0.002088	-0.000585	0.000418	-0.001495	-0.000598	-0.001561	0.000663	-0.001739	-0.000598	-0.002294	-0.000558	-0.001251	-0.002795	-0.001073	0.000663	-0.001251	-0.002795	-0.000829	0.000663	-0.001495	-0.002307	-0.001561	0.000663	-0.001251	-0.002551	-0.001317	0.000174	-0.001007	-0.002551	-0.001806	-0.000070	-0.000519	-0.002063	-0.002294	0.000174	-0.001007	-0.004016	-0.001317	-0.001290	-0.000763	-0.002795	-0.002538	0.000907	-0.001007	-0.002307	-0.002050	0.000418	-0.000763	-0.001574	-0.001317	0.000907	-0.000519	-0.001330	-0.001561	0.001395	-0.000763	-0.002063	-0.001561	0.000907	-0.001739	-0.001819	-0.000585	0.001151	-0.000763	-0.001086	-0.000097	0.000663	-0.000030	-0.000110	-0.000097	0.001395	0.000214	-0.001330	0.000392	0.001151	-0.000274	-0.001086	0.000392	0.000663	-0.000519	0.000623	0.000392	0.000663	0.000946	0.000135	0.000148	0.001395	-0.000274	-0.000842	-0.000585	0.000174	-0.000519	-0.001086	0.000636	0.000907	-0.000519	0.000623	0.000880	0.001883	-0.000030	0.000867	0.001368	0.001395	0.000702	0.000623	0.001368	0.001395	0.000214	0.000135	0.000148	0.001639	-0.000030	0.000379	0.000148	0.001151	0.000458	0.001111	0.000636	0.000663	0.000458	0.000623	0.000148	0.001151	-0.000763	0.000135	-0.000341	0.001151	0.000458	0.000135	-0.000585	0.001151	-0.000274	0.001111	-0.002050	0.000907	-0.000030	0.001355	-0.001561	0.000907	-0.000274	-0.002551	-0.003270	0.000174	-0.002228	-0.001574	-0.001073	0.000907	-0.000763	-0.001330	-0.003515	0.001395	-0.000519	-0.001330	-0.000829	0.001639	-0.000274	-0.000598	-0.001317	0.001151	-0.000519	-0.001330	-0.000341	0.001395	-0.000519	-0.000842	-0.000341	0.001639	-0.001007	-0.000842	-0.001073	0.001639	-0.000763	-0.000598	-0.001073	0.001395	-0.000519	-0.000110	-0.001073	0.001395	-0.000519	-0.000110	-0.000585	0.000663	0.000458	-0.000110	0.000148	0.001883	-0.000030	0.000135	-0.000585	0.001883	0.000458	-0.002795	-0.001073	0.000663	-0.000763	-0.002307	-0.001073	0.000907	-0.000030	-0.002063	-0.002050	0.001151	0.000458	-0.000842	-0.000585	0.000418	0.000214	-0.001819	0.000636	0.000418	0.000214	-0.001574	0.000392	0.001639	-0.000274	0.000379	0.000392	0.000418	-0.000030	-0.002063	0.000636	0.000174	-0.000030	0.000135	-0.000341	0.000174	0.000458	0.000135	0.000148	0.000174	0.000214	-0.001086	0.000392	0.000174	-0.000030	0.000135	-0.000341	-0.000314	-0.000030	-0.000354	0.000636	0.000663	0.000946	0.001111	-0.001317	0.000418	0.000702	-0.000842	-0.001317	0.000174	0.000946	-0.000598	0.000148	0.000174	0.001190	0.000867	-0.000585	0.000418	0.001190	0.001111	-0.000341	-0.000070	0.000946	0.001111	-0.000097	-0.000070	0.001679	0.002576	0.000636	0.000418	0.001435	0.001355	0.001612	0.000418	0.001435	0.001599	0.000636	0.000907	0.001679	0.002332	0.000392	0.000418	0.001435	0.002088	0.000636	0.000174	0.001190	0.001355	0.000392	0.001395	0.001435	0.001111	0.000880	0.001395	0.001190	-0.004260	-0.000585	0.000418	-0.000030	0.000867	-0.000341	0.001151	0.000702	0.000867	0.000148	0.002372	0.000702	-0.000842	-0.000097	0.001151	0.000702	0.001111	-0.000585	0.003104	0.000214	0.000623	-0.000585	0.000907	0.000214	-0.002307	0.000392	0.001151	0.002167	-0.000354	-0.000341	0.001395	0.000458	-0.000842	-0.001073	-0.000558	0.000214	-0.000598	-0.001073	0.001395	0.000702	-0.001819	-0.000341	0.000663	-0.000519	-0.001086	-0.001317	0.000663	-0.000274	-0.000110	-0.000341	0.000907	-0.000519	-0.002063	-0.000097	-0.000558	-0.000519	-0.002551	-0.002294	-0.000314	-0.001007	-0.001819	-0.001561	-0.000558	-0.000274	-0.001330	-0.002050	-0.000070	0.000702	-0.000842	-0.001806	-0.000558	0.000214	0.000867	-0.001073	0.000418	-0.000030	0.000867	-0.000829	0.000418	-0.000030	0.000135	-0.000829	-0.000070	-0.000030	0.000867	-0.000829	-0.000314	0.001190	-0.000110	-0.001561	-0.000314	0.000702	0.000379	-0.000585	-0.000314	0.000702	0.000379	-0.000341	-0.000802	0.000702	0.001355	-0.001073	-0.000314	0.000702	-0.000354	0.000148	-0.001535	0.000946	-0.002063	0.000880	-0.001046	-0.000519	-0.000354	0.000148	-0.001535	-0.000274	0.000135	-0.000341	-0.001779	-0.000030	0.001355	0.000392	-0.001046	-0.000274	0.000867	0.001612	-0.000802	0.000214	0.001111	0.001612	-0.000070	0.000214	-0.001330	0.001368	-0.000314	-0.001495	0.001844	0.001857	-0.000314	-0.000519	0.001111	0.002101	-0.000314	-0.000030	0.001844	0.001857	-0.000070	0.001190	0.004041	0.001612	0.000418	-0.000030	0.002576	0.001857	0.000907	0.000458	0.002332	0.001857	0.000174	-0.000030	-0.000598	0.000148	-0.000802	-0.000763	-0.000110	0.000636	-0.000558	0.000458	0.002820	0.001612	-0.000558	0.000214	0.001111	0.001124	-0.000070	-0.000519	0.002332	0.002101	0.000418	0.001923	0.002332	0.001612	0.000174	0.000214	0.000135	0.001857	-0.000070	-0.000274	0.001355	0.002101	-0.000070	0.000458	0.000623	0.002589	-0.000070	-0.000030	-0.000598	0.001368	0.000174	-0.001007	0.000379	0.000880	-0.000314	-0.000274	0.001355	0.000880	0.001883	-0.000274	-0.003283	0.000148	0.000174	0.000214	-0.002063	0.000148	-0.000558	0.000702	-0.002307	0.000636	-0.000558	-0.000519	-0.001086	0.000636	-0.000314	-0.000519	-0.001330	0.000880	-0.000802	-0.000763	-0.000110	0.001857	-0.000070	-0.000030	-0.000110	0.000636	-0.001535	-0.000274	-0.000842	0.001368	0.000174	-0.000763	-0.000842	0.000148	0.000174	-0.001251	-0.000110	0.000880	0.002127	-0.002472	0.000379	0.002589	0.000663	-0.002716	0.000135	0.002589	0.000418	-0.003937	-0.001086	0.002589	0.000418	-0.005401	-0.001086	0.001857	0.000418	-0.005890	-0.000354	0.002345	-0.001290	-0.006622	-0.003772	0.000880	0.000174	-0.008331	-0.000598	0.002589	0.000663	-0.007355	0.000135	0.002589	0.002616	-0.006378	-0.000110	0.002589	0.001151	-0.005890	0.000867	0.002589	0.005301	-0.005157	0.001111	0.002101	0.001151	-0.003937	0.000867	0.002345	0.002372	-0.003204	0.000867	0.002589	0.001639	-0.002228	0.000867	0.001612	0.001151	-0.001007	0.000135	0.001368	0.001395	-0.000030	-0.000354	0.001612	0.001395	0.000702	-0.001086	0.001857	0.001395	0.001190	-0.002307	0.000148	0.000663	0.002411	-0.001819	0.000148	0.000174	0.003388	0.000135	0.000880	0.000663	0.005829	0.001844	0.001124	0.000663	0.005097	0.001599	0.001368	0.001395	0.005341	0.000379	0.001368	0.000663	0.005341	0.000867	0.002589	0.000907	0.006073	0.001844	0.001612	-0.000802	0.006806	0.001355	0.002589	0.000663	0.006806	0.001844	0.002833	0.000907	0.007050	0.001599	0.001857	0.001395	0.006073	0.001844	0.001368	0.001395	0.005829	0.001844	0.001857	0.002372	0.005097	0.001111	0.001612	0.001151	0.004852	-0.002307	0.000148	0.000174	0.001435	0.000135	0.000636	0.001151	0.002167	-0.000842	-0.003515	0.001639	0.001679	-0.001086	0.000392	0.000663	0.002167	-0.001086	0.000636	-0.000070	0.002655	-0.000598	0.000392	0.000174	0.002411	-0.001819	-0.000341	0.000174	0.001679	-0.000110	-0.000097	0.000174	0.002899	-0.001330	0.001857	-0.001046	0.001679	-0.001574	-0.000585	-0.000070	0.001190	-0.001330	-0.000585	-0.000314	-0.000030	0.000135	-0.000341	-0.000070	0.000702	-0.003039	-0.000341	0.000418	-0.000030	-0.002551	0.000880	0.000174	0.000702	-0.001574	0.001124	0.000663	0.000458	-0.000354	-0.000097	0.000907	0.000702	-0.005237	0.000392	0.001151	0.000946	-0.001086	-0.000097	-0.000558	0.000702	-0.001819	-0.000585	-0.000558	0.000702	-0.001574	-0.001317	-0.000314	0.000214	-0.000110	-0.000585	-0.000070	0.000458	-0.000598	-0.001317	0.000174	0.000214	-0.001086	-0.001561	-0.000070	-0.000030	-0.000842	-0.001806	-0.000070	-0.000519	-0.000598	-0.000585	0.000663	-0.000274	-0.000110	-0.002050	0.000174	-0.000030	-0.002063	-0.002294	0.000174	-0.001007	-0.001086	-0.000829	0.000418	-0.000030	-0.000354	-0.000829	0.002372	-0.000274	0.002332	-0.000341	0.000663	-0.000274	0.000135	-0.000097	-0.000070	0.000458	0.000867	0.000636	0.001151	-0.000274	0.001599	0.001857	-0.000070	0.000702	-0.000110	0.001612	-0.000070	0.001190	0.000867	0.002345	0.000418	0.000458	0.001844	0.003566	0.000663	0.000458	0.001355	0.003566	0.001151	0.000946	0.001844	0.002833	0.000907	0.002167	0.000867	0.003566	0.001151	-0.000030	0.000623	0.001368	0.000907	-0.001739	0.000379	0.000636	0.000907	-0.000519	0.001844	0.001124	0.001151	-0.000519	0.001111	0.000636	0.000418	-0.000763	0.001111	0.000392	0.000418	-0.001251	0.001111	0.000636	0.000907	-0.000519	0.001111	0.000148	0.000907	-0.000763	-0.000110	0.000392	0.000174	-0.001007	0.000623	-0.000341	0.000418	-0.001007	0.000623	-0.002782	-0.000558	-0.001007	0.000867	-0.001073	0.000174	-0.001007	0.000379	-0.000829	-0.000070	-0.000763	-0.000110	-0.000829	-0.000070	-0.000763	-0.003283	-0.000829	0.000418	-0.001251	-0.001086	-0.000097	-0.000070	-0.001007	-0.000598	-0.000585	0.000174	-0.000763	0.000379	0.000148	-0.000558	-0.000763	0.000867	-0.000097	0.001151	-0.000763	-0.001330	0.000148	-0.000314	-0.000519	0.000379	-0.000585	0.000418	-0.000763	0.001111	-0.000097	-0.000314	-0.000763	0.000867	-0.000097	0.000174	-0.001007	0.000867	-0.000585	0.000174	-0.001007	0.001111	-0.000341	-0.000070	-0.000763	-0.000110	-0.000097	-0.000314	-0.001007	-0.000598	-0.000097	0.000174	-0.000519	-0.002063	-0.000097	-0.000314	-0.001495	-0.000110	0.000880	0.000174	-0.001251	-0.001086	-0.000097	-0.000070	-0.001251	-0.000354	-0.000585	-0.000070	-0.001007	-0.001819	0.000148	-0.000314	-0.001007	0.000623	-0.000097	-0.000558	-0.000763	0.000379	-0.000829	-0.000070	-0.001007	0.001844	0.000636	0.001151	-0.000519	0.001111	-0.000097	0.000174	-0.000274	0.000867	-0.000341	0.000174	-0.000519	0.000623	-0.000341	0.000174	-0.001007	0.000623	0.000148	0.000907	-0.000519	0.001111	0.000148	0.001395	-0.000519	0.000867	-0.000341	0.001395	-0.002472	-0.002063	-0.001317	0.000907	-0.000763	-0.001086	-0.000585	0.001639	0.000702	-0.001574	-0.000829	0.001151	-0.000274	-0.001819	-0.000341	0.001395	-0.000274	-0.000598	-0.000585	0.001883	-0.000030	-0.000110	-0.000341	0.001395	-0.000519	-0.001086	-0.000097	0.001151	-0.000274	0.000379	-0.000829	0.001151	-0.000763	-0.001086	-0.001806	0.001151	-0.000763	-0.001330	-0.001073	0.000907	-0.000519	-0.001086	-0.001561	0.000907	-0.000030	-0.001086	-0.001806	0.000663	0.000702	-0.003528	-0.003515	-0.000314	-0.000763	-0.002551	-0.004003	0.000418	-0.000274	-0.002063	-0.003515	-0.000070	-0.000274	-0.002307	-0.003026	-0.000070	-0.000030	-0.001574	-0.001806	-0.000070	-0.000519	-0.001574	-0.002538	-0.000802	-0.000030	-0.001330	-0.002538	0.000418	-0.000030	-0.001574	-0.002050	0.000174	0.000214	-0.000842	-0.002050	0.001151	0.000214	-0.001819	-0.001806	0.000418	0.000214	-0.002063	-0.002050	0.000663	0.000458	-0.001819	-0.001806	0.000174	-0.000274	-0.002063	-0.001806	0.000907	-0.000519	-0.001819	-0.001806	0.000418	0.000458	-0.004016	-0.002782	-0.000070	-0.001495	-0.001330	-0.001806	0.001395	0.000702	-0.000354	-0.001317	0.001883	0.000702	-0.000354	-0.000097	0.001883	0.001190	-0.000110	-0.002294	0.001395	0.000946	-0.000110	-0.001317	0.001883	0.000946	0.000623	-0.000585	0.002616	0.000458	-0.001086	0.001124	0.001883	0.000702	-0.001086	0.002345	0.002616	0.001435	-0.000842	0.005519	0.001883	0.001190	-0.000598	0.006495	0.002372	0.000702	-0.000598	0.007472	0.002372	0.000702	-0.000354	0.007472	0.002372	0.000458	-0.002795	0.004054	0.001883	0.000214	-0.002307	0.005519	0.002372	0.000214	-0.001330	0.004298	0.001883	0.001190	-0.000842	0.003810	0.001395	0.000458	-0.000110	0.003321	0.001883	0.000458	0.000623	0.002833	0.001151	0.001435	-0.000110	0.002833	0.001395	0.000702	0.000135	0.001857	0.000663	0.000702	-0.001086	0.002345	0.001151	0.001190	-0.000598	0.002345	0.000174	0.001190	-0.001819	0.001857	-0.000314	0.001679	-0.001574	0.001124	0.000174	0.000702	-0.001574	0.001124	0.001151	0.000702	-0.003772	-0.000829	-0.001290	-0.001251	-0.001819	-0.000585	-0.001290	-0.000274	-0.000842	0.000148	-0.001290	-0.000030	-0.001574	-0.000341	-0.001779	0.000458	-0.002063	-0.000097	-0.001535	0.000458	-0.001819	-0.000829	-0.001046	-0.001007	-0.002551	-0.000585	-0.000314	0.000946	-0.002063	-0.001073	-0.000314	-0.000030	-0.000110	-0.001073	-0.000802	0.001190	-0.002795	-0.001317	-0.000802	-0.000030	-0.002551	-0.001073	-0.000314	0.000458	-0.002795	-0.000585	-0.001290	0.000214	-0.002551	-0.001561	0.000174	0.000702	-0.005725	-0.000829	-0.001535	-0.000763	-0.004504	-0.001806	0.001395	0.000214	-0.002551	-0.001073	-0.000558	0.000946	-0.002551	-0.001317	-0.000070	0.000458	-0.002551	-0.001561	-0.000314	0.000946	-0.001819	-0.001317	-0.001046	0.001923	-0.001330	-0.001317	0.000174	0.001679	-0.001330	-0.001073	-0.000802	0.000214	-0.000842	-0.000097	-0.000070	-0.000763	-0.000598	-0.000829	-0.000314	-0.000763	-0.000354	-0.002538	-0.000314	-0.001495	0.000623	-0.001561	-0.000558	-0.002960	-0.000354	-0.001073	-0.000314	-0.001983	-0.001086	-0.002050	-0.001046	-0.001495	0.000379	-0.001073	-0.001046	-0.000763	0.000135	-0.000585	-0.001046	-0.000030	0.000623	-0.000341	-0.001046	-0.000763	0.001111	-0.000829	-0.000314	-0.000030	0.001111	0.000148	-0.000314	0.000214	0.001599	0.000148	-0.000070	0.000458	0.001844	-0.000829	-0.000558	0.000702	0.002088	-0.000829	-0.000558	0.001435	0.000135	-0.001806	-0.001046	0.001679	-0.000354	-0.001317	-0.000558	0.001190	0.000867	-0.001806	-0.000802	0.001679	0.000135	-0.000829	-0.001290	0.001190	-0.002307	-0.003270	-0.002267	0.001923	-0.000110	-0.003759	-0.001046	0.002167	-0.000110	-0.002782	-0.001290	0.002899	0.000867	-0.002050	-0.001290	0.004364	0.000135	-0.002294	-0.001290	0.002899	-0.000110	-0.002538	-0.000558	0.002899	-0.000842	-0.002050	-0.001535	0.003388	0.000623	-0.001561	-0.000558	0.004120	-0.000110	-0.002050	-0.000802	0.004120	-0.000110	-0.001806	-0.001535	0.004364	-0.000110	-0.002782	-0.002023	0.003632	0.000867	-0.002050	-0.001290	0.003143	-0.001086	-0.001073	-0.001290	0.002655	-0.000598	-0.002294	-0.001046	0.002167	-0.002551	-0.002782	-0.002511	-0.001007	-0.001330	-0.001317	-0.001046	-0.002228	-0.000598	-0.002050	-0.000802	-0.002716	0.000867	-0.001806	-0.001046	-0.003448	-0.000354	-0.000829	-0.001290	-0.003204	-0.000110	-0.000341	-0.001046	-0.003448	-0.000110	-0.002050	-0.001535	-0.003692	0.001111	0.000880	-0.001290	-0.003448	0.000623	-0.000097	-0.000802	-0.003448	0.000623	0.000392	-0.000558	-0.002472	-0.000110	0.000392	-0.000314	-0.002228	0.001355	0.000148	-0.001046	-0.001983	-0.000842	-0.000097	-0.000802	-0.000763	0.002332	-0.000341	-0.000070	-0.000763	0.001844	0.001857	-0.000070	0.000946	0.001355	0.000636	-0.000314	0.001923	0.001844	0.002345	-0.000070	0.002655	0.002088	0.000880	-0.000314	0.002899	0.001844	0.001124	-0.000314	0.003143	0.001844	0.000636	0.000174	0.003143	0.002088	-0.000097	-0.000314	0.002899	0.003064	0.000880	-0.000802	0.003388	0.002332	-0.000341	-0.000558	0.002899	0.002332	0.000880	0.000174	0.003388	0.000867	0.000392	-0.000314	0.003388	0.002576	-0.000585	-0.000070	0.003143	-0.000110	-0.000341	-0.000314	0.001923	0.000135	0.000636	-0.000070	0.001679	0.000135	0.001124	0.000663	0.000946	0.000867	0.000880	0.000907	-0.000519	0.000867	0.001612	0.000663	-0.000274	0.001844	0.002101	0.000418	-0.001007	0.000623	0.000636	0.000418	-0.001495	-0.000842	0.000880	0.000418	-0.001983	-0.000354	0.001612	0.000907	-0.002716	0.000135	0.001612	0.001395	-0.001983	-0.000354	0.001124	0.001151	-0.001739	-0.001330	0.001124	0.001395	-0.003204	-0.001819	0.000880	0.000663	-0.002228	-0.005725	0.000392	0.000418	-0.002228	-0.004260	0.000636	0.000907	-0.001007	-0.002795	-0.000341	0.000418	-0.001251	-0.003283	-0.001806	0.000663	0.000214	-0.002063	-0.001317	0.000663	0.000946	-0.002063	0.000148	0.001151	0.001190	-0.002063	-0.000097	0.000418	0.001190	-0.002063	0.000148	0.001151	0.000946	-0.003772	-0.000341	-0.000070	0.001923	-0.003039	-0.000585	0.000663	0.002411	-0.001819	0.000392	0.000907	0.001679	-0.001819	0.001612	0.000907	0.002655	-0.001330	0.000392	0.000907	0.001923	-0.004260	-0.000585	0.000418	0.001679	-0.001819	0.000148	0.000663	0.001435	-0.001086	0.001612	0.000907	0.001679	-0.000842	0.001368	0.000663	0.001923	-0.001330	0.001857	0.001395	0.002655	-0.000842	0.001612	0.000418	0.002167	-0.001086	0.001857	0.000174	0.001679	0.000135	0.001368	-0.000070	0.001435	0.000135	0.001612	0.000663	0.000946	-0.000354	0.001612	0.001151	0.000702	-0.000598	0.000636	0.000907	0.000458	-0.000110	0.000148	0.000663	0.000946	-0.001086	-0.000341	0.000663	0.000946	-0.001574	-0.000585	0.001395	0.000458	-0.000842	0.000148	0.000418	0.000458	-0.000110	-0.000097	0.000174	0.001435	-0.000110	-0.000585	0.000174	0.000702	-0.001574	-0.001317	-0.000070	0.001190	-0.000598	-0.001806	-0.000558	0.001190	-0.000598	-0.001561	-0.000558	0.001190	-0.000110	-0.001561	-0.000802	0.001435	0.000379	-0.000829	-0.000558	0.001190	-0.000598	0.000392	0.000418	0.000702	0.001355	-0.000341	-0.000070	0.001190	0.000623	0.000392	0.002127	0.000946	0.001599	-0.000097	0.000174	0.000214	-0.001574	0.000880	-0.000070	-0.001007	-0.001086	-0.000341	-0.000314	-0.000763	-0.000110	-0.000585	0.000663	-0.000519	-0.000354	-0.001073	0.001395	-0.000519	-0.001086	-0.000341	-0.000070	-0.000030	-0.000598	-0.000097	0.000663	-0.000274	-0.002063	-0.001561	0.000907	-0.000763	-0.001086	-0.001317	-0.002023	-0.000763	-0.000598	-0.001317	0.000174	-0.000519	-0.002551	0.000148	0.000907	-0.000274	-0.001086	-0.000341	0.002372	-0.000274	-0.001086	-0.000341	0.000907	-0.000763	-0.000110	0.000392	0.001883	-0.000519	-0.002307	-0.001806	-0.000314	-0.001739	-0.002551	-0.001806	0.000663	-0.001495	-0.002063	-0.001317	0.000174	-0.000763	-0.001574	-0.001806	0.000174	-0.001007	0.000623	-0.001561	-0.000070	-0.000763	-0.000842	-0.001317	-0.001779	-0.000519	-0.001086	-0.001073	0.000907	-0.000274	-0.002063	0.000880	-0.001535	0.000214	-0.001086	0.001612	0.000418	-0.000274	0.000867	0.001612	0.000418	0.000458	0.000135	0.002345	0.000174	-0.000030	0.000379	0.002345	0.000907	0.000946	-0.000110	0.002101	0.001151	0.000946	-0.001330	0.002589	0.000907	0.000702	-0.001574	0.000636	0.000174	-0.001251	-0.001819	0.001612	0.000418	-0.000274	0.000379	0.002345	0.000663	0.000214	0.002820	0.002101	0.001151	0.000946	0.001111	0.001612	0.000663	-0.000030	0.001355	0.001857	0.003592	-0.000519	0.000379	0.002101	0.000663	-0.000519	0.001355	0.003077	0.001151	-0.000030	0.001599	0.002345	0.001639	-0.000030	0.001599	0.002101	0.000907	-0.001983	0.001111	0.002589	0.001151	-0.000763	0.001111	0.002101	0.001151	-0.000274	-0.002795	0.000880	0.000907	-0.001007	-0.000598	0.000148	0.000418	-0.001007	0.000379	0.001124	0.000907	-0.003448	0.000379	0.000392	0.000418	-0.000274	-0.000354	0.000392	0.000174	-0.000763	-0.000110	-0.000097	0.000174	-0.000519	0.000379	-0.001073	0.000174	-0.000519	-0.001330	-0.000097	0.001395	-0.000519	-0.000842	0.000392	-0.000802	-0.000274	-0.000842	0.000636	-0.000802	-0.000763	-0.001819	-0.001073	0.000174	-0.000030	-0.002063	-0.001073	-0.000558	-0.000519	-0.000842	0.000392	-0.000558	0.000458	-0.001086	-0.001073	-0.001046	-0.000274	-0.003528	-0.001561	-0.000558	-0.000763	-0.002063	-0.001317	-0.000558	-0.000763	-0.001086	0.000148	-0.000802	-0.000519	-0.001819	-0.000829	-0.000802	-0.000274	0.000135	-0.000585	0.001883	-0.000030	0.000379	0.000148	-0.000802	0.000214	-0.000354	0.000392	-0.000558	-0.000763	-0.000598	0.001612	-0.000314	0.000214	-0.000110	0.000880	-0.000558	-0.000519	-0.000354	0.003077	-0.001290	-0.000519	-0.000598	0.000880	-0.000314	-0.000763	0.000135	0.000148	-0.000070	-0.000274	-0.000110	-0.000585	-0.000070	-0.001007	-0.001330	-0.000829	-0.000558	-0.001495	-0.000354	-0.000585	-0.000802	-0.000519	0.000623	0.000148	-0.000314	-0.001251	0.000379	0.000148	-0.001290	-0.000763	0.001111	-0.000097	-0.000070	-0.000274	0.001355	0.000880	0.000418	-0.000519	0.001111	0.001124	0.000174	-0.000519	0.001599	0.001368	-0.000070	-0.000763	0.001111	0.001368	0.000418	-0.000030	0.000623	0.000636	0.000663	-0.000519	0.000623	0.000880	0.000907	-0.000519	0.001599	0.002101	0.001883	-0.000274	-0.000110	0.001124	0.000907	-0.000763	0.000623	0.001124	0.000174	-0.000274	-0.001574	0.000880	0.000174	-0.001251	-0.000354	-0.000341	0.000418	-0.000274	-0.000598	-0.000097	0.000907	-0.000519	-0.000110	0.001124	0.000907	0.000214	0.001111	0.000148	-0.000070	0.000946	0.000379	0.000392	0.001151	-0.000274	0.000135	0.000148	0.000418	0.000214	0.001599	0.001857	0.000907	0.000702	0.000623	0.001124	0.000907	0.000946	0.000135	0.000148	0.000907	-0.000030	-0.000110	-0.000097	-0.002999	0.000214	-0.002795	0.000636	-0.000070	0.000458	-0.003039	0.000880	-0.000802	-0.003204	-0.002551	-0.000097	-0.000314	-0.001251	-0.001819	0.000148	0.000174	-0.001739	-0.001086	0.000880	-0.000070	-0.002472	-0.000842	0.001612	-0.000314	-0.001983	-0.001819	0.000392	-0.002511	-0.002716	-0.000842	0.000636	-0.000802	-0.002472	-0.000110	0.000880	-0.000070	-0.001739	-0.001574	0.000636	-0.000070	-0.002472	-0.002307	0.000148	-0.000070	-0.002960	-0.001330	0.000148	-0.000070	-0.001739	-0.002795	-0.001073	0.000174	-0.000763	-0.002063	-0.000829	-0.000314	-0.001739	-0.001819	-0.001806	-0.000314	-0.001251	-0.002795	-0.002050	-0.001290	-0.001007	-0.002307	-0.000097	-0.000802	-0.000519	-0.002063	-0.000341	-0.000314	-0.000030	-0.000598	-0.000097	-0.000558	0.000214	-0.001330	-0.000097	-0.000314	0.000946	-0.000842	-0.000585	-0.001046	0.001190	-0.000598	0.000148	-0.000070	0.000946	-0.000354	-0.000829	-0.000314	0.001435	-0.001330	-0.000585	-0.000314	0.001923	-0.000110	-0.000829	-0.000558	0.001923	-0.000110	-0.000097	-0.000802	0.002167	0.000867	0.000392	-0.000314	0.002167	-0.001330	-0.000097	-0.001046	0.001923	0.000867	0.000636	-0.001290	0.002411	0.001111	0.000636	-0.001290	0.002655	0.002332	0.000148	-0.000558	0.001923	0.001844	0.000392	-0.000558	0.002167	0.001355	0.000636	-0.000802	0.001679	0.001844	0.000880	-0.001046	0.000946	0.001111	0.002101	-0.000558	0.000946	0.001111	0.000148	-0.000314	0.000946	0.001844	0.001124	0.000174	0.002411	0.001844	0.000636	-0.000070	0.000458	0.001355	0.001124	-0.000802	0.000702	0.002576	0.001124	-0.000314	-0.000030	0.001599	0.001857	-0.001046	0.000214	-0.003039	-0.000341	-0.000558	-0.003692	-0.001819	0.000636	-0.001046	-0.003448	-0.000842	0.001368	-0.000314	-0.004913	-0.000842	0.000880	-0.000070	-0.003937	0.000379	0.000392	-0.000558	-0.004669	-0.000354	0.000148	-0.000070	-0.004669	0.000135	0.000392	-0.001290	-0.004425	-0.000354	-0.000585	-0.000558	-0.003937	-0.001086	-0.000097	-0.000070	-0.003448	-0.001086	-0.000829	-0.000070	-0.002716	-0.000354	-0.000829	-0.000070	-0.002472	-0.001330	-0.001073	0.000174	-0.001739	-0.001086	-0.001073	0.000174	-0.001739	-0.003528	-0.002538	-0.000314	-0.001007	-0.003283	-0.003026	0.000663	0.000214	-0.002795	-0.003026	-0.000070	0.000702	-0.001330	-0.003759	0.000418	0.001679	0.000867	-0.002538	0.000418	0.002899	-0.000598	-0.002294	0.000418	0.002411	-0.000354	-0.001561	0.000418	0.002899	-0.000110	-0.002538	0.000174	0.003143	0.000379	-0.001806	0.000418	0.003632	0.000379	-0.001806	0.000418	0.005585	-0.000842	-0.001806	-0.000070	0.003632	-0.000354	-0.001806	0.000418	0.003632	0.000623	-0.001561	0.000418	0.004608	-0.000598	-0.002050	-0.000314	0.002899	0.000623	-0.001073	0.000663	0.002899	0.002576	-0.000585	0.001151	0.003388	0.002332	-0.000829	0.002860	0.002899	0.002576	-0.000341	0.001151	0.002655	0.003064	-0.000585	0.001395	0.002899	0.003797	-0.000097	0.001883	0.002899	0.003797	0.000148	0.001395	0.002167	0.003797	-0.000097	0.001395	0.001923	0.003064	-0.001073	0.001151	0.001190	0.003308	-0.000341	0.001151	-0.000274	0.003064	-0.000097	0.001395	0.000946	0.002820	0.000392	0.001883	0.001435	-0.000598	-0.001561	-0.001046	-0.000519	0.001111	-0.001806	-0.001535	0.000702	-0.000598	-0.001073	0.001151	0.001679	0.001111	-0.002538	0.000663	0.000702	0.001111	-0.002294	0.000174	-0.000519	0.000623	-0.001317	0.000174	-0.000030	0.001599	0.000392	-0.000070	0.000214	-0.001330	0.002345	0.000663	0.000702	-0.000598	0.004298	-0.000314	-0.000030	-0.001819	0.006251	-0.000802	-0.000763	-0.002795	0.004542	-0.000558	-0.000519	-0.001819	0.004298	-0.001046	-0.000519	-0.001574	0.003810	-0.000070	0.000214	-0.002795	0.002589	-0.000070	-0.000519	-0.004016	-0.000341	0.000418	-0.000274	-0.001574	0.000636	-0.000070	-0.000763	-0.001819	-0.000097	0.000663	-0.000274	-0.001574	0.000148	0.000663	-0.000274	-0.000110	0.000148	0.000663	-0.000274	0.000379	-0.000341	0.001151	-0.000519	-0.001330	0.001124	0.000907	-0.000763	-0.001086	0.000392	0.000663	-0.000763	-0.001574	0.000148	0.001395	-0.000763	-0.000598	-0.000097	0.000907	-0.000763	-0.001086	0.001368	0.000907	-0.000763	-0.001330	0.000880	0.001151	-0.000274	-0.002307	-0.000341	0.001395	-0.001495	-0.002795	0.000148	0.001395	-0.001251	-0.001330	-0.000097	0.002127	-0.001251	-0.001086	-0.000341	0.001395	-0.000763	-0.001086	-0.000341	0.001639	-0.000763	0.000623	0.000880	0.001639	-0.000763	0.000135	0.001368	0.001151	-0.000030	0.001599	0.001124	0.001395	-0.001251	-0.000354	-0.000829	0.000907	-0.000030	-0.000110	0.001857	0.000663	-0.000030	-0.000110	0.002345	0.000663	-0.000519	0.000135	0.002589	0.000663	-0.000274	-0.000842	0.002833	0.000174	-0.000763	-0.001086	0.002589	-0.000558	-0.000519	-0.001086	0.000636	-0.000314	-0.001007	-0.000110	0.001124	0.000418	-0.000274	0.000379	0.001124	0.000418	-0.000030	0.000623	0.000148	0.000174	0.000214	-0.000598	0.000880	0.000907	-0.000030	0.000135	0.000636	0.000907	0.000214	0.000379	0.000636	0.000663	0.000702	-0.000354	-0.000341	0.000663	0.000458	0.000135	0.000148	-0.000070	0.000458	-0.000354	-0.000097	0.000663	0.001190	-0.000354	-0.000585	0.001151	0.000458	-0.001086	-0.000341	-0.000070	0.000214	-0.004016	-0.001806	-0.000314	-0.001495	-0.002795	-0.001561	-0.000802	-0.001007	-0.001819	-0.000829	-0.000802	-0.001007	-0.002795	-0.001561	-0.001535	-0.000763	-0.002551	-0.001806	-0.001046	-0.001007	-0.002795	-0.001561	-0.001046	0.000458	-0.002551	-0.002050	-0.000802	-0.000274	-0.003039	-0.000585	-0.000558	-0.000274	-0.001819	-0.001561	-0.000070	-0.000274	-0.003528	-0.000829	-0.000314	-0.000030	-0.001086	-0.001073	-0.000070	0.000702	-0.002307	-0.000829	-0.000070	0.000458	-0.001330	-0.000829	-0.000070	0.001190	-0.001574	-0.001561	-0.000070	-0.000274	-0.004260	-0.001073	-0.001535	-0.000030	-0.002307	0.000148	-0.000558	0.001190	-0.000354	-0.000341	-0.000314	0.001190	0.000623	0.000392	0.000418	0.000946	0.000135	0.000392	-0.000314	0.001190	-0.000110	-0.001073	-0.000558	0.001190	0.000867	0.000148	-0.001535	-0.000519	0.001111	0.000636	-0.000314	0.000946	0.003064	0.000392	-0.000314	0.000702	0.001355	0.001124	-0.000314	0.000214	0.001111	0.000880	-0.000070	0.000458	0.001355	0.001368	0.000174	0.000458	0.000867	0.001124	-0.000558	0.000214	-0.000110	0.000880	-0.000558	0.000214	-0.000110	0.000636	-0.000558	-0.000030	0.001355	-0.000097	-0.000314	0.000702	0.001355	0.000880	-0.000314	-0.000030	0.002088	0.002101	-0.000314	0.000946	0.002332	0.000148	-0.000314	0.000702	0.001355	0.000636	-0.000802	0.000702	0.002088	-0.000341	-0.000558	0.000458	0.002088	0.000148	0.000174	0.000458	0.001599	-0.000585	-0.000070	0.000946	0.001355	-0.000829	-0.000314	0.000214	0.001111	0.000636	-0.000314	0.000458	0.001844	0.002101	-0.000558	0.000214	-0.001819	-0.000585	-0.002267	-0.001983	-0.001819	-0.000341	-0.001046	-0.000519	-0.000354	0.000880	0.001883	-0.000763	0.000135	0.000636	-0.001046	-0.001007	0.000135	0.000880	-0.000314	-0.000519	-0.000110	0.000392	-0.000558	-0.000763	0.000623	-0.000585	-0.001535	-0.000519	0.000379	0.000636	-0.003244	-0.000519	0.001599	0.000148	-0.000802	-0.001251	0.001355	0.000636	-0.001535	-0.000274	0.000623	0.000636	-0.001290	-0.000519	0.001844	0.000636	0.001151	-0.000274	0.001355	0.000392	-0.000558	-0.000274	-0.002551	-0.000097	-0.002023	-0.001495	-0.001330	0.000392	-0.002511	-0.000763	-0.001330	0.000148	-0.001779	-0.000519	-0.001086	-0.000097	-0.001779	-0.000274	-0.000598	-0.000829	-0.002267	-0.000519	-0.000354	-0.000097	-0.002023	-0.000274	0.000135	-0.001073	-0.002267	-0.000274	0.000379	-0.002294	-0.002023	0.000458	0.000379	0.000880	-0.002023	0.000458	0.000379	0.000880	-0.001046	0.000702	0.001599	0.001857	-0.001290	0.000214	0.001111	0.002101	-0.000802	-0.000519	0.000623	0.004054	-0.000802	0.000458	0.000623	0.000636	-0.000070	0.000214	-0.000598	0.001612	-0.000558	-0.000519	0.001111	0.002101	-0.000314	-0.000274	0.000867	0.002345	-0.000070	0.000458	0.002088	0.001612	0.000418	0.000702	0.000623	0.001368	0.000663	0.000458	0.001111	0.002833	0.001395	0.000702	0.000867	0.002833	0.000907	0.000702	0.001111	0.002101	0.001395	0.000214	0.000623	0.002589	0.001151	0.000702	-0.000110	0.001368	0.000907	0.000458	-0.000842	0.002101	0.000174	0.000458	0.000623	0.001857	0.001395	0.000458	-0.004016	0.000880	0.000174	-0.001007	-0.003283	0.001124	0.003348	-0.000274	-0.004016	0.001368	0.000174	-0.000030	-0.002795	0.000148	-0.000070	0.000702	-0.003772	0.001124	-0.000314	0.000214	-0.003528	0.000880	-0.000314	-0.000030	-0.002551	0.001124	-0.000070	-0.000274	-0.002795	0.000636	0.000174	-0.001983	-0.002551	0.005030	-0.000314	-0.001739	-0.003039	0.000636	0.000174	-0.002472	-0.001819	-0.000585	-0.001046	-0.003448	-0.003039	-0.000341	-0.000558	-0.002960	-0.002307	0.000148	-0.003488	-0.002716	-0.002063	0.001368	-0.000558	-0.002716	-0.005481	-0.000585	-0.002511	-0.003692	-0.003528	0.000392	-0.001046	-0.002960	-0.003772	-0.000097	-0.001046	-0.002472	-0.004016	-0.000097	-0.001046	-0.002716	-0.002795	0.000636	-0.000558	-0.001251	-0.004016	-0.000097	-0.002023	-0.001739	-0.003039	-0.001073	-0.000558	-0.001007	-0.002551	-0.000097	-0.000314	-0.000763	-0.002795	-0.000097	-0.000558	-0.000519	-0.002307	-0.000097	-0.000314	-0.000274	-0.002063	-0.000097	-0.000070	-0.000274	-0.001574	0.000392	-0.000802	-0.000274	-0.001819	0.000148	-0.000314	-0.000274	-0.004016	0.002101	-0.000314	0.000214	-0.003039	-0.000097	-0.000558	0.000946	-0.000598	0.000636	-0.001046	0.001923	-0.000354	0.000148	0.000418	0.002167	0.000135	0.000636	-0.002023	0.001923	0.000867	0.000880	0.000663	0.002655	0.002088	0.000880	0.000663	0.002411	0.001599	0.000880	0.000907	0.002655	0.002088	0.001612	0.001151	0.002411	0.002576	0.001612	0.001151	0.001923	0.001844	0.002101	-0.000070	0.002411	0.001599	0.001857	0.000907	0.001435	0.002820	0.001124	0.000174	0.001190	-0.001574	0.000148	-0.000314	-0.000519	-0.000110	0.000636	0.000663	-0.001495	-0.001086	0.001612	0.000418	-0.000519	0.000379	0.000392	0.000907	-0.000519	0.000379	-0.000585	0.001151	-0.001251	0.000867	0.000636	0.001151	-0.001251	-0.000842	0.000148	0.001151	-0.003204	-0.000110	0.000880	0.000907	-0.004181	0.000135	0.001124	0.000174	-0.004669	0.001111	0.000392	0.000907	-0.004669	0.000135	0.000148	0.000418	-0.005401	-0.001330	0.000148	0.001151	-0.005401	-0.001574	-0.000585	-0.000314	-0.005646	-0.003039	-0.002050	0.000907	-0.004913	-0.002551	-0.000829	0.000174	-0.003937	-0.001574	-0.000341	0.000907	-0.002472	-0.001330	0.000148	0.000907	-0.002716	-0.000598	-0.000585	0.000663	-0.002228	-0.000354	-0.000097	0.000174	-0.001251	0.000135	0.000148	0.001151	-0.001007	-0.000354	-0.000585	0.000907	0.000702	-0.000598	-0.001317	0.000418	0.000946	0.000379	-0.000097	0.001395	0.001190	0.000135	-0.002050	0.000418	0.000946	0.000135	-0.000097	-0.000070	0.001435	-0.000110	0.000148	-0.000070	0.002655	-0.002551	-0.001561	0.002127	0.002411	0.000135	-0.001317	-0.000314	0.002899	-0.000842	-0.000585	0.000174	0.003388	0.000379	0.000392	0.000418	0.005097	0.000379	-0.000097	0.000418	0.003388	0.000623	-0.000097	0.000663	0.003876	0.001355	0.000880	0.000907	0.003143	0.002332	0.000148	0.001151	0.003388	0.000623	0.000148	0.001151	0.003388	0.000379	0.001368	0.000907	0.002899	0.000135	0.000392	0.001151	0.002167	0.000623	0.001124	0.001395	0.002411	0.000135	0.001368	0.000907	0.001679	-0.000110	0.001124	0.000663	0.002167	0.001111	0.000880	0.000174	0.002167	0.001844	0.000636	0.000663	0.001679	0.002576	0.000392	0.000907	0.001923	0.001844	0.001124	0.000907	0.002899	0.001355	-0.000097	0.001151	0.001190	0.000379	-0.001073	0.000663	0.000946	0.001355	-0.000341	0.000663	-0.000030	0.000867	-0.000829	0.001151	0.000458	0.001355	0.000148	0.000663	0.000214	0.001599	0.000392	0.000663	-0.001983	0.001844	0.000636	0.000174	0.000214	0.000867	0.000392	0.000663	0.000458	-0.003528	-0.002050	-0.000558	-0.001495	-0.000842	-0.000585	-0.000314	-0.000030	0.000867	-0.000585	-0.000070	0.000214	-0.000598	0.000880	-0.000558	-0.000519	0.000135	-0.001561	-0.001046	-0.000030	0.000379	-0.001806	-0.000802	-0.000030	0.000379	-0.001561	-0.001046	-0.000274	0.000379	-0.001317	-0.000558	-0.000519	-0.002063	-0.001561	-0.001535	-0.001007	-0.000110	-0.000829	-0.002023	-0.000519	-0.000110	-0.001317	-0.001779	-0.001251	0.000623	-0.002050	-0.001046	-0.000763	0.000623	-0.001806	-0.001290	-0.000763	-0.002307	-0.003515	-0.001779	-0.001739	-0.001330	-0.002294	-0.001779	-0.000030	0.000623	-0.001561	-0.001046	-0.000763	-0.000110	-0.001561	-0.001779	-0.000519	-0.000110	-0.001317	-0.001290	-0.000763	-0.000110	-0.001317	-0.000558	-0.000519	0.000135	-0.001073	-0.000314	-0.000030	-0.000110	-0.000829	-0.000802	-0.000274	0.001111	-0.000585	-0.001290	-0.000030	0.001111	-0.000097	-0.001779	-0.000274	0.000623	-0.000097	-0.000558	0.000214	0.000623	0.000636	-0.000558	0.000214	0.000379	0.000148	-0.000802	0.000458	-0.001330	-0.001806	-0.000558	-0.000519	0.000623	-0.000341	-0.001046	0.000214	0.001355	0.000392	-0.000314	0.001435	0.000379	-0.000585	0.000174	0.000458	-0.000598	0.000148	-0.000070	0.000702	0.000623	0.001612	0.000174	0.000946	0.000379	0.000880	0.000418	0.001190	0.000867	0.000636	0.000907	0.001190	0.000379	0.001368	0.000174	0.000946	0.002576	0.000148	-0.000802	0.000946	0.002820	-0.000341	0.000174	0.001679	0.002332	0.000880	0.000418	0.001190	0.001355	0.000148	0.001151	0.000946	-0.001574	-0.001317	-0.000314	-0.000519	-0.000354	-0.001806	0.000663	0.000458	0.000867	-0.000585	-0.000314	0.000214	-0.001330	-0.002538	-0.000314	0.000214	0.000623	-0.000585	0.000174	-0.000274	-0.000354	0.001124	0.000174	0.001435	0.002088	0.001368	0.000418	0.000214	0.000867	0.004054	-0.000314	-0.000030	0.000623	0.006739	-0.000070	-0.000763	-0.000110	0.006495	-0.000314	-0.000763	-0.001574	0.006739	-0.000314	-0.001007	-0.000110	0.006007	0.000418	-0.000763	-0.004504	0.005275	-0.000070	-0.001251	-0.002307	0.000636	-0.000802	-0.001983	-0.001330	0.000880	-0.000558	-0.001251	-0.000598	0.001124	-0.000314	-0.001007	-0.001086	0.000148	-0.000314	-0.001251	-0.000110	0.000880	-0.000314	-0.000763	-0.000110	0.000636	0.000418	-0.000274	-0.000598	0.000636	-0.000314	-0.000519	-0.000598	0.000880	-0.000314	-0.000763	-0.001819	0.001612	-0.000558	-0.000763	-0.000110	0.000392	0.000418	-0.000763	-0.001086	0.000392	-0.000314	-0.000274	-0.001086	0.001368	0.000663	-0.000030	0.000379	0.001124	-0.000070	-0.001495	-0.000842	-0.000097	-0.000802	-0.002960	-0.000842	-0.000341	-0.000558	-0.001007	0.000623	0.000148	-0.000070	-0.000763	0.000867	-0.000341	0.000174	-0.000763	0.000623	-0.002782	0.000663	-0.000519	0.000379	0.000148	0.001151	-0.000763	0.001355	0.000392	0.000907	-0.000763	0.001599	0.000148	0.000418	-0.001007	0.001599	-0.000097	0.000663	-0.000274	0.001599	0.000880	0.000418	-0.000274	0.001599	-0.000585	0.000663	-0.000274	0.000867	0.001124	0.002616	-0.000030	0.001599	0.001124	0.000663	-0.000274	0.001599	0.000880	0.000418	-0.000274	-0.001574	-0.000585	0.000907	-0.000763	0.000379	0.000880	0.001151	-0.000030	-0.000842	-0.000341	0.001151	0.000946	0.003308	0.000392	0.001639	0.000458	0.000867	0.000636	0.001151	0.000214	0.001355	-0.001073	0.001151	0.000458	0.000867	-0.002294	0.001151	0.000458	0.002088	-0.001317	0.000663	0.000702	0.001599	-0.000097	0.000418	0.000214	0.001355	-0.000829	0.000418	0.000946	0.000623	-0.001806	0.000174	0.001190	0.001355	-0.001561	-0.000802	0.000702	-0.000598	-0.003270	-0.000070	-0.001251	0.000135	-0.003515	-0.000070	-0.000519	-0.000354	-0.003759	-0.002267	-0.000274	0.001111	-0.003759	-0.000314	-0.000030	0.001844	-0.003515	-0.000070	-0.000274	0.001111	-0.003515	-0.000558	0.000214	0.000623	-0.003026	-0.001046	-0.000030	0.001111	-0.004003	-0.000070	0.001435	0.000867	-0.003515	-0.000314	-0.000030	0.000379	-0.003759	0.000174	-0.000274	0.000379	-0.003270	0.000174	-0.000030	0.000379	-0.002538	0.000174	-0.000030	0.000379	-0.003515	-0.000802	-0.001983	-0.000354	-0.003026	-0.000070	-0.000274	-0.002307	-0.003026	-0.000802	-0.001251	-0.002795	-0.002050	-0.000558	-0.000519	-0.000842	-0.001317	0.000174	-0.000519	0.000135	-0.000829	-0.000558	0.001679	-0.000354	-0.002050	0.000174	0.000458	0.000867	-0.001561	-0.000070	0.000214	0.000623	-0.000341	0.000663	0.000458	0.001355	-0.001317	0.000663	0.000458	0.001599	-0.000341	0.001395	0.000458	0.001599	0.000148	0.001395	0.000458	0.000623	0.001124	0.001151	-0.000030	0.000867	0.000880	0.000418	0.000214	0.000867	0.001124	0.001395	0.000214	-0.000598	0.000636	0.000907	0.001435	0.001111	0.000392	0.000663	0.000214	-0.000110	0.001857	0.000907	0.000458	0.001844	0.002589	0.001883	-0.000030	0.000135	0.002589	0.001151	0.000702	0.000623	0.002345	0.001151	0.000702	0.000135	0.002101	0.001151	0.000458	0.000135	0.001857	0.001151	0.000458	0.000379	0.001857	0.001395	0.000458	-0.001330	0.001857	0.000907	0.000458	0.000135	0.001612	-0.000802	0.000702	-0.000598	0.001857	0.000663	0.000946	-0.000842	0.002833	0.000174	-0.000274	-0.003772	0.002101	-0.000314	-0.002716	-0.003528	0.001368	0.000174	-0.002716	-0.002551	0.002101	-0.000070	-0.002228	-0.001574	0.003077	-0.000314	-0.001495	-0.000110	0.002589	-0.000070	-0.001251	0.000135	0.002833	-0.000070	-0.001251	-0.000842	0.002589	-0.000070	-0.001007	-0.001086	0.002345	-0.000070	-0.001251	-0.000842	0.001368	0.000418	-0.001251	-0.000110	0.003321	0.000174	-0.000763	-0.000354	0.001857	-0.000070	-0.000763	0.000867	0.002345	0.000418	-0.000519	-0.000598	0.001612	-0.000070	-0.000030	-0.003283	-0.000341	-0.000802	-0.000030	-0.003039	0.000148	-0.000070	-0.000274	-0.001819	0.000636	-0.000070	0.000946	0.001599	0.001368	0.000418	0.001435	0.000379	0.001124	0.000174	0.001435	0.001111	0.001857	0.000418	0.001435	0.000623	0.001368	-0.000070	0.000946	-0.000598	0.000636	-0.000314	0.001435	0.000623	0.001368	0.000174	0.002411	0.000623	0.002101	0.000174	0.002167	-0.000110	0.001368	-0.000070	0.002655	0.000623	0.001124	-0.000558	0.003143	0.001844	0.001857	0.000663	0.003388	0.001111	-0.000341	0.000418	0.001190	0.002576	-0.000829	0.000418	0.001190	0.003064	0.000392	0.000174	0.002167	0.003064	0.000392	-0.000314	0.001679	0.002576	-0.000097	0.000663	0.001923	0.002576	-0.000097	0.000663	0.001435	0.002332	0.001368	0.001151	0.001435	0.002332	0.001857	0.000663	0.001679	0.003064	0.002101	0.001639	0.001190	0.001599	0.000636	0.000174	0.001190	0.001844	0.001368	0.001151	0.000214	0.001111	0.002345	0.001395	-0.000519	0.003064	0.002101	0.001639	-0.001495	-0.000598	0.000148	0.000174	-0.006378	-0.000110	0.001368	-0.000070	-0.007355	0.000623	0.002833	0.000907	-0.006134	0.000379	0.002589	0.000663	-0.005890	0.000379	0.002101	-0.000070	-0.006378	0.000135	0.002589	-0.000314	-0.005401	0.000135	0.002345	-0.000070	-0.004913	-0.000598	0.001368	0.001395	-0.003692	-0.000354	0.001124	0.000418	-0.003937	0.000135	0.000636	-0.001046	-0.002716	-0.001574	0.000636	0.000174	-0.002472	-0.001574	0.000392	-0.000070	-0.001251	-0.002307	0.000880	-0.000314	-0.000519	0.000379	0.001124	-0.000070	0.002167	-0.004260	-0.000341	-0.001290	0.004120	-0.002795	0.000636	-0.000070	0.003388	-0.001819	0.000636	-0.000558	0.004852	-0.000842	0.001368	-0.000314	0.004364	-0.001819	0.001612	-0.001046	0.005097	-0.000354	0.001612	-0.000558	0.005341	-0.001330	0.001124	-0.001290	0.005341	-0.000598	0.001368	-0.000314	0.005341	-0.001574	0.001368	-0.000802	0.005341	-0.001574	0.000636	-0.001046	0.005829	-0.000110	0.001612	-0.000314	0.005585	-0.000354	0.001124	-0.000314	0.006073	-0.001330	0.002345	-0.000314	0.004120	0.001111	0.003077	-0.000070	0.004852	0.001355	0.002833	0.000418	0.003388	0.001844	0.004054	0.000663	0.002899	0.002820	0.004054	-0.000070	0.002655	0.002820	0.003566	-0.000314	0.002167	0.002820	0.004054	0.000174	0.001923	0.002332	0.003077	0.000907	0.001435	0.001355	0.003566	0.000663	0.001435	0.000867	0.003321	0.000663	0.001190	0.000379	0.003566	0.000174	0.001190	0.001844	0.003077	0.001639	0.001190	0.000623	0.004542	0.000174	0.000946	0.001844	0.004298	0.000418	0.000946	0.001111	0.002101	0.000418	0.000458	0.002332	0.002589	-0.000070	0.000702	0.003553	0.004054	-0.000070	0.000946	0.003064	0.003321	0.000418	0.001190	0.003064	0.003810	0.000907	0.000458	0.002332	0.003810	0.000663	-0.000274	0.002820	0.003077	0.000418	0.000702	0.001599	0.001124	0.000174	0.000946	0.001111	0.000148	-0.000314	0.000458	0.001599	0.000392	-0.000314	0.000702	0.000623	-0.000341	0.000418	0.000458	-0.000598	-0.000097	-0.000070	0.001679	0.001355	0.001612	0.000418	0.000702	-0.002795	-0.002050	-0.001046	-0.000274	-0.001330	-0.002538	-0.000558	-0.000274	-0.000598	-0.001806	-0.000558	0.000458	-0.000354	-0.001073	0.000418	0.000458	0.000135	-0.001073	-0.000070	0.000458	0.000379	-0.001806	-0.000314	0.000458	-0.000110	-0.001073	-0.001046	-0.000030	-0.000598	-0.003270	-0.000314	-0.000519	-0.001086	-0.002782	-0.000558	-0.000274	0.000379	-0.002050	0.000174	-0.000763	-0.000842	-0.000829	-0.001290	-0.000519	-0.000110	-0.001806	-0.000314	-0.000763	-0.000110	-0.001806	0.000174	-0.000763	0.000623	-0.001561	0.000418	-0.000763	-0.000354	-0.001073	-0.000558	-0.001251	0.000135	-0.001317	0.000174	0.000214	0.000867	-0.000097	-0.000070	-0.000519	0.001355	-0.000829	0.000174	-0.000519	0.001844	-0.000097	-0.000070	-0.000763	0.002088	0.000148	0.000174	-0.000274	0.002332	-0.000829	-0.000802	-0.000030	0.001844	-0.000829	-0.000314	-0.000274	0.001355	-0.000829	-0.000558	0.000214	0.002088	-0.000585	-0.000802	0.000458	0.001111	-0.000097	-0.001046	-0.000274	0.000623	-0.000341	-0.001046	-0.000030	-0.001574	-0.001073	-0.001046	-0.000519	-0.001330	-0.001317	-0.001535	-0.001251	0.000135	-0.000341	-0.000314	-0.000030	0.000135	0.000148	0.000174	-0.000274	0.000623	-0.001317	-0.000070	-0.000030	0.000623	-0.000097	0.000174	-0.000030	0.000379	-0.000097	0.000174	-0.000274	-0.000598	0.000148	-0.000314	-0.002472	-0.000354	-0.000585	0.000174	-0.000763	-0.000110	-0.000585	-0.000558	-0.000030	-0.000598	-0.000829	-0.000558	-0.000763	-0.000354	0.000148	-0.000802	-0.000519	-0.000354	-0.000097	0.000174	-0.000274	0.000135	-0.001806	-0.000802	-0.000274	-0.003528	-0.002294	-0.000314	-0.001983	-0.001330	-0.001806	-0.001046	-0.001007	-0.002307	-0.000829	-0.001290	-0.001007	-0.002551	-0.001317	-0.000802	-0.001495	-0.002307	-0.002050	-0.001290	-0.001251	-0.002307	-0.001806	0.000174	-0.001251	-0.002551	-0.002050	-0.000314	-0.001007	-0.003528	-0.002294	-0.001046	-0.001495	-0.003283	-0.002050	-0.000802	-0.001007	-0.003039	-0.002050	-0.000802	-0.001251	-0.003283	-0.001073	-0.001046	-0.000763	-0.001574	-0.001561	-0.000802	-0.000519	-0.005481	-0.002294	-0.001290	-0.001007	-0.006457	-0.001561	-0.001046	-0.001251	-0.004260	-0.000585	-0.001290	-0.000763	-0.005237	-0.000097	-0.000314	-0.002716	-0.002795	-0.001073	-0.000558	-0.001007	-0.003528	-0.000829	-0.000802	-0.001495	-0.004016	0.000636	-0.000802	-0.001007	-0.003528	0.001368	-0.001290	-0.001007	-0.002063	0.001124	-0.001046	-0.001251	-0.002551	0.001612	-0.000558	-0.001007	-0.002795	0.000880	-0.002023	-0.001007	-0.003039	0.001124	-0.000070	-0.001251	-0.002307	0.000880	-0.000314	-0.001495	-0.002307	0.000392	-0.000558	-0.001251	-0.004016	0.000148	-0.000802	-0.001983	-0.001574	0.001368	-0.000070	-0.001007	-0.001086	0.001612	-0.000070	-0.001495	0.000623	0.002589	-0.000070	-0.001495	0.000135	0.002101	-0.002023	-0.000763	0.001111	0.002345	0.000174	-0.001983	0.000379	0.002589	0.000418	-0.001007	0.000623	0.002589	0.000663	-0.001007	-0.000110	0.002345	0.000174	-0.001007	0.002332	0.002833	-0.000070	-0.001251	-0.000110	0.002589	0.000907	-0.001495	0.000379	0.002101	0.000418	-0.000030	0.000379	0.001124	0.000907	-0.001495	-0.001330	-0.000097	0.000174	-0.002228	-0.000598	0.000148	0.000663	-0.001495	-0.000110	0.000392	0.000907	-0.001007	0.002332	0.000636	0.000418	-0.001007	0.000867	0.000880	0.000663	-0.001495	0.000135	0.001124	0.000418	-0.001251	-0.000354	0.000392	0.000418	-0.001251	-0.001330	0.001368	0.000418	-0.001983	-0.000842	0.000392	-0.000070	-0.001495	-0.000842	0.000636	-0.000070	-0.002228	-0.000842	-0.000097	0.000907	-0.002228	-0.002307	0.000148	-0.000314	-0.002960	-0.001086	-0.000097	0.000174	-0.003448	-0.003772	-0.002538	-0.000314	-0.005401	-0.003039	-0.001561	0.000663	-0.004913	-0.001574	-0.002050	0.000907	-0.004181	-0.000598	-0.002050	0.000418	-0.003692	-0.000110	-0.001317	0.001151	-0.003204	-0.000354	-0.000829	0.001151	-0.003204	-0.000354	-0.002050	0.001395	-0.002960	-0.001086	-0.000341	0.000907	-0.002960	-0.000842	-0.000341	0.001151	-0.002960	-0.000354	-0.000829	0.000907	-0.002716	-0.000110	-0.000585	0.001151	-0.001739	-0.000598	0.000880	0.001395	-0.000763	-0.000842	0.000636	-0.000314	0.000214	-0.001819	-0.002294	-0.000070	0.001190	-0.000842	-0.001073	-0.000558	0.001435	0.001111	-0.001561	0.000418	0.002899	-0.000110	-0.000585	0.000174	0.002655	-0.000842	0.001124	0.000174	0.003143	-0.000354	0.003321	0.000663	0.003143	0.000379	0.005519	0.000663	0.003143	0.000623	0.006739	0.000174	0.003143	0.000379	0.006495	-0.000070	0.003632	0.000867	0.006495	0.000907	0.003876	0.001599	0.005030	0.000418	0.003388	0.002820	0.004542	0.001151	0.003876	0.002576	0.003321	0.000663	0.004364	0.001844	0.002833	0.000663	0.003388	0.000623	0.000392	0.000663	0.001190	0.002088	0.000636	0.000663	0.002167	0.003553	0.001368	0.001151	0.001923	0.003308	0.000880	0.000418	0.001679	0.002332	0.000148	0.000663	0.000702	0.002088	0.001124	-0.000314	0.000946	0.000623	0.000148	0.000174	0.001190	0.001111	0.000148	0.000907	-0.000274	0.002576	-0.001317	0.000418	-0.001495	-0.000110	-0.001561	-0.000070	-0.002716	0.000379	-0.001806	0.000418	-0.003448	0.000379	-0.001561	-0.000070	-0.003448	-0.002307	-0.001317	0.004081	-0.003692	-0.002551	-0.001317	0.000663	-0.003204	-0.004016	-0.000829	0.000418	-0.003204	-0.002551	-0.000341	0.001151	-0.002228	-0.003528	-0.000341	0.000907	-0.002472	-0.004504	-0.000341	0.000174	-0.001251	-0.004992	-0.001073	0.000663	-0.001007	-0.005481	-0.000341	0.000907	-0.002960	-0.005237	0.000392	0.000418	-0.000274	-0.005481	0.000636	0.000907	-0.000030	-0.006457	0.000880	0.000663	0.000458	-0.005237	0.003077	-0.000070	0.001435	-0.004992	0.000148	-0.000558	0.002167	-0.004748	0.000392	0.000663	0.001923	-0.001574	-0.001806	-0.000070	0.002167	0.000379	-0.000829	-0.000558	0.002655	0.000867	0.000636	-0.000070	0.002655	0.003797	-0.000341	0.001151	0.001923	0.006482	0.000392	-0.000070	0.002411	0.006238	-0.001317	0.000418	0.003388	0.008435	-0.000585	0.000418	0.003143	0.008191	-0.000097	0.002372	0.003143	0.010144	0.000636	0.000907	0.002655	0.008679	-0.000341	0.000907	0.002655	0.007703	-0.000341	-0.000070	0.002167	0.009412	-0.001073	0.000663	0.001435	0.007703	0.000392	0.000663	0.001435	0.004041	-0.001073	-0.000070	0.000214	0.003797	-0.000585	0.000418	-0.000519	0.004529	-0.000341	0.000418	0.000458	0.003797	0.000148	0.000174	0.001435	0.004285	-0.000585	0.000907	0.001190	0.003308	0.000636	0.000907	0.000702	0.002332	-0.000097	0.001395	0.000946	0.001111	-0.000585	0.001151	-0.000274	0.002332	0.000392	0.001395	0.000458	0.000623	-0.000829	0.001395	0.000702	0.000623	-0.000341	-0.000314	0.000702	-0.001574	-0.000341	0.001151	0.000458	-0.000110	-0.001561	0.001151	0.000702	-0.004016	-0.001073	0.000418	-0.000274	-0.002307	0.000392	0.001151	0.000702	-0.000354	0.001124	0.001151	0.000702	-0.002307	-0.000097	0.001395	0.000702	-0.000354	-0.000585	0.000907	0.000702	-0.001086	-0.002050	0.001883	0.000946	-0.000842	-0.000585	0.001151	-0.000274	-0.000842	-0.000829	0.000663	-0.000030	0.000135	-0.001561	0.000663	-0.000274	-0.001574	-0.001806	0.000907	0.000214	0.002088	-0.000829	0.001395	0.000702	-0.000598	-0.000097	0.000174	-0.000030	-0.001330	-0.001317	0.000174	0.000214	-0.002063	0.001124	0.000174	-0.000519	-0.001086	0.001857	-0.000314	-0.000274	0.000623	0.002101	-0.000070	0.000214	0.001355	-0.000585	0.000663	0.000214	0.000623	0.001368	0.000418	0.000702	0.000379	0.000148	0.000907	0.000702	0.000135	-0.000097	0.001395	0.000458	0.001111	-0.001073	-0.002755	0.000702	0.002576	-0.000585	-0.000314	-0.000030	0.001844	-0.001561	-0.000314	0.000214	0.002820	-0.001073	0.000418	0.000946	0.002576	-0.001561	0.000418	0.000702	0.002332	0.000636	0.000174	0.000702	0.001111	-0.000829	0.000663	0.000702	-0.000842	-0.000341	0.000418	-0.000274	0.000623	0.000392	0.000907	0.000702	0.001844	0.001368	0.000907	0.000702	0.000867	0.001368	0.000663	0.000702	0.002088	0.001857	0.001395	0.000458	0.002088	0.004298	0.001151	0.000702	0.001844	0.002345	0.000663	0.000214	0.000135	0.002589	0.000907	0.000458	-0.000354	0.000148	0.000663	0.000702	-0.002063	0.002101	0.000663	0.000458	-0.002795	0.001857	-0.000070	0.000214	-0.003528	-0.000097	0.000418	-0.000030	-0.009631	0.000636	-0.000314	-0.000274	-0.009631	0.001124	-0.001535	0.000214	-0.010852	0.001612	-0.000314	-0.000274	-0.010608	0.000880	0.000174	-0.000030	-0.009631	0.001857	-0.000070	-0.000519	-0.010363	0.000392	-0.000070	0.000458	-0.011096	-0.000341	-0.000070	0.000458	-0.010608	0.001124	0.000907	0.000702	-0.009143	0.000880	-0.000558	-0.000519	-0.008654	0.001857	0.000418	0.000458	-0.007190	0.001124	-0.000070	0.000702	-0.006457	0.001124	-0.000558	-0.000030	-0.004260	0.001124	-0.000802	-0.000030	-0.003528	0.001124	-0.000314	-0.000519	0.000379	-0.001073	-0.002023	-0.001251	0.003064	-0.000585	-0.001290	-0.001007	0.004529	-0.000585	-0.000558	-0.000030	0.005017	-0.000829	-0.000558	-0.000274	0.008924	0.000148	-0.000558	-0.000519	0.008435	0.000392	-0.000070	-0.000274	0.008435	0.000392	-0.000802	-0.000519	0.008435	0.000148	-0.000802	-0.000274	0.007947	0.000392	-0.000070	0.000458	0.007703	-0.000341	-0.000314	0.000458	0.007947	-0.000097	0.000418	-0.000030	0.006971	0.000392	0.000663	0.000214	0.007215	0.000148	0.000174	0.000214	0.003553	-0.001806	0.000663	-0.000763	0.003797	-0.000829	0.000418	-0.000763	0.003308	-0.000097	0.000907	-0.000519	0.002820	-0.000097	0.000663	-0.000519	0.002820	0.000392	0.000907	0.000214	0.003308	0.000148	0.000907	0.000458	0.003064	-0.000097	0.001151	0.000702	0.001111	-0.000097	0.001151	-0.000030	0.002332	0.000148	0.001151	0.000702	0.001111	0.000148	0.000663	0.000458	0.000379	0.000880	0.001151	0.000214	0.001111	0.001857	0.000907	0.000458	0.000379	0.000636	0.001395	0.000458	-0.002063	0.000636	0.000418	-0.000763	-0.000354	0.000148	0.000418	-0.000763	-0.000110	0.001124	0.000663	0.000458	-0.000598	0.002101	0.000174	0.000702	-0.001330	0.001368	-0.000314	0.000458	-0.000598	0.003077	-0.000070	0.000458	-0.003283	0.000880	-0.000558	0.001679	-0.001819	0.000148	-0.000070	0.000946	-0.001819	0.000880	0.000174	-0.000763	-0.000110	0.000636	-0.000558	-0.000763	-0.001819	-0.000585	-0.000314	-0.001007	-0.001086	0.000392	-0.000314	-0.001251	-0.002795	0.001124	-0.000802	-0.001007	-0.005237	-0.000341	-0.001290	-0.002228	-0.002795	0.000148	-0.000558	-0.001495	-0.001574	-0.000097	0.000174	-0.001251	-0.001574	0.000636	0.000418	-0.001007	-0.002795	0.000392	-0.000314	-0.001007	-0.002307	0.000148	-0.000802	-0.001007	-0.001330	0.000392	-0.000314	-0.000274	-0.003283	-0.000585	-0.000314	-0.001251	-0.002307	0.000392	0.000174	-0.001007	-0.003039	0.000392	-0.000070	-0.000763	-0.004504	-0.000585	-0.000802	-0.000763	-0.003772	0.000392	-0.000314	-0.001007	-0.004504	-0.000097	-0.001046	-0.001007	-0.003283	-0.001561	-0.001046	-0.001251	-0.005969	-0.001561	-0.001290	-0.003204	-0.002795	-0.001317	-0.000558	-0.001251	-0.001574	-0.001073	0.000663	-0.001007	-0.001819	-0.001317	-0.000070	-0.002228	0.000379	-0.000585	-0.000314	-0.000274	-0.000110	-0.001317	0.000663	-0.000030	0.000623	-0.004979	-0.000558	-0.000519	0.001111	0.000392	0.000663	-0.000274	0.002088	-0.000341	0.001639	-0.000030	0.001844	-0.000341	0.000174	-0.000274	0.002576	-0.000585	0.000663	0.000214	0.001844	-0.000585	0.001639	-0.000763	0.001355	-0.000585	-0.000070	-0.000274	0.002820	-0.000341	0.001395	0.000458	0.004041	0.000392	0.001395	0.000458	0.005506	0.000636	0.001883	0.000458	0.004529	0.001124	0.001151	0.000214	0.004529	0.000636	0.002127	0.000214	0.005262	0.001124	0.001639	0.000702	0.003308	0.003077	0.001395	0.000946	0.003308	0.000880	0.001395	0.000946	0.004041	0.001612	0.000174	0.000946	0.003308	0.000880	0.001639	0.000946	0.001599	0.000880	0.000663	0.000458	0.001844	0.000880	0.001151	0.000214	0.001844	0.001124	0.001395	0.000458	-0.004992	0.000148	-0.000314	-0.001007	-0.000598	0.000148	-0.000070	-0.000274	-0.001574	0.000636	0.000418	-0.000519	-0.001819	0.000880	-0.000070	-0.000030	-0.001330	0.000636	0.003348	-0.000030	-0.000598	0.000636	0.000418	-0.000030	-0.002795	0.001124	0.000418	-0.001251	-0.002795	-0.000097	-0.000070	-0.001739	-0.002551	0.000148	-0.001290	-0.002960	-0.001819	0.000148	0.000663	-0.003204	-0.002551	0.000636	-0.000314	-0.002960	-0.001574	0.000636	0.000174	-0.002960	-0.003039	-0.000097	-0.000314	-0.002716	-0.001330	-0.001073	0.000418	-0.002472	0.000135	-0.000341	0.003592	-0.001739	0.000623	-0.000341	0.001151	-0.002228	-0.001086	0.000148	-0.000558	-0.001251	-0.000110	-0.000097	0.000174	-0.002472	0.001111	0.000148	0.000907	-0.001251	0.000623	0.000392	0.000663	-0.000763	0.000867	0.000148	0.001151	-0.000519	-0.000110	0.000392	0.000663	-0.000030	-0.000842	0.001124	0.000663	0.000458	0.001111	0.000636	0.000663	0.001190	0.001355	0.001124	-0.000802	-0.000030	0.002576	0.001368	0.000907	0.000946	0.000379	-0.000097	-0.000802	0.001435	0.002332	0.000636	0.000174	0.002167	0.003064	0.001368	0.000663	0.002899	0.003064	0.001368	0.000907	0.002899	0.003553	0.001857	0.001395	0.003143	0.004529	0.001857	0.001395	0.003388	0.004285	0.002101	0.001883	0.001923	0.004529	0.002589	0.001639	0.001435	0.003797	0.002101	0.001639	0.000702	0.005262	0.001124	0.001395	-0.000274	0.004529	0.002833	0.001395	-0.001007	0.004529	0.001612	0.001395	-0.001495	0.003797	0.001857	0.000663	-0.002228	0.001844	0.001612	0.000907	-0.002716	0.002332	0.001124	0.002372	-0.001983	0.004041	0.001124	0.001151	-0.001495	0.003064	0.001612	0.001883	-0.001007	0.002576	0.001612	0.001395	-0.000274	0.001599	0.001612	0.001639	-0.000519	0.000623	0.000880	0.001395	0.000214	0.001599	0.001124	0.000907	0.000458	0.000623	0.001612	0.001395	0.000458	-0.000354	0.000392	0.001395	0.001190	-0.000110	0.000636	0.000663	0.000946	-0.000842	0.000880	0.001151	0.002411	-0.001330	0.001368	0.000418	0.002411	-0.004016	0.000392	0.000418	0.001923	-0.002551	-0.000341	0.002616	0.001923	-0.003772	-0.000341	0.000663	0.002167	-0.002795	0.000636	0.001395	0.002899	-0.001574	0.001368	0.001151	0.003143	-0.002307	0.001124	0.001151	0.003143	0.001111	0.000148	0.000907	0.003143	-0.001086	0.000880	0.001639	0.002411	-0.001574	0.001124	0.000663	0.001923	-0.000842	0.000880	-0.000070	0.001679	-0.000354	0.000880	0.000174	-0.000030	-0.000110	0.001124	-0.000070	-0.000763	-0.001330	0.000392	-0.000314	-0.000519	-0.003283	0.001124	0.000907	-0.002472	-0.003772	0.001368	0.000663	-0.002228	-0.003039	0.000392	0.000663	-0.001495	-0.004260	0.001124	0.000174	-0.001495	-0.003772	0.002101	0.000907	-0.001251	-0.003283	0.001857	0.000907	-0.001007	-0.003039	0.001857	0.000174	-0.001007	-0.002063	0.002345	-0.000314	-0.000274	-0.002063	0.000392	0.000663	-0.000519	-0.001819	0.001857	0.001151	-0.000274	-0.002795	0.002589	0.000663	-0.000030	-0.003528	0.001857	-0.000070	0.000458	-0.004016	0.001857	0.000418	0.000458	-0.002551	0.000392	0.000663	0.000946	-0.002551	-0.000829	-0.002023	0.000702	-0.001330	-0.000341	0.000174	0.001435	-0.000598	-0.000829	-0.000314	0.001679	-0.000110	-0.000829	-0.001046	0.002167	0.000623	0.000148	-0.000558	0.002411	0.001355	-0.000341	-0.000802	0.002167	0.001111	-0.001073	-0.000558	0.001679	0.002332	-0.001317	-0.000558	0.002411	0.002332	-0.001073	-0.000802	0.002899	0.001355	-0.001561	-0.000802	0.002167	0.002088	-0.002294	-0.001046	0.002655	0.003308	-0.001561	-0.001290	0.002167	0.001355	-0.003026	-0.001290	-0.000519	0.002088	-0.003515	-0.001535	-0.000274	0.003308	-0.001317	-0.001290	-0.000763	0.002820	-0.003026	0.000174	-0.000763	0.002088	-0.002294	-0.001779	-0.001007	0.001844	-0.001073	-0.001535	-0.001251	0.001111	0.000392	-0.000802	-0.001495	0.000623	0.003566	-0.001290	-0.001739	0.000379	0.005763	-0.001779	-0.001983	0.000867	0.006251	-0.000558	-0.001983	-0.001086	0.005763	-0.000314	-0.002472	-0.001574	0.004786	-0.000802	-0.002228	-0.001086	0.003321	-0.000558	-0.002228	0.000867	0.003077	-0.000314	-0.002228	-0.003283	0.000148	-0.000314	-0.003204	-0.002063	-0.000097	0.000418	-0.002472	0.000867	0.000392	0.000174	-0.001983	0.001355	0.000148	0.000418	-0.001739	0.001844	0.000148	0.001151	-0.001007	0.001111	0.000392	0.000418	-0.001251	0.001111	-0.000341	0.001883	-0.001007	0.000623	0.000392	0.000907	-0.000519	0.001599	0.001368	0.001395	-0.000519	-0.000110	-0.000097	0.000418	-0.001007	-0.001330	0.000880	0.000418	-0.000030	-0.000354	0.000636	0.000907	-0.000519	-0.002551	0.000636	0.000663	0.000214	-0.000598	0.001124	-0.000558	-0.000519	-0.000110	0.001612	0.000907	-0.000030	0.000623	0.002101	0.001639	0.000702	-0.000110	0.002833	0.001883	0.001679	0.000379	0.002833	0.001883	0.001923	0.000135	0.003077	0.001639	0.000458	-0.000598	0.002345	0.001395	0.000214	-0.003039	0.002589	0.001151	-0.000030	-0.002551	0.002345	0.001639	0.000214	0.000379	0.002589	0.000418	0.000458	-0.001330	0.000880	0.001639	-0.000274	-0.002551	0.000148	0.001395	-0.000763	-0.002551	-0.000097	0.001151	-0.000519	-0.006701	-0.002050	0.000174	-0.002228	-0.003772	-0.001073	-0.000314	-0.003204	-0.002551	-0.000341	0.000907	-0.001739	-0.002795	-0.000341	0.001395	-0.001739	-0.002063	-0.000585	0.001151	-0.001007	-0.002063	-0.000829	0.001395	-0.001251	-0.000598	-0.000585	0.000907	-0.002472	-0.003528	-0.001073	0.001395	-0.001495	-0.004260	-0.000341	0.000663	-0.001983	-0.005725	-0.001561	0.000418	-0.001983	-0.005237	-0.001317	0.000907	-0.002472	-0.004992	0.002345	0.001151	-0.002228	-0.006946	-0.001073	0.001395	-0.001007	-0.013781	-0.002782	-0.000314	-0.003204	-0.013781	-0.002050	0.000174	-0.002716	-0.015002	-0.001073	-0.000070	-0.002228	-0.015246	-0.001806	-0.000070	-0.002228	-0.016467	-0.002050	-0.000070	-0.002716	-0.015002	-0.001561	-0.000314	-0.002228	-0.013293	-0.001806	0.000174	-0.001983	-0.014514	-0.001317	0.000418	-0.001739	-0.015002	-0.001317	-0.002023	-0.001983	-0.014270	-0.001806	-0.000558	-0.001251	-0.014758	-0.002294	-0.000070	-0.001251	-0.014270	-0.001806	-0.000558	-0.001739	-0.014026	-0.001561	0.000174	-0.001007	-0.015979	-0.002538	-0.002999	-0.002716	-0.011340	-0.001317	-0.000314	-0.002228	-0.010363	0.001612	-0.000070	-0.001495	-0.008410	-0.000341	-0.000070	-0.001983	-0.006213	-0.001073	0.000418	-0.001983	-0.006457	-0.001561	0.000174	-0.001251	-0.004016	-0.001561	0.000418	-0.001007	-0.002795	-0.001073	0.000418	-0.001251	-0.003283	-0.001317	0.000663	-0.000763	-0.003528	-0.000097	0.000907	-0.000763	-0.000354	-0.000585	0.001883	-0.000274	-0.001819	-0.001561	0.001151	-0.000274	-0.002307	-0.002050	0.001151	-0.001007	-0.003772	-0.002782	-0.000070	-0.000519	-0.001819	-0.001317	0.000907	-0.000030	0.000135	-0.000585	0.001395	0.000214	0.003308	-0.000585	0.001883	-0.000030	0.005994	-0.001317	-0.000070	0.000458	0.006238	-0.000829	0.002372	0.000702	0.008679	-0.000341	0.002127	0.000458	0.010144	-0.002050	0.001883	0.000214	0.010877	-0.001317	0.001395	-0.001007	0.012097	-0.001561	0.000418	0.001190	0.013562	-0.001806	0.000418	-0.001007	0.014051	-0.001317	0.000418	-0.000763	0.015760	-0.000829	0.000418	-0.001983	0.016980	-0.002294	-0.000070	-0.002716	0.018201	-0.000829	-0.000802	-0.002960	0.019666	-0.000829	-0.000558	-0.002716	0.019910	-0.000585	-0.001046	-0.001739	0.019910	-0.000097	-0.000314	-0.001007	0.019666	0.000636	-0.001046	-0.000519	0.017469	0.001612	-0.001046	-0.000030	0.016492	0.001124	-0.000314	-0.001251	0.015271	0.002101	-0.000558	0.000458	0.014295	0.001857	0.000174	0.001190	0.011121	0.002345	0.000907	0.001679	0.009656	0.002101	0.001151	0.002411	0.008924	0.002345	0.000907	0.003143	0.004529	0.000636	-0.000314	0.002655	0.003553	0.000392	0.000174	0.003143	0.003797	0.002101	-0.000314	0.003632	0.001844	-0.000341	-0.000314	0.003388	0.001355	-0.000829	0.000418	0.003388	0.001844	0.000148	0.000174	0.002655	0.001355	-0.001317	0.000418	0.001679	0.003064	0.001612	0.000907	0.000458	0.003553	-0.000829	0.000907	0.000214	0.004529	0.000392	0.000418	0.001679	0.004773	0.000636	0.000663	0.000946	0.005017	0.001368	0.001151	0.000702	0.004773	0.001368	0.000907	0.000458	0.005017	0.000880	0.001395	0.000702	0.006482	0.000636	0.000174	0.000702	0.008924	0.000148	0.000418	0.001190	0.009168	0.000392	0.000418	0.001679	0.009412	-0.002538	-0.000070	0.002899	0.007947	0.000392	-0.001046	0.003143	0.006482	-0.000097	0.000418	0.003876	0.006238	-0.000829	0.000174	0.003632	0.005262	-0.001561	-0.000070	0.003876	0.004529	-0.000585	-0.000558	0.003876	0.005017	-0.001317	-0.000070	0.004364	0.002820	-0.001317	-0.000070	0.003876	0.002332	-0.001806	-0.000558	0.003388	-0.001574	-0.000341	-0.001535	0.002899	-0.001819	-0.000585	-0.001779	0.003388	0.000135	-0.001073	-0.001290	0.003143	-0.000110	0.000880	-0.000802	0.003632	0.000623	0.000880	-0.001046	0.003388	-0.000598	0.001124	-0.001046	0.003143	-0.001086	0.000148	-0.000802	0.002655	-0.000842	0.000880	-0.001046	0.002899	-0.000842	0.001124	-0.000558	0.001679	-0.000598	-0.000097	-0.000558	0.001923	-0.000598	0.000880	0.001151	0.001190	-0.001330	-0.000829	-0.000070	0.000946	-0.002307	-0.000097	0.000174	0.000946	-0.002551	-0.000341	-0.000314	0.000702	-0.009875	-0.000097	0.000907	-0.000030	-0.007434	0.000636	-0.000070	0.001190	-0.005969	0.001124	0.002372	0.001435	-0.006701	-0.000097	0.001395	0.001190	-0.006946	0.000148	0.003104	0.000946	-0.007190	0.000148	0.000418	0.000946	-0.006457	0.000148	-0.000314	0.001190	-0.005481	-0.000585	-0.000802	0.001190	-0.005725	-0.000585	-0.003976	0.000946	-0.007190	-0.000097	-0.000070	0.001190	-0.006946	-0.000829	-0.003244	0.000458	-0.008166	-0.000097	0.000663	0.000458	-0.006701	-0.000829	-0.000558	-0.000274	-0.007434	-0.001073	0.001639	-0.000519	-0.006213	-0.002050	0.001883	-0.000519	-0.007190	0.000148	0.001151	-0.001251	-0.006946	0.000148	0.001639	-0.000274	-0.006457	0.000636	0.001883	-0.000274	-0.006213	-0.003026	0.001639	-0.000274	-0.006946	0.001857	-0.000070	-0.000274	-0.007190	0.002589	0.000174	-0.000519	-0.007922	0.002833	0.000418	-0.000519	-0.007922	0.003321	0.000663	-0.000519	-0.008654	0.002833	0.000418	-0.002228	-0.008166	0.001612	0.000418	-0.000274	-0.008166	0.002833	0.000174	-0.000519	-0.010852	0.000636	-0.000070	-0.001495	-0.010119	0.001857	-0.000070	-0.001495	-0.010119	0.002101	0.000418	-0.001251	-0.009631	0.001124	-0.000070	-0.000030	-0.008166	0.001612	0.000663	-0.000519	-0.008410	0.002345	-0.000070	-0.000274	-0.006946	0.002345	0.000174	-0.000274	-0.006213	0.001857	0.000174	-0.000030	-0.006213	0.002589	-0.000802	0.000702	-0.005969	0.001612	-0.000314	0.000458	-0.004748	0.000880	0.000907	0.000214	-0.003283	0.001612	-0.000314	-0.000030	-0.002795	0.001857	-0.000070	0.000458	-0.001086	0.000148	-0.000802	-0.001007	-0.001086	-0.000097	0.000663	-0.000763	-0.000110	-0.000585	0.000174	-0.000519	0.000867	-0.001561	0.000663	-0.000030	0.001355	-0.001561	0.000418	-0.000274	0.001844	-0.001561	0.001395	-0.000030	0.002332	-0.001317	0.000907	-0.000030	0.002576	-0.001317	0.001151	-0.000519	0.002088	-0.000585	0.001395	-0.000519	0.002088	-0.004247	0.001639	0.000458	0.002088	-0.004491	0.001639	0.000946	0.001355	-0.005224	0.001151	0.000214	0.001111	-0.003759	0.001395	0.000458	0.001599	-0.004735	0.001151	-0.000030	-0.004016	-0.005712	0.001151	-0.001251	-0.001819	-0.003270	0.001395	0.000946	-0.001574	-0.002782	0.001639	-0.000274	-0.001574	-0.001561	0.001639	0.000214	-0.001330	-0.000829	0.002127	-0.000274	-0.002307	0.000148	0.002372	0.000214	-0.001086	0.002589	0.002860	0.000214	-0.000354	0.002833	0.002127	0.000458	-0.001086	0.002345	0.001883	0.000214	-0.001819	0.001857	0.000907	-0.000763	-0.002063	0.002833	0.001883	-0.001251	-0.001819	0.004298	0.001883	-0.001739	-0.006701	0.004298	0.000174	-0.003692	-0.006701	0.004298	0.000174	-0.003204	-0.005969	0.005030	0.000907	-0.003204	-0.005725	0.006007	0.000418	-0.004181	-0.006701	0.005275	0.000418	-0.005157	-0.006946	0.007228	0.000174	-0.005646	-0.005969	0.004786	0.001151	-0.005646	-0.006457	0.004298	0.000907	-0.005646	-0.006946	0.004054	0.000663	-0.005157	-0.005481	0.003321	0.000174	-0.004669	-0.004992	0.003810	-0.000070	-0.004913	-0.005237	0.002833	0.000174	-0.003937	-0.003528	0.002833	-0.002023	-0.003692	-0.002795	0.002101	-0.000070	-0.003692	-0.001819	0.001857	-0.001535	-0.001983	0.001599	0.002589	0.000663	-0.000030	0.001599	0.002589	0.001639	-0.000274	0.002576	0.003077	0.001883	0.000458	0.001844	0.004298	0.001883	0.000702	0.002820	0.003321	0.002127	0.001435	0.003797	0.003810	0.001151	0.002899	0.002576	0.001368	0.000663	0.000458	0.002332	-0.000341	0.000174	0.001679	0.002332	-0.002050	0.000174	0.001679	0.003064	-0.004247	-0.000314	0.001923	0.002820	-0.002782	0.000174	0.002411	0.000379	0.002101	-0.000314	0.003632	0.001599	0.004786	-0.000802	0.004120	0.002576	0.007960	0.000663	0.005097	0.002820	0.009425	0.000174	0.005585	0.003553	0.009425	0.000418	0.005585	0.001844	0.009425	0.000174	0.006317	0.003064	0.008937	-0.000070	0.006073	0.002576	0.008693	0.003836	0.005097	0.002820	0.009425	0.001639	0.003632	0.003064	0.007472	0.001883	0.003143	0.002332	0.004542	0.001883	0.002899	0.001599	0.002589	0.002127	0.002167	0.003064	-0.000341	0.002127	0.001435	0.002576	-0.002538	0.003836	0.002167	-0.003283	-0.007177	-0.000070	-0.000519	-0.003528	-0.008641	-0.001046	-0.000763	-0.003528	-0.008397	-0.001535	-0.000274	-0.004260	-0.009374	-0.001290	-0.001007	-0.003772	-0.011083	-0.001046	-0.001251	-0.002551	-0.012304	-0.001046	-0.001983	-0.002795	-0.014501	-0.001046	-0.002960	-0.003528	-0.017919	-0.001290	-0.002960	-0.004016	-0.019140	-0.001535	-0.003204	-0.002795	-0.019384	-0.001779	-0.003448	-0.004504	-0.019140	-0.001779	-0.003692	-0.002551	-0.018895	-0.001290	-0.002960	-0.001574	-0.017431	-0.001290	-0.001983	-0.002795	-0.010106	-0.001046	-0.003204	-0.004016	-0.007665	-0.000802	-0.000030	-0.000110	-0.008641	-0.000314	-0.001495	0.000379	-0.005712	-0.000558	-0.001251	-0.000110	-0.003026	-0.000558	-0.000274	0.000135	-0.004247	-0.000314	-0.001007	-0.001574	-0.003026	-0.000314	-0.000519	-0.001574	-0.000829	-0.000314	-0.000030	-0.001819	0.000392	-0.000802	-0.000030	-0.000354	0.001124	-0.001779	0.000702	-0.001330	0.001857	-0.001046	0.001435	-0.002063	0.003321	-0.002267	0.001923	-0.001819	0.003810	-0.002267	0.001923	-0.002795	0.003810	-0.001535	0.001679	-0.002063	0.003810	-0.000314	0.002411	-0.001086	0.002833	0.000174	0.002655	0.001111	0.003321	0.000174	0.002899	0.002820	0.001857	-0.000558	0.002899	0.002820	0.000392	-0.000314	0.002899	0.003064	-0.002538	-0.001046	0.002655	0.002576	-0.002050	-0.001290	0.002167	0.002576	-0.003026	-0.000802	0.001435	0.004041	-0.004247	-0.000802	0.000946	0.003553	-0.004979	-0.001046	0.001190	0.002332	-0.005712	-0.001046	0.001190	0.001355	-0.006688	-0.001290	0.000702	-0.004748	-0.007909	-0.001046	-0.000030	-0.004016	-0.005956	-0.001535	0.000458	-0.003283	-0.005712	-0.001779	0.000946	-0.003039	-0.004003	-0.000802	0.000458	-0.001086	-0.003515	-0.000558	-0.000030	0.002820	-0.001806	-0.000802	-0.000274	0.000135	-0.000341	-0.000314	-0.002228	0.000135	0.000636	-0.000558	-0.004181	0.000379	0.000636	-0.000314	-0.005646	0.001599	0.001857	0.000418	-0.005157	0.001355	0.001368	-0.000070	-0.006134	0.002820	0.000636	-0.001290	-0.005646	0.003064	0.000636	-0.000558	-0.005401	0.002820	-0.000097	-0.000558	-0.005401	-0.000598	0.000636	-0.001779	-0.003692	0.000623	0.001857	-0.000802	-0.001739	0.001111	0.003810	-0.001535	-0.001739	0.001111	0.004298	-0.000802	-0.000763	0.001111	0.004786	-0.001290	0.000214	0.002332	0.004786	0.000174	0.000946	0.001599	0.003810	0.000418	0.001190	0.001844	0.006251	0.000418	0.002167	0.002088	0.007228	0.000907	0.001923	0.001355	0.008693	0.001639	0.001679	0.000623	0.009425	0.000907	0.001679	0.000867	0.009669	0.000907	0.001679	-0.005969	0.007472	-0.001290	0.002167	-0.006213	0.009425	-0.000558	0.003143	-0.005725	0.006984	0.000663	0.003632	-0.003528	0.006739	0.000663	0.004608	-0.002551	0.006495	0.000663	0.004364	-0.001574	0.006984	0.000907	0.004364	-0.001819	0.006007	0.000418	0.004364	-0.002307	0.005519	0.000907	0.003876	0.000135	0.004542	0.001151	0.002899	-0.001330	0.004786	0.000907	0.003876	-0.002795	0.005519	0.001151	0.005585	-0.005481	0.003566	0.000663	0.007294	-0.006701	0.004542	0.000418	0.008026	-0.010119	0.003810	-0.000070	0.009003	-0.013293	0.002589	-0.001290	0.008759	-0.010852	0.003566	-0.000314	0.007050	-0.010852	0.003566	-0.000070	0.007782	-0.009875	0.002101	0.000174	0.006806	-0.009631	0.000392	0.000418	0.006317	-0.009143	0.000148	-0.000070	0.005097	-0.008410	0.000392	0.000663	0.003632	-0.007434	-0.001806	0.001883	0.001435	-0.007922	-0.001317	0.000907	-0.000274	-0.006946	-0.002294	0.000418	-0.001739	-0.007678	-0.002782	0.000418	-0.004181	-0.007922	-0.003270	0.000663	-0.006378	-0.007190	-0.003026	0.001151	-0.012237	-0.004992	-0.000585	0.001151	-0.012726	-0.004260	-0.000829	0.001151	-0.013458	-0.002795	-0.000585	0.001639	-0.012970	-0.001330	-0.001073	0.001151	-0.012237	-0.001086	-0.000097	0.000907	-0.011505	0.000867	0.001368	0.001151	-0.009552	0.004529	0.004054	0.001151	-0.008331	0.006726	0.005030	0.002127	-0.006866	0.009168	0.006495	0.001395	-0.005646	0.008679	0.006984	0.001639	-0.004425	0.005506	0.006984	0.001395	-0.002716	0.004285	0.008204	0.001639	-0.001251	0.004041	0.008937	0.001395	-0.000763	0.000623	0.006739	0.001639	-0.001251	0.002088	0.006495	0.000174	-0.000763	0.003064	0.006251	0.000418	-0.002716	0.002820	0.005763	0.000174	-0.005646	0.002820	0.006739	0.000907	-0.006134	0.004285	0.005763	0.001151	-0.008087	0.004529	0.005763	0.001395	-0.009308	0.006238	0.006739	0.002127	-0.010773	0.007459	0.008204	0.002372	-0.011993	0.009900	0.007472	0.002372	-0.011993	0.009168	0.006495	0.002372	-0.011505	0.009656	0.005519	0.002372	-0.010773	0.009656	0.003810	0.002372	-0.010040	0.012830	-0.002050	0.001883	-0.007355	0.012097	-0.003026	0.002372	-0.004425	0.016492	-0.002782	0.002372	-0.001983	0.016736	-0.004491	0.002372	-0.000519	0.017713	-0.005712	0.002860	0.001190	0.018445	-0.004003	0.002127	0.002411	0.016980	-0.004735	0.000174	0.003876	0.014295	-0.001806	0.001883	0.005341	0.011609	-0.001073	0.002127	0.005829	0.008191	-0.001561	0.001395	0.005829	0.009656	-0.002782	0.000418	0.005829	0.009412	-0.002050	0.000418	0.007782	0.010388	-0.000585	0.001151	0.007782	0.005262	-0.001561	-0.001046	0.007538	0.005017	-0.001561	-0.001290	0.008759	0.003797	-0.001806	-0.002023	0.009979	0.004041	-0.002050	-0.002023	0.011688	0.003553	-0.002294	-0.001779	0.012665	0.003553	-0.001806	-0.000558	0.013642	0.004529	-0.007177	-0.000070	0.013153	0.006238	-0.001561	0.001395	0.012909	0.006482	-0.001806	0.002127	0.011688	0.005017	-0.001317	0.001151	0.010956	0.002820	-0.000585	0.001151	0.009735	0.001599	-0.000585	0.001395	0.009247	-0.001819	-0.001073	0.001395	0.008759	-0.014026	-0.002538	-0.001535	0.006073	-0.013293	0.000148	-0.000314	0.006317	-0.012561	0.003566	-0.001046	0.006561	-0.013049	0.006251	-0.000802	0.006806	-0.012072	0.008448	-0.001535	0.005341	-0.009875	0.010401	-0.000802	0.003632	-0.010119	0.010890	-0.000314	0.002655	-0.011096	0.013087	-0.001046	0.000946	-0.012317	0.011866	-0.000314	0.000946	-0.014758	0.011134	-0.000314	-0.000030	-0.013781	0.008448	-0.000802	-0.000274	-0.013781	0.005763	-0.000314	0.000214	-0.013293	0.005275	-0.000070	-0.000274	-0.015735	0.001124	-0.000802	-0.001007	-0.024524	0.000392	-0.001535	-0.008331	-0.023303	-0.000097	-0.002267	-0.007843	-0.021838	-0.000585	-0.002267	-0.006622	-0.018420	-0.003270	-0.002511	-0.005646	-0.018908	-0.005468	-0.003488	-0.004669	-0.014270	-0.007909	-0.003976	-0.003692	-0.011340	-0.009130	-0.003488	-0.002228	-0.006213	-0.013524	-0.003244	-0.000763	-0.004016	-0.016698	-0.002999	-0.001739	-0.002307	-0.017431	-0.002267	-0.000763	-0.000598	-0.019628	-0.002267	-0.001007	0.000623	-0.021337	-0.002511	-0.001983	0.004773	-0.020116	-0.002511	-0.003204	0.010877	-0.021581	-0.002023	-0.003448	0.014539	-0.019872	-0.002755	-0.003692	0.017224	-0.018651	-0.002267	-0.004669	0.020887	-0.018407	-0.001290	-0.006378	0.024549	-0.013768	-0.000558	-0.007599	0.026258	-0.009618	-0.000558	-0.009552	0.027478	-0.005224	0.000907	-0.012726	0.029920	-0.002538	0.001151	-0.012726	0.031140	0.001612	0.002127	-0.014679	0.032605	0.003077	0.001639	-0.015411	0.032117	0.004298	0.000663	-0.015411	0.030652	0.005519	0.002860	-0.014435	0.026502	0.005275	0.000663	-0.013214	0.016248	0.021144	-0.001535	0.000946	0.016980	0.022364	-0.001046	0.003388	0.014539	0.019679	-0.001290	0.003876	0.014539	0.016261	-0.000314	0.001679	0.012342	0.011866	-0.000558	0.000458	0.009168	0.009181	-0.000802	-0.000519	0.006726	0.005030	-0.000802	-0.000763	0.004285	0.003321	-0.000802	0.000702	0.001355	0.002589	-0.000802	0.003876	0.001599	0.002101	-0.000558	0.007294	-0.001330	-0.000097	-0.000558	0.010468	-0.001330	-0.000341	0.005057	0.013153	-0.005725	-0.001317	-0.000314	0.018768	-0.008654	-0.003515	0.000418	0.020966	-0.005237	-0.004003	0.000174	0.022431	-0.005725	-0.004979	-0.000070	0.022431	-0.005481	-0.004735	0.001395	0.020722	-0.005725	-0.007177	0.002372	0.019989	-0.004992	-0.011327	0.002372	0.019013	-0.004260	-0.014501	0.001151	0.017304	-0.005237	-0.015233	0.002372	0.016571	-0.004260	-0.015477	0.001883	0.015106	-0.004016	-0.013768	0.001883	0.016327	-0.005481	-0.013036	0.001151	0.014618	-0.004016	-0.012059	0.000907	0.014374	-0.004260	-0.011815	0.000418	0.012665	-0.007434	-0.009374	-0.000314	0.003632	-0.007678	-0.005956	-0.000314	0.000458	-0.005481	-0.003515	-0.000558	-0.002228	-0.004504	0.000148	0.001883	-0.004913	-0.004016	0.004786	-0.000314	-0.006378	-0.004504	0.006495	-0.000802	-0.008087	-0.004992	0.014064	-0.000802	-0.009308	-0.005481	0.018702	0.000174	-0.011017	-0.003772	0.022364	0.000174	-0.011017	-0.003283	0.024806	0.000907	-0.010528	-0.003283	0.024073	0.000174	-0.010528	-0.005481	0.021632	0.000663	-0.011261	-0.005969	0.019435	-0.000558	-0.010528	-0.007190	0.002833	0.000418	-0.012726	-0.004992	-0.001317	-0.000558	-0.011261	-0.003039	-0.003759	0.000907	-0.010284	-0.002307	-0.004491	0.000663	-0.008331	-0.002063	-0.003270	0.001395	-0.006134	-0.002795	-0.002294	0.001639	-0.003692	-0.003039	-0.003026	0.001639	-0.002472	-0.003528	-0.002294	0.001883	-0.001983	-0.002551	-0.002538	0.002127	-0.001251	-0.002795	-0.002050	0.001883	-0.001983	-0.002795	-0.004003	0.001151	-0.002228	-0.002063	-0.006688	0.001639	-0.001739	-0.004504	-0.007909	0.001639	-0.000763	-0.008899	-0.008397	-0.000558	0.001923	-0.008166	-0.007421	-0.000558	0.001679	-0.006701	-0.005712	0.000663	0.001923	-0.007922	-0.002294	-0.000070	0.001435	-0.009387	-0.002294	0.000418	0.001435	-0.008899	-0.001806	-0.000314	0.002411	-0.010363	-0.001073	0.000174	0.002899	-0.011828	0.000392	-0.000070	0.004852	-0.012317	0.001368	0.000174	0.005585	-0.013293	0.002345	-0.000558	0.005341	-0.013293	0.004054	-0.000802	0.003876	-0.013781	0.004786	-0.000070	0.003388	-0.013293	0.006984	0.000663	-0.001251	-0.016467	0.003566	0.000418	-0.007599	-0.015246	0.003566	-0.000070	-0.008087	-0.015002	0.002833	-0.000314	-0.007599	-0.015490	0.003566	0.000663	-0.007110	-0.015735	0.006007	-0.001290	-0.006622	-0.016223	0.008937	-0.000558	-0.006378	-0.015735	0.011378	-0.000314	-0.006378	-0.015490	0.014064	-0.002999	-0.006622	-0.015002	0.015773	-0.000314	-0.007110	-0.015246	0.016261	0.000174	-0.005890	-0.012805	0.013819	-0.000070	-0.006866	-0.012561	0.012599	-0.000070	-0.007110	-0.011584	0.011378	-0.000070	-0.006866	-0.007922	0.003566	-0.000314	-0.012237	-0.004504	0.002833	0.000418	-0.012970	-0.000354	0.004786	0.000663	-0.012726	0.002332	0.003566	0.000907	-0.011261	0.004041	0.004542	0.000663	-0.011261	0.006482	0.003321	0.001151	-0.008819	0.007459	0.001368	0.000418	-0.007599	0.011365	-0.000097	0.000663	-0.004669	0.012586	-0.000097	0.001151	-0.003204	0.013806	-0.001806	0.000663	-0.002472	0.013806	-0.000341	0.000418	-0.001495	0.014295	-0.001561	-0.000802	-0.001495	0.013562	-0.002050	0.001395	-0.001007	0.013562	0.003077	0.000663	-0.000274	0.015027	0.004786	0.001151	-0.000030	0.015515	0.002833	0.002860	-0.000030	0.014539	-0.003515	0.000663	0.001435	0.013562	-0.012304	0.001151	0.000946	0.010388	-0.016454	-0.000314	0.000214	0.009168	-0.019628	0.000174	-0.000030	0.005506	-0.014989	-0.001535	-0.000519	0.003308	-0.010595	-0.002023	-0.001983	0.000623	-0.010106	-0.002023	-0.001251	-0.002063	-0.014013	-0.002023	-0.003204	-0.004016	-0.015966	-0.001535	-0.005157	-0.004016	-0.013768	-0.001535	-0.006378	-0.004016	-0.011083	-0.001290	-0.005890	-0.009631	0.001612	-0.001290	0.000458	-0.008410	0.000636	-0.001779	0.001435	-0.006701	-0.000097	-0.002267	0.001190	-0.006946	-0.000585	-0.001779	0.001190	-0.004016	-0.002050	-0.001535	0.000458	-0.003528	-0.003026	0.001883	-0.001007	-0.001819	-0.005712	-0.001535	-0.002716	0.000379	-0.007909	-0.001779	-0.004913	0.001355	-0.009862	-0.001779	-0.006134	0.005506	-0.010839	-0.001046	-0.006622	0.006482	-0.010350	0.000174	-0.002960	0.008435	-0.005956	0.002127	-0.001007	0.011121	0.004054	0.000663	-0.000519	0.010388	0.006495	0.000663	0.001923	0.009412	0.006739	0.001639	0.002655	0.009412	0.006495	0.001395	0.003388	0.009656	0.006251	0.001395	0.003388	0.006971	0.005030	0.002127	0.005097	0.005506	0.007472	0.001151	0.008515	0.000867	0.011134	0.002616	0.009735	-0.000842	0.013087	0.001395	0.011200	-0.002551	0.012110	0.000418	0.012421	-0.004992	0.011866	-0.000802	0.014374	-0.005725	0.009669	-0.000070	0.015106	-0.006701	0.008693	-0.000314	0.016815	-0.006457	0.008448	-0.000070	0.017792	-0.004748	0.000636	0.000663	0.013153	-0.004016	-0.004735	0.001151	0.011688	-0.002795	-0.008641	0.001151	0.009735	-0.003039	-0.012548	0.000418	0.007782	-0.002551	-0.011571	0.000663	0.005829	-0.001330	-0.013524	0.000907	0.004120	-0.000354	-0.014013	0.000907	0.003388	0.002576	-0.012548	0.000907	0.002899	0.002576	-0.012548	0.000663	0.002411	0.005017	-0.010839	0.000907	-0.000519	0.006971	-0.009374	0.000418	-0.004913	0.009168	-0.007177	-0.000802	-0.010040	0.011365	-0.004491	0.000663	-0.013458	0.012830	-0.001806	0.000663	-0.018097	0.013806	-0.002782	0.001151	-0.016632	0.013806	-0.001561	0.000907	-0.017120	0.014295	-0.002538	0.000174	-0.017364	0.013074	-0.002782	0.000907	-0.017120	0.011121	-0.003759	0.001395	-0.017120	0.010388	-0.003515	0.001151	-0.016632	0.007459	-0.004735	0.000907	-0.015411	0.002820	-0.004247	0.001151	-0.014435	0.001599	-0.005712	0.000174	-0.013946	0.000379	-0.007665	0.000174	-0.012482	-0.000110	-0.008641	0.000663	-0.010528	-0.000842	-0.008641	0.000418	-0.007599	-0.004748	-0.008397	-0.000314	0.002655	-0.003283	-0.007177	0.000174	0.003876	-0.004016	-0.005468	0.003836	0.006806	-0.002063	-0.003759	0.000907	0.009735	0.000379	-0.001561	0.000418	0.012421	0.000135	-0.001317	0.000663	0.014862	0.001844	-0.000829	0.001151	0.018036	-0.000598	0.000392	0.001151	0.020966	0.001355	0.002101	-0.000802	0.022675	0.001844	0.003321	0.000907	0.023651	0.001111	0.003321	0.000663	0.026093	0.001844	0.004786	0.000174	0.027558	0.000867	0.005030	0.000174	0.029999	-0.000598	0.003810	0.000174	0.025604	0.000135	0.005275	-0.000070	0.023651	0.000379	0.002589	0.000418	0.021210	-0.000354	0.001124	0.001151	0.018768	0.001355	0.001857	0.001395	0.016571	0.001844	0.002589	0.000907	0.014374	0.004041	0.000636	0.001151	0.012177	0.005994	0.001857	0.001151	0.009979	0.005750	-0.000341	0.001151	0.008026	0.006971	-0.003270	0.001883	0.006561	0.005994	-0.001561	0.001395	0.004608	0.006238	-0.001561	0.001883	0.002167	0.005017	0.000148	0.008963	0.001435	-0.001819	0.011866	-0.000070	-0.003937	-0.001330	0.013575	0.000174	-0.005890	0.000135	0.013087	0.001151	-0.006378	-0.000598	0.017726	0.001395	-0.006134	0.000867	0.014308	0.001151	-0.005890	0.000867	0.015040	0.000663	-0.006134	-0.000598	0.014552	0.001151	-0.007110	-0.001574	0.014064	0.001395	-0.007355	-0.001819	0.015284	0.000663	-0.006622	-0.002795	0.012843	0.000663	-0.005890	-0.003039	0.010157	0.000663	-0.004669	-0.003772	0.006251	0.000907	-0.004669	-0.005481	0.004298	0.000907	-0.005157	-0.018176	-0.006200	-0.001779	-0.005646	-0.017199	-0.006444	-0.001779	-0.005157	-0.017932	-0.004735	-0.001779	-0.004425	-0.018664	-0.004003	-0.001779	-0.003937	-0.018908	-0.003270	-0.000802	-0.003937	-0.016467	-0.003026	-0.001046	-0.003692	-0.015246	-0.004735	-0.002511	-0.003937	-0.012805	-0.003270	0.000418	-0.004669	-0.011096	-0.002294	0.000418	-0.005157	-0.008654	-0.002050	0.000663	-0.005157	-0.007190	-0.004003	0.000174	-0.005890	-0.005725	-0.006932	-0.000314	-0.007110	-0.005237	-0.011815	-0.000314	-0.008087	-0.002795	-0.016210	-0.000314	-0.008331	-0.001330	-0.034032	-0.000070	-0.012970	-0.000598	-0.034520	0.000663	-0.014679	0.000379	-0.034520	0.000907	-0.016388	0.000379	-0.034276	0.001151	-0.016632	0.000379	-0.031591	0.000907	-0.016388	-0.000110	-0.025487	0.001151	-0.015655	-0.001086	-0.021581	0.000907	-0.014679	-0.001819	-0.016454	0.001395	-0.012970	-0.001086	-0.012059	0.002372	-0.011749	-0.001574	-0.007909	0.001883	-0.010040	-0.002307	-0.004003	0.002860	-0.008331	-0.002063	-0.002050	0.002127	-0.005890	-0.014270	0.006495	0.000663	-0.002960	-0.015490	0.004054	-0.000070	-0.000030	-0.015735	0.007716	-0.000314	0.001679	-0.016223	0.010646	-0.000558	0.004608	-0.014758	0.015773	-0.001290	0.005585	-0.014514	0.021144	-0.001046	0.005829	-0.012561	0.024806	-0.001779	0.005341	-0.012072	0.029444	-0.002999	0.005097	-0.010363	0.029689	-0.002999	0.005097	-0.010119	0.026759	-0.003488	0.006806	-0.008654	0.023585	-0.003488	0.005097	-0.005725	0.020900	-0.003244	0.005829	-0.004260	0.019923	-0.002511	0.006073	-0.001574	0.020411	-0.002511	0.006073	0.009412	0.011134	-0.002511	0.004364	0.012342	0.013575	-0.003244	0.004364	0.013806	0.015040	-0.001779	0.005097	0.016248	0.014552	-0.001535	0.003143	0.016248	0.015773	-0.001535	0.002411	0.018689	0.013819	-0.001779	0.001190	0.016736	0.014308	-0.001046	0.000946	0.018689	0.014552	0.000418	0.000214	0.018933	0.014308	-0.000314	0.000214	0.018201	0.014796	-0.001046	-0.000030	0.018201	0.016261	-0.000802	-0.001251	0.014783	0.016505	-0.001290	-0.001495	0.012830	0.014796	-0.001779	-0.002960	0.008679	0.010157	-0.001290	-0.002960	0.010388	0.009181	0.000663	-0.001495	0.009900	0.007472	0.000907	-0.000519	0.009168	0.006984	0.002127	0.000458	0.008191	0.004298	0.001883	0.000946	0.008191	0.008204	0.002372	0.001679	0.006726	0.010646	0.003104	0.001435	0.005750	0.006984	0.002860	0.000702	0.005017	0.000392	0.002860	0.000458	0.004529	-0.003759	0.002616	-0.001007	0.003797	-0.008886	0.002372	-0.000274	0.005994	-0.013524	0.002372	-0.000763	0.003308	-0.014257	0.002372	-0.000519	0.002576	-0.013768	-0.000070	-0.000274	0.003064	-0.010350	0.001151	0.001435	0.003308	-0.005712	0.000663	0.001679	0.001355	-0.003759	0.000663	0.001923	0.000623	-0.001806	-0.000558	0.002411	0.000623	0.000392	0.000174	0.003632	-0.000842	0.003077	0.000418	0.003143	-0.002063	0.006984	0.000174	0.003388	-0.004016	0.008693	0.000418	0.003632	-0.004992	0.010890	0.000663	0.003632	-0.005969	0.012110	0.000663	0.004364	-0.005725	0.012843	0.000663	0.003143	-0.006457	0.011866	0.000907	0.002167	-0.004504	0.010157	0.000907	-0.009064	-0.002795	0.011622	0.000663	-0.012726	-0.001819	0.013087	0.002616	-0.014679	-0.000354	0.013575	0.002616	-0.016632	-0.000354	0.013575	0.003104	-0.017853	-0.001574	0.011866	0.002372	-0.018097	-0.003528	0.010401	0.001151	-0.017364	-0.003283	0.009181	-0.001290	-0.016144	-0.005725	0.007472	-0.002755	-0.017853	-0.005481	0.003321	-0.003976	-0.017608	-0.006213	-0.002294	-0.004220	-0.017608	-0.007434	-0.012059	-0.004220	-0.017120	-0.008166	-0.017919	-0.004220	-0.016876	-0.008899	-0.022557	-0.004220	-0.016632	-0.004992	-0.009618	-0.003244	-0.004425	-0.001086	-0.006200	-0.002023	-0.000030	0.002820	-0.003515	-0.001535	0.004608	0.004529	-0.001561	-0.001290	0.008515	0.004773	0.001124	-0.000314	0.012421	0.005017	0.002101	-0.000558	0.014374	0.005262	0.002833	-0.000558	0.016327	0.006238	0.010646	-0.001535	0.017304	0.004041	0.012599	-0.001535	0.016327	0.003553	0.014308	-0.001046	0.015595	0.003064	0.013819	-0.000558	0.014862	0.003308	0.012843	0.001639	0.014862	-0.002795	0.004786	-0.000558	0.013153	-0.001819	0.003077	-0.000070	0.013153	-0.001819	0.002345	-0.000314	0.012177	-0.002795	0.003566	-0.000070	0.009247	-0.001819	0.006007	-0.000070	0.005341	-0.002551	0.006007	-0.000802	0.001190	-0.004504	0.004298	-0.001046	-0.003448	-0.004504	0.005030	-0.000802	-0.009796	-0.004504	0.002101	-0.001046	-0.011017	-0.004504	0.000392	-0.001046	-0.008331	-0.004260	-0.001806	-0.001290	-0.005401	-0.004260	-0.004247	-0.000070	-0.000763	-0.004748	-0.006444	-0.000802	0.002655	-0.003039	-0.008641	-0.001535	0.006561	-0.006457	-0.021825	-0.002511	0.008759	-0.004504	-0.024022	-0.001535	0.007782	-0.003283	-0.026952	-0.000314	0.007294	-0.003283	-0.031835	0.001151	0.006317	-0.004016	-0.034765	0.002372	0.006806	-0.002795	-0.037450	0.001151	0.006806	-0.001330	-0.036718	0.001151	0.006317	-0.000598	-0.028173	0.001151	0.005341	-0.000842	-0.020360	0.001639	0.005829	-0.000598	-0.013768	0.001883	0.006317	-0.000842	-0.007909	0.000418	0.006317	-0.001086	-0.001073	0.002127	0.006073	-0.002551	0.004786	0.003836	0.004852	-0.004016	0.017726	0.005545	-0.001739	-0.003039	0.018458	0.006034	-0.002716	-0.002063	0.018458	0.007010	-0.002472	-0.002795	0.018946	0.007743	-0.003692	-0.003283	0.018214	0.006766	-0.003692	-0.004260	0.015528	0.005790	-0.003937	-0.004016	0.012110	0.006034	-0.003692	-0.002063	0.006495	0.005545	-0.002960	-0.001330	0.003077	0.005301	-0.001007	0.000623	-0.000829	0.005057	0.000946	0.002576	-0.001561	0.005301	0.001923	0.002576	-0.004735	0.004813	0.002899	0.002820	-0.007177	0.006766	0.003143	-0.001330	-0.017431	0.001151	-0.003204	-0.002551	-0.015722	0.000174	-0.003448	-0.003039	-0.015477	0.000663	-0.003692	-0.005725	-0.012059	-0.000314	-0.001739	-0.005481	-0.013524	-0.000558	-0.003692	-0.004748	-0.010595	-0.001535	-0.003448	-0.004260	-0.008397	-0.002023	-0.003692	-0.004504	-0.007665	-0.003976	-0.003692	-0.004992	-0.004979	-0.004708	-0.004425	-0.004748	-0.006932	-0.005929	-0.004913	-0.003039	-0.006444	-0.005929	-0.005401	-0.001086	-0.005468	-0.005197	-0.003937	0.001111	-0.003759	-0.004708	-0.001495	0.000867	-0.000341	-0.004464	0.004852	0.000135	-0.003515	-0.003976	0.006317	-0.000598	-0.008641	-0.004220	0.006561	0.000623	-0.013524	-0.004464	0.005585	-0.001086	-0.019872	-0.005441	0.003876	-0.001574	-0.025975	-0.004953	0.001679	-0.001086	-0.023534	-0.004220	0.000214	-0.000842	-0.025243	-0.004708	-0.002228	-0.002063	-0.025487	-0.004464	-0.001983	0.001355	-0.026708	-0.004708	-0.002716	0.001844	-0.024511	-0.004464	-0.004181	0.001111	-0.023290	-0.006662	-0.005890	0.002576	-0.021337	-0.004220	-0.007599	-0.000110	-0.021337	-0.003976	-0.009796	-0.002551	-0.022069	-0.003488	-0.018341	-0.003528	-0.017919	-0.002267	-0.016144	-0.002307	-0.013768	-0.001290	-0.013458	-0.001819	-0.008886	0.000174	-0.010773	-0.000598	-0.005956	-0.000558	-0.009064	0.000135	-0.003759	0.001395	-0.007843	0.000135	-0.005224	0.000663	-0.006134	-0.000110	-0.002538	-0.000314	-0.005157	-0.002795	-0.002294	-0.001290	-0.004181	-0.003039	-0.002782	-0.002023	-0.002960	-0.002551	-0.002294	-0.002023	-0.001983	-0.004016	-0.000341	-0.002023	-0.002960	-0.005725	0.005030	-0.002023	-0.006134	-0.004504	0.008448	-0.000070	-0.006134	-0.002063	0.012355	-0.000802	-0.005157	-0.000598	0.014796	-0.000802	-0.004425	0.003064	0.017482	-0.000314	-0.002716	0.002576	0.019191	0.000418	-0.000274	0.004773	0.021876	0.002127	0.001435	0.002576	0.025050	0.001151	0.004608	0.005262	0.027491	0.001395	0.006806	0.003553	0.028468	0.001151	0.008515	0.003553	0.027980	0.001151	0.009003	0.002088	0.026026	0.002372	0.010468	0.001844	0.025050	0.000418	0.010956	0.000379	0.027003	0.000663	0.010712	-0.004748	0.050929	0.001639	0.004364	-0.005237	0.054347	0.001883	0.004608	-0.004504	0.053126	0.001639	0.005341	-0.002795	0.048732	0.002127	0.005341	-0.003039	0.042872	0.003592	0.005341	-0.005969	0.034327	0.003592	0.005341	-0.004992	0.023829	0.004325	0.004120	-0.003283	0.011866	0.003592	0.003143	-0.003283	0.002101	0.003104	0.000946	-0.002551	-0.007421	0.003104	-0.000763	0.000135	-0.014013	0.003348	-0.004181	-0.002063	-0.015477	0.003104	-0.004181	-0.000598	-0.011327	0.003104	-0.008087	0.001111	0.007716	0.002616	-0.009552	0.002332	0.011378	0.003104	-0.007355	0.004285	0.013331	0.003592	-0.005890	0.006238	0.013819	0.003348	-0.004425	0.007947	0.013575	0.003592	-0.003204	0.011121	0.011134	0.002860	-0.001739	0.011853	0.008693	0.002127	-0.001495	0.013806	0.002345	0.002127	-0.001983	0.014783	-0.000829	0.003104	-0.001251	0.016492	-0.003270	0.002372	-0.000030	0.015271	-0.006932	0.002616	-0.001007	0.016492	-0.009130	0.001395	-0.004181	0.016004	-0.010839	0.001639	-0.008331	0.008924	-0.019140	-0.000070	-0.016876	0.007703	-0.018651	0.001151	-0.015411	0.006482	-0.017675	0.000174	-0.014923	0.005506	-0.016210	0.001639	-0.014923	0.004773	-0.015477	0.001151	-0.016144	0.004285	-0.014013	0.001395	-0.016632	0.002088	-0.014501	0.001395	-0.018341	-0.002795	-0.015966	0.001395	-0.019073	-0.005969	-0.018895	0.001883	-0.019317	-0.005481	-0.020360	0.002860	-0.016388	-0.004260	-0.021825	0.002127	-0.013214	-0.003039	-0.024266	0.001883	-0.009064	-0.002063	-0.024022	0.001151	-0.005646	-0.002551	-0.022313	0.000907	-0.001739	-0.002063	-0.003759	0.001151	0.011444	-0.000598	0.000636	0.002127	0.011688	0.001599	0.002833	0.002860	0.012421	0.001111	0.005030	0.002616	0.011688	-0.001086	0.004054	0.004081	0.009247	-0.004016	0.003810	0.002860	0.006806	-0.005725	0.002833	0.001883	0.006561	-0.009875	0.002589	0.001883	0.005097	-0.014026	0.002833	0.000907	0.005585	-0.016467	0.006251	-0.001290	0.005585	-0.017199	0.008693	-0.001535	0.002655	-0.016955	0.012599	-0.002511	0.000214	-0.014514	0.015284	-0.001535	-0.003937	-0.007922	0.027491	-0.001779	-0.010284	-0.007678	0.030665	-0.002023	-0.008575	-0.004504	0.030665	-0.001290	-0.006378	-0.004016	0.029444	-0.002023	-0.004913	-0.004992	0.027735	-0.001290	-0.002960	-0.004748	0.021388	-0.001046	-0.000519	-0.004748	0.015773	-0.000558	0.001923	-0.005969	0.012355	-0.001046	0.005829	-0.005969	0.008937	-0.002023	0.009735	-0.006213	-0.000097	-0.001779	0.013153	-0.007678	-0.000341	-0.001535	0.017548	-0.006701	-0.007177	-0.001535	0.020966	-0.006457	-0.015966	-0.002511	0.031952	-0.007678	-0.013524	-0.002267	0.034638	-0.005725	-0.007665	-0.002267	0.035370	-0.005969	-0.002294	-0.001779	0.034638	-0.002307	-0.000585	-0.001290	0.033173	-0.001819	0.002345	-0.000070	0.031220	0.003308	0.001368	0.000418	0.030731	0.008191	0.000636	0.001883	0.028290	0.010877	-0.000097	0.002860	0.027069	0.012586	-0.001561	0.003348	0.025360	0.013806	-0.003759	0.004081	0.026093	0.014295	-0.003515	0.004813	0.027069	0.014295	0.001124	0.004569	0.026825	0.014051	-0.001806	0.004081	0.024140	0.012342	-0.005712	0.002372	0.012177	0.012342	-0.006444	0.002860	0.010712	0.015027	-0.006200	0.003348	0.009247	0.015027	-0.005956	0.003348	0.007294	0.014783	-0.006444	0.004081	0.003632	0.014051	-0.007665	0.003348	-0.001007	0.013806	-0.009618	0.004081	-0.007599	0.014783	-0.014989	0.003836	-0.016388	0.016492	-0.016942	0.003104	-0.020294	0.016980	-0.018163	0.002616	-0.021759	0.017957	-0.018407	0.002127	-0.021515	0.018201	-0.015966	0.001883	-0.021759	0.016980	-0.014013	0.001639	-0.021271	0.017469	-0.011571	0.001883	-0.022003	0.013562	-0.025487	-0.001779	-0.022491	0.012586	-0.032323	-0.003976	-0.021759	0.010633	-0.039891	-0.005441	-0.018341	0.008191	-0.046972	-0.006662	-0.015655	0.008435	-0.052099	-0.008371	-0.011261	0.006726	-0.054052	-0.007882	-0.006866	0.007703	-0.052343	-0.008615	-0.000519	0.008435	-0.048192	-0.006906	0.011688	0.008191	-0.044774	-0.006417	0.018280	0.007703	-0.040380	-0.005929	0.023163	0.004529	-0.035741	-0.005929	0.025849	0.003553	-0.028173	-0.004708	0.029999	0.003553	-0.004491	-0.001535	0.032196	0.004041	0.004542	-0.001290	0.031220	0.002576	0.010646	-0.001290	0.029267	0.001599	0.014552	-0.002023	0.024872	-0.001330	0.021144	-0.002755	0.020477	-0.003283	0.028956	-0.003488	0.017304	-0.004260	0.034083	-0.003976	0.012909	-0.007678	0.035060	-0.005441	0.009491	-0.009143	0.032130	-0.004464	0.008026	-0.007434	0.031153	-0.002999	0.006561	-0.005725	0.030177	-0.002023	0.004852	-0.003772	0.032130	-0.001290	-0.000763	-0.002551	0.034083	0.000418	-0.008575	-0.001330	0.035792	0.002616	-0.013458	-0.001574	0.022853	0.002860	-0.003692	-0.004016	0.018214	0.001639	-0.000274	-0.005725	0.014308	0.000663	0.003143	-0.008166	0.015040	0.000174	0.004364	-0.012805	0.016017	-0.000314	0.006806	-0.008654	0.018702	0.000174	0.008026	-0.008899	0.019435	0.002372	0.007782	-0.006701	0.016017	0.002860	0.009247	-0.003772	0.012843	0.002860	0.009979	-0.002307	0.009425	0.003104	0.008270	-0.000842	0.007228	0.004325	0.005585	0.000623	0.010646	0.005301	0.001679	0.000623	0.015528	0.007010	-0.000763	-0.002795	0.030909	0.007499	-0.006622	-0.002307	0.035304	0.007987	-0.008819	-0.004748	0.040187	0.007987	-0.011993	-0.004016	0.040675	0.007743	-0.014435	-0.006213	0.046290	0.006522	-0.016144	-0.008166	0.047999	0.006034	-0.018341	-0.010852	0.047999	0.005790	-0.019073	-0.010608	0.047023	0.004325	-0.019806	-0.011828	0.043605	0.003836	-0.018585	-0.010608	0.038722	0.003836	-0.019073	-0.010608	0.034816	0.002616	-0.019317	-0.011584	0.030909	0.001395	-0.017853	-0.011584	0.025294	-0.000314	-0.016876	-0.011828	-0.026464	-0.008126	-0.019317	-0.010852	-0.031591	-0.009835	-0.018097	-0.007434	-0.035741	-0.008126	-0.015411	-0.003039	-0.035985	-0.007638	-0.012726	-0.002307	-0.037694	-0.006173	-0.011261	0.000135	-0.043309	-0.004953	-0.009308	-0.000842	-0.047460	-0.003732	-0.007110	-0.005725	-0.046483	0.000663	-0.005646	-0.008166	-0.040868	-0.002023	-0.003937	-0.007434	-0.034520	-0.001290	-0.002960	-0.004748	-0.031102	-0.001046	-0.001495	-0.006946	-0.029149	0.003104	0.001435	-0.006457	-0.027929	0.001151	0.003143	-0.005481	-0.025243	0.003348	0.001435	-0.004748	-0.025243	0.003592	0.001435	-0.002307	-0.025975	0.004081	0.000946	0.000135	-0.023046	0.004081	0.000946	-0.000598	-0.020116	0.004325	0.000702	-0.000842	-0.016942	0.003592	-0.002228	-0.002063	-0.010350	0.003104	-0.004181	-0.004016	-0.001317	0.001395	-0.006134	-0.004016	0.005763	0.000663	-0.004913	-0.004504	0.012355	-0.000314	-0.003937	-0.006213	0.017726	-0.001046	-0.004425	-0.007434	0.022120	-0.001779	-0.002960	-0.006213	0.024806	-0.001046	-0.002228	-0.006213	0.024318	-0.001535	-0.000763	-0.006213	0.010401	-0.001535	0.003388	-0.005481	0.007960	-0.000558	0.003632	-0.003772	0.008937	-0.001535	0.003632	-0.003772	0.012110	-0.001290	0.003388	-0.003528	0.017237	-0.001290	0.003143	-0.003039	0.016505	-0.002023	0.002411	-0.004992	0.015284	-0.002267	0.000702	-0.005725	0.009181	-0.002999	-0.000763	-0.005481	0.004054	-0.002999	-0.001739	-0.005725	0.004298	-0.001779	-0.004913	-0.007190	0.005519	-0.001535	-0.006866	-0.004504	0.013087	-0.001046	-0.008819	-0.005237	-0.000097	-0.000558	-0.019317	-0.004992	-0.001561	0.000418	-0.017853	-0.001819	-0.003515	0.001639	-0.019562	-0.000354	0.003077	0.000418	-0.020294	0.000379	0.012110	0.001151	-0.021026	-0.000354	0.023341	0.001395	-0.021026	0.001111	0.029200	0.002616	-0.022003	0.001355	0.032618	0.002616	-0.027618	0.000135	0.032130	0.002860	-0.032745	0.000867	0.029689	0.002127	-0.036407	-0.001086	0.027491	0.002860	-0.036163	0.001844	0.020411	0.002616	-0.033722	0.002820	0.014308	0.002860	-0.030060	0.002332	0.009181	0.003348	-0.028107	0.002820	-0.008641	0.000174	-0.007355	0.003797	-0.010839	-0.000070	-0.001251	0.003553	-0.011571	0.001151	0.003632	0.003553	-0.011327	0.001395	0.007294	0.005262	-0.010839	0.001639	0.011200	0.004041	-0.010595	0.002127	0.013397	0.002332	-0.009862	0.001395	0.016083	0.001599	-0.014989	-0.000802	0.019501	0.002088	-0.021337	-0.002267	0.020966	-0.001330	-0.029393	-0.003732	0.023407	-0.004748	-0.042333	-0.004708	0.026337	-0.006946	-0.056737	-0.004953	0.028290	-0.007678	-0.067968	-0.004953	0.030731	-0.013049	-0.070409	-0.003732	0.029755	-0.009387	-0.061864	-0.002755	0.026581	-0.006457	-0.049657	-0.002999	0.024872	-0.002551	-0.034520	-0.001779	0.022431	0.001844	-0.019872	-0.000314	0.018768	0.003064	-0.003759	0.001151	0.015595	0.002820	0.010157	0.002127	0.011444	0.003553	0.026515	0.002127	0.006561	0.005017	0.033839	0.001395	0.005097	0.006238	0.038722	0.003348	0.003388	0.006971	0.040919	0.002127	0.001190	0.007459	0.039698	0.002860	-0.001251	0.008435	0.037745	0.002860	-0.002960	0.006238	0.029444	0.003836	-0.013946	0.006238	0.026271	0.004569	-0.014679	0.002576	0.022120	0.003836	-0.014923	0.002088	0.019435	0.004325	-0.014190	0.000867	0.014308	0.004569	-0.014435	-0.001330	0.006251	0.003592	-0.013458	-0.002795	-0.002294	0.003104	-0.014190	-0.004992	-0.005468	0.002127	-0.012482	-0.004016	-0.003759	0.001639	-0.009308	-0.006213	0.001368	0.001883	-0.005646	-0.004992	0.006739	0.001883	-0.002228	-0.001574	0.009913	0.001639	0.001679	0.000623	0.009669	0.002860	0.006806	0.002332	0.008448	0.002372	0.013886	0.001599	0.010401	0.001639	0.012665	0.003553	0.009913	0.001151	0.008759	-0.001086	0.006739	0.000418	0.005341	-0.002063	0.000148	-0.000802	0.002899	-0.002795	-0.007665	-0.000314	0.000702	-0.004748	-0.016698	-0.001535	-0.002716	-0.007434	-0.031591	-0.002267	-0.008087	-0.014026	-0.039159	-0.002755	-0.007355	-0.017932	-0.041845	-0.002755	-0.007843	-0.021838	-0.042577	-0.003976	-0.008331	-0.024279	-0.045018	-0.003732	-0.008087	-0.020373	-0.049901	-0.003976	-0.008087	-0.019153	-0.054540	-0.002755	-0.008087	0.000135	-0.050390	-0.002267	-0.008819	0.000867	-0.042089	-0.000802	-0.006134	0.002332	-0.034276	-0.000558	-0.001739	0.001111	-0.023290	-0.002267	0.000214	-0.002795	-0.011327	-0.003732	0.003388	-0.003039	-0.004247	-0.002999	0.006073	-0.003039	-0.003515	-0.002267	0.007294	-0.002795	-0.001806	-0.000558	0.008270	-0.004016	-0.000341	-0.001290	0.009003	-0.004748	0.000148	-0.000070	0.012177	-0.004016	0.001368	-0.000314	0.019013	-0.002795	0.002101	-0.000314	0.024628	0.001844	-0.014257	-0.000558	0.022431	0.000623	-0.019384	-0.001779	0.020233	-0.001330	-0.023778	-0.001290	0.017548	-0.001330	-0.026708	-0.003488	0.016327	-0.001086	-0.026708	-0.003976	0.016083	-0.001086	-0.024266	-0.005685	0.016571	-0.001086	-0.021093	-0.005929	0.016327	-0.000354	-0.014745	-0.006173	0.015106	0.002088	-0.007421	-0.004464	0.014130	0.003553	0.001857	-0.002755	0.012177	0.006971	0.010890	-0.001290	0.010956	0.006971	0.016017	-0.000558	0.008759	0.007215	0.017482	0.000418	0.007294	0.006726	0.016993	0.001395	0.007294	-0.000598	-0.003759	0.003836	-0.001495	0.001599	-0.002782	0.003592	-0.000519	0.003064	0.003321	0.003836	-0.001007	0.003064	0.014796	0.003836	0.001679	0.001355	0.026759	0.003592	0.003388	0.001844	0.029689	0.002372	0.003876	-0.003283	0.027980	0.001395	0.003876	-0.002551	0.020167	-0.000070	0.005097	-0.000598	0.016993	0.000174	0.005829	0.000867	0.015528	-0.000070	0.009247	0.002820	0.019435	-0.000558	0.016327	0.005994	0.027003	0.001639	0.023651	0.008924	0.030909	-0.001290	0.025849	0.012097	0.056788	0.000907	0.013886	0.014051	0.066554	0.001883	0.009247	0.014783	0.073146	0.003592	0.005097	0.013562	0.075099	0.003348	0.001923	0.012586	0.075343	0.003836	-0.000274	0.011121	0.076075	0.004569	-0.002228	0.011121	0.074610	0.004569	-0.003937	0.011365	0.069972	0.003592	-0.009796	0.011365	0.066554	0.004569	-0.013702	0.011121	0.060206	0.004325	-0.020538	0.010388	0.050441	0.003104	-0.025665	0.006971	0.040675	0.002860	-0.029815	0.005994	0.031153	0.003104	-0.034698	-0.005725	-0.014501	-0.003488	-0.041046	-0.004504	-0.021093	-0.002755	-0.036163	-0.003039	-0.024511	-0.002755	-0.031769	-0.001330	-0.025487	-0.002755	-0.026642	-0.001330	-0.025731	-0.003488	-0.021271	-0.001819	-0.028661	-0.003976	-0.015899	-0.003772	-0.037694	-0.004708	-0.012237	-0.005237	-0.047948	-0.005685	-0.012726	-0.006946	-0.056493	-0.005929	-0.013946	-0.007922	-0.063329	-0.006906	-0.016388	-0.010363	-0.067724	-0.006173	-0.019073	-0.011340	-0.067479	-0.005441	-0.020782	-0.011584	-0.067479	-0.005197	-0.022491	-0.004504	-0.043065	-0.000558	-0.020538	-0.002307	-0.035741	-0.000070	-0.019806	0.000379	-0.032079	0.000418	-0.021759	0.001844	-0.034032	-0.000314	-0.022491	0.001355	-0.037938	-0.000558	-0.018829	0.000379	-0.040136	0.000418	-0.012726	-0.001330	-0.038671	0.001883	-0.005401	-0.003528	-0.037938	0.001151	0.005585	-0.003772	-0.040380	0.001883	0.014374	-0.004016	-0.040136	0.003104	0.024140	-0.002551	-0.033544	0.003836	0.033905	-0.001574	-0.026952	0.002372	0.040741	-0.000598	-0.017431	0.006278	0.045136	0.000867	-0.010839	0.007010	0.046356	-0.006701	-0.011571	0.005301	0.031708	-0.008166	-0.005712	0.004813	0.025604	-0.008899	0.001124	0.003592	0.019501	-0.007922	0.006739	0.002860	0.015839	-0.005237	0.015773	0.001395	0.013397	-0.001819	0.026759	0.001151	0.011444	0.002332	0.040187	0.000907	0.009735	0.006482	0.052882	-0.000314	0.006073	0.008435	0.055079	-0.000070	0.003388	0.010388	0.058009	-0.000558	0.001190	0.010877	0.058985	-0.001290	-0.000519	0.011609	0.057521	-0.001779	-0.002472	0.001599	0.045802	-0.008126	-0.010040	0.000867	0.043849	-0.009835	-0.010528	0.000623	0.037745	-0.009347	-0.010528	-0.004260	0.031398	-0.011789	-0.010773	-0.006213	0.022609	-0.011544	-0.011017	-0.009875	0.014552	-0.009591	-0.013946	-0.012317	0.006984	-0.008371	-0.011261	-0.012561	-0.004491	-0.005929	-0.008087	-0.009875	-0.011815	-0.004953	-0.004669	-0.006213	-0.018163	-0.004953	-0.001983	-0.002307	-0.021337	-0.004708	-0.001007	0.001111	-0.024511	-0.004953	-0.000030	0.004041	-0.027196	-0.004953	0.000214	0.006726	-0.028173	-0.003488	0.001679	-0.000110	-0.012059	-0.000802	0.016327	0.001111	-0.007665	-0.000070	0.017304	0.002332	-0.004003	0.002127	0.015839	0.000135	-0.002050	0.003104	0.011444	-0.000842	-0.000829	0.003104	0.006806	-0.000110	-0.001561	0.003592	0.003143	0.001599	-0.001561	0.003592	0.001923	0.003553	-0.005224	0.005057	0.004852	0.007947	-0.007421	0.004569	0.009491	0.006726	-0.009618	0.004569	0.012909	0.009900	-0.010106	0.004569	0.013153	0.010144	-0.011083	0.004081	0.009735	0.012097	-0.010350	0.004325	0.002899	0.013074	0.001124	0.003348	-0.017853	0.016980	0.009181	0.003592	-0.019806	0.017469	0.016017	0.004813	-0.020050	0.014295	0.022853	0.004325	-0.020782	0.009168	0.027735	0.004081	-0.021515	0.005017	0.027980	0.004081	-0.019562	0.005506	0.030665	0.005301	-0.017364	0.010877	0.030177	0.005545	-0.013702	0.014051	0.030177	0.005545	-0.012237	0.015027	0.030665	0.005545	-0.011505	0.014783	0.033595	0.006278	-0.009308	0.018689	0.035548	0.007499	-0.005890	0.018445	0.034816	0.008719	-0.002472	-0.004504	0.023097	0.006522	0.006561	-0.006213	0.021144	0.005545	0.008270	-0.006701	0.019191	0.003592	0.009247	-0.006701	0.015284	0.003836	0.011200	-0.006457	0.012599	0.000663	0.013153	-0.005725	0.008937	-0.001535	0.014618	-0.006457	0.002345	-0.003732	0.016571	-0.007434	-0.009374	-0.005441	0.018524	-0.006213	-0.018163	-0.005685	0.017792	-0.006457	-0.024755	-0.004464	0.015106	-0.005481	-0.027684	-0.002267	0.011200	-0.003039	-0.024511	-0.000070	0.008026	-0.004016	-0.019872	0.001151	0.005341	-0.000354	-0.006444	0.000907	0.002411	0.000379	-0.002050	-0.000070	0.002899	0.000623	0.000392	0.000418	0.003632	0.001844	0.002833	-0.001046	0.006317	0.003064	0.000392	0.000663	0.009003	0.001599	-0.003270	0.000907	0.011688	0.000379	-0.006444	0.001395	0.013153	-0.000598	-0.010106	0.001883	0.009735	-0.002063	-0.010839	0.002860	0.006317	-0.001574	-0.011571	0.003592	0.004120	-0.001819	-0.008397	0.005545	0.001679	-0.001574	-0.003026	0.006766	0.000702	0.001355	0.005030	0.006766	0.001435	0.004529	0.002833	0.005301	0.015839	0.006971	-0.000829	0.004081	0.018768	0.005017	-0.003270	0.003592	0.020233	0.006238	-0.003270	0.002616	0.020722	0.004529	-0.001317	0.000907	0.020722	0.002332	0.002833	-0.000314	0.019257	0.000623	0.007228	-0.002267	0.016815	0.000379	0.008204	-0.002267	0.009979	-0.000598	0.007960	-0.000802	0.003143	-0.002307	0.010401	-0.000802	-0.004669	-0.005725	0.014552	-0.001535	-0.011017	-0.009143	0.014552	-0.004220	-0.014435	-0.010119	0.016505	-0.004953	-0.016876	-0.011340	0.013331	-0.010324	-0.022491	-0.012317	0.010401	-0.011056	-0.025909	-0.008899	0.009669	-0.010324	-0.029083	-0.010363	0.010157	-0.008859	-0.031769	-0.009631	0.012110	-0.006906	-0.031524	-0.009875	0.012599	-0.006173	-0.029571	-0.007678	0.009181	-0.000314	-0.026642	-0.007922	-0.000829	-0.001779	-0.023224	-0.006457	-0.008153	0.000174	-0.019562	-0.008654	-0.014745	0.000663	-0.015655	-0.006946	-0.017431	0.001883	-0.012970	-0.002795	-0.014745	0.003348	-0.007599	0.001599	-0.009618	0.004325	-0.003204	0.005506	-0.003270	0.005301	-0.001007	0.008679	-0.004979	0.005790	0.011444	0.008191	-0.000097	0.004813	0.013642	0.006726	0.006739	0.003592	0.015351	0.003797	0.013575	0.002616	0.015351	-0.000598	0.017970	0.001151	0.014130	-0.007190	0.021876	-0.001046	0.012665	-0.011584	0.022364	-0.001779	0.010224	-0.015246	0.014552	-0.003488	0.007294	-0.014514	0.005763	-0.004220	0.003632	-0.015490	-0.000097	-0.004464	0.002167	-0.013049	-0.003270	-0.005441	0.003876	-0.013049	-0.003026	-0.003732	0.006806	-0.012072	-0.011083	-0.003976	0.011444	-0.008899	-0.012304	-0.003244	0.014374	-0.004748	-0.009862	-0.002999	0.017060	-0.003283	-0.007665	-0.002023	0.018768	-0.000598	-0.005224	-0.002023	0.021210	0.000867	-0.004979	-0.002023	0.022919	0.002088	-0.007421	-0.001779	0.021210	0.004041	-0.018651	-0.002511	0.016571	0.004529	-0.033300	-0.001779	0.013642	0.005262	-0.056249	-0.000802	0.009735	0.003797	-0.078954	-0.000314	0.007538	0.004529	-0.091893	0.000663	-0.001007	0.004285	-0.092870	0.000418	-0.010773	0.004773	-0.084569	0.000174	-0.021026	0.000135	-0.025731	0.000907	-0.028351	-0.001086	-0.013524	-0.000802	-0.025177	-0.002063	-0.008153	-0.000802	-0.022491	-0.002307	-0.008397	-0.002267	-0.020294	-0.002795	-0.009862	-0.002267	-0.019073	-0.003039	-0.012548	-0.002755	-0.018097	-0.001819	-0.009862	-0.003732	-0.015167	0.000135	-0.007421	-0.002999	-0.011017	0.003308	-0.004491	-0.002999	-0.010040	0.003308	-0.001073	-0.002755	-0.010528	0.004285	0.001368	-0.002023	-0.010284	0.003064	0.000148	-0.002267	-0.015899	0.001599	-0.000341	-0.002511	-0.022003	-0.001330	0.003566	-0.004464	-0.040802	-0.001574	0.003077	-0.004708	-0.041046	-0.000110	0.001124	-0.005197	-0.040069	-0.001330	-0.004003	-0.005197	-0.036407	-0.001819	-0.011327	-0.004220	-0.031280	-0.001574	-0.015722	-0.006173	-0.026642	-0.004260	-0.019384	-0.006906	-0.023956	-0.003283	-0.018163	-0.006906	-0.020294	-0.002307	-0.015233	-0.004953	-0.014190	0.000135	-0.009374	-0.002999	-0.002228	0.001111	-0.004247	-0.001046	0.009979	0.000623	-0.001561	0.000174	0.020233	-0.002551	-0.003270	0.001151	0.028534	-0.018420	-0.005956	0.000663	0.034149	-0.017444	0.001124	-0.000314	0.029511	-0.016223	0.007716	-0.001046	0.024384	-0.012072	0.010401	0.000418	0.020477	-0.007922	0.007472	0.001883	0.015839	-0.000598	0.002101	0.003104	0.010956	0.003553	-0.003759	0.004325	0.003388	0.008191	-0.008641	0.002860	-0.012970	0.012097	-0.008153	0.003348	-0.025909	0.009412	-0.007909	0.002127	-0.042023	0.002576	-0.005956	0.002127	-0.055206	0.005262	-0.000585	0.003104	-0.055939	0.002576	0.003077	0.004081	-0.052521	-0.012072	0.017482	0.007010	-0.038849	-0.008899	0.020411	0.005301	-0.042755	-0.005481	0.022364	0.004325	-0.042511	0.000867	0.021632	0.002616	-0.041046	0.001844	0.018702	-0.000070	-0.034454	0.001111	0.015284	-0.001290	-0.026642	-0.000354	0.010157	-0.003976	-0.019562	-0.001819	0.003810	-0.006173	-0.009796	-0.001819	0.001857	-0.006417	-0.003692	-0.000842	-0.001561	-0.006417	0.001923	-0.001086	-0.007177	-0.005441	0.006317	-0.001330	-0.010106	-0.005685	0.009979	-0.001086	-0.011571	-0.004708	0.014862	-0.003039	-0.009374	-0.005197	0.020722	0.007703	0.013575	0.002860	0.057343	0.012342	0.017726	0.003348	0.059784	0.015027	0.020655	0.003836	0.057831	0.015515	0.022120	0.004325	0.053436	0.014539	0.026759	0.005545	0.048065	0.013806	0.035792	0.005545	0.047821	0.014539	0.046046	0.009940	0.050263	0.010877	0.055568	0.011161	0.056366	0.007215	0.053614	0.011649	0.055634	0.008191	0.052394	0.011893	0.052948	0.007459	0.048487	0.012870	0.046601	0.007703	0.044337	0.013358	0.035370	0.005017	0.042140	0.015067	-0.003204	0.009656	0.047023	0.015067	-0.005157	0.013318	0.051417	0.014823	-0.006378	0.012830	0.051661	0.013114	-0.008331	0.005262	0.047267	0.008963	-0.012237	-0.003772	0.040919	0.005057	-0.016144	-0.013049	0.034327	-0.001046	-0.018829	-0.019397	0.021876	-0.003976	-0.022491	-0.021594	0.010890	-0.004464	-0.023224	-0.020617	-0.001317	-0.004464	-0.021026	-0.020373	-0.016454	-0.004953	-0.016876	-0.017688	-0.030370	-0.005929	-0.010773	-0.015735	-0.039403	-0.006662	-0.003692	-0.012561	-0.042333	-0.006417	0.003632	-0.009387	-0.015233	-0.008859	0.012421	-0.009875	-0.009862	-0.008126	0.014130	-0.009387	-0.007665	-0.006417	0.019013	-0.006457	-0.004979	-0.004464	0.027069	-0.000842	-0.002050	-0.002755	0.035858	0.001355	-0.000585	-0.002755	0.040741	0.003553	-0.002538	-0.002511	0.042938	0.004773	-0.012792	-0.005685	0.042694	0.004041	-0.019628	-0.008126	0.040009	0.004773	-0.027684	-0.008371	0.031952	0.005017	-0.034276	-0.008126	0.022186	0.007947	-0.036718	-0.007638	0.015351	0.009656	-0.035253	-0.005197	0.009247	0.014783	-0.007665	-0.000558	-0.002960	0.017957	-0.004247	0.000663	0.002167	0.019666	-0.001806	0.000907	0.011200	0.019666	0.002833	0.000907	0.022919	0.019178	0.007960	0.000663	0.036102	0.014783	0.013575	0.000418	0.042694	0.012830	0.019435	0.000418	0.043915	0.007215	0.024562	-0.000558	0.037323	0.004529	0.027491	0.000174	0.032929	0.003553	0.039943	0.000174	0.028290	0.001355	0.043360	0.000663	0.018036	-0.001819	0.041163	0.000418	0.000702	-0.007678	0.032862	-0.002999	-0.017853	-0.014026	0.006007	-0.005685	-0.044708	-0.008654	0.003810	-0.004708	-0.027862	-0.002551	0.001124	-0.002999	-0.012970	0.002576	0.002345	-0.000314	-0.006622	0.005262	0.000880	0.000663	-0.009064	0.005017	0.000636	0.001883	-0.015167	0.000867	-0.000097	0.001395	-0.022003	-0.007190	-0.002294	0.001151	-0.031280	-0.010608	-0.002050	0.000907	-0.032989	-0.010608	0.000392	0.001395	-0.029083	-0.009631	0.002345	0.001639	-0.025421	-0.008410	-0.000341	0.002860	-0.024689	-0.006701	-0.005712	0.003592	-0.028107	-0.004748	-0.004735	0.006522	-0.046905	-0.003283	0.004786	0.007987	-0.046417	-0.004016	0.012599	0.007987	-0.041534	-0.005237	0.015773	0.007987	-0.032501	-0.006701	0.012599	0.007499	-0.022735	-0.007678	0.006495	0.005545	-0.015411	-0.008166	0.002345	0.001639	-0.011993	-0.003772	0.002589	-0.004220	-0.010528	0.002332	0.006007	-0.006906	-0.010773	0.008924	0.010890	-0.007394	-0.009796	0.013806	0.008204	-0.006417	-0.010284	0.013806	-0.000097	-0.005685	-0.013214	0.011365	-0.010350	-0.002755	-0.016632	0.008191	-0.020360	-0.000314	-0.020294	-0.001330	-0.038427	0.003104	-0.007355	-0.000110	-0.033544	0.004081	-0.003448	-0.000598	-0.030858	0.005301	-0.002716	0.000379	-0.024266	0.005545	0.002167	-0.002063	-0.009862	0.006766	0.008759	-0.002795	0.006495	0.006766	0.016327	-0.003772	0.016993	0.005790	0.025360	-0.006457	0.023097	0.004325	0.035126	-0.005481	0.027980	0.003836	0.041474	-0.000110	0.029200	0.004813	0.047821	0.006238	0.027247	0.005545	0.056122	0.009168	0.023829	0.006522	0.065888	0.000623	0.004542	0.007743	0.050751	-0.000842	0.000148	0.006522	0.043183	0.000623	-0.000341	0.005545	0.036347	0.001599	-0.000097	0.005545	0.028778	0.001599	-0.000341	0.004325	0.020966	-0.002551	-0.000341	0.005790	0.013397	-0.004748	0.000392	0.006278	0.005097	-0.003528	0.000392	0.007987	0.001435	0.002576	-0.005712	0.008963	-0.001251	0.008679	-0.018651	0.010184	-0.005157	0.013318	-0.033056	0.011405	-0.013214	0.015027	-0.046483	0.010184	-0.024444	0.017957	-0.058934	0.010917	-0.037384	0.016004	-0.066991	0.007499	-0.048370	-0.008166	-0.052831	-0.000558	-0.048614	-0.009143	-0.046483	-0.002511	-0.040314	-0.007190	-0.042333	-0.002267	-0.032013	-0.008166	-0.035497	-0.002755	-0.026398	-0.008410	-0.030126	-0.004220	-0.022735	-0.011340	-0.028661	-0.006662	-0.020538	-0.014026	-0.026464	-0.011544	-0.021271	-0.013537	-0.020849	-0.017648	-0.019317	-0.010608	-0.015233	-0.020578	-0.016144	-0.006213	-0.012792	-0.023507	-0.012970	-0.003528	-0.010595	-0.022531	-0.016144	-0.003283	-0.008153	-0.022775	-0.025909	-0.007434	-0.004735	-0.017892	-0.036407	-0.011828	-0.006200	-0.008371	-0.049347	-0.009631	0.002589	-0.005929	-0.045929	-0.009143	0.018946	-0.006173	-0.041534	-0.009631	0.034816	-0.005685	-0.036407	-0.009875	0.047023	-0.004220	-0.030792	-0.008166	0.054835	-0.003732	-0.026398	-0.001819	0.059230	-0.005441	-0.024200	0.005017	0.057276	-0.006417	-0.022980	0.005262	0.047999	-0.008371	-0.019562	0.003553	0.036280	-0.009591	-0.013702	0.003064	0.030177	-0.010568	-0.004181	0.002820	0.028956	-0.008859	0.003388	0.007947	0.022609	-0.006662	0.007538	0.021619	-0.017431	-0.003244	0.046845	0.015027	-0.011815	-0.003732	0.044403	0.006726	