5
370 4
0.007028	0.006382	0.003853	0.003344	0.006990	0.006371	0.004097	0.003404	0.007051	0.006345	0.004183	0.003480	0.007250	0.006266	0.004136	0.003410	0.007240	0.006137	0.004162	0.003375	0.007326	0.006409	0.004334	0.003383	0.007173	0.006448	0.004293	0.003372	0.007155	0.006420	0.004294	0.003369	0.007164	0.006183	0.004402	0.003330	0.007234	0.006068	0.004561	0.003340	0.007219	0.006192	0.004607	0.003318	0.007039	0.006460	0.004519	0.003290	0.007130	0.006843	0.004513	0.003337	0.007225	0.006942	0.004514	0.003261	0.007384	0.007046	0.004583	0.003312	0.007441	0.007018	0.004807	0.003325	0.007334	0.006938	0.004693	0.003148	0.007208	0.006776	0.004666	0.002967	0.007358	0.006772	0.004669	0.002914	0.007010	0.006805	0.004627	0.002963	0.006977	0.006789	0.004435	0.003306	0.006915	0.006831	0.004292	0.003260	0.006778	0.006787	0.004334	0.003227	0.006792	0.007017	0.004364	0.003190	0.006781	0.006416	0.004188	0.003162	0.006924	0.006404	0.004210	0.003181	0.006637	0.006392	0.004202	0.003140	0.006619	0.006527	0.004165	0.003134	0.006682	0.006597	0.003961	0.003165	0.006821	0.006535	0.003933	0.003153	0.006968	0.006476	0.003960	0.003918	0.006961	0.006130	0.003995	0.003904	0.006831	0.006974	0.003954	0.003959	0.006781	0.006955	0.003981	0.003888	0.006827	0.007078	0.003701	0.003875	0.006878	0.007195	0.003677	0.003870	0.006851	0.007118	0.003576	0.003904	0.006614	0.006943	0.003594	0.003959	0.006684	0.006892	0.003553	0.004024	0.006933	0.006902	0.003572	0.003800	0.006952	0.006925	0.003786	0.003741	0.006951	0.006991	0.003678	0.003849	0.006915	0.006800	0.003954	0.003873	0.006938	0.006939	0.004004	0.003885	0.006777	0.006980	0.003972	0.003880	0.006850	0.007028	0.003906	0.003904	0.006913	0.007031	0.003938	0.003898	0.006688	0.007081	0.004001	0.003890	0.006783	0.007402	0.003994	0.003885	0.006697	0.007272	0.003983	0.003390	0.006625	0.007359	0.003932	0.003177	0.006572	0.006772	0.003938	0.003056	0.006460	0.006494	0.003953	0.003053	0.006381	0.006355	0.004090	0.003113	0.006247	0.006135	0.004181	0.003586	0.006298	0.006127	0.004178	0.003537	0.006308	0.006135	0.004183	0.003522	0.006150	0.006190	0.004172	0.003413	0.005939	0.006154	0.004200	0.003359	0.006034	0.006106	0.004023	0.003367	0.006050	0.006116	0.004094	0.003277	0.005989	0.006638	0.004000	0.003461	0.006045	0.006697	0.003893	0.003799	0.005997	0.006783	0.003874	0.003977	0.006203	0.006950	0.003943	0.004186	0.006290	0.006993	0.003945	0.004369	0.006324	0.006961	0.003895	0.004430	0.006543	0.006807	0.004031	0.005105	0.007465	0.007177	0.004074	0.005525	0.007555	0.007606	0.004141	0.005706	0.007555	0.007996	0.004279	0.006389	0.007740	0.008869	0.004230	0.007122	0.007803	0.009737	0.004174	0.011562	0.007827	0.010643	0.004073	0.014420	0.007783	0.011685	0.004145	0.015058	0.008067	0.013859	0.004121	0.016732	0.008528	0.016927	0.004366	0.017859	0.010790	0.019230	0.004462	0.017884	0.010811	0.021717	0.004484	0.018518	0.011625	0.025949	0.004744	0.019566	0.011933	0.028391	0.004884	0.019945	0.012302	0.033032	0.005149	0.024111	0.012493	0.043847	0.006379	0.028701	0.013789	0.048857	0.006946	0.031198	0.017675	0.054336	0.007049	0.032999	0.028834	0.059968	0.007168	0.037154	0.029609	0.064869	0.007650	0.039041	0.030328	0.065834	0.008773	0.041413	0.030821	0.069787	0.009258	0.042019	0.031251	0.074045	0.009677	0.042055	0.031330	0.077087	0.009846	0.042304	0.031491	0.080466	0.010039	0.042393	0.031943	0.084829	0.010254	0.043370	0.032169	0.088378	0.010779	0.045940	0.033010	0.093972	0.011210	0.048652	0.033790	0.095516	0.012546	0.050233	0.033978	0.105808	0.013613	0.052484	0.034781	0.107237	0.014962	0.058245	0.034814	0.108579	0.015765	0.060123	0.035434	0.111048	0.016408	0.066273	0.035614	0.116673	0.018161	0.067706	0.036931	0.132600	0.019025	0.069117	0.037854	0.134664	0.018844	0.069443	0.036632	0.134949	0.023497	0.077125	0.032095	0.138910	0.024856	0.079767	0.031994	0.145330	0.025162	0.088983	0.032674	0.146036	0.026164	0.097964	0.033004	0.151395	0.026346	0.102981	0.036968	0.151813	0.026480	0.109176	0.040860	0.152246	0.027184	0.117209	0.044025	0.154801	0.028042	0.124670	0.047634	0.156447	0.028928	0.127630	0.050397	0.158984	0.030938	0.132635	0.054336	0.157850	0.032228	0.140468	0.058451	0.158770	0.033458	0.146931	0.058956	0.160323	0.033640	0.154503	0.063367	0.165891	0.035392	0.163516	0.067948	0.169762	0.037510	0.175898	0.072296	0.174221	0.041954	0.189548	0.082088	0.175344	0.043933	0.206050	0.085676	0.170686	0.044402	0.231990	0.093530	0.177061	0.045601	0.260440	0.107384	0.206679	0.047556	0.291862	0.118683	0.207341	0.048844	0.309927	0.129866	0.215093	0.052783	0.339842	0.130939	0.225926	0.055147	0.388856	0.134966	0.236720	0.058936	0.394540	0.137814	0.256391	0.061692	0.397551	0.143109	0.264320	0.062324	0.400196	0.145989	0.268695	0.064132	0.409819	0.149922	0.271567	0.065005	0.415377	0.150560	0.271100	0.068734	0.418576	0.151490	0.280636	0.071409	0.425024	0.158582	0.283365	0.070920	0.444764	0.160014	0.284771	0.071238	0.447057	0.163244	0.296619	0.071413	0.465392	0.167035	0.305373	0.072844	0.481416	0.175547	0.309982	0.073031	0.485889	0.178129	0.324288	0.072152	0.495081	0.178505	0.333074	0.072626	0.497070	0.177683	0.335857	0.072386	0.525144	0.176765	0.330909	0.071944	0.518219	0.170930	0.337187	0.071826	0.508267	0.163597	0.332441	0.070864	0.498613	0.164916	0.333921	0.067893	0.472672	0.164128	0.327952	0.065271	0.468477	0.163497	0.315764	0.065356	0.475191	0.160722	0.308133	0.064310	0.540719	0.159686	0.306960	0.064798	0.561204	0.157249	0.309987	0.065085	0.555553	0.157963	0.313080	0.062484	0.566558	0.159870	0.312423	0.059223	0.571599	0.155261	0.321552	0.059940	0.554488	0.156987	0.319033	0.061596	0.564784	0.159875	0.308895	0.061349	0.554599	0.159270	0.305296	0.061155	0.543766	0.162792	0.301082	0.059619	0.540517	0.155851	0.294226	0.059400	0.530611	0.154013	0.282413	0.057808	0.522552	0.152032	0.275963	0.058599	0.486378	0.151509	0.272108	0.058313	0.486269	0.149194	0.249319	0.056604	0.486467	0.150522	0.257110	0.056566	0.485006	0.151644	0.245857	0.056550	0.471481	0.153483	0.245357	0.057898	0.483785	0.156698	0.245537	0.057663	0.498946	0.154310	0.252963	0.057311	0.458304	0.156222	0.259374	0.056217	0.414449	0.155454	0.255183	0.053638	0.426519	0.154006	0.252451	0.055293	0.430875	0.151437	0.253678	0.055182	0.425074	0.153590	0.238650	0.055849	0.467924	0.150795	0.237389	0.055415	0.462644	0.151302	0.238011	0.056195	0.461020	0.148088	0.231854	0.053927	0.466228	0.138358	0.224549	0.053419	0.455701	0.139367	0.217993	0.052988	0.456286	0.135819	0.214536	0.052953	0.457274	0.136638	0.213503	0.052163	0.454409	0.141172	0.219081	0.051160	0.447221	0.150354	0.222309	0.052749	0.454280	0.153396	0.216270	0.052748	0.457551	0.154439	0.214097	0.054149	0.483990	0.158426	0.217571	0.055305	0.518253	0.154364	0.217197	0.054109	0.493945	0.153547	0.208480	0.053191	0.480938	0.154103	0.202218	0.053691	0.479719	0.155240	0.198147	0.054253	0.498434	0.157338	0.202876	0.053611	0.484095	0.159693	0.197763	0.052236	0.486706	0.162655	0.202215	0.054086	0.449120	0.161913	0.203544	0.053422	0.444312	0.157716	0.207553	0.051380	0.445528	0.156085	0.213845	0.050953	0.439134	0.154754	0.215412	0.051370	0.437558	0.159432	0.214770	0.052493	0.452533	0.163313	0.217191	0.052691	0.445070	0.166165	0.221231	0.054489	0.486258	0.163437	0.221727	0.056911	0.501771	0.154809	0.217565	0.055296	0.493044	0.152529	0.213413	0.055305	0.488078	0.148696	0.209334	0.053222	0.476109	0.140916	0.211941	0.051611	0.418984	0.144924	0.211059	0.052688	0.425832	0.145794	0.211151	0.052056	0.424041	0.143072	0.205136	0.051228	0.418998	0.139391	0.197042	0.050432	0.391477	0.137315	0.190818	0.050053	0.375841	0.133012	0.184670	0.049798	0.366726	0.129212	0.175997	0.047506	0.362559	0.127563	0.181342	0.046421	0.344059	0.124230	0.172371	0.045297	0.333907	0.121210	0.162725	0.045914	0.329535	0.118815	0.158454	0.045432	0.327929	0.112267	0.152242	0.042590	0.305938	0.102053	0.144111	0.042378	0.299200	0.098428	0.132734	0.041402	0.251248	0.093743	0.120619	0.037731	0.168423	0.088134	0.119770	0.036423	0.161519	0.080819	0.118057	0.034921	0.155617	0.077447	0.118477	0.035388	0.142514	0.075344	0.109199	0.034083	0.096508	0.063760	0.101400	0.031422	0.050609	0.059017	0.097996	0.031242	0.025580	0.055697	0.094997	0.031723	0.020022	0.055308	0.093435	0.034347	0.015291	0.054920	0.092619	0.033502	0.014027	0.053387	0.091543	0.033249	0.013747	0.050081	0.089975	0.033394	0.013054	0.047626	0.070885	0.032581	0.011353	0.044815	0.060787	0.036252	0.009480	0.045510	0.059583	0.039829	0.009093	0.045381	0.058536	0.041690	0.007677	0.044348	0.054798	0.049392	0.007315	0.043316	0.054431	0.068064	0.007332	0.039132	0.056051	0.068838	0.007345	0.039221	0.060541	0.074938	0.007262	0.037616	0.059700	0.078976	0.007065	0.038031	0.057644	0.080076	0.006567	0.037696	0.053131	0.085921	0.005026	0.036228	0.054861	0.089049	0.004769	0.033903	0.055095	0.090910	0.004611	0.032313	0.055470	0.092115	0.004622	0.031089	0.055988	0.092815	0.004687	0.030320	0.051997	0.095115	0.004523	0.030173	0.051523	0.095829	0.004634	0.029541	0.054149	0.098373	0.004915	0.030815	0.057098	0.099897	0.004973	0.030995	0.057390	0.100997	0.004963	0.031349	0.059969	0.102146	0.004946	0.030640	0.063070	0.101534	0.005080	0.031511	0.065708	0.101428	0.005180	0.031158	0.065669	0.100106	0.005167	0.030671	0.065157	0.088133	0.005068	0.030463	0.061631	0.087863	0.004868	0.029767	0.056966	0.085009	0.004889	0.029978	0.056650	0.079944	0.004884	0.029373	0.054394	0.079074	0.004491	0.028601	0.053148	0.073876	0.004511	0.027600	0.051528	0.070405	0.004582	0.027405	0.049535	0.068812	0.004532	0.027243	0.048861	0.066434	0.004474	0.027189	0.048793	0.065561	0.004357	0.026832	0.047705	0.060896	0.004327	0.025433	0.048073	0.060201	0.004232	0.024374	0.046355	0.056583	0.004007	0.022170	0.039206	0.051456	0.003938	0.020724	0.038887	0.049807	0.003935	0.017933	0.037600	0.047134	0.003980	0.017506	0.032490	0.043365	0.003861	0.015123	0.025039	0.040863	0.003503	0.015162	0.022073	0.040312	0.003598	0.014934	0.020330	0.037305	0.003604	0.014998	0.019193	0.037064	0.003606	0.014251	0.018821	0.034526	0.003547	0.012557	0.018234	0.031803	0.003390	0.010148	0.018146	0.031340	0.003335	0.009938	0.017966	0.030113	0.003290	0.009383	0.017846	0.026805	0.003188	0.008938	0.017493	0.024092	0.003231	0.010102	0.017381	0.023872	0.003357	0.011126	0.016377	0.023463	0.003459	0.011102	0.016215	0.023422	0.003446	0.011263	0.014921	0.022419	0.003482	0.011157	0.014814	0.021128	0.003244	0.011187	0.014691	0.020631	0.003216	0.011167	0.014724	0.020253	0.003240	0.010826	0.009411	0.019961	0.003215	0.010305	0.008538	0.017476	0.003232	0.010142	0.009309	0.014198	0.003357	0.010183	0.009268	0.013820	0.003212	0.010134	0.009177	0.013705	0.003242	0.009998	0.009263	0.013687	0.003399	0.009849	0.009222	0.012064	0.003410	0.009797	0.009969	0.009365	0.003404	0.009684	0.010204	0.008540	0.003415	0.009797	0.010227	0.008248	0.003444	0.009801	0.010200	0.007952	0.003405	0.009843	0.010225	0.007833	0.003351	0.009010	0.010272	0.006893	0.003202	0.007197	0.010413	0.006747	0.003058	0.007176	0.009524	0.006106	0.003072	0.006859	0.009696	0.004831	0.003066	0.007044	0.009734	0.004675	0.003095	0.007180	0.009773	0.004690	0.003122	0.007152	0.009481	0.004732	0.003086	0.007095	0.009409	0.004779	0.003083	0.006987	0.009437	0.004673	0.003008	0.006271	0.008355	0.004457	0.002897	0.006327	0.008295	0.004683	0.002888	0.006579	0.008546	0.004572	0.002929	0.006637	0.008377	0.004299	0.002753	0.006620	0.008367	0.004295	0.002737	0.006648	0.008094	0.004133	0.002724	0.006664	0.007264	0.003760	0.002714	0.006556	0.007271	0.003776	0.002694	0.006568	0.007521	0.003789	0.002787	0.006535	0.007474	0.003945	0.002846	0.006397	0.007367	0.004071	0.002884	0.006448	0.007107	0.004029	0.002871	0.006587	0.006974	0.004025	0.002884	0.006636	0.006797	0.004050	0.002901	0.006567	0.006214	0.004049	0.002840	0.006338	0.006124	0.004005	0.002827	0.006516	0.006236	0.003967	0.002818	0.006533	0.006240	0.003913	0.002790	0.006568	0.006095	0.004034	0.002764	0.006621	0.006073	0.004040	0.002742	0.006827	0.006065	0.003857	0.002766	0.006615	0.005907	0.003751	0.002864	0.006713	0.006853	0.003729	0.002776	0.006704	0.006800	0.003637	0.002730	0.006681	0.006555	0.003743	0.002794	0.006816	0.006578	0.003823	0.002843	0.006951	0.006541	0.003858	0.002858	0.006907	0.006132	0.003841	0.002854	0.007014	0.006499	0.003812	0.002806	0.007164	0.006506	0.003691	0.002796	0.007156	0.006655	0.003704	0.002752	0.006933	0.006599	0.003809	0.002740	0.006904	0.006584	0.003678	0.002809	0.006946	0.006530	0.003675	0.002876	0.006772	0.006289	0.003649	0.002896	0.006597	0.006219	0.003623	0.002945	0.006519	0.006269	0.003616	0.002986	0.006573	0.006251	0.003468	0.003009	0.006770	0.006214	0.003479	0.003025	0.006748	0.006221	0.003469	0.003052	0.006521	0.006467	0.003467	0.003022	0.006443	0.005864	0.003414	0.003080	0.006407	0.005848	0.003390	0.003136	0.006352	0.006357	0.003310	0.003122	0.006125	0.006518	0.003306	0.003164	0.006069	0.007421	0.003344	0.003110	0.006047	0.007433	0.003434	0.003142	0.006013	0.007083	0.003356	0.003118	0.005671	0.007122	0.003308	0.003162	0.005653	0.007052	0.003232	0.003187	0.005656	0.006953	0.003115	0.003221	0.005667	0.006949	0.003158	0.003249	0.005641	0.007012	0.003135	0.003235	0.005606	0.007038	0.003192	0.003243	0.005690	0.007180	0.003338	0.003356	0.005881	0.007131	0.003316	0.003313	0.005825	0.007226	0.003436	0.003323	0.005578	0.007176	0.003442	0.003346	0.005759	0.007198	0.003467	0.003331	0.005918	0.007037	0.003450	0.003318	0.005894	0.006824	0.003569	0.003341	0.005768	0.006824	0.003582	0.003261	
370 1
-0.005973	-0.006033	-0.006094	-0.006154	-0.006214	-0.006274	-0.006334	-0.006394	-0.006454	-0.006514	-0.006574	-0.006635	-0.006695	-0.006755	-0.006815	-0.006875	-0.006935	-0.006995	-0.007055	-0.007115	-0.007176	-0.007236	-0.007296	-0.007356	-0.007416	-0.007476	-0.007536	-0.007596	-0.007656	-0.007717	-0.007777	-0.007837	-0.007897	-0.007957	-0.008017	-0.008077	-0.008137	-0.008197	-0.008258	-0.008318	-0.008378	-0.008438	-0.008498	-0.008558	-0.008618	-0.008678	-0.008738	-0.008799	-0.008859	-0.008919	-0.008979	-0.009039	-0.009099	-0.009159	-0.009219	-0.009279	-0.009340	-0.009400	-0.009460	-0.009520	-0.009580	-0.009640	-0.009700	-0.009760	-0.009820	-0.009881	-0.009941	-0.010001	-0.010061	-0.010121	-0.010181	-0.010241	-0.010301	-0.010361	-0.010422	-0.010482	-0.010542	-0.010602	-0.010662	-0.010722	-0.010782	-0.010842	-0.010902	-0.010962	-0.011023	-0.011083	-0.011112	-0.011111	-0.013405	-0.021855	-0.022162	-0.022998	-0.034079	-0.033495	-0.046080	-0.044691	-0.053764	-0.066539	-0.079284	-0.090487	-0.102073	-0.129010	-0.134880	-0.156881	-0.165131	-0.166532	-0.180129	-0.202987	-0.257920	-0.270655	-0.282321	-0.305871	-0.325859	-0.369558	-0.391815	-0.420320	-0.457135	-0.488895	-0.513178	-0.535882	-0.563569	-0.579537	-0.597006	-0.607318	-0.619173	-0.631607	-0.643539	-0.650975	-0.661612	-0.667579	-0.678152	-0.677907	-0.677814	-0.681531	-0.688353	-0.688836	-0.701577	-0.700264	-0.700043	-0.700005	-0.700000	-0.708238	-0.710609	-0.711000	-0.711089	-0.711107	-0.711111	-0.711111	-0.711111	-0.722371	-0.722112	-0.722174	-0.722208	-0.722219	-0.722221	-0.722222	-0.722222	-0.722222	-0.722222	-0.722228	-0.734936	-0.733574	-0.733367	-0.733336	-0.733333	-0.733333	-0.733333	-0.733333	-0.733333	-0.733333	-0.733333	-0.733333	-0.733333	-0.733333	-0.733333	-0.733333	-0.733333	-0.733333	-0.733333	-0.733333	-0.733431	-0.745761	-0.744703	-0.744495	-0.744453	-0.744446	-0.744445	-0.744444	-0.744444	-0.744444	-0.744444	-0.744444	-0.744444	-0.744444	-0.744444	-0.744444	-0.744444	-0.744444	-0.744444	-0.744444	-0.744444	-0.744444	-0.744444	-0.744444	-0.744444	-0.744444	-0.744444	-0.744444	-0.735337	-0.733749	-0.733433	-0.732514	-0.721698	-0.709020	-0.699129	-0.676385	-0.676790	-0.654687	-0.640606	-0.621876	-0.598063	-0.585409	-0.567384	-0.541465	-0.533051	-0.520687	-0.502815	-0.491494	-0.476587	-0.457733	-0.441437	-0.427967	-0.402144	-0.380259	-0.365905	-0.341624	-0.329580	-0.309551	-0.297637	-0.278332	-0.256707	-0.236789	-0.208704	-0.195020	-0.178814	-0.165231	-0.159973	-0.137356	-0.124936	-0.114003	-0.092128	-0.079716	-0.065761	-0.056571	-0.044917	-0.032649	-0.021919	-0.022298	-0.011004	-0.011235	-0.011125	-0.009729	-0.008219	-0.006706	-0.005194	-0.003681	-0.002169	-0.000656	0.000856	0.002369	0.003881	0.005394	0.006906	0.008419	0.009931	0.011078	0.010547	0.010059	0.009577	0.009094	0.008612	0.008130	0.007648	0.007165	0.006683	0.006201	0.005718	0.005236	0.004754	0.004272	0.003789	0.003307	0.002825	0.002342	0.001860	0.001378	0.000896	0.000413	-0.000069	-0.000551	-0.001034	-0.001516	-0.001998	-0.002480	-0.002963	-0.003445	-0.003927	-0.004410	-0.004892	-0.005374	-0.005856	-0.006339	-0.006821	-0.007303	-0.007786	-0.008268	-0.008750	-0.009232	-0.009715	-0.010197	-0.010679	-0.011111	-0.011110	-0.011111	-0.011111	-0.011111	-0.011111	-0.011111	-0.011111	-0.011111	-0.011111	-0.011111	-0.011111	-0.011111	-0.011111	-0.011111	-0.011111	-0.011111	-0.011111	-0.011111	-0.011111	-0.011111	-0.011111	-0.011111	-0.011111	-0.011111	-0.011111	-0.011111	-0.011111	-0.011111	-0.011111	-0.011111	-0.011111	-0.011111	-0.011111	-0.011111	-0.011111	-0.011111	-0.011111	-0.011111	-0.011111	-0.011111	-0.011111	-0.011111	-0.011111	-0.011111	-0.011111	-0.011111	-0.011111	-0.011111	
398 4
0.005768	0.006824	0.003582	0.003261	0.005924	0.006536	0.003655	0.003324	0.005921	0.006268	0.003694	0.003284	0.006035	0.004838	0.003559	0.003302	0.006104	0.005071	0.003515	0.003246	0.006266	0.005123	0.003578	0.003196	0.006453	0.005159	0.003611	0.003163	0.006536	0.005278	0.003663	0.003131	0.006528	0.005407	0.003743	0.003096	0.006540	0.005510	0.003692	0.003044	0.006578	0.005435	0.003712	0.003012	0.006585	0.005426	0.003675	0.002970	0.006661	0.005100	0.003576	0.002904	0.006632	0.005086	0.003608	0.002860	0.006794	0.005060	0.003499	0.002882	0.006759	0.005046	0.003440	0.002845	0.006580	0.005074	0.003386	0.002899	0.006544	0.005133	0.003402	0.002886	0.006605	0.005147	0.003244	0.002920	0.006576	0.005142	0.003218	0.002899	0.006496	0.005089	0.003144	0.002933	0.006467	0.005097	0.003059	0.002883	0.006334	0.005101	0.003136	0.002876	0.006257	0.005065	0.003152	0.002871	0.006061	0.005133	0.003087	0.002911	0.005870	0.005117	0.003110	0.002939	0.005973	0.004893	0.003108	0.002946	0.006025	0.004783	0.003083	0.002976	0.006084	0.004664	0.003060	0.003029	0.005973	0.004707	0.003224	0.002984	0.005977	0.004778	0.003327	0.003014	0.005851	0.004816	0.003392	0.003023	0.005904	0.004801	0.003410	0.003021	0.005739	0.004912	0.003471	0.003014	0.005797	0.004874	0.003476	0.003096	0.005871	0.004883	0.003536	0.003002	0.005830	0.004872	0.003506	0.003055	0.005809	0.004812	0.003527	0.002975	0.006003	0.004614	0.003565	0.003039	0.006146	0.004754	0.003645	0.003029	0.006127	0.005026	0.003605	0.002986	0.006104	0.005067	0.003579	0.002968	0.006197	0.005135	0.003521	0.002975	0.006179	0.005062	0.003542	0.002970	0.006298	0.005170	0.003515	0.002953	0.006328	0.005181	0.003497	0.002928	0.006227	0.005216	0.003416	0.002939	0.006391	0.005150	0.003456	0.002958	0.006370	0.005193	0.003516	0.002956	0.006482	0.005124	0.003331	0.002965	0.006474	0.005069	0.003323	0.002863	0.006414	0.005295	0.003251	0.002865	0.006527	0.005098	0.003199	0.002836	0.006568	0.005179	0.003273	0.002799	0.006514	0.005202	0.003321	0.002809	0.006639	0.005131	0.003551	0.002824	0.006516	0.005055	0.003725	0.002731	0.006438	0.004995	0.003711	0.002660	0.006594	0.004875	0.003671	0.002587	0.006718	0.004892	0.003676	0.002579	0.006906	0.004938	0.003665	0.002573	0.006870	0.004871	0.003904	0.002582	0.006796	0.004808	0.003867	0.002734	0.007124	0.004756	0.003913	0.002695	0.007189	0.004942	0.004017	0.002785	0.007449	0.004911	0.004027	0.002901	0.007269	0.004956	0.004186	0.002911	0.007282	0.004915	0.004056	0.002866	0.007235	0.005002	0.004057	0.002827	0.007235	0.005105	0.004037	0.002812	0.007237	0.004958	0.004038	0.002851	0.007250	0.004920	0.004036	0.002837	0.007132	0.004894	0.004043	0.002812	0.007143	0.004909	0.004145	0.002798	0.007023	0.004916	0.003931	0.002809	0.006904	0.004941	0.003826	0.002894	0.007113	0.005073	0.003853	0.002901	0.006893	0.005141	0.003925	0.002890	0.006780	0.004977	0.003952	0.002929	0.006759	0.004813	0.003959	0.002934	0.006698	0.004817	0.003808	0.002946	0.006654	0.004874	0.003741	0.002817	0.006391	0.004858	0.003808	0.002806	0.006274	0.004796	0.003685	0.002762	0.007602	0.004719	0.003726	0.002678	0.008773	0.004679	0.003677	0.002715	0.020817	0.004743	0.003844	0.002759	0.024447	0.004685	0.003943	0.002809	0.026937	0.004668	0.004114	0.002926	0.027498	0.004683	0.004086	0.002928	0.028688	0.004851	0.004122	0.002950	0.029400	0.004864	0.004165	0.002940	0.029556	0.004866	0.004006	0.002978	0.029947	0.004988	0.003993	0.003032	0.030662	0.006206	0.004011	0.003232	0.031881	0.006846	0.004274	0.005642	0.034827	0.008389	0.004423	0.007386	0.037446	0.011634	0.004726	0.007531	0.037716	0.012545	0.004849	0.008044	0.037780	0.013981	0.004935	0.008177	0.037994	0.017122	0.004983	0.008560	0.038146	0.017839	0.004946	0.012087	0.039157	0.018936	0.005062	0.016612	0.039593	0.020950	0.005219	0.018542	0.043323	0.022267	0.005329	0.018457	0.042912	0.022336	0.005372	0.019246	0.040302	0.024163	0.005680	0.019935	0.038695	0.030718	0.009059	0.020173	0.038220	0.032037	0.009065	0.020260	0.037530	0.033170	0.009030	0.020346	0.036844	0.033652	0.009056	0.020423	0.036892	0.035927	0.009260	0.020747	0.036742	0.036319	0.009486	0.021464	0.036611	0.037271	0.009911	0.021925	0.035731	0.039841	0.010620	0.024164	0.034154	0.040840	0.010568	0.025958	0.030053	0.041063	0.010895	0.026508	0.030717	0.043136	0.011022	0.027016	0.030788	0.046122	0.011079	0.027332	0.030946	0.045627	0.011369	0.027708	0.031295	0.047252	0.011801	0.027033	0.031507	0.048152	0.011927	0.027653	0.031000	0.051991	0.012032	0.027535	0.027240	0.053228	0.012434	0.029424	0.023831	0.060868	0.013411	0.030657	0.026324	0.062626	0.014540	0.032252	0.028180	0.068472	0.013541	0.033682	0.029512	0.072843	0.014449	0.035378	0.030932	0.077842	0.015226	0.038513	0.032498	0.078393	0.017003	0.039171	0.032320	0.085629	0.017173	0.041769	0.035936	0.090966	0.017716	0.046858	0.039701	0.097008	0.018354	0.053604	0.040422	0.109170	0.019059	0.058809	0.041756	0.113950	0.020678	0.058896	0.043421	0.119478	0.021272	0.063744	0.044025	0.125057	0.024522	0.075873	0.049798	0.135326	0.026427	0.088550	0.050181	0.149693	0.027259	0.100138	0.051852	0.160203	0.027859	0.105549	0.057261	0.164328	0.028311	0.107129	0.060557	0.165565	0.029345	0.116249	0.062145	0.169900	0.030151	0.124140	0.064737	0.181727	0.030810	0.126049	0.065454	0.183107	0.032297	0.128204	0.066918	0.194447	0.035033	0.133761	0.072265	0.206344	0.036493	0.138989	0.081132	0.207057	0.038174	0.185866	0.090677	0.214273	0.039631	0.221815	0.108860	0.241440	0.042531	0.236490	0.119286	0.250929	0.045471	0.242059	0.121888	0.283159	0.049125	0.286193	0.124150	0.285267	0.049650	0.284383	0.125581	0.291676	0.050890	0.287086	0.126868	0.293321	0.052745	0.296031	0.128585	0.297166	0.052195	0.322064	0.129905	0.297904	0.052131	0.357643	0.136435	0.292360	0.058120	0.365300	0.138248	0.294220	0.061945	0.383337	0.145727	0.311760	0.062083	0.394400	0.147638	0.321309	0.061767	0.398706	0.149988	0.323353	0.061823	0.409534	0.154028	0.320155	0.062610	0.415280	0.155594	0.320406	0.063584	0.420729	0.155921	0.317634	0.062505	0.426600	0.156142	0.314197	0.062091	0.452304	0.156099	0.323573	0.065897	0.450344	0.157794	0.343848	0.065812	0.456202	0.151126	0.329008	0.064350	0.495389	0.147652	0.321290	0.065563	0.504308	0.149107	0.295681	0.063245	0.510842	0.147148	0.291429	0.063687	0.514942	0.147528	0.285354	0.063602	0.540214	0.154875	0.285977	0.065247	0.551453	0.161803	0.285303	0.065445	0.557919	0.168005	0.284371	0.065818	0.535089	0.163353	0.284245	0.062438	0.543152	0.167205	0.279979	0.058132	0.557579	0.166279	0.273212	0.059380	0.563530	0.168119	0.257517	0.061214	0.559011	0.169054	0.254281	0.063101	0.559515	0.166275	0.256001	0.064142	0.559665	0.164179	0.258392	0.063777	0.555307	0.164745	0.265286	0.064285	0.562266	0.165023	0.272778	0.065044	0.558746	0.163903	0.284037	0.061455	0.568458	0.160094	0.268359	0.061294	0.565063	0.160431	0.275012	0.063603	0.536777	0.160970	0.282223	0.064051	0.525726	0.160183	0.284987	0.066361	0.500810	0.161545	0.295699	0.066753	0.515018	0.162566	0.297449	0.067169	0.488363	0.157669	0.292804	0.066236	0.478730	0.151020	0.295877	0.065668	0.456262	0.143989	0.303074	0.065612	0.463699	0.153854	0.306882	0.065407	0.474293	0.155623	0.320145	0.065454	0.445628	0.157707	0.324336	0.064898	0.436779	0.160384	0.337414	0.065708	0.450245	0.162938	0.346339	0.066113	0.456863	0.167659	0.346353	0.065269	0.453842	0.169400	0.348360	0.064922	0.471398	0.177047	0.350501	0.065626	0.488480	0.179990	0.357237	0.066782	0.493546	0.180555	0.349462	0.066280	0.470559	0.188256	0.362099	0.066425	0.487740	0.189620	0.358131	0.066961	0.499936	0.186114	0.352890	0.064767	0.498740	0.187216	0.350135	0.063667	0.508125	0.191783	0.350633	0.062656	0.500850	0.191132	0.347692	0.063250	0.494443	0.189353	0.354093	0.062144	0.495944	0.190266	0.360608	0.063001	0.492598	0.190125	0.357745	0.062854	0.485673	0.185440	0.354608	0.061926	0.469253	0.178950	0.351207	0.061298	0.468599	0.176485	0.345499	0.060640	0.459201	0.164417	0.326253	0.058410	0.437804	0.157798	0.314146	0.055949	0.422578	0.151912	0.315130	0.053880	0.416783	0.148119	0.310268	0.053347	0.404249	0.139890	0.308752	0.050969	0.359508	0.133080	0.286507	0.049919	0.336978	0.130759	0.276906	0.050518	0.321969	0.117408	0.256674	0.048421	0.288082	0.106041	0.238588	0.045741	0.235142	0.102924	0.230434	0.044068	0.208029	0.096277	0.223399	0.042223	0.172051	0.079409	0.209840	0.037854	0.146515	0.077818	0.207405	0.035879	0.139488	0.076595	0.193768	0.033837	0.129138	0.073903	0.175870	0.032282	0.124298	0.068267	0.152927	0.032821	0.122102	0.060754	0.153057	0.034568	0.114553	0.053165	0.136750	0.034224	0.045024	0.048773	0.121356	0.034100	0.032449	0.047707	0.117318	0.033544	0.025470	0.045712	0.115708	0.032635	0.017127	0.045051	0.102534	0.032540	0.016126	0.047269	0.096289	0.033511	0.015236	0.047585	0.084270	0.035233	0.014696	0.044868	0.074092	0.036553	0.014174	0.044399	0.069996	0.046148	0.013521	0.043353	0.068536	0.049210	0.012360	0.043562	0.068488	0.055828	0.011961	0.040798	0.070212	0.056606	0.009728	0.040064	0.070983	0.056881	0.006467	0.038808	0.070933	0.057329	0.005808	0.037893	0.071482	0.058543	0.005477	0.035836	0.072068	0.060734	0.005306	0.034112	0.073173	0.065808	0.005283	0.033218	0.073903	0.067603	0.005026	0.034158	0.068872	0.069226	0.005035	0.034792	0.066152	0.069630	0.004792	0.034990	0.064395	0.070106	0.004532	0.035205	0.064431	0.072238	0.004171	0.035334	0.064669	0.074843	0.004251	0.035858	0.071397	0.076228	0.004216	0.031295	0.071486	0.079304	0.004258	0.029714	0.071255	0.078934	0.004320	0.028559	0.073021	0.078470	0.004435	0.029418	0.073943	0.072985	0.004464	0.029966	0.073576	0.071939	0.004535	0.031234	0.069155	0.069352	0.004531	0.033375	0.064229	0.071635	0.004465	0.034153	0.065453	0.076608	0.004539	0.034967	0.064482	0.078197	0.004645	0.034893	0.064935	0.078518	0.004631	0.034554	0.066956	0.077709	0.004685	0.034514	0.066682	0.076664	0.004751	0.034122	0.065164	0.073948	0.004720	0.033075	0.064125	0.075283	0.004568	0.032816	0.063940	0.074530	0.004492	0.032376	0.062236	0.074683	0.004460	0.032502	0.060722	0.074607	0.004432	0.032283	0.060122	0.072110	0.004333	0.031805	0.056370	0.075207	0.004343	0.031643	0.055027	0.074452	0.004306	0.030351	0.053198	0.072719	0.004138	0.029781	0.050580	0.072020	0.004031	0.028156	0.048439	0.073060	0.003989	0.026673	0.047841	0.073728	0.003867	0.023448	0.046489	0.071353	0.003710	0.019030	0.046222	0.068390	0.003617	0.018030	0.044227	0.061331	0.003461	0.016657	0.041773	0.059240	0.003370	0.015304	0.040975	0.057544	0.003169	0.014876	0.030949	0.055115	0.003118	0.014304	0.028216	0.052948	0.003011	0.013324	0.027646	0.051750	0.002964	0.012746	0.027328	0.046948	0.002909	0.011774	0.026943	0.045615	0.002861	0.010615	0.026985	0.044075	0.002826	0.009151	0.026502	0.042860	0.002783	0.008812	0.026188	0.041494	0.002760	0.008110	0.020706	0.031047	0.002729	0.008034	0.012043	0.028355	0.002716	0.007416	0.011485	0.026383	0.002786	0.007352	0.011358	0.025889	0.002765	0.007507	0.010868	0.022131	0.002693	0.007376	0.010354	0.017548	0.002724	0.007305	0.010367	0.015120	0.002738	0.007160	0.010258	0.014466	0.002767	0.006877	0.010103	0.012664	0.002716	0.006794	0.008077	0.012530	0.002709	0.006800	0.006237	0.012320	0.002757	0.006808	0.005695	0.012336	0.002775	0.006893	0.005601	0.012158	0.002755	0.006790	0.005504	0.008474	0.002742	0.006642	0.005595	0.008218	0.002737	0.006612	0.005690	0.007903	0.002778	0.006449	0.005213	0.007886	0.002795	0.006417	0.005288	0.007304	0.002750	0.006707	0.005307	0.004407	0.002814	0.006835	0.005211	0.004008	0.002800	0.006786	0.004973	0.003878	0.002779	0.006741	0.005052	0.003777	0.002698	0.006895	0.004735	0.003668	0.002660	0.006686	0.005009	0.003699	0.002663	0.006732	0.005117	0.003643	0.002652	0.006648	0.005162	0.003657	0.002788	0.006787	0.005137	0.003574	0.002799	0.006891	0.005136	0.003244	0.002878	0.006867	0.005059	0.003239	0.002933	0.007041	0.005111	0.003253	0.002871	0.006935	0.005129	0.003254	0.002818	0.006937	0.005141	0.003337	0.002852	0.006858	0.005207	0.003328	0.002912	0.006809	0.005275	0.003351	0.003003	0.006785	0.005118	0.003320	0.002981	0.006876	0.005145	0.003372	0.002956	0.007090	0.005134	0.003243	0.003001	0.006950	0.005071	0.003275	0.002957	0.006962	0.005158	0.003420	0.003013	0.006909	0.005105	0.003607	0.003005	0.007015	0.004967	0.003628	0.003007	0.006885	0.005007	0.003905	0.003013	0.006790	0.004906	0.003935	0.003010	0.006674	0.004758	0.003982	0.003003	0.006827	0.004627	0.003909	0.002894	0.006772	0.004612	0.004013	0.002848	0.006701	0.004568	0.004065	0.002778	0.006644	0.004557	0.004085	0.002747	0.006445	0.004507	0.004106	0.002766	0.006402	0.004527	0.004085	0.002793	0.006324	0.004556	0.004111	0.002755	0.006324	0.004616	0.004061	0.002707	0.006313	0.004515	0.004021	0.002589	0.006318	0.004467	0.004020	0.002575	0.006375	0.004356	0.003974	0.002569	0.006170	0.004318	0.003967	0.002541	0.005944	0.004369	0.004049	0.002485	0.005898	0.004410	0.004264	0.002444	0.005953	0.004399	0.004081	0.002419	0.005836	0.004523	0.004160	0.002482	0.006057	0.004419	0.004098	0.002568	0.006130	0.004271	0.004076	0.002573	0.006090	0.004276	0.004115	0.002579	0.005995	0.004444	0.004171	0.002533	0.006173	0.004403	0.004035	0.002592	0.006165	0.004419	0.004082	0.002610	0.006054	0.004355	0.004051	0.002572	0.005999	0.004401	0.004008	0.002516	0.005971	0.004461	0.004030	0.002605	0.006088	0.004462	0.003984	0.002633	0.005954	0.004413	0.003994	0.002680	0.005992	0.004358	0.004032	0.002681	0.006007	0.004486	0.004073	0.002735	0.005904	0.004543	0.004046	0.002830	0.005862	0.004595	0.004118	0.002837	0.005960	0.004517	0.004113	0.002861	0.005990	0.004367	0.003823	0.002882	0.005986	0.004338	0.003796	0.002891	0.005865	0.004465	0.003716	0.002844	0.005772	0.004459	0.003506	0.002774	0.005829	0.004441	0.003613	0.002840	0.005779	0.004553	0.003450	0.002899	0.005717	0.004436	0.003329	0.002903	0.005443	0.004411	0.003334	0.002891	0.005445	0.004435	0.003267	0.002860	0.005597	0.004555	0.003430	0.002890	0.005760	0.004623	0.003604	0.002913	0.006012	0.004586	0.003542	0.002826	0.005845	0.004511	0.003618	0.002782	0.006160	0.004707	0.003612	0.002733	0.006142	0.004791	0.003555	0.002756	0.006112	0.004711	0.003480	0.002711	0.006088	0.004655	0.003491	0.002652	0.006120	0.004669	0.003422	0.002599	0.006095	0.004978	0.003392	0.002617	0.006170	0.005035	0.003456	0.002616	0.006189	0.005086	0.003646	0.002702	0.006210	0.004992	0.003617	0.002796	0.006197	0.005208	0.003743	0.002857	0.006325	0.005240	0.003668	0.002757	0.006254	0.005181	0.003704	0.002817	0.006398	0.005124	0.003754	0.002832	0.006620	0.005147	0.003826	0.002833	
398 1
-0.011111	-0.011111	-0.011111	-0.011111	-0.011111	-0.011111	-0.011111	-0.011111	-0.011111	-0.011111	-0.011111	-0.011111	-0.011111	-0.011111	-0.011111	-0.011111	-0.011111	-0.011111	-0.011111	-0.011111	-0.011111	-0.011111	-0.011111	-0.011111	-0.011111	-0.011111	-0.011111	-0.011111	-0.011111	-0.011111	-0.011111	-0.011111	-0.011111	-0.011111	-0.011111	-0.011111	-0.011111	-0.011111	-0.011111	-0.011111	-0.011111	-0.011111	-0.011111	-0.011111	-0.011111	-0.011111	-0.011111	-0.011111	-0.011111	-0.011111	-0.011111	-0.011111	-0.011111	-0.011111	-0.011111	-0.011111	-0.011111	-0.011111	-0.011111	-0.011111	-0.011111	-0.011111	-0.011111	-0.011111	-0.011111	-0.011111	-0.011111	-0.011111	-0.011111	-0.011111	-0.011111	-0.011111	-0.011111	-0.011111	-0.011111	-0.011111	-0.011111	-0.011111	-0.011111	-0.011111	-0.011111	-0.011111	-0.011111	-0.011111	-0.011111	-0.011111	-0.011111	-0.011111	-0.011111	-0.011111	-0.011111	-0.011111	-0.011111	-0.011111	-0.011111	-0.011111	-0.011111	-0.011111	-0.011111	-0.011111	-0.011111	-0.011111	-0.011111	-0.023577	-0.022367	-0.022229	-0.022219	-0.022220	-0.029548	-0.032763	-0.033262	-0.045922	-0.057402	-0.055866	-0.063843	-0.066717	-0.078277	-0.089729	-0.100537	-0.114861	-0.122852	-0.145716	-0.154290	-0.166142	-0.178786	-0.185411	-0.198960	-0.212519	-0.228578	-0.240026	-0.257159	-0.279391	-0.290935	-0.312162	-0.326748	-0.342327	-0.360923	-0.379119	-0.400068	-0.426479	-0.447904	-0.469101	-0.492078	-0.510423	-0.533363	-0.560942	-0.577196	-0.595304	-0.604776	-0.614731	-0.628864	-0.643982	-0.663220	-0.676117	-0.688945	-0.701077	-0.712366	-0.712121	-0.722595	-0.723186	-0.733723	-0.733465	-0.745549	-0.744526	-0.756213	-0.755535	-0.755524	-0.761941	-0.766050	-0.766550	-0.766647	-0.768350	-0.777997	-0.777859	-0.777802	-0.786022	-0.788388	-0.788778	-0.788867	-0.788885	-0.788888	-0.788889	-0.788889	-0.788889	-0.788889	-0.788889	-0.788889	-0.788889	-0.788889	-0.793472	-0.799399	-0.799907	-0.799989	-0.800000	-0.800000	-0.800000	-0.800000	-0.800000	-0.800000	-0.800000	-0.807327	-0.810541	-0.810995	-0.811090	-0.811108	-0.811111	-0.811111	-0.811111	-0.811111	-0.811111	-0.811111	-0.811111	-0.811111	-0.811111	-0.811111	-0.811111	-0.811111	-0.811111	-0.811111	-0.809785	-0.799612	-0.799948	-0.789358	-0.782705	-0.776366	-0.765533	-0.753923	-0.742484	-0.732864	-0.717419	-0.708369	-0.700191	-0.686973	-0.673264	-0.659464	-0.643959	-0.616305	-0.598352	-0.559925	-0.551707	-0.531472	-0.508453	-0.490518	-0.477960	-0.461253	-0.442990	-0.350832	-0.351622	-0.349143	-0.346207	-0.343948	-0.321074	-0.307381	-0.296409	-0.281873	-0.266492	-0.242625	-0.220746	-0.219008	-0.204074	-0.189117	-0.170142	-0.166994	-0.154114	-0.143339	-0.135205	-0.123828	-0.111962	-0.098841	-0.093790	-0.084724	-0.077059	-0.066314	-0.054761	-0.053820	-0.044566	-0.035306	-0.033631	-0.020935	-0.019794	-0.011393	-0.011121	-0.011102	-0.011107	-0.011110	-0.011111	-0.011111	-0.011111	-0.011111	-0.011111	-0.011111	-0.011111	-0.011111	-0.011111	-0.011111	-0.011111	-0.011111	-0.011111	-0.011111	-0.011111	-0.011111	-0.011111	-0.011111	-0.011111	-0.011111	-0.011111	-0.011111	-0.011111	-0.011111	-0.011111	-0.011111	-0.011111	-0.011111	-0.011111	-0.011111	-0.011111	-0.011111	-0.011111	-0.011111	-0.011111	-0.011111	-0.011111	-0.011111	-0.011111	-0.011111	-0.011111	-0.011111	-0.011111	-0.011111	-0.011111	-0.011111	-0.011111	-0.011111	-0.011111	-0.011111	-0.011111	-0.011111	-0.011111	-0.011111	-0.011111	-0.011111	-0.011111	-0.011111	-0.011111	-0.011111	-0.011111	-0.011111	-0.011111	-0.011111	-0.011111	-0.011111	-0.011111	-0.011111	-0.011111	-0.011111	-0.011111	-0.011111	-0.011111	-0.011111	-0.011111	-0.011111	-0.011111	-0.011111	-0.011111	-0.011111	-0.011111	-0.011111	-0.011111	-0.011111	-0.011111	-0.011111	-0.011111	-0.011111	-0.011111	-0.011111	-0.011111	-0.011111	-0.011111	-0.011111	-0.011111	-0.011111	-0.011111	-0.011111	-0.011111	-0.011111	-0.011111	-0.011111	-0.011111	-0.011111	-0.011111	-0.011111	-0.011111	-0.011111	-0.011111	-0.011111	-0.011111	-0.011111	-0.011111	
401 4
0.006620	0.005147	0.003826	0.002833	0.006650	0.005124	0.003913	0.002881	0.006747	0.005097	0.003851	0.002961	0.006654	0.005112	0.003662	0.002935	0.006666	0.005067	0.003673	0.002966	0.006751	0.005115	0.003758	0.002973	0.006551	0.004999	0.003830	0.002997	0.006521	0.004933	0.003913	0.002940	0.006516	0.004979	0.004125	0.002936	0.006557	0.004950	0.004103	0.002941	0.006522	0.005023	0.004196	0.002955	0.006545	0.004746	0.004347	0.002954	0.006429	0.004816	0.004359	0.002987	0.006308	0.004788	0.004308	0.002898	0.006325	0.004775	0.004311	0.002825	0.006373	0.004615	0.004672	0.002824	0.006204	0.004471	0.004613	0.002823	0.006332	0.004607	0.004587	0.002769	0.006312	0.004655	0.004548	0.002763	0.006234	0.004700	0.004492	0.002811	0.006165	0.004845	0.004449	0.002794	0.006230	0.004819	0.004416	0.002727	0.006359	0.004829	0.004421	0.002776	0.006218	0.004877	0.004426	0.002783	0.006190	0.004959	0.004363	0.002806	0.006190	0.004931	0.004215	0.002799	0.006206	0.005062	0.004144	0.002808	0.006232	0.004962	0.004042	0.002794	0.006214	0.004957	0.003985	0.002825	0.006538	0.004858	0.004166	0.002811	0.006473	0.004843	0.003982	0.002794	0.006499	0.004882	0.003877	0.002746	0.006618	0.004770	0.003865	0.002716	0.006548	0.004846	0.003849	0.002699	0.006566	0.004915	0.003410	0.002690	0.006591	0.004922	0.003477	0.002771	0.006429	0.004740	0.003515	0.002737	0.006364	0.004794	0.003495	0.002702	0.006464	0.004873	0.003482	0.002645	0.006649	0.004774	0.003556	0.002672	0.006479	0.004850	0.003560	0.002788	0.006388	0.004973	0.003538	0.002774	0.006399	0.004824	0.003599	0.002813	0.006391	0.004766	0.003661	0.002789	0.006714	0.004810	0.003710	0.002771	0.006712	0.004605	0.003811	0.002778	0.006699	0.004636	0.003785	0.002789	0.006773	0.004613	0.003851	0.002789	0.006696	0.004683	0.003759	0.002855	0.006801	0.004733	0.003689	0.003060	0.006882	0.004725	0.003656	0.003131	0.006797	0.004725	0.003618	0.003283	0.006867	0.004774	0.003542	0.003496	0.007307	0.004648	0.003476	0.003600	0.007361	0.004797	0.003443	0.003649	0.007399	0.004825	0.003375	0.003632	0.007443	0.004915	0.003403	0.003662	0.007331	0.004771	0.003407	0.003640	0.007058	0.004689	0.003335	0.003621	0.007024	0.004762	0.003451	0.003544	0.006980	0.004543	0.003531	0.003489	0.006835	0.004595	0.003499	0.003437	0.006788	0.004649	0.003365	0.003447	0.006540	0.004771	0.003291	0.003458	0.006476	0.004864	0.003180	0.003474	0.006475	0.004948	0.003134	0.003469	0.006533	0.004937	0.003070	0.003475	0.006326	0.004956	0.003154	0.003508	0.006234	0.004950	0.003122	0.003349	0.006202	0.005085	0.003135	0.003321	0.006180	0.005358	0.003138	0.003278	0.006198	0.005347	0.003143	0.002930	0.005561	0.005315	0.003193	0.002810	0.005521	0.005273	0.003132	0.002685	0.005475	0.005180	0.003099	0.002693	0.005622	0.005035	0.003123	0.002665	0.005755	0.005084	0.003223	0.002767	0.005819	0.005190	0.003255	0.002944	0.006021	0.005227	0.003168	0.002976	0.006055	0.005205	0.003096	0.003072	0.006099	0.005342	0.003098	0.003078	0.006191	0.005324	0.003078	0.003052	0.006377	0.005136	0.003067	0.003069	0.006430	0.005127	0.003086	0.003088	0.006497	0.005482	0.003063	0.003090	0.006387	0.005498	0.003048	0.003079	0.006393	0.005570	0.002857	0.003027	0.006680	0.005589	0.002901	0.002970	0.007480	0.005533	0.002949	0.002985	0.007475	0.005219	0.003244	0.002997	0.008390	0.005291	0.003276	0.003014	0.009522	0.005330	0.003379	0.003013	0.010059	0.005432	0.003541	0.003096	0.010918	0.005468	0.003553	0.003077	0.011811	0.005885	0.003607	0.003134	0.012143	0.005951	0.003645	0.003138	0.012752	0.005917	0.003695	0.003028	0.012931	0.005947	0.003759	0.003008	0.013441	0.006110	0.003641	0.002926	0.013897	0.006079	0.003703	0.002911	0.023883	0.006146	0.003748	0.002912	0.026793	0.006239	0.003852	0.002920	0.028929	0.006268	0.004042	0.002934	0.031021	0.005920	0.004056	0.002937	0.031958	0.006040	0.004108	0.002903	0.033422	0.007417	0.004217	0.002946	0.033436	0.008741	0.004476	0.003006	0.033249	0.010954	0.004477	0.004519	0.033498	0.011884	0.004328	0.008465	0.035493	0.012700	0.004384	0.008869	0.036881	0.015560	0.004795	0.009402	0.037438	0.017129	0.005167	0.009763	0.037795	0.021335	0.006496	0.010372	0.039394	0.021860	0.007508	0.012174	0.039632	0.026519	0.007683	0.013076	0.040784	0.029967	0.008047	0.013173	0.041174	0.030583	0.008182	0.013290	0.041499	0.031155	0.008295	0.013392	0.041715	0.032087	0.008343	0.014102	0.041047	0.034226	0.008621	0.015017	0.038267	0.035312	0.009077	0.016113	0.040517	0.036377	0.010536	0.017384	0.039526	0.039134	0.010624	0.020378	0.039627	0.039458	0.010719	0.023232	0.038564	0.043563	0.010884	0.024218	0.042080	0.047094	0.010976	0.024913	0.044531	0.048772	0.011240	0.026679	0.045118	0.052138	0.011571	0.027566	0.044175	0.052166	0.011809	0.028975	0.042742	0.053824	0.012190	0.030286	0.042296	0.055321	0.012189	0.031400	0.042616	0.056920	0.012289	0.031736	0.042127	0.068342	0.012163	0.033597	0.042946	0.067966	0.012329	0.037023	0.042169	0.072241	0.012785	0.040713	0.041897	0.074096	0.013166	0.043547	0.041813	0.085342	0.014421	0.047469	0.042960	0.090610	0.016179	0.049636	0.040489	0.106805	0.016346	0.052729	0.041425	0.111223	0.017930	0.056131	0.040142	0.112676	0.017871	0.067538	0.041298	0.121324	0.021050	0.076253	0.042046	0.125993	0.021529	0.082953	0.042520	0.138213	0.022160	0.101119	0.041510	0.152848	0.023071	0.103012	0.040185	0.154351	0.023097	0.111970	0.042787	0.153934	0.025226	0.116580	0.047032	0.160710	0.026885	0.125314	0.049534	0.173605	0.028901	0.131166	0.050914	0.177942	0.029440	0.141214	0.053428	0.178181	0.029880	0.142958	0.053426	0.176082	0.030036	0.146786	0.059530	0.179568	0.032594	0.161445	0.062466	0.187277	0.034040	0.171796	0.062962	0.211770	0.034808	0.184063	0.066558	0.218940	0.035231	0.199485	0.075947	0.224428	0.036579	0.222110	0.080093	0.222741	0.037655	0.242588	0.083399	0.226722	0.038314	0.257244	0.085425	0.237870	0.040542	0.271915	0.087545	0.243453	0.043477	0.280977	0.093902	0.245540	0.043841	0.305142	0.096126	0.247898	0.044026	0.314885	0.099261	0.242773	0.044386	0.319940	0.101760	0.243639	0.046428	0.345584	0.108736	0.250795	0.051410	0.353132	0.110819	0.249435	0.055200	0.392798	0.116724	0.250393	0.055577	0.426850	0.117471	0.251412	0.056593	0.469709	0.121916	0.258997	0.057352	0.482055	0.124159	0.269322	0.057461	0.501616	0.125856	0.284978	0.057200	0.516983	0.125917	0.284696	0.057405	0.529127	0.130371	0.266366	0.060740	0.561731	0.134280	0.260094	0.061826	0.575266	0.135704	0.254169	0.061536	0.584324	0.138634	0.263478	0.062357	0.586600	0.138100	0.265157	0.061848	0.585174	0.142860	0.259188	0.061534	0.584944	0.150865	0.255213	0.060439	0.582416	0.147861	0.251781	0.060308	0.571193	0.146852	0.252017	0.060579	0.568293	0.147428	0.253484	0.061005	0.573070	0.150527	0.253684	0.061508	0.570483	0.150674	0.251325	0.062365	0.583970	0.154100	0.260184	0.062802	0.624475	0.152249	0.258730	0.061744	0.591852	0.155609	0.261562	0.062499	0.566191	0.155690	0.255074	0.062691	0.575094	0.156938	0.268884	0.063681	0.572080	0.157799	0.257589	0.065695	0.563646	0.156217	0.251691	0.065190	0.555800	0.156404	0.250724	0.063094	0.531937	0.152181	0.256935	0.064646	0.517353	0.150616	0.257900	0.065195	0.503088	0.145897	0.250073	0.064369	0.507016	0.146299	0.243565	0.064214	0.509402	0.143289	0.240206	0.063862	0.504775	0.138323	0.242575	0.062727	0.506311	0.139933	0.244558	0.065620	0.513340	0.143671	0.243939	0.071322	0.514737	0.143435	0.246622	0.075642	0.513069	0.140225	0.253475	0.078859	0.519602	0.145783	0.258920	0.076906	0.528738	0.147163	0.253074	0.074759	0.467933	0.163762	0.255873	0.076572	0.482654	0.160296	0.246075	0.077494	0.478667	0.162692	0.247275	0.078000	0.463500	0.160410	0.229027	0.078844	0.476939	0.159457	0.227789	0.077589	0.498097	0.161969	0.227989	0.077586	0.487013	0.163567	0.231769	0.076946	0.480443	0.166585	0.229139	0.075911	0.476344	0.165696	0.229735	0.076557	0.479057	0.162966	0.226900	0.076643	0.457424	0.163245	0.225352	0.076527	0.447089	0.162732	0.220158	0.076541	0.444259	0.162447	0.216907	0.076109	0.440587	0.158348	0.213204	0.073448	0.431384	0.154196	0.208612	0.068179	0.416290	0.153136	0.206067	0.063821	0.412070	0.150362	0.190474	0.057200	0.392692	0.141119	0.173861	0.055721	0.349872	0.135142	0.170954	0.053403	0.339530	0.110970	0.161107	0.047325	0.315237	0.107236	0.153991	0.044007	0.296419	0.099014	0.148025	0.040738	0.282922	0.097083	0.139687	0.037102	0.208208	0.093071	0.127799	0.035848	0.144820	0.084720	0.121732	0.034497	0.135636	0.077950	0.111133	0.032994	0.129519	0.069570	0.100502	0.031984	0.099376	0.065735	0.087322	0.027551	0.052259	0.064759	0.084122	0.025744	0.052006	0.063069	0.077951	0.028565	0.050362	0.059665	0.075900	0.029959	0.048689	0.051504	0.073526	0.031649	0.025073	0.051053	0.070765	0.038864	0.021147	0.050026	0.067099	0.039294	0.013621	0.049629	0.042224	0.039155	0.013400	0.046666	0.042176	0.039626	0.013219	0.045302	0.041630	0.042088	0.012877	0.042321	0.037633	0.042960	0.012706	0.040173	0.034425	0.048776	0.012552	0.040371	0.032830	0.051226	0.011923	0.037495	0.034604	0.056057	0.004825	0.036801	0.040682	0.058895	0.004883	0.037801	0.043578	0.061407	0.004460	0.038802	0.046300	0.072013	0.004402	0.040537	0.049233	0.073910	0.004504	0.040373	0.051349	0.076798	0.004368	0.039778	0.051998	0.076668	0.004221	0.039267	0.052265	0.076842	0.004244	0.037291	0.052594	0.076022	0.004216	0.034973	0.052654	0.076341	0.004148	0.034060	0.058972	0.082578	0.004079	0.034076	0.065419	0.091714	0.004350	0.033258	0.069635	0.097175	0.004287	0.032832	0.071870	0.098230	0.004400	0.031958	0.072359	0.099313	0.004340	0.031927	0.072242	0.098583	0.004302	0.031473	0.072143	0.098442	0.004288	0.030945	0.072076	0.097605	0.004275	0.030634	0.072117	0.098214	0.004254	0.028926	0.072298	0.096511	0.004290	0.028654	0.069263	0.097973	0.004192	0.027733	0.068008	0.104050	0.004303	0.026169	0.068355	0.097363	0.004456	0.023771	0.069534	0.095931	0.004355	0.023210	0.067892	0.093269	0.004377	0.023420	0.066803	0.094867	0.004390	0.023197	0.066620	0.094783	0.004390	0.022697	0.066208	0.094800	0.004406	0.022643	0.065350	0.094553	0.004479	0.022517	0.060192	0.091168	0.004445	0.021460	0.054519	0.079445	0.004091	0.022165	0.047421	0.072272	0.004185	0.021900	0.042687	0.070123	0.004047	0.022105	0.041105	0.068984	0.004042	0.021284	0.040737	0.068770	0.004058	0.020569	0.040279	0.068698	0.004034	0.020151	0.039794	0.066814	0.004062	0.019444	0.039461	0.064328	0.004044	0.018884	0.037182	0.061484	0.003904	0.018268	0.036921	0.058866	0.003890	0.016851	0.035384	0.043805	0.003838	0.015623	0.029215	0.042175	0.003416	0.015134	0.022900	0.041295	0.003336	0.013937	0.014835	0.039577	0.003284	0.013469	0.015096	0.034930	0.003193	0.013255	0.014735	0.035383	0.003145	0.013164	0.014617	0.035270	0.003089	0.012830	0.014356	0.033885	0.002971	0.012160	0.013835	0.029671	0.002956	0.011119	0.012552	0.028894	0.002917	0.009222	0.010214	0.024441	0.002784	0.008103	0.007717	0.020907	0.002683	0.006640	0.007130	0.020080	0.002692	0.006601	0.006883	0.018971	0.002679	0.006740	0.006883	0.017114	0.002681	0.007776	0.006915	0.016739	0.002616	0.008043	0.006993	0.016502	0.002569	0.008096	0.006314	0.016437	0.002558	0.008276	0.006323	0.016168	0.002599	0.008185	0.006079	0.014895	0.002523	0.007956	0.005741	0.012826	0.002559	0.007955	0.005742	0.012182	0.002586	0.007747	0.005574	0.011372	0.002594	0.007724	0.005586	0.010797	0.002666	0.007714	0.005633	0.009228	0.002664	0.007726	0.005600	0.007597	0.002657	0.007636	0.005620	0.006300	0.002591	0.007534	0.005614	0.005606	0.002578	0.007563	0.005590	0.005100	0.002568	0.007561	0.005570	0.005058	0.002569	0.007611	0.005543	0.004910	0.002653	0.007640	0.005597	0.004762	0.002657	0.007777	0.005549	0.004888	0.002622	0.007875	0.005587	0.004912	0.002647	0.007097	0.005548	0.004307	0.002647	0.006323	0.005472	0.003896	0.002676	0.006313	0.005495	0.003777	0.002648	0.006408	0.005456	0.003780	0.002668	0.006340	0.005232	0.003540	0.002650	0.006451	0.004747	0.003429	0.002618	0.006422	0.004500	0.003350	0.002568	0.006600	0.004574	0.003434	0.002484	0.006565	0.004605	0.003425	0.002446	0.006676	0.004820	0.003385	0.002375	0.006901	0.004858	0.003359	0.002379	0.007088	0.004795	0.003323	0.002400	0.007129	0.004672	0.003281	0.002453	0.007213	0.004784	0.003281	0.002538	0.007211	0.004960	0.003327	0.002553	0.007145	0.004975	0.003489	0.002488	0.007228	0.005194	0.003468	0.002468	0.007131	0.005188	0.003441	0.002507	0.006819	0.005182	0.003339	0.002478	0.007034	0.005266	0.003388	0.002449	0.007200	0.005185	0.003417	0.002421	0.007370	0.005225	0.003367	0.002457	0.007098	0.005196	0.003395	0.002482	0.007137	0.005208	0.003447	0.002553	0.007109	0.005216	0.003434	0.002582	0.007007	0.005311	0.003452	0.002579	0.007011	0.005344	0.003525	0.002607	0.006930	0.005293	0.003544	0.002655	0.007033	0.005123	0.003574	0.002746	0.006667	0.005188	0.003579	0.002830	0.006408	0.005161	0.003574	0.002830	0.006530	0.005229	0.003578	0.002853	0.006476	0.005199	0.003589	0.002874	0.006623	0.004996	0.003668	0.002831	0.006602	0.004907	0.003547	0.002870	0.006537	0.004805	0.003553	0.002982	0.006561	0.004875	0.003540	0.002967	0.006585	0.004821	0.003417	0.002979	0.006479	0.004849	0.003408	0.002978	0.006369	0.004789	0.003382	0.002976	0.006255	0.004945	0.003305	0.003009	0.006141	0.005028	0.003371	0.002984	0.006175	0.005002	0.003683	0.002937	0.006113	0.005006	0.003764	0.002963	0.006169	0.004832	0.004029	0.002993	0.006171	0.004649	0.004051	0.002989	0.006223	0.004675	0.004050	0.002941	0.006233	0.004653	0.004036	0.002920	0.006309	0.004609	0.004020	0.002850	0.006370	0.004811	0.003996	0.002827	0.006443	0.004867	0.004053	0.002848	0.006555	0.004875	0.004052	0.002761	0.006504	0.004889	0.003971	0.002916	0.006460	0.004925	0.003996	0.002952	0.006502	0.004943	0.003947	0.002922	0.006517	0.004814	0.003928	0.002855	0.006473	0.004763	0.003964	0.002843	0.006522	0.004638	0.003962	0.002875	0.006479	0.004722	0.004048	0.002891	0.006480	0.004626	0.004309	0.002866	0.006531	0.004445	0.004397	0.002872	0.006432	0.004550	0.004118	0.002844	0.006496	0.004644	0.004003	0.002830	0.006516	0.004855	0.003898	0.002768	0.006514	0.004981	0.003631	0.002830	0.006441	0.005142	0.003650	0.002831	0.006325	0.005182	0.003612	0.002794	0.006272	0.005095	0.003667	0.002878	0.006220	0.005187	0.003732	0.002875	0.006161	0.004983	0.003612	0.002858	0.005893	0.004977	0.003622	0.002870	0.005774	0.005113	0.003605	0.002717	0.005761	0.005055	0.003598	0.002650	0.005966	0.005034	0.003640	0.002606	0.005930	0.005094	0.003679	0.002688	0.005977	0.005083	0.003755	0.002764	0.006115	0.005194	0.003809	0.002733	0.006157	0.005259	0.003793	0.002823	0.006070	0.005171	0.003455	0.002831	0.005964	0.005146	0.003358	0.002872	0.006088	0.005080	0.003365	0.002941	0.006019	0.005009	0.003392	0.002977	
401 1
-0.011111	-0.011111	-0.011111	-0.011111	-0.011111	-0.011111	-0.011111	-0.011111	-0.011111	-0.011111	-0.011111	-0.011111	-0.011111	-0.011111	-0.011111	-0.011111	-0.011111	-0.011111	-0.011111	-0.011111	-0.011111	-0.011111	-0.011111	-0.011111	-0.011111	-0.011111	-0.011111	-0.011111	-0.011111	-0.011111	-0.011111	-0.011111	-0.011111	-0.011111	-0.011111	-0.011111	-0.011111	-0.011111	-0.011111	-0.011111	-0.011111	-0.011111	-0.011111	-0.011111	-0.011111	-0.011111	-0.011111	-0.011111	-0.011111	-0.011111	-0.011111	-0.011111	-0.011111	-0.011111	-0.011111	-0.011111	-0.011111	-0.011111	-0.011111	-0.011111	-0.011111	-0.011111	-0.011111	-0.011111	-0.011111	-0.011111	-0.011111	-0.011111	-0.011111	-0.011111	-0.011111	-0.011111	-0.011111	-0.011111	-0.011111	-0.011111	-0.011111	-0.011111	-0.011111	-0.011111	-0.011111	-0.011111	-0.011111	-0.011111	-0.011111	-0.011111	-0.011111	-0.011111	-0.011111	-0.011111	-0.011111	-0.011111	-0.011111	-0.011111	-0.011111	-0.011111	-0.011111	-0.011111	-0.011111	-0.011111	-0.011111	-0.011111	-0.011111	-0.011111	-0.011111	-0.011111	-0.011111	-0.011111	-0.011111	-0.011111	-0.011111	-0.011111	-0.011111	-0.011111	-0.011111	-0.014389	-0.022135	-0.022235	-0.022232	-0.032138	-0.033017	-0.033248	-0.043949	-0.044773	-0.056097	-0.058002	-0.077679	-0.080648	-0.088421	-0.101305	-0.115765	-0.125745	-0.138266	-0.162047	-0.166801	-0.179395	-0.193545	-0.206713	-0.223195	-0.242992	-0.256013	-0.285680	-0.293523	-0.319961	-0.346404	-0.368897	-0.400145	-0.422429	-0.460440	-0.475445	-0.516935	-0.546895	-0.570359	-0.602272	-0.626347	-0.645114	-0.665075	-0.684375	-0.701111	-0.712777	-0.722860	-0.734716	-0.746167	-0.748830	-0.755811	-0.767246	-0.777469	-0.778835	-0.788946	-0.789793	-0.800379	-0.800130	-0.802334	-0.810834	-0.811107	-0.811122	-0.811116	-0.811112	-0.811111	-0.811111	-0.811111	-0.811193	-0.822866	-0.822288	-0.822222	-0.822219	-0.822221	-0.822222	-0.822222	-0.822222	-0.822222	-0.822222	-0.822222	-0.822222	-0.822222	-0.822222	-0.822222	-0.822222	-0.822228	-0.834936	-0.833574	-0.833367	-0.833336	-0.833333	-0.833333	-0.833333	-0.833333	-0.833333	-0.833333	-0.833333	-0.833333	-0.833333	-0.833333	-0.833333	-0.833333	-0.833333	-0.833333	-0.833333	-0.832060	-0.821814	-0.822108	-0.815795	-0.811718	-0.803898	-0.793844	-0.782734	-0.769132	-0.754671	-0.734393	-0.721685	-0.709835	-0.690909	-0.675206	-0.664844	-0.643442	-0.634641	-0.619394	-0.601420	-0.585639	-0.560887	-0.540563	-0.526931	-0.493035	-0.480392	-0.464426	-0.436222	-0.419574	-0.398447	-0.379412	-0.367855	-0.354544	-0.335252	-0.319920	-0.298430	-0.280806	-0.262760	-0.244584	-0.236533	-0.218167	-0.199117	-0.188580	-0.177236	-0.166251	-0.161073	-0.150482	-0.139923	-0.133932	-0.126095	-0.119679	-0.104072	-0.096890	-0.088659	-0.069572	-0.066958	-0.054464	-0.044770	-0.036536	-0.032129	-0.022436	-0.022210	-0.010028	-0.011033	-0.011120	-0.011118	-0.011113	-0.011112	-0.011111	-0.011111	-0.011111	-0.011111	-0.011111	-0.011111	-0.011111	-0.011111	-0.011111	-0.011111	-0.011111	-0.011111	-0.011111	-0.011111	-0.011111	-0.011111	-0.011111	-0.011111	-0.011111	-0.011111	-0.011111	-0.011111	-0.011111	-0.011111	-0.011111	-0.011111	-0.011111	-0.011111	-0.011111	-0.011111	-0.011111	-0.011111	-0.011111	-0.011111	-0.011111	-0.011111	-0.011111	-0.011111	-0.011111	-0.011111	-0.011111	-0.011111	-0.011111	-0.011111	-0.011111	-0.011111	-0.011111	-0.011111	-0.011111	-0.011111	-0.011111	-0.011111	-0.011111	-0.011111	-0.011111	-0.011111	-0.011111	-0.011111	-0.011111	-0.011111	-0.011111	-0.011111	-0.011111	-0.011111	-0.011111	-0.011111	-0.011111	-0.011111	-0.011111	-0.011111	-0.011111	-0.011111	-0.011111	-0.011111	-0.011111	-0.011111	-0.011111	-0.011111	-0.011111	-0.011111	-0.011111	-0.011111	-0.011111	-0.011111	-0.011111	-0.011111	-0.011111	-0.011111	-0.011111	-0.011111	-0.011111	-0.011111	-0.011111	-0.011111	-0.011111	-0.011111	-0.011111	-0.011111	-0.011111	-0.011111	-0.011111	-0.011111	-0.011111	-0.011111	-0.011111	-0.011111	-0.011111	-0.011111	-0.011111	-0.011111	-0.011111	-0.011111	-0.011111	-0.011111	-0.011111	
417 4
0.006019	0.005009	0.003392	0.002977	0.006068	0.004896	0.003328	0.003011	0.005869	0.004860	0.003365	0.003088	0.006131	0.004819	0.003336	0.003149	0.006136	0.004639	0.003385	0.003169	0.006051	0.004828	0.003363	0.003113	0.006053	0.004675	0.003310	0.003115	0.006294	0.004718	0.003404	0.003109	0.006303	0.004725	0.003406	0.003137	0.006323	0.004751	0.003470	0.003164	0.006361	0.004719	0.003463	0.003313	0.006258	0.004741	0.003507	0.003291	0.006318	0.004642	0.003500	0.003287	0.006373	0.004732	0.003389	0.003225	0.006190	0.004826	0.003395	0.003249	0.006091	0.004761	0.003334	0.003172	0.006133	0.004810	0.003353	0.003137	0.006241	0.004857	0.003458	0.003073	0.006249	0.005022	0.003509	0.003030	0.006272	0.005050	0.003500	0.003044	0.006118	0.005197	0.003772	0.003010	0.006260	0.005158	0.003752	0.002918	0.006167	0.005202	0.003999	0.002828	0.006191	0.005191	0.003981	0.002822	0.006265	0.005134	0.004013	0.002765	0.006293	0.005137	0.003979	0.002816	0.006114	0.005293	0.003948	0.002864	0.006082	0.005335	0.003954	0.002860	0.006048	0.005301	0.003918	0.002885	0.006101	0.005367	0.003935	0.002691	0.005934	0.005453	0.003914	0.002732	0.005859	0.005465	0.003927	0.002751	0.005763	0.005437	0.003939	0.002753	0.005715	0.005349	0.003896	0.002749	0.005747	0.005231	0.003886	0.002776	0.005744	0.005190	0.003880	0.002791	0.005564	0.005229	0.003837	0.002795	0.005505	0.005172	0.003706	0.002810	0.005588	0.005273	0.003804	0.002703	0.005751	0.005194	0.003620	0.002725	0.005712	0.005252	0.003616	0.002769	0.005570	0.005233	0.003368	0.002750	0.005397	0.005235	0.003338	0.002942	0.005467	0.005295	0.003236	0.003037	0.005405	0.005485	0.003286	0.003052	0.005435	0.005471	0.003368	0.003086	0.005538	0.005568	0.003393	0.003108	0.005571	0.005472	0.003414	0.003050	0.005618	0.005550	0.003346	0.003032	0.005662	0.005502	0.003242	0.003019	0.005714	0.005510	0.003353	0.003033	0.005644	0.005533	0.003329	0.002939	0.005704	0.005430	0.003358	0.002964	0.005921	0.005481	0.003382	0.002952	0.005887	0.005686	0.003347	0.002964	0.006095	0.005891	0.003359	0.002952	0.006032	0.005784	0.003368	0.002957	0.005910	0.005629	0.003367	0.002955	0.005819	0.005514	0.003162	0.002979	0.005842	0.005539	0.003213	0.002979	0.005790	0.005552	0.003233	0.002964	0.005810	0.005554	0.003346	0.002845	0.005805	0.005809	0.003372	0.002728	0.005772	0.005969	0.003490	0.002694	0.005744	0.005729	0.003365	0.002527	0.005610	0.005688	0.003320	0.002497	0.005533	0.005907	0.003358	0.002508	0.005449	0.005930	0.003433	0.002530	0.005373	0.005842	0.003495	0.002576	0.005344	0.005940	0.003500	0.002610	0.005468	0.005974	0.003461	0.002613	0.005573	0.006064	0.003439	0.002632	0.005430	0.006186	0.003416	0.002782	0.005542	0.006118	0.003542	0.002795	0.005295	0.005871	0.003596	0.002893	0.005666	0.006011	0.003734	0.002883	0.005919	0.006076	0.003736	0.002900	0.005916	0.006126	0.003758	0.002930	0.006046	0.006129	0.003738	0.002927	0.006236	0.006150	0.003742	0.002973	0.006321	0.006144	0.003682	0.002975	0.006808	0.005748	0.003742	0.002964	0.006836	0.005754	0.003752	0.002980	0.006882	0.005867	0.003758	0.002978	0.007074	0.005922	0.003817	0.002991	0.007275	0.005682	0.003859	0.003017	0.007317	0.005567	0.003813	0.003065	0.007336	0.005606	0.003786	0.003030	0.007301	0.005452	0.003706	0.003019	0.007273	0.005559	0.003687	0.003052	0.007227	0.006160	0.003736	0.003050	0.007227	0.006087	0.003726	0.003040	0.007205	0.008369	0.003673	0.002988	0.007290	0.009920	0.003895	0.005193	0.007202	0.013487	0.004421	0.005837	0.007141	0.014028	0.004592	0.006817	0.007218	0.014103	0.004676	0.008630	0.007243	0.014474	0.004786	0.010780	0.007513	0.014873	0.004806	0.011094	0.007523	0.015579	0.004886	0.012096	0.007389	0.016740	0.004879	0.012430	0.007907	0.016837	0.004790	0.012483	0.008147	0.017551	0.005155	0.012629	0.008413	0.019788	0.005782	0.012692	0.008727	0.022653	0.005982	0.012717	0.008794	0.023997	0.006396	0.012729	0.010313	0.025868	0.006392	0.013128	0.012190	0.025970	0.006732	0.013708	0.012697	0.027031	0.007145	0.014810	0.014131	0.027218	0.007224	0.016625	0.014394	0.027385	0.007414	0.017435	0.014659	0.027605	0.007472	0.018672	0.014756	0.028276	0.007537	0.020497	0.015004	0.030057	0.007544	0.020932	0.016505	0.036941	0.009307	0.021653	0.017530	0.039234	0.010157	0.024358	0.018909	0.040987	0.011413	0.025200	0.019364	0.042720	0.013194	0.027076	0.019545	0.043231	0.013728	0.031472	0.019647	0.043484	0.013912	0.031994	0.019486	0.043571	0.014073	0.033092	0.019591	0.043848	0.014183	0.033660	0.019609	0.044282	0.014228	0.037173	0.020847	0.044107	0.014433	0.038156	0.021138	0.045208	0.014563	0.038490	0.021259	0.047462	0.014676	0.038698	0.020469	0.049675	0.014728	0.038621	0.021339	0.050577	0.014892	0.038843	0.021960	0.050481	0.014818	0.038238	0.024212	0.053577	0.015191	0.039130	0.027404	0.056890	0.015632	0.039426	0.028238	0.058364	0.015665	0.039906	0.028385	0.061306	0.015698	0.051563	0.028518	0.061759	0.015568	0.055629	0.028262	0.062258	0.015175	0.054653	0.028006	0.068505	0.014742	0.054126	0.028501	0.072958	0.013495	0.054383	0.028513	0.074853	0.013503	0.052030	0.028756	0.076703	0.013432	0.051217	0.029195	0.078938	0.013623	0.051210	0.030510	0.083326	0.013923	0.053358	0.033000	0.093150	0.013650	0.056705	0.033456	0.096466	0.014262	0.066693	0.035657	0.100199	0.014394	0.084106	0.037635	0.107650	0.015395	0.085704	0.040009	0.113232	0.016448	0.086535	0.039513	0.117585	0.016305	0.086645	0.040117	0.121222	0.017266	0.091392	0.041182	0.123623	0.017968	0.110618	0.039341	0.128283	0.018486	0.118501	0.040213	0.140336	0.018655	0.124748	0.041736	0.146797	0.023588	0.126408	0.045050	0.150389	0.025492	0.142517	0.046645	0.152548	0.027332	0.149866	0.060357	0.155265	0.032029	0.160899	0.075610	0.166349	0.038120	0.185385	0.082134	0.174450	0.041331	0.200117	0.087788	0.183158	0.042223	0.222812	0.094360	0.190120	0.042849	0.226617	0.099108	0.202842	0.045752	0.270685	0.105084	0.208076	0.047476	0.379340	0.114607	0.216789	0.049994	0.415148	0.117690	0.218217	0.051584	0.421704	0.125874	0.216290	0.054819	0.502878	0.125815	0.221084	0.057241	0.522839	0.130872	0.223075	0.057879	0.537511	0.135103	0.232938	0.059913	0.550829	0.145887	0.237319	0.061382	0.562011	0.150220	0.249275	0.062745	0.569586	0.154859	0.248747	0.065962	0.595028	0.155824	0.253480	0.068570	0.596681	0.160625	0.274769	0.067943	0.607645	0.164518	0.280754	0.069190	0.625390	0.169960	0.292940	0.069240	0.627184	0.172038	0.295876	0.068198	0.629883	0.179359	0.295219	0.066831	0.667644	0.177799	0.296048	0.067371	0.672931	0.177415	0.315895	0.070220	0.683932	0.178552	0.309489	0.070575	0.696718	0.175322	0.306650	0.069838	0.669746	0.175326	0.302774	0.068566	0.651811	0.174916	0.309199	0.069074	0.649315	0.177271	0.311026	0.068860	0.646955	0.180659	0.308882	0.066482	0.619433	0.181236	0.308896	0.067272	0.633051	0.183569	0.308468	0.067726	0.639873	0.181091	0.316577	0.068419	0.646736	0.177333	0.313106	0.067632	0.641647	0.178440	0.311093	0.067235	0.623793	0.179309	0.306197	0.065449	0.622675	0.181052	0.288047	0.065724	0.626918	0.181752	0.280396	0.065262	0.620681	0.177338	0.269870	0.064679	0.624466	0.173907	0.267481	0.063273	0.625633	0.162331	0.270181	0.062224	0.604640	0.165086	0.269941	0.062083	0.588224	0.165030	0.259879	0.060025	0.599483	0.170393	0.253556	0.057177	0.600134	0.170389	0.251121	0.056865	0.594772	0.172984	0.246588	0.058668	0.601068	0.173871	0.241650	0.057312	0.625196	0.170676	0.239829	0.055765	0.605201	0.171159	0.238473	0.057623	0.588661	0.169817	0.239082	0.057553	0.572426	0.170561	0.239769	0.058649	0.562198	0.165779	0.231706	0.055930	0.537609	0.169079	0.228421	0.056293	0.538587	0.166446	0.222851	0.053757	0.536001	0.169301	0.234209	0.053921	0.573858	0.173909	0.236129	0.052883	0.574569	0.185025	0.250150	0.052270	0.578442	0.185726	0.252864	0.052011	0.562442	0.181230	0.246346	0.057560	0.562512	0.179656	0.238110	0.083861	0.546290	0.178341	0.235923	0.090075	0.541931	0.183533	0.230759	0.094967	0.529540	0.178393	0.230200	0.095319	0.494597	0.176609	0.228339	0.096412	0.481423	0.173499	0.234007	0.095667	0.460087	0.167376	0.230916	0.098229	0.425792	0.165039	0.233453	0.102249	0.398426	0.160005	0.234221	0.102578	0.391209	0.156410	0.233039	0.103017	0.381382	0.154964	0.224199	0.102963	0.373285	0.153104	0.215164	0.102535	0.366206	0.148849	0.211620	0.103231	0.359379	0.145995	0.206862	0.103410	0.361007	0.138996	0.197893	0.105209	0.317947	0.131663	0.186648	0.104930	0.242433	0.105178	0.170491	0.105062	0.217203	0.094969	0.154571	0.105387	0.210624	0.095754	0.152641	0.104824	0.194680	0.095450	0.144192	0.087529	0.187983	0.095958	0.141072	0.080469	0.180120	0.086623	0.133189	0.076788	0.172235	0.077913	0.125865	0.075334	0.166011	0.078747	0.122830	0.074149	0.146493	0.076139	0.105786	0.073278	0.104278	0.073581	0.103238	0.072015	0.099344	0.072469	0.089766	0.067857	0.093520	0.069413	0.082955	0.066433	0.092652	0.071982	0.078651	0.068081	0.087956	0.066570	0.079362	0.069769	0.087340	0.064309	0.077945	0.070599	0.087148	0.062743	0.075143	0.071162	0.085263	0.061684	0.072067	0.081264	0.055849	0.059323	0.068860	0.081062	0.037358	0.058845	0.065481	0.085292	0.033372	0.059014	0.063135	0.085444	0.022335	0.059195	0.062598	0.085194	0.020863	0.056262	0.061946	0.084726	0.019764	0.056894	0.062053	0.083714	0.019661	0.053535	0.065863	0.086609	0.019645	0.052488	0.067014	0.091820	0.019726	0.050918	0.064792	0.093977	0.019750	0.043082	0.064687	0.097617	0.018014	0.041702	0.063748	0.100204	0.016692	0.041568	0.058852	0.100541	0.014002	0.042663	0.057534	0.099889	0.006483	0.044237	0.056475	0.098822	0.006961	0.042076	0.051499	0.098629	0.006963	0.041416	0.047632	0.101892	0.006919	0.041653	0.047601	0.105302	0.006914	0.042044	0.049822	0.106100	0.006912	0.042240	0.051816	0.100968	0.007054	0.041854	0.054203	0.103160	0.007015	0.040833	0.057091	0.103764	0.006169	0.039588	0.057525	0.102444	0.006108	0.038505	0.057707	0.101801	0.005843	0.036977	0.056546	0.112450	0.005897	0.036717	0.056479	0.120891	0.005872	0.036672	0.057664	0.121483	0.005845	0.036824	0.056437	0.119064	0.005674	0.037572	0.056342	0.117206	0.005106	0.037431	0.057974	0.117910	0.005165	0.037364	0.057913	0.115411	0.005140	0.036988	0.057698	0.115631	0.005162	0.035742	0.057750	0.116933	0.005129	0.031962	0.057451	0.116657	0.004936	0.031296	0.057021	0.114937	0.004883	0.030291	0.056735	0.111731	0.004803	0.029376	0.056284	0.106057	0.004692	0.028756	0.054354	0.105465	0.004673	0.029166	0.052454	0.104091	0.004411	0.029115	0.050710	0.099898	0.004372	0.029079	0.044638	0.098111	0.004431	0.029071	0.042838	0.095993	0.004199	0.028815	0.042381	0.096027	0.004198	0.028441	0.042212	0.089145	0.004112	0.026946	0.041594	0.064887	0.004046	0.026112	0.036429	0.063322	0.003927	0.023526	0.028462	0.057883	0.003864	0.020970	0.024833	0.056211	0.003681	0.020875	0.017010	0.048210	0.003481	0.020266	0.013867	0.044942	0.003417	0.020064	0.013830	0.043809	0.003379	0.019386	0.012853	0.040103	0.003314	0.018584	0.012634	0.037832	0.003153	0.016990	0.012644	0.036806	0.003068	0.015580	0.012203	0.034989	0.003039	0.014575	0.011686	0.033749	0.003037	0.012545	0.011552	0.029733	0.002982	0.008825	0.011024	0.029110	0.002981	0.008866	0.009206	0.021806	0.002945	0.008088	0.007428	0.017960	0.002799	0.007148	0.006989	0.016873	0.002810	0.006889	0.006675	0.015547	0.002856	0.006468	0.006528	0.013923	0.002777	0.006468	0.006506	0.012388	0.002790	0.006396	0.006593	0.011620	0.002734	0.006092	0.006405	0.011468	0.002689	0.006084	0.006408	0.011385	0.002674	0.006398	0.006365	0.011336	0.002742	0.006420	0.006451	0.010323	0.002812	0.006452	0.005668	0.006362	0.002806	0.006315	0.005644	0.006414	0.002787	0.006377	0.005530	0.006162	0.002882	0.006415	0.005173	0.005794	0.002894	0.006559	0.005011	0.005475	0.002912	0.006644	0.005029	0.004020	0.002944	0.006749	0.005028	0.003712	0.003003	0.006765	0.004931	0.003635	0.003047	0.006834	0.004905	0.003510	0.003090	0.006929	0.005209	0.003518	0.003118	0.006761	0.005108	0.003500	0.003198	0.007327	0.005134	0.003371	0.003127	0.007541	0.005229	0.003385	0.003155	0.007597	0.005290	0.003351	0.003156	0.007561	0.004864	0.003535	0.003245	0.007494	0.005321	0.003451	0.003260	0.007534	0.005423	0.003459	0.003262	0.007258	0.005489	0.003410	0.003230	0.007207	0.005488	0.003397	0.003187	0.007037	0.005364	0.003438	0.003177	0.007024	0.005337	0.003541	0.003181	0.006921	0.005339	0.003524	0.003103	0.006849	0.005398	0.003629	0.003169	0.006750	0.005349	0.003614	0.003183	0.006639	0.005453	0.003632	0.003188	0.006492	0.006087	0.003752	0.003136	0.006505	0.006057	0.003928	0.003099	0.006487	0.006218	0.003939	0.003127	0.006400	0.006169	0.003951	0.003105	0.006340	0.005985	0.003964	0.002934	0.006034	0.005977	0.004050	0.002940	0.005373	0.005959	0.003990	0.002920	0.005430	0.005800	0.003906	0.002878	0.005501	0.005794	0.003868	0.002751	0.005509	0.005479	0.003866	0.002659	0.005433	0.005488	0.003948	0.002655	0.005603	0.005438	0.003926	0.002601	0.005539	0.005704	0.003948	0.002668	0.005549	0.005851	0.003939	0.002697	0.005604	0.005879	0.003855	0.002778	0.005616	0.005923	0.003852	0.002758	0.005802	0.005824	0.003862	0.002687	0.005804	0.005840	0.003850	0.002612	0.005849	0.005839	0.003822	0.002611	0.005975	0.005108	0.003754	0.002604	0.005989	0.005024	0.003603	0.002589	0.006011	0.004990	0.003535	0.002763	0.005998	0.005150	0.003625	0.002904	0.006110	0.005097	0.003578	0.002960	0.006144	0.005139	0.003537	0.002980	0.006206	0.005233	0.003560	0.002961	0.006445	0.005089	0.003606	0.003059	0.006504	0.005132	0.003574	0.003067	0.006548	0.005036	0.003567	0.003068	0.006723	0.004969	0.003418	0.003129	0.006621	0.005111	0.003545	0.003140	0.006681	0.004725	0.003501	0.003244	0.006722	0.004868	0.003496	0.003251	0.006655	0.004792	0.003472	0.003185	0.006584	0.004873	0.003449	0.003256	0.006522	0.004840	0.003353	0.003315	0.006539	0.004860	0.003372	0.003314	0.006497	0.004952	0.003390	0.003312	0.006443	0.005036	0.003425	0.003344	0.006450	0.005149	0.003327	0.003326	0.006557	0.005156	0.003344	0.003174	0.006568	0.004824	0.003249	0.003068	0.006428	0.004869	0.003205	0.002965	0.006434	0.004841	0.003142	0.002976	0.006323	0.005113	0.003203	0.003037	0.006110	0.005342	0.003277	0.002987	0.005898	0.005372	0.003220	0.002976	0.005734	0.005553	0.003122	0.002951	0.005617	0.005523	0.003161	0.002896	0.005529	0.005504	0.002998	0.002886	0.005662	0.005526	0.003076	0.002714	0.005704	0.005381	0.003206	0.002674	0.005701	0.005330	0.003178	0.002650	0.005805	0.005175	0.003288	0.002647	0.005789	0.005255	0.003479	0.002551	0.005699	0.005318	0.003618	0.002587	0.005654	0.005428	0.003572	0.002577	0.005652	0.005338	0.003620	0.002533	0.005646	0.005231	0.003717	0.002552	0.005594	0.005270	0.003687	0.002593	0.005663	0.005355	0.003737	0.002558	0.005712	0.005369	0.003737	0.002600	0.005571	0.005442	0.003760	0.002755	0.005667	0.005248	0.003749	0.002839	0.005743	0.004985	0.003691	0.002804	0.005742	0.004920	0.003713	0.002840	0.005831	0.004799	0.003703	0.002864	0.005831	0.005024	0.003758	0.002871	0.006079	0.004975	0.003798	0.002862	0.005917	0.004929	0.003805	0.002877	0.005919	0.004966	0.003638	0.002897	0.005901	0.005093	0.003701	0.002967	0.005821	0.005071	0.003676	0.002977	0.005947	0.005018	0.003517	0.002947	0.005948	0.005084	0.003402	0.002924	0.006105	0.004881	0.003384	0.002954	0.006238	0.004851	0.003329	0.003012	0.006150	0.005087	0.003164	0.003111	
417 1
-0.011111	-0.011111	-0.011111	-0.011111	-0.011111	-0.011111	-0.011111	-0.011111	-0.011111	-0.011111	-0.011111	-0.011111	-0.011111	-0.011111	-0.011111	-0.011111	-0.011111	-0.011111	-0.011111	-0.011111	-0.011111	-0.011111	-0.011111	-0.011111	-0.011111	-0.011111	-0.011111	-0.011111	-0.011111	-0.011111	-0.011111	-0.011111	-0.011111	-0.011111	-0.011111	-0.011111	-0.011111	-0.011111	-0.011111	-0.011111	-0.011111	-0.011111	-0.011111	-0.011111	-0.011111	-0.011111	-0.011111	-0.011111	-0.011111	-0.011111	-0.011111	-0.011111	-0.011111	-0.011111	-0.011111	-0.011111	-0.011111	-0.011111	-0.011111	-0.011111	-0.011111	-0.011111	-0.011111	-0.011111	-0.011111	-0.011111	-0.011111	-0.011111	-0.011111	-0.011111	-0.011111	-0.011111	-0.011111	-0.011111	-0.011111	-0.011111	-0.011111	-0.011111	-0.011111	-0.011111	-0.011111	-0.011111	-0.011111	-0.011111	-0.011111	-0.011111	-0.011111	-0.011111	-0.011111	-0.011111	-0.011111	-0.011111	-0.011111	-0.011111	-0.011111	-0.011111	-0.011111	-0.011111	-0.011111	-0.011111	-0.011111	-0.011111	-0.011111	-0.011111	-0.011111	-0.011111	-0.011111	-0.011111	-0.011111	-0.011111	-0.011111	-0.011111	-0.011111	-0.020896	-0.021975	-0.022159	-0.022208	-0.022219	-0.022222	-0.028967	-0.033209	-0.033318	-0.041571	-0.043943	-0.048828	-0.061580	-0.066005	-0.077184	-0.088182	-0.088881	-0.103955	-0.113889	-0.125155	-0.143416	-0.156986	-0.168456	-0.171511	-0.191131	-0.200863	-0.227242	-0.236262	-0.257195	-0.268829	-0.278345	-0.297362	-0.312473	-0.336172	-0.356352	-0.372332	-0.410885	-0.418119	-0.445066	-0.468800	-0.505082	-0.530865	-0.557771	-0.591708	-0.625390	-0.644949	-0.680983	-0.700128	-0.712267	-0.728634	-0.739166	-0.743924	-0.756532	-0.764880	-0.766356	-0.778708	-0.778076	-0.790003	-0.789125	-0.788938	-0.790610	-0.799899	-0.800035	-0.802997	-0.810685	-0.811071	-0.811114	-0.811114	-0.811112	-0.811111	-0.811111	-0.818438	-0.821652	-0.822106	-0.822201	-0.822219	-0.822222	-0.822222	-0.822222	-0.822222	-0.822222	-0.822222	-0.822222	-0.822222	-0.822222	-0.822222	-0.822222	-0.822222	-0.822222	-0.822222	-0.822228	-0.834936	-0.833574	-0.833367	-0.833336	-0.833333	-0.833333	-0.833333	-0.833333	-0.833333	-0.833333	-0.833333	-0.826906	-0.822687	-0.822305	-0.822235	-0.822224	-0.822222	-0.822222	-0.822222	-0.822222	-0.822222	-0.816617	-0.811145	-0.811009	-0.798679	-0.799739	-0.799942	-0.792251	-0.788671	-0.776929	-0.766938	-0.756197	-0.724688	-0.722645	-0.702899	-0.690462	-0.677814	-0.677593	-0.665810	-0.654359	-0.651720	-0.639498	-0.615303	-0.594228	-0.558065	-0.540913	-0.508580	-0.492466	-0.485568	-0.470293	-0.456964	-0.445163	-0.423416	-0.408050	-0.392504	-0.368057	-0.351966	-0.330727	-0.307146	-0.296603	-0.277916	-0.263116	-0.250952	-0.231283	-0.217310	-0.195575	-0.182723	-0.167180	-0.161308	-0.153038	-0.132117	-0.122584	-0.110677	-0.098314	-0.087496	-0.072126	-0.065703	-0.054856	-0.043593	-0.032636	-0.025747	-0.022655	-0.012403	-0.011279	-0.011151	-0.011120	-0.011113	-0.011111	-0.011111	-0.011111	-0.011111	-0.011111	-0.011111	-0.011111	-0.011111	-0.011111	-0.011111	-0.011111	-0.011111	-0.011111	-0.011111	-0.011111	-0.011111	-0.011111	-0.011111	-0.011111	-0.011111	-0.011111	-0.011111	-0.011111	-0.011111	-0.011111	-0.011111	-0.011111	-0.011111	-0.011111	-0.011111	-0.011111	-0.011111	-0.011111	-0.011111	-0.011111	-0.011111	-0.011111	-0.011111	-0.011111	-0.011111	-0.011111	-0.011111	-0.011111	-0.011111	-0.011111	-0.011111	-0.011111	-0.011111	-0.011111	-0.011111	-0.011111	-0.011111	-0.011111	-0.011111	-0.011111	-0.011111	-0.011111	-0.011111	-0.011111	-0.011111	-0.011111	-0.011111	-0.011111	-0.011111	-0.011111	-0.011111	-0.011111	-0.011111	-0.011111	-0.011111	-0.011111	-0.011111	-0.011111	-0.011111	-0.011111	-0.011111	-0.011111	-0.011111	-0.011111	-0.011111	-0.011111	-0.011111	-0.011111	-0.011111	-0.011111	-0.011111	-0.011111	-0.011111	-0.011111	-0.011111	-0.011111	-0.011111	-0.011111	-0.011111	-0.011111	-0.011111	-0.011111	-0.011111	-0.011111	-0.011111	-0.011111	-0.011111	-0.011111	-0.011111	-0.011111	-0.011111	-0.011111	-0.011111	-0.011111	-0.011111	-0.011111	-0.011111	-0.011111	-0.011111	-0.011111	-0.011111	-0.011111	-0.011111	-0.011111	-0.011111	-0.011111	-0.011111	-0.011111	-0.011111	-0.011111	-0.011111	
290 4
0.006150	0.005087	0.003164	0.003111	0.006158	0.005082	0.003193	0.003081	0.005981	0.004995	0.003137	0.003084	0.005965	0.004818	0.003146	0.003122	0.006034	0.004833	0.003521	0.003095	0.006086	0.004709	0.003613	0.003044	0.006074	0.004843	0.003646	0.002985	0.006116	0.004970	0.003659	0.002969	0.006065	0.004925	0.003715	0.002963	0.006136	0.004842	0.003646	0.002973	0.005989	0.004681	0.003613	0.003056	0.005999	0.004631	0.003618	0.003080	0.006036	0.004625	0.003618	0.003070	0.006083	0.004415	0.003595	0.003098	0.006308	0.004494	0.003596	0.003105	0.006237	0.004737	0.003536	0.003096	0.006082	0.004776	0.003538	0.003146	0.006067	0.004896	0.003511	0.003232	0.005849	0.004927	0.003523	0.003206	0.006163	0.004944	0.003531	0.003077	0.006280	0.004836	0.003604	0.003065	0.006334	0.004861	0.003738	0.003112	0.006320	0.004962	0.003817	0.003090	0.006409	0.005048	0.003492	0.003048	0.006295	0.005036	0.003341	0.002946	0.006360	0.004989	0.003233	0.003028	0.006260	0.004898	0.003150	0.003037	0.006378	0.005044	0.003200	0.003110	0.006405	0.005229	0.003160	0.003101	0.006385	0.005358	0.003278	0.002993	0.006505	0.005319	0.003281	0.002980	0.006433	0.005464	0.003317	0.002987	0.006461	0.005416	0.003274	0.003042	0.006316	0.005449	0.003299	0.002981	0.006390	0.005262	0.003291	0.003067	0.006503	0.005063	0.003455	0.003158	0.006597	0.004948	0.003500	0.002975	0.006565	0.005002	0.003601	0.002953	0.006363	0.004932	0.003589	0.002973	0.006374	0.004885	0.003714	0.002961	0.006542	0.004923	0.003524	0.002973	0.006493	0.004962	0.003404	0.003065	0.006487	0.004854	0.003410	0.003163	0.006596	0.004890	0.003446	0.003160	0.006501	0.004889	0.003421	0.003139	0.006694	0.004783	0.003481	0.003162	0.006584	0.004685	0.003473	0.003083	0.006403	0.004469	0.003512	0.003211	0.006513	0.004399	0.003521	0.003262	0.006312	0.004447	0.003479	0.003255	0.006342	0.004369	0.003448	0.003252	0.006332	0.004897	0.003517	0.003162	0.006341	0.004818	0.003467	0.003176	0.006301	0.004823	0.003600	0.003135	0.006184	0.005013	0.003457	0.003032	0.006200	0.005145	0.003416	0.003179	0.006205	0.005088	0.003333	0.003200	0.006394	0.004927	0.003336	0.003193	0.006273	0.004997	0.003226	0.003207	0.006133	0.005321	0.003256	0.003172	0.006192	0.005224	0.003405	0.003134	0.006193	0.005309	0.003437	0.002967	0.006089	0.005291	0.003422	0.002996	0.006039	0.005308	0.003446	0.002973	0.005881	0.005434	0.003479	0.002917	0.005862	0.005610	0.003440	0.002956	0.005896	0.005574	0.003456	0.002868	0.005679	0.005523	0.003398	0.002808	0.005709	0.005659	0.003554	0.002810	0.005701	0.005582	0.003542	0.002817	0.005651	0.005324	0.003501	0.002785	0.005574	0.005207	0.003486	0.002792	0.005566	0.005211	0.003362	0.002804	0.005666	0.005360	0.003388	0.002774	0.005575	0.005194	0.003453	0.002737	0.005615	0.005248	0.003393	0.002628	0.005496	0.005308	0.003412	0.002621	0.005300	0.005279	0.003350	0.002638	0.005176	0.005075	0.003376	0.002663	0.005231	0.004949	0.003304	0.002647	0.005325	0.004942	0.003207	0.002651	0.005237	0.004859	0.003316	0.002625	0.005208	0.004780	0.003344	0.002612	0.005230	0.004730	0.003251	0.002569	0.005504	0.004512	0.003257	0.002531	0.005511	0.004527	0.003292	0.002540	0.005495	0.004488	0.003385	0.002613	0.005544	0.004462	0.003202	0.002603	0.005565	0.004444	0.003383	0.002590	0.005563	0.004457	0.003412	0.002596	0.005611	0.004932	0.003430	0.002558	0.005621	0.004927	0.003404	0.002503	0.005519	0.004878	0.003379	0.002557	0.005503	0.004866	0.003292	0.002731	0.005393	0.004783	0.003367	0.002731	0.005380	0.004740	0.003324	0.002723	0.005408	0.004731	0.003418	0.002705	0.006805	0.004829	0.003358	0.002751	0.008718	0.004791	0.003352	0.002715	0.009799	0.004862	0.003350	0.002705	0.010230	0.005037	0.003376	0.002663	0.010459	0.005097	0.003240	0.002644	0.010578	0.005196	0.003266	0.002722	0.010571	0.005264	0.003293	0.002760	0.010639	0.005280	0.003254	0.002769	0.010711	0.005658	0.003218	0.002659	0.010789	0.005673	0.003211	0.002774	0.010838	0.005717	0.003175	0.002816	0.010868	0.005724	0.003118	0.002856	0.011109	0.005328	0.003147	0.002941	0.011384	0.005427	0.003182	0.003067	0.011643	0.005608	0.003297	0.003073	0.012222	0.005780	0.003335	0.002810	0.012723	0.005824	0.003302	0.002811	0.012858	0.005841	0.003345	0.002900	0.012894	0.006912	0.003508	0.002930	0.012690	0.007999	0.003819	0.004976	0.011757	0.013419	0.005092	0.007933	0.011422	0.018323	0.005401	0.009748	0.011051	0.019475	0.005563	0.013698	0.011251	0.020551	0.005729	0.014104	0.012175	0.021261	0.005852	0.014228	0.013130	0.026056	0.006232	0.014553	0.013741	0.027630	0.006903	0.015752	0.014280	0.028374	0.007644	0.016109	0.014509	0.028610	0.007918	0.017991	0.014954	0.029725	0.008281	0.019258	0.014977	0.030945	0.008842	0.019557	0.016428	0.032289	0.008880	0.019699	0.016760	0.033879	0.009113	0.019984	0.017492	0.035517	0.009345	0.022603	0.018626	0.036388	0.009370	0.032815	0.018504	0.038111	0.009457	0.037170	0.018727	0.039853	0.009513	0.038441	0.018773	0.044419	0.009613	0.039061	0.018895	0.052986	0.009790	0.039376	0.021046	0.062455	0.010353	0.039824	0.022188	0.062291	0.010241	0.040558	0.022454	0.065714	0.010509	0.040476	0.022784	0.069038	0.010629	0.040589	0.022742	0.069141	0.010829	0.042302	0.022275	0.068405	0.011070	0.045086	0.021975	0.076096	0.011143	0.044829	0.024184	0.083596	0.011329	0.045159	0.025251	0.087547	0.011835	0.046089	0.027756	0.103515	0.013784	0.045776	0.028451	0.124370	0.014257	0.047687	0.028142	0.126789	0.015127	0.048634	0.028719	0.127968	0.016282	0.049646	0.030827	0.131250	0.016408	0.054467	0.029889	0.138849	0.016709	0.050837	0.030717	0.141257	0.017769	0.046541	0.031371	0.142106	0.018669	0.049157	0.032862	0.144748	0.019356	0.054144	0.033335	0.147077	0.019846	0.060514	0.032621	0.143989	0.020929	0.064001	0.032491	0.146772	0.021686	0.068829	0.036557	0.151076	0.022688	0.078640	0.036828	0.166374	0.023546	0.081267	0.039436	0.181200	0.024009	0.085268	0.042156	0.185238	0.024520	0.097892	0.043334	0.197941	0.028049	0.101203	0.047034	0.211890	0.031388	0.121986	0.048652	0.210420	0.032144	0.140195	0.052151	0.216956	0.031932	0.163256	0.056587	0.208128	0.037469	0.202041	0.063875	0.217210	0.039680	0.249570	0.070341	0.221386	0.042161	0.271134	0.072390	0.226352	0.046026	0.279250	0.076458	0.224137	0.047961	0.301717	0.079936	0.223816	0.048608	0.324800	0.088700	0.226420	0.050111	0.354417	0.092108	0.229471	0.051308	0.369644	0.095686	0.234888	0.052573	0.379696	0.101237	0.259832	0.054737	0.422563	0.105096	0.269109	0.058277	0.465406	0.105766	0.292674	0.058747	0.478246	0.111758	0.309611	0.067905	0.500923	0.116990	0.308517	0.070259	0.510127	0.121428	0.309244	0.072740	0.517864	0.125158	0.300040	0.072455	0.523949	0.129297	0.290281	0.074759	0.538745	0.139990	0.301146	0.079368	0.558877	0.141414	0.299176	0.080301	0.569905	0.142630	0.299683	0.078828	0.563843	0.144862	0.297790	0.077775	0.578306	0.143774	0.303814	0.077449	0.582924	0.145368	0.301414	0.076218	0.579147	0.145983	0.301479	0.076860	0.573544	0.147167	0.302587	0.076849	0.567825	0.143633	0.303313	0.080052	0.550694	0.142541	0.306842	0.079484	0.545078	0.145981	0.310963	0.079377	0.548233	0.144065	0.293136	0.078493	0.536288	0.141877	0.292089	0.076656	0.501932	0.141434	0.282644	0.077021	0.481340	0.140035	0.270999	0.070549	0.467271	0.134847	0.259392	0.067567	0.466464	0.133300	0.262715	0.065708	0.488046	0.134690	0.264112	0.066093	0.481603	0.139017	0.263956	0.064138	0.473678	0.130477	0.253051	0.056061	0.444606	0.129194	0.251704	0.059701	0.436882	0.126443	0.246601	0.061146	0.426477	0.123453	0.243922	0.063716	0.403004	0.123836	0.243303	0.063427	0.407690	0.128967	0.241528	0.064119	0.402338	0.128838	0.240790	0.063352	0.425715	0.129117	0.240940	0.062279	0.428609	0.130144	0.244647	0.058576	0.428690	0.129721	0.248655	0.058378	0.437797	0.127785	0.243858	0.057755	0.427167	0.127708	0.244031	0.057276	0.420611	0.129103	0.243345	0.057332	0.420682	0.131143	0.234448	0.059189	0.444177	0.130595	0.224101	0.059552	0.450207	0.131186	0.217568	0.059098	0.438651	0.131826	0.221369	0.059734	0.409866	0.134067	0.218196	0.060245	0.405810	0.133739	0.223207	0.059799	0.398320	0.132321	0.227358	0.059670	0.405829	0.132666	0.229374	0.057075	0.403566	0.136128	0.230779	0.055442	0.423036	0.138759	0.230339	0.053357	0.415591	0.138316	0.233529	0.053041	0.382907	0.130463	0.233335	0.051686	0.384088	0.129103	0.241508	0.051141	0.380693	0.130825	0.240811	0.050747	0.370125	0.133329	0.247496	0.051916	0.403254	0.133615	0.247636	0.051129	0.399923	0.131385	0.248313	0.051281	0.394420	0.130625	0.248123	0.051891	0.397125	0.130208	0.247733	0.051620	0.393190	0.130867	0.249712	0.049886	0.379000	0.128959	0.242888	0.050202	0.355772	0.130553	0.242579	0.053243	0.353349	0.130874	0.243206	0.055850	0.395358	0.127512	0.239876	0.054341	0.395188	0.120461	0.236201	0.052881	0.392261	0.115121	0.230788	0.052590	0.381170	0.113153	0.226811	0.051505	0.372450	0.107122	0.220940	0.050420	0.352552	0.101235	0.216649	0.049474	0.345978	0.098841	0.209242	0.048763	0.340327	0.098226	0.203803	0.049772	0.336332	0.096978	0.190575	0.049630	0.321643	0.092663	0.186338	0.049187	0.310415	0.081942	0.173494	0.047972	0.261225	0.080069	0.156796	0.047068	0.241236	0.079162	0.144172	0.047329	0.234213	0.077280	0.137235	0.046350	0.219718	0.073031	0.124732	0.045763	0.208544	0.068525	0.106095	0.044905	0.205462	0.066839	0.101779	0.043959	0.201260	0.063473	0.097865	0.042339	0.199326	0.053065	0.079651	0.038723	0.115747	0.048287	0.074149	0.041244	0.052204	0.047112	0.067949	0.041270	0.043631	0.045724	0.064607	0.040998	0.035353	0.043572	0.064846	0.041771	0.023667	0.041403	0.064442	0.043843	0.023712	0.041305	0.062276	0.047676	0.023304	0.041272	0.062109	0.047972	0.022521	0.042046	0.054731	0.047517	0.019913	0.041568	0.053406	0.046310	0.018933	0.038518	0.052187	0.046030	0.018894	0.037978	0.051764	0.052095	0.018653	0.037407	0.047153	0.052345	0.018517	0.035910	0.045560	0.053468	0.017852	0.035915	0.038571	0.053607	0.007194	0.035751	0.038546	0.054845	0.007163	0.033311	0.050343	0.057381	0.007159	0.034452	0.055372	0.057943	0.007273	0.035556	0.056403	0.059884	0.007399	0.036188	0.058104	0.065543	0.007196	0.035938	0.057305	0.063512	0.007021	0.035628	0.059113	0.073745	0.006626	0.035778	0.061722	0.083319	0.004787	0.035438	0.061577	0.083536	0.004782	0.035067	0.066984	0.082591	0.004480	0.034709	0.066581	0.081804	0.004474	0.032608	0.067842	0.087584	0.004385	0.033254	0.074137	0.089480	0.004538	0.034514	0.074201	0.089575	0.004636	0.035984	0.075787	0.090209	0.004686	0.036577	0.076518	0.088824	0.004797	0.036963	0.076694	0.089328	0.004868	0.037829	0.077426	0.089471	0.004776	0.038146	0.078311	0.094682	0.004984	0.037868	0.078612	0.095292	0.005055	
290 1
-0.011111	-0.011111	-0.011111	-0.011111	-0.011111	-0.011111	-0.011111	-0.011111	-0.011111	-0.011111	-0.011111	-0.011111	-0.011111	-0.011111	-0.011111	-0.011111	-0.011111	-0.011111	-0.011111	-0.011111	-0.011111	-0.011111	-0.011111	-0.011111	-0.011111	-0.011111	-0.011111	-0.011111	-0.011111	-0.011111	-0.011111	-0.011111	-0.011111	-0.011111	-0.011111	-0.011111	-0.011111	-0.011111	-0.011111	-0.011111	-0.011111	-0.011111	-0.011111	-0.011111	-0.011111	-0.011111	-0.011111	-0.011111	-0.011111	-0.011111	-0.011111	-0.011111	-0.011111	-0.011111	-0.011111	-0.011111	-0.011111	-0.011111	-0.011111	-0.011111	-0.011111	-0.011111	-0.011111	-0.011111	-0.011111	-0.011111	-0.011111	-0.011111	-0.011111	-0.011111	-0.011111	-0.011111	-0.011111	-0.011111	-0.011111	-0.011111	-0.011111	-0.011111	-0.011111	-0.011111	-0.011111	-0.011111	-0.011111	-0.011111	-0.011111	-0.011111	-0.011111	-0.011111	-0.011111	-0.011111	-0.011111	-0.011111	-0.011111	-0.011111	-0.011111	-0.011111	-0.011111	-0.011111	-0.011111	-0.011111	-0.011111	-0.011111	-0.011111	-0.011111	-0.011111	-0.011111	-0.011111	-0.011111	-0.011111	-0.011111	-0.011111	-0.011111	-0.011111	-0.011111	-0.011111	-0.011111	-0.011111	-0.011111	-0.011111	-0.011111	-0.011111	-0.011111	-0.011111	-0.011111	-0.011111	-0.011111	-0.011111	-0.011125	-0.022811	-0.022254	-0.022211	-0.031323	-0.032916	-0.033279	-0.044834	-0.046969	-0.057149	-0.066846	-0.077393	-0.090670	-0.100933	-0.116583	-0.128606	-0.147418	-0.160424	-0.166562	-0.178841	-0.201976	-0.217058	-0.229022	-0.245248	-0.273213	-0.281342	-0.301424	-0.322378	-0.351808	-0.364218	-0.384891	-0.417991	-0.434958	-0.456213	-0.480580	-0.523867	-0.543846	-0.580745	-0.604310	-0.626481	-0.654360	-0.673691	-0.685260	-0.694316	-0.707829	-0.721060	-0.730393	-0.745244	-0.754507	-0.765181	-0.776182	-0.777356	-0.787581	-0.788547	-0.788799	-0.788868	-0.788885	-0.788888	-0.801068	-0.800073	-0.799990	-0.799993	-0.799998	-0.799999	-0.800000	-0.800000	-0.800000	-0.800000	-0.800000	-0.800000	-0.800000	-0.800000	-0.800000	-0.800000	-0.801712	-0.811009	-0.811146	-0.811130	-0.811117	-0.811113	-0.811111	-0.811111	-0.811111	-0.811111	-0.811111	-0.811111	-0.811111	-0.811111	-0.811111	-0.811111	-0.811111	-0.811111	-0.811111	-0.811111	-0.811111	-0.811111	-0.811111	-0.811111	-0.811111	-0.811111	-0.811111	-0.811111	-0.811111	-0.811111	-0.811111	-0.811111	-0.811105	-0.799760	-0.800032	-0.800025	-0.800009	-0.800002	-0.800001	-0.800000	-0.797907	-0.788463	-0.788815	-0.778240	-0.776277	-0.766836	-0.756014	-0.749986	-0.741013	-0.730177	-0.711465	-0.705779	-0.687909	-0.670062	-0.655514	-0.630278	-0.613278	-0.602883	-0.575717	-0.564880	-0.546732	-0.534501	-0.521456	-0.501057	-0.493352	-0.456693	-0.448777	-0.429197	-0.397752	-0.375603	-0.360713	-0.342881	-0.326986	-0.321302	-0.297937	-0.282003	-0.271620	-0.248426	-0.231672	-0.214946	-0.207673	-0.187980	-0.176292	-0.165274	-0.156456	-0.142152	-0.131901	-0.122108	-0.107415	
