6
343 4
0.005659	0.004813	0.003863	0.003436	0.005623	0.005109	0.003965	0.003473	0.005682	0.004999	0.003967	0.003425	0.005643	0.005068	0.003771	0.003449	0.005669	0.005043	0.003676	0.003483	0.005681	0.005178	0.003622	0.003458	0.005846	0.005162	0.003569	0.003517	0.005716	0.005138	0.003607	0.003629	0.005671	0.005417	0.003778	0.003540	0.005655	0.005297	0.003738	0.003550	0.005848	0.005213	0.003648	0.003587	0.005673	0.005405	0.003637	0.003707	0.005654	0.005188	0.003757	0.003566	0.006052	0.005320	0.003667	0.003546	0.006005	0.005394	0.003720	0.003582	0.006012	0.005460	0.003578	0.003564	0.006057	0.005498	0.003569	0.003412	0.006022	0.005576	0.003526	0.003395	0.006088	0.005653	0.003549	0.003395	0.005989	0.005624	0.003601	0.003241	0.005995	0.005469	0.003487	0.003206	0.006069	0.005489	0.003485	0.003156	0.006323	0.005480	0.003465	0.003277	0.006342	0.005489	0.003439	0.003211	0.006297	0.005478	0.003503	0.003239	0.006404	0.005343	0.003648	0.003250	0.006552	0.005328	0.003730	0.003200	0.006572	0.005003	0.003710	0.003262	0.006572	0.005029	0.003797	0.003679	0.006605	0.005108	0.003845	0.003625	0.007428	0.004982	0.003909	0.003549	0.008756	0.004835	0.003796	0.003589	0.008579	0.004811	0.003882	0.003589	0.008546	0.004757	0.003899	0.003561	0.008497	0.004671	0.003816	0.003558	0.008510	0.004766	0.003785	0.003605	0.008580	0.004633	0.003806	0.003643	0.008512	0.004670	0.003801	0.003636	0.008629	0.004694	0.003868	0.003643	0.008850	0.004624	0.003902	0.003656	0.008994	0.004841	0.004029	0.005504	0.010001	0.004931	0.004122	0.008439	0.010364	0.004899	0.004098	0.009259	0.010503	0.005191	0.004057	0.010013	0.010589	0.005603	0.003890	0.010321	0.011071	0.010499	0.004128	0.011206	0.011274	0.012061	0.003965	0.011883	0.011440	0.013810	0.003898	0.012585	0.012187	0.015388	0.003802	0.013745	0.012457	0.017701	0.003750	0.015274	0.015017	0.022614	0.003764	0.015992	0.015323	0.022930	0.003752	0.019619	0.015584	0.024426	0.003758	0.020364	0.015698	0.024570	0.003778	0.021229	0.015844	0.027163	0.003738	0.023257	0.015857	0.028616	0.003819	0.024144	0.016431	0.034053	0.004118	0.026146	0.019879	0.039686	0.004236	0.026890	0.031491	0.043080	0.004496	0.029714	0.032094	0.045410	0.004573	0.029956	0.031765	0.045542	0.004523	0.029652	0.031817	0.046034	0.004575	0.029483	0.031870	0.047954	0.004676	0.029350	0.031818	0.051808	0.004913	0.029629	0.031945	0.054765	0.004747	0.030280	0.031937	0.057692	0.004932	0.031716	0.032059	0.063760	0.005084	0.038715	0.031977	0.064778	0.005232	0.039258	0.032166	0.065376	0.006243	0.043401	0.031532	0.068216	0.006269	0.043870	0.031725	0.068603	0.006629	0.043774	0.032060	0.068888	0.006787	0.046549	0.032054	0.071313	0.007263	0.046989	0.032077	0.072365	0.007507	0.047201	0.032496	0.073525	0.008703	0.051149	0.032673	0.075303	0.009031	0.057216	0.032498	0.073593	0.009302	0.065565	0.024565	0.081796	0.009579	0.064674	0.022268	0.084087	0.009883	0.066199	0.023255	0.085125	0.010129	0.067159	0.023051	0.087753	0.010674	0.068530	0.024090	0.095759	0.010781	0.071046	0.028464	0.101390	0.012098	0.078380	0.029985	0.103275	0.013284	0.078608	0.030367	0.106232	0.013247	0.082457	0.030853	0.108007	0.013866	0.088345	0.032655	0.115911	0.016965	0.090860	0.034680	0.123896	0.019571	0.092083	0.035199	0.130729	0.021655	0.094639	0.037907	0.146589	0.022584	0.099382	0.038732	0.147756	0.023369	0.106873	0.039632	0.152184	0.024578	0.106764	0.040821	0.158926	0.025972	0.112433	0.054140	0.165480	0.028245	0.143148	0.058463	0.166180	0.029619	0.146150	0.060100	0.171225	0.031015	0.147931	0.062341	0.174829	0.031271	0.150437	0.064397	0.178647	0.031983	0.151424	0.066722	0.190833	0.033082	0.159269	0.067862	0.207387	0.034875	0.163749	0.072647	0.205877	0.035233	0.167828	0.086461	0.208911	0.035760	0.191604	0.092134	0.211057	0.035635	0.210730	0.095257	0.214452	0.036629	0.217383	0.101603	0.226442	0.037275	0.244145	0.108220	0.240013	0.038449	0.257951	0.113787	0.252691	0.039458	0.327259	0.118290	0.252148	0.039782	0.354219	0.120674	0.246782	0.042024	0.365690	0.123675	0.252527	0.044256	0.369441	0.133099	0.253210	0.045160	0.392887	0.134062	0.252514	0.045996	0.397581	0.134899	0.255896	0.049272	0.469223	0.134234	0.260591	0.049415	0.494566	0.139858	0.264771	0.049382	0.500908	0.145787	0.262328	0.051139	0.503236	0.147352	0.264618	0.054394	0.522212	0.148581	0.273981	0.055689	0.540911	0.152765	0.266052	0.055594	0.572184	0.160038	0.269866	0.055987	0.599554	0.156761	0.274026	0.056501	0.602376	0.160344	0.288397	0.057375	0.619398	0.160935	0.304100	0.060588	0.624566	0.159906	0.295639	0.061321	0.632417	0.158307	0.288592	0.061069	0.646995	0.159285	0.272919	0.059644	0.633351	0.166034	0.287783	0.064195	0.619049	0.165729	0.288276	0.062642	0.624123	0.169408	0.284424	0.063642	0.645233	0.162618	0.286650	0.064046	0.640482	0.166363	0.291806	0.065121	0.644378	0.168325	0.294725	0.064616	0.611128	0.177973	0.286137	0.067814	0.572178	0.176947	0.287176	0.068214	0.574317	0.173713	0.290427	0.067548	0.574194	0.174598	0.287513	0.065339	0.580024	0.179812	0.276338	0.065102	0.571590	0.191010	0.275940	0.064558	0.567183	0.186352	0.275216	0.064509	0.552965	0.187070	0.273945	0.065307	0.564590	0.182795	0.255063	0.065637	0.553789	0.191987	0.238275	0.067656	0.564852	0.197237	0.254393	0.067008	0.586410	0.196544	0.257331	0.067933	0.559591	0.192770	0.258637	0.069310	0.583691	0.187088	0.245677	0.066886	0.588336	0.185564	0.244979	0.066527	0.568442	0.187990	0.247395	0.064564	0.553893	0.188393	0.253859	0.064694	0.540302	0.187759	0.251316	0.063504	0.555447	0.189948	0.248052	0.063921	0.566558	0.182785	0.246964	0.058171	0.566185	0.180435	0.257170	0.058005	0.614335	0.182866	0.249189	0.059789	0.654213	0.184121	0.260408	0.062678	0.651274	0.181030	0.266744	0.063942	0.645912	0.170859	0.312743	0.067176	0.642164	0.171757	0.309775	0.068391	0.620869	0.173192	0.309400	0.067338	0.617735	0.173744	0.309077	0.068596	0.631224	0.170642	0.305989	0.069536	0.640483	0.165462	0.295077	0.068768	0.609098	0.166800	0.287733	0.067747	0.611164	0.167074	0.297163	0.068454	0.615957	0.167413	0.296396	0.069944	0.601233	0.168819	0.294963	0.068984	0.601676	0.167106	0.294983	0.069174	0.600679	0.166089	0.286485	0.070697	0.598408	0.172043	0.280917	0.069847	0.581461	0.168586	0.278896	0.068863	0.563155	0.165814	0.278137	0.069643	0.562195	0.165255	0.269307	0.069062	0.520529	0.159143	0.265055	0.067478	0.447570	0.153029	0.252738	0.063772	0.429847	0.150725	0.247245	0.062711	0.422630	0.145856	0.173527	0.057775	0.408167	0.144466	0.171692	0.055618	0.400818	0.138637	0.165794	0.055033	0.387990	0.132475	0.162763	0.052863	0.332501	0.122604	0.159767	0.045125	0.276360	0.116734	0.159059	0.044347	0.262859	0.113828	0.156792	0.043054	0.251626	0.108783	0.130767	0.040347	0.185076	0.107617	0.122473	0.034766	0.156523	0.104989	0.115389	0.034893	0.149759	0.095153	0.103481	0.040401	0.123823	0.088005	0.098633	0.035930	0.117411	0.076868	0.092971	0.035518	0.091831	0.069224	0.087138	0.038173	0.080483	0.067553	0.083804	0.035904	0.072725	0.060505	0.081610	0.038084	0.066842	0.060581	0.077295	0.040754	0.046285	0.060338	0.074889	0.043140	0.031968	0.060215	0.073901	0.044568	0.030229	0.060751	0.076277	0.050726	0.029024	0.052875	0.071340	0.053598	0.028841	0.050763	0.066847	0.054016	0.028669	0.049089	0.071663	0.054599	0.028103	0.048789	0.069882	0.059944	0.024964	0.048607	0.068611	0.066649	0.022812	0.049131	0.068403	0.085192	0.012731	0.048832	0.060103	0.087457	0.007794	0.048002	0.061000	0.088602	0.006403	0.045605	0.059590	0.089085	0.006082	0.045251	0.059528	0.087281	0.005561	0.044734	0.061045	0.087877	0.005532	0.044558	0.062624	0.090813	0.005586	0.047258	0.061644	0.093739	0.005862	0.047182	0.067320	0.096934	0.005930	0.046493	0.076319	0.100315	0.005813	0.047160	0.079774	0.100836	0.005872	0.047715	0.081008	0.100269	0.005741	0.047463	0.081377	0.099818	0.005681	0.044058	0.078892	0.096448	0.005679	0.042703	0.076919	0.096244	0.005689	0.042486	0.076401	0.102778	0.005802	0.042535	0.071281	0.105769	0.005898	0.041878	0.071161	0.107846	0.005864	0.041816	0.070115	0.105028	0.005732	0.036650	0.068145	0.093040	0.005458	0.036229	0.066395	0.085845	0.005013	0.035688	0.065515	0.084772	0.004910	0.035182	0.064733	0.084340	0.004741	0.034868	0.064039	0.084174	0.004754	0.035552	0.062175	0.083001	0.004748	0.036490	0.059811	0.080412	0.004735	0.033241	0.059280	0.074497	0.004137	0.029645	0.054968	0.071336	0.003993	0.029192	0.037450	0.066519	0.003766	0.027535	0.030986	0.063936	0.003696	0.024429	0.026763	0.062839	0.003709	0.023550	0.021655	0.062866	0.003747	0.022664	0.021144	0.062884	0.003757	0.022432	0.020048	0.061542	0.003784	0.021869	0.017811	0.052333	0.003711	0.020892	0.014260	0.040373	0.003426	0.019916	0.011546	0.029889	0.003508	0.017703	0.008264	0.025577	0.003507	0.016947	0.008306	0.025339	0.003439	0.016710	0.008338	0.025296	0.003472	0.016317	0.008207	0.025044	0.003424	0.015734	0.008030	0.024530	0.003442	0.015122	0.007965	0.024167	0.003437	0.013551	0.007951	0.023939	0.003377	0.008761	0.007707	0.023773	0.003253	0.008773	0.007457	0.023670	0.003351	0.008440	0.007115	0.021151	0.003332	0.007345	0.006743	0.011973	0.003370	0.007835	0.006642	0.010056	0.003387	0.007900	0.006403	0.009064	0.003247	0.007791	0.006360	0.007416	0.003108	0.007837	0.005702	0.004855	0.003104	0.007835	0.005407	0.004444	0.003055	0.007752	0.004773	0.004435	0.003001	0.007858	0.004693	0.004211	0.002923	0.007771	0.004660	0.003876	0.002779	0.007832	0.004557	0.003930	0.002954	0.007934	0.004505	0.003827	0.002948	0.008062	0.004334	0.003745	0.002892	0.008058	0.004339	0.003686	0.002908	0.008403	0.004272	0.003814	0.002904	0.008802	0.004180	0.003753	0.002929	0.008885	0.004150	0.003816	0.002954	0.008871	0.004132	0.003864	0.002949	0.008784	0.004257	0.003863	0.002842	0.008698	0.004027	0.003811	0.002819	0.008535	0.004043	0.003802	0.002755	0.007347	0.004038	0.003645	0.002743	0.007262	0.004071	0.003456	0.002732	0.007212	0.003968	0.003457	0.002770	0.007247	0.004096	0.003384	0.002797	0.007410	0.004220	0.003383	0.002752	0.007417	0.004177	0.003327	0.002741	0.007349	0.004159	0.003404	0.002760	0.007403	0.004155	0.003460	0.002808	0.007410	0.004406	0.003463	0.002641	0.007316	0.004381	0.003498	0.002624	0.007291	0.004346	0.003523	0.002666	0.007235	0.004354	0.003533	0.002640	0.007021	0.004410	0.003380	0.002649	0.006262	0.004584	0.003400	0.002597	0.006178	0.004557	0.003326	0.002596	0.006089	0.004704	0.003198	0.002613	0.006062	0.004664	0.003199	0.002585	0.006359	0.004685	0.003120	0.002617	0.006268	0.004673	0.003068	0.002625	0.006256	0.004694	0.003035	0.002689	0.006176	0.004705	0.003100	0.002895	0.006077	0.004686	0.003077	0.002836	0.006089	0.004703	0.003216	0.002770	0.005768	0.004414	0.003270	0.002882	0.005756	0.004563	0.003262	0.002903	0.006221	0.004613	0.003386	0.002926	0.006161	0.004752	0.003304	0.002937	0.006123	0.004783	0.003293	0.002890	0.006086	0.005069	0.003562	0.002898	0.005939	0.005095	0.003524	0.002915	0.005949	0.005141	0.003575	0.002943	0.005981	0.005207	0.003596	0.003014	0.006009	0.005052	0.003658	0.003008	0.006723	0.005096	0.003769	0.003010	0.008405	0.005249	0.003757	0.002986	0.008417	0.005288	0.003791	0.003005	0.008303	0.005314	0.003775	0.003060	0.008302	0.005314	0.003775	0.003109	0.008301	0.005384	0.003749	0.003048	0.008316	0.005562	0.003707	0.002825	0.008301	0.005554	0.003773	0.002963	0.008443	0.005473	0.003772	0.002947	0.008461	0.005484	0.003721	0.003006	0.008533	0.005494	0.003954	0.002974	0.008335	0.005497	0.003844	0.002998	0.008364	0.005377	0.003988	0.002954	0.008476	0.005195	0.004013	0.002945	0.008543	0.004902	0.003841	0.002998	0.008632	0.004909	0.003755	0.003003	0.008612	0.005038	0.003664	0.003024	0.008761	0.004883	0.003675	0.003016	0.008772	0.004882	0.003927	0.003066	0.008457	0.004851	0.003823	0.003076	0.006856	0.004764	0.004020	0.003093	0.006533	0.004580	0.003985	0.003092	0.006535	0.004552	0.004033	0.003058	0.006279	0.004581	0.004265	0.002983	0.006309	0.004534	0.004320	0.002990	0.006426	0.004366	0.004331	0.003007	0.006421	0.004548	0.004292	0.002883	0.006451	0.004527	0.004239	0.002887	0.006409	0.004656	0.004394	0.002781	0.006374	0.004519	0.004249	0.002808	0.006069	0.004475	0.004214	0.002805	0.006168	0.004789	0.004094	0.002764	0.006332	0.004783	0.004001	0.002814	0.006261	0.004759	0.004081	0.002775	0.006187	0.004789	0.004286	0.002755	0.006247	0.004762	0.004355	0.002743	0.006069	0.004778	0.004358	0.002740	0.006008	0.004801	0.004169	0.002731	0.006438	0.004848	0.004138	0.002780	0.006301	0.004806	0.004031	0.002818	0.006367	0.004814	0.004066	0.002836	0.006293	0.004887	0.004093	0.002844	0.006426	0.004868	0.003833	0.002843	
343 1
-0.006113	-0.006194	-0.006275	-0.006356	-0.006437	-0.006519	-0.006600	-0.006681	-0.006762	-0.006843	-0.006924	-0.007005	-0.007086	-0.007167	-0.007248	-0.007330	-0.007411	-0.007492	-0.007573	-0.007654	-0.007735	-0.007816	-0.007897	-0.007978	-0.008060	-0.008141	-0.008222	-0.008303	-0.008384	-0.008465	-0.008546	-0.008627	-0.008708	-0.008789	-0.008871	-0.008952	-0.009033	-0.009114	-0.009195	-0.009276	-0.009357	-0.009438	-0.009519	-0.009600	-0.009682	-0.009763	-0.009844	-0.009925	-0.010006	-0.010087	-0.010168	-0.010249	-0.010330	-0.010412	-0.010493	-0.010574	-0.010655	-0.010736	-0.010817	-0.010898	-0.010979	-0.011060	-0.011114	-0.011112	-0.011111	-0.013408	-0.021936	-0.022216	-0.022278	-0.034818	-0.040929	-0.050320	-0.061231	-0.066014	-0.079145	-0.090420	-0.101725	-0.113113	-0.132756	-0.144191	-0.166184	-0.168943	-0.188713	-0.210414	-0.213700	-0.244474	-0.250364	-0.272762	-0.287236	-0.321310	-0.333806	-0.361870	-0.386881	-0.406826	-0.424551	-0.452451	-0.486184	-0.512511	-0.530183	-0.557959	-0.583431	-0.615848	-0.636899	-0.651745	-0.668351	-0.688990	-0.704458	-0.713701	-0.722829	-0.738504	-0.745871	-0.768308	-0.766900	-0.779383	-0.783516	-0.788305	-0.791525	-0.799870	-0.807341	-0.810553	-0.810999	-0.811091	-0.820631	-0.813235	-0.822616	-0.822346	-0.822256	-0.822230	-0.822224	-0.822223	-0.822222	-0.822222	-0.822222	-0.822222	-0.822222	-0.822222	-0.822222	-0.822222	-0.822222	-0.827697	-0.832708	-0.833225	-0.833318	-0.833332	-0.833333	-0.833333	-0.833333	-0.833333	-0.833333	-0.833333	-0.833333	-0.833333	-0.833333	-0.833333	-0.833333	-0.833333	-0.833333	-0.833333	-0.833333	-0.833333	-0.833333	-0.833333	-0.833333	-0.833333	-0.833333	-0.833333	-0.833333	-0.833333	-0.833333	-0.823421	-0.822539	-0.822307	-0.822242	-0.822226	-0.819245	-0.811543	-0.811153	-0.805633	-0.800578	-0.781118	-0.770812	-0.759068	-0.746890	-0.732760	-0.721083	-0.712174	-0.698781	-0.687518	-0.668483	-0.645854	-0.615719	-0.598927	-0.566670	-0.538393	-0.520467	-0.496940	-0.460065	-0.428496	-0.416280	-0.389580	-0.372626	-0.348365	-0.325799	-0.308140	-0.280474	-0.256104	-0.239685	-0.221351	-0.201749	-0.189144	-0.176239	-0.164689	-0.137601	-0.121546	-0.113968	-0.101499	-0.090040	-0.076858	-0.073995	-0.062638	-0.043770	-0.043815	-0.033445	-0.032723	-0.021966	-0.022198	-0.022224	-0.021891	-0.010247	-0.010906	-0.011064	-0.011102	-0.011109	-0.011111	-0.011111	-0.011111	-0.011111	-0.011111	-0.011111	-0.011111	-0.011111	-0.011111	-0.011111	-0.011111	-0.011111	-0.011111	-0.011111	-0.011111	-0.011111	-0.011111	-0.011111	-0.011111	-0.011111	-0.011111	-0.011111	-0.011111	-0.011111	-0.011111	-0.011111	-0.011111	-0.011111	-0.011111	-0.011111	-0.011111	-0.011111	-0.011111	-0.011111	-0.011111	-0.011111	-0.011111	-0.011111	-0.011111	-0.011111	-0.011111	-0.011111	-0.011111	-0.011111	-0.011111	-0.011111	-0.011111	-0.011111	-0.011111	-0.011111	-0.011111	-0.011111	-0.011111	-0.011111	-0.011111	-0.011111	-0.011111	-0.011111	-0.011111	-0.011111	-0.011111	-0.011111	-0.011111	-0.011111	-0.011111	-0.011111	-0.011111	-0.011111	-0.011111	-0.011111	-0.011111	-0.011111	-0.011111	-0.011111	-0.011111	-0.011111	-0.011111	-0.011111	-0.011111	-0.011111	-0.011111	-0.011111	-0.011111	-0.011111	-0.011111	-0.011111	-0.011111	-0.011111	-0.011111	-0.011111	-0.011111	-0.011111	-0.011111	-0.011111	-0.011111	-0.011111	-0.011111	-0.011111	-0.011111	-0.011111	-0.011111	-0.011111	-0.011111	-0.011111	-0.011111	-0.011111	-0.011111	-0.011111	-0.011111	-0.011111	
416 4
0.006426	0.004868	0.003833	0.002843	0.006427	0.004951	0.003743	0.002857	0.006243	0.005043	0.003716	0.002819	0.006403	0.004876	0.003790	0.002850	0.006292	0.005029	0.003839	0.002861	0.006250	0.004979	0.003821	0.002853	0.006259	0.004976	0.003694	0.002865	0.006336	0.005149	0.003747	0.002862	0.006256	0.004863	0.003812	0.002859	0.006058	0.004916	0.003798	0.002811	0.006169	0.004880	0.003812	0.003037	0.006135	0.004897	0.003647	0.002985	0.006037	0.004933	0.003586	0.002965	0.006248	0.004834	0.003808	0.002845	0.006206	0.004850	0.003922	0.002878	0.005811	0.004860	0.003924	0.002829	0.005740	0.004747	0.003851	0.002738	0.005770	0.004927	0.003787	0.002733	0.005742	0.004763	0.003815	0.002747	0.005597	0.004796	0.003848	0.002757	0.005718	0.004647	0.003913	0.002723	0.005903	0.004514	0.003978	0.002730	0.005863	0.004487	0.004111	0.002727	0.005865	0.004460	0.004005	0.002724	0.005894	0.004591	0.003962	0.002759	0.005987	0.004621	0.004134	0.002749	0.006060	0.004419	0.004079	0.002671	0.006018	0.004454	0.004042	0.002689	0.005977	0.004454	0.004020	0.002713	0.006009	0.004544	0.003991	0.002572	0.005865	0.004609	0.003881	0.002765	0.005966	0.004448	0.003833	0.002833	0.006178	0.004684	0.003672	0.002898	0.006173	0.004791	0.003436	0.002883	0.006209	0.004788	0.003533	0.002865	0.006355	0.004841	0.003599	0.002875	0.006377	0.004737	0.003649	0.002874	0.006541	0.004815	0.003555	0.002841	0.006553	0.004809	0.003572	0.002852	0.006585	0.004803	0.003505	0.002858	0.006590	0.004855	0.003502	0.002869	0.006624	0.004949	0.003397	0.002904	0.006572	0.004958	0.003442	0.002898	0.006529	0.004785	0.003421	0.002891	0.006510	0.004984	0.003327	0.002957	0.006511	0.005023	0.003332	0.002984	0.006782	0.005068	0.003345	0.003016	0.006850	0.005182	0.003667	0.003048	0.006787	0.005255	0.003783	0.003064	0.006796	0.005243	0.003763	0.002911	0.006806	0.005330	0.003745	0.002863	0.006541	0.005203	0.003751	0.002908	0.007038	0.005041	0.003746	0.002954	0.007163	0.005017	0.003668	0.003059	0.007129	0.004969	0.003723	0.003135	0.007146	0.004968	0.003652	0.003153	0.007145	0.004990	0.003726	0.003128	0.007125	0.004941	0.003720	0.003120	0.007031	0.005008	0.003777	0.003124	0.007104	0.005141	0.003772	0.003122	0.006974	0.005374	0.003813	0.003097	0.006929	0.005468	0.003897	0.003122	0.006992	0.005475	0.004182	0.003105	0.007033	0.005229	0.004379	0.003062	0.007348	0.005175	0.004380	0.003018	0.007273	0.005223	0.004377	0.002983	0.007147	0.005060	0.004219	0.002941	0.007152	0.004991	0.004119	0.002887	0.007249	0.004927	0.004320	0.002863	0.007567	0.005018	0.004518	0.002950	0.007686	0.005039	0.004553	0.002936	0.007317	0.005114	0.004546	0.002897	0.007018	0.005297	0.004712	0.002820	0.007067	0.005514	0.004659	0.002801	0.007071	0.005434	0.004639	0.002830	0.007013	0.005439	0.004633	0.002848	0.007085	0.005484	0.004644	0.002863	0.008766	0.005463	0.004687	0.002914	0.009276	0.005367	0.004770	0.002983	0.009455	0.005123	0.004654	0.002985	0.009500	0.005006	0.004590	0.002970	0.009473	0.005045	0.004414	0.003040	0.009489	0.005145	0.004048	0.003046	0.009320	0.005163	0.004123	0.003066	0.009122	0.005044	0.004093	0.003032	0.010092	0.005113	0.004080	0.003029	0.010903	0.005131	0.004111	0.003028	0.010866	0.005105	0.003962	0.003012	0.010673	0.004949	0.003871	0.002943	0.010511	0.004917	0.003801	0.002802	0.010523	0.004934	0.003903	0.002786	0.010781	0.004893	0.003782	0.002832	0.010778	0.004519	0.003823	0.002803	0.010849	0.004722	0.003800	0.002711	0.010924	0.004700	0.003705	0.002765	0.010841	0.004832	0.003732	0.002774	0.010160	0.004808	0.003689	0.002779	0.009857	0.004864	0.003510	0.002686	0.009841	0.004809	0.003535	0.002710	0.009939	0.004848	0.003545	0.004539	0.010030	0.004783	0.003494	0.008014	0.010073	0.004599	0.003487	0.010308	0.011071	0.004581	0.003383	0.010840	0.012047	0.004603	0.003418	0.011004	0.012120	0.004634	0.003534	0.011016	0.013697	0.004876	0.003534	0.011851	0.014557	0.005708	0.003582	0.013015	0.014886	0.006461	0.003625	0.013104	0.015054	0.007151	0.004010	0.013417	0.015635	0.007949	0.004174	0.014115	0.015450	0.009006	0.004058	0.015851	0.015535	0.009628	0.004080	0.016039	0.015568	0.010884	0.004575	0.016841	0.015874	0.011195	0.004981	0.017083	0.016146	0.013699	0.005002	0.017993	0.016399	0.020981	0.005078	0.022071	0.016472	0.023128	0.005233	0.021919	0.016427	0.023720	0.005438	0.022060	0.017806	0.025456	0.006297	0.022615	0.018530	0.025820	0.006603	0.021790	0.018856	0.027203	0.007147	0.021373	0.019039	0.027981	0.008129	0.022771	0.018365	0.029697	0.008891	0.024115	0.018535	0.031634	0.009215	0.026454	0.019566	0.033625	0.010011	0.029449	0.018475	0.037989	0.010427	0.031363	0.018460	0.042001	0.011162	0.031984	0.018312	0.042988	0.011110	0.032206	0.017849	0.046975	0.011167	0.032446	0.018335	0.048364	0.011224	0.031613	0.018690	0.050797	0.011313	0.031966	0.018857	0.053961	0.011403	0.035368	0.019700	0.058285	0.011415	0.036041	0.019882	0.060008	0.011977	0.037724	0.020810	0.063311	0.012391	0.045454	0.021718	0.067697	0.013342	0.050071	0.022512	0.073062	0.014271	0.051670	0.022775	0.075372	0.014207	0.052285	0.023507	0.080820	0.014693	0.052906	0.023998	0.087306	0.015488	0.059337	0.024455	0.092789	0.015852	0.063600	0.025459	0.095956	0.016282	0.066638	0.027732	0.112194	0.017290	0.069631	0.032204	0.112573	0.019177	0.080449	0.034465	0.124612	0.022053	0.091828	0.035590	0.130834	0.022870	0.097507	0.037876	0.133084	0.023670	0.110035	0.042231	0.133049	0.025295	0.118217	0.043187	0.133719	0.025889	0.119599	0.043922	0.136054	0.026879	0.122044	0.045102	0.143506	0.027869	0.131260	0.045806	0.147609	0.028583	0.138481	0.048019	0.151701	0.030344	0.146261	0.054852	0.155104	0.031661	0.178275	0.058946	0.154503	0.032605	0.186542	0.062090	0.162274	0.032760	0.189013	0.067546	0.165768	0.034131	0.200056	0.073250	0.169441	0.035046	0.209974	0.074655	0.170295	0.035148	0.210971	0.076463	0.175929	0.035194	0.213296	0.077685	0.176819	0.035376	0.235959	0.080715	0.177537	0.035184	0.250502	0.086430	0.179507	0.034748	0.272739	0.089935	0.180298	0.034567	0.340839	0.093414	0.174408	0.035706	0.368503	0.096035	0.177126	0.037415	0.378356	0.098629	0.188460	0.038486	0.378060	0.111327	0.191616	0.038621	0.416694	0.117173	0.211486	0.042539	0.446373	0.121524	0.228560	0.044658	0.474142	0.126055	0.229822	0.045759	0.490494	0.129381	0.234707	0.045297	0.499207	0.129490	0.231813	0.046388	0.506299	0.131748	0.234928	0.050760	0.527393	0.142122	0.234559	0.052864	0.543455	0.143804	0.234087	0.052890	0.543973	0.144934	0.234414	0.053497	0.556729	0.146516	0.241410	0.056160	0.569856	0.152153	0.236676	0.060276	0.576327	0.153852	0.243054	0.061111	0.585372	0.163074	0.246507	0.062143	0.599494	0.161049	0.254787	0.063060	0.603123	0.159316	0.257023	0.064159	0.588858	0.161391	0.263820	0.064188	0.568890	0.161969	0.265844	0.064511	0.566032	0.164495	0.259969	0.064094	0.585774	0.159267	0.258816	0.066824	0.570398	0.158492	0.253442	0.067699	0.558604	0.154421	0.233059	0.066176	0.524574	0.152883	0.231582	0.067178	0.531555	0.153761	0.258591	0.066999	0.546113	0.160573	0.270944	0.067601	0.536481	0.161701	0.286074	0.069450	0.518638	0.157847	0.286714	0.069489	0.502069	0.157701	0.287942	0.069928	0.498220	0.158401	0.289464	0.069905	0.487411	0.160295	0.285763	0.067738	0.481012	0.159240	0.286919	0.064409	0.488761	0.161906	0.287549	0.065456	0.481969	0.164131	0.306790	0.066573	0.498288	0.165736	0.308594	0.066491	0.499713	0.168486	0.308912	0.067907	0.514305	0.167250	0.311819	0.073720	0.538218	0.175021	0.310257	0.075111	0.575924	0.177543	0.312737	0.075702	0.562551	0.183336	0.317555	0.074859	0.563030	0.183283	0.324671	0.073609	0.572674	0.188765	0.336904	0.075381	0.643347	0.200963	0.346139	0.079369	0.683337	0.209289	0.327332	0.080042	0.732925	0.207254	0.319533	0.079724	0.747992	0.205204	0.313036	0.076474	0.763832	0.208507	0.311100	0.074722	0.776948	0.207916	0.311313	0.075073	0.776829	0.207238	0.310225	0.078598	0.812068	0.211687	0.323589	0.080405	0.841699	0.209762	0.322741	0.081162	0.844155	0.209952	0.327638	0.080239	0.839228	0.204834	0.324197	0.078596	0.829626	0.204666	0.315537	0.080749	0.831870	0.203160	0.328471	0.081756	0.829119	0.204454	0.323920	0.078476	0.808243	0.204676	0.324856	0.078350	0.794295	0.205351	0.327844	0.080293	0.830318	0.206863	0.333652	0.082297	0.863968	0.221302	0.326361	0.082524	0.886703	0.222540	0.321636	0.082774	0.888628	0.212989	0.312110	0.077702	0.840425	0.206637	0.314428	0.080385	0.848370	0.204502	0.317073	0.080195	0.844285	0.204857	0.316708	0.080677	0.836965	0.210647	0.311039	0.080337	0.840298	0.210439	0.314836	0.080095	0.858907	0.212494	0.315746	0.079459	0.868389	0.203990	0.303608	0.078327	0.814981	0.208207	0.297061	0.078426	0.830766	0.208140	0.297826	0.078786	0.845845	0.205915	0.286093	0.078410	0.844169	0.200992	0.271348	0.076079	0.823894	0.199084	0.256039	0.072811	0.812572	0.201793	0.247992	0.071878	0.801986	0.197504	0.241730	0.067238	0.793445	0.188564	0.234929	0.064393	0.762191	0.178405	0.217632	0.058720	0.698897	0.155622	0.217652	0.056768	0.672290	0.150264	0.202214	0.053509	0.604875	0.142945	0.196819	0.052545	0.598814	0.137852	0.191357	0.046902	0.539205	0.139296	0.173207	0.045513	0.473703	0.136117	0.159448	0.043991	0.446726	0.115261	0.157123	0.042199	0.421510	0.110473	0.142627	0.041365	0.377649	0.103924	0.134251	0.037064	0.288300	0.102766	0.127299	0.031820	0.283658	0.094141	0.122549	0.028887	0.242833	0.083113	0.109725	0.030336	0.114968	0.082544	0.098603	0.030127	0.090432	0.081388	0.096414	0.029936	0.069707	0.078916	0.092923	0.030599	0.066152	0.069455	0.088296	0.031575	0.063246	0.065873	0.079895	0.038885	0.059958	0.064905	0.076811	0.058410	0.059534	0.062872	0.070978	0.066454	0.054744	0.062095	0.057549	0.070693	0.010087	0.062053	0.055338	0.071839	0.011269	0.061310	0.044969	0.072536	0.007416	0.061601	0.040543	0.072927	0.006560	0.046866	0.040244	0.073272	0.006090	0.047178	0.049550	0.075071	0.005813	0.047240	0.050676	0.076560	0.005861	0.046924	0.056383	0.079642	0.006145	0.045682	0.060049	0.081031	0.005643	0.045129	0.060123	0.082626	0.005310	0.045563	0.059449	0.084779	0.005306	0.045482	0.061177	0.083839	0.005281	0.044959	0.062567	0.083985	0.005308	0.043586	0.063504	0.084135	0.005277	0.043277	0.063525	0.086987	0.005369	0.042220	0.062631	0.088638	0.005742	0.040269	0.062182	0.091910	0.005670	0.038250	0.072355	0.089538	0.005599	0.038031	0.078468	0.085585	0.005644	0.038205	0.081661	0.088479	0.005616	0.038224	0.081344	0.086487	0.005578	0.038295	0.080001	0.086151	0.005559	0.034436	0.080318	0.087836	0.005562	0.033395	0.080109	0.089543	0.005489	0.034373	0.075911	0.090535	0.005606	0.035807	0.076151	0.091322	0.005705	0.035062	0.073394	0.088738	0.005516	0.036226	0.070272	0.087016	0.004885	0.039116	0.073467	0.085255	0.005197	0.037570	0.074178	0.083045	0.005019	0.038680	0.073235	0.083033	0.005034	0.038594	0.071576	0.083709	0.005048	0.038834	0.070805	0.084346	0.005202	0.038632	0.070897	0.081733	0.005122	0.037943	0.070531	0.081153	0.004724	0.038157	0.070040	0.073230	0.004684	0.038406	0.064391	0.070133	0.004701	0.038347	0.051580	0.061466	0.004640	0.038347	0.043681	0.054422	0.004671	0.038390	0.044803	0.055032	0.004702	0.038128	0.045308	0.054854	0.004731	0.038134	0.045086	0.051653	0.004786	0.037713	0.044906	0.046794	0.004698	0.035463	0.043623	0.043786	0.004658	0.032831	0.040963	0.041035	0.004548	0.033671	0.039865	0.040320	0.004516	0.029272	0.039124	0.040221	0.004441	0.023974	0.029292	0.040040	0.003992	0.023107	0.024610	0.039856	0.003685	0.020619	0.024355	0.040239	0.003695	0.020451	0.023705	0.039324	0.003605	0.020764	0.023364	0.036646	0.003316	0.020762	0.022329	0.034646	0.003224	0.020239	0.022000	0.033877	0.003226	0.020322	0.021705	0.031283	0.003171	0.018317	0.021754	0.027410	0.003110	0.018142	0.019391	0.026628	0.003068	0.017981	0.018559	0.025426	0.003127	0.017351	0.016947	0.022988	0.003296	0.016839	0.014105	0.022757	0.003241	0.016802	0.012950	0.022563	0.003109	0.016937	0.012324	0.022516	0.003126	0.016773	0.010686	0.021136	0.003004	0.016332	0.009765	0.016720	0.002846	0.014947	0.009707	0.015998	0.002817	0.013752	0.009709	0.015474	0.002878	0.013674	0.009720	0.015770	0.002899	0.014137	0.009738	0.016502	0.002925	0.014838	0.009723	0.014875	0.002901	0.014926	0.009631	0.013611	0.002865	0.014097	0.009248	0.013609	0.002901	0.013308	0.009196	0.013619	0.002928	0.013486	0.009341	0.013650	0.002928	0.014251	0.009827	0.013444	0.002911	0.014185	0.011280	0.010932	0.002933	0.013943	0.011253	0.009774	0.003100	0.013191	0.011204	0.009363	0.003072	0.013248	0.011112	0.009272	0.002929	0.013190	0.011055	0.008916	0.002895	0.013347	0.011075	0.008791	0.002925	0.012949	0.011096	0.008687	0.002911	0.012956	0.010530	0.008688	0.002870	0.013239	0.010128	0.008702	0.002898	0.015268	0.009947	0.008756	0.002953	0.015264	0.009882	0.008677	0.002922	0.015250	0.009782	0.007738	0.002898	0.014861	0.009777	0.004950	0.002908	0.014069	0.009683	0.004916	0.002882	0.013904	0.009691	0.004423	0.002878	0.013978	0.009783	0.004401	0.002898	0.014015	0.010012	0.004397	0.002911	0.014064	0.010167	0.004310	0.002923	0.013308	0.009934	0.004380	0.002980	0.012847	0.007336	0.004256	0.002953	0.012810	0.007143	0.004189	0.002794	0.012780	0.007131	0.004136	0.002766	0.012593	0.007486	0.004046	0.002718	0.012298	0.006754	0.004041	0.002729	0.012024	0.006769	0.004007	0.002796	0.011803	0.006820	0.004013	0.002724	0.011704	0.007085	0.004325	0.002748	0.011696	0.007018	0.004427	0.002722	0.009711	0.007122	0.004304	0.002653	0.011222	0.007192	0.004432	0.002683	0.011301	0.007211	0.004522	0.002689	0.011282	0.007244	0.004510	0.002691	0.011243	0.007249	0.004526	0.002764	0.011268	0.007483	0.004675	0.002787	0.011228	0.007517	0.004710	0.002754	0.011145	0.007458	0.004699	0.002708	0.011046	0.006895	0.004691	0.002731	0.010669	0.006953	0.004552	0.002652	0.010815	0.007275	0.004721	0.002693	0.011062	0.007216	0.004772	0.002700	0.011035	0.007153	0.004726	0.002734	0.011136	0.006636	0.004788	0.002716	0.011318	0.006560	0.004739	0.002685	0.011495	0.006535	0.004877	0.002594	0.012446	0.006462	0.004899	0.002634	0.012792	0.006074	0.004685	0.002623	0.013045	0.006053	0.004516	0.002678	0.012901	0.005982	0.004476	0.002709	0.011323	0.005850	0.004354	0.002722	0.010830	0.005769	0.004288	0.002742	0.010934	0.005705	0.004261	0.002752	0.010885	0.005707	0.004300	0.002708	0.011092	0.005503	0.004221	0.002692	0.011087	0.005413	0.003998	0.002690	0.011072	0.005341	0.003905	0.002798	0.011029	0.005324	0.003809	0.002861	0.011049	0.005278	0.003790	0.002883	0.011026	0.005061	0.003696	0.002936	0.010922	0.005216	0.003734	0.002974	0.011579	0.005427	0.003680	0.002914	0.012851	0.005439	0.003637	0.002915	0.012656	0.005773	0.003643	0.002900	0.012579	0.005690	0.003438	0.002935	0.012078	0.005723	0.003358	0.002892	0.011423	0.005696	0.003375	0.002901	0.011332	0.005714	0.003392	0.002997	0.011231	0.005604	0.003370	0.002991	0.011119	0.005596	0.003441	0.003035	0.010946	0.005651	0.003391	0.003013	0.010571	0.005859	0.003455	0.003020	0.010585	0.005857	0.003452	0.003048	0.010398	0.005671	0.003539	0.003050	0.010397	0.005913	0.003555	0.003185	0.010615	0.005816	0.003569	0.003155	0.010631	0.005857	0.003567	0.003064	0.011824	0.005826	0.003707	0.003055	0.012725	0.005668	0.003980	0.003029	0.012635	0.005627	0.003901	0.002956	0.012534	0.005393	0.004028	0.003007	
416 1
-0.011111	-0.011111	-0.011111	-0.011111	-0.011111	-0.011111	-0.011111	-0.011111	-0.011111	-0.011111	-0.011111	-0.011111	-0.011111	-0.011111	-0.011111	-0.011111	-0.011111	-0.011111	-0.011111	-0.011111	-0.011111	-0.011111	-0.011111	-0.011111	-0.011111	-0.011111	-0.011111	-0.011111	-0.011111	-0.011111	-0.011111	-0.011111	-0.011111	-0.011111	-0.011111	-0.011111	-0.011111	-0.011111	-0.011111	-0.011111	-0.011111	-0.011111	-0.011111	-0.011111	-0.011111	-0.011111	-0.011111	-0.011111	-0.011111	-0.011111	-0.011111	-0.011111	-0.011111	-0.011111	-0.011111	-0.011111	-0.011111	-0.011111	-0.011111	-0.011111	-0.011111	-0.011111	-0.011111	-0.011111	-0.011111	-0.011111	-0.011111	-0.011111	-0.011111	-0.011111	-0.011111	-0.011111	-0.011111	-0.011111	-0.011111	-0.011111	-0.011111	-0.011111	-0.011111	-0.011111	-0.011111	-0.011111	-0.011111	-0.011111	-0.011111	-0.011111	-0.011111	-0.011111	-0.011111	-0.011111	-0.011111	-0.011111	-0.011111	-0.011111	-0.011111	-0.011111	-0.011111	-0.011111	-0.011111	-0.011111	-0.011111	-0.011111	-0.011111	-0.011111	-0.011111	-0.011111	-0.015695	-0.021621	-0.022129	-0.022211	-0.022222	-0.022223	-0.022222	-0.032135	-0.033016	-0.033248	-0.033313	-0.034556	-0.044558	-0.055158	-0.055370	-0.063733	-0.069590	-0.078057	-0.088309	-0.092564	-0.102507	-0.116229	-0.127767	-0.138215	-0.150757	-0.166200	-0.166751	-0.186189	-0.192468	-0.207044	-0.219174	-0.231634	-0.243600	-0.265567	-0.276992	-0.288466	-0.310576	-0.318923	-0.335229	-0.367575	-0.375684	-0.406021	-0.431694	-0.448687	-0.470177	-0.501151	-0.525478	-0.560044	-0.571209	-0.583334	-0.599512	-0.624639	-0.635095	-0.658379	-0.668166	-0.688312	-0.689035	-0.702511	-0.721832	-0.724384	-0.733617	-0.745276	-0.753739	-0.755299	-0.768182	-0.766915	-0.779173	-0.777928	-0.777790	-0.790488	-0.789128	-0.788922	-0.788891	-0.788888	-0.788889	-0.790608	-0.800456	-0.800074	-0.800013	-0.801229	-0.811226	-0.811190	-0.811138	-0.811118	-0.811113	-0.811111	-0.811111	-0.811113	-0.823611	-0.822387	-0.822235	-0.822220	-0.822221	-0.822222	-0.822222	-0.829549	-0.832763	-0.833217	-0.833312	-0.833330	-0.833333	-0.833333	-0.833333	-0.845512	-0.844517	-0.844434	-0.844437	-0.844442	-0.844444	-0.844444	-0.844444	-0.844444	-0.847566	-0.855404	-0.855560	-0.855565	-0.855559	-0.855556	-0.855556	-0.855556	-0.866816	-0.866556	-0.866618	-0.866652	-0.866663	-0.866666	-0.866667	-0.866667	-0.866667	-0.866667	-0.866667	-0.866667	-0.866667	-0.866667	-0.866667	-0.866333	-0.854690	-0.850458	-0.844113	-0.844396	-0.833178	-0.833443	-0.821605	-0.813143	-0.809789	-0.790114	-0.765556	-0.749589	-0.730679	-0.715416	-0.691945	-0.672652	-0.643896	-0.627042	-0.604610	-0.515342	-0.517649	-0.515734	-0.513129	-0.506183	-0.479880	-0.459108	-0.437436	-0.414128	-0.397693	-0.377333	-0.367767	-0.344230	-0.328470	-0.304213	-0.286874	-0.270140	-0.255496	-0.240927	-0.233740	-0.214469	-0.198234	-0.181591	-0.169198	-0.167104	-0.154331	-0.143177	-0.135169	-0.132892	-0.119569	-0.110534	-0.101480	-0.089472	-0.085833	-0.077558	-0.074761	-0.067090	-0.065377	-0.055048	-0.054160	-0.044007	-0.038719	-0.033337	-0.033321	-0.030801	-0.022233	-0.022188	-0.022207	-0.022218	-0.022176	-0.009630	-0.010843	-0.011063	-0.011104	-0.011110	-0.011111	-0.011111	-0.011111	-0.011111	-0.011111	-0.011111	-0.011111	-0.011111	-0.011111	-0.011111	-0.011111	-0.011111	-0.011111	-0.011111	-0.011111	-0.011111	-0.011111	-0.011111	-0.011111	-0.011111	-0.011111	-0.011111	-0.011111	-0.011111	-0.011111	-0.011111	-0.011111	-0.011111	-0.011111	-0.011111	-0.011111	-0.011111	-0.011111	-0.011111	-0.011111	-0.011111	-0.011111	-0.011111	-0.011111	-0.011111	-0.011111	-0.011111	-0.011111	-0.011111	-0.011111	-0.011111	-0.011111	-0.014553	-0.022465	-0.022275	-0.022235	-0.022225	-0.022223	-0.022222	-0.022222	-0.022222	-0.022222	-0.022222	-0.022222	-0.022222	-0.022222	-0.022222	-0.022222	-0.022222	-0.022222	-0.022222	-0.022222	-0.022222	-0.022222	-0.022222	-0.022222	-0.022222	-0.022222	-0.022222	-0.022222	-0.022222	-0.022222	-0.022222	-0.022222	-0.022222	-0.022222	-0.022222	-0.022222	-0.022222	-0.022222	-0.022222	-0.022222	-0.022222	-0.022222	-0.022222	-0.022222	-0.022222	-0.022222	-0.022222	-0.022222	-0.022222	-0.022222	-0.022222	-0.022222	-0.022222	
389 4
0.012534	0.005393	0.004028	0.003007	0.010981	0.005462	0.004060	0.003049	0.011188	0.005208	0.004019	0.003009	0.011150	0.005341	0.004034	0.002993	0.010889	0.005267	0.004039	0.002975	0.010860	0.005448	0.004099	0.002973	0.010819	0.005541	0.004138	0.002918	0.010885	0.005722	0.004213	0.002874	0.011584	0.005921	0.004258	0.002977	0.012170	0.005856	0.004251	0.002975	0.012255	0.005537	0.004207	0.003022	0.012582	0.005645	0.004151	0.003042	0.012458	0.005631	0.004073	0.003015	0.012626	0.005518	0.004071	0.002909	0.012687	0.005505	0.004072	0.003002	0.012773	0.005519	0.004118	0.002998	0.012454	0.005696	0.004254	0.003103	0.010735	0.005942	0.004062	0.003124	0.010690	0.005958	0.003899	0.003220	0.010488	0.005895	0.003722	0.003225	0.011094	0.005870	0.003783	0.003209	0.010834	0.005838	0.003766	0.003230	0.011135	0.005901	0.003777	0.003295	0.011517	0.006114	0.003857	0.003363	0.011507	0.005999	0.003740	0.003558	0.011744	0.005865	0.003701	0.003561	0.011455	0.005688	0.003740	0.003528	0.010946	0.005583	0.003676	0.003443	0.010442	0.005666	0.003668	0.003564	0.010467	0.005846	0.003785	0.003524	0.010500	0.005804	0.003864	0.003510	0.010465	0.005908	0.004055	0.003513	0.010462	0.005987	0.004020	0.003466	0.010559	0.005988	0.004006	0.003366	0.010984	0.006022	0.003998	0.003320	0.010984	0.006003	0.003758	0.003321	0.010867	0.005649	0.003813	0.003228	0.010898	0.005590	0.003916	0.003140	0.010886	0.005805	0.003912	0.003097	0.010175	0.005813	0.003772	0.003081	0.010182	0.005820	0.003937	0.003138	0.009918	0.005778	0.003981	0.003148	0.009447	0.005620	0.003892	0.003149	0.009440	0.005645	0.004094	0.003050	0.009784	0.005568	0.004053	0.003031	0.011272	0.005594	0.003942	0.002995	0.011109	0.005566	0.003945	0.003161	0.010943	0.005626	0.003943	0.003009	0.010858	0.005437	0.003870	0.003000	0.010578	0.005608	0.004020	0.003069	0.010550	0.005494	0.003740	0.003425	0.010408	0.005465	0.003747	0.003612	0.010271	0.005726	0.003965	0.003673	0.009455	0.005735	0.003941	0.003688	0.009290	0.005548	0.003953	0.003649	0.009265	0.005739	0.003862	0.003672	0.009264	0.005753	0.003752	0.003645	0.009491	0.005646	0.003758	0.003645	0.009833	0.005711	0.003897	0.003667	0.009729	0.005585	0.003854	0.003635	0.009797	0.005519	0.003850	0.003603	0.009861	0.005474	0.003944	0.003553	0.009963	0.005543	0.003813	0.003503	0.009597	0.005581	0.003781	0.003491	0.007289	0.005617	0.003841	0.003487	0.007442	0.005668	0.003870	0.003469	0.007493	0.005503	0.003844	0.003489	0.007603	0.005493	0.003886	0.003418	0.007662	0.005354	0.003678	0.003451	0.007618	0.005322	0.003667	0.003190	0.007600	0.005327	0.003721	0.002964	0.008100	0.004872	0.003566	0.002896	0.009567	0.004791	0.003557	0.002931	0.009513	0.004846	0.003513	0.003020	0.009547	0.004784	0.003548	0.003021	0.009643	0.004804	0.003552	0.003068	0.009479	0.004709	0.003574	0.003105	0.009005	0.004568	0.003487	0.003066	0.009107	0.004605	0.003368	0.003070	0.009113	0.004712	0.003320	0.003069	0.008913	0.004682	0.003158	0.003092	0.008965	0.004545	0.003147	0.003115	0.009099	0.004577	0.003162	0.003115	0.009657	0.004512	0.003215	0.003131	0.010341	0.004414	0.003137	0.003016	0.010313	0.004381	0.003228	0.002947	0.010222	0.005006	0.003460	0.003006	0.010189	0.005088	0.003579	0.002961	0.010213	0.005024	0.003613	0.002974	0.010216	0.005082	0.003603	0.003035	0.010108	0.005245	0.003491	0.003012	0.009605	0.005317	0.003501	0.003000	0.010250	0.005412	0.003526	0.002941	0.010232	0.005321	0.003407	0.002916	0.010133	0.005336	0.003564	0.002894	0.010077	0.005364	0.003983	0.002886	0.010055	0.005449	0.003992	0.002950	0.009968	0.005549	0.004067	0.002944	0.009890	0.005548	0.004072	0.002886	0.010678	0.006426	0.004162	0.002872	0.010693	0.006634	0.004210	0.002830	0.010654	0.006769	0.004364	0.002831	0.010921	0.006870	0.004514	0.002803	0.011579	0.006912	0.004920	0.002842	0.021394	0.008239	0.005419	0.002876	0.028240	0.009150	0.005627	0.002897	0.030067	0.009910	0.005959	0.003760	0.030329	0.016655	0.006262	0.006406	0.031190	0.019700	0.007377	0.007577	0.031208	0.021443	0.007528	0.008226	0.031240	0.026971	0.007586	0.009688	0.031236	0.029517	0.007937	0.011935	0.031922	0.029763	0.008094	0.013632	0.032267	0.032300	0.008145	0.014537	0.032276	0.033364	0.008389	0.015498	0.032548	0.035393	0.009117	0.017290	0.032605	0.037148	0.009718	0.021153	0.033275	0.039143	0.010033	0.027178	0.033220	0.041876	0.010252	0.028175	0.033149	0.043993	0.010885	0.028472	0.033511	0.044866	0.011547	0.028757	0.033502	0.046757	0.011820	0.029574	0.033943	0.048028	0.011860	0.029915	0.032021	0.050200	0.011894	0.035922	0.026251	0.051604	0.012862	0.039868	0.025621	0.052893	0.014500	0.042019	0.025519	0.058158	0.014870	0.042771	0.025010	0.059184	0.014702	0.044010	0.024839	0.063760	0.014900	0.046617	0.024909	0.066731	0.015011	0.047347	0.025402	0.065971	0.015324	0.053733	0.026644	0.068226	0.015477	0.059161	0.027019	0.072347	0.015583	0.059545	0.027671	0.081626	0.015885	0.062050	0.028597	0.088112	0.016442	0.064509	0.031991	0.090651	0.016278	0.066897	0.032651	0.090084	0.016997	0.075871	0.034872	0.092141	0.017734	0.083483	0.037215	0.094799	0.018609	0.087670	0.041426	0.103859	0.018845	0.089030	0.042707	0.116140	0.018748	0.095940	0.042982	0.117082	0.019502	0.097699	0.043117	0.119478	0.019830	0.104417	0.043098	0.125159	0.022407	0.110198	0.047043	0.127778	0.022583	0.115893	0.049349	0.129643	0.024672	0.127534	0.054369	0.135400	0.026022	0.155948	0.060102	0.139591	0.027315	0.158543	0.061188	0.142421	0.028663	0.162029	0.068125	0.146772	0.029442	0.173450	0.070966	0.149069	0.029974	0.177756	0.073365	0.150099	0.034052	0.184311	0.076565	0.151804	0.037658	0.199673	0.078265	0.162467	0.040363	0.260042	0.081797	0.167967	0.042824	0.269843	0.084882	0.175251	0.044409	0.298240	0.089878	0.182276	0.045792	0.314101	0.090319	0.184580	0.045798	0.335984	0.092222	0.186197	0.047885	0.360771	0.095251	0.181415	0.052396	0.371427	0.101457	0.203155	0.059282	0.391838	0.103540	0.208802	0.060474	0.435087	0.107404	0.205909	0.060774	0.450449	0.112235	0.207644	0.062281	0.473005	0.118063	0.209257	0.063550	0.478619	0.119198	0.213310	0.063957	0.490127	0.117238	0.211349	0.064012	0.547603	0.117567	0.215839	0.067614	0.551943	0.118079	0.215010	0.068209	0.553127	0.120153	0.219325	0.070988	0.556922	0.125303	0.221044	0.071970	0.565174	0.131982	0.222078	0.069980	0.572953	0.133642	0.215546	0.069266	0.572302	0.133633	0.217769	0.069365	0.619350	0.140781	0.213626	0.072366	0.611150	0.144918	0.212394	0.077171	0.612030	0.146292	0.226245	0.078450	0.607526	0.145720	0.230331	0.079288	0.599577	0.143871	0.229596	0.078002	0.596214	0.145186	0.228876	0.074065	0.591952	0.143619	0.230563	0.074023	0.562518	0.149869	0.238068	0.075325	0.581842	0.151488	0.241551	0.076242	0.587174	0.148484	0.241180	0.075424	0.582851	0.147410	0.246989	0.075103	0.584253	0.147549	0.251539	0.076975	0.528238	0.146878	0.252910	0.074215	0.519855	0.147962	0.257557	0.073169	0.533462	0.149084	0.259451	0.072198	0.538625	0.145960	0.266131	0.070704	0.535199	0.142418	0.265620	0.073611	0.547758	0.145461	0.274544	0.076068	0.572349	0.149297	0.318878	0.075771	0.545537	0.148518	0.322728	0.074393	0.554275	0.138292	0.329825	0.068841	0.554428	0.139336	0.329747	0.067874	0.566986	0.144719	0.332628	0.070428	0.571181	0.145858	0.333325	0.070027	0.568553	0.147844	0.342284	0.070701	0.583198	0.150582	0.354075	0.072977	0.588763	0.150852	0.355873	0.070993	0.575030	0.143925	0.356968	0.068834	0.563574	0.145786	0.374707	0.069871	0.618830	0.147193	0.380862	0.071494	0.624426	0.147499	0.380272	0.069513	0.629013	0.149077	0.375598	0.069851	0.634809	0.153052	0.391710	0.072446	0.662080	0.147119	0.392043	0.071444	0.651594	0.151831	0.395286	0.071876	0.651460	0.150505	0.400087	0.068481	0.635784	0.144457	0.397737	0.066258	0.614007	0.139318	0.369005	0.064278	0.574049	0.133943	0.360093	0.066291	0.557698	0.137358	0.355506	0.067812	0.543700	0.136219	0.340866	0.067088	0.520041	0.129471	0.336780	0.063931	0.508954	0.127885	0.336823	0.062008	0.505830	0.123964	0.332121	0.060803	0.484018	0.116339	0.298479	0.056284	0.472955	0.112510	0.294789	0.055281	0.470036	0.108375	0.287927	0.054573	0.448448	0.103859	0.265173	0.053042	0.340482	0.099921	0.240842	0.050032	0.332070	0.097187	0.234115	0.049991	0.306156	0.094439	0.232116	0.049042	0.296599	0.086856	0.194961	0.045427	0.201005	0.085658	0.185591	0.044220	0.179034	0.075638	0.172810	0.042158	0.148621	0.070773	0.147257	0.041868	0.144026	0.069640	0.134516	0.041569	0.121897	0.066989	0.117310	0.041341	0.105774	0.065421	0.110344	0.036993	0.099304	0.059229	0.107625	0.034754	0.098267	0.056922	0.106546	0.030604	0.097396	0.053010	0.102693	0.029224	0.095815	0.052944	0.084225	0.032124	0.092987	0.047936	0.072697	0.037034	0.087756	0.048539	0.059451	0.039496	0.067303	0.047634	0.054459	0.041529	0.024881	0.047582	0.054888	0.046986	0.019572	0.047116	0.056180	0.051667	0.016290	0.046003	0.056307	0.062495	0.015697	0.045288	0.056753	0.066068	0.015640	0.046099	0.059701	0.069425	0.015593	0.045865	0.059070	0.077851	0.015510	0.046035	0.058289	0.087553	0.015247	0.044696	0.058519	0.088469	0.014774	0.044736	0.063659	0.090524	0.009191	0.045777	0.062941	0.093533	0.005672	0.046562	0.063131	0.096509	0.006002	0.046561	0.060964	0.098907	0.005838	0.045864	0.061630	0.100704	0.005801	0.042849	0.061223	0.101769	0.005811	0.045004	0.061406	0.106953	0.005913	0.044668	0.064698	0.108184	0.005837	0.046327	0.068476	0.112259	0.005564	0.045282	0.067777	0.112646	0.005331	0.044729	0.066616	0.112331	0.005268	0.043530	0.066336	0.112423	0.005093	0.042916	0.064977	0.112461	0.005084	0.043246	0.065111	0.110276	0.005105	0.039347	0.064405	0.110598	0.005153	0.037942	0.063234	0.108789	0.005065	0.039708	0.062346	0.102641	0.005269	0.039347	0.061390	0.095847	0.005164	0.039349	0.059330	0.094318	0.005075	0.038904	0.053148	0.092419	0.004908	0.037689	0.051569	0.089602	0.004899	0.036829	0.050243	0.094208	0.004646	0.036661	0.049883	0.098424	0.004455	0.037309	0.048049	0.098746	0.004469	0.037040	0.045457	0.098864	0.004489	0.034160	0.044664	0.094942	0.004485	0.031688	0.040260	0.092928	0.004377	0.029134	0.029712	0.085637	0.004328	0.028033	0.028858	0.082639	0.004240	0.026965	0.028529	0.081568	0.004275	0.026863	0.028019	0.079506	0.004276	0.026781	0.027219	0.076983	0.004236	0.025725	0.026256	0.070578	0.004162	0.023698	0.025726	0.066566	0.004112	0.022805	0.020362	0.065323	0.004007	0.020307	0.016726	0.064785	0.003782	0.018118	0.013055	0.064198	0.003598	0.016318	0.012500	0.063720	0.003533	0.016194	0.012435	0.063084	0.003493	0.015977	0.012373	0.062109	0.003432	0.015120	0.011559	0.051811	0.003455	0.015009	0.007086	0.036745	0.003321	0.012195	0.006708	0.031677	0.003247	0.008977	0.005364	0.014026	0.003262	0.008910	0.004831	0.012504	0.003090	0.009483	0.004786	0.010572	0.003011	0.009772	0.004568	0.010482	0.002911	0.009780	0.004494	0.010480	0.002951	0.009828	0.004507	0.010451	0.002911	0.009768	0.004349	0.010446	0.002896	0.009629	0.004361	0.010330	0.002923	0.008942	0.004640	0.008208	0.002932	0.008651	0.004570	0.006281	0.002865	0.008610	0.004576	0.005967	0.002798	0.008596	0.004751	0.005479	0.002736	0.008574	0.004876	0.005077	0.002744	0.008673	0.004871	0.004759	0.002770	0.008823	0.005084	0.004363	0.002766	0.010123	0.005039	0.004293	0.002776	0.010287	0.004978	0.004104	0.002714	0.009755	0.004989	0.004116	0.002870	0.009651	0.004874	0.003924	0.002807	0.009850	0.004895	0.003991	0.002776	0.009791	0.004926	0.004078	0.002771	0.009406	0.005023	0.003966	0.002757	0.008796	0.005025	0.004053	0.002748	0.009739	0.004907	0.004122	0.002693	0.010268	0.004971	0.004170	0.002770	0.010463	0.004940	0.004144	0.002755	0.010405	0.004982	0.004136	0.002810	0.010433	0.004807	0.004127	0.002757	0.010667	0.004852	0.004189	0.002748	0.010816	0.004947	0.004247	0.002769	0.010923	0.004823	0.004261	0.002819	0.012034	0.004785	0.004262	0.002805	0.012010	0.004724	0.004235	0.002797	0.011943	0.005073	0.004068	0.002893	0.010996	0.005151	0.003956	0.002900	0.010485	0.005198	0.003947	0.002984	0.010408	0.005186	0.003994	0.002913	0.010380	0.005148	0.004041	0.002884	0.010174	0.005293	0.003996	0.002891	0.010113	0.005285	0.003886	0.002840	0.010063	0.005222	0.003896	0.002824	0.010055	0.005367	0.003772	0.002835	0.009270	0.005364	0.003784	0.002877	0.008501	0.005340	0.003711	0.002888	0.008214	0.005392	0.003743	0.002909	0.008268	0.005647	0.003750	0.002928	0.008286	0.005630	0.003704	0.002908	0.008109	0.005663	0.003459	0.002930	0.009164	0.005501	0.003324	0.002947	0.009280	0.005428	0.003379	0.002938	0.007937	0.005350	0.003441	0.003014	0.007612	0.005317	0.003477	0.003035	0.007517	0.005033	0.003514	0.002991	0.008091	0.004772	0.003829	0.002974	0.008092	0.004712	0.003848	0.002906	0.008602	0.004741	0.003794	0.002942	0.008710	0.004842	0.003767	0.003069	0.008774	0.004751	0.003773	0.003046	0.009154	0.004722	0.003778	0.003032	0.009224	0.004817	0.003701	0.003029	0.009151	0.004800	0.004030	0.003063	0.009106	0.005018	0.003866	0.003139	0.009373	0.005062	0.003832	0.003217	0.010914	0.005217	0.003857	0.003240	0.010981	0.004897	0.003856	0.003202	0.011082	0.004922	0.003882	0.003286	0.011015	0.004936	0.003885	0.003282	0.010297	0.004993	0.003898	0.003328	0.009837	0.005117	0.003884	0.003438	0.009895	0.005277	0.003897	0.003487	0.010023	0.005282	0.003795	0.003477	0.010092	0.005333	0.003864	0.003449	0.009739	0.005318	0.003605	0.003486	0.009532	0.005440	0.003570	0.003496	0.009341	0.005628	0.003538	0.003427	0.009634	0.005558	0.003514	0.003299	0.010421	0.005526	0.003454	0.003358	0.010076	0.005529	0.003521	0.003344	0.010149	0.005435	0.003557	0.003399	0.010272	0.005383	0.003194	0.003365	0.010301	0.005222	0.003286	0.003408	0.010781	0.005122	0.003327	0.003246	0.009480	0.004939	0.003478	0.003232	0.008986	0.005121	0.003474	0.003207	0.008839	0.005052	0.003420	0.003097	0.008788	0.004906	0.003581	0.003123	0.008878	0.004950	0.003640	0.003114	0.009622	0.004891	0.003662	0.003139	0.009761	0.004793	0.003540	0.003012	0.009655	0.004804	0.003627	0.003080	0.009495	0.004745	0.003574	0.003083	0.009474	0.004616	0.003542	0.003066	0.009588	0.004566	0.003541	0.003016	0.009538	0.004228	0.003553	0.003000	0.009347	0.004472	0.003547	0.003002	0.008489	0.004526	0.003698	0.002963	0.008489	0.004624	0.003673	0.002973	0.008406	0.004517	0.003745	0.002924	0.008441	0.004507	0.003744	0.002956	
389 1
-0.022222	-0.022222	-0.022222	-0.022222	-0.022222	-0.022222	-0.022222	-0.022222	-0.022222	-0.022222	-0.022222	-0.022222	-0.022222	-0.022222	-0.022222	-0.022222	-0.022222	-0.022222	-0.022222	-0.022222	-0.022222	-0.022222	-0.022222	-0.022222	-0.022222	-0.022222	-0.022222	-0.022222	-0.022222	-0.022222	-0.022222	-0.022222	-0.022222	-0.022222	-0.022222	-0.022222	-0.022222	-0.022222	-0.022222	-0.022222	-0.022222	-0.022222	-0.022222	-0.022222	-0.022222	-0.022222	-0.022222	-0.022222	-0.022222	-0.022222	-0.022222	-0.022222	-0.022222	-0.022222	-0.022222	-0.022222	-0.022222	-0.022222	-0.022222	-0.022222	-0.022222	-0.022222	-0.022222	-0.022222	-0.022222	-0.022222	-0.022222	-0.022222	-0.022222	-0.022222	-0.022222	-0.022222	-0.022222	-0.022222	-0.022222	-0.022222	-0.022222	-0.022222	-0.022222	-0.022222	-0.022222	-0.022222	-0.022222	-0.022222	-0.022222	-0.022222	-0.022222	-0.022222	-0.022222	-0.022222	-0.022222	-0.022222	-0.022222	-0.022222	-0.022222	-0.022222	-0.022222	-0.022222	-0.022222	-0.022222	-0.022222	-0.022222	-0.022222	-0.022222	-0.022222	-0.022222	-0.022222	-0.022222	-0.022222	-0.022222	-0.022222	-0.022222	-0.022222	-0.022228	-0.034936	-0.033574	-0.045546	-0.044520	-0.050610	-0.061923	-0.072985	-0.077259	-0.090426	-0.101443	-0.120142	-0.142685	-0.155578	-0.166718	-0.180360	-0.196836	-0.212494	-0.237818	-0.260195	-0.280309	-0.303490	-0.324991	-0.348647	-0.376056	-0.393659	-0.424678	-0.463886	-0.470028	-0.491889	-0.525502	-0.550054	-0.588176	-0.614550	-0.640787	-0.676930	-0.701330	-0.729467	-0.740636	-0.757571	-0.777314	-0.785254	-0.802615	-0.811920	-0.827420	-0.834762	-0.850059	-0.855725	-0.859352	-0.866143	-0.866599	-0.866707	-0.879260	-0.878047	-0.877826	-0.890251	-0.889035	-0.888896	-0.888885	-0.888887	-0.888888	-0.888889	-0.888889	-0.888889	-0.888889	-0.888889	-0.888889	-0.888889	-0.888889	-0.888889	-0.888889	-0.888907	-0.901581	-0.900263	-0.900043	-0.900005	-0.900000	-0.900000	-0.900000	-0.900000	-0.900000	-0.900000	-0.900000	-0.900000	-0.900000	-0.900000	-0.900000	-0.900000	-0.900000	-0.900000	-0.900000	-0.900000	-0.900000	-0.899999	-0.892996	-0.888996	-0.888901	-0.888889	-0.888888	-0.888889	-0.888889	-0.882855	-0.878213	-0.867939	-0.865767	-0.855527	-0.846689	-0.844775	-0.831876	-0.823137	-0.816937	-0.797661	-0.787719	-0.761057	-0.748634	-0.720122	-0.688136	-0.673376	-0.645772	-0.635125	-0.621279	-0.598705	-0.586867	-0.564202	-0.542889	-0.509181	-0.489105	-0.461300	-0.442448	-0.412421	-0.392550	-0.374181	-0.349329	-0.328021	-0.311949	-0.294029	-0.282269	-0.259312	-0.240389	-0.220774	-0.198450	-0.188200	-0.176333	-0.165748	-0.153005	-0.141821	-0.126623	-0.112857	-0.105641	-0.099973	-0.084224	-0.074392	-0.066078	-0.050155	-0.044200	-0.034203	-0.031843	-0.021795	-0.010667	-0.011038	-0.003466	0.007561	0.011039	0.011107	0.011113	0.014857	0.021685	0.022151	0.022218	0.021948	0.010030	0.010923	0.011078	0.011106	0.011111	0.011111	0.011111	0.011097	0.010814	0.010517	0.010219	0.009921	0.009623	0.009325	0.009026	0.008728	0.008430	0.008131	0.007833	0.007535	0.007237	0.006938	0.006640	0.006342	0.006043	0.005745	0.005447	0.005149	0.004850	0.004552	0.004254	0.003955	0.003657	0.003359	0.003061	0.002762	0.002464	0.002166	0.001868	0.001569	0.001271	0.000973	0.000674	0.000376	0.000078	-0.000220	-0.000519	-0.000817	-0.001115	-0.001414	-0.001712	-0.002010	-0.002308	-0.002607	-0.002905	-0.003203	-0.003502	-0.003800	-0.004098	-0.004396	-0.004695	-0.004993	-0.005291	-0.005590	-0.005888	-0.006186	-0.006484	-0.006783	-0.007081	-0.007379	-0.007678	-0.007976	-0.008274	-0.008572	-0.008871	-0.009169	-0.009467	-0.009766	-0.010064	-0.010362	-0.010660	-0.010959	-0.011117	-0.011112	-0.011111	-0.011111	-0.011111	-0.011111	-0.011111	-0.011111	-0.011111	-0.011111	-0.011111	-0.011111	-0.011111	-0.011111	-0.011111	-0.011111	-0.011111	-0.011111	-0.011111	-0.011111	-0.011111	-0.011111	-0.011111	-0.011111	
418 4
0.008441	0.004507	0.003744	0.002956	0.008424	0.004455	0.003762	0.002937	0.008444	0.004658	0.003799	0.002897	0.008458	0.004680	0.003595	0.002827	0.008559	0.004528	0.003528	0.002843	0.008842	0.004510	0.003569	0.002896	0.008955	0.004486	0.003452	0.002862	0.008766	0.004324	0.003428	0.002836	0.008240	0.004505	0.003383	0.002759	0.007887	0.004377	0.003347	0.002749	0.008321	0.004485	0.003264	0.002731	0.008794	0.004524	0.003263	0.002725	0.008953	0.004684	0.003223	0.002770	0.008918	0.004790	0.003167	0.002835	0.009107	0.004800	0.003158	0.002899	0.010242	0.004640	0.003255	0.003030	0.010319	0.004592	0.003097	0.003133	0.010300	0.004504	0.003076	0.003137	0.010354	0.004703	0.002959	0.003123	0.010212	0.004834	0.002992	0.003179	0.010267	0.004823	0.003081	0.003257	0.010089	0.004595	0.003026	0.003396	0.009902	0.004643	0.003109	0.003513	0.010631	0.004713	0.003248	0.003524	0.010382	0.004654	0.003261	0.003542	0.010487	0.004692	0.003278	0.003530	0.010557	0.004690	0.003361	0.003548	0.011179	0.004530	0.003402	0.003518	0.011660	0.004682	0.003445	0.003492	0.011555	0.004570	0.003448	0.003429	0.011195	0.004613	0.003581	0.003409	0.011018	0.004519	0.003684	0.003405	0.011027	0.004329	0.003774	0.003323	0.010903	0.004321	0.003783	0.003394	0.010188	0.004299	0.003746	0.003288	0.009557	0.004402	0.003849	0.003150	0.010123	0.004573	0.004075	0.003175	0.010018	0.004480	0.004062	0.003151	0.010088	0.004338	0.003989	0.003150	0.010232	0.004567	0.003907	0.003015	0.011188	0.004582	0.003997	0.002911	0.011180	0.004516	0.004004	0.002698	0.010378	0.004530	0.004023	0.002775	0.010426	0.004613	0.004093	0.002803	0.010337	0.004762	0.004005	0.002868	0.010336	0.004746	0.003952	0.002823	0.009975	0.004745	0.003914	0.002869	0.009062	0.004701	0.003788	0.002884	0.009069	0.004805	0.003970	0.002913	0.009061	0.004772	0.003907	0.002914	0.008965	0.004812	0.003933	0.002901	0.008875	0.005154	0.003826	0.002961	0.009015	0.005132	0.003888	0.002862	0.009625	0.005127	0.003887	0.002837	0.009742	0.005066	0.003889	0.002877	0.009080	0.004814	0.003706	0.002878	0.009128	0.004788	0.003716	0.002938	0.009121	0.004811	0.003902	0.002958	0.009112	0.004687	0.003900	0.003014	0.008231	0.004723	0.003823	0.002993	0.007988	0.004741	0.003841	0.003002	0.007956	0.004669	0.003732	0.002990	0.007997	0.004646	0.003745	0.003186	0.007878	0.004765	0.003775	0.003235	0.008826	0.004727	0.003782	0.003289	0.010588	0.004730	0.003878	0.003329	0.010535	0.004699	0.004033	0.003292	0.010564	0.004926	0.003960	0.003351	0.010642	0.004805	0.003862	0.003503	0.010825	0.004825	0.003782	0.003658	0.010817	0.004774	0.003872	0.003675	0.010755	0.004740	0.003771	0.003677	0.010272	0.004767	0.003755	0.003746	0.010078	0.004768	0.003698	0.003735	0.009944	0.004864	0.003663	0.003716	0.010507	0.005021	0.003671	0.003709	0.011625	0.005069	0.003493	0.003670	0.011661	0.005071	0.003574	0.003605	0.011409	0.005158	0.003578	0.003600	0.011454	0.005236	0.003523	0.003585	0.011396	0.005151	0.003601	0.003587	0.011354	0.005111	0.003573	0.003385	0.011473	0.006271	0.003523	0.003237	0.011196	0.010867	0.003513	0.003188	0.008996	0.011132	0.003464	0.003079	0.009175	0.011175	0.003236	0.003082	0.009596	0.011153	0.003347	0.003058	0.010733	0.011211	0.003414	0.002943	0.010785	0.011227	0.003461	0.003036	0.010943	0.011107	0.003469	0.002980	0.011005	0.011385	0.003614	0.002961	0.011049	0.011377	0.003742	0.002890	0.011174	0.011412	0.003818	0.002914	0.011268	0.011405	0.003881	0.002984	0.012065	0.011356	0.004003	0.002916	0.011404	0.011339	0.004006	0.002930	0.011864	0.011337	0.004139	0.002972	0.011981	0.011430	0.004183	0.002979	0.011956	0.011394	0.004321	0.002973	0.012333	0.011392	0.004273	0.002999	0.013287	0.011414	0.004256	0.002999	0.014062	0.011146	0.004279	0.002997	0.014554	0.007668	0.004431	0.003169	0.014567	0.005843	0.004642	0.003121	0.015280	0.005829	0.004692	0.003107	0.016093	0.006035	0.004666	0.003147	0.015325	0.006511	0.004669	0.003092	0.015239	0.008753	0.004795	0.003037	0.015765	0.010726	0.005100	0.003623	0.016279	0.011683	0.005372	0.004604	0.018247	0.015419	0.005614	0.007301	0.018939	0.020136	0.005979	0.007405	0.019453	0.024519	0.006100	0.008085	0.020170	0.024666	0.006240	0.009566	0.020183	0.027139	0.006468	0.012528	0.019877	0.028600	0.006506	0.013299	0.019998	0.029591	0.007013	0.015153	0.019993	0.030474	0.007266	0.015230	0.019884	0.032792	0.007841	0.015730	0.020006	0.035278	0.008094	0.016318	0.020600	0.038886	0.008293	0.016601	0.022565	0.040247	0.009470	0.018027	0.022938	0.043817	0.009863	0.019708	0.023235	0.046036	0.010441	0.023271	0.023222	0.047319	0.010646	0.025789	0.023243	0.050585	0.010979	0.026291	0.023700	0.072241	0.011089	0.026970	0.023693	0.079383	0.011038	0.027585	0.023717	0.081810	0.011104	0.030420	0.022707	0.082454	0.011035	0.038655	0.022270	0.083870	0.011138	0.040771	0.021772	0.084984	0.011298	0.041045	0.021108	0.085275	0.012194	0.041873	0.022577	0.086524	0.012590	0.044804	0.024396	0.087878	0.013349	0.049155	0.026113	0.089502	0.014069	0.073630	0.027655	0.095914	0.014778	0.077347	0.029256	0.099791	0.015401	0.080238	0.029541	0.102020	0.015813	0.090787	0.030224	0.102655	0.017267	0.096916	0.030462	0.104994	0.017862	0.099252	0.032044	0.109192	0.018786	0.101345	0.032253	0.111532	0.018790	0.101986	0.035006	0.114627	0.019461	0.107296	0.036638	0.119523	0.021478	0.117833	0.047120	0.122438	0.023678	0.127977	0.050706	0.121108	0.024437	0.138359	0.063290	0.126949	0.026052	0.147210	0.064973	0.129685	0.028913	0.149860	0.074459	0.136237	0.031963	0.153666	0.083994	0.150337	0.037099	0.240899	0.087185	0.155031	0.037353	0.264651	0.088691	0.156593	0.038112	0.270154	0.096826	0.159200	0.038799	0.304933	0.100785	0.160177	0.039017	0.329285	0.105768	0.172037	0.040715	0.364943	0.107438	0.194764	0.041301	0.419983	0.114070	0.199713	0.042151	0.441484	0.116468	0.200037	0.043723	0.458195	0.116887	0.205676	0.043651	0.465272	0.117294	0.207602	0.045281	0.480003	0.121774	0.223773	0.049462	0.524418	0.125750	0.227829	0.052066	0.552303	0.130017	0.228317	0.052351	0.571159	0.130282	0.225971	0.053488	0.583683	0.144394	0.232743	0.057359	0.627670	0.147356	0.255582	0.061747	0.684899	0.152674	0.282904	0.063322	0.690946	0.152621	0.292954	0.063815	0.701942	0.150656	0.291281	0.066094	0.694818	0.151610	0.298603	0.069700	0.714018	0.155408	0.318762	0.069986	0.719387	0.159764	0.344763	0.074959	0.724519	0.161953	0.350197	0.076831	0.714136	0.160384	0.350346	0.076897	0.711021	0.163869	0.352894	0.080953	0.704053	0.163468	0.348907	0.082080	0.693937	0.164747	0.366975	0.081591	0.684978	0.165766	0.366902	0.081657	0.687742	0.167827	0.364565	0.082268	0.687188	0.172382	0.363688	0.081167	0.687602	0.171334	0.363119	0.079963	0.687879	0.168765	0.378241	0.081104	0.716592	0.169527	0.381404	0.080679	0.727987	0.161238	0.382754	0.079520	0.732170	0.162367	0.378778	0.080427	0.702886	0.162346	0.360295	0.080929	0.692852	0.165340	0.347710	0.081040	0.696504	0.164644	0.357827	0.079319	0.704297	0.164027	0.356964	0.075465	0.690318	0.167844	0.352148	0.075188	0.687285	0.166416	0.343917	0.072836	0.705425	0.159829	0.337206	0.069226	0.733418	0.160310	0.338997	0.070878	0.771656	0.160589	0.326355	0.066926	0.776017	0.161781	0.332157	0.065177	0.778039	0.164338	0.320150	0.066431	0.774527	0.164873	0.319773	0.067539	0.782600	0.165096	0.322448	0.067355	0.780160	0.160182	0.318819	0.066916	0.782640	0.160794	0.314845	0.066242	0.764578	0.161472	0.305094	0.065205	0.731103	0.163533	0.325010	0.066426	0.718336	0.163417	0.327520	0.067606	0.687294	0.156701	0.329312	0.061514	0.671468	0.154036	0.322412	0.059615	0.673253	0.148224	0.323509	0.056668	0.685326	0.149185	0.321790	0.056887	0.679057	0.150706	0.315319	0.057212	0.673763	0.143140	0.317322	0.057787	0.662748	0.139621	0.310207	0.059644	0.649685	0.143174	0.317291	0.059523	0.656491	0.142421	0.318811	0.057748	0.612561	0.141303	0.335561	0.057762	0.593203	0.140886	0.336602	0.058788	0.593322	0.136284	0.333545	0.058755	0.603728	0.136309	0.341922	0.058887	0.607321	0.145205	0.354490	0.058550	0.611695	0.150797	0.362474	0.059370	0.585714	0.153615	0.380153	0.062196	0.604450	0.155718	0.399087	0.065651	0.639509	0.152922	0.389830	0.063667	0.629060	0.150431	0.383860	0.063046	0.630098	0.150141	0.383011	0.063727	0.625107	0.147542	0.383620	0.063977	0.606143	0.144744	0.384463	0.063405	0.581736	0.145217	0.386579	0.062516	0.576101	0.144304	0.381983	0.061639	0.567033	0.145894	0.378617	0.061171	0.564675	0.145085	0.377277	0.057361	0.559901	0.140051	0.363634	0.056450	0.496682	0.137953	0.357980	0.056322	0.475116	0.135846	0.342763	0.055646	0.452739	0.133944	0.330718	0.053849	0.439102	0.132205	0.326592	0.052882	0.419973	0.128092	0.311762	0.051546	0.404681	0.119529	0.295149	0.049657	0.363729	0.108050	0.287439	0.048913	0.361741	0.097259	0.258236	0.042986	0.328633	0.089516	0.222324	0.036795	0.218933	0.088001	0.198714	0.034175	0.197615	0.084841	0.178859	0.033025	0.175277	0.082732	0.170207	0.029376	0.161928	0.082177	0.165470	0.027674	0.158414	0.081539	0.161727	0.027746	0.154095	0.076046	0.136666	0.027802	0.111467	0.069395	0.126391	0.028499	0.091379	0.063894	0.120400	0.027871	0.078753	0.058166	0.097221	0.027841	0.042827	0.057797	0.083752	0.027337	0.035555	0.058551	0.079326	0.027071	0.031917	0.065793	0.075669	0.027370	0.030014	0.063489	0.074656	0.027877	0.029737	0.056990	0.071305	0.028096	0.029169	0.054891	0.071268	0.034499	0.028626	0.054089	0.070880	0.039925	0.026986	0.054034	0.063858	0.042384	0.024886	0.053537	0.063415	0.046109	0.017832	0.050422	0.060344	0.047378	0.007822	0.049446	0.055661	0.051395	0.007011	0.048404	0.055850	0.056220	0.005754	0.048563	0.053778	0.060782	0.005332	0.048937	0.052846	0.061118	0.005323	0.049185	0.050785	0.063535	0.005267	0.048382	0.051512	0.063743	0.005221	0.048392	0.053660	0.066106	0.005321	0.048764	0.058331	0.073224	0.005344	0.048902	0.058959	0.077073	0.005374	0.049557	0.058383	0.082063	0.005415	0.049133	0.059024	0.082692	0.005193	0.036143	0.058067	0.086901	0.005032	0.034379	0.057162	0.090006	0.004892	0.033173	0.059807	0.092489	0.004735	0.032568	0.061366	0.094263	0.004757	0.033151	0.060566	0.094047	0.004475	0.031808	0.062840	0.100848	0.004172	0.033518	0.062803	0.100084	0.004291	0.034819	0.064301	0.099282	0.004240	0.034864	0.064066	0.101889	0.004223	0.034889	0.063225	0.099822	0.004203	0.034157	0.064364	0.098257	0.004232	0.033342	0.072924	0.100502	0.004283	0.032387	0.072823	0.100192	0.004411	0.031251	0.073812	0.100084	0.004313	0.030530	0.071962	0.100041	0.004149	0.030041	0.064910	0.096984	0.004229	0.031290	0.064025	0.094222	0.004269	0.031680	0.063776	0.091398	0.004218	0.030511	0.062899	0.090456	0.004247	0.030207	0.062459	0.088035	0.004180	0.030018	0.061702	0.083111	0.004130	0.029421	0.060338	0.080268	0.004072	0.028700	0.054280	0.077719	0.003901	0.026360	0.052946	0.073823	0.003890	0.025598	0.047931	0.064373	0.003860	0.021962	0.046893	0.061050	0.003615	0.020595	0.044241	0.060895	0.003565	0.019676	0.043070	0.057126	0.003534	0.019306	0.042507	0.052995	0.003534	0.019046	0.041581	0.050872	0.003555	0.018706	0.025045	0.045352	0.003396	0.018233	0.020142	0.045428	0.003194	0.017872	0.013417	0.044812	0.002967	0.017268	0.011697	0.040672	0.002983	0.017189	0.010300	0.038430	0.002857	0.014915	0.008232	0.032738	0.002737	0.010098	0.008030	0.031379	0.002704	0.010751	0.008009	0.030527	0.002570	0.011650	0.007935	0.028993	0.002716	0.012061	0.007292	0.029203	0.002798	0.012050	0.006694	0.028438	0.002829	0.012342	0.006309	0.025122	0.002824	0.012246	0.005968	0.023044	0.002784	0.012249	0.005938	0.022666	0.002789	0.012272	0.005946	0.022058	0.002794	0.012183	0.005842	0.021617	0.002866	0.012110	0.005756	0.021408	0.002903	0.012075	0.005731	0.021231	0.002904	0.011926	0.005714	0.021112	0.002840	0.011741	0.005276	0.020631	0.002866	0.011701	0.005179	0.015190	0.002869	0.011598	0.005055	0.009803	0.002914	0.011543	0.005097	0.008629	0.002978	0.011363	0.004858	0.007237	0.002951	0.011332	0.004841	0.007215	0.002869	0.010943	0.004828	0.007280	0.002904	0.010086	0.004817	0.007264	0.002951	0.008682	0.004823	0.007219	0.002885	0.007754	0.004908	0.006177	0.002817	0.007183	0.004831	0.005876	0.002849	0.005971	0.004892	0.005728	0.002796	0.005991	0.005017	0.005010	0.002808	0.005886	0.005028	0.003597	0.002847	0.005809	0.005032	0.003501	0.002824	0.005488	0.005148	0.003492	0.002767	0.005562	0.005183	0.003564	0.002723	0.005641	0.004889	0.003555	0.002675	0.005769	0.005046	0.003491	0.002632	0.005855	0.005355	0.003457	0.002661	0.005903	0.005250	0.003420	0.002674	0.005931	0.005376	0.003310	0.002663	0.005971	0.005319	0.003412	0.002687	0.005896	0.005316	0.003499	0.002753	0.005963	0.005266	0.003456	0.002796	0.006013	0.005225	0.003382	0.002776	0.006090	0.005150	0.003407	0.002718	0.006015	0.005223	0.003351	0.002737	0.005902	0.005234	0.003329	0.002784	0.005877	0.005242	0.003268	0.002750	0.006068	0.005116	0.003191	0.002716	0.006088	0.005178	0.003192	0.002710	0.006095	0.005217	0.003080	0.002713	0.006125	0.005252	0.003135	0.002723	0.006188	0.005908	0.003189	0.002761	0.006210	0.009393	0.003162	0.002775	0.006115	0.009615	0.003279	0.002869	0.006053	0.009902	0.003521	0.002978	0.006096	0.009934	0.003558	0.003028	0.006132	0.009959	0.003582	0.002993	0.006064	0.009903	0.003656	0.002960	0.006046	0.009998	0.003670	0.002903	0.006086	0.010029	0.003624	0.002874	0.006074	0.010104	0.003672	0.002830	0.006109	0.010097	0.003739	0.002814	0.006074	0.010194	0.003696	0.002863	0.006088	0.010241	0.003800	0.002809	0.006088	0.010195	0.003781	0.002831	0.006057	0.010167	0.003940	0.002863	0.006159	0.010192	0.004033	0.002950	0.006158	0.010179	0.004078	0.002953	0.006276	0.010132	0.004100	0.002951	0.006333	0.010345	0.004137	0.003012	0.006127	0.010233	0.004179	0.003060	0.006045	0.007727	0.004239	0.003133	0.006098	0.006696	0.004292	0.003153	0.005938	0.006343	0.004077	0.003051	0.005847	0.006053	0.004075	0.002979	0.005617	0.005964	0.004175	0.003048	0.005582	0.005904	0.004152	0.003049	0.005624	0.005792	0.004308	0.003011	0.005731	0.005789	0.004266	0.002982	0.005688	0.005592	0.004282	0.003008	0.005693	0.005649	0.004358	0.003125	0.005958	0.005606	0.004463	0.003117	0.005819	0.005474	0.004459	0.003149	0.005818	0.005555	0.004426	0.003127	0.005945	0.005646	0.004334	0.003124	0.005862	0.005680	0.004301	0.003000	0.005802	0.005584	0.004249	0.003029	0.005785	0.005485	0.004285	0.003015	0.005760	0.005157	0.004230	0.003038	0.005742	0.005026	0.004236	0.003022	0.005756	0.004999	0.004281	0.002981	0.005734	0.004779	0.004116	0.002951	0.005945	0.004753	0.004146	0.002904	0.006124	0.004600	0.004171	0.002899	0.006340	0.004638	0.004098	0.002888	0.006502	0.004613	0.004119	0.002898	0.006466	0.004630	0.003843	0.002917	0.006323	0.004617	0.003821	0.002924	0.006507	0.004696	0.003863	0.002885	0.006688	0.004782	0.003766	0.002868	0.006531	0.004732	0.003630	0.002783	0.006910	0.004659	0.003697	0.002757	0.007025	0.004600	0.003696	0.002771	0.006956	0.004447	0.003658	0.002722	0.006961	0.004513	0.003556	0.002698	0.006853	0.004436	0.003680	0.002680	0.006791	0.004509	0.003747	0.002671	0.006802	0.004547	0.003822	0.002652	0.006802	0.004546	0.003806	0.002496	0.006780	0.004473	0.003910	0.002572	0.006785	0.004732	0.004054	0.002547	0.006712	0.004849	0.004007	0.002523	0.006659	0.004822	0.004011	0.002560	0.006564	0.004793	0.003905	0.002518	0.006619	0.004834	0.003949	0.002502	0.006649	0.004895	0.003954	0.002497	
418 1
-0.011111	-0.011111	-0.011111	-0.011111	-0.011111	-0.011111	-0.011111	-0.011111	-0.011111	-0.011111	-0.011111	-0.011111	-0.011111	-0.011111	-0.011111	-0.011111	-0.011111	-0.011111	-0.011111	-0.011111	-0.011111	-0.011111	-0.011111	-0.011111	-0.011111	-0.011111	-0.011111	-0.011111	-0.011111	-0.011111	-0.011111	-0.011111	-0.011111	-0.011111	-0.011111	-0.011111	-0.011111	-0.011111	-0.011111	-0.011111	-0.011111	-0.011111	-0.011111	-0.011111	-0.011111	-0.011111	-0.011111	-0.011111	-0.011111	-0.011111	-0.011111	-0.011111	-0.011111	-0.011111	-0.011111	-0.011111	-0.011111	-0.011111	-0.011111	-0.011111	-0.011111	-0.011111	-0.011111	-0.011111	-0.011111	-0.011111	-0.011111	-0.011111	-0.011111	-0.011111	-0.011111	-0.011111	-0.011111	-0.011111	-0.011111	-0.011111	-0.011111	-0.011111	-0.011111	-0.011111	-0.011111	-0.011111	-0.011111	-0.011111	-0.011111	-0.011111	-0.011111	-0.011111	-0.011111	-0.011111	-0.011111	-0.011111	-0.011111	-0.011111	-0.011111	-0.011111	-0.011111	-0.011111	-0.011111	-0.011111	-0.011111	-0.011111	-0.011111	-0.011111	-0.011111	-0.011111	-0.011111	-0.011111	-0.011111	-0.011111	-0.011111	-0.011111	-0.011111	-0.011125	-0.022811	-0.022254	-0.022211	-0.031323	-0.032916	-0.043145	-0.044946	-0.055822	-0.067435	-0.078461	-0.091149	-0.100149	-0.110153	-0.125127	-0.144490	-0.156113	-0.167213	-0.177850	-0.202940	-0.211380	-0.223625	-0.245893	-0.271567	-0.286400	-0.310968	-0.331854	-0.349204	-0.376349	-0.402938	-0.424958	-0.458115	-0.478106	-0.496562	-0.522831	-0.549350	-0.579798	-0.624879	-0.651876	-0.666368	-0.690003	-0.706661	-0.720495	-0.721911	-0.735392	-0.751435	-0.755445	-0.767792	-0.781032	-0.789659	-0.801246	-0.800188	-0.800026	-0.810637	-0.810897	-0.811461	-0.823189	-0.823013	-0.834216	-0.833512	-0.833370	-0.833358	-0.846027	-0.844707	-0.844487	-0.844450	-0.844445	-0.844444	-0.844778	-0.856420	-0.855761	-0.855603	-0.855565	-0.855557	-0.855556	-0.855556	-0.855556	-0.863175	-0.866254	-0.866584	-0.866652	-0.866664	-0.866666	-0.866667	-0.866667	-0.866667	-0.866667	-0.866667	-0.866667	-0.866667	-0.866667	-0.866667	-0.866667	-0.866667	-0.866667	-0.866667	-0.866667	-0.866667	-0.866667	-0.866667	-0.866667	-0.866667	-0.866667	-0.866667	-0.866667	-0.866667	-0.866667	-0.866667	-0.866667	-0.866667	-0.866667	-0.866667	-0.866667	-0.866667	-0.866667	-0.866650	-0.857786	-0.855722	-0.855588	-0.855561	-0.853259	-0.844730	-0.832674	-0.828715	-0.820378	-0.806603	-0.788093	-0.778429	-0.771547	-0.754621	-0.752705	-0.744358	-0.723974	-0.722139	-0.702391	-0.678735	-0.666238	-0.642293	-0.619945	-0.598972	-0.573351	-0.563912	-0.531537	-0.522517	-0.508800	-0.473413	-0.462220	-0.435928	-0.413908	-0.394881	-0.376884	-0.360110	-0.344880	-0.325411	-0.309396	-0.289562	-0.276280	-0.256420	-0.243310	-0.224199	-0.208009	-0.197721	-0.187188	-0.166054	-0.166016	-0.154712	-0.139139	-0.129182	-0.118953	-0.107127	-0.095940	-0.081829	-0.077064	-0.066592	-0.053950	-0.055130	-0.043307	-0.035098	-0.033699	-0.023512	-0.022552	-0.013930	-0.011304	-0.011147	-0.011117	-0.011112	-0.011111	-0.011111	-0.011111	-0.011111	-0.011111	-0.011111	-0.011111	-0.011111	-0.011111	-0.011111	-0.011111	-0.011111	-0.011111	-0.011111	-0.011111	-0.011111	-0.011111	-0.011111	-0.011111	-0.011111	-0.011111	-0.011111	-0.011111	-0.011111	-0.011111	-0.011111	-0.011111	-0.011111	-0.011111	-0.011111	-0.011111	-0.011111	-0.011111	-0.011111	-0.011111	-0.011111	-0.011111	-0.011111	-0.011111	-0.011111	-0.011111	-0.011111	-0.011111	-0.011111	-0.011111	-0.011111	-0.011111	-0.011111	-0.011111	-0.011111	-0.011111	-0.011111	-0.011111	-0.011111	-0.011111	-0.011111	-0.011111	-0.011111	-0.011111	-0.011111	-0.011111	-0.011111	-0.011111	-0.011111	-0.011111	-0.011111	-0.011111	-0.011111	-0.011111	-0.011111	-0.011111	-0.011111	-0.011111	-0.011111	-0.011111	-0.011111	-0.011111	-0.011111	-0.011111	-0.011111	-0.011111	-0.011111	-0.011111	-0.011111	-0.011111	-0.011111	-0.011111	-0.011111	-0.011111	-0.011111	-0.011111	-0.011111	-0.011111	-0.011111	-0.011111	-0.011111	-0.011111	-0.011111	-0.011111	-0.011111	-0.011111	-0.011111	-0.011111	-0.011111	-0.011111	-0.011111	-0.011111	-0.011111	-0.011111	-0.011111	-0.011111	-0.011111	-0.011111	-0.011111	-0.011111	-0.011111	-0.011111	-0.011111	-0.011111	
411 4
0.006649	0.004895	0.003954	0.002497	0.006812	0.004904	0.003916	0.002477	0.006893	0.004918	0.003837	0.002513	0.006728	0.004843	0.003890	0.002452	0.006610	0.004824	0.003927	0.002454	0.006360	0.004802	0.003779	0.002524	0.006130	0.004861	0.003885	0.002515	0.006231	0.004874	0.003988	0.002526	0.006189	0.004889	0.004075	0.002531	0.006438	0.004939	0.003956	0.002594	0.006411	0.004945	0.003896	0.002597	0.006389	0.004864	0.003773	0.002595	0.006370	0.004790	0.003787	0.002583	0.006495	0.004818	0.003586	0.002511	0.006551	0.004512	0.003364	0.002502	0.006701	0.004377	0.003444	0.002502	0.006598	0.004452	0.003394	0.002569	0.006660	0.004470	0.003491	0.002574	0.006539	0.004619	0.003540	0.002594	0.006584	0.004814	0.003563	0.002616	0.006496	0.004815	0.003622	0.002667	0.006214	0.004785	0.003685	0.002798	0.006153	0.004772	0.003656	0.002819	0.006194	0.004833	0.003530	0.002806	0.006244	0.004928	0.003561	0.002763	0.006361	0.004823	0.003426	0.002768	0.006243	0.004790	0.003416	0.002840	0.006438	0.004713	0.003312	0.002876	0.006418	0.004746	0.003367	0.002846	0.006294	0.004638	0.003429	0.002820	0.006561	0.004672	0.003452	0.002845	0.006500	0.004761	0.003399	0.002963	0.006435	0.004834	0.003428	0.003007	0.006567	0.004824	0.003420	0.003040	0.006400	0.004769	0.003417	0.003028	0.006633	0.004775	0.003514	0.002978	0.006563	0.004700	0.003523	0.002959	0.006655	0.004483	0.003350	0.002930	0.006704	0.004174	0.003263	0.002948	0.006589	0.004159	0.003260	0.002970	0.006621	0.004217	0.003221	0.002874	0.006654	0.004270	0.003305	0.002989	0.006630	0.004260	0.003337	0.002955	0.006709	0.004173	0.003386	0.002989	0.006713	0.004163	0.003404	0.003031	0.006839	0.004211	0.003406	0.002980	0.006686	0.004227	0.003406	0.003043	0.006738	0.004282	0.003381	0.003056	0.006801	0.004384	0.003318	0.003218	0.006535	0.004404	0.003262	0.003261	0.006565	0.004383	0.003247	0.003150	0.006602	0.004287	0.003388	0.003091	0.006321	0.004552	0.003390	0.003032	0.006412	0.004589	0.003389	0.003036	0.006195	0.004713	0.003466	0.003047	0.006220	0.004730	0.003481	0.003079	0.006055	0.004774	0.003568	0.003139	0.006116	0.004877	0.003569	0.003093	0.006167	0.004824	0.003579	0.003041	0.006196	0.004936	0.003551	0.003045	0.006180	0.005354	0.003476	0.002921	0.006477	0.005315	0.003551	0.002967	0.006638	0.005255	0.003574	0.002965	0.006529	0.005367	0.003530	0.002866	0.006496	0.005415	0.003440	0.002905	0.006605	0.005484	0.003497	0.002844	0.006454	0.005447	0.003542	0.002808	0.006289	0.005617	0.003521	0.002662	0.006324	0.005650	0.003607	0.002619	0.006396	0.005722	0.003661	0.002658	0.006736	0.005747	0.003625	0.002638	0.007127	0.005568	0.003652	0.002635	0.007113	0.005553	0.003676	0.002689	0.007104	0.005537	0.003545	0.002722	0.007427	0.005439	0.003869	0.002705	0.007999	0.005462	0.003817	0.002659	0.008311	0.005459	0.003845	0.002630	0.008328	0.005622	0.003835	0.002674	0.008627	0.005578	0.003794	0.002730	0.008683	0.005042	0.003819	0.002719	0.008503	0.005099	0.003764	0.002682	0.008325	0.005188	0.003647	0.002677	0.008315	0.005167	0.003629	0.002693	0.008178	0.005071	0.003715	0.002636	0.008115	0.004957	0.003669	0.002628	0.008138	0.004976	0.003704	0.002598	0.008183	0.004790	0.003875	0.002549	0.008249	0.004695	0.003862	0.002503	0.008407	0.004653	0.003793	0.002505	0.008371	0.004699	0.003859	0.002507	0.008003	0.004726	0.004017	0.002537	0.008025	0.004770	0.003958	0.002514	0.008252	0.004775	0.003997	0.002456	0.009084	0.004861	0.003662	0.002434	0.009262	0.005517	0.003725	0.002517	0.009157	0.010112	0.003794	0.002550	0.009360	0.010439	0.003784	0.002508	0.009335	0.010514	0.003971	0.002443	0.009800	0.010543	0.004093	0.002401	0.010884	0.010562	0.004134	0.002400	0.010854	0.010547	0.004148	0.002388	0.010837	0.010515	0.004183	0.002369	0.010924	0.010620	0.004307	0.002346	0.011000	0.010619	0.004452	0.002375	0.011056	0.010621	0.004496	0.002394	0.011271	0.010603	0.004501	0.002410	0.012374	0.010574	0.004534	0.002426	0.012803	0.010836	0.004570	0.002421	0.013304	0.010799	0.004589	0.002515	0.014282	0.011076	0.004419	0.002623	0.017039	0.012616	0.004700	0.002719	0.017591	0.014021	0.004847	0.004130	0.019600	0.016095	0.004940	0.005310	0.020275	0.016891	0.004849	0.007280	0.020306	0.016699	0.004740	0.008737	0.020334	0.016416	0.004823	0.009477	0.020663	0.016542	0.004833	0.012987	0.020769	0.018167	0.004709	0.013919	0.020252	0.022474	0.004881	0.016841	0.020693	0.023863	0.005017	0.020028	0.021584	0.025225	0.005059	0.028289	0.022368	0.025543	0.005025	0.029284	0.022861	0.026439	0.004835	0.030796	0.023688	0.027547	0.004864	0.031682	0.023985	0.030509	0.005004	0.033421	0.023598	0.034448	0.005017	0.034679	0.023547	0.035997	0.005324	0.035535	0.023755	0.039810	0.005690	0.038472	0.023313	0.040649	0.006182	0.042457	0.021781	0.041194	0.006397	0.044979	0.021558	0.044015	0.006282	0.046701	0.019954	0.051951	0.006682	0.047063	0.019606	0.056907	0.007156	0.047124	0.020558	0.059514	0.008446	0.047815	0.020680	0.063553	0.009028	0.048649	0.020517	0.064177	0.009441	0.052811	0.020191	0.064570	0.009558	0.053072	0.020529	0.063712	0.009870	0.052727	0.020324	0.063201	0.010832	0.052274	0.019865	0.065107	0.011684	0.050211	0.019466	0.065234	0.011978	0.053574	0.019947	0.066212	0.012206	0.063192	0.019658	0.066713	0.012358	0.070851	0.020285	0.067895	0.012873	0.070702	0.020580	0.069156	0.013071	0.072729	0.022225	0.071312	0.013570	0.074329	0.022750	0.070436	0.013777	0.074945	0.023984	0.073378	0.014163	0.074351	0.024766	0.086565	0.015780	0.079696	0.026641	0.094922	0.016406	0.080959	0.026746	0.096282	0.017637	0.084382	0.030757	0.095766	0.020924	0.089010	0.031449	0.095546	0.020895	0.093135	0.032768	0.096882	0.021170	0.100814	0.035364	0.104789	0.021274	0.110842	0.039211	0.107194	0.022633	0.119483	0.040538	0.115281	0.023526	0.119420	0.041580	0.119832	0.024449	0.146097	0.042386	0.119059	0.025366	0.168480	0.043671	0.121835	0.026147	0.169508	0.045941	0.127593	0.027668	0.168599	0.047062	0.130247	0.028610	0.172797	0.049869	0.137124	0.028662	0.182857	0.052475	0.137657	0.029056	0.200020	0.061309	0.148097	0.030453	0.207502	0.063528	0.152109	0.031382	0.209601	0.064395	0.160842	0.032993	0.212355	0.065654	0.164978	0.034768	0.214790	0.070419	0.164029	0.035195	0.215754	0.073800	0.161423	0.038174	0.217458	0.075592	0.167191	0.039121	0.245212	0.078693	0.182146	0.041666	0.279325	0.084576	0.186549	0.043238	0.282726	0.085857	0.192425	0.048608	0.289639	0.086986	0.196709	0.049787	0.309542	0.087914	0.195466	0.050854	0.313472	0.092972	0.199232	0.057159	0.345933	0.096174	0.209201	0.059447	0.387995	0.096970	0.215608	0.063764	0.395485	0.096847	0.214847	0.064320	0.406068	0.098230	0.217047	0.066430	0.417259	0.097591	0.218185	0.067049	0.416492	0.099021	0.221086	0.067430	0.415187	0.102854	0.220193	0.068183	0.414823	0.106528	0.220178	0.068275	0.415589	0.107622	0.216427	0.069413	0.435609	0.110464	0.224555	0.069982	0.455662	0.109244	0.218502	0.069593	0.468738	0.106571	0.221847	0.068574	0.473787	0.107606	0.232961	0.069331	0.477032	0.111091	0.220069	0.069221	0.454291	0.113732	0.216710	0.069471	0.452613	0.114850	0.214180	0.067216	0.450289	0.121814	0.217131	0.066186	0.440399	0.124912	0.220739	0.066137	0.450322	0.125477	0.220660	0.062371	0.444326	0.124759	0.215269	0.060431	0.401116	0.127065	0.209209	0.058768	0.406614	0.127000	0.207876	0.058419	0.398044	0.132186	0.206260	0.056177	0.389728	0.131835	0.204074	0.055931	0.390245	0.136282	0.204623	0.056981	0.388012	0.130172	0.202417	0.056831	0.387413	0.130465	0.201099	0.056212	0.404025	0.135281	0.205233	0.054693	0.401104	0.135302	0.200250	0.054781	0.383266	0.139602	0.201360	0.057643	0.433368	0.141944	0.202918	0.058394	0.436205	0.141790	0.193199	0.057179	0.424985	0.140780	0.193942	0.055605	0.462435	0.132399	0.193126	0.054094	0.472848	0.133862	0.198895	0.054441	0.473240	0.129452	0.191370	0.054724	0.470868	0.126257	0.186899	0.055323	0.471143	0.129269	0.184746	0.056340	0.462737	0.128487	0.198037	0.055881	0.455649	0.129748	0.201151	0.057301	0.468213	0.133851	0.203597	0.055779	0.472284	0.132014	0.205756	0.056934	0.479174	0.132513	0.217783	0.056650	0.477596	0.132407	0.216573	0.055775	0.490866	0.136995	0.225721	0.055963	0.501563	0.137191	0.225178	0.056143	0.495275	0.133511	0.227170	0.055390	0.497313	0.134437	0.238859	0.054521	0.513789	0.133422	0.238947	0.051242	0.482163	0.131729	0.238935	0.050543	0.466089	0.134293	0.239302	0.050724	0.469064	0.141675	0.243052	0.051360	0.451137	0.142808	0.244607	0.051146	0.437318	0.145572	0.253038	0.050988	0.448975	0.147892	0.257842	0.052686	0.456235	0.151089	0.263033	0.051714	0.454693	0.146940	0.260624	0.050095	0.478241	0.151623	0.253510	0.050778	0.482911	0.148813	0.246424	0.046536	0.466171	0.147674	0.250961	0.047201	0.461916	0.143170	0.252596	0.048371	0.454565	0.145137	0.244611	0.052107	0.459225	0.142301	0.244116	0.052074	0.479544	0.139086	0.238073	0.051429	0.457982	0.134456	0.236366	0.052134	0.453185	0.133666	0.234115	0.052426	0.440610	0.129871	0.217831	0.052097	0.410413	0.124740	0.209885	0.051359	0.396296	0.125027	0.208753	0.050706	0.391417	0.121668	0.206010	0.050015	0.384044	0.112672	0.199586	0.048816	0.373729	0.108513	0.194099	0.048442	0.357386	0.102712	0.179959	0.047765	0.339303	0.095697	0.163096	0.044918	0.326444	0.087332	0.155116	0.043826	0.320168	0.086990	0.152497	0.043675	0.277060	0.077999	0.150796	0.040952	0.258249	0.071435	0.150628	0.040615	0.247269	0.069236	0.140397	0.038447	0.231482	0.069647	0.125207	0.035421	0.221053	0.066200	0.120704	0.029629	0.216575	0.060766	0.112526	0.027715	0.129643	0.058971	0.099608	0.026800	0.108223	0.058685	0.096272	0.024330	0.105624	0.055051	0.087631	0.023517	0.100047	0.053049	0.083035	0.023297	0.088273	0.050792	0.077979	0.022834	0.087609	0.048425	0.072875	0.023101	0.077804	0.047555	0.071489	0.024898	0.071539	0.047342	0.066157	0.024262	0.071435	0.046612	0.065993	0.026248	0.070898	0.045089	0.064518	0.027657	0.069778	0.045487	0.061552	0.030064	0.067378	0.045306	0.056066	0.031240	0.065518	0.043477	0.052304	0.040364	0.017037	0.043657	0.047769	0.042623	0.013745	0.043088	0.042282	0.045659	0.007379	0.041284	0.041719	0.047664	0.006912	0.038791	0.041361	0.050434	0.006964	0.031847	0.040322	0.053794	0.006790	0.032780	0.040923	0.054040	0.006761	0.033560	0.042854	0.054508	0.006750	0.032186	0.043720	0.057875	0.006313	0.032170	0.043244	0.072892	0.006033	0.032569	0.040582	0.075590	0.005841	0.032608	0.040680	0.077304	0.005254	0.032583	0.041528	0.080952	0.005181	0.031065	0.039987	0.080788	0.005059	0.027813	0.040717	0.085913	0.004865	0.027732	0.042910	0.091488	0.004790	0.028267	0.044180	0.093131	0.004653	0.027645	0.046404	0.094109	0.004654	0.028221	0.053079	0.094826	0.004624	0.028463	0.055897	0.097229	0.004566	0.028520	0.056302	0.096770	0.004586	0.028474	0.057213	0.096582	0.004534	0.028214	0.056873	0.096630	0.004463	0.027792	0.056705	0.099086	0.004283	0.027859	0.056594	0.101077	0.004315	0.026706	0.057223	0.103448	0.004309	0.026359	0.058020	0.106491	0.004457	0.027216	0.061610	0.106351	0.004548	0.027973	0.061217	0.098206	0.004485	0.027420	0.060972	0.094590	0.004214	0.028389	0.063169	0.093400	0.004346	0.029489	0.062524	0.090999	0.004380	0.028706	0.062340	0.091457	0.004223	0.027525	0.061743	0.087988	0.004240	0.027553	0.059845	0.081030	0.004107	0.026402	0.058346	0.079441	0.004101	0.025976	0.056715	0.077258	0.004039	0.024086	0.051375	0.076131	0.003992	0.023755	0.044265	0.071861	0.004076	0.023371	0.043682	0.066921	0.004025	0.023042	0.042030	0.066141	0.003959	0.023001	0.042148	0.064896	0.003916	0.022762	0.042157	0.057732	0.003942	0.022149	0.042096	0.051344	0.003875	0.022543	0.040449	0.044814	0.003872	0.022108	0.036024	0.039193	0.003657	0.019726	0.025908	0.036887	0.003491	0.019067	0.024191	0.036681	0.003516	0.018082	0.023739	0.034996	0.003478	0.015889	0.016427	0.035119	0.003306	0.013400	0.013178	0.034106	0.003063	0.012930	0.012350	0.031869	0.003092	0.012288	0.011899	0.029894	0.003061	0.012197	0.011297	0.028569	0.003125	0.012366	0.011097	0.026684	0.003095	0.011901	0.010524	0.027488	0.003092	0.012209	0.009969	0.031505	0.003090	0.013083	0.008889	0.032578	0.003022	0.013068	0.008874	0.032653	0.002928	0.012948	0.008860	0.032219	0.003012	0.013176	0.008292	0.031876	0.003022	0.013209	0.008174	0.031786	0.003027	0.012865	0.007295	0.031239	0.003001	0.012517	0.007164	0.030777	0.003033	0.012239	0.007128	0.030624	0.003007	0.012174	0.006383	0.029369	0.002968	0.011633	0.005342	0.025590	0.003048	0.011650	0.005436	0.025716	0.003031	0.011547	0.005405	0.024994	0.002956	0.011433	0.005573	0.023410	0.003102	0.011319	0.005600	0.023333	0.003080	0.011364	0.005638	0.023100	0.003057	0.011040	0.005757	0.023023	0.003011	0.009977	0.005830	0.023026	0.003010	0.009762	0.005815	0.022603	0.003123	0.009498	0.005915	0.017698	0.003079	0.008381	0.005779	0.009534	0.003043	0.007916	0.005675	0.006825	0.003032	0.009324	0.005523	0.006414	0.003005	0.011920	0.005472	0.005944	0.003065	0.011550	0.005523	0.005798	0.002990	0.011545	0.005591	0.005797	0.003104	0.011757	0.005613	0.005800	0.003066	0.011794	0.005642	0.005804	0.003058	0.011714	0.005822	0.005721	0.003069	0.011213	0.005845	0.005279	0.003065	0.011240	0.005704	0.004615	0.003118	0.011288	0.005712	0.004619	0.003166	0.011442	0.005741	0.004222	0.003040	0.011470	0.005756	0.004230	0.003139	0.011509	0.005804	0.004229	0.003221	0.011474	0.005600	0.004192	0.003240	0.011459	0.005595	0.004102	0.003247	0.011494	0.005541	0.004098	0.003196	0.012390	0.005408	0.004103	0.003218	0.012527	0.005329	0.004105	0.003251	0.012559	0.005476	0.004080	0.003272	0.011950	0.005836	0.003642	0.003290	0.008598	0.005817	0.003702	0.003220	0.008571	0.005824	0.003829	0.003221	0.008526	0.005926	0.003840	0.003108	0.008280	0.005967	0.003849	0.003216	0.008116	0.005976	0.003830	0.003213	0.008146	0.005626	0.003848	0.003228	0.008240	0.005664	0.003862	0.003129	0.008270	0.005750	0.003831	0.003023	0.008229	0.005773	0.003783	0.002925	0.008644	0.005739	0.003643	0.002938	0.010004	0.005659	0.003652	0.002864	0.009941	0.005678	0.003519	0.002724	0.009985	0.005674	0.003562	0.002662	0.009949	0.005613	0.003540	0.002719	0.009964	0.005675	0.003602	0.002769	0.008989	0.005531	0.003768	0.002819	0.008572	0.005416	0.003855	0.002765	0.008588	0.005571	0.003927	0.002759	0.008613	0.005242	0.003914	0.002703	0.008638	0.005284	0.003842	0.002741	0.009010	0.005217	0.003742	0.002857	0.009221	0.005028	0.003657	0.002848	0.009076	0.004964	0.003598	0.002711	0.009016	0.005007	0.003741	0.002932	0.008984	0.004991	0.003760	0.002941	0.008959	0.004909	0.003795	0.002933	0.008915	0.004881	0.003911	0.002969	0.008953	0.004823	0.004042	0.003028	0.008747	0.004971	0.004095	0.003089	0.007812	0.004999	0.004091	0.003082	0.007708	0.004876	0.004072	0.003226	0.007509	0.004946	0.004016	0.003249	0.007490	0.005305	0.004337	0.003264	0.007467	0.005356	0.004380	0.003245	0.007416	0.005300	0.004253	0.003205	0.007331	0.005338	0.004085	0.003243	0.007222	0.005187	0.003956	0.003295	0.007204	0.004925	0.003883	0.003275	0.007104	0.004925	0.003979	0.003297	0.007000	0.005015	0.003960	0.003227	0.006657	0.005034	0.003924	0.003261	0.006752	0.005012	0.003963	0.003300	
411 1
-0.011111	-0.011111	-0.011111	-0.011111	-0.011111	-0.011111	-0.011111	-0.011111	-0.011111	-0.011111	-0.011111	-0.011111	-0.011111	-0.011111	-0.011111	-0.011111	-0.011111	-0.011111	-0.011111	-0.011111	-0.011111	-0.011111	-0.011111	-0.011111	-0.011111	-0.011111	-0.011111	-0.011111	-0.011111	-0.011111	-0.011111	-0.011111	-0.011111	-0.011111	-0.011111	-0.011111	-0.011111	-0.011111	-0.011111	-0.011111	-0.011111	-0.011111	-0.011111	-0.011111	-0.011111	-0.011111	-0.011111	-0.011111	-0.011111	-0.011111	-0.011111	-0.011111	-0.011111	-0.011111	-0.011111	-0.011111	-0.011111	-0.011111	-0.011111	-0.011111	-0.011111	-0.011111	-0.011111	-0.011111	-0.011111	-0.011111	-0.011111	-0.011111	-0.011111	-0.011111	-0.011111	-0.011111	-0.011111	-0.011111	-0.011111	-0.011111	-0.011111	-0.011111	-0.011111	-0.011111	-0.011111	-0.011111	-0.011111	-0.011111	-0.011111	-0.011111	-0.011111	-0.011111	-0.011111	-0.011111	-0.011111	-0.011111	-0.011111	-0.011111	-0.011111	-0.011111	-0.011111	-0.011111	-0.011111	-0.011111	-0.011111	-0.011111	-0.011111	-0.011111	-0.011111	-0.011111	-0.011111	-0.011111	-0.011111	-0.011111	-0.011111	-0.011111	-0.011111	-0.011111	-0.011111	-0.011111	-0.011111	-0.011111	-0.011111	-0.011111	-0.011111	-0.011111	-0.011117	-0.023825	-0.022463	-0.022510	-0.034386	-0.033654	-0.045416	-0.047871	-0.057090	-0.066840	-0.079400	-0.090651	-0.098238	-0.117245	-0.127975	-0.145489	-0.162674	-0.166382	-0.179208	-0.189579	-0.208125	-0.221656	-0.233889	-0.253130	-0.268168	-0.287244	-0.311451	-0.322274	-0.347563	-0.369248	-0.401084	-0.423365	-0.443637	-0.469444	-0.499482	-0.540970	-0.558818	-0.578159	-0.605346	-0.622155	-0.634981	-0.657964	-0.674092	-0.684606	-0.691985	-0.711151	-0.722820	-0.734759	-0.756016	-0.765255	-0.770125	-0.778477	-0.789634	-0.799228	-0.802916	-0.810663	-0.823245	-0.834763	-0.833938	-0.844565	-0.844443	-0.844481	-0.857033	-0.855823	-0.855604	-0.855563	-0.855745	-0.867773	-0.866904	-0.866717	-0.866676	-0.866668	-0.866667	-0.867000	-0.878643	-0.877983	-0.877825	-0.877787	-0.877779	-0.877778	-0.877778	-0.877778	-0.877778	-0.877778	-0.877778	-0.877778	-0.877778	-0.877778	-0.877778	-0.877778	-0.877778	-0.877778	-0.877778	-0.877778	-0.877778	-0.877778	-0.877778	-0.877778	-0.877778	-0.877778	-0.877778	-0.877778	-0.877778	-0.877778	-0.877778	-0.877778	-0.877778	-0.877778	-0.877778	-0.877778	-0.877778	-0.877778	-0.877778	-0.877778	-0.877778	-0.877778	-0.877778	-0.877778	-0.877778	-0.865599	-0.866594	-0.866677	-0.866674	-0.866669	-0.866667	-0.864140	-0.855550	-0.842829	-0.842781	-0.832826	-0.828432	-0.822515	-0.809971	-0.809218	-0.800074	-0.787783	-0.770835	-0.766664	-0.752018	-0.732670	-0.718395	-0.686639	-0.676667	-0.653845	-0.648274	-0.633641	-0.623509	-0.610538	-0.586256	-0.572416	-0.541941	-0.524396	-0.490278	-0.476401	-0.454925	-0.433140	-0.425785	-0.410825	-0.387211	-0.373255	-0.350809	-0.331775	-0.320688	-0.304530	-0.294181	-0.271466	-0.259533	-0.244669	-0.231910	-0.213549	-0.208231	-0.187589	-0.176479	-0.165419	-0.152650	-0.148116	-0.144234	-0.133780	-0.123630	-0.120895	-0.109019	-0.098563	-0.088983	-0.076659	-0.077680	-0.065602	-0.066582	-0.053987	-0.048903	-0.038842	-0.033528	-0.026639	-0.022280	-0.022224	-0.014893	-0.011681	-0.011227	-0.011132	-0.011114	-0.011111	-0.011111	-0.011111	-0.011111	-0.011111	-0.011111	-0.011111	-0.011111	-0.011111	-0.011111	-0.011111	-0.011111	-0.011111	-0.011111	-0.011111	-0.011111	-0.011111	-0.011111	-0.011111	-0.011111	-0.011111	-0.011111	-0.011111	-0.011111	-0.011111	-0.011111	-0.011111	-0.011111	-0.011111	-0.011111	-0.011111	-0.011111	-0.011111	-0.011111	-0.011111	-0.011111	-0.011111	-0.011111	-0.011111	-0.011111	-0.011111	-0.011111	-0.011111	-0.011111	-0.011111	-0.011111	-0.011111	-0.011111	-0.011111	-0.011111	-0.011111	-0.011111	-0.011111	-0.011111	-0.011111	-0.011111	-0.011111	-0.011111	-0.011111	-0.011111	-0.011111	-0.011111	-0.011111	-0.011111	-0.011111	-0.011111	-0.011111	-0.011111	-0.011111	-0.011111	-0.011111	-0.011111	-0.011111	-0.011111	-0.011111	-0.011111	-0.011111	-0.011111	-0.011111	-0.011111	-0.011111	-0.011111	-0.011111	-0.011111	-0.011111	-0.011111	-0.011111	-0.011111	-0.011111	-0.011111	
257 4
0.006752	0.005012	0.003963	0.003300	0.006870	0.005076	0.003856	0.003141	0.009265	0.005062	0.003770	0.003080	0.009987	0.005025	0.003794	0.003055	0.010087	0.005102	0.003667	0.003054	0.010092	0.005100	0.003629	0.003016	0.010116	0.004877	0.003572	0.002945	0.009661	0.005353	0.003494	0.002937	0.009515	0.005288	0.003595	0.002900	0.009514	0.005286	0.003566	0.002815	0.009560	0.005054	0.003243	0.002822	0.009703	0.005033	0.003092	0.002819	0.009722	0.005079	0.003103	0.002761	0.009787	0.005115	0.003124	0.002797	0.009742	0.005176	0.003196	0.002698	0.010184	0.005305	0.003224	0.002757	0.011034	0.005322	0.003188	0.002738	0.010925	0.005198	0.003187	0.002691	0.010805	0.005224	0.003199	0.002719	0.010937	0.005317	0.003177	0.002634	0.011045	0.005293	0.003157	0.002648	0.009708	0.005264	0.003121	0.002679	0.008251	0.005555	0.003095	0.002663	0.008244	0.005612	0.003328	0.002717	0.008276	0.005569	0.003225	0.002713	0.008339	0.005700	0.003209	0.002693	0.008173	0.005274	0.003219	0.002876	0.008152	0.005277	0.003153	0.002799	0.008128	0.005240	0.003132	0.002797	0.008276	0.005146	0.003220	0.002775	0.009159	0.005170	0.003255	0.002750	0.009170	0.005183	0.003287	0.002687	0.009147	0.005137	0.003309	0.002617	0.009180	0.005245	0.003188	0.002779	0.008933	0.005095	0.003409	0.002758	0.007644	0.005023	0.003361	0.002725	0.007613	0.005051	0.003354	0.002738	0.007617	0.005265	0.003379	0.002722	0.007379	0.005079	0.003369	0.002825	0.007290	0.005028	0.003504	0.002809	0.007335	0.004982	0.003609	0.002774	0.007613	0.004807	0.003603	0.002774	0.007959	0.004574	0.003513	0.002712	0.009887	0.004693	0.003491	0.002784	0.009994	0.004642	0.003498	0.002855	0.009940	0.004694	0.003464	0.002720	0.009907	0.004850	0.003537	0.002655	0.009976	0.004961	0.003799	0.002660	0.009925	0.005056	0.003793	0.002700	0.009014	0.004976	0.003887	0.002730	0.008767	0.004864	0.003900	0.002743	0.008653	0.004963	0.003988	0.002776	0.008656	0.004883	0.004011	0.002655	0.008738	0.005011	0.003905	0.002605	0.009823	0.004969	0.003893	0.002633	0.009998	0.005076	0.003878	0.002598	0.010193	0.004940	0.003887	0.002614	0.010261	0.004917	0.003893	0.002639	0.010296	0.004992	0.003832	0.002609	0.010261	0.005500	0.003842	0.002605	0.010057	0.005483	0.003832	0.002679	0.009862	0.005608	0.003719	0.002707	0.008660	0.005622	0.003806	0.002704	0.008878	0.005705	0.003794	0.002657	0.009371	0.005900	0.003787	0.002682	0.009404	0.005719	0.003797	0.002705	0.009588	0.005704	0.003493	0.002679	0.009701	0.005661	0.003439	0.002609	0.009785	0.005694	0.003324	0.002566	0.009815	0.005761	0.003322	0.002746	0.010152	0.005683	0.003304	0.002743	0.010793	0.005788	0.003351	0.002765	0.010876	0.005908	0.003365	0.002849	0.010161	0.005834	0.003361	0.002824	0.009793	0.005818	0.003304	0.002836	0.009759	0.005742	0.003260	0.002885	0.009758	0.005767	0.003265	0.002825	0.010371	0.005745	0.003318	0.002968	0.010767	0.005464	0.003169	0.003169	0.011927	0.005785	0.003118	0.003180	0.011924	0.005656	0.003112	0.003208	0.011760	0.005955	0.003027	0.003295	0.011267	0.005968	0.003052	0.003298	0.010827	0.005946	0.003102	0.003314	0.011195	0.005755	0.003098	0.003387	0.011124	0.005966	0.003137	0.003397	0.011294	0.006013	0.003251	0.003398	0.012435	0.007655	0.003307	0.003528	0.012763	0.009488	0.003373	0.003423	0.013405	0.010312	0.003435	0.007086	0.014024	0.010881	0.003546	0.008650	0.015203	0.012321	0.003550	0.009235	0.016037	0.013141	0.003687	0.010320	0.017163	0.015437	0.003725	0.013299	0.022972	0.020041	0.003865	0.015980	0.024067	0.023266	0.003979	0.022002	0.025203	0.027346	0.004288	0.026665	0.025204	0.029665	0.004468	0.027062	0.024904	0.036387	0.005042	0.028003	0.025561	0.037898	0.005420	0.028243	0.025682	0.038873	0.005685	0.028313	0.025844	0.043504	0.006310	0.029006	0.026387	0.056799	0.008094	0.029551	0.027453	0.059775	0.008502	0.031315	0.027572	0.061181	0.008549	0.036865	0.028073	0.064441	0.009077	0.041015	0.028185	0.065087	0.010144	0.044258	0.029217	0.065779	0.010619	0.045268	0.030350	0.071471	0.010722	0.046915	0.030405	0.074114	0.011111	0.049392	0.030090	0.075807	0.011870	0.051452	0.030396	0.077015	0.012037	0.051685	0.030932	0.080011	0.012161	0.051784	0.028649	0.081729	0.012409	0.054410	0.028589	0.082244	0.013115	0.056039	0.028667	0.083843	0.014107	0.057297	0.029290	0.084584	0.018376	0.060476	0.029716	0.088160	0.018447	0.062599	0.034746	0.088414	0.018901	0.063373	0.034534	0.092350	0.019473	0.068622	0.037412	0.093677	0.020336	0.076088	0.038840	0.089014	0.020704	0.078462	0.038563	0.089171	0.020749	0.084576	0.040589	0.090815	0.021465	0.090622	0.042758	0.095737	0.022139	0.090881	0.045585	0.099449	0.024035	0.091451	0.047481	0.104347	0.025858	0.098897	0.048081	0.103776	0.027542	0.107623	0.051635	0.116614	0.027807	0.118706	0.057787	0.118761	0.029333	0.125487	0.062595	0.129823	0.031959	0.138041	0.068573	0.141075	0.033218	0.147565	0.069377	0.141250	0.035668	0.174586	0.070530	0.150832	0.036528	0.205791	0.072193	0.156876	0.039514	0.218155	0.074535	0.169565	0.039049	0.226803	0.075852	0.170707	0.041650	0.263377	0.087566	0.176205	0.044298	0.312727	0.108087	0.199532	0.047629	0.371523	0.111435	0.247164	0.049375	0.376388	0.117282	0.261969	0.053652	0.380298	0.123015	0.262061	0.058098	0.382418	0.133366	0.271486	0.062227	0.386416	0.136235	0.271370	0.063429	0.389052	0.138313	0.272351	0.065119	0.393873	0.141615	0.284316	0.064672	0.409342	0.143349	0.287460	0.064402	0.413908	0.146933	0.299473	0.066608	0.442036	0.148848	0.305799	0.068137	0.466285	0.149690	0.307497	0.067977	0.469797	0.156120	0.310593	0.070232	0.479258	0.162025	0.313485	0.070615	0.495744	0.165502	0.313225	0.070744	0.483609	0.170492	0.320724	0.074281	0.493086	0.171684	0.319813	0.073424	0.498396	0.172167	0.321544	0.073073	0.494537	0.170672	0.339350	0.072397	0.482553	0.160779	0.335690	0.072012	0.454562	0.160066	0.301314	0.071276	0.458447	0.158416	0.283693	0.069488	0.461312	0.158761	0.287769	0.066595	0.481989	0.152019	0.306365	0.064522	0.513490	0.158296	0.310321	0.068515	0.528857	0.156648	0.319073	0.067073	0.528618	0.156469	0.316603	0.066578	0.526808	0.154030	0.311261	0.068217	0.530316	0.156226	0.300597	0.067454	0.509035	0.155085	0.293325	0.064662	0.489928	0.151993	0.287820	0.064130	0.488069	0.153155	0.286984	0.063286	0.493376	0.149488	0.307316	0.061475	0.552035	0.150244	0.303188	0.061457	0.549316	0.150210	0.294918	0.057685	0.548612	0.149933	0.304148	0.057948	0.543530	0.149804	0.306053	0.059292	0.544568	0.159463	0.300937	0.066786	0.566119	0.157837	0.295240	0.066145	0.567750	0.159879	0.299730	0.069523	0.570253	0.165923	0.309688	0.070766	0.576833	0.164880	0.313604	0.070142	0.565618	0.166658	0.319560	0.071056	0.558321	0.160834	0.312024	0.066762	0.541842	0.159440	0.305167	0.067133	0.549181	0.161263	0.303627	0.069015	0.548391	0.166890	0.307097	0.068388	0.546405	0.164492	0.309750	0.067938	0.547598	0.166289	0.311398	0.068770	0.548170	0.174244	0.325730	0.069491	0.563535	0.169940	0.323938	0.071505	0.577277	0.168445	0.308288	0.072255	0.529962	0.167289	0.311150	0.074017	0.519526	0.167976	0.314918	0.074334	0.515640	0.167743	0.310682	0.073578	0.513572	0.169689	0.323438	0.073087	0.502897	0.164051	0.313672	0.068114	0.490843	0.160120	0.327679	0.065154	0.488236	0.156594	0.323597	0.061867	0.483612	0.148859	0.316819	0.059833	0.465185	0.147299	0.310216	0.059170	0.462742	0.142360	0.290163	0.057045	0.440045	0.140700	0.283559	0.055215	0.437918	0.141184	0.289471	0.055074	0.428620	0.140741	0.287562	0.055816	0.418378	0.136726	0.280560	0.054241	0.413006	0.130809	0.277563	0.055073	0.408163	0.129198	0.273166	0.054321	0.401542	0.120077	0.260664	0.053329	0.376155	0.119505	0.252557	0.050721	0.354223	0.116405	0.244199	0.047940	0.308335	0.108604	0.238642	0.043820	0.289174	0.100046	0.227497	0.040774	0.281761	0.099453	0.217126	0.040600	0.276109	0.097036	0.195073	0.039148	0.273852	0.094933	0.184272	0.037428	0.250982	0.093239	0.147810	0.035850	0.202012	0.093700	0.143538	0.034652	0.167703	0.092524	0.137032	0.034995	0.155598	0.093699	0.135552	0.034657	0.153652	0.089910	0.132089	0.034263	0.141558	0.089107	0.120848	0.033800	0.104344	0.087451	0.091776	0.032937	0.088986	0.080601	0.082438	0.030055	0.086206	0.078500	0.075236	0.027255	0.052246	0.077266	0.069226	0.026966	0.038233	0.075304	0.067171	0.025338	0.035901	0.074514	0.064809	0.025004	0.032256	0.069562	0.060546	0.025064	0.031862	0.068076	0.055159	0.027248	0.029177	0.067411	0.050088	0.031479	0.028220	0.063732	0.048815	0.038374	0.027423	0.061575	0.046730	0.052774	0.024136	0.053703	0.043725	0.052159	0.008738	0.053003	0.042685	0.052237	0.007779	0.048918	0.039564	0.052233	0.006805	0.044576	0.038310	0.052966	0.005665	0.043844	0.042332	0.056405	0.005455	0.038876	0.042280	0.058700	0.005553	0.041526	0.041930	0.061052	0.005488	0.038889	0.043440	0.062587	0.004945	0.038666	0.052716	0.071945	0.004956	0.039321	0.062002	0.080336	0.005059	0.039293	0.064200	0.083912	0.004966	0.039399	0.065406	0.086541	0.004923	0.039147	0.065799	0.086987	0.004454	0.037272	0.066810	0.087815	0.004497	0.033397	0.065280	0.090021	0.004489	0.032575	0.065513	0.089615	0.004473	0.031913	0.066402	0.090402	0.004546	0.032737	0.072680	0.090725	0.004697	0.033019	0.075627	0.084480	0.004606	0.033150	0.078187	0.086338	0.004569	0.033156	0.078626	0.087328	0.004584	0.032865	0.079025	0.087958	0.004595	0.032669	0.078776	0.088729	0.004586	0.032946	0.076804	0.088838	0.004735	0.031462	0.076286	0.086861	0.004548	0.028073	0.076197	0.086400	0.004514	
257 1
-0.011111	-0.011111	-0.011111	-0.011111	-0.011111	-0.011111	-0.011111	-0.011111	-0.011111	-0.011111	-0.011111	-0.011111	-0.011111	-0.011111	-0.011111	-0.011111	-0.011111	-0.011111	-0.011111	-0.011111	-0.011111	-0.011111	-0.011111	-0.011111	-0.011111	-0.011111	-0.011111	-0.011111	-0.011111	-0.011111	-0.011111	-0.011111	-0.011111	-0.011111	-0.011111	-0.011111	-0.011111	-0.011111	-0.011111	-0.011111	-0.011111	-0.011111	-0.011111	-0.011111	-0.011111	-0.011111	-0.011111	-0.011111	-0.011111	-0.011111	-0.011111	-0.011111	-0.011111	-0.011111	-0.011111	-0.011111	-0.011111	-0.011111	-0.011111	-0.011111	-0.011111	-0.011111	-0.011111	-0.011111	-0.011111	-0.011111	-0.011111	-0.011111	-0.011111	-0.011111	-0.011111	-0.011111	-0.011111	-0.011111	-0.011111	-0.011111	-0.011111	-0.011111	-0.011111	-0.011111	-0.011111	-0.011111	-0.011111	-0.011111	-0.011111	-0.011111	-0.011111	-0.011111	-0.011111	-0.011111	-0.011111	-0.011111	-0.011111	-0.011111	-0.011111	-0.018353	-0.021773	-0.022135	-0.022207	-0.022226	-0.034936	-0.036552	-0.044064	-0.060843	-0.066412	-0.085201	-0.095452	-0.102701	-0.125552	-0.140639	-0.156274	-0.167812	-0.187634	-0.201074	-0.222453	-0.228580	-0.240369	-0.266139	-0.281514	-0.299441	-0.311217	-0.339010	-0.357176	-0.378986	-0.405646	-0.429918	-0.451581	-0.486997	-0.505946	-0.530156	-0.556715	-0.588064	-0.604139	-0.630963	-0.650339	-0.675713	-0.687700	-0.699847	-0.709722	-0.712439	-0.724314	-0.736499	-0.744696	-0.756290	-0.755560	-0.755531	-0.763783	-0.766161	-0.766555	-0.769622	-0.777342	-0.777780	-0.790372	-0.789160	-0.788938	-0.788896	-0.788890	-0.788889	-0.800149	-0.799890	-0.799951	-0.799986	-0.799996	-0.799999	-0.800000	-0.800000	-0.800000	-0.800000	-0.800000	-0.800000	-0.800000	-0.800000	-0.800000	-0.800000	-0.800000	-0.800000	-0.800000	-0.800000	-0.800000	-0.800000	-0.800000	-0.800000	-0.800000	-0.800000	-0.800000	-0.800000	-0.800000	-0.800000	-0.800000	-0.800000	-0.800000	-0.800000	-0.800000	-0.800000	-0.800000	-0.800000	-0.800000	-0.800000	-0.800000	-0.800000	-0.800000	-0.800000	-0.800000	-0.800000	-0.800000	-0.800000	-0.800000	-0.787534	-0.788744	-0.785904	-0.778212	-0.765179	-0.766419	-0.754045	-0.742573	-0.738681	-0.732823	-0.721053	-0.710378	-0.698460	-0.682242	-0.665015	-0.644022	-0.631396	-0.608795	-0.584519	-0.568315	-0.544264	-0.529757	-0.518656	-0.499157	-0.485086	-0.460417	-0.453833	-0.425759	-0.406414	-0.393292	-0.370380	-0.354060	-0.342990	-0.324699	-0.309656	-0.289588	-0.277839	-0.253920	-0.242731	-0.232873	-0.219420	-0.200019	-0.188379	-0.173775	-0.166664	-0.156139	-0.145833	-0.140123	-0.121534	-0.109544	
