2047.0,2044.0,2035.0,2054.0,0
2046.0,2041.0,2032.0,2063.0,0
2040.0,2042.0,2037.0,2060.0,0.0,0.0,
2050.0,2043.0,2037.0,2069.0,0.0,0.0,
2061.0,2051.0,2046.0,2068.0,0
2055.0,2048.0,2035.0,2067.0,0
2052.0,2050.0,2037.0,2066.0,0
2058.0,2052.0,2040.0,2063.0,0
2052.0,2054.0,2041.0,2066.0,0
2054.0,2051.0,2042.0,2069.0,0
2053.0,2053.0,2040.0,2067.0,0
2053.0,2057.0,2043.0,2064.0,0
2052.0,2057.0,2041.0,2068.0,0
2050.0,2058.0,2044.0,2068.0,0
2050.0,2058.0,2043.0,2066.0,0
2048.0,2059.0,2041.0,2065.0,0
2052.0,2061.0,2045.0,2065.0,0
2048.0,2070.0,2046.0,2066.0,0.0,0.0,
2049.0,2083.0,2044.0,2068.0,0.0,0.0,
2046.0,2088.0,2042.0,2066.0,0
2047.0,2090.0,2050.0,2063.0,0
2046.0,2088.0,2051.0,2062.0,0
2046.0,2089.0,2044.0,2062.0,0
2041.0,2085.0,2041.0,2060.0,0
2043.0,2081.0,2054.0,2055.0,0.0,0.0,
2043.0,2072.0,2045.0,2061.0,0
2041.0,2072.0,2041.0,2056.0,0
2045.0,2066.0,2046.0,2060.0,0
2042.0,2056.0,2042.0,2053.0,0
2037.0,2039.0,2044.0,2056.0,0
2038.0,2016.0,2044.0,2057.0,0
2035.0,1998.0,2041.0,2058.0,0
2033.0,1988.0,2041.0,2055.0,0
2038.0,1995.0,2042.0,2054.0,0
2043.0,2024.0,2046.0,2069.0,0
2033.0,2034.0,2041.0,2062.0,0.0,0.0,
2038.0,2044.0,2041.0,2062.0,0
2033.0,2046.0,2043.0,2059.0,0
2034.0,2047.0,2041.0,2060.0,0
2035.0,2046.0,2038.0,2067.0,0
2034.0,2042.0,2039.0,2062.0,0
2035.0,2043.0,2039.0,2062.0,0
2032.0,2045.0,2037.0,2064.0,0.0,0.0,
2033.0,2043.0,2038.0,2067.0,0
2033.0,2046.0,2036.0,2066.0,0
2038.0,2046.0,2037.0,2064.0,0
2031.0,2043.0,2032.0,2063.0,0
2041.0,2042.0,2042.0,2069.0,0
2060.0,2046.0,2033.0,2073.0,0
2045.0,2042.0,2031.0,2078.0,0.0,0.0,
2047.0,2047.0,2035.0,2068.0,0.0,0.0,
2049.0,2045.0,2038.0,2077.0,0
2048.0,2046.0,2037.0,2075.0,0
2046.0,2043.0,2031.0,2076.0,0
2040.0,2039.0,2036.0,2084.0,0
2041.0,2047.0,2036.0,2082.0,0
2043.0,2050.0,2042.0,2081.0,0
2039.0,2049.0,2038.0,2084.0,0
2038.0,2049.0,2042.0,2081.0,0
2031.0,2054.0,2048.0,2078.0,0
2040.0,2050.0,2041.0,2078.0,0
2039.0,2051.0,2041.0,2081.0,0
2037.0,2053.0,2034.0,2080.0,0
2041.0,2048.0,2044.0,2081.0,0
2044.0,2042.0,2043.0,2082.0,0
2037.0,2044.0,2038.0,2079.0,0
2041.0,2045.0,2041.0,2073.0,0
2041.0,2047.0,2046.0,2072.0,0
2040.0,2043.0,2044.0,2073.0,0
2042.0,2042.0,2044.0,2076.0,0
2043.0,2042.0,2044.0,2071.0,0.0,0.0,
2045.0,2042.0,2040.0,2071.0,0.0,0.0,
2037.0,2047.0,2044.0,2072.0,0.0,0.0,
2043.0,2043.0,2044.0,2067.0,0
2043.0,2049.0,2043.0,2072.0,0
2046.0,2043.0,2043.0,2070.0,0
2040.0,2049.0,2045.0,2074.0,0
2039.0,2049.0,2041.0,2072.0,0
2044.0,2049.0,2043.0,2077.0,0
2039.0,2049.0,2036.0,2071.0,0
2039.0,2049.0,2043.0,2068.0,0
2035.0,2048.0,2028.0,2069.0,0
2038.0,2054.0,2041.0,2071.0,0
2029.0,2050.0,2034.0,2070.0,0
2034.0,2054.0,2040.0,2069.0,0
2031.0,2054.0,2045.0,2072.0,0
2036.0,2041.0,2036.0,2072.0,0
2033.0,2042.0,2041.0,2071.0,0.0,0.0,
2036.0,2041.0,2037.0,2070.0,0.0,0.0,
2036.0,2044.0,2034.0,2066.0,0
2035.0,2044.0,2036.0,2066.0,0
2036.0,2040.0,2037.0,2069.0,0
2036.0,2050.0,2038.0,2068.0,0
2036.0,2046.0,2034.0,2066.0,0
2043.0,2036.0,2033.0,2067.0,0
2036.0,2037.0,2034.0,2068.0,0
2033.0,2035.0,2030.0,2068.0,0
2036.0,2034.0,2032.0,2068.0,0
2034.0,2032.0,2033.0,2066.0,0
2038.0,2038.0,2031.0,2063.0,0
2037.0,2038.0,2031.0,2065.0,0
2042.0,2036.0,2030.0,2067.0,0
2038.0,2039.0,2033.0,2071.0,0
2041.0,2038.0,2040.0,2071.0,0
2040.0,2041.0,2033.0,2067.0,0
2046.0,2043.0,2037.0,2068.0,0.0,0.0,
2043.0,2046.0,2035.0,2069.0,0.0,0.0,
2041.0,2039.0,2037.0,2061.0,0
2048.0,2044.0,2034.0,2069.0,0
2047.0,2043.0,2037.0,2070.0,0
2042.0,2044.0,2034.0,2070.0,0
2044.0,2045.0,2035.0,2071.0,0
2044.0,2045.0,2035.0,2067.0,0
2041.0,2046.0,2031.0,2076.0,0
2042.0,2048.0,2034.0,2066.0,0
2032.0,2046.0,2034.0,2068.0,0
2039.0,2051.0,2031.0,2070.0,0
2038.0,2053.0,2036.0,2068.0,0
2040.0,2055.0,2036.0,2068.0,0
2038.0,2056.0,2027.0,2067.0,0
2040.0,2058.0,2032.0,2062.0,0
2039.0,2054.0,2032.0,2064.0,0
2045.0,2059.0,2034.0,2064.0,0
2047.0,2055.0,2036.0,2061.0,0.0,0.0,
2056.0,2058.0,2040.0,2066.0,0.0,0.0,
2047.0,2059.0,2036.0,2065.0,0.0,0.0,
2045.0,2055.0,2034.0,2064.0,0
2043.0,2054.0,2037.0,2063.0,0
2033.0,2062.0,2031.0,2059.0,0
2044.0,2063.0,2036.0,2064.0,0
2039.0,2062.0,2045.0,2059.0,0
2039.0,2064.0,2046.0,2055.0,0
2035.0,2061.0,2040.0,2059.0,0
2039.0,2055.0,2035.0,2061.0,0
2042.0,2055.0,2035.0,2058.0,0
2034.0,2055.0,2034.0,2067.0,0
2036.0,2056.0,2037.0,2059.0,0
2033.0,2053.0,2038.0,2065.0,0
2037.0,2060.0,2038.0,2062.0,0
2043.0,2045.0,2041.0,2064.0,0
2039.0,2048.0,2042.0,2066.0,0
2043.0,2044.0,2040.0,2066.0,0.0,0.0,
2042.0,2047.0,2038.0,2065.0,0.0,0.0,
2039.0,2041.0,2037.0,2063.0,0
2042.0,2044.0,2036.0,2066.0,0
2041.0,2043.0,2040.0,2062.0,0
2044.0,2045.0,2040.0,2064.0,0
2041.0,2044.0,2029.0,2066.0,0
2043.0,2048.0,2038.0,2068.0,0
2046.0,2042.0,2038.0,2065.0,0
2038.0,2037.0,2034.0,2064.0,0
2048.0,2034.0,2034.0,2067.0,0
2047.0,2030.0,2040.0,2066.0,0
2046.0,2035.0,2039.0,2060.0,0
2052.0,2047.0,2043.0,2075.0,0
2051.0,2050.0,2045.0,2073.0,0.0,0.0,
2050.0,2045.0,2036.0,2067.0,0.0,0.0,
2046.0,2042.0,2042.0,2067.0,0
2040.0,2043.0,2041.0,2066.0,0
2046.0,2041.0,2039.0,2069.0,0
2049.0,2043.0,2041.0,2074.0,0
2049.0,2043.0,2044.0,2071.0,0
2053.0,2042.0,2039.0,2071.0,0
2052.0,2045.0,2041.0,2070.0,0
2054.0,2044.0,2040.0,2071.0,0
2054.0,2046.0,2039.0,2069.0,0
2057.0,2044.0,2040.0,2069.0,0
2054.0,2047.0,2038.0,2070.0,0
2053.0,2045.0,2040.0,2071.0,0
2051.0,2048.0,2042.0,2070.0,0
2047.0,2049.0,2043.0,2068.0,0
2043.0,2047.0,2045.0,2065.0,0
2043.0,2049.0,2044.0,2063.0,0.0,0.0,
2043.0,2044.0,2043.0,2068.0,0.0,0.0,
2040.0,2046.0,2045.0,2063.0,0
2044.0,2049.0,2043.0,2062.0,0
2042.0,2045.0,2043.0,2067.0,0
2036.0,2050.0,2041.0,2064.0,0
2037.0,2045.0,2041.0,2065.0,0
2041.0,2045.0,2040.0,2068.0,0
2041.0,2045.0,2041.0,2060.0,0
2038.0,2041.0,2036.0,2065.0,0
2044.0,2038.0,2046.0,2063.0,0
2038.0,2041.0,2038.0,2066.0,0
2047.0,2042.0,2035.0,2070.0,0
2042.0,2038.0,2037.0,2070.0,0
2040.0,2046.0,2035.0,2064.0,0
2040.0,2047.0,2034.0,2067.0,0
2039.0,2042.0,2035.0,2064.0,0
2040.0,2045.0,2033.0,2063.0,0
2039.0,2046.0,2034.0,2063.0,0
2042.0,2049.0,2032.0,2062.0,0.0,0.0,
2040.0,2049.0,2032.0,2066.0,0.0,0.0,
2040.0,2046.0,2033.0,2069.0,0.0,0.0,
2041.0,2048.0,2040.0,2067.0,0
2040.0,2047.0,2031.0,2069.0,0
2040.0,2050.0,2036.0,2067.0,0
2038.0,2048.0,2031.0,2068.0,0
2046.0,2048.0,2029.0,2075.0,0
2046.0,2049.0,2035.0,2072.0,0
2048.0,2050.0,2029.0,2067.0,0
2043.0,2047.0,2031.0,2067.0,0
2044.0,2042.0,2036.0,2072.0,0
2049.0,2050.0,2033.0,2067.0,0
2041.0,2048.0,2032.0,2066.0,0
2044.0,2047.0,2043.0,2061.0,0
2043.0,2052.0,2038.0,2066.0,0
2043.0,2044.0,2039.0,2063.0,0
2045.0,2046.0,2035.0,2064.0,0.0,0.0,
2042.0,2050.0,2034.0,2058.0,0.0,0.0,
2042.0,2048.0,2038.0,2061.0,0
2041.0,2051.0,2036.0,2057.0,0
2042.0,2054.0,2036.0,2065.0,0
2040.0,2049.0,2039.0,2067.0,0
2046.0,2053.0,2044.0,2072.0,0
2045.0,2052.0,2041.0,2076.0,0
2045.0,2054.0,2040.0,2070.0,0
2041.0,2058.0,2042.0,2070.0,0
2040.0,2058.0,2043.0,2065.0,0
2037.0,2054.0,2040.0,2064.0,0
2039.0,2054.0,2041.0,2062.0,0
2040.0,2054.0,2042.0,2066.0,0
2036.0,2056.0,2043.0,2064.0,0
2035.0,2050.0,2042.0,2065.0,0
2037.0,2050.0,2041.0,2065.0,0
2042.0,2053.0,2040.0,2061.0,0
2032.0,2042.0,2040.0,2053.0,0
2036.0,2045.0,2037.0,2064.0,0
2035.0,2045.0,2038.0,2061.0,0.0,0.0,
2042.0,2052.0,2041.0,2071.0,0
2038.0,2048.0,2039.0,2064.0,0
2038.0,2050.0,2026.0,2064.0,0
2045.0,2048.0,2035.0,2061.0,0
2039.0,2045.0,2035.0,2059.0,0.0,0.0,
2039.0,2044.0,2034.0,2057.0,0
2039.0,2040.0,2031.0,2053.0,0
2038.0,2040.0,2029.0,2053.0,0
2044.0,2042.0,2018.0,2058.0,0
2037.0,2039.0,2032.0,2056.0,0
2045.0,2044.0,2032.0,2058.0,0
2034.0,2043.0,2030.0,2057.0,0.0,0.0,
2042.0,2041.0,2030.0,2059.0,0
2043.0,2035.0,2031.0,2056.0,0
2040.0,2047.0,2032.0,2067.0,0
2044.0,2043.0,2030.0,2061.0,0
2047.0,2038.0,2031.0,2057.0,0.0,0.0,
2039.0,2036.0,2029.0,2059.0,0.0,0.0,
2038.0,2034.0,2037.0,2054.0,0
2040.0,2035.0,2030.0,2061.0,0
2041.0,2039.0,2031.0,2063.0,0
2038.0,2043.0,2034.0,2059.0,0
2039.0,2049.0,2025.0,2064.0,0
2041.0,2059.0,2029.0,2060.0,0
2042.0,2059.0,2034.0,2058.0,0
2043.0,2057.0,2035.0,2059.0,0
2050.0,2057.0,2038.0,2064.0,0
2044.0,2050.0,2040.0,2062.0,0
2047.0,2050.0,2039.0,2061.0,0.0,0.0,
2042.0,2042.0,2023.0,2063.0,0
2054.0,2035.0,2042.0,2070.0,0
2051.0,2033.0,2045.0,2067.0,0
2051.0,2036.0,2040.0,2065.0,0
2050.0,2036.0,2038.0,2065.0,0
2047.0,2036.0,2040.0,2065.0,0
2050.0,2038.0,2044.0,2068.0,0
2048.0,2037.0,2039.0,2066.0,0
2051.0,2040.0,2045.0,2067.0,0
2051.0,2044.0,2038.0,2067.0,0
2049.0,2045.0,2042.0,2066.0,0.0,0.0,
2050.0,2043.0,2047.0,2065.0,0.0,0.0,
2046.0,2050.0,2045.0,2058.0,0
2047.0,2047.0,2043.0,2062.0,0
2047.0,2052.0,2042.0,2059.0,0
2048.0,2056.0,2049.0,2054.0,0
2045.0,2061.0,2043.0,2056.0,0
2049.0,2065.0,2046.0,2057.0,0
2047.0,2067.0,2047.0,2054.0,0
2043.0,2059.0,2046.0,2053.0,0
2039.0,2060.0,2044.0,2056.0,0
2044.0,2055.0,2042.0,2058.0,0
2045.0,2059.0,2040.0,2055.0,0
2042.0,2050.0,2034.0,2054.0,0
2044.0,2053.0,2042.0,2059.0,0
2037.0,2048.0,2039.0,2057.0,0
2041.0,2057.0,2040.0,2054.0,0
2036.0,2043.0,2038.0,2058.0,0
2043.0,2043.0,2039.0,2055.0,0
2038.0,2039.0,2036.0,2063.0,0
2034.0,2044.0,2040.0,2058.0,0
2043.0,2037.0,2041.0,2059.0,0.0,0.0,
2039.0,2040.0,2040.0,2058.0,0.0,0.0,
2037.0,2040.0,2039.0,2058.0,0
2035.0,2043.0,2040.0,2063.0,0
2037.0,2041.0,2037.0,2065.0,0
2047.0,2046.0,2036.0,2062.0,0
2040.0,2052.0,2036.0,2060.0,0
2039.0,2054.0,2036.0,2058.0,0
2039.0,2065.0,2037.0,2052.0,0
2040.0,2065.0,2039.0,2056.0,0
2040.0,2069.0,2036.0,2060.0,0
2048.0,2077.0,2035.0,2060.0,0
2040.0,2078.0,2039.0,2063.0,0
2041.0,2075.0,2038.0,2057.0,0
2039.0,2078.0,2040.0,2070.0,0
2051.0,2061.0,2036.0,2066.0,0.0,0.0,
2044.0,2050.0,2035.0,2064.0,0.0,0.0,
2046.0,2040.0,2040.0,2065.0,0
2043.0,2026.0,2034.0,2069.0,0
2040.0,2001.0,2035.0,2064.0,0
2042.0,1974.0,2038.0,2065.0,0
2041.0,1985.0,2030.0,2061.0,0
2043.0,1976.0,2035.0,2066.0,0
2037.0,1989.0,2034.0,2072.0,0
2047.0,1990.0,2030.0,2067.0,0
2042.0,1990.0,2039.0,2064.0,0
2033.0,2001.0,2039.0,2064.0,0
2041.0,2010.0,2037.0,2061.0,0
2042.0,2017.0,2040.0,2064.0,0
2042.0,2024.0,2038.0,2067.0,0
2046.0,2040.0,2044.0,2067.0,0.0,0.0,
2041.0,2047.0,2041.0,2065.0,0.0,0.0,
2036.0,2050.0,2041.0,2061.0,0.0,0.0,
2042.0,2056.0,2039.0,2063.0,0
2038.0,2054.0,2036.0,2060.0,0
2035.0,2057.0,2037.0,2062.0,0
2032.0,2054.0,2041.0,2058.0,0
2036.0,2050.0,2037.0,2058.0,0
2032.0,2051.0,2040.0,2059.0,0
2035.0,2049.0,2042.0,2059.0,0
2036.0,2053.0,2040.0,2063.0,0
2039.0,2051.0,2039.0,2061.0,0
2040.0,2047.0,2047.0,2058.0,0
2037.0,2045.0,2043.0,2060.0,0
2037.0,2049.0,2038.0,2059.0,0
2055.0,2038.0,2037.0,2062.0,0
2047.0,2041.0,2039.0,2070.0,0
2042.0,2040.0,2039.0,2060.0,0
2038.0,2041.0,2038.0,2062.0,0
2042.0,2039.0,2035.0,2066.0,0
2044.0,2034.0,2034.0,2064.0,0
2045.0,2046.0,2035.0,2064.0,0.0,0.0,
2041.0,2045.0,2032.0,2068.0,0.0,0.0,
2043.0,2046.0,2038.0,2064.0,0
2037.0,2046.0,2037.0,2066.0,0
2037.0,2042.0,2039.0,2066.0,0
2040.0,2046.0,2036.0,2059.0,0
2041.0,2041.0,2034.0,2064.0,0
2037.0,2040.0,2034.0,2066.0,0
2039.0,2036.0,2035.0,2061.0,0
2044.0,2036.0,2035.0,2064.0,0
2045.0,2040.0,2034.0,2077.0,0
2043.0,2037.0,2033.0,2069.0,0
2047.0,2045.0,2031.0,2072.0,0
2046.0,2038.0,2040.0,2065.0,0
2042.0,2044.0,2038.0,2066.0,0
2042.0,2040.0,2039.0,2050.0,0.0,0.0,
2040.0,2042.0,2039.0,2062.0,0
2043.0,2045.0,2037.0,2063.0,0.0,0.0,
2043.0,2042.0,2038.0,2063.0,0.0,0.0,
2050.0,2043.0,2037.0,2065.0,0
2048.0,2042.0,2037.0,2063.0,0
2045.0,2042.0,2036.0,2062.0,0
2039.0,2053.0,2041.0,2066.0,0
2043.0,2059.0,2038.0,2066.0,0
2048.0,2069.0,2030.0,2069.0,0
2049.0,2067.0,2042.0,2068.0,0
2048.0,2062.0,2040.0,2071.0,0
2048.0,2061.0,2043.0,2070.0,0
2048.0,2059.0,2037.0,2068.0,0
2046.0,2058.0,2043.0,2071.0,0
2046.0,2049.0,2042.0,2069.0,0
2052.0,2051.0,2041.0,2072.0,0
2049.0,2048.0,2040.0,2072.0,0
2046.0,2048.0,2041.0,2068.0,0
2045.0,2047.0,2039.0,2068.0,0
2043.0,2045.0,2043.0,2066.0,0
2047.0,2046.0,2031.0,2063.0,0
2048.0,2045.0,2038.0,2063.0,0
2052.0,2045.0,2035.0,2064.0,0.0,0.0,
2048.0,2050.0,2041.0,2067.0,0.0,0.0,
2042.0,2050.0,2040.0,2068.0,0.0,0.0,
2039.0,2039.0,2037.0,2070.0,0
2042.0,2045.0,2037.0,2069.0,0
2040.0,2048.0,2038.0,2067.0,0
2045.0,2048.0,2042.0,2068.0,0
2039.0,2045.0,2035.0,2066.0,0
2036.0,2048.0,2038.0,2068.0,0
2034.0,2045.0,2036.0,2065.0,0
2040.0,2045.0,2039.0,2065.0,0
2036.0,2047.0,2043.0,2072.0,0
2036.0,2048.0,2039.0,2073.0,0
2040.0,2041.0,2038.0,2071.0,0
2038.0,2042.0,2035.0,2072.0,0
2036.0,2039.0,2033.0,2065.0,0
2051.0,2039.0,2033.0,2073.0,0
2049.0,2040.0,2032.0,2071.0,0
2048.0,2036.0,2029.0,2073.0,0
2047.0,2032.0,2024.0,2074.0,0
2047.0,2037.0,2029.0,2075.0,0.0,0.0,
2043.0,2040.0,2031.0,2075.0,0.0,0.0,
2043.0,2045.0,2029.0,2078.0,0
2044.0,2048.0,2027.0,2074.0,0
2044.0,2047.0,2030.0,2071.0,0
2045.0,2050.0,2027.0,2077.0,0
2043.0,2050.0,2032.0,2075.0,0
2043.0,2055.0,2034.0,2080.0,0
2042.0,2060.0,2035.0,2071.0,0
2043.0,2057.0,2037.0,2073.0,0
2048.0,2056.0,2041.0,2077.0,0
2053.0,2051.0,2039.0,2079.0,0
2050.0,2049.0,2027.0,2079.0,0
2055.0,2051.0,2037.0,2077.0,0
2053.0,2049.0,2034.0,2076.0,0
2052.0,2050.0,2040.0,2081.0,0
2051.0,2044.0,2038.0,2085.0,0
2050.0,2050.0,2040.0,2080.0,0
2049.0,2049.0,2040.0,2079.0,0
2046.0,2049.0,2041.0,2077.0,0.0,0.0,
2051.0,2049.0,2044.0,2075.0,0.0,0.0,
2048.0,2044.0,2040.0,2077.0,0.0,0.0,
2047.0,2046.0,2042.0,2075.0,0
2045.0,2047.0,2037.0,2078.0,0
2046.0,2044.0,2042.0,2077.0,0
2044.0,2046.0,2043.0,2075.0,0
2054.0,2047.0,2037.0,2073.0,0
2053.0,2043.0,2033.0,2073.0,0
2048.0,2050.0,2035.0,2072.0,0
2051.0,2051.0,2033.0,2072.0,0
2036.0,2055.0,2034.0,2073.0,0
2052.0,2063.0,2033.0,2073.0,0
2049.0,2061.0,2041.0,2063.0,0
2045.0,2062.0,2031.0,2068.0,0
2045.0,2061.0,2036.0,2074.0,0
2049.0,2064.0,2029.0,2064.0,0
2047.0,2057.0,2037.0,2062.0,0
2042.0,2060.0,2032.0,2065.0,0
2047.0,2057.0,2034.0,2060.0,0
2044.0,2054.0,2034.0,2072.0,0
2038.0,2050.0,2024.0,2065.0,0.0,0.0,
2040.0,2047.0,2033.0,2065.0,0.0,0.0,
2044.0,2048.0,2030.0,2067.0,0
2038.0,2048.0,2030.0,2063.0,0
2037.0,2050.0,2033.0,2062.0,0
2037.0,2049.0,2035.0,2064.0,0
2039.0,2051.0,2033.0,2062.0,0
2042.0,2047.0,2031.0,2062.0,0
2041.0,2044.0,2033.0,2066.0,0
2040.0,2046.0,2033.0,2061.0,0
2038.0,2046.0,2032.0,2064.0,0
2039.0,2046.0,2031.0,2062.0,0
2031.0,2042.0,2032.0,2068.0,0
2043.0,2046.0,2033.0,2056.0,0
2039.0,2046.0,2032.0,2064.0,0.0,0.0,
2039.0,2037.0,2037.0,2066.0,0.0,0.0,
2047.0,2048.0,2040.0,2071.0,0
2044.0,2047.0,2037.0,2073.0,0
2047.0,2053.0,2035.0,2067.0,0
2042.0,2050.0,2039.0,2070.0,0
2042.0,2056.0,2041.0,2067.0,0
2048.0,2047.0,2037.0,2064.0,0
2043.0,2052.0,2040.0,2067.0,0
2042.0,2044.0,2037.0,2068.0,0
2046.0,2049.0,2042.0,2072.0,0
2046.0,2046.0,2047.0,2073.0,0
2049.0,2049.0,2040.0,2073.0,0
2048.0,2045.0,2041.0,2070.0,0.0,0.0,
2051.0,2047.0,2042.0,2070.0,0.0,0.0,
2045.0,2048.0,2042.0,2071.0,0
2047.0,2045.0,2042.0,2072.0,0
2053.0,2049.0,2042.0,2070.0,0
2050.0,2047.0,2042.0,2070.0,0
2048.0,2045.0,2043.0,2067.0,0
2042.0,2044.0,2042.0,2063.0,0
2047.0,2048.0,2046.0,2064.0,0
2043.0,2056.0,2046.0,2063.0,0
2045.0,2050.0,2045.0,2067.0,0
2043.0,2050.0,2041.0,2062.0,0
2047.0,2050.0,2044.0,2066.0,0
2041.0,2055.0,2038.0,2064.0,0
2043.0,2046.0,2042.0,2061.0,0
2044.0,2048.0,2037.0,2061.0,0
2042.0,2048.0,2037.0,2058.0,0
2045.0,2047.0,2035.0,2055.0,0
2047.0,2048.0,2038.0,2061.0,0.0,0.0,
2053.0,2036.0,2031.0,2072.0,0.0,0.0,
2051.0,2038.0,2033.0,2066.0,0
2048.0,2039.0,2034.0,2063.0,0
2047.0,2041.0,2032.0,2061.0,0
2047.0,2033.0,2035.0,2061.0,0
2041.0,2040.0,2035.0,2068.0,0
2043.0,2036.0,2041.0,2062.0,0
2046.0,2034.0,2030.0,2063.0,0
2047.0,2034.0,2035.0,2064.0,0
2047.0,2037.0,2033.0,2067.0,0.0,0.0,
2052.0,2034.0,2036.0,2062.0,0.0,0.0,
2050.0,2039.0,2036.0,2066.0,0
2050.0,2035.0,2032.0,2064.0,0
2052.0,2039.0,2035.0,2063.0,0
2052.0,2036.0,2030.0,2071.0,0
2058.0,2030.0,2035.0,2076.0,0
2051.0,2027.0,2033.0,2075.0,0
2058.0,2038.0,2035.0,2068.0,0
2051.0,2044.0,2033.0,2069.0,0
2050.0,2047.0,2032.0,2069.0,0
2056.0,2048.0,2034.0,2071.0,0
2052.0,2047.0,2034.0,2068.0,0
2052.0,2044.0,2039.0,2070.0,0
2054.0,2044.0,2036.0,2074.0,0
2052.0,2040.0,2036.0,2079.0,0
2051.0,2043.0,2039.0,2073.0,0
2049.0,2042.0,2036.0,2070.0,0
2053.0,2041.0,2036.0,2068.0,0.0,0.0,
2053.0,2048.0,2040.0,2076.0,0.0,0.0,
2052.0,2047.0,2041.0,2074.0,0.0,0.0,
2059.0,2047.0,2043.0,2077.0,0
2058.0,2044.0,2041.0,2079.0,0
2052.0,2048.0,2043.0,2079.0,0
2053.0,2046.0,2044.0,2078.0,0
2050.0,2048.0,2042.0,2081.0,0
2052.0,2043.0,2042.0,2077.0,0
2048.0,2043.0,2052.0,2077.0,0
2052.0,2044.0,2041.0,2072.0,0
2050.0,2042.0,2047.0,2073.0,0
2051.0,2042.0,2044.0,2074.0,0
2053.0,2044.0,2040.0,2074.0,0
2049.0,2043.0,2044.0,2071.0,0
2051.0,2041.0,2044.0,2069.0,0
2054.0,2046.0,2044.0,2068.0,0
2052.0,2043.0,2043.0,2075.0,0
2053.0,2059.0,2043.0,2072.0,0
2053.0,2061.0,2045.0,2068.0,0.0,0.0,
2047.0,2064.0,2042.0,2067.0,0.0,0.0,
2048.0,2073.0,2038.0,2069.0,0
2046.0,2074.0,2036.0,2073.0,0
2044.0,2074.0,2039.0,2064.0,0
2048.0,2073.0,2038.0,2067.0,0
2045.0,2076.0,2040.0,2066.0,0
2042.0,2070.0,2041.0,2066.0,0
2044.0,2072.0,2036.0,2069.0,0
2043.0,2065.0,2034.0,2067.0,0
2045.0,2063.0,2034.0,2066.0,0
2043.0,2058.0,2032.0,2066.0,0
2039.0,2052.0,2033.0,2069.0,0
2048.0,2036.0,2040.0,2071.0,0
2043.0,2023.0,2031.0,2066.0,0
2047.0,1990.0,2033.0,2066.0,0
2046.0,1995.0,2037.0,2067.0,0
2042.0,2001.0,2031.0,2066.0,0
2044.0,2004.0,2033.0,2068.0,0
2041.0,2011.0,2039.0,2068.0,0
2046.0,2016.0,2037.0,2071.0,0.0,0.0,
2040.0,2021.0,2032.0,2073.0,0.0,0.0,
2038.0,2022.0,2041.0,2067.0,0.0,0.0,
2039.0,2022.0,2033.0,2069.0,0.0,0.0,
2034.0,2022.0,2038.0,2069.0,0.0,0.0,
2032.0,2025.0,2037.0,2072.0,0.0,0.0,
2036.0,2030.0,2036.0,2065.0,0
2035.0,2034.0,2034.0,2069.0,0
2034.0,2040.0,2036.0,2062.0,0
2045.0,2038.0,2038.0,2074.0,0
2040.0,2037.0,2037.0,2071.0,0
2041.0,2035.0,2036.0,2073.0,0
2042.0,2035.0,2037.0,2068.0,0
2039.0,2040.0,2038.0,2070.0,0
2041.0,2048.0,2040.0,2066.0,0
2042.0,2049.0,2043.0,2063.0,0
2040.0,2058.0,2042.0,2063.0,0
2041.0,2055.0,2040.0,2064.0,0
2040.0,2061.0,2041.0,2070.0,0
2043.0,2068.0,2040.0,2062.0,0
2038.0,2072.0,2038.0,2061.0,0
2041.0,2067.0,2041.0,2064.0,0
2039.0,2065.0,2039.0,2061.0,0
2042.0,2071.0,2041.0,2059.0,0
2042.0,2068.0,2038.0,2061.0,0
2051.0,2059.0,2038.0,2060.0,0
2051.0,2054.0,2036.0,2058.0,0
2046.0,2046.0,2034.0,2053.0,0
2042.0,2049.0,2029.0,2055.0,0
2043.0,2048.0,2031.0,2053.0,0
2038.0,2046.0,2032.0,2054.0,0
2036.0,2049.0,2031.0,2054.0,0
2040.0,2044.0,2033.0,2049.0,0
2042.0,2039.0,2034.0,2055.0,0
2032.0,2038.0,2033.0,2053.0,0
2032.0,2041.0,2030.0,2052.0,0
2032.0,2049.0,2029.0,2053.0,0
2034.0,2051.0,2038.0,2048.0,0
2033.0,2059.0,2038.0,2042.0,0
2038.0,2047.0,2044.0,2059.0,0
2040.0,2042.0,2037.0,2056.0,0
2037.0,2037.0,2035.0,2057.0,0
2031.0,2035.0,2035.0,2058.0,0
2036.0,2036.0,2037.0,2055.0,0
2036.0,2034.0,2042.0,2065.0,0
2035.0,2034.0,2039.0,2058.0,0
2033.0,2041.0,2037.0,2060.0,0
2038.0,2041.0,2039.0,2065.0,0.0,0.0,
2029.0,2039.0,2036.0,2062.0,0
2035.0,2039.0,2037.0,2060.0,0
2043.0,2038.0,2035.0,2061.0,0
2042.0,2041.0,2036.0,2059.0,0.0,0.0,
2045.0,2043.0,2039.0,2054.0,0
2045.0,2038.0,2038.0,2053.0,0
2047.0,2037.0,2033.0,2056.0,0
2050.0,2044.0,2039.0,2065.0,0
2051.0,2042.0,2028.0,2059.0,0
2044.0,2049.0,2033.0,2071.0,0
2038.0,2044.0,2034.0,2057.0,0
2045.0,2048.0,2033.0,2063.0,0
2044.0,2045.0,2038.0,2061.0,0
2047.0,2045.0,2032.0,2062.0,0
2053.0,2049.0,2035.0,2063.0,0.0,0.0,
2050.0,2048.0,2040.0,2064.0,0.0,0.0,
2048.0,2053.0,2037.0,2066.0,0.0,0.0,
2050.0,2048.0,2040.0,2056.0,0
2047.0,2049.0,2041.0,2069.0,0
2045.0,2048.0,2040.0,2063.0,0
2043.0,2049.0,2033.0,2065.0,0
2048.0,2046.0,2049.0,2066.0,0
2047.0,2041.0,2046.0,2065.0,0
2044.0,2044.0,2044.0,2065.0,0
2040.0,2044.0,2044.0,2065.0,0
2040.0,2043.0,2038.0,2065.0,0
2040.0,2038.0,2040.0,2064.0,0
2040.0,2037.0,2043.0,2062.0,0
2036.0,2039.0,2041.0,2063.0,0
2048.0,2041.0,2040.0,2061.0,0
2035.0,2034.0,2043.0,2066.0,0
2037.0,2044.0,2040.0,2067.0,0
2035.0,2033.0,2041.0,2063.0,0.0,0.0,
2037.0,2037.0,2040.0,2062.0,0.0,0.0,
2042.0,2039.0,2041.0,2060.0,0
2037.0,2036.0,2047.0,2061.0,0
2041.0,2037.0,2041.0,2065.0,0
2042.0,2033.0,2043.0,2066.0,0
2039.0,2037.0,2035.0,2062.0,0
2040.0,2043.0,2038.0,2068.0,0
2042.0,2042.0,2037.0,2063.0,0
2033.0,2047.0,2038.0,2062.0,0
2037.0,2051.0,2037.0,2063.0,0
2039.0,2049.0,2038.0,2062.0,0
2037.0,2049.0,2038.0,2061.0,0
2042.0,2045.0,2034.0,2063.0,0
2043.0,2053.0,2034.0,2063.0,0
2039.0,2052.0,2034.0,2065.0,0
2043.0,2051.0,2032.0,2064.0,0
2040.0,2057.0,2029.0,2065.0,0
2042.0,2050.0,2032.0,2054.0,0.0,0.0,
2045.0,2048.0,2036.0,2060.0,0.0,0.0,
2045.0,2049.0,2033.0,2060.0,0
2045.0,2058.0,2030.0,2060.0,0
2033.0,2059.0,2027.0,2061.0,0
2037.0,2057.0,2034.0,2062.0,0
2038.0,2054.0,2032.0,2066.0,0
2042.0,2058.0,2035.0,2063.0,0
2042.0,2063.0,2030.0,2068.0,0
2041.0,2059.0,2031.0,2065.0,0
2041.0,2061.0,2033.0,2065.0,0
2041.0,2057.0,2034.0,2056.0,0
2042.0,2066.0,2035.0,2069.0,0
2046.0,2061.0,2032.0,2070.0,0
2039.0,2056.0,2035.0,2069.0,0
2040.0,2065.0,2039.0,2071.0,0
2039.0,2055.0,2040.0,2065.0,0.0,0.0,
2053.0,2055.0,2043.0,2067.0,0.0,0.0,
2051.0,2060.0,2044.0,2059.0,0.0,0.0,
2048.0,2063.0,2036.0,2069.0,0
2047.0,2056.0,2040.0,2065.0,0
2049.0,2055.0,2038.0,2064.0,0
2048.0,2054.0,2036.0,2066.0,0
2048.0,2053.0,2039.0,2068.0,0
2042.0,2050.0,2039.0,2068.0,0
2043.0,2051.0,2037.0,2066.0,0
2046.0,2052.0,2040.0,2062.0,0
2038.0,2049.0,2033.0,2072.0,0
2050.0,2050.0,2033.0,2068.0,0
2047.0,2047.0,2037.0,2072.0,0
2042.0,2047.0,2034.0,2064.0,0
2050.0,2049.0,2034.0,2069.0,0.0,0.0,
2043.0,2047.0,2033.0,2065.0,0.0,0.0,
2043.0,2046.0,2037.0,2065.0,0
2040.0,2045.0,2032.0,2064.0,0
2041.0,2044.0,2049.0,2066.0,0
2044.0,2046.0,2037.0,2065.0,0
2034.0,2044.0,2038.0,2072.0,0
2040.0,2044.0,2037.0,2072.0,0
2040.0,2046.0,2033.0,2065.0,0
2033.0,2042.0,2035.0,2069.0,0
2036.0,2041.0,2041.0,2064.0,0
2037.0,2040.0,2039.0,2063.0,0
2036.0,2039.0,2039.0,2063.0,0
2034.0,2039.0,2038.0,2065.0,0
2035.0,2041.0,2036.0,2069.0,0
2032.0,2038.0,2035.0,2065.0,0
2038.0,2039.0,2033.0,2077.0,0
2039.0,2041.0,2037.0,2070.0,0
2039.0,2043.0,2031.0,2072.0,0
2033.0,2042.0,2033.0,2074.0,0
2034.0,2046.0,2030.0,2080.0,0
2036.0,2047.0,2032.0,2074.0,0
2034.0,2049.0,2035.0,2073.0,0
2042.0,2046.0,2034.0,2072.0,0
2037.0,2047.0,2032.0,2079.0,0.0,0.0,
2042.0,2048.0,2031.0,2078.0,0.0,0.0,
2040.0,2044.0,2041.0,2078.0,0.0,0.0,
2046.0,2047.0,2027.0,2078.0,0
2043.0,2051.0,2034.0,2074.0,0
2051.0,2047.0,2034.0,2071.0,0
2054.0,2054.0,2035.0,2078.0,0
2051.0,2053.0,2038.0,2075.0,0
2051.0,2056.0,2035.0,2077.0,0
2051.0,2054.0,2035.0,2073.0,0
2048.0,2052.0,2036.0,2076.0,0
2056.0,2057.0,2032.0,2079.0,0
2045.0,2052.0,2036.0,2077.0,0
2052.0,2054.0,2035.0,2076.0,0
2053.0,2057.0,2031.0,2081.0,0
2055.0,2056.0,2037.0,2077.0,0
2052.0,2054.0,2037.0,2078.0,0
2052.0,2056.0,2034.0,2073.0,0
2049.0,2052.0,2030.0,2075.0,0
2052.0,2052.0,2038.0,2078.0,0
2052.0,2052.0,2036.0,2070.0,0
2046.0,2048.0,2035.0,2072.0,0
2056.0,2055.0,2038.0,2081.0,0.0,0.0,
2047.0,2050.0,2036.0,2081.0,0.0,0.0,
2044.0,2049.0,2036.0,2074.0,0.0,0.0,
2050.0,2043.0,2036.0,2072.0,0
2043.0,2041.0,2031.0,2070.0,0
2040.0,2039.0,2040.0,2078.0,0
2043.0,2042.0,2034.0,2073.0,0
2047.0,2048.0,2035.0,2074.0,0
2043.0,2053.0,2038.0,2070.0,0
2041.0,2058.0,2034.0,2070.0,0
2041.0,2052.0,2035.0,2072.0,0
2042.0,2052.0,2037.0,2073.0,0
2045.0,2047.0,2038.0,2070.0,0
2050.0,2046.0,2029.0,2074.0,0
2048.0,2044.0,2032.0,2073.0,0
2049.0,2045.0,2032.0,2074.0,0
2042.0,2042.0,2035.0,2070.0,0.0,0.0,
2038.0,2040.0,2029.0,2072.0,0.0,0.0,
2045.0,2042.0,2033.0,2069.0,0
2038.0,2045.0,2030.0,2071.0,0
2039.0,2040.0,2035.0,2070.0,0
2040.0,2039.0,2035.0,2073.0,0
2039.0,2039.0,2026.0,2071.0,0
2035.0,2036.0,2038.0,2070.0,0
2037.0,2035.0,2033.0,2073.0,0
2040.0,2031.0,2030.0,2073.0,0
2032.0,2037.0,2031.0,2073.0,0
2046.0,2036.0,2033.0,2072.0,0
2038.0,2033.0,2035.0,2071.0,0
2042.0,2036.0,2039.0,2070.0,0
2044.0,2034.0,2047.0,2075.0,0
2050.0,2037.0,2038.0,2072.0,0
2046.0,2036.0,2039.0,2070.0,0
2052.0,2036.0,2037.0,2067.0,0
2042.0,2039.0,2034.0,2066.0,0
2043.0,2036.0,2037.0,2075.0,0
2043.0,2036.0,2038.0,2071.0,0
2036.0,2043.0,2040.0,2068.0,0
2043.0,2048.0,2041.0,2072.0,0.0,0.0,
2040.0,2053.0,2041.0,2072.0,0.0,0.0,
2042.0,2061.0,2042.0,2068.0,0.0,0.0,
2041.0,2068.0,2039.0,2070.0,0
2038.0,2070.0,2041.0,2069.0,0
2042.0,2072.0,2040.0,2066.0,0
2046.0,2071.0,2048.0,2067.0,0
2043.0,2071.0,2042.0,2066.0,0.0,0.0,
2038.0,2065.0,2046.0,2067.0,0
2040.0,2063.0,2042.0,2063.0,0
2041.0,2063.0,2046.0,2064.0,0
2045.0,2053.0,2042.0,2062.0,0
2039.0,2044.0,2047.0,2060.0,0
2035.0,2021.0,2039.0,2062.0,0
2040.0,2007.0,2040.0,2059.0,0
2040.0,1997.0,2042.0,2055.0,0
2040.0,1996.0,2035.0,2060.0,0
2035.0,1997.0,2044.0,2059.0,0
2038.0,1998.0,2040.0,2060.0,0
2039.0,1999.0,2041.0,2053.0,0
2037.0,2008.0,2040.0,2055.0,0
2037.0,2014.0,2038.0,2056.0,0
2042.0,2027.0,2042.0,2052.0,0
2041.0,2029.0,2040.0,2057.0,0
2033.0,2035.0,2039.0,2056.0,0
2034.0,2036.0,2040.0,2059.0,0
2038.0,2043.0,2041.0,2053.0,0.0,0.0,
2037.0,2039.0,2033.0,2057.0,0.0,0.0,
2038.0,2038.0,2037.0,2057.0,0
2036.0,2044.0,2041.0,2061.0,0
2040.0,2046.0,2045.0,2049.0,0
2039.0,2042.0,2039.0,2055.0,0
2035.0,2048.0,2038.0,2050.0,0
2038.0,2044.0,2035.0,2053.0,0
2041.0,2046.0,2041.0,2056.0,0
2042.0,2040.0,2036.0,2055.0,0
2055.0,2040.0,2038.0,2057.0,0
2045.0,2041.0,2039.0,2056.0,0
2045.0,2045.0,2038.0,2053.0,0
2045.0,2043.0,2039.0,2056.0,0
2038.0,2042.0,2038.0,2059.0,0.0,0.0,
2049.0,2037.0,2038.0,2060.0,0.0,0.0,
2046.0,2042.0,2045.0,2066.0,0
2045.0,2043.0,2037.0,2064.0,0
2047.0,2049.0,2040.0,2066.0,0
2040.0,2035.0,2037.0,2068.0,0
2043.0,2039.0,2038.0,2061.0,0
2043.0,2043.0,2038.0,2064.0,0
2043.0,2039.0,2036.0,2059.0,0
2043.0,2040.0,2035.0,2065.0,0
2053.0,2045.0,2042.0,2066.0,0
2057.0,2040.0,2039.0,2065.0,0
2058.0,2043.0,2042.0,2072.0,0
2060.0,2043.0,2041.0,2064.0,0
2052.0,2045.0,2047.0,2064.0,0
2048.0,2046.0,2049.0,2062.0,0
2047.0,2044.0,2046.0,2058.0,0
2046.0,2046.0,2048.0,2058.0,0
2048.0,2044.0,2043.0,2059.0,0
2048.0,2039.0,2050.0,2057.0,0.0,0.0,
2048.0,2043.0,2044.0,2057.0,0.0,0.0,
2046.0,2041.0,2043.0,2053.0,0.0,0.0,
2046.0,2044.0,2037.0,2059.0,0
2045.0,2043.0,2044.0,2062.0,0
2046.0,2045.0,2044.0,2062.0,0
2044.0,2044.0,2039.0,2061.0,0
2048.0,2045.0,2043.0,2061.0,0
2044.0,2041.0,2040.0,2060.0,0
2044.0,2047.0,2041.0,2057.0,0
2040.0,2050.0,2039.0,2057.0,0
2037.0,2046.0,2038.0,2059.0,0
2044.0,2039.0,2035.0,2055.0,0
2039.0,2042.0,2042.0,2057.0,0
2040.0,2042.0,2041.0,2058.0,0
2045.0,2048.0,2038.0,2054.0,0
2041.0,2055.0,2036.0,2059.0,0
2050.0,2055.0,2039.0,2058.0,0
2046.0,2057.0,2042.0,2059.0,0
2042.0,2058.0,2040.0,2064.0,0
2045.0,2053.0,2047.0,2059.0,0
2044.0,2054.0,2041.0,2058.0,0
2042.0,2047.0,2040.0,2058.0,0
2046.0,2048.0,2033.0,2059.0,0.0,0.0,
2042.0,2044.0,2036.0,2059.0,0.0,0.0,
2038.0,2044.0,2036.0,2061.0,0
2038.0,2044.0,2034.0,2056.0,0
2038.0,2044.0,2037.0,2058.0,0
2036.0,2040.0,2031.0,2054.0,0
2034.0,2048.0,2032.0,2066.0,0
2035.0,2054.0,2032.0,2057.0,0
2030.0,2059.0,2032.0,2061.0,0
2034.0,2070.0,2039.0,2064.0,0
2035.0,2064.0,2042.0,2063.0,0
2038.0,2073.0,2041.0,2062.0,0
2041.0,2071.0,2040.0,2068.0,0
2037.0,2073.0,2036.0,2069.0,0
2052.0,2062.0,2040.0,2070.0,0.0,0.0,
2047.0,2063.0,2032.0,2080.0,0.0,0.0,
2048.0,2064.0,2037.0,2068.0,0.0,0.0,
2050.0,2061.0,2035.0,2071.0,0
2047.0,2062.0,2030.0,2075.0,0
2057.0,2059.0,2036.0,2074.0,0
2053.0,2063.0,2037.0,2070.0,0
2053.0,2057.0,2034.0,2073.0,0
2053.0,2058.0,2037.0,2072.0,0
2053.0,2052.0,2035.0,2072.0,0
2049.0,2057.0,2038.0,2071.0,0
2053.0,2053.0,2044.0,2074.0,0
2047.0,2045.0,2042.0,2069.0,0
2056.0,2058.0,2038.0,2075.0,0
2054.0,2054.0,2041.0,2069.0,0
2054.0,2055.0,2040.0,2072.0,0
2054.0,2056.0,2044.0,2076.0,0
2053.0,2059.0,2037.0,2071.0,0
2051.0,2064.0,2034.0,2073.0,0
2048.0,2068.0,2039.0,2072.0,0
2048.0,2068.0,2039.0,2068.0,0.0,0.0,
2047.0,2069.0,2038.0,2064.0,0.0,0.0,
2046.0,2075.0,2038.0,2059.0,0
2044.0,2071.0,2040.0,2064.0,0
2040.0,2070.0,2043.0,2065.0,0
2046.0,2068.0,2036.0,2072.0,0
2042.0,2074.0,2038.0,2064.0,0
2042.0,2065.0,2038.0,2065.0,0
2040.0,2065.0,2036.0,2064.0,0
2035.0,2069.0,2034.0,2066.0,0
2045.0,2084.0,2036.0,2068.0,0
2044.0,2081.0,2037.0,2066.0,0
2039.0,2071.0,2035.0,2063.0,0
2036.0,2060.0,2034.0,2061.0,0
2039.0,2060.0,2034.0,2062.0,0
2033.0,2055.0,2034.0,2061.0,0
2030.0,2047.0,2032.0,2058.0,0
2033.0,2039.0,2038.0,2056.0,0
2033.0,2034.0,2035.0,2059.0,0.0,0.0,
2037.0,2025.0,2033.0,2053.0,0.0,0.0,
2037.0,2025.0,2031.0,2055.0,0.0,0.0,
2036.0,2025.0,2029.0,2050.0,0
2036.0,2025.0,2032.0,2058.0,0
2038.0,2029.0,2028.0,2052.0,0
2032.0,2036.0,2034.0,2057.0,0
2039.0,2043.0,2029.0,2058.0,0
2046.0,2055.0,2037.0,2065.0,0
2041.0,2051.0,2039.0,2059.0,0
2033.0,2055.0,2039.0,2053.0,0
2040.0,2050.0,2040.0,2056.0,0
2039.0,2052.0,2040.0,2052.0,0
2045.0,2051.0,2036.0,2061.0,0
2045.0,2054.0,2037.0,2053.0,0
2042.0,2052.0,2035.0,2061.0,0
2042.0,2047.0,2038.0,2057.0,0
2044.0,2043.0,2034.0,2058.0,0
2049.0,2054.0,2034.0,2061.0,0.0,0.0,
2046.0,2049.0,2033.0,2065.0,0.0,0.0,
2050.0,2050.0,2041.0,2062.0,0
2049.0,2051.0,2040.0,2058.0,0
2040.0,2044.0,2042.0,2064.0,0
2046.0,2042.0,2045.0,2063.0,0
2035.0,2040.0,2041.0,2063.0,0
2039.0,2040.0,2041.0,2062.0,0
2037.0,2039.0,2040.0,2060.0,0
2035.0,2041.0,2039.0,2058.0,0
2034.0,2041.0,2039.0,2057.0,0
2037.0,2042.0,2037.0,2060.0,0
2036.0,2026.0,2039.0,2058.0,0
2039.0,2038.0,2039.0,2057.0,0
2038.0,2033.0,2039.0,2058.0,0
2046.0,2033.0,2039.0,2061.0,0
2037.0,2033.0,2043.0,2059.0,0
2042.0,2029.0,2042.0,2063.0,0
2036.0,2026.0,2043.0,2066.0,0.0,0.0,
2036.0,2028.0,2045.0,2070.0,0.0,0.0,
2047.0,2027.0,2037.0,2065.0,0.0,0.0,
2050.0,2029.0,2036.0,2068.0,0
2050.0,2028.0,2035.0,2065.0,0
2048.0,2029.0,2033.0,2063.0,0
2051.0,2029.0,2032.0,2065.0,0
2052.0,2024.0,2035.0,2063.0,0
2047.0,2020.0,2030.0,2069.0,0
2042.0,2022.0,2032.0,2063.0,0
2050.0,2017.0,2032.0,2063.0,0
2049.0,2019.0,2036.0,2062.0,0
2040.0,2028.0,2033.0,2065.0,0
2043.0,2036.0,2035.0,2067.0,0
2041.0,2033.0,2036.0,2066.0,0
2039.0,2038.0,2031.0,2069.0,0
2046.0,2029.0,2031.0,2066.0,0
2045.0,2027.0,2031.0,2071.0,0
2038.0,2028.0,2038.0,2066.0,0
2035.0,2031.0,2034.0,2068.0,0
2036.0,2033.0,2034.0,2065.0,0
2038.0,2036.0,2036.0,2069.0,0
2036.0,2036.0,2039.0,2071.0,0.0,0.0,
2038.0,2048.0,2038.0,2073.0,0
2043.0,2043.0,2039.0,2073.0,0
2042.0,2047.0,2039.0,2071.0,0
2037.0,2048.0,2040.0,2070.0,0
2043.0,2039.0,2040.0,2076.0,0
2046.0,2062.0,2040.0,2075.0,0
2045.0,2053.0,2040.0,2072.0,0.0,0.0,
2049.0,2045.0,2037.0,2076.0,0
2044.0,2053.0,2038.0,2072.0,0
2047.0,2076.0,2041.0,2076.0,0
2051.0,2081.0,2040.0,2070.0,0
2048.0,2085.0,2043.0,2075.0,0
2051.0,2087.0,2043.0,2074.0,0
2050.0,2084.0,2048.0,2073.0,0.0,0.0,
2049.0,2089.0,2045.0,2074.0,0.0,0.0,
2046.0,2082.0,2045.0,2074.0,0
2046.0,2090.0,2043.0,2073.0,0
2043.0,2080.0,2049.0,2075.0,0
2049.0,2077.0,2044.0,2075.0,0
2044.0,2073.0,2042.0,2071.0,0
2045.0,2070.0,2040.0,2074.0,0
2047.0,2061.0,2041.0,2069.0,0
2050.0,2045.0,2040.0,2074.0,0
2047.0,1989.0,2029.0,2076.0,0
2049.0,1983.0,2039.0,2070.0,0
2048.0,1989.0,2038.0,2069.0,0
2046.0,1993.0,2039.0,2071.0,0
2050.0,1992.0,2037.0,2065.0,0
2050.0,2010.0,2033.0,2067.0,0.0,0.0,
2046.0,2013.0,2043.0,2069.0,0.0,0.0,
2046.0,2023.0,2037.0,2071.0,0.0,0.0,
2046.0,2024.0,2042.0,2072.0,0
2045.0,2024.0,2038.0,2072.0,0
2042.0,2032.0,2040.0,2071.0,0
2043.0,2030.0,2039.0,2071.0,0
2042.0,2033.0,2037.0,2073.0,0
2046.0,2034.0,2039.0,2070.0,0
2043.0,2036.0,2035.0,2072.0,0
2043.0,2040.0,2035.0,2075.0,0
2051.0,2042.0,2036.0,2065.0,0
2043.0,2043.0,2034.0,2067.0,0
2043.0,2046.0,2036.0,2067.0,0
2039.0,2048.0,2035.0,2063.0,0
2037.0,2048.0,2035.0,2063.0,0
2040.0,2044.0,2035.0,2065.0,0
2043.0,2050.0,2031.0,2071.0,0
2040.0,2049.0,2036.0,2066.0,0
2042.0,2045.0,2033.0,2064.0,0
2043.0,2046.0,2033.0,2065.0,0
2037.0,2046.0,2039.0,2065.0,0
2042.0,2038.0,2035.0,2073.0,0
2042.0,2051.0,2042.0,2068.0,0.0,0.0,
2049.0,2051.0,2040.0,2067.0,0
2037.0,2049.0,2029.0,2066.0,0
2048.0,2047.0,2043.0,2069.0,0
2042.0,2054.0,2045.0,2071.0,0
2039.0,2052.0,2043.0,2076.0,0
2042.0,2054.0,2040.0,2068.0,0
2042.0,2058.0,2039.0,2066.0,0
2044.0,2056.0,2039.0,2067.0,0
2043.0,2059.0,2037.0,2068.0,0
2047.0,2061.0,2034.0,2072.0,0
2051.0,2055.0,2033.0,2065.0,0.0,0.0,
2051.0,2056.0,2035.0,2062.0,0.0,0.0,
2053.0,2054.0,2035.0,2068.0,0.0,0.0,
2051.0,2053.0,2036.0,2064.0,0
2050.0,2058.0,2038.0,2065.0,0
2049.0,2057.0,2036.0,2064.0,0
2052.0,2051.0,2039.0,2061.0,0
2045.0,2050.0,2036.0,2060.0,0
2049.0,2051.0,2035.0,2061.0,0
2041.0,2047.0,2047.0,2062.0,0
2036.0,2047.0,2039.0,2059.0,0
2039.0,2051.0,2036.0,2061.0,0
2038.0,2043.0,2038.0,2066.0,0
2035.0,2049.0,2031.0,2065.0,0
2036.0,2047.0,2038.0,2061.0,0
2033.0,2047.0,2035.0,2065.0,0
2036.0,2044.0,2033.0,2061.0,0
2030.0,2042.0,2031.0,2063.0,0
2031.0,2051.0,2020.0,2056.0,0
2034.0,2053.0,2031.0,2059.0,0.0,0.0,
2034.0,2063.0,2034.0,2062.0,0.0,0.0,
2029.0,2071.0,2036.0,2062.0,0.0,0.0,
2046.0,2068.0,2037.0,2065.0,0
2041.0,2063.0,2034.0,2066.0,0
2041.0,2060.0,2034.0,2062.0,0
2036.0,2058.0,2034.0,2070.0,0
2039.0,2052.0,2035.0,2068.0,0
2040.0,2057.0,2035.0,2067.0,0
2038.0,2053.0,2035.0,2065.0,0
2034.0,2050.0,2034.0,2065.0,0
2039.0,2051.0,2033.0,2069.0,0
2036.0,2050.0,2035.0,2066.0,0
2030.0,2044.0,2036.0,2072.0,0
2037.0,2048.0,2032.0,2073.0,0
2036.0,2048.0,2040.0,2071.0,0
2024.0,2050.0,2039.0,2070.0,0
2039.0,2051.0,2036.0,2071.0,0
2045.0,2048.0,2037.0,2073.0,0
2043.0,2053.0,2044.0,2072.0,0.0,0.0,
2044.0,2051.0,2045.0,2074.0,0.0,0.0,
2045.0,2057.0,2043.0,2077.0,0
2048.0,2057.0,2039.0,2069.0,0
2041.0,2053.0,2040.0,2071.0,0
2044.0,2053.0,2039.0,2068.0,0
2044.0,2058.0,2042.0,2075.0,0
2043.0,2058.0,2045.0,2073.0,0
2047.0,2056.0,2044.0,2078.0,0
2047.0,2057.0,2041.0,2073.0,0
2049.0,2057.0,2040.0,2078.0,0
2048.0,2060.0,2039.0,2075.0,0
2043.0,2053.0,2041.0,2078.0,0
2043.0,2050.0,2040.0,2075.0,0
2044.0,2052.0,2044.0,2075.0,0
2043.0,2054.0,2041.0,2074.0,0
2048.0,2049.0,2041.0,2074.0,0
2041.0,2053.0,2041.0,2073.0,0
2046.0,2047.0,2038.0,2072.0,0
2043.0,2047.0,2036.0,2070.0,0
2041.0,2048.0,2039.0,2074.0,0
2039.0,2049.0,2038.0,2072.0,0.0,0.0,
2038.0,2044.0,2036.0,2066.0,0.0,0.0,
2038.0,2046.0,2038.0,2067.0,0.0,0.0,
2039.0,2041.0,2038.0,2071.0,0
2045.0,2047.0,2038.0,2066.0,0
2041.0,2039.0,2041.0,2063.0,0
2040.0,2042.0,2036.0,2062.0,0
2039.0,2038.0,2036.0,2060.0,0
2041.0,2040.0,2037.0,2059.0,0
2039.0,2044.0,2033.0,2060.0,0
2037.0,2056.0,2037.0,2055.0,0
2038.0,2051.0,2034.0,2056.0,0
2036.0,2054.0,2035.0,2060.0,0
2042.0,2050.0,2034.0,2059.0,0
2041.0,2047.0,2039.0,2059.0,0
2038.0,2044.0,2034.0,2059.0,0
2044.0,2041.0,2033.0,2056.0,0
2040.0,2037.0,2035.0,2060.0,0
2044.0,2035.0,2034.0,2060.0,0
2048.0,2036.0,2029.0,2059.0,0
2048.0,2033.0,2032.0,2055.0,0
2047.0,2040.0,2026.0,2061.0,0
2045.0,2033.0,2033.0,2059.0,0
2045.0,2033.0,2035.0,2059.0,0.0,0.0,
2046.0,2035.0,2030.0,2061.0,0.0,0.0,
2039.0,2037.0,2031.0,2061.0,0.0,0.0,
2035.0,2041.0,2042.0,2063.0,0
2045.0,2043.0,2035.0,2062.0,0
2053.0,2044.0,2035.0,2064.0,0
2042.0,2045.0,2032.0,2063.0,0
2042.0,2055.0,2031.0,2062.0,0
2044.0,2048.0,2037.0,2060.0,0
2048.0,2055.0,2032.0,2057.0,0
2049.0,2047.0,2032.0,2057.0,0
2048.0,2049.0,2028.0,2064.0,0
2052.0,2054.0,2035.0,2066.0,0
2052.0,2046.0,2038.0,2066.0,0
2052.0,2043.0,2034.0,2061.0,0
2057.0,2045.0,2041.0,2066.0,0
2056.0,2047.0,2044.0,2062.0,0
2055.0,2053.0,2043.0,2067.0,0
2051.0,2054.0,2041.0,2065.0,0
2049.0,2065.0,2042.0,2058.0,0
2050.0,2066.0,2041.0,2061.0,0
2048.0,2071.0,2043.0,2068.0,0
2042.0,2062.0,2046.0,2064.0,0
2044.0,2064.0,2038.0,2066.0,0.0,0.0,
2049.0,2059.0,2042.0,2064.0,0.0,0.0,
2040.0,2057.0,2045.0,2065.0,0
2044.0,2053.0,2043.0,2062.0,0
2042.0,2055.0,2052.0,2062.0,0
2048.0,2049.0,2041.0,2060.0,0
2046.0,2046.0,2042.0,2062.0,0
2050.0,2041.0,2041.0,2062.0,0
2057.0,2042.0,2038.0,2066.0,0
2051.0,2044.0,2046.0,2069.0,0
2048.0,2041.0,2039.0,2065.0,0
2047.0,2038.0,2044.0,2063.0,0
2043.0,2039.0,2042.0,2064.0,0
2048.0,2042.0,2040.0,2061.0,0
2042.0,2043.0,2039.0,2058.0,0
2046.0,2039.0,2040.0,2058.0,0.0,0.0,
2049.0,2044.0,2043.0,2061.0,0.0,0.0,
2047.0,2042.0,2034.0,2063.0,0.0,0.0,
2048.0,2041.0,2036.0,2065.0,0
2050.0,2048.0,2034.0,2061.0,0
2051.0,2048.0,2038.0,2060.0,0
2050.0,2044.0,2039.0,2062.0,0
2055.0,2054.0,2039.0,2062.0,0
2051.0,2053.0,2037.0,2062.0,0
2048.0,2056.0,2035.0,2061.0,0
2046.0,2058.0,2039.0,2060.0,0
2045.0,2055.0,2037.0,2065.0,0
2048.0,2057.0,2035.0,2066.0,0
2040.0,2052.0,2036.0,2064.0,0
2043.0,2054.0,2036.0,2062.0,0
2045.0,2058.0,2042.0,2061.0,0
2046.0,2052.0,2037.0,2063.0,0
2045.0,2054.0,2038.0,2061.0,0
2047.0,2054.0,2037.0,2062.0,0
2043.0,2055.0,2038.0,2062.0,0
2042.0,2058.0,2042.0,2062.0,0
2041.0,2058.0,2045.0,2065.0,0
2043.0,2061.0,2038.0,2064.0,0
2050.0,2058.0,2043.0,2066.0,0.0,0.0,
2051.0,2057.0,2040.0,2065.0,0.0,0.0,
2042.0,2053.0,2044.0,2067.0,0.0,0.0,
2039.0,2049.0,2041.0,2066.0,0
2042.0,2053.0,2043.0,2068.0,0
2041.0,2057.0,2042.0,2066.0,0
2043.0,2053.0,2047.0,2064.0,0
2044.0,2052.0,2048.0,2064.0,0
2039.0,2054.0,2050.0,2067.0,0
2038.0,2057.0,2045.0,2064.0,0
2040.0,2060.0,2050.0,2066.0,0
2041.0,2057.0,2045.0,2073.0,0
2034.0,2061.0,2045.0,2064.0,0
2039.0,2056.0,2047.0,2060.0,0
2044.0,2065.0,2051.0,2063.0,0
2041.0,2071.0,2042.0,2062.0,0
2039.0,2075.0,2051.0,2062.0,0
2042.0,2075.0,2048.0,2062.0,0
2035.0,2078.0,2046.0,2062.0,0
2039.0,2077.0,2050.0,2059.0,0
2033.0,2077.0,2046.0,2065.0,0.0,0.0,
2031.0,2067.0,2050.0,2061.0,0.0,0.0,
2035.0,2056.0,2050.0,2064.0,0.0,0.0,
2034.0,2035.0,2046.0,2063.0,0
2042.0,2012.0,2046.0,2063.0,0
2045.0,1998.0,2042.0,2064.0,0
2053.0,1992.0,2039.0,2070.0,0
2047.0,1993.0,2045.0,2075.0,0
2043.0,2001.0,2041.0,2072.0,0
2040.0,2005.0,2043.0,2069.0,0
2041.0,2016.0,2045.0,2063.0,0
2042.0,2021.0,2041.0,2063.0,0
2039.0,2022.0,2045.0,2056.0,0
2043.0,2022.0,2044.0,2061.0,0
2042.0,2026.0,2043.0,2062.0,0
2040.0,2026.0,2046.0,2061.0,0
2038.0,2030.0,2044.0,2062.0,0
2037.0,2038.0,2043.0,2062.0,0
2038.0,2046.0,2042.0,2061.0,0
2041.0,2055.0,2043.0,2061.0,0
2037.0,2056.0,2040.0,2066.0,0
2038.0,2052.0,2039.0,2068.0,0
2031.0,2046.0,2037.0,2065.0,0
2045.0,2044.0,2031.0,2062.0,0.0,0.0,
2050.0,2050.0,2028.0,2068.0,0.0,0.0,
2044.0,2052.0,2044.0,2066.0,0
2041.0,2056.0,2038.0,2061.0,0
2044.0,2053.0,2039.0,2064.0,0
2045.0,2055.0,2041.0,2063.0,0
2050.0,2056.0,2039.0,2063.0,0
2050.0,2054.0,2039.0,2064.0,0
2048.0,2049.0,2038.0,2070.0,0
2050.0,2043.0,2040.0,2069.0,0
2050.0,2045.0,2038.0,2069.0,0
2050.0,2046.0,2036.0,2069.0,0
2050.0,2048.0,2040.0,2064.0,0
2050.0,2045.0,2038.0,2060.0,0
2053.0,2041.0,2040.0,2068.0,0
2058.0,2039.0,2039.0,2067.0,0
2057.0,2039.0,2040.0,2068.0,0.0,0.0,
2069.0,2035.0,2033.0,2066.0,0.0,0.0,
2056.0,2039.0,2040.0,2072.0,0.0,0.0,
2054.0,2036.0,2038.0,2071.0,0.0,0.0,
2049.0,2032.0,2041.0,2072.0,0
2049.0,2023.0,2043.0,2068.0,0
2045.0,2032.0,2035.0,2070.0,0
2041.0,2033.0,2038.0,2070.0,0
2046.0,2042.0,2045.0,2064.0,0
2041.0,2040.0,2038.0,2061.0,0
2045.0,2041.0,2036.0,2061.0,0
2041.0,2039.0,2035.0,2064.0,0
2035.0,2039.0,2035.0,2065.0,0
2035.0,2036.0,2030.0,2072.0,0
2034.0,2033.0,2039.0,2063.0,0
2036.0,2028.0,2035.0,2061.0,0
2032.0,2033.0,2035.0,2064.0,0
2023.0,2040.0,2033.0,2064.0,0
2021.0,2049.0,2031.0,2062.0,0
2021.0,2054.0,2029.0,2060.0,0
2017.0,2058.0,2032.0,2054.0,0
2013.0,2063.0,2032.0,2062.0,0
2014.0,2061.0,2033.0,2060.0,0
2016.0,2058.0,2035.0,2059.0,0
2013.0,2055.0,2029.0,2058.0,0.0,0.0,
2014.0,2046.0,2032.0,2056.0,0.0,0.0,
2017.0,2041.0,2030.0,2062.0,0
2020.0,2039.0,2033.0,2059.0,0
2011.0,2028.0,2031.0,2063.0,0
2009.0,2033.0,2030.0,2065.0,0
2014.0,2034.0,2030.0,2067.0,0
2008.0,2035.0,2035.0,2065.0,0
2003.0,2036.0,2032.0,2062.0,0
1994.0,2039.0,2037.0,2059.0,0
1986.0,2050.0,2034.0,2061.0,0
1981.0,2057.0,2031.0,2062.0,0
1984.0,2060.0,2029.0,2062.0,0
1988.0,2068.0,2030.0,2065.0,0
1998.0,2080.0,2034.0,2068.0,0
2014.0,2084.0,2031.0,2071.0,0
2017.0,2094.0,2033.0,2068.0,0
2029.0,2095.0,2032.0,2068.0,0.0,0.0,
2031.0,2108.0,2035.0,2073.0,0.0,0.0,
2035.0,2111.0,2034.0,2068.0,0
2038.0,2118.0,2037.0,2069.0,0
2050.0,2106.0,2036.0,2070.0,0
2040.0,2093.0,2034.0,2059.0,0
2042.0,2085.0,2034.0,2065.0,0
2049.0,2076.0,2034.0,2064.0,0
2060.0,2066.0,2032.0,2065.0,0
2062.0,2050.0,2034.0,2066.0,0
2062.0,2044.0,2036.0,2061.0,0
2066.0,2040.0,2030.0,2059.0,0
2071.0,2034.0,2035.0,2062.0,0
2075.0,2023.0,2034.0,2059.0,0
2078.0,2020.0,2030.0,2054.0,0
2095.0,2022.0,2033.0,2053.0,0
2113.0,2019.0,2035.0,2057.0,0
2134.0,2023.0,2038.0,2064.0,0
2129.0,2028.0,2043.0,2066.0,0
2119.0,2033.0,2043.0,2069.0,0.0,0.0,
2044.0,2045.0,2031.0,2066.0,0.0,0.0,
2036.0,2039.0,2049.0,2062.0,0
2040.0,2048.0,2050.0,2070.0,0
2044.0,2053.0,2052.0,2059.0,0.0,0.0,
2035.0,2053.0,2040.0,2060.0,0
2044.0,2052.0,2046.0,2059.0,0
2033.0,2050.0,2043.0,2061.0,0
2054.0,2049.0,2035.0,2061.0,0
2063.0,2039.0,2036.0,2059.0,0
2071.0,2039.0,2035.0,2069.0,0
2079.0,2028.0,2027.0,2076.0,0
2078.0,2026.0,2031.0,2071.0,0
2094.0,2023.0,2028.0,2073.0,0
2103.0,2016.0,2030.0,2071.0,0
2118.0,1992.0,2033.0,2075.0,0.0,0.0,
2094.0,1978.0,2032.0,2070.0,0.0,0.0,
2083.0,1963.0,2033.0,2069.0,0
2070.0,1953.0,2027.0,2067.0,0
2065.0,1952.0,2033.0,2069.0,0
2071.0,1960.0,2028.0,2066.0,0
2070.0,1976.0,2030.0,2074.0,0
2068.0,1989.0,2030.0,2071.0,0
2069.0,1994.0,2028.0,2071.0,0
2065.0,2006.0,2030.0,2070.0,0
2060.0,2025.0,2021.0,2071.0,0
2048.0,2033.0,2029.0,2070.0,0
2043.0,2048.0,2027.0,2072.0,0
2030.0,2058.0,2030.0,2070.0,0
2027.0,2066.0,2029.0,2070.0,0
2015.0,2080.0,2031.0,2068.0,0
2007.0,2107.0,2038.0,2062.0,0
2006.0,2108.0,2042.0,2070.0,0
2002.0,2112.0,2043.0,2071.0,0
2010.0,2127.0,2040.0,2069.0,0
2014.0,2127.0,2041.0,2068.0,0
2027.0,2131.0,2043.0,2065.0,0
2032.0,2129.0,2042.0,2070.0,0
2037.0,2118.0,2042.0,2066.0,0
2030.0,2099.0,2041.0,2071.0,0.0,0.0,
2023.0,2091.0,2043.0,2070.0,0
2013.0,2082.0,2040.0,2071.0,0
2011.0,2070.0,2047.0,2067.0,0
2008.0,2048.0,2047.0,2077.0,0
2001.0,2016.0,2048.0,2071.0,0.0,0.0,
2007.0,1924.0,2049.0,2084.0,0
2006.0,1933.0,2055.0,2083.0,0
2021.0,1954.0,2047.0,2084.0,0.0,0.0,
2025.0,1982.0,2057.0,2081.0,0
2025.0,2004.0,2051.0,2080.0,0
2026.0,2018.0,2055.0,2073.0,0
2018.0,2043.0,2052.0,2071.0,0
2017.0,2070.0,2058.0,2068.0,0
2020.0,2088.0,2057.0,2068.0,0.0,0.0,
2020.0,2107.0,2052.0,2068.0,0
2030.0,2112.0,2053.0,2061.0,0
2017.0,2113.0,2043.0,2062.0,0
2021.0,2106.0,2044.0,2061.0,0
2035.0,2097.0,2043.0,2074.0,0
2057.0,2086.0,2043.0,2064.0,0
2094.0,2082.0,2042.0,2067.0,0
2096.0,2037.0,2039.0,2081.0,0
2075.0,2038.0,2033.0,2082.0,0
2063.0,2051.0,2038.0,2079.0,0
2057.0,2068.0,2038.0,2084.0,0
2062.0,2093.0,2030.0,2084.0,0
2069.0,2126.0,2031.0,2080.0,0
2066.0,2148.0,2027.0,2078.0,0
2075.0,2158.0,2029.0,2077.0,0
2074.0,2158.0,2024.0,2075.0,0.0,0.0,
2069.0,2153.0,2031.0,2072.0,0.0,0.0,
2057.0,2145.0,2030.0,2070.0,0.0,0.0,
2058.0,2138.0,2030.0,2072.0,0
2050.0,2106.0,2031.0,2070.0,0
2050.0,2074.0,2030.0,2059.0,0
2058.0,1961.0,2033.0,2062.0,0
2060.0,1931.0,2034.0,2061.0,0
2053.0,1915.0,2034.0,2063.0,0
2052.0,1903.0,2032.0,2064.0,0
2039.0,1903.0,2031.0,2066.0,0
2035.0,1917.0,2023.0,2067.0,0
2043.0,1943.0,2021.0,2071.0,0
2052.0,1964.0,2022.0,2074.0,0
2061.0,1992.0,2021.0,2076.0,0
2069.0,2012.0,2023.0,2081.0,0
2079.0,2023.0,2025.0,2082.0,0
2077.0,2030.0,2027.0,2087.0,0
2070.0,2029.0,2027.0,2084.0,0
2056.0,2020.0,2030.0,2083.0,0.0,0.0,
2032.0,2022.0,2024.0,2075.0,0.0,0.0,
2008.0,2017.0,2023.0,2068.0,0.0,0.0,
1992.0,2012.0,2025.0,2061.0,0
1996.0,2016.0,2027.0,2068.0,0
2002.0,2011.0,2024.0,2072.0,0
2006.0,1994.0,2025.0,2064.0,0
2011.0,1987.0,2021.0,2062.0,0
2004.0,1981.0,2019.0,2055.0,0
2001.0,1985.0,2016.0,2052.0,0
2008.0,1992.0,2021.0,2048.0,0
2013.0,2000.0,2024.0,2053.0,0
2025.0,2024.0,2031.0,2057.0,0
2046.0,2054.0,2030.0,2055.0,0
2072.0,2083.0,2028.0,2061.0,0
2076.0,2116.0,2035.0,2059.0,0
2087.0,2132.0,2036.0,2065.0,0
2092.0,2155.0,2040.0,2072.0,0
2092.0,2147.0,2037.0,2062.0,0
2093.0,2139.0,2029.0,2062.0,0
2087.0,2118.0,2027.0,2062.0,0
2082.0,2112.0,2030.0,2059.0,0
2077.0,2101.0,2033.0,2059.0,0
2075.0,2088.0,2034.0,2062.0,0.0,0.0,
2088.0,2074.0,2039.0,2060.0,0.0,0.0,
2102.0,2060.0,2036.0,2065.0,0.0,0.0,
2111.0,2047.0,2039.0,2064.0,0
2112.0,2028.0,2043.0,2065.0,0
2116.0,2005.0,2044.0,2067.0,0
2112.0,1977.0,2046.0,2062.0,0
2104.0,1955.0,2043.0,2067.0,0
2095.0,1949.0,2042.0,2066.0,0
2080.0,1950.0,2041.0,2073.0,0
2023.0,1921.0,2039.0,2066.0,0
2027.0,1931.0,2041.0,2066.0,0
2033.0,1948.0,2037.0,2075.0,0
2037.0,1966.0,2041.0,2070.0,0
2034.0,1973.0,2040.0,2068.0,0
2032.0,1990.0,2041.0,2071.0,0
2019.0,2013.0,2043.0,2071.0,0
2014.0,2039.0,2053.0,2068.0,0
2009.0,2067.0,2052.0,2074.0,0.0,0.0,
2007.0,2099.0,2051.0,2066.0,0.0,0.0,
2012.0,2125.0,2051.0,2071.0,0
2017.0,2143.0,2051.0,2070.0,0
2020.0,2136.0,2050.0,2069.0,0
2022.0,2127.0,2048.0,2064.0,0
2043.0,2090.0,2046.0,2044.0,0
2043.0,2076.0,2045.0,2038.0,0
2051.0,2056.0,2050.0,2039.0,0
2061.0,2028.0,2047.0,2038.0,0
2064.0,1984.0,2048.0,2042.0,0
2062.0,1945.0,2045.0,2042.0,0
2062.0,1915.0,2043.0,2049.0,0
2066.0,1905.0,2048.0,2058.0,0
2069.0,1918.0,2051.0,2068.0,0
2063.0,1940.0,2057.0,2075.0,0
2060.0,1970.0,2064.0,2076.0,0
2051.0,2000.0,2065.0,2084.0,0
2044.0,2024.0,2069.0,2070.0,0
2031.0,2037.0,2064.0,2070.0,0
2027.0,2049.0,2061.0,2068.0,0.0,0.0,
2016.0,2060.0,2063.0,2069.0,0.0,0.0,
2028.0,2099.0,2052.0,2078.0,0.0,0.0,
2033.0,2096.0,2049.0,2074.0,0
2026.0,2087.0,2047.0,2074.0,0
2031.0,2083.0,2037.0,2076.0,0
2025.0,2080.0,2035.0,2071.0,0
2024.0,2085.0,2035.0,2071.0,0
2034.0,2088.0,2037.0,2072.0,0
2050.0,2088.0,2034.0,2071.0,0
2046.0,2079.0,2034.0,2067.0,0
2051.0,2072.0,2027.0,2070.0,0
2046.0,2055.0,2027.0,2073.0,0
2043.0,2047.0,2026.0,2072.0,0
2041.0,2039.0,2026.0,2073.0,0
2031.0,2019.0,2024.0,2070.0,0
2016.0,1967.0,2019.0,2071.0,0
2011.0,1977.0,2031.0,2063.0,0
2003.0,1992.0,2035.0,2061.0,0
2000.0,2020.0,2040.0,2061.0,0.0,0.0,
2005.0,2054.0,2040.0,2062.0,0.0,0.0,
2013.0,2081.0,2040.0,2065.0,0
2017.0,2105.0,2042.0,2063.0,0
2020.0,2116.0,2056.0,2071.0,0
2029.0,2110.0,2055.0,2074.0,0
2038.0,2110.0,2056.0,2073.0,0
2050.0,2108.0,2052.0,2071.0,0
2054.0,2108.0,2038.0,2064.0,0
2054.0,2111.0,2049.0,2066.0,0
2052.0,2111.0,2040.0,2062.0,0
2046.0,2121.0,2042.0,2055.0,0.0,0.0,
2047.0,2099.0,2033.0,2053.0,0
2056.0,2131.0,2040.0,2060.0,0
2061.0,2138.0,2041.0,2061.0,0
2062.0,2139.0,2042.0,2061.0,0
2069.0,2140.0,2043.0,2067.0,0
2067.0,2145.0,2045.0,2067.0,0
2077.0,2162.0,2047.0,2072.0,0
2075.0,2189.0,2049.0,2069.0,0
2073.0,2212.0,2053.0,2069.0,0
2072.0,2220.0,2053.0,2072.0,0.0,0.0,
2071.0,2219.0,2050.0,2071.0,0.0,0.0,
2068.0,2201.0,2049.0,2066.0,0
2069.0,2191.0,2050.0,2062.0,0
2063.0,2163.0,2050.0,2063.0,0
2061.0,2140.0,2056.0,2068.0,0
2044.0,2078.0,2054.0,2081.0,0
2034.0,2043.0,2052.0,2077.0,0
2023.0,2022.0,2050.0,2073.0,0
2015.0,2014.0,2051.0,2073.0,0
2011.0,1997.0,2051.0,2069.0,0
2003.0,1956.0,2048.0,2065.0,0
1998.0,1919.0,2045.0,2057.0,0
1994.0,1888.0,2041.0,2065.0,0
1995.0,1895.0,2042.0,2063.0,0
1991.0,1913.0,2036.0,2060.0,0
1989.0,1948.0,2032.0,2064.0,0.0,0.0,
1992.0,1986.0,2027.0,2060.0,0.0,0.0,
1986.0,2006.0,2023.0,2058.0,1.0,0.0,
1991.0,2010.0,2020.0,2054.0,0
1981.0,2010.0,2013.0,2046.0,0
1985.0,2000.0,2015.0,2047.0,0
1956.0,1892.0,2009.0,2043.0,0
1951.0,1881.0,2016.0,2037.0,0
1952.0,1885.0,2013.0,2037.0,0
1957.0,1915.0,2011.0,2039.0,0
1958.0,1976.0,2010.0,2043.0,0
1958.0,2036.0,2010.0,2046.0,0
1961.0,2068.0,2010.0,2049.0,0
1956.0,2082.0,2008.0,2055.0,0
1953.0,2095.0,2001.0,2044.0,0
1956.0,2102.0,2006.0,2050.0,0
1970.0,2097.0,2007.0,2050.0,0
1992.0,2097.0,2002.0,2056.0,0
2023.0,2101.0,2014.0,2055.0,0
2046.0,2095.0,2013.0,2051.0,0
2063.0,2073.0,2013.0,2057.0,1.0,0.0,
2056.0,2073.0,2012.0,2053.0,1.0,0.0,
2060.0,2087.0,2007.0,2052.0,0
2076.0,2100.0,2020.0,2056.0,0
2101.0,2110.0,2026.0,2063.0,0
2112.0,2109.0,2025.0,2060.0,0
2108.0,2108.0,2032.0,2072.0,0
2099.0,2102.0,2031.0,2081.0,0
2092.0,2092.0,2033.0,2075.0,0
2087.0,2070.0,2033.0,2081.0,0
2087.0,2049.0,2036.0,2081.0,0
2096.0,2023.0,2036.0,2082.0,0
2113.0,2012.0,2037.0,2080.0,0
2138.0,2009.0,2037.0,2085.0,0
2150.0,2010.0,2039.0,2085.0,0
2157.0,1994.0,2041.0,2084.0,0
2150.0,1885.0,2038.0,2087.0,0
2137.0,1877.0,2044.0,2087.0,1.0,0.0,
2130.0,1870.0,2040.0,2082.0,1.0,0.0,
2122.0,1875.0,2036.0,2085.0,1.0,1.0,
2109.0,1894.0,2039.0,2078.0,1.0,1.0,
2091.0,1912.0,2041.0,2071.0,0
2072.0,1934.0,2040.0,2068.0,0
2055.0,1940.0,2045.0,2069.0,0
2033.0,1962.0,2044.0,2070.0,0
2029.0,1969.0,2039.0,2062.0,0
2018.0,1981.0,2040.0,2064.0,0
2018.0,2008.0,2037.0,2059.0,0
2017.0,2028.0,2040.0,2063.0,0
2002.0,2049.0,2034.0,2071.0,0
1967.0,2072.0,2045.0,2073.0,0
1949.0,2077.0,2043.0,2072.0,0
1929.0,2077.0,2035.0,2074.0,0
1929.0,2083.0,2041.0,2066.0,0
1926.0,2098.0,2038.0,2069.0,0
1926.0,2120.0,2042.0,2066.0,0
1923.0,2146.0,2047.0,2068.0,0
1930.0,2171.0,2049.0,2070.0,0
1931.0,2185.0,2048.0,2068.0,0
1943.0,2195.0,2048.0,2070.0,0
1952.0,2205.0,2047.0,2063.0,0
1973.0,2211.0,2056.0,2062.0,0
2012.0,2213.0,2047.0,2061.0,0
2041.0,2189.0,2047.0,2063.0,0
2070.0,2155.0,2042.0,2058.0,0
2090.0,2119.0,2037.0,2054.0,0
2141.0,1927.0,2029.0,2045.0,0
2138.0,1886.0,2028.0,2043.0,0
2130.0,1871.0,2018.0,2053.0,0
2129.0,1863.0,2036.0,2062.0,0
2120.0,1877.0,2040.0,2073.0,0
2118.0,1887.0,2043.0,2080.0,2.0,1.0,
2097.0,1908.0,2047.0,2080.0,0
2073.0,1917.0,2046.0,2087.0,0
2054.0,1934.0,2049.0,2084.0,0
2036.0,1951.0,2046.0,2083.0,0
2011.0,1972.0,2051.0,2079.0,0
1991.0,1984.0,2048.0,2080.0,0
1962.0,1997.0,2046.0,2074.0,0
1944.0,2010.0,2043.0,2069.0,0
1891.0,2096.0,2046.0,2062.0,2.0,1.0,
1870.0,2107.0,2043.0,2058.0,2.0,1.0,
1862.0,2110.0,2041.0,2054.0,2.0,1.0,
1869.0,2140.0,2044.0,2056.0,2.0,2.0,
1898.0,2184.0,2043.0,2056.0,0
1929.0,2221.0,2039.0,2064.0,0
1964.0,2256.0,2041.0,2066.0,0
1996.0,2282.0,2042.0,2075.0,0
2021.0,2305.0,2047.0,2075.0,0
2034.0,2324.0,2039.0,2079.0,0
2052.0,2332.0,2043.0,2078.0,0
2067.0,2339.0,2045.0,2080.0,0
2106.0,2340.0,2032.0,2075.0,0
2146.0,2334.0,2039.0,2074.0,0
2188.0,2343.0,2041.0,2072.0,0
2240.0,2349.0,2037.0,2068.0,0
2381.0,2344.0,2041.0,2093.0,0
2365.0,2338.0,2044.0,2090.0,0
2342.0,2321.0,2050.0,2091.0,0
2299.0,2286.0,2051.0,2092.0,0
2257.0,2233.0,2055.0,2090.0,0
2190.0,2157.0,2050.0,2091.0,0
2127.0,2084.0,2053.0,2087.0,0
2075.0,2011.0,2048.0,2089.0,0
2023.0,1939.0,2049.0,2086.0,0
1986.0,1875.0,2042.0,2081.0,0
1956.0,1830.0,2044.0,2080.0,2.0,2.0,
1947.0,1793.0,2043.0,2077.0,3.0,2.0,
1941.0,1766.0,2038.0,2074.0,0
1952.0,1732.0,2034.0,2071.0,0
2020.0,1598.0,2028.0,2052.0,0
2009.0,1560.0,2016.0,2055.0,0
1998.0,1562.0,2012.0,2047.0,0
1989.0,1607.0,2013.0,2049.0,0
1991.0,1695.0,2012.0,2060.0,0
1991.0,1796.0,2014.0,2069.0,0
1998.0,1892.0,2023.0,2061.0,0
2017.0,1969.0,2016.0,2061.0,0
2037.0,2037.0,2022.0,2057.0,0
2059.0,2081.0,2028.0,2054.0,3.0,2.0,
2066.0,2129.0,2029.0,2058.0,3.0,2.0,
2073.0,2159.0,2039.0,2063.0,0
2065.0,2177.0,2043.0,2070.0,0
2060.0,2190.0,2046.0,2080.0,0
2049.0,2190.0,2052.0,2089.0,0
2041.0,2185.0,2057.0,2096.0,0
2016.0,2078.0,2055.0,2084.0,0
2036.0,2058.0,2051.0,2083.0,0
2052.0,2044.0,2059.0,2077.0,0
2060.0,2020.0,2056.0,2069.0,0
2064.0,1999.0,2062.0,2061.0,0
2062.0,1987.0,2064.0,2066.0,0
2053.0,1986.0,2067.0,2065.0,0
2040.0,1967.0,2064.0,2068.0,0
2029.0,1927.0,2067.0,2064.0,0
2019.0,1875.0,2055.0,2063.0,0
2008.0,1832.0,2054.0,2064.0,0
1996.0,1815.0,2056.0,2062.0,0
1985.0,1816.0,2049.0,2072.0,0
1984.0,1841.0,2052.0,2072.0,0
1997.0,1936.0,2050.0,2069.0,3.0,2.0,
2006.0,1961.0,2046.0,2065.0,3.0,2.0,
2011.0,1985.0,2042.0,2058.0,3.0,3.0,
2021.0,1998.0,2043.0,2055.0,0
2035.0,2016.0,2057.0,2050.0,0
2045.0,2040.0,2051.0,2051.0,0
2051.0,2056.0,2058.0,2053.0,0
2041.0,2069.0,2064.0,2054.0,0
2022.0,2078.0,2073.0,2056.0,0
1995.0,2079.0,2070.0,2066.0,0
1974.0,2084.0,2066.0,2076.0,0
1963.0,2090.0,2065.0,2080.0,0
1957.0,2094.0,2064.0,2086.0,0
1958.0,2097.0,2055.0,2087.0,0
1960.0,2100.0,2054.0,2082.0,0
1959.0,2094.0,2051.0,2082.0,0
1993.0,2096.0,2018.0,2082.0,0
1982.0,2097.0,2012.0,2080.0,0
1985.0,2090.0,2003.0,2079.0,0
2003.0,2082.0,2006.0,2079.0,0
2017.0,2066.0,2001.0,2077.0,0
2038.0,2045.0,1997.0,2080.0,0
2058.0,2023.0,1996.0,2080.0,0
2070.0,2010.0,1992.0,2082.0,0
2083.0,2000.0,1992.0,2087.0,3.0,3.0,
2093.0,1992.0,1995.0,2084.0,3.0,3.0,
2087.0,1990.0,1992.0,2078.0,4.0,3.0,
2073.0,1998.0,1997.0,2075.0,0
2060.0,2010.0,1998.0,2064.0,0
2042.0,2014.0,1988.0,2058.0,0
1981.0,1997.0,2014.0,2053.0,0
1956.0,1995.0,2023.0,2055.0,0
1934.0,1990.0,2017.0,2056.0,0
1928.0,1993.0,2015.0,2059.0,0
1929.0,1998.0,2014.0,2063.0,0
1943.0,2013.0,2019.0,2063.0,0
1963.0,2025.0,2016.0,2067.0,0
1993.0,2023.0,2024.0,2068.0,0
2030.0,2027.0,2024.0,2077.0,0
2072.0,2025.0,2033.0,2080.0,0
2134.0,2032.0,2038.0,2083.0,0
2198.0,2037.0,2046.0,2091.0,4.0,4.0,
2261.0,2055.0,2053.0,2088.0,4.0,4.0,
2300.0,2062.0,2065.0,2088.0,4.0,4.0,
2292.0,2069.0,2067.0,2087.0,0
2247.0,2075.0,2074.0,2081.0,0
2152.0,2119.0,2067.0,2084.0,0
2138.0,2128.0,2064.0,2079.0,0
2128.0,2141.0,2064.0,2085.0,0
2119.0,2152.0,2063.0,2084.0,0
2088.0,2157.0,2066.0,2081.0,0
2062.0,2154.0,2066.0,2079.0,0
2027.0,2157.0,2069.0,2073.0,0
1999.0,2162.0,2063.0,2063.0,0
1971.0,2165.0,2057.0,2061.0,0
1959.0,2163.0,2054.0,2048.0,0
1960.0,2153.0,2047.0,2043.0,0
1964.0,2142.0,2040.0,2036.0,0
1978.0,2124.0,2035.0,2029.0,0
1985.0,2123.0,2033.0,2026.0,0
1985.0,2128.0,2039.0,2035.0,0
1971.0,2110.0,2041.0,2034.0,0
1967.0,2089.0,2044.0,2043.0,4.0,4.0,
1971.0,2076.0,2046.0,2048.0,0
1969.0,2070.0,2041.0,2050.0,0
1979.0,2080.0,2046.0,2049.0,0
1979.0,2082.0,2043.0,2041.0,0
1986.0,2095.0,2040.0,2043.0,0
2016.0,2104.0,2033.0,2044.0,0
2066.0,2119.0,2034.0,2048.0,0
2108.0,2134.0,2034.0,2049.0,4.0,5.0,
2127.0,2148.0,2033.0,2051.0,0
2133.0,2152.0,2035.0,2057.0,0
2123.0,2150.0,2037.0,2058.0,0
2107.0,2134.0,2036.0,2054.0,0
2091.0,2117.0,2034.0,2054.0,0
2108.0,2089.0,2038.0,2082.0,0
2117.0,2081.0,2041.0,2084.0,0
2130.0,2059.0,2035.0,2082.0,0
2130.0,2037.0,2042.0,2087.0,0
2124.0,2017.0,2042.0,2084.0,4.0,5.0,
2116.0,2014.0,2045.0,2094.0,4.0,5.0,
2100.0,2014.0,2047.0,2093.0,0
2090.0,2034.0,2040.0,2097.0,0
2078.0,2042.0,2043.0,2089.0,0
2060.0,2049.0,2040.0,2085.0,0
2055.0,2043.0,2035.0,2084.0,0
2060.0,2058.0,2034.0,2086.0,0
2062.0,2070.0,2032.0,2082.0,0
2064.0,2083.0,2032.0,2079.0,0
2100.0,2035.0,2023.0,2075.0,0
2093.0,1979.0,2012.0,2068.0,0
2069.0,1939.0,2010.0,2070.0,0
2039.0,1925.0,2013.0,2066.0,0
2029.0,1928.0,2009.0,2065.0,4.0,6.0,
2007.0,1949.0,2008.0,2066.0,4.0,6.0,
2008.0,1976.0,2014.0,2066.0,4.0,6.0,
2024.0,1999.0,2016.0,2064.0,0
2030.0,2004.0,2020.0,2061.0,0
2043.0,1994.0,2025.0,2061.0,0
2034.0,1973.0,2029.0,2059.0,0
2023.0,1946.0,2028.0,2057.0,0
2020.0,1937.0,2031.0,2057.0,0
2020.0,1929.0,2029.0,2060.0,0
2006.0,1910.0,2031.0,2061.0,0
1985.0,1894.0,2030.0,2060.0,0
1937.0,1903.0,2032.0,2056.0,0
1931.0,1954.0,2030.0,2055.0,0
1925.0,2026.0,2039.0,2055.0,0
1922.0,2103.0,2036.0,2056.0,0
1923.0,2171.0,2034.0,2046.0,0
1911.0,2218.0,2038.0,2047.0,0
1902.0,2259.0,2036.0,2046.0,0
1900.0,2300.0,2037.0,2058.0,0
1900.0,2324.0,2040.0,2056.0,0
1889.0,2337.0,2038.0,2059.0,0
1894.0,2322.0,2035.0,2060.0,4.0,7.0,
1894.0,2275.0,2036.0,2060.0,4.0,7.0,
1894.0,2171.0,2038.0,2051.0,0
1899.0,2053.0,2037.0,2060.0,0
2062.0,1913.0,2037.0,2060.0,0
2093.0,1946.0,2040.0,2065.0,0
2102.0,1972.0,2037.0,2063.0,0
2072.0,1995.0,2038.0,2054.0,0
2041.0,2011.0,2037.0,2056.0,0
2012.0,2026.0,2029.0,2044.0,0
1985.0,2036.0,2022.0,2046.0,0
1979.0,2039.0,2011.0,2040.0,0
1979.0,2049.0,2021.0,2058.0,0
1990.0,2068.0,2024.0,2058.0,0
2002.0,2080.0,2036.0,2063.0,4.0,7.0,
2008.0,2104.0,2042.0,2065.0,4.0,8.0,
2005.0,2127.0,2048.0,2063.0,4.0,8.0,
2002.0,2143.0,2046.0,2070.0,0
2020.0,2144.0,2048.0,2077.0,0
2050.0,2125.0,2052.0,2086.0,0
2223.0,1941.0,2033.0,2058.0,0
2224.0,1902.0,2030.0,2051.0,0
2203.0,1856.0,2023.0,2044.0,0
2172.0,1798.0,2027.0,2048.0,0
2147.0,1751.0,2029.0,2059.0,0
2128.0,1721.0,2032.0,2068.0,0
2121.0,1743.0,2032.0,2074.0,0
2126.0,1784.0,2037.0,2084.0,0
2157.0,1832.0,2038.0,2082.0,0
2202.0,1894.0,2039.0,2083.0,0
2239.0,1953.0,2036.0,2084.0,0
2261.0,2026.0,2032.0,2079.0,0
2268.0,2110.0,2033.0,2077.0,0
2259.0,2186.0,2029.0,2073.0,0
2222.0,2272.0,2025.0,2078.0,0
2207.0,2266.0,2032.0,2077.0,0
2187.0,2248.0,2037.0,2082.0,0
2157.0,2238.0,2030.0,2073.0,0
2124.0,2227.0,2035.0,2074.0,0
2084.0,2225.0,2033.0,2070.0,4.0,9.0,
2043.0,2239.0,2035.0,2063.0,4.0,9.0,
2007.0,2243.0,2036.0,2061.0,0
1975.0,2258.0,2035.0,2058.0,0
1964.0,2247.0,2033.0,2056.0,0
1955.0,2232.0,2039.0,2059.0,0
1941.0,2192.0,2040.0,2058.0,0
1936.0,2134.0,2042.0,2062.0,0
1936.0,2054.0,2043.0,2061.0,0
1940.0,1984.0,2046.0,2062.0,0
1942.0,1931.0,2047.0,2061.0,0
1966.0,1909.0,2045.0,2066.0,0
1962.0,1923.0,2043.0,2070.0,0
1967.0,1934.0,2047.0,2065.0,0
1974.0,1934.0,2043.0,2065.0,4.0,10.0,
1991.0,1918.0,2048.0,2070.0,4.0,10.0,
2015.0,1904.0,2066.0,2076.0,0
2033.0,1910.0,2070.0,2073.0,0
2054.0,1924.0,2076.0,2074.0,0
2076.0,1949.0,2067.0,2072.0,0
2109.0,1977.0,2050.0,2063.0,0
2138.0,2008.0,2043.0,2061.0,0
2160.0,2023.0,2038.0,2060.0,0
2161.0,2034.0,2030.0,2059.0,0
2148.0,2044.0,2038.0,2064.0,0
2055.0,2121.0,2052.0,2078.0,0
2021.0,2153.0,2049.0,2074.0,0
2009.0,2200.0,2048.0,2069.0,0
1996.0,2242.0,2045.0,2059.0,0
1991.0,2270.0,2036.0,2060.0,0
1983.0,2273.0,2040.0,2059.0,4.0,11.0,
1982.0,2239.0,2041.0,2055.0,4.0,11.0,
1975.0,2172.0,2042.0,2056.0,0
1971.0,2084.0,2043.0,2054.0,0
1969.0,1999.0,2042.0,2053.0,0
1960.0,1939.0,2043.0,2060.0,0
1949.0,1914.0,2038.0,2057.0,0
1936.0,1945.0,2050.0,2060.0,0
1929.0,1980.0,2040.0,2063.0,0
1929.0,2001.0,2046.0,2064.0,0
1942.0,1986.0,2045.0,2061.0,0
1976.0,1824.0,2034.0,2060.0,0
2006.0,1796.0,2033.0,2056.0,0
2027.0,1776.0,2033.0,2059.0,0
2039.0,1760.0,2033.0,2055.0,0
2046.0,1743.0,2028.0,2058.0,3.0,12.0,
2055.0,1725.0,2030.0,2063.0,3.0,12.0,
2049.0,1717.0,2029.0,2071.0,3.0,13.0,
2059.0,1728.0,2028.0,2066.0,0
2071.0,1755.0,2029.0,2074.0,0
2099.0,1774.0,2026.0,2071.0,0
2130.0,1784.0,2035.0,2075.0,0
2151.0,1768.0,2033.0,2069.0,0
2173.0,1766.0,2032.0,2064.0,0
2167.0,1786.0,2033.0,2064.0,0
2060.0,1971.0,2031.0,2053.0,0
2022.0,2037.0,2032.0,2045.0,0
2010.0,2064.0,2034.0,2058.0,0
2021.0,2065.0,2033.0,2059.0,0
2040.0,2047.0,2032.0,2062.0,0
2054.0,2032.0,2033.0,2056.0,0
2035.0,2025.0,2038.0,2053.0,0
1997.0,2042.0,2041.0,2051.0,0
1948.0,2067.0,2035.0,2056.0,0
1907.0,2098.0,2038.0,2050.0,3.0,13.0,
1871.0,2116.0,2038.0,2049.0,0
1848.0,2138.0,2041.0,2046.0,0
1834.0,2155.0,2038.0,2043.0,0
1839.0,2173.0,2040.0,2047.0,0
1833.0,2185.0,2042.0,2049.0,0
1838.0,2207.0,2038.0,2051.0,0
2004.0,2269.0,2043.0,2063.0,0
2056.0,2262.0,2048.0,2072.0,0
2087.0,2239.0,2049.0,2071.0,0
2098.0,2235.0,2047.0,2079.0,0
2110.0,2224.0,2047.0,2071.0,0
2135.0,2208.0,2041.0,2070.0,0
2161.0,2185.0,2043.0,2065.0,0
2191.0,2185.0,2042.0,2072.0,0
2221.0,2194.0,2042.0,2075.0,3.0,14.0,
2249.0,2212.0,2035.0,2079.0,3.0,14.0,
2252.0,2228.0,2041.0,2080.0,3.0,15.0,
2216.0,2227.0,2034.0,2080.0,0
2191.0,2221.0,2031.0,2077.0,0
2144.0,2213.0,2040.0,2086.0,0
2087.0,2132.0,2037.0,2100.0,0
2088.0,2073.0,2037.0,2098.0,0
2090.0,2028.0,2034.0,2091.0,0
2075.0,1992.0,2031.0,2086.0,0
2050.0,1978.0,2029.0,2075.0,0
2025.0,1965.0,2026.0,2068.0,0
2006.0,1970.0,2022.0,2060.0,0
1995.0,1989.0,2021.0,2054.0,0
1993.0,2022.0,2026.0,2058.0,0
1998.0,2054.0,2030.0,2057.0,0
1998.0,2071.0,2035.0,2053.0,0
1999.0,2089.0,2038.0,2061.0,0
1992.0,2111.0,2039.0,2053.0,0
1977.0,2122.0,2043.0,2053.0,0
1948.0,2133.0,2044.0,2055.0,0
1926.0,2136.0,2052.0,2057.0,0
1894.0,2126.0,2061.0,2064.0,3.0,16.0,
1920.0,2071.0,2061.0,2061.0,3.0,16.0,
1946.0,2025.0,2046.0,2056.0,2.0,17.0,
1990.0,2001.0,2040.0,2058.0,0
2062.0,2013.0,2037.0,2061.0,0
2108.0,2034.0,2035.0,2058.0,0
2166.0,2047.0,2029.0,2066.0,0
2221.0,2038.0,2023.0,2065.0,0
2277.0,2018.0,2020.0,2070.0,0
2323.0,1983.0,2014.0,2065.0,0
2340.0,1953.0,2019.0,2072.0,0
2346.0,1941.0,2022.0,2073.0,0
2341.0,1943.0,2024.0,2082.0,0
2331.0,1949.0,2030.0,2085.0,0
2233.0,1961.0,2036.0,2094.0,0
2170.0,1965.0,2038.0,2099.0,0
2125.0,1973.0,2044.0,2088.0,0
2091.0,1962.0,2041.0,2090.0,2.0,17.0,
2066.0,1950.0,2036.0,2084.0,2.0,18.0,
2055.0,1946.0,2037.0,2082.0,0
2056.0,1955.0,2037.0,2080.0,0
2056.0,1967.0,2030.0,2079.0,0
2055.0,1990.0,2026.0,2072.0,0
2018.0,2009.0,2031.0,2078.0,0
1997.0,2051.0,2022.0,2067.0,0
1947.0,2108.0,2030.0,2063.0,0
1892.0,2169.0,2034.0,2054.0,0
1838.0,2209.0,2040.0,2051.0,0
1794.0,2236.0,2042.0,2037.0,0
1776.0,2239.0,2044.0,2030.0,0
1753.0,2143.0,2035.0,2012.0,0
1728.0,2107.0,2032.0,2014.0,0
1719.0,2098.0,2030.0,2023.0,0
1726.0,2103.0,2029.0,2037.0,0
1759.0,2129.0,2025.0,2045.0,0
1815.0,2174.0,2027.0,2057.0,0
1902.0,2210.0,2031.0,2067.0,0
2005.0,2221.0,2032.0,2071.0,0
2135.0,2210.0,2032.0,2072.0,2.0,19.0,
2250.0,2177.0,2031.0,2078.0,2.0,19.0,
2339.0,2106.0,2026.0,2083.0,2.0,20.0,
2351.0,2024.0,2023.0,2081.0,0
2355.0,1941.0,2021.0,2087.0,0
2347.0,1888.0,2024.0,2095.0,0
2125.0,1865.0,2040.0,2124.0,0
2054.0,1877.0,2045.0,2121.0,0
2021.0,1897.0,2049.0,2115.0,0
2015.0,1924.0,2046.0,2110.0,0
2022.0,1949.0,2047.0,2103.0,0
2023.0,1981.0,2046.0,2094.0,0
2030.0,1998.0,2050.0,2093.0,0
2030.0,2008.0,2046.0,2088.0,0
2030.0,1995.0,2039.0,2072.0,0
2041.0,1969.0,2035.0,2065.0,0
2069.0,1941.0,2030.0,2055.0,0
2115.0,1918.0,2024.0,2049.0,0
2164.0,1912.0,2026.0,2060.0,0
2197.0,1927.0,2026.0,2056.0,1.0,21.0,
2226.0,1948.0,2036.0,2069.0,1.0,21.0,
2248.0,1983.0,2039.0,2081.0,0
2214.0,2298.0,2048.0,2098.0,0
2159.0,2374.0,2049.0,2092.0,0
2129.0,2425.0,2045.0,2086.0,0
2113.0,2448.0,2043.0,2086.0,0
2118.0,2457.0,2036.0,2092.0,0
2123.0,2449.0,2041.0,2095.0,0
2125.0,2432.0,2041.0,2089.0,0
2111.0,2399.0,2037.0,2088.0,0
2091.0,2359.0,2041.0,2067.0,0
2085.0,2312.0,2036.0,2044.0,0
2092.0,2272.0,2032.0,2039.0,0
2106.0,2227.0,2029.0,2031.0,0
2132.0,2145.0,2026.0,2034.0,0
2136.0,2023.0,2028.0,2036.0,0
2067.0,1492.0,2032.0,2050.0,1.0,22.0,
2047.0,1483.0,2033.0,2060.0,1.0,22.0,
2035.0,1553.0,2035.0,2072.0,1.0,23.0,
2036.0,1656.0,2040.0,2078.0,0
2031.0,1741.0,2037.0,2085.0,0
2029.0,1801.0,2039.0,2089.0,0
2024.0,1821.0,2038.0,2091.0,0
2027.0,1803.0,2036.0,2087.0,0
2036.0,1772.0,2035.0,2083.0,0
2052.0,1764.0,2038.0,2086.0,0
2085.0,1779.0,2041.0,2079.0,0
2102.0,1840.0,2034.0,2079.0,0
2117.0,1911.0,2035.0,2078.0,0
2114.0,1963.0,2036.0,2070.0,0
2103.0,2003.0,2035.0,2058.0,0
2089.0,2029.0,2030.0,2051.0,0
2018.0,2074.0,2021.0,2044.0,0
1999.0,2105.0,2024.0,2042.0,0
1981.0,2131.0,2024.0,2051.0,0
1969.0,2146.0,2028.0,2049.0,0
1961.0,2171.0,2026.0,2051.0,1.0,24.0,
1945.0,2195.0,2030.0,2052.0,1.0,24.0,
1931.0,2203.0,2034.0,2054.0,1.0,25.0,
1908.0,2208.0,2039.0,2053.0,0
1885.0,2210.0,2049.0,2048.0,0
1869.0,2197.0,2046.0,2044.0,0
1852.0,2170.0,2052.0,2044.0,0
1827.0,2139.0,2046.0,2042.0,0
1794.0,2110.0,2054.0,2041.0,0
1768.0,2108.0,2050.0,2047.0,0
1733.0,2062.0,2057.0,2042.0,0
1737.0,2037.0,2047.0,2041.0,0
1774.0,2033.0,2047.0,2043.0,0
1843.0,2041.0,2049.0,2035.0,0
1921.0,2045.0,2045.0,2042.0,0
2007.0,2060.0,2040.0,2043.0,0
2092.0,2077.0,2043.0,2050.0,0
2146.0,2092.0,2035.0,2052.0,0
2158.0,2098.0,2041.0,2055.0,0
2113.0,2110.0,2039.0,2056.0,0
2073.0,2133.0,2052.0,2056.0,0
2028.0,2189.0,2039.0,2054.0,0
2006.0,2250.0,2035.0,2049.0,0
2000.0,2290.0,2027.0,2039.0,0
2012.0,2279.0,2017.0,2038.0,0
2034.0,2201.0,2012.0,2028.0,0
2066.0,1779.0,2017.0,2020.0,1.0,25.0,
2039.0,1736.0,2023.0,2019.0,1.0,26.0,
2010.0,1718.0,2016.0,2013.0,0.0,27.0,
1974.0,1723.0,2016.0,2017.0,0
1989.0,1768.0,2012.0,2024.0,0
2052.0,1829.0,2014.0,2035.0,0
2123.0,1907.0,2023.0,2047.0,0
2158.0,1958.0,2020.0,2063.0,0
2164.0,1997.0,2028.0,2075.0,0
2141.0,2026.0,2029.0,2083.0,0
2095.0,2035.0,2028.0,2091.0,0
2033.0,2019.0,2022.0,2088.0,0
1964.0,1994.0,2028.0,2082.0,0
1904.0,1977.0,2031.0,2094.0,0
2032.0,2021.0,2034.0,2082.0,0
2188.0,2075.0,2038.0,2094.0,0.0,27.0,
2313.0,2130.0,2046.0,2102.0,0.0,28.0,
2375.0,2155.0,2049.0,2108.0,0
2380.0,2133.0,2059.0,2109.0,0
2368.0,2098.0,2066.0,2112.0,0
2337.0,2053.0,2068.0,2119.0,0
2293.0,2006.0,2070.0,2115.0,0
2239.0,1973.0,2072.0,2115.0,0
2197.0,1964.0,2064.0,2108.0,0
2171.0,1957.0,2067.0,2092.0,0
2151.0,1943.0,2064.0,2083.0,0
2142.0,1925.0,2060.0,2080.0,0
2128.0,1917.0,2054.0,2071.0,0
2108.0,1922.0,2048.0,2069.0,0
2072.0,1941.0,2052.0,2066.0,0
1919.0,2008.0,2041.0,2043.0,0
1912.0,2020.0,2046.0,2045.0,0.0,29.0,
1905.0,2023.0,2031.0,2042.0,0.0,29.0,
1906.0,2022.0,2031.0,2039.0,0
1896.0,2019.0,2030.0,2035.0,0
1913.0,2022.0,2026.0,2036.0,0
1920.0,2016.0,2028.0,2036.0,0
1925.0,2001.0,2031.0,2037.0,0
1934.0,1985.0,2036.0,2038.0,0
1944.0,1968.0,2035.0,2045.0,0
1946.0,1967.0,2036.0,2051.0,0
1949.0,1969.0,2041.0,2060.0,0
1975.0,1972.0,2043.0,2070.0,0
2029.0,1992.0,2049.0,2081.0,0
2108.0,2024.0,2064.0,2112.0,0
2061.0,1999.0,2062.0,2104.0,0
2002.0,1969.0,2063.0,2095.0,0
1946.0,1959.0,2058.0,2087.0,0
1912.0,1980.0,2053.0,2075.0,0
1890.0,2039.0,2048.0,2065.0,0
1874.0,2105.0,2039.0,2060.0,0.0,30.0,
1864.0,2158.0,2038.0,2048.0,0
1866.0,2192.0,2034.0,2045.0,0
1881.0,2194.0,2028.0,2037.0,0
1916.0,2193.0,2026.0,2039.0,0
1970.0,2203.0,2027.0,2035.0,0
2038.0,2236.0,2027.0,2038.0,0.0,31.0,
2110.0,2277.0,2028.0,2049.0,0
2201.0,2327.0,2028.0,2054.0,0
2296.0,2376.0,2033.0,2068.0,0
2331.0,2362.0,2040.0,2071.0,0
2244.0,2287.0,2045.0,2073.0,0
2141.0,2204.0,2048.0,2065.0,0.0,31.0,
2026.0,2120.0,2052.0,2059.0,0.0,32.0,
1924.0,2070.0,2048.0,2052.0,0
1833.0,2066.0,2049.0,2049.0,0
1756.0,2104.0,2044.0,2036.0,0
1685.0,2173.0,2045.0,2031.0,0
1638.0,2238.0,2040.0,2022.0,0
1611.0,2286.0,2038.0,2020.0,0
1589.0,2308.0,2036.0,2019.0,0
1594.0,2303.0,2032.0,2012.0,0
1610.0,2282.0,2031.0,2010.0,0
1649.0,2237.0,2034.0,2016.0,0
1840.0,2021.0,2028.0,2044.0,0
1956.0,1962.0,2017.0,2044.0,0
2090.0,1935.0,2015.0,2052.0,0
2205.0,1920.0,2010.0,2054.0,0.0,32.0,
2299.0,1935.0,2017.0,2063.0,0.0,33.0,
2374.0,1968.0,2012.0,2077.0,0
2422.0,2001.0,2015.0,2090.0,0
2448.0,2007.0,2013.0,2094.0,0
2448.0,1986.0,2013.0,2100.0,0
2426.0,1913.0,2009.0,2094.0,0
2398.0,1824.0,2004.0,2084.0,0
2366.0,1773.0,2004.0,2074.0,0
2326.0,1782.0,2007.0,2068.0,0
2271.0,1826.0,2005.0,2055.0,0
2196.0,1895.0,2009.0,2044.0,0
2138.0,1963.0,2013.0,2040.0,0
1946.0,2079.0,2032.0,2084.0,0
1953.0,2109.0,2037.0,2105.0,0
1976.0,2137.0,2042.0,2117.0,0
1988.0,2141.0,2048.0,2126.0,0
2000.0,2148.0,2052.0,2123.0,0
2032.0,2154.0,2059.0,2115.0,0
2088.0,2169.0,2061.0,2112.0,0
2129.0,2189.0,2065.0,2108.0,0
2161.0,2207.0,2072.0,2121.0,0.0,34.0,
2174.0,2212.0,2074.0,2125.0,-1.0,34.0,
2200.0,2224.0,2072.0,2124.0,-1.0,35.0,
2240.0,2236.0,2072.0,2125.0,0
2283.0,2256.0,2063.0,2115.0,0
2322.0,2269.0,2070.0,2101.0,0
2242.0,2310.0,2061.0,2054.0,0
2143.0,2321.0,2055.0,2045.0,0
2064.0,2315.0,2058.0,2037.0,0
2052.0,2289.0,2059.0,2034.0,0
2079.0,2263.0,2071.0,2047.0,0
2130.0,2253.0,2070.0,2053.0,0
2175.0,2295.0,2081.0,2075.0,0
2194.0,2372.0,2082.0,2089.0,0
2165.0,2401.0,2084.0,2099.0,0
2095.0,2349.0,2074.0,2091.0,0
2009.0,2233.0,2068.0,2087.0,-1.0,36.0,
1929.0,2091.0,2061.0,2080.0,-1.0,36.0,
1893.0,1961.0,2054.0,2072.0,0
1893.0,1809.0,2045.0,2071.0,0
1910.0,1660.0,2043.0,2070.0,0
1919.0,1528.0,2033.0,2065.0,0
1926.0,1379.0,1990.0,2040.0,0
1955.0,1422.0,1991.0,2043.0,0
1966.0,1466.0,1990.0,2046.0,0
1977.0,1528.0,1994.0,2052.0,0
1976.0,1613.0,1995.0,2049.0,0
1956.0,1701.0,1993.0,2051.0,0
1921.0,1775.0,1995.0,2043.0,0
1885.0,1847.0,1997.0,2037.0,0
1846.0,1888.0,2004.0,2024.0,0
1802.0,1905.0,1996.0,2020.0,-1.0,37.0,
1765.0,1932.0,2003.0,2016.0,-2.0,37.0,
1727.0,1972.0,2011.0,2015.0,0
1727.0,2021.0,2018.0,2021.0,0
1726.0,2076.0,2024.0,2025.0,0
1896.0,2232.0,2031.0,2043.0,0
1969.0,2246.0,2030.0,2049.0,0
2018.0,2242.0,2033.0,2058.0,0
2029.0,2235.0,2031.0,2061.0,0
2030.0,2232.0,2033.0,2061.0,0
2017.0,2218.0,2033.0,2064.0,0
1976.0,2191.0,2033.0,2062.0,0
1941.0,2156.0,2026.0,2060.0,0
1944.0,2125.0,2027.0,2056.0,0
1959.0,2103.0,2026.0,2058.0,0
2021.0,2073.0,2021.0,2064.0,0
2078.0,2050.0,2023.0,2073.0,0
2142.0,2032.0,2026.0,2077.0,0
2194.0,2024.0,2023.0,2085.0,0
2219.0,2010.0,2022.0,2089.0,0
2223.0,1983.0,2019.0,2086.0,0
2111.0,1783.0,2019.0,2083.0,-2.0,38.0,
2095.0,1797.0,2030.0,2088.0,-2.0,39.0,
2066.0,1833.0,2034.0,2088.0,-2.0,39.0,
2012.0,1876.0,2039.0,2088.0,0
1954.0,1917.0,2035.0,2091.0,0
1889.0,1927.0,2041.0,2089.0,0
1833.0,1938.0,2034.0,2077.0,0
1796.0,1935.0,2037.0,2074.0,0
1798.0,1933.0,2031.0,2067.0,0
1819.0,1944.0,2034.0,2066.0,0
1822.0,1966.0,2036.0,2059.0,0
1841.0,1984.0,2035.0,2059.0,0
1874.0,2023.0,2034.0,2055.0,0
1978.0,2060.0,2038.0,2059.0,0
2413.0,2190.0,2052.0,2070.0,0
2484.0,2225.0,2051.0,2079.0,0
2489.0,2235.0,2053.0,2083.0,0
2431.0,2201.0,2058.0,2088.0,0
2353.0,2153.0,2063.0,2093.0,0
2280.0,2096.0,2065.0,2092.0,0
2219.0,2035.0,2061.0,2087.0,0
2162.0,2000.0,2064.0,2082.0,-2.0,40.0,
2119.0,1981.0,2059.0,2073.0,-3.0,40.0,
2085.0,1996.0,2057.0,2071.0,-3.0,41.0,
2053.0,2017.0,2051.0,2068.0,0
2030.0,2041.0,2047.0,2074.0,0
2002.0,2047.0,2046.0,2064.0,0
1980.0,2049.0,2043.0,2062.0,0
1965.0,2040.0,2039.0,2062.0,0
1973.0,2024.0,2040.0,2073.0,0
2049.0,2049.0,2059.0,2126.0,0
2048.0,2121.0,2062.0,2125.0,0
2047.0,2198.0,2065.0,2120.0,0
2065.0,2286.0,2063.0,2121.0,0
2091.0,2398.0,2063.0,2118.0,0
2110.0,2503.0,2069.0,2111.0,0
2131.0,2572.0,2080.0,2104.0,0
2172.0,2591.0,2079.0,2096.0,0
2226.0,2567.0,2088.0,2095.0,0
2261.0,2532.0,2094.0,2091.0,0
2259.0,2511.0,2094.0,2092.0,0
2228.0,2497.0,2099.0,2092.0,-3.0,41.0,
2179.0,2486.0,2097.0,2094.0,-3.0,42.0,
2107.0,2467.0,2091.0,2094.0,0
1879.0,2214.0,2064.0,2086.0,0
1873.0,2132.0,2047.0,2076.0,0
1892.0,2127.0,2035.0,2056.0,0
1930.0,2188.0,2016.0,2041.0,0
2003.0,2264.0,2002.0,2027.0,0
2091.0,2308.0,1998.0,2031.0,0
2156.0,2277.0,1999.0,2037.0,0
2181.0,2183.0,1994.0,2042.0,0
2185.0,2061.0,1993.0,2043.0,0
2191.0,1968.0,2000.0,2046.0,0
2225.0,1917.0,2006.0,2059.0,0
2277.0,1924.0,2012.0,2074.0,0
2297.0,1943.0,2021.0,2089.0,0
2275.0,1957.0,2029.0,2092.0,-3.0,43.0,
2221.0,1959.0,2032.0,2095.0,-4.0,43.0,
2147.0,1955.0,2027.0,2089.0,-4.0,43.0,
1927.0,1747.0,2004.0,2047.0,0
1903.0,1611.0,1997.0,2038.0,0
1870.0,1470.0,1990.0,2020.0,0
1846.0,1351.0,1992.0,2018.0,0
1835.0,1261.0,1988.0,2015.0,0
1830.0,1203.0,1982.0,2015.0,0
1868.0,1195.0,1975.0,2011.0,0
1913.0,1195.0,1971.0,2015.0,0
1970.0,1230.0,1972.0,2027.0,0
2007.0,1301.0,1983.0,2038.0,0
2013.0,1413.0,1997.0,2056.0,0
1988.0,1566.0,1997.0,2065.0,0
1938.0,1717.0,2006.0,2071.0,0
1899.0,1855.0,2014.0,2072.0,0
2047.0,1984.0,2040.0,2093.0,0
2061.0,1969.0,2046.0,2090.0,0
2048.0,1969.0,2058.0,2086.0,0
2027.0,2006.0,2062.0,2088.0,0
2011.0,2076.0,2071.0,2083.0,0
2000.0,2143.0,2076.0,2090.0,0
2014.0,2196.0,2076.0,2094.0,0
2022.0,2238.0,2074.0,2098.0,0
2027.0,2285.0,2077.0,2103.0,-4.0,44.0,
2024.0,2335.0,2075.0,2101.0,-4.0,45.0,
2029.0,2394.0,2062.0,2101.0,0
2056.0,2443.0,2071.0,2112.0,0
2075.0,2488.0,2061.0,2110.0,0
2098.0,2511.0,2052.0,2101.0,0
2118.0,2517.0,2047.0,2106.0,0
2117.0,2480.0,2036.0,2094.0,0
2082.0,1989.0,2042.0,2062.0,0
2065.0,1915.0,2049.0,2076.0,0
2040.0,1907.0,2044.0,2079.0,0
2019.0,1932.0,2038.0,2075.0,0
1997.0,1970.0,2031.0,2071.0,0
1980.0,1992.0,2022.0,2064.0,0
1964.0,1997.0,2016.0,2057.0,0
1939.0,1954.0,2012.0,2051.0,-5.0,45.0,
1909.0,1850.0,2016.0,2056.0,-5.0,45.0,
1902.0,1732.0,2014.0,2056.0,-5.0,46.0,
1897.0,1633.0,2021.0,2051.0,0
1893.0,1547.0,2023.0,2050.0,0
1882.0,1476.0,2020.0,2056.0,0
1895.0,1416.0,2027.0,2051.0,0
1991.0,1559.0,2022.0,2058.0,0
1991.0,1656.0,2022.0,2057.0,0
2011.0,1761.0,2024.0,2058.0,0
2038.0,1853.0,2023.0,2061.0,0
2062.0,1926.0,2027.0,2063.0,0
2085.0,1961.0,2031.0,2067.0,0
2102.0,1982.0,2034.0,2071.0,0
2118.0,1995.0,2034.0,2073.0,0
2125.0,2012.0,2040.0,2078.0,0
2136.0,2045.0,2041.0,2084.0,0
2151.0,2079.0,2045.0,2086.0,0
2165.0,2126.0,2045.0,2083.0,0
2176.0,2170.0,2047.0,2079.0,0
2164.0,2180.0,2044.0,2080.0,0
2126.0,2173.0,2047.0,2068.0,0
1979.0,2188.0,2060.0,2059.0,-5.0,46.0,
1990.0,2232.0,2070.0,2067.0,-5.0,47.0,
2023.0,2285.0,2076.0,2072.0,-6.0,47.0,
2053.0,2308.0,2082.0,2088.0,0
2069.0,2322.0,2082.0,2096.0,0
2076.0,2347.0,2083.0,2100.0,0
2069.0,2378.0,2087.0,2088.0,0
2048.0,2409.0,2087.0,2080.0,0
2035.0,2442.0,2083.0,2074.0,0
2045.0,2438.0,2078.0,2078.0,0
2062.0,2433.0,2072.0,2080.0,0
2069.0,2432.0,2062.0,2083.0,0
2071.0,2457.0,2068.0,2086.0,0
2055.0,2482.0,2067.0,2084.0,0
2050.0,2490.0,2058.0,2081.0,0
2050.0,2379.0,2049.0,2076.0,0
2032.0,2306.0,2060.0,2078.0,0
2016.0,2176.0,2055.0,2072.0,-6.0,47.0,
2014.0,2043.0,2049.0,2070.0,-6.0,48.0,
2028.0,1926.0,2048.0,2068.0,-6.0,48.0,
2031.0,1856.0,2055.0,2073.0,0
2031.0,1824.0,2053.0,2073.0,0
2026.0,1814.0,2053.0,2072.0,0
2039.0,1837.0,2048.0,2068.0,0
2053.0,1881.0,2038.0,2068.0,0
2067.0,1942.0,2029.0,2072.0,0
2085.0,2023.0,2022.0,2073.0,0
2100.0,2108.0,2038.0,2075.0,0
2131.0,2203.0,2028.0,2086.0,0
2167.0,2282.0,2021.0,2087.0,0
2204.0,2363.0,2008.0,2086.0,0
2173.0,2333.0,2010.0,2083.0,0
2135.0,2297.0,1999.0,2074.0,0
2103.0,2270.0,1990.0,2063.0,0
2081.0,2238.0,1987.0,2050.0,0
2070.0,2200.0,1981.0,2046.0,0
2069.0,2158.0,1980.0,2044.0,0
2058.0,2136.0,1973.0,2043.0,0
2050.0,2131.0,1977.0,2045.0,0
2067.0,2134.0,1976.0,2044.0,0
2078.0,2118.0,1987.0,2043.0,0
2086.0,2094.0,1985.0,2049.0,0
2073.0,2074.0,1991.0,2055.0,0
2046.0,2053.0,1997.0,2061.0,-6.0,49.0,
2008.0,1999.0,2001.0,2063.0,-7.0,49.0,
1923.0,1864.0,2002.0,2062.0,0
1899.0,1866.0,2006.0,2053.0,0
1877.0,1879.0,2008.0,2047.0,0
1866.0,1885.0,2005.0,2046.0,0
1891.0,1908.0,2011.0,2035.0,0
1932.0,1954.0,2014.0,2037.0,0
1976.0,2014.0,2019.0,2036.0,0
2010.0,2044.0,2023.0,2037.0,0
2044.0,2027.0,2028.0,2040.0,0
2083.0,1972.0,2024.0,2044.0,0
2123.0,1881.0,2032.0,2038.0,0
2143.0,1767.0,2032.0,2036.0,0
2147.0,1659.0,2027.0,2046.0,0
2132.0,1595.0,2038.0,2043.0,-7.0,49.0,
2118.0,1595.0,2036.0,2041.0,-7.0,50.0,
2021.0,1806.0,2032.0,2043.0,-7.0,50.0,
2011.0,1902.0,2031.0,2041.0,-7.0,50.0,
2012.0,1991.0,2039.0,2042.0,0
1999.0,2076.0,2047.0,2053.0,0
1991.0,2117.0,2050.0,2056.0,0
1979.0,2137.0,2047.0,2046.0,0
1969.0,2148.0,2041.0,2033.0,0
1969.0,2157.0,2037.0,2027.0,0
1966.0,2170.0,2038.0,2035.0,0
1969.0,2181.0,2039.0,2038.0,0
1972.0,2197.0,2040.0,2043.0,0
1989.0,2196.0,2042.0,2049.0,0
2006.0,2180.0,2052.0,2057.0,0
2045.0,2164.0,2050.0,2065.0,0
2106.0,2152.0,2055.0,2064.0,0
2167.0,2126.0,2056.0,2092.0,0
2129.0,2102.0,2060.0,2102.0,0
2083.0,2074.0,2058.0,2104.0,0
2065.0,2043.0,2060.0,2109.0,0
2067.0,2008.0,2063.0,2099.0,0
2064.0,1963.0,2061.0,2098.0,0
2047.0,1920.0,2057.0,2090.0,0
2016.0,1880.0,2058.0,2082.0,0
1973.0,1860.0,2053.0,2069.0,0
1944.0,1866.0,2052.0,2062.0,0
1944.0,1897.0,2052.0,2050.0,0
1961.0,1957.0,2053.0,2049.0,0
1988.0,2022.0,2055.0,2046.0,-7.0,51.0,
2030.0,2088.0,2067.0,2048.0,-7.0,51.0,
2082.0,2150.0,2064.0,2050.0,0
2191.0,2326.0,2074.0,2090.0,0
2184.0,2342.0,2078.0,2097.0,0
2158.0,2344.0,2078.0,2105.0,0
2092.0,2316.0,2078.0,2102.0,0
1997.0,2253.0,2077.0,2097.0,0
1899.0,2154.0,2070.0,2080.0,0
1821.0,2024.0,2065.0,2070.0,0
1766.0,1902.0,2059.0,2053.0,0
1736.0,1776.0,2052.0,2045.0,0
1712.0,1631.0,2045.0,2037.0,0
1696.0,1523.0,2044.0,2041.0,0
1700.0,1505.0,2047.0,2043.0,0
1718.0,1591.0,2044.0,2046.0,0
1775.0,1743.0,2041.0,2041.0,0
1887.0,1906.0,2038.0,2045.0,-8.0,51.0,
2326.0,2088.0,2032.0,2063.0,-8.0,52.0,
2398.0,2085.0,2036.0,2073.0,-8.0,52.0,
2425.0,2078.0,2035.0,2078.0,0
2430.0,2078.0,2037.0,2080.0,0
2423.0,2099.0,2042.0,2081.0,0
2395.0,2103.0,2043.0,2083.0,0
2337.0,2092.0,2041.0,2084.0,0
2285.0,2085.0,2037.0,2082.0,0
2234.0,2078.0,2024.0,2082.0,0
2195.0,2056.0,2025.0,2087.0,0
2152.0,2014.0,2023.0,2081.0,0
2103.0,1975.0,2016.0,2072.0,0
2067.0,1953.0,2020.0,2071.0,0
2030.0,1962.0,2015.0,2071.0,0
2019.0,1998.0,2018.0,2068.0,0
1999.0,2149.0,2017.0,2056.0,0
1978.0,2167.0,2009.0,2044.0,0
1969.0,2174.0,2011.0,2047.0,0
1974.0,2167.0,2010.0,2047.0,0
1987.0,2151.0,2016.0,2047.0,0
2009.0,2170.0,2022.0,2046.0,0
2023.0,2181.0,2030.0,2059.0,0
2038.0,2175.0,2036.0,2064.0,0
2057.0,2157.0,2039.0,2070.0,-8.0,52.0,
2076.0,2139.0,2039.0,2071.0,-8.0,52.0,
2086.0,2113.0,2040.0,2077.0,0
2099.0,2095.0,2036.0,2072.0,0
2124.0,2088.0,2037.0,2073.0,0
2156.0,2068.0,2042.0,2076.0,0
2142.0,1847.0,2056.0,2100.0,0
2117.0,1810.0,2059.0,2092.0,0
2095.0,1807.0,2066.0,2095.0,0
2075.0,1842.0,2066.0,2091.0,0
2037.0,1901.0,2059.0,2088.0,0
1997.0,1970.0,2059.0,2084.0,-8.0,53.0,
1971.0,2038.0,2057.0,2081.0,0
1942.0,2076.0,2056.0,2085.0,0
1930.0,2102.0,2051.0,2089.0,0
1918.0,2101.0,2046.0,2086.0,0
1897.0,2090.0,2043.0,2075.0,-8.0,53.0,
1865.0,2079.0,2041.0,2068.0,0
1812.0,2084.0,2037.0,2054.0,0
1746.0,2110.0,2038.0,2043.0,0
1681.0,2159.0,2034.0,2036.0,0
1625.0,2203.0,2033.0,2031.0,0
1557.0,2312.0,2014.0,2010.0,0
1604.0,2295.0,2013.0,2006.0,0
1663.0,2253.0,2009.0,2014.0,0
1738.0,2222.0,2010.0,2014.0,-8.0,53.0,
1839.0,2203.0,2014.0,2021.0,0
1975.0,2159.0,2025.0,2026.0,0
2160.0,2101.0,2021.0,2047.0,0
2324.0,2050.0,2023.0,2064.0,0
2418.0,2013.0,2023.0,2084.0,-8.0,54.0,
2468.0,1988.0,2026.0,2102.0,-8.0,54.0,
2490.0,1973.0,2033.0,2114.0,0
2473.0,1966.0,2032.0,2128.0,0
2400.0,1951.0,2029.0,2124.0,0
2304.0,1941.0,2022.0,2115.0,0
2199.0,1987.0,2015.0,2088.0,0
2177.0,2002.0,2023.0,2083.0,0
2147.0,2016.0,2025.0,2085.0,0
2132.0,2033.0,2032.0,2085.0,0
2151.0,2055.0,2035.0,2090.0,0
2182.0,2072.0,2041.0,2089.0,0
2221.0,2078.0,2042.0,2090.0,0
2256.0,2083.0,2041.0,2085.0,0
2258.0,2087.0,2043.0,2084.0,0
2222.0,2093.0,2045.0,2077.0,0
2161.0,2090.0,2053.0,2068.0,0
2100.0,2081.0,2053.0,2062.0,0
2041.0,2074.0,2063.0,2058.0,0
1995.0,2054.0,2068.0,2051.0,0
1963.0,2045.0,2067.0,2055.0,0
1932.0,2024.0,2069.0,2051.0,0
1676.0,1971.0,2065.0,2006.0,-9.0,54.0,
1603.0,1957.0,2070.0,1993.0,-9.0,54.0,
1561.0,1965.0,2066.0,1997.0,0
1564.0,1995.0,2060.0,2012.0,0
1585.0,2029.0,2063.0,2030.0,0
1599.0,2064.0,2060.0,2044.0,0
1656.0,2091.0,2057.0,2057.0,0
1760.0,2116.0,2054.0,2076.0,0
1903.0,2115.0,2062.0,2092.0,0
2057.0,2107.0,2057.0,2107.0,0
2177.0,2084.0,2056.0,2114.0,0
2276.0,2062.0,2048.0,2113.0,0
2382.0,2066.0,2042.0,2108.0,0
2501.0,2090.0,2040.0,2113.0,-9.0,54.0,
2512.0,2130.0,2032.0,2124.0,-9.0,55.0,
2380.0,2179.0,2033.0,2117.0,-9.0,55.0,
2249.0,2231.0,2030.0,2111.0,0
2135.0,2269.0,2037.0,2106.0,0
2040.0,2281.0,2038.0,2100.0,0
1983.0,2269.0,2036.0,2090.0,0
1977.0,2258.0,2037.0,2085.0,0
2025.0,2242.0,2036.0,2082.0,0
2079.0,2229.0,2026.0,2079.0,0
2105.0,2192.0,2018.0,2073.0,0
2100.0,2145.0,2014.0,2072.0,0
2082.0,2116.0,2010.0,2066.0,0
2100.0,2139.0,2012.0,2077.0,0
2146.0,2183.0,2018.0,2095.0,0
2194.0,2220.0,2028.0,2107.0,0
2296.0,2124.0,2020.0,2100.0,0
2257.0,2056.0,2014.0,2095.0,0
2211.0,1987.0,2005.0,2086.0,0
2169.0,1939.0,2004.0,2070.0,0
2139.0,1879.0,1998.0,2066.0,-9.0,55.0,
2108.0,1797.0,1995.0,2059.0,-9.0,55.0,
2070.0,1723.0,1990.0,2051.0,-9.0,55.0,
2022.0,1674.0,1996.0,2042.0,0
1944.0,1671.0,2003.0,2032.0,0
1907.0,1696.0,2014.0,2027.0,0
1860.0,1703.0,2020.0,2020.0,0
1828.0,1719.0,2025.0,2019.0,0
1811.0,1758.0,2028.0,2023.0,0
1810.0,1796.0,2025.0,2020.0,0
1800.0,1844.0,2024.0,2021.0,0
1801.0,2006.0,2013.0,2016.0,0
1826.0,2050.0,2017.0,2019.0,0
1905.0,2105.0,2026.0,2034.0,0
2045.0,2149.0,2040.0,2053.0,0
2166.0,2173.0,2049.0,2074.0,0
2227.0,2147.0,2054.0,2081.0,0
2213.0,2119.0,2053.0,2084.0,0
2149.0,2110.0,2060.0,2085.0,0
2074.0,2131.0,2062.0,2083.0,0
1987.0,2147.0,2058.0,2080.0,-9.0,55.0,
1886.0,2150.0,2064.0,2073.0,-9.0,55.0,
1796.0,2139.0,2064.0,2069.0,0
1734.0,2117.0,2069.0,2065.0,0
1698.0,2099.0,2069.0,2067.0,0
1700.0,2096.0,2073.0,2058.0,0
1956.0,2062.0,2035.0,2008.0,0
1986.0,2076.0,2031.0,2006.0,0
2035.0,2108.0,2033.0,2008.0,0
2103.0,2143.0,2035.0,2015.0,0
2216.0,2160.0,2037.0,2043.0,0
2316.0,2143.0,2046.0,2065.0,0
2384.0,2091.0,2041.0,2072.0,0
2389.0,2029.0,2040.0,2070.0,0
2359.0,1988.0,2035.0,2072.0,0
2304.0,1972.0,2028.0,2070.0,0
2239.0,1966.0,2033.0,2071.0,0
2193.0,1957.0,2034.0,2087.0,0
2176.0,1931.0,2037.0,2106.0,0
2171.0,1908.0,2043.0,2124.0,0
2151.0,1914.0,2050.0,2131.0,-10.0,55.0,
1984.0,1924.0,2047.0,2106.0,-10.0,56.0,
1927.0,1890.0,2032.0,2095.0,-10.0,56.0,
1936.0,1850.0,2028.0,2087.0,0
1950.0,1836.0,2022.0,2075.0,0
1953.0,1825.0,2021.0,2062.0,0
1933.0,1825.0,2022.0,2062.0,0
1866.0,1825.0,2027.0,2044.0,0
1805.0,1829.0,2019.0,2036.0,0
1764.0,1843.0,2031.0,2037.0,0
1772.0,1862.0,2024.0,2038.0,0
1830.0,1884.0,2032.0,2045.0,0
1933.0,1887.0,2035.0,2046.0,0
2032.0,1865.0,2039.0,2052.0,0
2128.0,1833.0,2046.0,2057.0,0
2235.0,1810.0,2054.0,2068.0,0
2535.0,2018.0,2064.0,2091.0,0
2524.0,2110.0,2066.0,2087.0,0
2486.0,2184.0,2071.0,2082.0,0
2422.0,2241.0,2074.0,2079.0,0
2337.0,2289.0,2075.0,2074.0,0
2247.0,2319.0,2075.0,2077.0,0
2161.0,2337.0,2073.0,2078.0,-10.0,56.0,
2080.0,2331.0,2078.0,2084.0,-10.0,56.0,
2024.0,2303.0,2079.0,2081.0,0
1979.0,2257.0,2076.0,2074.0,0
1943.0,2227.0,2066.0,2060.0,0
1932.0,2214.0,2061.0,2059.0,0
1931.0,2204.0,2056.0,2057.0,0
1929.0,2185.0,2051.0,2051.0,0
1981.0,2099.0,2068.0,2062.0,0
2010.0,2076.0,2059.0,2068.0,0
2026.0,2057.0,2063.0,2076.0,0
2049.0,2040.0,2065.0,2077.0,0
2075.0,2010.0,2061.0,2073.0,0
2069.0,1968.0,2053.0,2078.0,0
2075.0,1918.0,2056.0,2081.0,0
2075.0,1859.0,2050.0,2075.0,0
2055.0,1791.0,2045.0,2073.0,-10.0,56.0,
2017.0,1738.0,2047.0,2076.0,-10.0,56.0,
1971.0,1674.0,2038.0,2065.0,-10.0,56.0,
1939.0,1630.0,2031.0,2065.0,-10.0,56.0,
1909.0,1643.0,2020.0,2049.0,0
1878.0,1701.0,2008.0,2047.0,0
1836.0,1817.0,2007.0,2037.0,0
1812.0,1945.0,2001.0,2039.0,0
1932.0,2255.0,1996.0,2053.0,0
1985.0,2309.0,1992.0,2058.0,0
2018.0,2339.0,2005.0,2072.0,0
2060.0,2367.0,2010.0,2081.0,0
2125.0,2388.0,2010.0,2093.0,0
2187.0,2366.0,2008.0,2099.0,0
2259.0,2313.0,2013.0,2102.0,0
2299.0,2197.0,2000.0,2100.0,0
2290.0,2037.0,2000.0,2092.0,0
2248.0,1888.0,2002.0,2080.0,0
2206.0,1801.0,2001.0,2068.0,0
2172.0,1764.0,2010.0,2059.0,0
2146.0,1746.0,2013.0,2056.0,0
2109.0,1744.0,2014.0,2053.0,0
2052.0,1787.0,2013.0,2074.0,-10.0,56.0,
1992.0,1806.0,2017.0,2076.0,-10.0,56.0,
1941.0,1825.0,2022.0,2062.0,0
1884.0,1853.0,2026.0,2054.0,0
1841.0,1899.0,2030.0,2044.0,0
1818.0,1999.0,2040.0,2041.0,0
1807.0,2126.0,2045.0,2038.0,0
1784.0,2225.0,2053.0,2042.0,0
1762.0,2286.0,2055.0,2055.0,0
1737.0,2303.0,2063.0,2061.0,0
1731.0,2293.0,2062.0,2066.0,0
1762.0,2268.0,2055.0,2067.0,0
1829.0,2249.0,2051.0,2062.0,0
1915.0,2233.0,2038.0,2058.0,0
2034.0,2214.0,2031.0,2053.0,0
2149.0,2192.0,2025.0,2052.0,0
2376.0,2066.0,2034.0,2082.0,0
2353.0,2046.0,2040.0,2092.0,0
2314.0,2030.0,2045.0,2092.0,-10.0,56.0,
2248.0,2006.0,2044.0,2096.0,-11.0,57.0,
2200.0,1975.0,2039.0,2095.0,-11.0,57.0,
2162.0,1962.0,2043.0,2091.0,0
2124.0,1967.0,2035.0,2084.0,0
2076.0,1986.0,2033.0,2084.0,0
2007.0,2020.0,2034.0,2083.0,0
1933.0,2076.0,2037.0,2079.0,0
1876.0,2157.0,2028.0,2082.0,0
1839.0,2240.0,2038.0,2081.0,0
1815.0,2312.0,2044.0,2087.0,0
1819.0,2358.0,2042.0,2081.0,0
1808.0,2294.0,2047.0,2050.0,0
1842.0,2191.0,2046.0,2040.0,0
1924.0,2066.0,2041.0,2030.0,0
2054.0,1982.0,2036.0,2032.0,0
2196.0,1971.0,2035.0,2034.0,0
2315.0,1991.0,2034.0,2045.0,0
2392.0,2016.0,2032.0,2055.0,0
2412.0,2030.0,2029.0,2065.0,0
2371.0,2048.0,2027.0,2071.0,0
2290.0,2067.0,2030.0,2077.0,-11.0,57.0,
2192.0,2079.0,2042.0,2087.0,-11.0,57.0,
2080.0,2072.0,2046.0,2085.0,-11.0,57.0,
2009.0,2049.0,2056.0,2087.0,0
1999.0,2021.0,2061.0,2082.0,0
2050.0,1990.0,2061.0,2077.0,0
2211.0,1833.0,2061.0,2077.0,0
2181.0,1855.0,2063.0,2081.0,0
2128.0,1888.0,2063.0,2091.0,0
2086.0,1933.0,2065.0,2090.0,0
2042.0,1974.0,2064.0,2095.0,0
2017.0,2025.0,2058.0,2103.0,0
1980.0,2056.0,2062.0,2097.0,0
1943.0,2072.0,2059.0,2096.0,0
1918.0,2070.0,2050.0,2096.0,0
1895.0,2056.0,2050.0,2088.0,0
1884.0,2052.0,2043.0,2092.0,0
1867.0,2057.0,2052.0,2097.0,0
1831.0,2046.0,2040.0,2102.0,0
1784.0,2033.0,2036.0,2100.0,0
1722.0,2011.0,2036.0,2098.0,0
1401.0,1919.0,2015.0,2099.0,0
1346.0,1934.0,2014.0,2090.0,0
1347.0,1956.0,2006.0,2076.0,0
1418.0,1976.0,2006.0,2061.0,0
1561.0,2015.0,2015.0,2048.0,0
1739.0,2099.0,2010.0,2048.0,-11.0,57.0,
1926.0,2225.0,2009.0,2053.0,-11.0,57.0,
2115.0,2351.0,2013.0,2058.0,-11.0,57.0,
2289.0,2427.0,2015.0,2062.0,-11.0,57.0,
2449.0,2451.0,2015.0,2059.0,0
2584.0,2456.0,2017.0,2055.0,0
2677.0,2447.0,2019.0,2053.0,0
2691.0,2378.0,2023.0,2059.0,0
2648.0,2249.0,2023.0,2068.0,0
2569.0,2115.0,2021.0,2075.0,0
2213.0,1898.0,2011.0,2030.0,0
2164.0,1860.0,2001.0,2017.0,0
2137.0,1839.0,2003.0,2011.0,0
2114.0,1824.0,2003.0,2008.0,0
2101.0,1807.0,2000.0,2012.0,0
2083.0,1789.0,2011.0,2023.0,0
2072.0,1776.0,2011.0,2038.0,0
2063.0,1783.0,2018.0,2046.0,0
2055.0,1804.0,2018.0,2052.0,0
2059.0,1837.0,2022.0,2058.0,0
2056.0,1882.0,2025.0,2053.0,0
2046.0,1926.0,2027.0,2058.0,0
2043.0,1969.0,2032.0,2056.0,0
2059.0,2018.0,2038.0,2053.0,0
2074.0,2111.0,2050.0,2067.0,0
2057.0,2119.0,2053.0,2064.0,0
2045.0,2116.0,2057.0,2063.0,-12.0,57.0,
2041.0,2109.0,2055.0,2056.0,-12.0,57.0,
2040.0,2089.0,2056.0,2056.0,0
2032.0,2065.0,2054.0,2044.0,0
2021.0,2039.0,2053.0,2042.0,0
2003.0,2019.0,2053.0,2042.0,0
1988.0,1999.0,2048.0,2038.0,0
1992.0,1982.0,2054.0,2040.0,0
2003.0,1958.0,2058.0,2049.0,0
2019.0,1946.0,2066.0,2055.0,0
2022.0,1952.0,2071.0,2052.0,0
2025.0,1973.0,2074.0,2058.0,0
2021.0,1988.0,2074.0,2059.0,0
2027.0,2014.0,2075.0,2060.0,0
2047.0,2057.0,2053.0,2087.0,-12.0,57.0,
2029.0,2074.0,2049.0,2087.0,-12.0,57.0,
2012.0,2118.0,2048.0,2090.0,0
1978.0,2162.0,2052.0,2088.0,0
1943.0,2192.0,2054.0,2083.0,0
1922.0,2202.0,2055.0,2072.0,0
1926.0,2225.0,2050.0,2066.0,0
1936.0,2254.0,2048.0,2072.0,0
1943.0,2275.0,2043.0,2072.0,0
1934.0,2283.0,2044.0,2071.0,0
1927.0,2274.0,2048.0,2078.0,0
1924.0,2234.0,2047.0,2078.0,0
1928.0,2167.0,2048.0,2086.0,0
1965.0,2102.0,2048.0,2087.0,0
2107.0,2054.0,2047.0,2091.0,0
2137.0,2082.0,2041.0,2090.0,0
2159.0,2103.0,2040.0,2088.0,0
2164.0,2096.0,2033.0,2082.0,0
2157.0,2086.0,2036.0,2073.0,0
2144.0,2076.0,2035.0,2063.0,-12.0,57.0,
2120.0,2078.0,2031.0,2061.0,-12.0,57.0,
2083.0,2088.0,2037.0,2054.0,-12.0,57.0,
2050.0,2114.0,2030.0,2042.0,0
2015.0,2132.0,2029.0,2050.0,0
1984.0,2135.0,2026.0,2037.0,0
1947.0,2132.0,2025.0,2039.0,0
1913.0,2122.0,2020.0,2036.0,0
1889.0,2102.0,2020.0,2030.0,0
1871.0,2088.0,2023.0,2026.0,0
1862.0,2085.0,2021.0,2025.0,0
1906.0,2142.0,2031.0,2057.0,0
1947.0,2157.0,2030.0,2067.0,0
2014.0,2175.0,2033.0,2077.0,-12.0,58.0,
2094.0,2206.0,2035.0,2096.0,0
2158.0,2229.0,2037.0,2106.0,0
2207.0,2238.0,2045.0,2104.0,0
2234.0,2220.0,2047.0,2106.0,0
2230.0,2175.0,2049.0,2104.0,0
2208.0,2112.0,2049.0,2106.0,0
2171.0,2042.0,2052.0,2104.0,0
2134.0,1977.0,2056.0,2101.0,0
2098.0,1926.0,2055.0,2096.0,-12.0,58.0,
2069.0,1902.0,2055.0,2092.0,-12.0,58.0,
2054.0,1905.0,2054.0,2089.0,0
2063.0,1920.0,2049.0,2083.0,0
2041.0,1913.0,2055.0,2086.0,0
2012.0,1902.0,2052.0,2078.0,0
1983.0,1888.0,2058.0,2075.0,0
1962.0,1870.0,2058.0,2072.0,0
1941.0,1859.0,2048.0,2062.0,0
1916.0,1859.0,2046.0,2056.0,0
1903.0,1865.0,2042.0,2057.0,0
1901.0,1863.0,2046.0,2061.0,0
1894.0,1845.0,2044.0,2060.0,0
1891.0,1847.0,2045.0,2063.0,0
1890.0,1872.0,2042.0,2069.0,0
1893.0,1934.0,2046.0,2069.0,-12.0,58.0,
1893.0,2014.0,2043.0,2066.0,-12.0,58.0,
1887.0,2066.0,2036.0,2058.0,-12.0,58.0,
1917.0,2114.0,2034.0,2065.0,0
1924.0,2156.0,2033.0,2071.0,0
1940.0,2190.0,2025.0,2075.0,0
1966.0,2197.0,2021.0,2083.0,0
2014.0,2182.0,2019.0,2080.0,0
2059.0,2176.0,2028.0,2083.0,0
2097.0,2172.0,2019.0,2080.0,0
2124.0,2167.0,2021.0,2083.0,0
2129.0,2147.0,2025.0,2075.0,0
2119.0,2087.0,2024.0,2071.0,0
2111.0,2006.0,2023.0,2065.0,0
2103.0,1951.0,2018.0,2058.0,0
2095.0,1934.0,2027.0,2054.0,0
2114.0,1942.0,2027.0,2050.0,0
2140.0,1962.0,2031.0,2056.0,0
2148.0,1976.0,2054.0,2068.0,-12.0,58.0,
2120.0,1990.0,2051.0,2065.0,0
2090.0,2010.0,2057.0,2076.0,0
2072.0,2021.0,2063.0,2080.0,0
2066.0,1997.0,2056.0,2082.0,0
2078.0,1980.0,2051.0,2084.0,0
2087.0,1977.0,2061.0,2076.0,0
2089.0,2003.0,2053.0,2080.0,0
2072.0,2038.0,2054.0,2085.0,0
2068.0,2073.0,2060.0,2090.0,0
2086.0,2122.0,2058.0,2105.0,0
2129.0,2140.0,2067.0,2108.0,0
2166.0,2114.0,2053.0,2107.0,0
2160.0,2079.0,2051.0,2100.0,0
2158.0,2057.0,2044.0,2086.0,-12.0,58.0,
2012.0,1921.0,2047.0,2066.0,0
1973.0,1899.0,2045.0,2062.0,0
1950.0,1901.0,2050.0,2062.0,0
1971.0,1904.0,2046.0,2055.0,0
2011.0,1930.0,2049.0,2058.0,0
2070.0,1939.0,2057.0,2064.0,0
2104.0,1937.0,2058.0,2072.0,0
2130.0,1936.0,2062.0,2075.0,0
2152.0,1926.0,2063.0,2083.0,-12.0,58.0,
2169.0,1909.0,2063.0,2088.0,-12.0,58.0,
2171.0,1903.0,2049.0,2082.0,-12.0,58.0,
2156.0,1901.0,2037.0,2075.0,0
2132.0,1924.0,2015.0,2069.0,0
2099.0,1962.0,2008.0,2062.0,0
2068.0,2015.0,1994.0,2058.0,0
2053.0,2103.0,1987.0,2040.0,0
2070.0,2109.0,1995.0,2039.0,0
2094.0,2104.0,1992.0,2039.0,0
2114.0,2109.0,1994.0,2039.0,0
2124.0,2108.0,1999.0,2046.0,0
2116.0,2115.0,2004.0,2053.0,0
2114.0,2114.0,2009.0,2066.0,0
2110.0,2115.0,2017.0,2073.0,0
2106.0,2086.0,2023.0,2073.0,0
2105.0,2034.0,2027.0,2072.0,0
2094.0,1986.0,2029.0,2070.0,0
2093.0,1950.0,2040.0,2081.0,0
2081.0,1921.0,2043.0,2081.0,0
2070.0,1907.0,2050.0,2088.0,-12.0,58.0,
2060.0,1899.0,2050.0,2100.0,-12.0,58.0,
2029.0,1990.0,2051.0,2099.0,0
2014.0,2021.0,2050.0,2097.0,0
2014.0,2025.0,2051.0,2092.0,0
2015.0,2011.0,2047.0,2086.0,0
2015.0,1980.0,2047.0,2078.0,0
2014.0,1956.0,2044.0,2071.0,0
2012.0,1946.0,2038.0,2062.0,0
2014.0,1970.0,2033.0,2062.0,0
2015.0,1999.0,2034.0,2059.0,0
2020.0,2034.0,2037.0,2067.0,0
2024.0,2070.0,2040.0,2066.0,0
2026.0,2095.0,2043.0,2068.0,-12.0,58.0,
2031.0,2105.0,2044.0,2074.0,-12.0,58.0,
2034.0,2110.0,2046.0,2074.0,0
2028.0,2075.0,2040.0,2073.0,0
2019.0,2091.0,2037.0,2070.0,0
2016.0,2114.0,2041.0,2075.0,0
2007.0,2125.0,2044.0,2068.0,0
1996.0,2135.0,2042.0,2073.0,0
1984.0,2140.0,2035.0,2076.0,0
1980.0,2140.0,2031.0,2079.0,0
1984.0,2132.0,2023.0,2071.0,0
1998.0,2123.0,2030.0,2070.0,0
2016.0,2115.0,2022.0,2068.0,0
2028.0,2111.0,2028.0,2067.0,0
2029.0,2102.0,2034.0,2069.0,0
2024.0,2087.0,2028.0,2073.0,0
2015.0,2082.0,2026.0,2072.0,0
2007.0,2076.0,2025.0,2074.0,0
1993.0,2067.0,2015.0,2073.0,0
1982.0,2066.0,2013.0,2078.0,-12.0,58.0,
1990.0,2077.0,2012.0,2074.0,-12.0,58.0,
2003.0,2082.0,2010.0,2074.0,-12.0,58.0,
2022.0,2076.0,2010.0,2075.0,-12.0,58.0,
2042.0,2081.0,2004.0,2072.0,-12.0,58.0,
2060.0,2080.0,1999.0,2070.0,-12.0,58.0,
2076.0,2087.0,1993.0,2067.0,-12.0,58.0,
2081.0,2085.0,1998.0,2060.0,-12.0,58.0,
2083.0,2081.0,1996.0,2059.0,-12.0,58.0,
2071.0,2068.0,1995.0,2051.0,-12.0,58.0,
2058.0,2062.0,1992.0,2042.0,-12.0,58.0,
2056.0,2055.0,1995.0,2042.0,-12.0,58.0,
2055.0,2051.0,1993.0,2038.0,-12.0,58.0,
2052.0,2053.0,1998.0,2045.0,-12.0,57.0,
2070.0,2060.0,2009.0,2064.0,-12.0,57.0,
2068.0,2081.0,2012.0,2062.0,-12.0,57.0,
2065.0,2117.0,2021.0,2058.0,-12.0,57.0,
2063.0,2149.0,2025.0,2063.0,-12.0,57.0,
2069.0,2170.0,2027.0,2068.0,-12.0,57.0,
2070.0,2171.0,2037.0,2069.0,-13.0,57.0,
2074.0,2155.0,2035.0,2084.0,-13.0,57.0,
2078.0,2151.0,2038.0,2083.0,-13.0,57.0,
2069.0,2148.0,2045.0,2081.0,-13.0,57.0,
2062.0,2149.0,2046.0,2064.0,-13.0,57.0,
2060.0,2154.0,2051.0,2067.0,-13.0,57.0,
2055.0,2153.0,2060.0,2067.0,-12.0,57.0,
2053.0,2134.0,2069.0,2062.0,-12.0,57.0,
2048.0,2128.0,2073.0,2064.0,-12.0,57.0,
2047.0,2110.0,2074.0,2057.0,-12.0,57.0,
2047.0,2095.0,2075.0,2053.0,-12.0,57.0,
2058.0,2027.0,2068.0,2068.0,-12.0,57.0,
2062.0,2014.0,2068.0,2067.0,-12.0,56.0,
2055.0,2004.0,2068.0,2069.0,-12.0,56.0,
2051.0,2002.0,2072.0,2069.0,-12.0,56.0,
2045.0,1992.0,2072.0,2072.0,-12.0,56.0,
2036.0,1976.0,2067.0,2069.0,-12.0,56.0,
2032.0,1959.0,2062.0,2068.0,-12.0,56.0,
2022.0,1940.0,2053.0,2067.0,-12.0,56.0,
2016.0,1940.0,2049.0,2056.0,-12.0,56.0,
2013.0,1956.0,2058.0,2055.0,-12.0,55.0,
2005.0,1979.0,2039.0,2049.0,-12.0,55.0,
2020.0,2000.0,2024.0,2047.0,0
2021.0,2024.0,2026.0,2049.0,0
2023.0,2041.0,2018.0,2054.0,0
2030.0,2040.0,2003.0,2059.0,0
2016.0,2034.0,2001.0,2056.0,0
2002.0,2034.0,2007.0,2051.0,0
1996.0,2034.0,2012.0,2048.0,0
1987.0,2025.0,2013.0,2045.0,0
1992.0,2033.0,2019.0,2052.0,0
1999.0,2034.0,2026.0,2055.0,0
2001.0,2036.0,2044.0,2053.0,0
2014.0,2048.0,2055.0,2058.0,0
2019.0,2048.0,2061.0,2067.0,0
2031.0,2063.0,2075.0,2068.0,0
2038.0,2084.0,2082.0,2066.0,0
2045.0,2094.0,2092.0,2066.0,0
2050.0,2102.0,2094.0,2063.0,0
2054.0,2087.0,2082.0,2063.0,0
2071.0,2074.0,2077.0,2063.0,0
2111.0,2030.0,2051.0,2061.0,0
2096.0,2029.0,2045.0,2061.0,0
2083.0,2032.0,2044.0,2067.0,0
2056.0,2045.0,2035.0,2063.0,0
2057.0,2046.0,2034.0,2064.0,0
2043.0,2053.0,2025.0,2068.0,0
2047.0,2063.0,2017.0,2068.0,0
2050.0,2055.0,2015.0,2068.0,0
2044.0,2029.0,2012.0,2066.0,0
2036.0,1982.0,2019.0,2066.0,0
2028.0,1945.0,2021.0,2066.0,0
2028.0,1933.0,2018.0,2063.0,0
2029.0,1943.0,2025.0,2064.0,0
2030.0,1979.0,2028.0,2058.0,0
2060.0,2054.0,2041.0,2065.0,0
2062.0,2045.0,2047.0,2066.0,0
2052.0,2033.0,2052.0,2065.0,0
2049.0,2022.0,2059.0,2066.0,0
2034.0,2019.0,2060.0,2067.0,0
2035.0,2024.0,2060.0,2062.0,0
2043.0,2030.0,2059.0,2063.0,0
2050.0,2038.0,2058.0,2065.0,0
2053.0,2052.0,2058.0,2071.0,0
2050.0,2066.0,2060.0,2065.0,0
2048.0,2080.0,2074.0,2068.0,0
2045.0,2098.0,2079.0,2063.0,0
2034.0,2116.0,2088.0,2062.0,0
2036.0,2127.0,2090.0,2060.0,0
2033.0,2130.0,2087.0,2060.0,0
2054.0,2107.0,2059.0,2066.0,0
2043.0,2087.0,2051.0,2063.0,0
2045.0,2086.0,2055.0,2061.0,0
2044.0,2077.0,2047.0,2060.0,0
2040.0,2073.0,2048.0,2055.0,0
2042.0,2073.0,2040.0,2063.0,0
2042.0,2071.0,2034.0,2059.0,0
2046.0,2063.0,2037.0,2066.0,0
2045.0,2064.0,2022.0,2062.0,0
2044.0,2069.0,2021.0,2060.0,0
2041.0,2068.0,2012.0,2060.0,0
2032.0,2064.0,2009.0,2057.0,0
2035.0,2053.0,2012.0,2057.0,0
2038.0,2048.0,2011.0,2058.0,0
2040.0,2043.0,2006.0,2060.0,0
2046.0,2047.0,2020.0,2059.0,0
2046.0,2058.0,2015.0,2058.0,0
2044.0,2075.0,2019.0,2055.0,0
2048.0,2094.0,2023.0,2059.0,0
2051.0,2111.0,2026.0,2064.0,0
2052.0,2122.0,2025.0,2053.0,0
2051.0,2131.0,2026.0,2060.0,0
2047.0,2130.0,2022.0,2055.0,0
2047.0,2115.0,2015.0,2059.0,0
2044.0,2103.0,2008.0,2055.0,0
2040.0,2083.0,2004.0,2054.0,0
2042.0,2068.0,2005.0,2053.0,0
2038.0,2051.0,2003.0,2056.0,0
2032.0,2045.0,2017.0,2050.0,0
2032.0,2047.0,2019.0,2058.0,0
2035.0,2126.0,2037.0,2054.0,0
2031.0,2140.0,2041.0,2059.0,0
2024.0,2150.0,2042.0,2066.0,0
2021.0,2154.0,2046.0,2061.0,0
2023.0,2152.0,2047.0,2057.0,0
2028.0,2141.0,2052.0,2070.0,0
2023.0,2136.0,2051.0,2067.0,0
2023.0,2136.0,2050.0,2072.0,0
2026.0,2138.0,2049.0,2075.0,0
2020.0,2143.0,2050.0,2076.0,0
2017.0,2119.0,2048.0,2077.0,0
2008.0,2069.0,2048.0,2076.0,0
2005.0,2003.0,2050.0,2080.0,0
2001.0,1934.0,2044.0,2072.0,0
1999.0,1888.0,2043.0,2074.0,0
1997.0,1920.0,2030.0,2061.0,0
1987.0,1954.0,2029.0,2060.0,0
1988.0,1978.0,2028.0,2064.0,0
1996.0,2013.0,2025.0,2063.0,0
2007.0,2037.0,2027.0,2068.0,0
2018.0,2051.0,2028.0,2068.0,0
2021.0,2047.0,2016.0,2066.0,0
2030.0,2009.0,2011.0,2067.0,0
2034.0,1978.0,2017.0,2068.0,0
2042.0,1950.0,2018.0,2067.0,0
2053.0,1922.0,2019.0,2070.0,0
2077.0,1897.0,2020.0,2071.0,0
2112.0,1854.0,2023.0,2074.0,0
2138.0,1802.0,2034.0,2073.0,0
2138.0,1759.0,2034.0,2072.0,0
2074.0,1822.0,2031.0,2069.0,0
2062.0,1842.0,2030.0,2064.0,0
2049.0,1841.0,2027.0,2065.0,0
2037.0,1832.0,2030.0,2059.0,0
2032.0,1828.0,2028.0,2063.0,0
2028.0,1845.0,2028.0,2063.0,0
2022.0,1880.0,2027.0,2056.0,0
2023.0,1940.0,2030.0,2052.0,0
2024.0,2026.0,2030.0,2045.0,0
2027.0,2112.0,2030.0,2043.0,0
2031.0,2175.0,2035.0,2048.0,0
2036.0,2192.0,2035.0,2056.0,0
2037.0,2180.0,2042.0,2064.0,0
2039.0,2151.0,2043.0,2068.0,0
2065.0,2100.0,2045.0,2073.0,0
2063.0,2092.0,2048.0,2075.0,0
2067.0,2097.0,2044.0,2073.0,0
2067.0,2097.0,2045.0,2072.0,0
2064.0,2103.0,2046.0,2073.0,0
2057.0,2101.0,2039.0,2074.0,0
2056.0,2103.0,2043.0,2066.0,0
2050.0,2098.0,2041.0,2068.0,0
2046.0,2086.0,2040.0,2066.0,0
2045.0,2071.0,2034.0,2060.0,0
2045.0,2067.0,2033.0,2067.0,0
2036.0,2052.0,2034.0,2072.0,0
2039.0,2059.0,2031.0,2070.0,0
2040.0,2054.0,2028.0,2076.0,0
2039.0,2053.0,2032.0,2078.0,0
2037.0,2055.0,2028.0,2079.0,0
2050.0,2061.0,2027.0,2074.0,0
2049.0,2074.0,2023.0,2077.0,0
2047.0,2071.0,2018.0,2073.0,0
2047.0,2072.0,2017.0,2072.0,0
2042.0,2071.0,2020.0,2073.0,0
2047.0,2079.0,2030.0,2077.0,0
2044.0,2078.0,2037.0,2076.0,0
2042.0,2076.0,2056.0,2079.0,0
2042.0,2079.0,2056.0,2078.0,0
2041.0,2080.0,2066.0,2079.0,0
2041.0,2082.0,2071.0,2079.0,0
2042.0,2079.0,2082.0,2080.0,0
2046.0,2088.0,2074.0,2079.0,0
2046.0,2084.0,2073.0,2074.0,0
2060.0,2088.0,2070.0,2079.0,0
2052.0,2084.0,2069.0,2078.0,0
2050.0,2074.0,2062.0,2076.0,0
2047.0,2065.0,2060.0,2076.0,0
2046.0,2064.0,2056.0,2076.0,0
2039.0,2052.0,2055.0,2075.0,0
2036.0,2043.0,2051.0,2079.0,0
2032.0,2037.0,2041.0,2078.0,0
2022.0,2038.0,2043.0,2079.0,0
2012.0,2057.0,2043.0,2073.0,0
2003.0,2061.0,2041.0,2075.0,0
1995.0,2070.0,2040.0,2069.0,0
1988.0,2069.0,2047.0,2067.0,0
1976.0,2063.0,2058.0,2068.0,0
1976.0,2065.0,2064.0,2070.0,0
1981.0,2060.0,2065.0,2067.0,0
2004.0,2052.0,2057.0,2076.0,0
2000.0,2051.0,2050.0,2076.0,0
2000.0,2051.0,2043.0,2075.0,0
2011.0,2045.0,2039.0,2073.0,0
2023.0,2042.0,2036.0,2073.0,0
2031.0,2042.0,2039.0,2070.0,0
2051.0,2040.0,2036.0,2072.0,0
2049.0,2036.0,2037.0,2074.0,0
2054.0,2033.0,2027.0,2073.0,0
2045.0,2024.0,2026.0,2076.0,0
2037.0,2023.0,2021.0,2079.0,0
2032.0,2025.0,2016.0,2076.0,0
2038.0,2048.0,2013.0,2079.0,0
2042.0,2073.0,2006.0,2075.0,0
2069.0,2086.0,1989.0,2072.0,0
2076.0,2072.0,1989.0,2066.0,0
2073.0,2066.0,1981.0,2062.0,0
2080.0,2059.0,1984.0,2059.0,0
2071.0,2060.0,1989.0,2054.0,0
2079.0,2058.0,1997.0,2060.0,0
2081.0,2057.0,2010.0,2064.0,0
2075.0,2053.0,2024.0,2061.0,0
2069.0,2053.0,2035.0,2064.0,0
2065.0,2048.0,2050.0,2063.0,0
2060.0,2050.0,2055.0,2071.0,0
2051.0,2048.0,2068.0,2066.0,0
2049.0,2052.0,2068.0,2064.0,0
2045.0,2052.0,2074.0,2069.0,0
2042.0,2055.0,2079.0,2075.0,0
2060.0,2051.0,2067.0,2075.0,0
2062.0,2054.0,2058.0,2075.0,0
2067.0,2059.0,2050.0,2076.0,0
2071.0,2051.0,2045.0,2080.0,0
2072.0,2052.0,2040.0,2085.0,0
2070.0,2049.0,2034.0,2084.0,0
2069.0,2057.0,2030.0,2082.0,0
2064.0,2054.0,2026.0,2086.0,0
2055.0,2051.0,2042.0,2073.0,0
2051.0,2044.0,2040.0,2068.0,0
2044.0,2047.0,2042.0,2070.0,0
2043.0,2045.0,2048.0,2068.0,0
2042.0,2049.0,2049.0,2067.0,0
2029.0,2054.0,2051.0,2072.0,0
2033.0,2056.0,2054.0,2075.0,0
2046.0,2056.0,2051.0,2082.0,0
2048.0,2062.0,2045.0,2079.0,0
2041.0,2062.0,2045.0,2077.0,0
2044.0,2071.0,2042.0,2074.0,0
2042.0,2084.0,2040.0,2067.0,0
2041.0,2094.0,2041.0,2066.0,0
2035.0,2107.0,2032.0,2067.0,0
2036.0,2121.0,2035.0,2062.0,0
2032.0,2122.0,2028.0,2060.0,0
2041.0,2116.0,2026.0,2062.0,0
2044.0,2115.0,2016.0,2056.0,0
2042.0,2110.0,2019.0,2059.0,0
2040.0,2102.0,2011.0,2058.0,0
2045.0,2096.0,2006.0,2059.0,0
2050.0,2078.0,2000.0,2057.0,0
2080.0,2022.0,2005.0,2066.0,0
2076.0,1997.0,2010.0,2065.0,0
2068.0,1970.0,2013.0,2061.0,0
2064.0,1943.0,2016.0,2059.0,0
2064.0,1918.0,2020.0,2067.0,0
2061.0,1896.0,2024.0,2059.0,0
2058.0,1880.0,2027.0,2059.0,0
2059.0,1878.0,2028.0,2065.0,0
2054.0,1891.0,2031.0,2071.0,0
2046.0,1925.0,2036.0,2072.0,0
2040.0,1956.0,2041.0,2077.0,0
2039.0,1989.0,2037.0,2078.0,0
2034.0,2016.0,2033.0,2081.0,0
2034.0,2037.0,2036.0,2080.0,0
2043.0,2066.0,2026.0,2076.0,0
2042.0,2074.0,2030.0,2072.0,0
2032.0,2089.0,2035.0,2071.0,0
2034.0,2098.0,2036.0,2073.0,0
2034.0,2116.0,2043.0,2078.0,0
2029.0,2127.0,2049.0,2072.0,0
2028.0,2128.0,2052.0,2066.0,0
2024.0,2120.0,2058.0,2069.0,0
2021.0,2119.0,2062.0,2067.0,0
2020.0,2108.0,2064.0,2066.0,0
2023.0,2094.0,2069.0,2067.0,0
2022.0,2077.0,2068.0,2063.0,0
2030.0,2062.0,2066.0,2072.0,0
2033.0,2058.0,2062.0,2072.0,0
2037.0,2057.0,2057.0,2074.0,0
2038.0,2061.0,2051.0,2073.0,0
2058.0,2067.0,2039.0,2082.0,0
2055.0,2068.0,2044.0,2079.0,0
2052.0,2070.0,2034.0,2073.0,0
2044.0,2066.0,2037.0,2067.0,0
2041.0,2068.0,2035.0,2062.0,-12.0,55.0,
2045.0,2066.0,2032.0,2064.0,0
2042.0,2057.0,2030.0,2060.0,0
2046.0,2055.0,2028.0,2056.0,0
2041.0,2049.0,2023.0,2053.0,0
2037.0,2044.0,2021.0,2049.0,0
2033.0,2038.0,2024.0,2048.0,0
2028.0,2037.0,2025.0,2046.0,0
2025.0,2035.0,2028.0,2044.0,-12.0,55.0,
2016.0,2031.0,2029.0,2042.0,0
2024.0,2030.0,2035.0,2052.0,0
2029.0,2037.0,2040.0,2061.0,-12.0,55.0,
2039.0,2046.0,2044.0,2065.0,0
2044.0,2049.0,2040.0,2073.0,0
2041.0,2053.0,2042.0,2076.0,0
2039.0,2051.0,2037.0,2075.0,0
2038.0,2056.0,2041.0,2067.0,0
2036.0,2052.0,2049.0,2074.0,0
2032.0,2049.0,2051.0,2074.0,0
2030.0,2051.0,2051.0,2081.0,0
2029.0,2046.0,2048.0,2080.0,0
2026.0,2043.0,2050.0,2080.0,0
2030.0,2039.0,2052.0,2085.0,0
2034.0,2039.0,2040.0,2080.0,0
2035.0,2043.0,2038.0,2083.0,0
2040.0,2038.0,2035.0,2077.0,0
2077.0,2042.0,2038.0,2087.0,-11.0,55.0,
2071.0,2047.0,2034.0,2089.0,-11.0,54.0,
2069.0,2043.0,2035.0,2085.0,0
2067.0,2050.0,2030.0,2080.0,0
2058.0,2053.0,2033.0,2080.0,0
2057.0,2063.0,2030.0,2082.0,0
2048.0,2068.0,2031.0,2075.0,0
2046.0,2070.0,2036.0,2069.0,0
2044.0,2071.0,2036.0,2072.0,0
2043.0,2078.0,2044.0,2072.0,0
2038.0,2082.0,2037.0,2068.0,0
2040.0,2083.0,2040.0,2068.0,0
2041.0,2077.0,2034.0,2070.0,0
2033.0,2081.0,2032.0,2066.0,0
2046.0,2057.0,2038.0,2064.0,-11.0,54.0,
2049.0,2060.0,2036.0,2063.0,-11.0,54.0,
2050.0,2064.0,2037.0,2065.0,-11.0,54.0,
2051.0,2055.0,2037.0,2064.0,0
2058.0,2048.0,2043.0,2061.0,0
2051.0,2052.0,2041.0,2062.0,0
2064.0,2052.0,2042.0,2065.0,0
2058.0,2042.0,2040.0,2065.0,0
2058.0,2032.0,2038.0,2058.0,0
2053.0,2028.0,2034.0,2058.0,0
2053.0,2028.0,2046.0,2060.0,0
2054.0,2046.0,2044.0,2061.0,0
2054.0,2074.0,2047.0,2061.0,0
2053.0,2102.0,2044.0,2065.0,0
2058.0,2143.0,2045.0,2061.0,0
2069.0,2244.0,2051.0,2066.0,0
2066.0,2222.0,2048.0,2067.0,0
2063.0,2197.0,2049.0,2064.0,0
2060.0,2194.0,2054.0,2064.0,0
2057.0,2202.0,2048.0,2065.0,0
2054.0,2221.0,2054.0,2058.0,-11.0,54.0,
2047.0,2245.0,2054.0,2055.0,-11.0,53.0,
2048.0,2279.0,2053.0,2065.0,0
2043.0,2304.0,2048.0,2059.0,0
2035.0,2322.0,2053.0,2055.0,0
2034.0,2321.0,2052.0,2058.0,0
2049.0,2301.0,2045.0,2056.0,0
2051.0,2268.0,2046.0,2054.0,0
2052.0,2209.0,2041.0,2066.0,0
2051.0,2128.0,2037.0,2064.0,0
2047.0,1861.0,2017.0,2064.0,0
2037.0,1835.0,2011.0,2063.0,0
2026.0,1804.0,2006.0,2057.0,0
2019.0,1735.0,2002.0,2055.0,0
2016.0,1619.0,1998.0,2051.0,0
2011.0,1493.0,1994.0,2051.0,0
2014.0,1413.0,1999.0,2050.0,0
2019.0,1389.0,1999.0,2053.0,0
2026.0,1436.0,2002.0,2060.0,-10.0,53.0,
2037.0,1520.0,2014.0,2061.0,-10.0,53.0,
2043.0,1620.0,2017.0,2066.0,-10.0,53.0,
2044.0,1695.0,2024.0,2067.0,0
2045.0,1740.0,2028.0,2069.0,0
2035.0,1775.0,2025.0,2063.0,0
2029.0,1817.0,2025.0,2064.0,0
2025.0,2027.0,2018.0,2049.0,0
2020.0,2045.0,2027.0,2057.0,0
2023.0,2058.0,2031.0,2058.0,0
2025.0,2074.0,2038.0,2062.0,0
2027.0,2074.0,2044.0,2062.0,0
2031.0,2083.0,2043.0,2066.0,0
2036.0,2092.0,2049.0,2071.0,0
2038.0,2103.0,2047.0,2071.0,0
2034.0,2113.0,2041.0,2070.0,0
2038.0,2130.0,2045.0,2065.0,0
2035.0,2144.0,2041.0,2066.0,0
2039.0,2164.0,2045.0,2068.0,0
2040.0,2187.0,2046.0,2067.0,0
2047.0,2203.0,2042.0,2068.0,0
2046.0,2214.0,2045.0,2065.0,-10.0,52.0,
2060.0,2185.0,2045.0,2077.0,-10.0,52.0,
2053.0,2164.0,2046.0,2071.0,-10.0,52.0,
2051.0,2146.0,2040.0,2074.0,0
2047.0,2118.0,2038.0,2078.0,0
2050.0,2083.0,2038.0,2078.0,0
2053.0,2048.0,2043.0,2082.0,0
2054.0,2020.0,2041.0,2082.0,0
2059.0,2015.0,2039.0,2083.0,0
2054.0,2008.0,2046.0,2085.0,0
2053.0,2009.0,2045.0,2082.0,0
2044.0,1992.0,2046.0,2077.0,0
2034.0,1957.0,2044.0,2073.0,0
2034.0,1920.0,2040.0,2076.0,0
2029.0,1883.0,2036.0,2072.0,0
2027.0,1852.0,2036.0,2075.0,0
2035.0,1898.0,2029.0,2072.0,-9.0,51.0,
2034.0,1944.0,2025.0,2071.0,0
2036.0,1982.0,2026.0,2067.0,0
2032.0,2014.0,2030.0,2069.0,0
2039.0,2022.0,2023.0,2076.0,0
2038.0,2029.0,2021.0,2081.0,0
2039.0,2037.0,2022.0,2082.0,0
2045.0,2050.0,2024.0,2086.0,0
2049.0,2065.0,2024.0,2090.0,0
2049.0,2086.0,2030.0,2092.0,-9.0,51.0,
2054.0,2110.0,2027.0,2092.0,0
2050.0,2135.0,2030.0,2088.0,0
2047.0,2152.0,2035.0,2084.0,0
2046.0,2158.0,2033.0,2080.0,0
2054.0,2165.0,2029.0,2076.0,-9.0,51.0,
2053.0,2158.0,2030.0,2080.0,-9.0,51.0,
2054.0,2148.0,2030.0,2071.0,0
2049.0,2122.0,2029.0,2061.0,0
2042.0,2107.0,2029.0,2062.0,0
2043.0,2091.0,2030.0,2065.0,0
2049.0,2101.0,2032.0,2068.0,0
2052.0,2099.0,2033.0,2067.0,0
2045.0,2081.0,2022.0,2062.0,0
2043.0,2069.0,2033.0,2067.0,0
2044.0,2081.0,2035.0,2067.0,0
2042.0,2123.0,2043.0,2065.0,0
2048.0,2190.0,2048.0,2068.0,0
2047.0,2263.0,2052.0,2068.0,0
2049.0,2327.0,2054.0,2068.0,0
2061.0,2367.0,2052.0,2072.0,0
2064.0,2215.0,2042.0,2070.0,0
2055.0,2135.0,2043.0,2071.0,-9.0,50.0,
2045.0,2054.0,2042.0,2064.0,-9.0,50.0,
2041.0,1959.0,2045.0,2058.0,0
2030.0,1901.0,2047.0,2056.0,0
2027.0,1876.0,2046.0,2049.0,0
2027.0,1890.0,2046.0,2054.0,0
2027.0,1910.0,2046.0,2052.0,0
2023.0,1917.0,2048.0,2050.0,0
2025.0,1912.0,2044.0,2055.0,0
2024.0,1884.0,2045.0,2051.0,0
2023.0,1862.0,2046.0,2053.0,0
2020.0,1851.0,2044.0,2058.0,0
2026.0,1860.0,2040.0,2052.0,0
2041.0,1915.0,2034.0,2057.0,0
2039.0,1955.0,2042.0,2057.0,0
2036.0,1989.0,2045.0,2057.0,0
2033.0,2030.0,2047.0,2057.0,0
2038.0,2046.0,2045.0,2056.0,0
2037.0,2069.0,2052.0,2057.0,0
2038.0,2089.0,2052.0,2065.0,0
2046.0,2109.0,2055.0,2065.0,0
2046.0,2134.0,2049.0,2063.0,-8.0,50.0,
2038.0,2162.0,2050.0,2063.0,-8.0,49.0,
2042.0,2194.0,2044.0,2065.0,-8.0,49.0,
2044.0,2212.0,2045.0,2069.0,0
2047.0,2207.0,2039.0,2067.0,0
2043.0,2186.0,2040.0,2064.0,0
2042.0,2158.0,2036.0,2065.0,0
2038.0,2146.0,2030.0,2062.0,0
2048.0,2138.0,2031.0,2067.0,0
2043.0,2130.0,2035.0,2068.0,0
2043.0,2110.0,2032.0,2070.0,0
2043.0,2086.0,2030.0,2067.0,0
2040.0,2035.0,2037.0,2076.0,0
2041.0,2005.0,2032.0,2069.0,0
2041.0,1965.0,2029.0,2071.0,0
2043.0,1937.0,2030.0,2073.0,0
2041.0,1922.0,2029.0,2074.0,0
2045.0,1915.0,2027.0,2072.0,-8.0,49.0,
2047.0,1923.0,2024.0,2073.0,-8.0,48.0,
2036.0,1925.0,2019.0,2066.0,0
2038.0,1922.0,2029.0,2067.0,0
2036.0,1912.0,2037.0,2067.0,0
2052.0,1943.0,2048.0,2068.0,0
2047.0,1968.0,2031.0,2074.0,0
2048.0,1979.0,2046.0,2074.0,0
2045.0,1995.0,2040.0,2071.0,0
2041.0,2010.0,2035.0,2063.0,0
2034.0,2016.0,2028.0,2061.0,0
2036.0,2020.0,2026.0,2060.0,0
2030.0,2025.0,2027.0,2057.0,0
2030.0,2030.0,2029.0,2057.0,0
2033.0,2028.0,2028.0,2058.0,0
2032.0,2027.0,2033.0,2057.0,0
2032.0,2028.0,2032.0,2059.0,0
2033.0,2028.0,2033.0,2062.0,-8.0,48.0,
2032.0,2030.0,2029.0,2061.0,-8.0,48.0,
2034.0,2026.0,2035.0,2062.0,0
2038.0,2031.0,2040.0,2064.0,0
2056.0,2047.0,2044.0,2067.0,0
2046.0,2051.0,2040.0,2062.0,0
2042.0,2066.0,2040.0,2059.0,0
2040.0,2071.0,2036.0,2058.0,0
2039.0,2089.0,2037.0,2057.0,0
2034.0,2100.0,2032.0,2054.0,0
2039.0,2094.0,2035.0,2053.0,0
2037.0,2093.0,2037.0,2056.0,0
2041.0,2098.0,2030.0,2055.0,0
2047.0,2094.0,2035.0,2057.0,0
2053.0,2098.0,2037.0,2055.0,0
2057.0,2092.0,2042.0,2056.0,0
2060.0,2093.0,2031.0,2064.0,0
2052.0,2092.0,2029.0,2062.0,0
2070.0,2082.0,2026.0,2065.0,-8.0,47.0,
2061.0,2079.0,2028.0,2064.0,-7.0,47.0,
2064.0,2071.0,2029.0,2057.0,-7.0,46.0,
2055.0,2070.0,2030.0,2055.0,0
2053.0,2074.0,2032.0,2056.0,0
2056.0,2073.0,2036.0,2059.0,0
2056.0,2071.0,2034.0,2055.0,0
2054.0,2066.0,2035.0,2059.0,0
2056.0,2072.0,2037.0,2061.0,0
2051.0,2066.0,2031.0,2063.0,0
2052.0,2066.0,2030.0,2059.0,0
2048.0,2064.0,2033.0,2063.0,0
2045.0,2062.0,2031.0,2063.0,0
2046.0,2058.0,2037.0,2064.0,0
2044.0,2057.0,2033.0,2065.0,0
2052.0,2054.0,2030.0,2066.0,0
2047.0,2056.0,2033.0,2061.0,0
2039.0,2056.0,2032.0,2058.0,0
2042.0,2051.0,2019.0,2059.0,0
2039.0,2058.0,2031.0,2053.0,0
2036.0,2054.0,2031.0,2050.0,0
2037.0,2055.0,2025.0,2056.0,0
2040.0,2053.0,2030.0,2056.0,0
2044.0,2055.0,2025.0,2067.0,-7.0,46.0,
2046.0,2059.0,2030.0,2071.0,-7.0,46.0,
2047.0,2055.0,2028.0,2074.0,-7.0,45.0,
2049.0,2054.0,2022.0,2074.0,0
2048.0,2046.0,2028.0,2078.0,0
2043.0,2053.0,2025.0,2072.0,0
2047.0,2052.0,2027.0,2073.0,0
2040.0,2049.0,2031.0,2065.0,0
2032.0,2047.0,2030.0,2064.0,0
2030.0,2049.0,2030.0,2064.0,0
2028.0,2046.0,2031.0,2068.0,0
2031.0,2050.0,2032.0,2064.0,0
2029.0,2045.0,2035.0,2061.0,0
2026.0,2045.0,2035.0,2068.0,0
2033.0,2051.0,2036.0,2072.0,0
2033.0,2053.0,2035.0,2071.0,0
2030.0,2042.0,2033.0,2071.0,0
2029.0,2045.0,2035.0,2071.0,0
2027.0,2044.0,2037.0,2059.0,0
2027.0,2036.0,2033.0,2060.0,-7.0,45.0,
2024.0,2034.0,2032.0,2062.0,-7.0,45.0,
2020.0,2033.0,2038.0,2063.0,0
2049.0,2043.0,2043.0,2072.0,0
2057.0,2049.0,2045.0,2075.0,0
2057.0,2051.0,2038.0,2079.0,0
2057.0,2050.0,2039.0,2084.0,0
2061.0,2048.0,2035.0,2090.0,0
2073.0,2050.0,2033.0,2093.0,0
2068.0,2045.0,2032.0,2094.0,0
2071.0,2040.0,2031.0,2091.0,0
2066.0,2045.0,2034.0,2091.0,0
2059.0,2040.0,2034.0,2093.0,0
2050.0,2035.0,2033.0,2082.0,0
2049.0,2034.0,2035.0,2082.0,0
2043.0,2038.0,2035.0,2082.0,0
2041.0,2049.0,2043.0,2079.0,0
2044.0,2067.0,2041.0,2079.0,-6.0,44.0,
2052.0,2090.0,2059.0,2090.0,-6.0,44.0,
2050.0,2089.0,2059.0,2081.0,-6.0,43.0,
2049.0,2083.0,2063.0,2085.0,0
2046.0,2080.0,2064.0,2081.0,0
2047.0,2075.0,2058.0,2084.0,0
2050.0,2071.0,2061.0,2085.0,0
2049.0,2065.0,2053.0,2086.0,0
2048.0,2060.0,2051.0,2088.0,0
2048.0,2065.0,2047.0,2087.0,0
2046.0,2062.0,2050.0,2088.0,0
2049.0,2068.0,2052.0,2088.0,0
2049.0,2075.0,2056.0,2084.0,0
2046.0,2077.0,2045.0,2084.0,0
2042.0,2072.0,2059.0,2073.0,0
2041.0,2077.0,2061.0,2077.0,0
2057.0,2076.0,2044.0,2061.0,0
2047.0,2073.0,2040.0,2060.0,0
2046.0,2069.0,2036.0,2056.0,0
2041.0,2067.0,2031.0,2054.0,-6.0,43.0,
2046.0,2065.0,2033.0,2060.0,-6.0,42.0,
2045.0,2055.0,2028.0,2064.0,-6.0,42.0,
2041.0,2047.0,2025.0,2069.0,0
2044.0,2038.0,2022.0,2073.0,0
2041.0,2033.0,2020.0,2069.0,0
2042.0,2031.0,2021.0,2072.0,0
2040.0,2016.0,2018.0,2068.0,0
2032.0,2001.0,2017.0,2073.0,0
2031.0,1978.0,2012.0,2065.0,0
2030.0,1953.0,2014.0,2064.0,0
2055.0,1958.0,2015.0,2065.0,0
2058.0,1975.0,2016.0,2073.0,0
2045.0,1988.0,2019.0,2069.0,0
2053.0,2004.0,2019.0,2074.0,0
2051.0,2011.0,2022.0,2077.0,0
2051.0,2019.0,2017.0,2075.0,0
2050.0,2020.0,2023.0,2076.0,0
2054.0,2027.0,2028.0,2074.0,0
2054.0,2036.0,2028.0,2075.0,0
2044.0,2031.0,2035.0,2086.0,0
2044.0,2038.0,2038.0,2079.0,-6.0,42.0,
2050.0,2032.0,2049.0,2081.0,-6.0,41.0,
2052.0,2030.0,2053.0,2079.0,0
2055.0,2028.0,2058.0,2078.0,0
2050.0,2029.0,2059.0,2074.0,0
2050.0,2028.0,2064.0,2073.0,0
2047.0,2017.0,2056.0,2058.0,0
2038.0,2017.0,2045.0,2050.0,0
2030.0,2019.0,2050.0,2044.0,0
2032.0,2020.0,2054.0,2042.0,0
2037.0,2026.0,2056.0,2042.0,0
2035.0,2035.0,2058.0,2050.0,0
2038.0,2034.0,2063.0,2056.0,0
2043.0,2034.0,2059.0,2059.0,0
2046.0,2034.0,2061.0,2058.0,0
2038.0,2034.0,2059.0,2057.0,0
2047.0,2027.0,2058.0,2056.0,0
2046.0,2028.0,2054.0,2054.0,0
2044.0,2044.0,2055.0,2060.0,-5.0,41.0,
2052.0,2069.0,2049.0,2064.0,-5.0,40.0,
2053.0,2103.0,2040.0,2097.0,-5.0,40.0,
2048.0,2092.0,2036.0,2101.0,0
2052.0,2086.0,2028.0,2104.0,0
2048.0,2069.0,2026.0,2098.0,0
2051.0,2063.0,2023.0,2096.0,0
2056.0,2052.0,2023.0,2094.0,0
2049.0,2053.0,2020.0,2086.0,0
2058.0,2048.0,2016.0,2075.0,0
2054.0,2053.0,2017.0,2073.0,0
2058.0,2052.0,2019.0,2076.0,0
2050.0,2052.0,2018.0,2075.0,0
2046.0,2050.0,2017.0,2075.0,0
2043.0,2053.0,2024.0,2069.0,0
2047.0,2059.0,2027.0,2069.0,0
2040.0,2066.0,2028.0,2060.0,0
2042.0,2072.0,2036.0,2060.0,0
2051.0,2084.0,2044.0,2073.0,-5.0,39.0,
2048.0,2090.0,2039.0,2069.0,0
2043.0,2089.0,2043.0,2069.0,0
2039.0,2095.0,2046.0,2072.0,0
2040.0,2093.0,2055.0,2067.0,0
2035.0,2082.0,2061.0,2065.0,0
2031.0,2071.0,2066.0,2059.0,0
2030.0,2061.0,2070.0,2059.0,0
2022.0,2055.0,2067.0,2050.0,0
2018.0,2038.0,2077.0,2046.0,0
2026.0,2035.0,2069.0,2050.0,0
2026.0,2015.0,2057.0,2060.0,0
2027.0,1983.0,2063.0,2049.0,0
2026.0,1971.0,2052.0,2051.0,0
2031.0,2020.0,2045.0,2058.0,-5.0,39.0,
2035.0,2046.0,2040.0,2054.0,0
2041.0,2069.0,2039.0,2052.0,0
2049.0,2086.0,2037.0,2049.0,0
2055.0,2098.0,2036.0,2047.0,0
2060.0,2106.0,2039.0,2053.0,0
2070.0,2111.0,2037.0,2064.0,-5.0,38.0,
2068.0,2112.0,2030.0,2076.0,-4.0,38.0,
2070.0,2116.0,2035.0,2088.0,0
2069.0,2119.0,2046.0,2093.0,0
2066.0,2114.0,2037.0,2084.0,0
2064.0,2115.0,2033.0,2095.0,0
2057.0,2116.0,2040.0,2087.0,0
2061.0,2115.0,2036.0,2087.0,0
2059.0,2106.0,2036.0,2082.0,0
2061.0,2018.0,2042.0,2069.0,0
2061.0,1989.0,2034.0,2062.0,0
2052.0,1956.0,2028.0,2062.0,0
2050.0,1937.0,2029.0,2062.0,-4.0,37.0,
2047.0,1932.0,2023.0,2062.0,-4.0,37.0,
2043.0,1933.0,2016.0,2057.0,0
2043.0,1941.0,2017.0,2066.0,0
2045.0,1955.0,2017.0,2065.0,0
2043.0,1969.0,2015.0,2068.0,0
2042.0,1981.0,2020.0,2073.0,0
2049.0,1990.0,2027.0,2069.0,0
2043.0,2001.0,2031.0,2072.0,0
2045.0,2010.0,2038.0,2071.0,0
2037.0,2010.0,2037.0,2068.0,0
2038.0,2012.0,2040.0,2073.0,0
2042.0,2026.0,2041.0,2056.0,0
2033.0,2031.0,2042.0,2059.0,0
2034.0,2032.0,2043.0,2055.0,0
2035.0,2022.0,2041.0,2053.0,0
2037.0,2021.0,2044.0,2059.0,0
2038.0,2021.0,2050.0,2063.0,0
2040.0,2023.0,2052.0,2067.0,0
2050.0,2023.0,2052.0,2075.0,0
2045.0,2023.0,2055.0,2072.0,-4.0,37.0,
2043.0,2034.0,2055.0,2065.0,-4.0,36.0,
2041.0,2032.0,2055.0,2070.0,-3.0,35.0,
2041.0,2044.0,2051.0,2070.0,0
2039.0,2053.0,2044.0,2069.0,0
2034.0,2059.0,2036.0,2073.0,0
2035.0,2055.0,2029.0,2065.0,0
2028.0,1986.0,2021.0,2054.0,0
2025.0,1970.0,2019.0,2055.0,0
2026.0,1973.0,2025.0,2055.0,0
2026.0,1987.0,2026.0,2050.0,0
2029.0,2011.0,2028.0,2052.0,0
2028.0,2037.0,2027.0,2050.0,0
2024.0,2056.0,2030.0,2054.0,0
2017.0,2078.0,2020.0,2044.0,0
2013.0,2094.0,2027.0,2045.0,0
2011.0,2101.0,2020.0,2047.0,0
2020.0,2095.0,2023.0,2048.0,-3.0,35.0,
2022.0,2087.0,2018.0,2053.0,-3.0,34.0,
2031.0,2085.0,2021.0,2058.0,0
2032.0,2075.0,2025.0,2057.0,0
2032.0,2070.0,2023.0,2055.0,0
2045.0,2076.0,2033.0,2059.0,0
2043.0,2072.0,2034.0,2059.0,0
2049.0,2082.0,2039.0,2059.0,0
2054.0,2075.0,2040.0,2066.0,0
2058.0,2079.0,2038.0,2064.0,0
2059.0,2073.0,2035.0,2066.0,0
2060.0,2067.0,2040.0,2066.0,0
2062.0,2049.0,2040.0,2067.0,0
2065.0,2032.0,2036.0,2071.0,0
2063.0,2014.0,2041.0,2068.0,0
2058.0,2002.0,2043.0,2070.0,0
2055.0,2008.0,2043.0,2063.0,0
2049.0,2023.0,2039.0,2071.0,0
2044.0,2038.0,2040.0,2067.0,0
2048.0,2047.0,2038.0,2061.0,-3.0,34.0,
2059.0,2086.0,2036.0,2078.0,-2.0,33.0,
2061.0,2080.0,2034.0,2077.0,-2.0,33.0,
2055.0,2079.0,2039.0,2072.0,0
2060.0,2080.0,2033.0,2066.0,0
2055.0,2089.0,2032.0,2066.0,0
2054.0,2099.0,2032.0,2066.0,0
2049.0,2096.0,2023.0,2062.0,0
2047.0,2105.0,2022.0,2052.0,0
2046.0,2099.0,2022.0,2047.0,0
2046.0,2104.0,2016.0,2048.0,0
2041.0,2105.0,2018.0,2048.0,0
2046.0,2109.0,2020.0,2052.0,0
2044.0,2107.0,2016.0,2054.0,0
2042.0,2099.0,2015.0,2057.0,0
2042.0,2077.0,2020.0,2061.0,0
2052.0,2058.0,2027.0,2063.0,0
2049.0,2064.0,2030.0,2061.0,0
2040.0,2066.0,2030.0,2063.0,0
2042.0,2049.0,2027.0,2061.0,0
2038.0,2038.0,2028.0,2063.0,0
2044.0,2029.0,2031.0,2052.0,0
2031.0,2017.0,2034.0,2057.0,0
2035.0,2008.0,2033.0,2061.0,-2.0,32.0,
2039.0,1994.0,2030.0,2061.0,-2.0,31.0,
2032.0,1990.0,2041.0,2058.0,-1.0,31.0,
2033.0,1989.0,2047.0,2063.0,0
2033.0,1993.0,2050.0,2062.0,0
2039.0,1994.0,2049.0,2062.0,0
2037.0,1996.0,2051.0,2060.0,0
2043.0,2000.0,2050.0,2063.0,0
2056.0,2102.0,2055.0,2067.0,0
2051.0,2115.0,2050.0,2067.0,0
2051.0,2132.0,2055.0,2062.0,0
2045.0,2153.0,2060.0,2063.0,0
2043.0,2173.0,2061.0,2065.0,0
2044.0,2188.0,2069.0,2066.0,0
2043.0,2200.0,2073.0,2069.0,0
2042.0,2202.0,2083.0,2073.0,0
2044.0,2205.0,2079.0,2071.0,0
2045.0,2210.0,2075.0,2072.0,0
2049.0,2225.0,2065.0,2072.0,0
2048.0,2237.0,2068.0,2070.0,0
2048.0,2233.0,2052.0,2080.0,0
2053.0,2212.0,2052.0,2076.0,0
2054.0,2170.0,2048.0,2074.0,-1.0,30.0,
2051.0,2056.0,2028.0,2076.0,-1.0,30.0,
2047.0,2025.0,2025.0,2076.0,-1.0,29.0,
2043.0,1992.0,2014.0,2072.0,0
2042.0,1969.0,2024.0,2077.0,0
2034.0,1935.0,2012.0,2073.0,0
2030.0,1901.0,2014.0,2072.0,0
2025.0,1854.0,2010.0,2076.0,0
2022.0,1822.0,2011.0,2069.0,0
2025.0,1788.0,2008.0,2070.0,0
2024.0,1782.0,2001.0,2068.0,0
2023.0,1779.0,1997.0,2070.0,0
2022.0,1784.0,1995.0,2069.0,0
2026.0,1802.0,1995.0,2075.0,0
2026.0,1822.0,1994.0,2083.0,0
2025.0,1851.0,1990.0,2072.0,0
2046.0,1975.0,2004.0,2076.0,0
2038.0,1990.0,1997.0,2074.0,0
2032.0,2004.0,1999.0,2071.0,0
2030.0,2008.0,2005.0,2061.0,0
2031.0,2009.0,2012.0,2062.0,0
2025.0,1996.0,2014.0,2061.0,0
2027.0,1993.0,2018.0,2064.0,0.0,28.0,
2029.0,1983.0,2017.0,2061.0,0.0,28.0,
2026.0,1973.0,2022.0,2060.0,0
2017.0,1974.0,2024.0,2054.0,0
2017.0,1970.0,2026.0,2047.0,0
2011.0,1974.0,2026.0,2051.0,0
2017.0,1981.0,2031.0,2047.0,0
2028.0,1995.0,2034.0,2054.0,0
2059.0,2047.0,2048.0,2076.0,0
2061.0,2062.0,2061.0,2084.0,0
2057.0,2069.0,2068.0,2080.0,0
2052.0,2076.0,2071.0,2079.0,0
2059.0,2080.0,2067.0,2076.0,0.0,27.0,
2065.0,2084.0,2061.0,2077.0,0.0,26.0,
2068.0,2066.0,2051.0,2072.0,0.0,26.0,
2077.0,2035.0,2037.0,2074.0,0.0,25.0,
2075.0,2007.0,2026.0,2075.0,0
2071.0,1989.0,2028.0,2073.0,0
2070.0,1998.0,2028.0,2070.0,0
2066.0,2015.0,2029.0,2070.0,0
2060.0,2034.0,2036.0,2076.0,0
2055.0,2051.0,2037.0,2071.0,0
2051.0,2057.0,2040.0,2070.0,0
2046.0,2066.0,2045.0,2072.0,0
2047.0,2119.0,2086.0,2069.0,0
2050.0,2136.0,2096.0,2066.0,0
2044.0,2146.0,2103.0,2068.0,0
2042.0,2152.0,2104.0,2069.0,0
2044.0,2159.0,2093.0,2067.0,0
2048.0,2167.0,2098.0,2069.0,0
2048.0,2171.0,2089.0,2067.0,0
2041.0,2160.0,2087.0,2064.0,0
2042.0,2127.0,2079.0,2066.0,0
2042.0,2082.0,2081.0,2063.0,0
2035.0,2026.0,2069.0,2064.0,0
2027.0,1988.0,2062.0,2065.0,0
2032.0,1980.0,2051.0,2065.0,0
2033.0,1998.0,2051.0,2065.0,0
2042.0,2085.0,2059.0,2080.0,0
2042.0,2098.0,2067.0,2096.0,0
2026.0,2101.0,2072.0,2100.0,0
2031.0,2101.0,2071.0,2115.0,0
2039.0,2107.0,2067.0,2122.0,0.0,25.0,
2042.0,2110.0,2055.0,2133.0,0.0,24.0,
2040.0,2099.0,2051.0,2135.0,0.0,23.0,
2038.0,2080.0,2042.0,2141.0,0
2041.0,2031.0,2037.0,2130.0,0
2029.0,1978.0,2039.0,2124.0,0
2030.0,1937.0,2038.0,2120.0,0
2030.0,1919.0,2034.0,2114.0,0
2029.0,1924.0,2040.0,2114.0,0
2030.0,1956.0,2035.0,2102.0,0
2030.0,1987.0,2030.0,2094.0,0
2038.0,2012.0,2036.0,2089.0,0
2045.0,2039.0,2035.0,2056.0,0
2044.0,2036.0,2033.0,2053.0,0
2045.0,2040.0,2035.0,2042.0,0
2043.0,2026.0,2032.0,2039.0,0
2042.0,2032.0,2043.0,2032.0,0
2029.0,2025.0,2041.0,2024.0,0
2039.0,2034.0,2030.0,2015.0,0
2039.0,2036.0,2031.0,2019.0,0
2047.0,2035.0,2029.0,2025.0,0.0,22.0,
2047.0,2060.0,2024.0,2031.0,0.0,22.0,
2050.0,2072.0,2018.0,2033.0,0
2048.0,2089.0,2020.0,2040.0,0
2048.0,2101.0,2020.0,2043.0,0
2047.0,2112.0,2019.0,2047.0,0
2048.0,2119.0,2027.0,2059.0,0
2044.0,2125.0,2032.0,2061.0,0
2045.0,2133.0,2030.0,2062.0,0
2043.0,2126.0,2035.0,2060.0,0
2045.0,2127.0,2038.0,2063.0,0
2047.0,2113.0,2045.0,2055.0,0.0,21.0,
2046.0,2097.0,2049.0,2054.0,0
2049.0,2073.0,2042.0,2048.0,0
2056.0,2058.0,2041.0,2051.0,0
2055.0,2043.0,2039.0,2043.0,0
2059.0,2034.0,2035.0,2051.0,0
2060.0,2032.0,2029.0,2051.0,0
2057.0,2031.0,2023.0,2053.0,0
2055.0,2051.0,2023.0,2056.0,0
2050.0,2073.0,2025.0,2054.0,0
2039.0,2099.0,2022.0,2055.0,0
2040.0,2110.0,2045.0,2064.0,0.0,20.0,
2034.0,2093.0,2053.0,2065.0,0.0,20.0,
2032.0,2069.0,2055.0,2066.0,0
2031.0,2061.0,2062.0,2064.0,0
2033.0,2058.0,2061.0,2065.0,0
2033.0,2053.0,2061.0,2065.0,0
2032.0,2040.0,2053.0,2062.0,0
2034.0,2026.0,2043.0,2059.0,0
2046.0,2011.0,2032.0,2060.0,0
2038.0,2006.0,2023.0,2062.0,0
2036.0,2000.0,2021.0,2062.0,0
2035.0,1989.0,2023.0,2061.0,0
2032.0,1988.0,2024.0,2057.0,0
2033.0,1989.0,2023.0,2064.0,0
2043.0,2034.0,2038.0,2068.0,0
2044.0,2062.0,2038.0,2063.0,0
2047.0,2064.0,2040.0,2075.0,0
2053.0,2052.0,2033.0,2065.0,0
2056.0,2032.0,2031.0,2071.0,0
2067.0,2014.0,2023.0,2067.0,0
2062.0,2008.0,2028.0,2065.0,0
2056.0,2022.0,2025.0,2061.0,0
2053.0,2034.0,2020.0,2067.0,0.0,19.0,
2052.0,2039.0,2029.0,2071.0,0.0,18.0,
2047.0,2023.0,2027.0,2070.0,0.0,18.0,
2044.0,1996.0,2023.0,2069.0,0
2041.0,1959.0,2024.0,2065.0,0
2038.0,1946.0,2026.0,2061.0,0
2041.0,1943.0,2028.0,2063.0,0
2041.0,1949.0,2026.0,2062.0,0
2059.0,2037.0,2032.0,2071.0,0
2067.0,2049.0,2042.0,2069.0,0
2069.0,2054.0,2035.0,2067.0,0
2067.0,2048.0,2036.0,2065.0,0
2063.0,2049.0,2037.0,2069.0,0
2060.0,2048.0,2039.0,2071.0,0
2047.0,2052.0,2044.0,2070.0,0
2045.0,2053.0,2043.0,2071.0,0
2037.0,2053.0,2052.0,2070.0,0
2030.0,2044.0,2049.0,2068.0,0
2027.0,2046.0,2047.0,2064.0,0
2023.0,2039.0,2049.0,2061.0,0.0,17.0,
2032.0,2043.0,2041.0,2060.0,0.0,16.0,
2035.0,2042.0,2041.0,2061.0,0.0,15.0,
2055.0,2051.0,2030.0,2084.0,0
2064.0,2053.0,2021.0,2099.0,0
2062.0,2055.0,2017.0,2111.0,0
2064.0,2055.0,2013.0,2126.0,0
2066.0,2060.0,2009.0,2126.0,0
2070.0,2058.0,2012.0,2125.0,0
2072.0,2062.0,2020.0,2123.0,0
2070.0,2058.0,2025.0,2125.0,0
2066.0,2057.0,2026.0,2116.0,0
2062.0,2054.0,2029.0,2113.0,0
2057.0,2054.0,2029.0,2116.0,0
2060.0,2052.0,2031.0,2122.0,0
2055.0,2053.0,2028.0,2123.0,0
2051.0,2056.0,2031.0,2120.0,0
2051.0,2054.0,2027.0,2119.0,0
2049.0,2054.0,2028.0,2104.0,0
2053.0,2043.0,2022.0,2065.0,0
2047.0,2044.0,2030.0,2055.0,0.0,15.0,
2044.0,2044.0,2027.0,2042.0,0.0,14.0,
2041.0,2047.0,2031.0,2034.0,0.0,13.0,
2037.0,2038.0,2030.0,2029.0,0
2038.0,2039.0,2027.0,2029.0,0
2040.0,2046.0,2023.0,2032.0,0
2043.0,2042.0,2025.0,2028.0,0
2043.0,2045.0,2030.0,2035.0,0
2042.0,2051.0,2029.0,2037.0,0
2041.0,2054.0,2042.0,2037.0,0
2038.0,2050.0,2045.0,2031.0,0
2035.0,2058.0,2055.0,2030.0,0
2031.0,2053.0,2056.0,2027.0,0
2034.0,2056.0,2053.0,2010.0,0
2036.0,2055.0,2054.0,2012.0,0
2028.0,2056.0,2045.0,2008.0,0
2030.0,2057.0,2046.0,2018.0,0
2030.0,2062.0,2045.0,2025.0,0
2033.0,2068.0,2039.0,2029.0,0
2035.0,2075.0,2031.0,2043.0,0
2033.0,2082.0,2033.0,2048.0,0
2039.0,2089.0,2027.0,2057.0,0
2039.0,2105.0,2030.0,2073.0,0.0,13.0,
2044.0,2115.0,2030.0,2074.0,0.0,12.0,
2045.0,2127.0,2030.0,2069.0,0.0,11.0,
2044.0,2132.0,2033.0,2080.0,0.0,11.0,
2049.0,2133.0,2028.0,2068.0,0
2048.0,2134.0,2024.0,2059.0,0
2047.0,2136.0,2028.0,2050.0,0
2055.0,2148.0,2034.0,2044.0,0
2052.0,2149.0,2039.0,2043.0,0
2050.0,2143.0,2032.0,2048.0,0
2046.0,2130.0,2028.0,2046.0,0
2048.0,2106.0,2031.0,2043.0,0
2050.0,2098.0,2026.0,2051.0,0
2059.0,2095.0,2023.0,2059.0,0
2065.0,2093.0,2027.0,2065.0,0
2065.0,2092.0,2027.0,2065.0,0
2064.0,2069.0,2035.0,2069.0,0
2056.0,2045.0,2033.0,2068.0,0
2048.0,2016.0,2036.0,2066.0,0
2048.0,1997.0,2035.0,2070.0,0
2038.0,2004.0,2036.0,2062.0,0
2037.0,2090.0,2045.0,2060.0,0
2039.0,2118.0,2051.0,2062.0,0
2032.0,2141.0,2054.0,2062.0,0
2035.0,2150.0,2051.0,2067.0,0
2029.0,2150.0,2061.0,2068.0,0
2030.0,2138.0,2059.0,2069.0,0
2040.0,2122.0,2062.0,2066.0,0
2029.0,2107.0,2061.0,2066.0,0
2030.0,2096.0,2062.0,2063.0,0
2031.0,2081.0,2058.0,2063.0,0
2028.0,2060.0,2053.0,2067.0,0
2035.0,2026.0,2062.0,2073.0,0
2033.0,1989.0,2067.0,2075.0,0
2033.0,1943.0,2074.0,2078.0,0
2027.0,1902.0,2071.0,2081.0,0
2028.0,1861.0,2062.0,2078.0,0
2032.0,1767.0,2045.0,2134.0,0.0,10.0,
2030.0,1792.0,2047.0,2156.0,0
2030.0,1821.0,2045.0,2166.0,0
2031.0,1842.0,2045.0,2164.0,0.0,9.0,
2032.0,1867.0,2038.0,2164.0,0
2033.0,1896.0,2034.0,2162.0,0
2036.0,1928.0,2029.0,2157.0,0
