2053.0,2042.0,2072.0,2079.0,2047.0,2057.0,12.0,17.0,117.0,
2051.0,2041.0,2068.0,2075.0,2043.0,2058.0,0.0,0.0,0.0,
2052.0,2039.0,2065.0,2074.0,2043.0,2058.0,0.0,0.0,0.0,
2054.0,2042.0,2072.0,2075.0,2046.0,2060.0,0.0,0.0,0.0,
2034.0,2032.0,2050.0,2070.0,2029.0,2049.0,0.0,0.0,0.0,
2039.0,2036.0,2051.0,2068.0,2031.0,2050.0,0.0,0.0,0.0,
2038.0,2036.0,2059.0,2067.0,2037.0,2043.0,0.0,0.0,0.0,
2042.0,2037.0,2068.0,2067.0,2034.0,2042.0,0.0,0.0,0.0,
2041.0,2034.0,2067.0,2070.0,2031.0,2042.0,0.0,0.0,0.0,
2046.0,2037.0,2069.0,2072.0,2033.0,2043.0,0.0,0.0,0.0,
2043.0,2036.0,2059.0,2067.0,2032.0,2040.0,0.0,0.0,0.0,
2044.0,2036.0,2058.0,2065.0,2036.0,2046.0,0.0,0.0,0.0,
2046.0,2037.0,2064.0,2068.0,2038.0,2050.0,0.0,0.0,0.0,
2045.0,2038.0,2065.0,2066.0,2038.0,2043.0,0.0,0.0,0.0,
2042.0,2036.0,2061.0,2069.0,2039.0,2050.0,0.0,0.0,0.0,
2045.0,2036.0,2061.0,2067.0,2041.0,2057.0,0.0,0.0,0.0,
2044.0,2041.0,2067.0,2066.0,2042.0,2063.0,0.0,0.0,0.0,
2035.0,2036.0,2048.0,2069.0,2032.0,2064.0,0.0,0.0,0.0,
2042.0,2041.0,2066.0,2070.0,2037.0,2058.0,0.0,0.0,0.0,
2050.0,2051.0,2066.0,2070.0,2037.0,2062.0,0.0,0.0,0.0,
2053.0,2048.0,2072.0,2072.0,2044.0,2062.0,0.0,0.0,0.0,
2051.0,2051.0,2077.0,2082.0,2049.0,2068.0,0.0,0.0,0.0,
2061.0,2050.0,2088.0,2077.0,2050.0,2074.0,0.0,0.0,0.0,
2065.0,2051.0,2078.0,2083.0,2054.0,2073.0,0.0,0.0,0.0,
2063.0,2051.0,2090.0,2080.0,2051.0,2083.0,0.0,0.0,0.0,
2065.0,2057.0,2090.0,2083.0,2050.0,2081.0,0.0,0.0,0.0,
2065.0,2056.0,2088.0,2084.0,2053.0,2085.0,0.0,0.0,0.0,
2061.0,2057.0,2094.0,2082.0,2048.0,2083.0,0.0,0.0,0.0,
2064.0,2058.0,2087.0,2080.0,2047.0,2078.0,0.0,0.0,0.0,
2051.0,2051.0,2061.0,2080.0,2034.0,2083.0,0.0,0.0,0.0,
2055.0,2053.0,2074.0,2078.0,2043.0,2082.0,0.0,0.0,0.0,
2062.0,2055.0,2077.0,2079.0,2039.0,2085.0,0.0,0.0,0.0,
2060.0,2057.0,2080.0,2079.0,2043.0,2079.0,0.0,0.0,0.0,
2060.0,2054.0,2078.0,2074.0,2042.0,2076.0,0.0,0.0,0.0,
2061.0,2054.0,2076.0,2072.0,2042.0,2082.0,0.0,0.0,0.0,
2060.0,2051.0,2081.0,2074.0,2048.0,2077.0,0.0,0.0,0.0,
2059.0,2046.0,2083.0,2073.0,2047.0,2063.0,0.0,0.0,0.0,
2053.0,2059.0,2076.0,2075.0,2043.0,2066.0,0.0,0.0,0.0,
2055.0,2046.0,2069.0,2073.0,2048.0,2063.0,0.0,0.0,0.0,
2055.0,2046.0,2070.0,2075.0,2043.0,2069.0,0.0,0.0,0.0,
2047.0,2041.0,2063.0,2075.0,2041.0,2069.0,0.0,0.0,0.0,
2048.0,2041.0,2066.0,2072.0,2043.0,2062.0,0.0,0.0,0.0,
2033.0,2035.0,2038.0,2069.0,2025.0,2066.0,0.0,0.0,0.0,
2039.0,2032.0,2052.0,2069.0,2034.0,2058.0,0.0,0.0,0.0,
2043.0,2036.0,2060.0,2071.0,2034.0,2055.0,0.0,0.0,0.0,
2039.0,2038.0,2057.0,2068.0,2036.0,2051.0,0.0,0.0,0.0,
2041.0,2039.0,2059.0,2068.0,2033.0,2050.0,0.0,0.0,0.0,
2044.0,2034.0,2065.0,2069.0,2035.0,2051.0,0.0,0.0,0.0,
2046.0,2039.0,2060.0,2068.0,2035.0,2055.0,0.0,0.0,0.0,
2049.0,2039.0,2060.0,2071.0,2034.0,2055.0,0.0,0.0,0.0,
2049.0,2037.0,2067.0,2069.0,2032.0,2053.0,0.0,0.0,0.0,
2042.0,2034.0,2066.0,2068.0,2031.0,2053.0,0.0,0.0,0.0,
2047.0,2033.0,2064.0,2074.0,2035.0,2060.0,0.0,0.0,0.0,
2047.0,2037.0,2064.0,2071.0,2032.0,2060.0,0.0,0.0,0.0,
2041.0,2028.0,2046.0,2067.0,2026.0,2055.0,0.0,0.0,0.0,
2042.0,2034.0,2052.0,2069.0,2033.0,2062.0,0.0,0.0,0.0,
2048.0,2036.0,2063.0,2066.0,2039.0,2060.0,0.0,0.0,0.0,
2049.0,2042.0,2069.0,2070.0,2037.0,2063.0,0.0,0.0,0.0,
2050.0,2042.0,2077.0,2070.0,2038.0,2068.0,0.0,0.0,0.0,
2054.0,2044.0,2080.0,2071.0,2034.0,2070.0,0.0,0.0,0.0,
2057.0,2044.0,2076.0,2077.0,2042.0,2072.0,0.0,0.0,0.0,
2057.0,2042.0,2079.0,2075.0,2040.0,2076.0,0.0,0.0,0.0,
2055.0,2047.0,2082.0,2080.0,2042.0,2079.0,0.0,0.0,0.0,
2058.0,2049.0,2091.0,2077.0,2047.0,2078.0,0.0,0.0,0.0,
2057.0,2050.0,2091.0,2077.0,2043.0,2081.0,0.0,0.0,0.0,
2057.0,2048.0,2096.0,2078.0,2044.0,2083.0,0.0,0.0,0.0,
2061.0,2049.0,2098.0,2081.0,2047.0,2084.0,0.0,0.0,0.0,
2051.0,2046.0,2066.0,2082.0,2040.0,2082.0,0.0,0.0,0.0,
2055.0,2053.0,2079.0,2083.0,2048.0,2087.0,0.0,0.0,0.0,
2058.0,2053.0,2087.0,2080.0,2050.0,2084.0,0.0,0.0,0.0,
2060.0,2058.0,2087.0,2080.0,2050.0,2078.0,0.0,0.0,0.0,
2056.0,2057.0,2088.0,2080.0,2050.0,2072.0,0.0,0.0,0.0,
2058.0,2055.0,2077.0,2082.0,2052.0,2077.0,0.0,0.0,0.0,
2057.0,2053.0,2074.0,2080.0,2051.0,2077.0,0.0,0.0,0.0,
2057.0,2056.0,2080.0,2081.0,2049.0,2073.0,0.0,0.0,0.0,
2055.0,2055.0,2086.0,2080.0,2048.0,2081.0,0.0,0.0,0.0,
2058.0,2050.0,2091.0,2080.0,2047.0,2081.0,0.0,0.0,0.0,
2064.0,2051.0,2085.0,2081.0,2049.0,2076.0,0.0,0.0,0.0,
2061.0,2050.0,2081.0,2081.0,2046.0,2077.0,0.0,0.0,0.0,
2045.0,2039.0,2065.0,2073.0,2034.0,2071.0,0.0,0.0,0.0,
2049.0,2042.0,2070.0,2072.0,2039.0,2070.0,0.0,0.0,0.0,
2048.0,2042.0,2075.0,2071.0,2043.0,2067.0,0.0,0.0,0.0,
2053.0,2041.0,2074.0,2072.0,2042.0,2068.0,0.0,0.0,0.0,
2053.0,2050.0,2076.0,2069.0,2042.0,2063.0,0.0,0.0,0.0,
2050.0,2043.0,2078.0,2070.0,2043.0,2064.0,0.0,0.0,0.0,
2047.0,2039.0,2076.0,2072.0,2042.0,2058.0,0.0,0.0,0.0,
2042.0,2036.0,2069.0,2068.0,2041.0,2056.0,0.0,0.0,0.0,
2043.0,2039.0,2070.0,2066.0,2037.0,2058.0,0.0,0.0,0.0,
2041.0,2039.0,2067.0,2062.0,2032.0,2060.0,0.0,0.0,0.0,
2042.0,2036.0,2068.0,2061.0,2032.0,2051.0,0.0,0.0,0.0,
2039.0,2037.0,2067.0,2061.0,2034.0,2052.0,0.0,0.0,0.0,
2037.0,2040.0,2066.0,2064.0,2032.0,2050.0,0.0,0.0,0.0,
2024.0,2026.0,2046.0,2053.0,2023.0,2051.0,0.0,0.0,0.0,
2030.0,2033.0,2057.0,2056.0,2029.0,2054.0,0.0,0.0,0.0,
2034.0,2035.0,2071.0,2059.0,2037.0,2057.0,0.0,0.0,0.0,
2039.0,2042.0,2074.0,2057.0,2044.0,2057.0,0.0,0.0,0.0,
2038.0,2042.0,2077.0,2060.0,2045.0,2055.0,0.0,0.0,0.0,
2047.0,2043.0,2073.0,2052.0,2045.0,2064.0,0.0,0.0,0.0,
2047.0,2045.0,2077.0,2056.0,2043.0,2064.0,0.0,0.0,0.0,
2051.0,2047.0,2082.0,2061.0,2038.0,2063.0,0.0,0.0,0.0,
2052.0,2048.0,2085.0,2062.0,2039.0,2069.0,0.0,0.0,0.0,
2049.0,2048.0,2077.0,2062.0,2042.0,2067.0,0.0,0.0,0.0,
2049.0,2051.0,2087.0,2066.0,2042.0,2072.0,0.0,0.0,0.0,
2052.0,2053.0,2082.0,2067.0,2047.0,2072.0,0.0,0.0,0.0,
2044.0,2045.0,2070.0,2065.0,2037.0,2092.0,0.0,0.0,0.0,
2049.0,2034.0,2083.0,2067.0,2032.0,2079.0,0.0,0.0,0.0,
2056.0,2051.0,2089.0,2070.0,2047.0,2083.0,0.0,0.0,0.0,
2063.0,2059.0,2095.0,2072.0,2053.0,2080.0,0.0,0.0,0.0,
2063.0,2059.0,2098.0,2074.0,2054.0,2087.0,0.0,0.0,0.0,
2059.0,2059.0,2093.0,2072.0,2052.0,2081.0,0.0,0.0,0.0,
2064.0,2057.0,2100.0,2072.0,2051.0,2082.0,0.0,0.0,0.0,
2063.0,2055.0,2100.0,2070.0,2045.0,2082.0,0.0,0.0,0.0,
2062.0,2061.0,2101.0,2075.0,2053.0,2085.0,0.0,0.0,0.0,
2061.0,2062.0,2097.0,2078.0,2052.0,2086.0,0.0,0.0,0.0,
2060.0,2059.0,2101.0,2077.0,2051.0,2076.0,0.0,0.0,0.0,
2059.0,2054.0,2096.0,2078.0,2054.0,2079.0,0.0,0.0,0.0,
2058.0,2057.0,2097.0,2079.0,2053.0,2083.0,0.0,0.0,0.0,
2043.0,2041.0,2069.0,2074.0,2039.0,2073.0,0.0,0.0,0.0,
2048.0,2049.0,2077.0,2076.0,2040.0,2071.0,0.0,0.0,0.0,
2051.0,2050.0,2077.0,2071.0,2043.0,2070.0,0.0,0.0,0.0,
2050.0,2052.0,2079.0,2070.0,2046.0,2066.0,0.0,0.0,0.0,
2054.0,2042.0,2086.0,2070.0,2040.0,2065.0,0.0,0.0,0.0,
2054.0,2050.0,2081.0,2070.0,2045.0,2065.0,0.0,0.0,0.0,
2047.0,2048.0,2077.0,2066.0,2047.0,2061.0,0.0,0.0,0.0,
2047.0,2042.0,2082.0,2065.0,2042.0,2059.0,0.0,0.0,0.0,
2047.0,2045.0,2080.0,2066.0,2043.0,2057.0,0.0,0.0,0.0,
2043.0,2041.0,2071.0,2083.0,2043.0,2051.0,0.0,0.0,0.0,
2043.0,2036.0,2075.0,2065.0,2037.0,2044.0,0.0,0.0,0.0,
2040.0,2042.0,2068.0,2063.0,2035.0,2040.0,0.0,0.0,0.0,
2056.0,2028.0,2048.0,2057.0,2024.0,2050.0,0.0,0.0,0.0,
2039.0,2038.0,2064.0,2062.0,2028.0,2055.0,0.0,0.0,0.0,
2042.0,2037.0,2065.0,2062.0,2035.0,2050.0,0.0,0.0,0.0,
2045.0,2034.0,2076.0,2059.0,2033.0,2043.0,0.0,0.0,0.0,
2042.0,2041.0,2081.0,2061.0,2031.0,2050.0,0.0,0.0,0.0,
2040.0,2038.0,2076.0,2062.0,2033.0,2045.0,0.0,0.0,0.0,
2042.0,2041.0,2075.0,2064.0,2032.0,2046.0,0.0,0.0,0.0,
2042.0,2041.0,2075.0,2061.0,2034.0,2045.0,0.0,0.0,0.0,
2043.0,2038.0,2069.0,2065.0,2033.0,2042.0,0.0,0.0,0.0,
2045.0,2041.0,2070.0,2064.0,2034.0,2042.0,0.0,0.0,0.0,
2045.0,2038.0,2074.0,2065.0,2036.0,2040.0,0.0,0.0,0.0,
2045.0,2037.0,2075.0,2065.0,2034.0,2047.0,0.0,0.0,0.0,
2043.0,2039.0,2071.0,2067.0,2029.0,2049.0,0.0,0.0,0.0,
2036.0,2038.0,2049.0,2066.0,2019.0,2053.0,0.0,0.0,0.0,
2046.0,2043.0,2075.0,2071.0,2031.0,2058.0,0.0,0.0,0.0,
2053.0,2043.0,2076.0,2075.0,2025.0,2059.0,0.0,0.0,0.0,
2052.0,2044.0,2087.0,2074.0,2040.0,2064.0,0.0,0.0,0.0,
2055.0,2049.0,2079.0,2073.0,2047.0,2065.0,0.0,0.0,0.0,
2059.0,2049.0,2094.0,2073.0,2044.0,2069.0,0.0,0.0,0.0,
2063.0,2049.0,2089.0,2075.0,2049.0,2076.0,0.0,0.0,0.0,
2064.0,2049.0,2087.0,2077.0,2054.0,2078.0,0.0,0.0,0.0,
2064.0,2053.0,2093.0,2077.0,2054.0,2081.0,0.0,0.0,0.0,
2060.0,2048.0,2089.0,2075.0,2049.0,2080.0,0.0,0.0,0.0,
2061.0,2052.0,2087.0,2075.0,2052.0,2074.0,0.0,0.0,0.0,
2062.0,2053.0,2090.0,2081.0,2046.0,2073.0,0.0,0.0,0.0,
2044.0,2048.0,2069.0,2081.0,2034.0,2082.0,0.0,0.0,0.0,
2050.0,2049.0,2084.0,2080.0,2041.0,2078.0,0.0,0.0,0.0,
2052.0,2054.0,2090.0,2077.0,2046.0,2078.0,0.0,0.0,0.0,
2056.0,2049.0,2090.0,2077.0,2042.0,2079.0,0.0,0.0,0.0,
2054.0,2054.0,2089.0,2075.0,2041.0,2074.0,0.0,0.0,0.0,
2056.0,2058.0,2080.0,2076.0,2043.0,2073.0,0.0,0.0,0.0,
2052.0,2056.0,2085.0,2077.0,2038.0,2074.0,0.0,0.0,0.0,
2049.0,2050.0,2080.0,2074.0,2037.0,2065.0,0.0,0.0,0.0,
2050.0,2047.0,2080.0,2074.0,2043.0,2074.0,0.0,0.0,0.0,
2043.0,2048.0,2080.0,2073.0,2042.0,2075.0,0.0,0.0,0.0,
2044.0,2043.0,2075.0,2071.0,2038.0,2073.0,0.0,0.0,0.0,
2044.0,2044.0,2071.0,2073.0,2040.0,2068.0,0.0,0.0,0.0,
2030.0,2031.0,2041.0,2070.0,2026.0,2054.0,0.0,0.0,0.0,
2034.0,2039.0,2058.0,2067.0,2035.0,2051.0,0.0,0.0,0.0,
2042.0,2037.0,2060.0,2069.0,2033.0,2053.0,0.0,0.0,0.0,
2035.0,2040.0,2065.0,2067.0,2038.0,2051.0,0.0,0.0,0.0,
2039.0,2040.0,2059.0,2070.0,2034.0,2053.0,0.0,0.0,0.0,
2040.0,2043.0,2063.0,2071.0,2034.0,2053.0,0.0,0.0,0.0,
2041.0,2040.0,2068.0,2069.0,2034.0,2049.0,0.0,0.0,0.0,
2039.0,2041.0,2064.0,2067.0,2031.0,2048.0,0.0,0.0,0.0,
2043.0,2040.0,2047.0,2067.0,2032.0,2049.0,0.0,0.0,0.0,
2038.0,2054.0,2064.0,2067.0,2043.0,2042.0,0.0,0.0,0.0,
2034.0,2040.0,2057.0,2073.0,2031.0,2039.0,0.0,0.0,0.0,
2040.0,2038.0,2064.0,2064.0,2035.0,2041.0,0.0,0.0,0.0,
2030.0,2035.0,2051.0,2065.0,2024.0,2055.0,0.0,0.0,0.0,
2037.0,2039.0,2056.0,2067.0,2029.0,2052.0,0.0,0.0,0.0,
2039.0,2045.0,2069.0,2066.0,2037.0,2060.0,0.0,0.0,0.0,
2042.0,2042.0,2068.0,2071.0,2029.0,2060.0,0.0,0.0,0.0,
2049.0,2046.0,2072.0,2071.0,2032.0,2064.0,0.0,0.0,0.0,
2035.0,2048.0,2075.0,2082.0,2037.0,2061.0,0.0,0.0,0.0,
2050.0,2049.0,2088.0,2072.0,2039.0,2068.0,0.0,0.0,0.0,
2049.0,2047.0,2074.0,2057.0,2035.0,2064.0,0.0,0.0,0.0,
2047.0,2049.0,2080.0,2074.0,2036.0,2070.0,0.0,0.0,0.0,
2051.0,2048.0,2080.0,2074.0,2037.0,2067.0,0.0,0.0,0.0,
2051.0,2051.0,2081.0,2074.0,2041.0,2070.0,0.0,0.0,0.0,
2059.0,2054.0,2088.0,2073.0,2048.0,2077.0,0.0,0.0,0.0,
2058.0,2054.0,2090.0,2075.0,2050.0,2080.0,0.0,0.0,0.0,
2049.0,2048.0,2058.0,2079.0,2036.0,2081.0,0.0,0.0,0.0,
2054.0,2052.0,2071.0,2076.0,2043.0,2078.0,0.0,0.0,0.0,
2055.0,2059.0,2083.0,2075.0,2043.0,2085.0,0.0,0.0,0.0,
2056.0,2060.0,2085.0,2082.0,2040.0,2080.0,0.0,0.0,0.0,
2056.0,2060.0,2087.0,2077.0,2048.0,2083.0,0.0,0.0,0.0,
2058.0,2059.0,2085.0,2078.0,2044.0,2078.0,0.0,0.0,0.0,
2058.0,2056.0,2084.0,2076.0,2045.0,2081.0,0.0,0.0,0.0,
2055.0,2056.0,2083.0,2076.0,2039.0,2078.0,0.0,0.0,0.0,
2056.0,2058.0,2081.0,2078.0,2038.0,2083.0,0.0,0.0,0.0,
2053.0,2058.0,2088.0,2075.0,2041.0,2080.0,0.0,0.0,0.0,
2056.0,2055.0,2105.0,2075.0,2039.0,2082.0,0.0,0.0,0.0,
2053.0,2054.0,2074.0,2075.0,2035.0,2081.0,0.0,0.0,0.0,
2059.0,2051.0,2080.0,2078.0,2035.0,2080.0,0.0,0.0,0.0,
2042.0,2043.0,2051.0,2075.0,2019.0,2078.0,0.0,0.0,0.0,
2049.0,2044.0,2069.0,2078.0,2030.0,2079.0,0.0,0.0,0.0,
2046.0,2045.0,2064.0,2077.0,2035.0,2075.0,0.0,0.0,0.0,
2048.0,2050.0,2066.0,2076.0,2037.0,2070.0,0.0,0.0,0.0,
2046.0,2043.0,2070.0,2072.0,2036.0,2064.0,0.0,0.0,0.0,
2049.0,2043.0,2068.0,2070.0,2033.0,2065.0,0.0,0.0,0.0,
2048.0,2044.0,2066.0,2069.0,2035.0,2065.0,0.0,0.0,0.0,
2043.0,2040.0,2065.0,2068.0,2033.0,2052.0,0.0,0.0,0.0,
2043.0,2041.0,2064.0,2069.0,2032.0,2048.0,0.0,0.0,0.0,
2045.0,2040.0,2066.0,2067.0,2031.0,2055.0,0.0,0.0,0.0,
2043.0,2038.0,2063.0,2068.0,2030.0,2058.0,0.0,0.0,0.0,
2040.0,2039.0,2063.0,2069.0,2032.0,2057.0,0.0,0.0,0.0,
2046.0,2040.0,2065.0,2071.0,2028.0,2060.0,0.0,0.0,0.0,
2031.0,2031.0,2035.0,2065.0,2019.0,2050.0,0.0,0.0,0.0,
2037.0,2034.0,2047.0,2068.0,2030.0,2048.0,0.0,0.0,0.0,
2044.0,2036.0,2064.0,2069.0,2034.0,2052.0,0.0,0.0,0.0,
2044.0,2035.0,2069.0,2069.0,2030.0,2051.0,0.0,0.0,0.0,
2044.0,2041.0,2068.0,2073.0,2030.0,2050.0,0.0,0.0,0.0,
2049.0,2040.0,2070.0,2072.0,2029.0,2059.0,0.0,0.0,0.0,
2047.0,2040.0,2072.0,2073.0,2027.0,2058.0,0.0,0.0,0.0,
2046.0,2042.0,2071.0,2073.0,2029.0,2058.0,0.0,0.0,0.0,
2049.0,2048.0,2073.0,2071.0,2030.0,2062.0,0.0,0.0,0.0,
2049.0,2049.0,2077.0,2071.0,2033.0,2065.0,0.0,0.0,0.0,
2050.0,2048.0,2082.0,2072.0,2036.0,2066.0,0.0,0.0,0.0,
2050.0,2050.0,2082.0,2071.0,2033.0,2068.0,0.0,0.0,0.0,
2045.0,2042.0,2058.0,2072.0,2028.0,2077.0,0.0,0.0,0.0,
2054.0,2050.0,2081.0,2077.0,2034.0,2074.0,0.0,0.0,0.0,
2058.0,2053.0,2089.0,2077.0,2038.0,2075.0,0.0,0.0,0.0,
2060.0,2055.0,2092.0,2079.0,2043.0,2075.0,0.0,0.0,0.0,
2057.0,2056.0,2096.0,2078.0,2042.0,2072.0,0.0,0.0,0.0,
2060.0,2055.0,2094.0,2079.0,2047.0,2071.0,0.0,0.0,0.0,
2056.0,2053.0,2095.0,2079.0,2045.0,2074.0,0.0,0.0,0.0,
2059.0,2055.0,2096.0,2077.0,2044.0,2071.0,0.0,0.0,0.0,
2054.0,2053.0,2093.0,2077.0,2046.0,2067.0,0.0,0.0,0.0,
2055.0,2052.0,2094.0,2080.0,2044.0,2070.0,0.0,0.0,0.0,
2057.0,2050.0,2088.0,2080.0,2044.0,2077.0,0.0,0.0,0.0,
2057.0,2057.0,2093.0,2079.0,2051.0,2087.0,0.0,0.0,0.0,
2057.0,2052.0,2091.0,2084.0,2052.0,2086.0,0.0,0.0,0.0,
2041.0,2041.0,2060.0,2078.0,2037.0,2073.0,0.0,0.0,0.0,
2049.0,2048.0,2072.0,2077.0,2047.0,2085.0,0.0,0.0,0.0,
2053.0,2052.0,2077.0,2079.0,2050.0,2083.0,0.0,0.0,0.0,
2052.0,2053.0,2078.0,2076.0,2052.0,2076.0,0.0,0.0,0.0,
2049.0,2047.0,2074.0,2072.0,2054.0,2077.0,0.0,0.0,0.0,
2048.0,2046.0,2070.0,2074.0,2053.0,2068.0,0.0,0.0,0.0,
2049.0,2045.0,2068.0,2074.0,2051.0,2062.0,0.0,0.0,0.0,
2047.0,2045.0,2062.0,2073.0,2050.0,2059.0,0.0,0.0,0.0,
2044.0,2040.0,2066.0,2074.0,2048.0,2062.0,0.0,0.0,0.0,
2046.0,2039.0,2071.0,2070.0,2048.0,2054.0,0.0,0.0,0.0,
2046.0,2039.0,2074.0,2077.0,2051.0,2060.0,0.0,0.0,0.0,
2042.0,2037.0,2071.0,2071.0,2055.0,2055.0,0.0,0.0,0.0,
2031.0,2033.0,2047.0,2064.0,2033.0,2051.0,0.0,0.0,0.0,
2040.0,2036.0,2046.0,2063.0,2037.0,2046.0,0.0,0.0,0.0,
2039.0,2038.0,2057.0,2066.0,2037.0,2053.0,0.0,0.0,0.0,
2033.0,2038.0,2057.0,2066.0,2040.0,2055.0,0.0,0.0,0.0,
2046.0,2038.0,2058.0,2063.0,2040.0,2052.0,0.0,0.0,0.0,
2044.0,2042.0,2066.0,2070.0,2039.0,2060.0,0.0,0.0,0.0,
2045.0,2042.0,2065.0,2062.0,2043.0,2060.0,0.0,0.0,0.0,
2051.0,2046.0,2077.0,2064.0,2046.0,2061.0,0.0,0.0,0.0,
2052.0,2044.0,2074.0,2066.0,2046.0,2063.0,0.0,0.0,0.0,
2051.0,2045.0,2069.0,2066.0,2045.0,2067.0,0.0,0.0,0.0,
2053.0,2044.0,2073.0,2065.0,2049.0,2066.0,0.0,0.0,0.0,
2051.0,2045.0,2072.0,2064.0,2051.0,2062.0,0.0,0.0,0.0,
2051.0,2045.0,2070.0,2068.0,2055.0,2063.0,0.0,0.0,0.0,
2043.0,2041.0,2051.0,2068.0,2044.0,2073.0,0.0,0.0,0.0,
2052.0,2046.0,2069.0,2072.0,2053.0,2072.0,0.0,0.0,0.0,
2054.0,2047.0,2077.0,2072.0,2053.0,2069.0,0.0,0.0,0.0,
2061.0,2048.0,2080.0,2073.0,2054.0,2070.0,0.0,0.0,0.0,
2058.0,2052.0,2083.0,2076.0,2056.0,2084.0,0.0,0.0,0.0,
2057.0,2052.0,2087.0,2073.0,2056.0,2076.0,0.0,0.0,0.0,
2061.0,2056.0,2072.0,2071.0,2052.0,2066.0,0.0,0.0,0.0,
2057.0,2056.0,2088.0,2076.0,2051.0,2072.0,0.0,0.0,0.0,
2059.0,2062.0,2089.0,2076.0,2055.0,2073.0,0.0,0.0,0.0,
2060.0,2054.0,2091.0,2075.0,2054.0,2073.0,0.0,0.0,0.0,
2058.0,2054.0,2082.0,2077.0,2055.0,2069.0,0.0,0.0,0.0,
2061.0,2056.0,2082.0,2079.0,2055.0,2066.0,0.0,0.0,0.0,
2051.0,2052.0,2064.0,2078.0,2041.0,2080.0,0.0,0.0,0.0,
2055.0,2056.0,2074.0,2075.0,2048.0,2080.0,0.0,0.0,0.0,
2060.0,2059.0,2079.0,2073.0,2050.0,2083.0,0.0,0.0,0.0,
2061.0,2062.0,2087.0,2074.0,2050.0,2081.0,0.0,0.0,0.0,
2062.0,2057.0,2086.0,2075.0,2052.0,2084.0,0.0,0.0,0.0,
2064.0,2059.0,2085.0,2080.0,2051.0,2086.0,0.0,0.0,0.0,
2064.0,2059.0,2085.0,2080.0,2051.0,2086.0,0.0,0.0,0.0,
2067.0,2057.0,2086.0,2073.0,2050.0,2083.0,0.0,0.0,0.0,
2062.0,2056.0,2089.0,2075.0,2048.0,2088.0,0.0,0.0,0.0,
2055.0,2055.0,2081.0,2072.0,2044.0,2080.0,0.0,0.0,0.0,
2055.0,2051.0,2075.0,2074.0,2046.0,2071.0,0.0,0.0,0.0,
2051.0,2055.0,2072.0,2068.0,2044.0,2072.0,0.0,0.0,0.0,
2053.0,2048.0,2073.0,2069.0,2041.0,2064.0,0.0,0.0,0.0,
2051.0,2046.0,2067.0,2068.0,2039.0,2067.0,0.0,0.0,0.0,
2031.0,2027.0,2040.0,2062.0,2020.0,2052.0,0.0,0.0,0.0,
2041.0,2035.0,2049.0,2062.0,2029.0,2050.0,0.0,0.0,0.0,
2040.0,2039.0,2060.0,2065.0,2033.0,2057.0,0.0,0.0,0.0,
2043.0,2035.0,2062.0,2063.0,2036.0,2054.0,0.0,0.0,0.0,
2042.0,2039.0,2092.0,2063.0,2040.0,2058.0,0.0,0.0,0.0,
2040.0,2035.0,2057.0,2064.0,2038.0,2059.0,0.0,0.0,0.0,
2042.0,2041.0,2060.0,2063.0,2037.0,2059.0,0.0,0.0,0.0,
2038.0,2040.0,2064.0,2064.0,2034.0,2056.0,0.0,0.0,0.0,
2044.0,2037.0,2055.0,2064.0,2036.0,2054.0,0.0,0.0,0.0,
2041.0,2040.0,2061.0,2059.0,2036.0,2051.0,0.0,0.0,0.0,
2041.0,2039.0,2060.0,2062.0,2034.0,2053.0,0.0,0.0,0.0,
2048.0,2040.0,2060.0,2062.0,2034.0,2056.0,0.0,0.0,0.0,
2033.0,2034.0,2048.0,2067.0,2027.0,2051.0,0.0,0.0,0.0,
2037.0,2037.0,2056.0,2066.0,2035.0,2053.0,0.0,0.0,0.0,
2044.0,2041.0,2062.0,2067.0,2036.0,2059.0,0.0,0.0,0.0,
2051.0,2046.0,2073.0,2073.0,2040.0,2063.0,0.0,0.0,0.0,
2057.0,2045.0,2072.0,2068.0,2038.0,2064.0,0.0,0.0,0.0,
2054.0,2046.0,2079.0,2071.0,2040.0,2069.0,0.0,0.0,0.0,
2050.0,2047.0,2072.0,2071.0,2039.0,2075.0,0.0,0.0,0.0,
2050.0,2055.0,2068.0,2076.0,2046.0,2075.0,0.0,0.0,0.0,
2049.0,2049.0,2075.0,2073.0,2043.0,2078.0,0.0,0.0,0.0,
2053.0,2049.0,2073.0,2076.0,2043.0,2075.0,0.0,0.0,0.0,
2053.0,2050.0,2067.0,2075.0,2047.0,2075.0,0.0,0.0,0.0,
2056.0,2053.0,2076.0,2078.0,2047.0,2084.0,0.0,0.0,0.0,
2062.0,2054.0,2079.0,2079.0,2043.0,2088.0,0.0,0.0,0.0,
2041.0,2048.0,2061.0,2076.0,2027.0,2083.0,0.0,0.0,0.0,
2052.0,2049.0,2065.0,2083.0,2033.0,2085.0,0.0,0.0,0.0,
2057.0,2053.0,2076.0,2084.0,2040.0,2089.0,0.0,0.0,0.0,
2064.0,2057.0,2090.0,2088.0,2040.0,2094.0,0.0,0.0,0.0,
2059.0,2057.0,2084.0,2089.0,2045.0,2093.0,0.0,0.0,0.0,
2064.0,2059.0,2086.0,2088.0,2048.0,2091.0,0.0,0.0,0.0,
2060.0,2053.0,2086.0,2087.0,2048.0,2088.0,0.0,0.0,0.0,
2059.0,2057.0,2083.0,2084.0,2045.0,2080.0,0.0,0.0,0.0,
2053.0,2057.0,2077.0,2085.0,2044.0,2081.0,0.0,0.0,0.0,
2057.0,2052.0,2084.0,2086.0,2041.0,2076.0,0.0,0.0,0.0,
2058.0,2051.0,2083.0,2082.0,2045.0,2074.0,0.0,0.0,0.0,
2055.0,2050.0,2076.0,2080.0,2042.0,2069.0,0.0,0.0,0.0,
2039.0,2047.0,2052.0,2078.0,2036.0,2072.0,0.0,0.0,0.0,
2042.0,2041.0,2067.0,2079.0,2036.0,2068.0,0.0,0.0,0.0,
2050.0,2042.0,2066.0,2076.0,2036.0,2069.0,0.0,0.0,0.0,
2052.0,2043.0,2071.0,2075.0,2043.0,2065.0,0.0,0.0,0.0,
2048.0,2040.0,2072.0,2075.0,2042.0,2065.0,0.0,0.0,0.0,
2053.0,2041.0,2072.0,2074.0,2041.0,2062.0,0.0,0.0,0.0,
2053.0,2040.0,2067.0,2073.0,2035.0,2062.0,0.0,0.0,0.0,
2043.0,2041.0,2069.0,2071.0,2030.0,2055.0,0.0,0.0,0.0,
2041.0,2040.0,2067.0,2069.0,2045.0,2054.0,0.0,0.0,0.0,
2040.0,2038.0,2069.0,2070.0,2033.0,2053.0,0.0,0.0,0.0,
2047.0,2039.0,2069.0,2069.0,2032.0,2057.0,0.0,0.0,0.0,
2046.0,2039.0,2069.0,2066.0,2034.0,2055.0,0.0,0.0,0.0,
2043.0,2036.0,2061.0,2067.0,2029.0,2043.0,0.0,0.0,0.0,
2032.0,2023.0,2040.0,2061.0,2018.0,2053.0,0.0,0.0,0.0,
2042.0,2036.0,2052.0,2065.0,2029.0,2055.0,0.0,0.0,0.0,
2042.0,2037.0,2062.0,2065.0,2035.0,2059.0,0.0,0.0,0.0,
2043.0,2036.0,2065.0,2065.0,2036.0,2057.0,0.0,0.0,0.0,
2045.0,2038.0,2071.0,2064.0,2037.0,2057.0,0.0,0.0,0.0,
2050.0,2037.0,2075.0,2066.0,2041.0,2053.0,0.0,0.0,0.0,
2050.0,2039.0,2076.0,2067.0,2043.0,2059.0,0.0,0.0,0.0,
2053.0,2046.0,2075.0,2068.0,2048.0,2060.0,0.0,0.0,0.0,
2057.0,2043.0,2080.0,2068.0,2049.0,2070.0,0.0,0.0,0.0,
2056.0,2041.0,2083.0,2072.0,2039.0,2070.0,0.0,0.0,0.0,
2057.0,2043.0,2089.0,2078.0,2047.0,2071.0,0.0,0.0,0.0,
2060.0,2044.0,2088.0,2077.0,2046.0,2074.0,0.0,0.0,0.0,
2052.0,2042.0,2078.0,2079.0,2036.0,2072.0,0.0,0.0,0.0,
2057.0,2044.0,2083.0,2080.0,2043.0,2074.0,0.0,0.0,0.0,
2062.0,2056.0,2089.0,2081.0,2054.0,2082.0,0.0,0.0,0.0,
2065.0,2047.0,2087.0,2079.0,2051.0,2082.0,0.0,0.0,0.0,
2063.0,2049.0,2097.0,2082.0,2053.0,2083.0,0.0,0.0,0.0,
2065.0,2050.0,2094.0,2083.0,2054.0,2083.0,0.0,0.0,0.0,
2064.0,2050.0,2090.0,2083.0,2053.0,2089.0,0.0,0.0,0.0,
2064.0,2049.0,2095.0,2083.0,2051.0,2089.0,0.0,0.0,0.0,
2065.0,2052.0,2092.0,2086.0,2049.0,2095.0,0.0,0.0,0.0,
2064.0,2051.0,2090.0,2087.0,2050.0,2090.0,0.0,0.0,0.0,
2062.0,2049.0,2088.0,2080.0,2051.0,2082.0,0.0,0.0,0.0,
2059.0,2054.0,2091.0,2083.0,2050.0,2083.0,0.0,0.0,0.0,
2058.0,2051.0,2082.0,2087.0,2050.0,2083.0,0.0,0.0,0.0,
2043.0,2041.0,2059.0,2084.0,2035.0,2075.0,0.0,0.0,0.0,
2049.0,2042.0,2096.0,2080.0,2044.0,2080.0,0.0,0.0,0.0,
2052.0,2047.0,2075.0,2081.0,2047.0,2074.0,0.0,0.0,0.0,
2052.0,2045.0,2079.0,2083.0,2045.0,2072.0,0.0,0.0,0.0,
2050.0,2045.0,2083.0,2078.0,2048.0,2067.0,0.0,0.0,0.0,
2049.0,2044.0,2074.0,2079.0,2045.0,2063.0,0.0,0.0,0.0,
2042.0,2042.0,2073.0,2076.0,2045.0,2064.0,0.0,0.0,0.0,
2033.0,2044.0,2072.0,2073.0,2042.0,2067.0,0.0,0.0,0.0,
2048.0,2043.0,2071.0,2073.0,2044.0,2063.0,0.0,0.0,0.0,
2044.0,2041.0,2069.0,2072.0,2036.0,2063.0,0.0,0.0,0.0,
2043.0,2037.0,2065.0,2069.0,2034.0,2065.0,0.0,0.0,0.0,
2041.0,2040.0,2060.0,2069.0,2035.0,2059.0,0.0,0.0,0.0,
2026.0,2031.0,2036.0,2063.0,2020.0,2061.0,0.0,0.0,0.0,
2031.0,2033.0,2049.0,2066.0,2023.0,2051.0,0.0,0.0,0.0,
2035.0,2036.0,2058.0,2063.0,2026.0,2061.0,0.0,0.0,0.0,
2035.0,2036.0,2063.0,2060.0,2029.0,2059.0,0.0,0.0,0.0,
2041.0,2035.0,2064.0,2061.0,2032.0,2057.0,0.0,0.0,0.0,
2045.0,2034.0,2063.0,2060.0,2032.0,2058.0,0.0,0.0,0.0,
2043.0,2040.0,2065.0,2063.0,2032.0,2065.0,0.0,0.0,0.0,
2041.0,2038.0,2065.0,2061.0,2027.0,2064.0,0.0,0.0,0.0,
2038.0,2037.0,2063.0,2063.0,2032.0,2060.0,0.0,0.0,0.0,
2039.0,2041.0,2064.0,2061.0,2029.0,2063.0,0.0,0.0,0.0,
2041.0,2043.0,2063.0,2063.0,2033.0,2060.0,0.0,0.0,0.0,
2039.0,2042.0,2068.0,2061.0,2023.0,2066.0,0.0,0.0,0.0,
2033.0,2036.0,2063.0,2066.0,2024.0,2077.0,0.0,0.0,0.0,
2042.0,2044.0,2071.0,2064.0,2034.0,2086.0,0.0,0.0,0.0,
2048.0,2043.0,2083.0,2068.0,2040.0,2083.0,0.0,0.0,0.0,
2053.0,2053.0,2082.0,2067.0,2039.0,2090.0,0.0,0.0,0.0,
2050.0,2051.0,2087.0,2073.0,2041.0,2085.0,0.0,0.0,0.0,
2053.0,2054.0,2082.0,2062.0,2042.0,2081.0,0.0,0.0,0.0,
2056.0,2052.0,2085.0,2073.0,2043.0,2082.0,0.0,0.0,0.0,
2056.0,2054.0,2084.0,2073.0,2043.0,2082.0,0.0,0.0,0.0,
2056.0,2056.0,2088.0,2076.0,2044.0,2087.0,0.0,0.0,0.0,
2053.0,2055.0,2083.0,2073.0,2045.0,2079.0,0.0,0.0,0.0,
2056.0,2053.0,2075.0,2075.0,2044.0,2084.0,0.0,0.0,0.0,
2056.0,2056.0,2090.0,2078.0,2045.0,2090.0,0.0,0.0,0.0,
2043.0,2048.0,2071.0,2076.0,2029.0,2098.0,0.0,0.0,0.0,
2052.0,2051.0,2074.0,2077.0,2038.0,2090.0,0.0,0.0,0.0,
2055.0,2052.0,2084.0,2077.0,2038.0,2089.0,0.0,0.0,0.0,
2056.0,2046.0,2085.0,2077.0,2042.0,2086.0,0.0,0.0,0.0,
2058.0,2051.0,2090.0,2078.0,2043.0,2090.0,0.0,0.0,0.0,
2055.0,2052.0,2085.0,2076.0,2043.0,2089.0,0.0,0.0,0.0,
2057.0,2050.0,2081.0,2078.0,2043.0,2093.0,0.0,0.0,0.0,
2059.0,2053.0,2074.0,2074.0,2045.0,2085.0,0.0,0.0,0.0,
2054.0,2049.0,2076.0,2073.0,2041.0,2082.0,0.0,0.0,0.0,
2054.0,2047.0,2070.0,2073.0,2041.0,2087.0,0.0,0.0,0.0,
2053.0,2047.0,2077.0,2072.0,2041.0,2073.0,0.0,0.0,0.0,
2051.0,2041.0,2067.0,2072.0,2039.0,2071.0,0.0,0.0,0.0,
2047.0,2041.0,2070.0,2070.0,2037.0,2071.0,0.0,0.0,0.0,
2034.0,2031.0,2042.0,2064.0,2022.0,2060.0,0.0,0.0,0.0,
2037.0,2036.0,2051.0,2058.0,2024.0,2060.0,0.0,0.0,0.0,
2038.0,2038.0,2059.0,2062.0,2029.0,2061.0,0.0,0.0,0.0,
2041.0,2040.0,2062.0,2063.0,2031.0,2059.0,0.0,0.0,0.0,
2046.0,2040.0,2059.0,2064.0,2032.0,2058.0,0.0,0.0,0.0,
2047.0,2039.0,2063.0,2062.0,2035.0,2055.0,0.0,0.0,0.0,
2042.0,2041.0,2063.0,2057.0,2030.0,2051.0,0.0,0.0,0.0,
2041.0,2040.0,2059.0,2057.0,2033.0,2052.0,0.0,0.0,0.0,
2043.0,2039.0,2063.0,2056.0,2033.0,2055.0,0.0,0.0,0.0,
2045.0,2038.0,2062.0,2061.0,2035.0,2053.0,0.0,0.0,0.0,
2043.0,2039.0,2058.0,2058.0,2034.0,2053.0,0.0,0.0,0.0,
2043.0,2042.0,2058.0,2055.0,2035.0,2049.0,0.0,0.0,0.0,
2035.0,2035.0,2044.0,2059.0,2024.0,2052.0,0.0,0.0,0.0,
2043.0,2038.0,2053.0,2059.0,2033.0,2053.0,0.0,0.0,0.0,
2049.0,2045.0,2067.0,2057.0,2035.0,2058.0,0.0,0.0,0.0,
2059.0,2048.0,2069.0,2061.0,2040.0,2060.0,0.0,0.0,0.0,
2056.0,2037.0,2069.0,2062.0,2037.0,2066.0,0.0,0.0,0.0,
2057.0,2050.0,2074.0,2065.0,2042.0,2067.0,0.0,0.0,0.0,
2057.0,2054.0,2062.0,2065.0,2041.0,2062.0,0.0,0.0,0.0,
2059.0,2051.0,2079.0,2065.0,2041.0,2075.0,0.0,0.0,0.0,
2057.0,2052.0,2070.0,2067.0,2042.0,2060.0,0.0,0.0,0.0,
2060.0,2058.0,2084.0,2068.0,2042.0,2063.0,0.0,0.0,0.0,
2063.0,2055.0,2083.0,2073.0,2042.0,2062.0,0.0,0.0,0.0,
2064.0,2055.0,2080.0,2070.0,2043.0,2071.0,0.0,0.0,0.0,
2063.0,2053.0,2087.0,2072.0,2043.0,2068.0,0.0,0.0,0.0,
2050.0,2049.0,2064.0,2071.0,2031.0,2085.0,0.0,0.0,0.0,
2057.0,2054.0,2080.0,2075.0,2035.0,2086.0,0.0,0.0,0.0,
2061.0,2058.0,2092.0,2073.0,2043.0,2088.0,0.0,0.0,0.0,
2060.0,2057.0,2093.0,2073.0,2045.0,2091.0,0.0,0.0,0.0,
2065.0,2059.0,2092.0,2074.0,2046.0,2084.0,0.0,0.0,0.0,
2061.0,2057.0,2095.0,2074.0,2044.0,2086.0,0.0,0.0,0.0,
2062.0,2055.0,2091.0,2075.0,2040.0,2088.0,0.0,0.0,0.0,
2060.0,2058.0,2082.0,2077.0,2040.0,2080.0,0.0,0.0,0.0,
2057.0,2055.0,2078.0,2078.0,2040.0,2081.0,0.0,0.0,0.0,
2060.0,2054.0,2088.0,2078.0,2042.0,2084.0,0.0,0.0,0.0,
2060.0,2054.0,2084.0,2078.0,2039.0,2081.0,0.0,0.0,0.0,
2059.0,2055.0,2083.0,2079.0,2041.0,2079.0,0.0,0.0,0.0,
2045.0,2042.0,2057.0,2074.0,2023.0,2078.0,0.0,0.0,0.0,
2037.0,2041.0,2064.0,2085.0,2026.0,2075.0,0.0,0.0,0.0,
2049.0,2044.0,2059.0,2072.0,2029.0,2067.0,0.0,0.0,0.0,
2051.0,2046.0,2066.0,2070.0,2033.0,2074.0,0.0,0.0,0.0,
2050.0,2048.0,2071.0,2070.0,2035.0,2070.0,0.0,0.0,0.0,
2050.0,2041.0,2069.0,2070.0,2038.0,2064.0,0.0,0.0,0.0,
2049.0,2041.0,2071.0,2067.0,2038.0,2068.0,0.0,0.0,0.0,
2048.0,2038.0,2064.0,2064.0,2037.0,2060.0,0.0,0.0,0.0,
2050.0,2039.0,2058.0,2067.0,2032.0,2059.0,0.0,0.0,0.0,
2051.0,2039.0,2040.0,2063.0,2033.0,2060.0,0.0,0.0,0.0,
2047.0,2038.0,2053.0,2060.0,2031.0,2060.0,0.0,0.0,0.0,
2045.0,2037.0,2055.0,2060.0,2033.0,2050.0,0.0,0.0,0.0,
2045.0,2037.0,2056.0,2067.0,2029.0,2053.0,0.0,0.0,0.0,
2037.0,2032.0,2036.0,2064.0,2014.0,2051.0,0.0,0.0,0.0,
2042.0,2034.0,2048.0,2062.0,2022.0,2052.0,0.0,0.0,0.0,
2042.0,2039.0,2064.0,2062.0,2022.0,2051.0,0.0,0.0,0.0,
2046.0,2040.0,2059.0,2063.0,2027.0,2054.0,0.0,0.0,0.0,
2050.0,2040.0,2064.0,2066.0,2029.0,2047.0,0.0,0.0,0.0,
2050.0,2046.0,2065.0,2067.0,2031.0,2053.0,0.0,0.0,0.0,
2052.0,2038.0,2065.0,2066.0,2033.0,2057.0,0.0,0.0,0.0,
2047.0,2047.0,2074.0,2075.0,2038.0,2057.0,0.0,0.0,0.0,
2055.0,2044.0,2075.0,2069.0,2036.0,2060.0,0.0,0.0,0.0,
2051.0,2046.0,2074.0,2067.0,2035.0,2069.0,0.0,0.0,0.0,
2053.0,2052.0,2077.0,2070.0,2039.0,2067.0,0.0,0.0,0.0,
2056.0,2047.0,2075.0,2072.0,2038.0,2062.0,0.0,0.0,0.0,
2049.0,2044.0,2067.0,2071.0,2030.0,2071.0,0.0,0.0,0.0,
2058.0,2049.0,2079.0,2075.0,2040.0,2074.0,0.0,0.0,0.0,
2060.0,2053.0,2085.0,2078.0,2041.0,2076.0,0.0,0.0,0.0,
2061.0,2053.0,2092.0,2074.0,2042.0,2076.0,0.0,0.0,0.0,
2060.0,2054.0,2095.0,2075.0,2046.0,2079.0,0.0,0.0,0.0,
2060.0,2056.0,2093.0,2076.0,2043.0,2077.0,0.0,0.0,0.0,
2066.0,2056.0,2088.0,2080.0,2044.0,2083.0,0.0,0.0,0.0,
2060.0,2053.0,2082.0,2077.0,2045.0,2076.0,0.0,0.0,0.0,
2060.0,2053.0,2081.0,2082.0,2047.0,2075.0,0.0,0.0,0.0,
2065.0,2055.0,2082.0,2082.0,2047.0,2081.0,0.0,0.0,0.0,
2057.0,2057.0,2092.0,2084.0,2048.0,2082.0,0.0,0.0,0.0,
2058.0,2053.0,2082.0,2081.0,2048.0,2083.0,0.0,0.0,0.0,
2063.0,2056.0,2089.0,2081.0,2050.0,2084.0,0.0,0.0,0.0,
2048.0,2046.0,2060.0,2077.0,2027.0,2081.0,0.0,0.0,0.0,
2052.0,2045.0,2081.0,2077.0,2034.0,2082.0,0.0,0.0,0.0,
2056.0,2049.0,2073.0,2078.0,2038.0,2080.0,0.0,0.0,0.0,
2056.0,2050.0,2078.0,2076.0,2037.0,2072.0,0.0,0.0,0.0,
2057.0,2049.0,2073.0,2079.0,2037.0,2072.0,0.0,0.0,0.0,
2058.0,2045.0,2067.0,2074.0,2037.0,2060.0,0.0,0.0,0.0,
2057.0,2049.0,2074.0,2075.0,2041.0,2066.0,0.0,0.0,0.0,
2054.0,2045.0,2071.0,2072.0,2042.0,2067.0,0.0,0.0,0.0,
2052.0,2050.0,2063.0,2071.0,2034.0,2058.0,0.0,0.0,0.0,
2045.0,2045.0,2061.0,2068.0,2032.0,2053.0,0.0,0.0,0.0,
2044.0,2044.0,2063.0,2066.0,2035.0,2057.0,0.0,0.0,0.0,
2048.0,2043.0,2065.0,2068.0,2038.0,2055.0,0.0,0.0,0.0,
2034.0,2030.0,2041.0,2067.0,2020.0,2049.0,0.0,0.0,0.0,
2041.0,2036.0,2048.0,2065.0,2026.0,2044.0,0.0,0.0,0.0,
2042.0,2035.0,2055.0,2063.0,2029.0,2046.0,0.0,0.0,0.0,
2045.0,2040.0,2058.0,2067.0,2031.0,2046.0,0.0,0.0,0.0,
2044.0,2036.0,2062.0,2063.0,2034.0,2043.0,0.0,0.0,0.0,
2043.0,2036.0,2063.0,2062.0,2034.0,2045.0,0.0,0.0,0.0,
2044.0,2037.0,2061.0,2060.0,2035.0,2046.0,0.0,0.0,0.0,
2046.0,2032.0,2064.0,2064.0,2040.0,2045.0,0.0,0.0,0.0,
2044.0,2040.0,2070.0,2063.0,2040.0,2036.0,0.0,0.0,0.0,
2044.0,2041.0,2064.0,2064.0,2037.0,2041.0,0.0,0.0,0.0,
2043.0,2037.0,2064.0,2065.0,2034.0,2048.0,0.0,0.0,0.0,
2049.0,2042.0,2068.0,2068.0,2038.0,2045.0,0.0,0.0,0.0,
2047.0,2041.0,2067.0,2067.0,2039.0,2049.0,0.0,0.0,0.0,
2038.0,2035.0,2055.0,2070.0,2026.0,2057.0,0.0,0.0,0.0,
2043.0,2039.0,2065.0,2074.0,2036.0,2059.0,0.0,0.0,0.0,
2048.0,2049.0,2077.0,2074.0,2041.0,2056.0,0.0,0.0,0.0,
2049.0,2053.0,2078.0,2076.0,2041.0,2064.0,0.0,0.0,0.0,
2052.0,2051.0,2080.0,2078.0,2044.0,2068.0,0.0,0.0,0.0,
2051.0,2049.0,2090.0,2080.0,2047.0,2068.0,0.0,0.0,0.0,
2057.0,2052.0,2091.0,2079.0,2047.0,2061.0,0.0,0.0,0.0,
2056.0,2052.0,2092.0,2080.0,2046.0,2067.0,0.0,0.0,0.0,
2057.0,2052.0,2090.0,2083.0,2051.0,2070.0,0.0,0.0,0.0,
2055.0,2059.0,2087.0,2081.0,2044.0,2064.0,0.0,0.0,0.0,
2059.0,2055.0,2084.0,2084.0,2042.0,2072.0,0.0,0.0,0.0,
2054.0,2055.0,2087.0,2100.0,2045.0,2069.0,0.0,0.0,0.0,
2048.0,2050.0,2067.0,2084.0,2035.0,2075.0,0.0,0.0,0.0,
2051.0,2052.0,2080.0,2082.0,2041.0,2068.0,0.0,0.0,0.0,
2057.0,2054.0,2086.0,2089.0,2046.0,2070.0,0.0,0.0,0.0,
2060.0,2053.0,2091.0,2087.0,2049.0,2070.0,0.0,0.0,0.0,
2055.0,2055.0,2088.0,2079.0,2049.0,2069.0,0.0,0.0,0.0,
2057.0,2054.0,2085.0,2083.0,2049.0,2071.0,0.0,0.0,0.0,
2057.0,2054.0,2082.0,2082.0,2050.0,2070.0,0.0,0.0,0.0,
2053.0,2051.0,2078.0,2076.0,2046.0,2064.0,0.0,0.0,0.0,
2051.0,2052.0,2075.0,2076.0,2045.0,2057.0,0.0,0.0,0.0,
2054.0,2049.0,2079.0,2088.0,2045.0,2056.0,0.0,0.0,0.0,
2052.0,2047.0,2080.0,2077.0,2039.0,2057.0,0.0,0.0,0.0,
2049.0,2044.0,2072.0,2077.0,2044.0,2054.0,0.0,0.0,0.0,
2050.0,2045.0,2066.0,2075.0,2042.0,2053.0,0.0,0.0,0.0,
2034.0,2026.0,2047.0,2069.0,2024.0,2053.0,0.0,0.0,0.0,
2039.0,2038.0,2053.0,2069.0,2035.0,2056.0,0.0,0.0,0.0,
2042.0,2036.0,2061.0,2068.0,2037.0,2048.0,0.0,0.0,0.0,
2042.0,2038.0,2066.0,2070.0,2041.0,2043.0,0.0,0.0,0.0,
2045.0,2034.0,2071.0,2067.0,2034.0,2041.0,0.0,0.0,0.0,
2040.0,2042.0,2067.0,2065.0,2037.0,2038.0,0.0,0.0,0.0,
2043.0,2039.0,2068.0,2066.0,2038.0,2050.0,0.0,0.0,0.0,
2038.0,2043.0,2062.0,2062.0,2036.0,2051.0,0.0,0.0,0.0,
2045.0,2036.0,2072.0,2050.0,2035.0,2046.0,0.0,0.0,0.0,
2047.0,2038.0,2062.0,2066.0,2035.0,2041.0,0.0,0.0,0.0,
2042.0,2041.0,2042.0,2060.0,2036.0,2045.0,0.0,0.0,0.0,
2046.0,2035.0,2069.0,2058.0,2035.0,2045.0,0.0,0.0,0.0,
2037.0,2040.0,2048.0,2056.0,2023.0,2053.0,0.0,0.0,0.0,
2042.0,2039.0,2062.0,2057.0,2027.0,2057.0,0.0,0.0,0.0,
2053.0,2042.0,2070.0,2061.0,2030.0,2056.0,0.0,0.0,0.0,
2053.0,2046.0,2076.0,2063.0,2035.0,2058.0,0.0,0.0,0.0,
2054.0,2048.0,2076.0,2065.0,2037.0,2065.0,0.0,0.0,0.0,
2056.0,2048.0,2077.0,2063.0,2036.0,2065.0,0.0,0.0,0.0,
2055.0,2050.0,2084.0,2066.0,2037.0,2070.0,0.0,0.0,0.0,
2055.0,2049.0,2079.0,2071.0,2038.0,2076.0,0.0,0.0,0.0,
2055.0,2054.0,2089.0,2072.0,2040.0,2083.0,0.0,0.0,0.0,
2054.0,2051.0,2093.0,2073.0,2040.0,2081.0,0.0,0.0,0.0,
2059.0,2052.0,2090.0,2076.0,2036.0,2074.0,0.0,0.0,0.0,
2059.0,2050.0,2089.0,2074.0,2035.0,2077.0,0.0,0.0,0.0,
2060.0,2055.0,2088.0,2078.0,2036.0,2082.0,0.0,0.0,0.0,
2051.0,2043.0,2067.0,2075.0,2029.0,2083.0,0.0,0.0,0.0,
2051.0,2047.0,2080.0,2075.0,2034.0,2084.0,0.0,0.0,0.0,
2060.0,2053.0,2082.0,2075.0,2040.0,2079.0,0.0,0.0,0.0,
2062.0,2054.0,2086.0,2076.0,2042.0,2083.0,0.0,0.0,0.0,
2064.0,2053.0,2092.0,2078.0,2040.0,2082.0,0.0,0.0,0.0,
2065.0,2053.0,2095.0,2077.0,2045.0,2087.0,0.0,0.0,0.0,
2061.0,2054.0,2094.0,2081.0,2042.0,2079.0,0.0,0.0,0.0,
2058.0,2052.0,2095.0,2074.0,2039.0,2081.0,0.0,0.0,0.0,
2066.0,2055.0,2097.0,2078.0,2043.0,2080.0,0.0,0.0,0.0,
2060.0,2052.0,2090.0,2082.0,2039.0,2087.0,0.0,0.0,0.0,
2057.0,2051.0,2090.0,2079.0,2043.0,2078.0,0.0,0.0,0.0,
2055.0,2049.0,2089.0,2078.0,2046.0,2074.0,0.0,0.0,0.0,
2041.0,2039.0,2061.0,2078.0,2030.0,2074.0,0.0,0.0,0.0,
2047.0,2043.0,2077.0,2074.0,2038.0,2073.0,0.0,0.0,0.0,
2053.0,2037.0,2074.0,2073.0,2037.0,2072.0,0.0,0.0,0.0,
2051.0,2046.0,2070.0,2077.0,2036.0,2067.0,0.0,0.0,0.0,
2029.0,2042.0,2072.0,2066.0,2039.0,2060.0,0.0,0.0,0.0,
2047.0,2042.0,2070.0,2072.0,2034.0,2064.0,0.0,0.0,0.0,
2049.0,2044.0,2072.0,2068.0,2034.0,2064.0,0.0,0.0,0.0,
2045.0,2041.0,2070.0,2068.0,2036.0,2057.0,0.0,0.0,0.0,
2042.0,2036.0,2064.0,2070.0,2030.0,2055.0,0.0,0.0,0.0,
2040.0,2035.0,2061.0,2063.0,2032.0,2051.0,0.0,0.0,0.0,
2044.0,2040.0,2056.0,2067.0,2032.0,2055.0,0.0,0.0,0.0,
2043.0,2038.0,2063.0,2080.0,2032.0,2054.0,0.0,0.0,0.0,
2044.0,2036.0,2066.0,2061.0,2033.0,2050.0,0.0,0.0,0.0,
2032.0,2030.0,2040.0,2061.0,2015.0,2050.0,0.0,0.0,0.0,
2036.0,2033.0,2056.0,2064.0,2027.0,2054.0,0.0,0.0,0.0,
2040.0,2037.0,2065.0,2062.0,2030.0,2055.0,0.0,0.0,0.0,
2044.0,2038.0,2061.0,2064.0,2032.0,2054.0,0.0,0.0,0.0,
2047.0,2040.0,2049.0,2066.0,2034.0,2049.0,0.0,0.0,0.0,
2043.0,2042.0,2067.0,2063.0,2038.0,2050.0,0.0,0.0,0.0,
2045.0,2044.0,2070.0,2066.0,2037.0,2057.0,0.0,0.0,0.0,
2047.0,2042.0,2074.0,2069.0,2036.0,2063.0,0.0,0.0,0.0,
2048.0,2045.0,2071.0,2069.0,2035.0,2063.0,0.0,0.0,0.0,
2048.0,2044.0,2077.0,2072.0,2037.0,2068.0,0.0,0.0,0.0,
2050.0,2048.0,2081.0,2081.0,2040.0,2064.0,0.0,0.0,0.0,
2052.0,2046.0,2087.0,2076.0,2041.0,2066.0,0.0,0.0,0.0,
2042.0,2044.0,2070.0,2074.0,2028.0,2075.0,0.0,0.0,0.0,
2049.0,2050.0,2074.0,2075.0,2039.0,2082.0,0.0,0.0,0.0,
2054.0,2049.0,2073.0,2077.0,2039.0,2084.0,0.0,0.0,0.0,
2057.0,2057.0,2083.0,2080.0,2040.0,2088.0,0.0,0.0,0.0,
2052.0,2055.0,2087.0,2074.0,2041.0,2094.0,0.0,0.0,0.0,
2055.0,2058.0,2089.0,2079.0,2041.0,2092.0,0.0,0.0,0.0,
2057.0,2054.0,2088.0,2079.0,2044.0,2094.0,0.0,0.0,0.0,
2062.0,2054.0,2090.0,2078.0,2048.0,2087.0,0.0,0.0,0.0,
2061.0,2053.0,2087.0,2080.0,2044.0,2095.0,0.0,0.0,0.0,
2060.0,2053.0,2083.0,2077.0,2043.0,2088.0,0.0,0.0,0.0,
2060.0,2054.0,2086.0,2080.0,2042.0,2096.0,0.0,0.0,0.0,
2064.0,2055.0,2082.0,2084.0,2046.0,2093.0,0.0,0.0,0.0,
2058.0,2052.0,2087.0,2080.0,2044.0,2094.0,0.0,0.0,0.0,
2038.0,2048.0,2054.0,2077.0,2027.0,2085.0,0.0,0.0,0.0,
2050.0,2047.0,2062.0,2075.0,2035.0,2087.0,0.0,0.0,0.0,
2054.0,2048.0,2066.0,2076.0,2035.0,2075.0,0.0,0.0,0.0,
2053.0,2048.0,2068.0,2074.0,2038.0,2073.0,0.0,0.0,0.0,
2056.0,2047.0,2074.0,2074.0,2034.0,2070.0,0.0,0.0,0.0,
2051.0,2043.0,2071.0,2074.0,2036.0,2065.0,0.0,0.0,0.0,
2049.0,2040.0,2070.0,2072.0,2036.0,2066.0,0.0,0.0,0.0,
2049.0,2041.0,2069.0,2072.0,2034.0,2067.0,0.0,0.0,0.0,
2064.0,2043.0,2066.0,2051.0,2034.0,2069.0,0.0,0.0,0.0,
2047.0,2041.0,2064.0,2067.0,2032.0,2063.0,0.0,0.0,0.0,
2050.0,2041.0,2054.0,2068.0,2037.0,2064.0,0.0,0.0,0.0,
2049.0,2042.0,2056.0,2066.0,2030.0,2059.0,0.0,0.0,0.0,
2032.0,2027.0,2037.0,2066.0,2026.0,2054.0,0.0,0.0,0.0,
2044.0,2035.0,2048.0,2063.0,2032.0,2054.0,0.0,0.0,0.0,
2046.0,2040.0,2058.0,2063.0,2031.0,2052.0,0.0,0.0,0.0,
2043.0,2040.0,2058.0,2062.0,2026.0,2057.0,0.0,0.0,0.0,
2044.0,2036.0,2055.0,2059.0,2032.0,2053.0,0.0,0.0,0.0,
2048.0,2057.0,2060.0,2060.0,2026.0,2051.0,0.0,0.0,0.0,
2049.0,2041.0,2063.0,2066.0,2029.0,2056.0,0.0,0.0,0.0,
2044.0,2043.0,2060.0,2061.0,2026.0,2053.0,0.0,0.0,0.0,
2044.0,2045.0,2059.0,2065.0,2028.0,2066.0,0.0,0.0,0.0,
2049.0,2043.0,2059.0,2062.0,2032.0,2053.0,0.0,0.0,0.0,
2050.0,2043.0,2065.0,2062.0,2033.0,2057.0,0.0,0.0,0.0,
2047.0,2044.0,2066.0,2060.0,2034.0,2059.0,0.0,0.0,0.0,
2048.0,2048.0,2066.0,2062.0,2034.0,2059.0,0.0,0.0,0.0,
2043.0,2038.0,2053.0,2066.0,2027.0,2064.0,0.0,0.0,0.0,
2051.0,2046.0,2071.0,2070.0,2034.0,2074.0,0.0,0.0,0.0,
2054.0,2046.0,2082.0,2065.0,2038.0,2072.0,0.0,0.0,0.0,
2057.0,2045.0,2088.0,2069.0,2042.0,2073.0,0.0,0.0,0.0,
2058.0,2049.0,2091.0,2071.0,2048.0,2074.0,0.0,0.0,0.0,
2061.0,2051.0,2094.0,2072.0,2050.0,2083.0,0.0,0.0,0.0,
2065.0,2052.0,2091.0,2072.0,2047.0,2086.0,0.0,0.0,0.0,
2069.0,2052.0,2094.0,2074.0,2053.0,2082.0,0.0,0.0,0.0,
2066.0,2054.0,2094.0,2076.0,2053.0,2085.0,0.0,0.0,0.0,
2065.0,2052.0,2093.0,2075.0,2045.0,2090.0,0.0,0.0,0.0,
2072.0,2056.0,2092.0,2076.0,2043.0,2091.0,0.0,0.0,0.0,
2067.0,2055.0,2093.0,2080.0,2046.0,2089.0,0.0,0.0,0.0,
2051.0,2048.0,2076.0,2074.0,2033.0,2094.0,0.0,0.0,0.0,
2060.0,2049.0,2080.0,2076.0,2038.0,2089.0,0.0,0.0,0.0,
2058.0,2052.0,2087.0,2075.0,2043.0,2089.0,0.0,0.0,0.0,
2062.0,2053.0,2094.0,2076.0,2045.0,2085.0,0.0,0.0,0.0,
2062.0,2053.0,2091.0,2073.0,2045.0,2083.0,0.0,0.0,0.0,
2060.0,2051.0,2092.0,2075.0,2041.0,2082.0,0.0,0.0,0.0,
2062.0,2051.0,2084.0,2076.0,2043.0,2081.0,0.0,0.0,0.0,
2059.0,2045.0,2086.0,2077.0,2048.0,2076.0,0.0,0.0,0.0,
2057.0,2050.0,2082.0,2067.0,2042.0,2071.0,0.0,0.0,0.0,
2051.0,2047.0,2082.0,2071.0,2043.0,2069.0,0.0,0.0,0.0,
2055.0,2042.0,2074.0,2071.0,2041.0,2073.0,0.0,0.0,0.0,
2056.0,2041.0,2066.0,2067.0,2041.0,2064.0,0.0,0.0,0.0,
2052.0,2043.0,2075.0,2072.0,2041.0,2066.0,0.0,0.0,0.0,
2036.0,2031.0,2047.0,2060.0,2025.0,2065.0,0.0,0.0,0.0,
2046.0,2035.0,2052.0,2063.0,2035.0,2065.0,0.0,0.0,0.0,
2045.0,2036.0,2065.0,2064.0,2036.0,2060.0,0.0,0.0,0.0,
2046.0,2036.0,2068.0,2066.0,2037.0,2062.0,0.0,0.0,0.0,
2047.0,2039.0,2066.0,2059.0,2037.0,2053.0,0.0,0.0,0.0,
2045.0,2035.0,2070.0,2061.0,2035.0,2060.0,0.0,0.0,0.0,
2049.0,2037.0,2071.0,2060.0,2033.0,2057.0,0.0,0.0,0.0,
2046.0,2034.0,2066.0,2059.0,2034.0,2059.0,0.0,0.0,0.0,
2046.0,2036.0,2066.0,2060.0,2034.0,2064.0,0.0,0.0,0.0,
2048.0,2037.0,2063.0,2062.0,2040.0,2061.0,0.0,0.0,0.0,
2042.0,2035.0,2063.0,2058.0,2035.0,2057.0,0.0,0.0,0.0,
2047.0,2038.0,2056.0,2058.0,2039.0,2059.0,0.0,0.0,0.0,
2033.0,2031.0,2041.0,2061.0,2030.0,2063.0,0.0,0.0,0.0,
2042.0,2034.0,2057.0,2060.0,2032.0,2055.0,0.0,0.0,0.0,
2048.0,2052.0,2074.0,2059.0,2044.0,2054.0,0.0,0.0,0.0,
2057.0,2039.0,2076.0,2068.0,2041.0,2058.0,0.0,0.0,0.0,
2051.0,2038.0,2070.0,2064.0,2044.0,2065.0,0.0,0.0,0.0,
2052.0,2046.0,2074.0,2063.0,2044.0,2063.0,0.0,0.0,0.0,
2056.0,2053.0,2077.0,2066.0,2050.0,2070.0,0.0,0.0,0.0,
2056.0,2049.0,2078.0,2067.0,2050.0,2068.0,0.0,0.0,0.0,
2061.0,2051.0,2079.0,2071.0,2048.0,2066.0,0.0,0.0,0.0,
2058.0,2052.0,2086.0,2078.0,2051.0,2071.0,0.0,0.0,0.0,
2059.0,2050.0,2087.0,2071.0,2050.0,2074.0,0.0,0.0,0.0,
2063.0,2051.0,2087.0,2076.0,2047.0,2072.0,0.0,0.0,0.0,
2061.0,2050.0,2077.0,2076.0,2049.0,2080.0,0.0,0.0,0.0,
2050.0,2047.0,2064.0,2077.0,2040.0,2083.0,0.0,0.0,0.0,
2056.0,2049.0,2074.0,2081.0,2049.0,2089.0,0.0,0.0,0.0,
2063.0,2058.0,2085.0,2082.0,2049.0,2089.0,0.0,0.0,0.0,
2063.0,2059.0,2088.0,2083.0,2050.0,2092.0,0.0,0.0,0.0,
2062.0,2058.0,2088.0,2080.0,2052.0,2088.0,0.0,0.0,0.0,
2062.0,2057.0,2087.0,2081.0,2057.0,2085.0,0.0,0.0,0.0,
2067.0,2054.0,2088.0,2081.0,2050.0,2082.0,0.0,0.0,0.0,
2061.0,2052.0,2088.0,2080.0,2053.0,2077.0,0.0,0.0,0.0,
2059.0,2050.0,2086.0,2082.0,2050.0,2078.0,0.0,0.0,0.0,
2062.0,2050.0,2081.0,2078.0,2051.0,2076.0,0.0,0.0,0.0,
2055.0,2049.0,2085.0,2078.0,2048.0,2078.0,0.0,0.0,0.0,
2054.0,2053.0,2082.0,2076.0,2046.0,2074.0,0.0,0.0,0.0,
2037.0,2037.0,2054.0,2072.0,2031.0,2063.0,0.0,0.0,0.0,
2043.0,2039.0,2073.0,2073.0,2038.0,2066.0,0.0,0.0,0.0,
2046.0,2041.0,2074.0,2072.0,2039.0,2067.0,0.0,0.0,0.0,
2049.0,2044.0,2075.0,2073.0,2040.0,2067.0,0.0,0.0,0.0,
2045.0,2043.0,2074.0,2070.0,2039.0,2063.0,0.0,0.0,0.0,
2046.0,2040.0,2066.0,2068.0,2038.0,2056.0,0.0,0.0,0.0,
2046.0,2044.0,2073.0,2067.0,2035.0,2058.0,0.0,0.0,0.0,
2043.0,2038.0,2066.0,2065.0,2034.0,2050.0,0.0,0.0,0.0,
2043.0,2045.0,2065.0,2064.0,2032.0,2053.0,0.0,0.0,0.0,
2042.0,2040.0,2071.0,2061.0,2029.0,2045.0,0.0,0.0,0.0,
2036.0,2041.0,2067.0,2062.0,2030.0,2045.0,0.0,0.0,0.0,
2039.0,2038.0,2070.0,2062.0,2033.0,2045.0,0.0,0.0,0.0,
2037.0,2046.0,2068.0,2062.0,2033.0,2047.0,0.0,0.0,0.0,
2026.0,2029.0,2044.0,2060.0,2021.0,2047.0,0.0,0.0,0.0,
2037.0,2032.0,2052.0,2063.0,2037.0,2054.0,0.0,0.0,0.0,
2039.0,2039.0,2066.0,2052.0,2034.0,2050.0,0.0,0.0,0.0,
2043.0,2040.0,2068.0,2064.0,2034.0,2054.0,0.0,0.0,0.0,
2043.0,2051.0,2072.0,2063.0,2037.0,2062.0,0.0,0.0,0.0,
2044.0,2047.0,2069.0,2066.0,2042.0,2065.0,0.0,0.0,0.0,
2046.0,2049.0,2074.0,2062.0,2039.0,2064.0,0.0,0.0,0.0,
2045.0,2050.0,2077.0,2065.0,2041.0,2069.0,0.0,0.0,0.0,
2043.0,2050.0,2077.0,2071.0,2036.0,2070.0,0.0,0.0,0.0,
2051.0,2053.0,2078.0,2072.0,2037.0,2074.0,0.0,0.0,0.0,
2050.0,2051.0,2076.0,2083.0,2041.0,2074.0,0.0,0.0,0.0,
2050.0,2052.0,2079.0,2073.0,2040.0,2079.0,0.0,0.0,0.0,
2044.0,2048.0,2063.0,2076.0,2032.0,2074.0,0.0,0.0,0.0,
2047.0,2051.0,2078.0,2074.0,2039.0,2087.0,0.0,0.0,0.0,
2052.0,2058.0,2086.0,2077.0,2046.0,2077.0,0.0,0.0,0.0,
2056.0,2056.0,2089.0,2080.0,2045.0,2080.0,0.0,0.0,0.0,
2061.0,2059.0,2089.0,2077.0,2046.0,2074.0,0.0,0.0,0.0,
2059.0,2053.0,2092.0,2079.0,2045.0,2078.0,0.0,0.0,0.0,
2057.0,2056.0,2094.0,2082.0,2041.0,2070.0,0.0,0.0,0.0,
2053.0,2054.0,2086.0,2084.0,2044.0,2071.0,0.0,0.0,0.0,
2054.0,2058.0,2075.0,2083.0,2046.0,2065.0,0.0,0.0,0.0,
2056.0,2062.0,2088.0,2077.0,2041.0,2067.0,0.0,0.0,0.0,
2049.0,2057.0,2089.0,2077.0,2042.0,2071.0,0.0,0.0,0.0,
2052.0,2057.0,2080.0,2079.0,2041.0,2066.0,0.0,0.0,0.0,
2051.0,2054.0,2081.0,2081.0,2041.0,2069.0,0.0,0.0,0.0,
2040.0,2046.0,2052.0,2074.0,2024.0,2064.0,0.0,0.0,0.0,
2045.0,2048.0,2072.0,2076.0,2028.0,2063.0,0.0,0.0,0.0,
2051.0,2049.0,2077.0,2075.0,2033.0,2060.0,0.0,0.0,0.0,
2051.0,2049.0,2074.0,2075.0,2037.0,2050.0,0.0,0.0,0.0,
2047.0,2049.0,2068.0,2071.0,2035.0,2053.0,0.0,0.0,0.0,
2049.0,2043.0,2075.0,2069.0,2036.0,2047.0,0.0,0.0,0.0,
2053.0,2050.0,2074.0,2069.0,2037.0,2054.0,0.0,0.0,0.0,
2044.0,2044.0,2072.0,2071.0,2033.0,2041.0,0.0,0.0,0.0,
2046.0,2045.0,2065.0,2067.0,2028.0,2047.0,0.0,0.0,0.0,
2044.0,2048.0,2068.0,2071.0,2032.0,2045.0,0.0,0.0,0.0,
2043.0,2044.0,2063.0,2067.0,2031.0,2044.0,0.0,0.0,0.0,
2042.0,2046.0,2063.0,2063.0,2029.0,2043.0,0.0,0.0,0.0,
2032.0,2036.0,2040.0,2061.0,2019.0,2040.0,0.0,0.0,0.0,
2035.0,2038.0,2051.0,2061.0,2022.0,2037.0,0.0,0.0,0.0,
2047.0,2040.0,2057.0,2061.0,2025.0,2036.0,0.0,0.0,0.0,
2041.0,2041.0,2057.0,2058.0,2027.0,2040.0,0.0,0.0,0.0,
2036.0,2041.0,2057.0,2060.0,2030.0,2037.0,0.0,0.0,0.0,
2037.0,2043.0,2063.0,2060.0,2027.0,2036.0,0.0,0.0,0.0,
2038.0,2039.0,2061.0,2060.0,2030.0,2038.0,0.0,0.0,0.0,
2040.0,2040.0,2056.0,2062.0,2027.0,2048.0,0.0,0.0,0.0,
2041.0,2041.0,2061.0,2062.0,2033.0,2048.0,0.0,0.0,0.0,
2041.0,2041.0,2061.0,2061.0,2030.0,2050.0,0.0,0.0,0.0,
2045.0,2039.0,2068.0,2062.0,2033.0,2050.0,0.0,0.0,0.0,
2042.0,2039.0,2066.0,2063.0,2028.0,2043.0,0.0,0.0,0.0,
2046.0,2037.0,2073.0,2067.0,2030.0,2052.0,0.0,0.0,0.0,
2041.0,2036.0,2052.0,2066.0,2028.0,2071.0,0.0,0.0,0.0,
2050.0,2046.0,2064.0,2071.0,2034.0,2071.0,0.0,0.0,0.0,
2056.0,2047.0,2076.0,2071.0,2038.0,2077.0,0.0,0.0,0.0,
2056.0,2045.0,2082.0,2071.0,2040.0,2080.0,0.0,0.0,0.0,
2069.0,2047.0,2084.0,2075.0,2038.0,2083.0,0.0,0.0,0.0,
2063.0,2049.0,2083.0,2072.0,2044.0,2081.0,0.0,0.0,0.0,
2062.0,2048.0,2091.0,2079.0,2042.0,2083.0,0.0,0.0,0.0,
2059.0,2047.0,2086.0,2079.0,2054.0,2088.0,0.0,0.0,0.0,
2052.0,2054.0,2090.0,2084.0,2046.0,2084.0,0.0,0.0,0.0,
2047.0,2051.0,2088.0,2082.0,2049.0,2079.0,0.0,0.0,0.0,
2038.0,2051.0,2083.0,2081.0,2064.0,2083.0,0.0,0.0,0.0,
2035.0,2052.0,2083.0,2082.0,2049.0,2078.0,0.0,0.0,0.0,
2030.0,2048.0,2062.0,2082.0,2034.0,2068.0,0.0,0.0,0.0,
2034.0,2047.0,2071.0,2081.0,2041.0,2065.0,0.0,0.0,0.0,
2036.0,2049.0,2078.0,2082.0,2040.0,2062.0,0.0,0.0,0.0,
2039.0,2052.0,2080.0,2088.0,2045.0,2064.0,0.0,0.0,0.0,
2043.0,2047.0,2078.0,2081.0,2045.0,2057.0,0.0,0.0,0.0,
2046.0,2054.0,2075.0,2081.0,2047.0,2066.0,0.0,0.0,0.0,
2042.0,2047.0,2076.0,2080.0,2045.0,2065.0,0.0,0.0,0.0,
2040.0,2056.0,2074.0,2080.0,2048.0,2061.0,0.0,0.0,0.0,
2039.0,2052.0,2077.0,2076.0,2044.0,2054.0,0.0,0.0,0.0,
2034.0,2050.0,2080.0,2074.0,2042.0,2052.0,0.0,0.0,0.0,
2032.0,2048.0,2073.0,2075.0,2044.0,2048.0,0.0,0.0,0.0,
2029.0,2047.0,2070.0,2073.0,2037.0,2045.0,0.0,0.0,0.0,
2030.0,2046.0,2069.0,2070.0,2037.0,2041.0,0.0,0.0,0.0,
2031.0,2045.0,2066.0,2071.0,2034.0,2039.0,0.0,0.0,0.0,
2025.0,2028.0,2036.0,2065.0,2016.0,2031.0,0.0,0.0,0.0,
2026.0,2024.0,2047.0,2061.0,2021.0,2022.0,0.0,0.0,0.0,
2026.0,2025.0,2047.0,2062.0,2021.0,2017.0,0.0,0.0,0.0,
2020.0,2018.0,2049.0,2060.0,2023.0,2014.0,0.0,0.0,0.0,
2038.0,2019.0,2056.0,2064.0,2023.0,2021.0,0.0,0.0,0.0,
2047.0,2017.0,2054.0,2066.0,2024.0,2030.0,0.0,0.0,0.0,
2059.0,2014.0,2054.0,2066.0,2023.0,2037.0,0.0,0.0,0.0,
2067.0,2019.0,2048.0,2065.0,2024.0,2040.0,0.0,0.0,0.0,
2072.0,2020.0,2051.0,2064.0,2025.0,2057.0,0.0,0.0,0.0,
2075.0,2023.0,2051.0,2068.0,2031.0,2067.0,0.0,0.0,0.0,
2077.0,2023.0,2052.0,2064.0,2028.0,2086.0,0.0,0.0,0.0,
2076.0,2023.0,2059.0,2070.0,2029.0,2108.0,0.0,0.0,0.0,
2087.0,2031.0,2043.0,2065.0,2024.0,2136.0,0.0,0.0,0.0,
2098.0,2037.0,2063.0,2069.0,2027.0,2137.0,0.0,0.0,0.0,
2105.0,2043.0,2082.0,2072.0,2035.0,2140.0,0.0,0.0,0.0,
2105.0,2051.0,2085.0,2071.0,2041.0,2141.0,0.0,0.0,0.0,
2106.0,2047.0,2091.0,2074.0,2044.0,2138.0,0.0,0.0,0.0,
2103.0,2055.0,2089.0,2079.0,2044.0,2133.0,0.0,0.0,0.0,
2103.0,2058.0,2097.0,2079.0,2043.0,2127.0,0.0,0.0,0.0,
2098.0,2063.0,2093.0,2079.0,2039.0,2122.0,0.0,0.0,0.0,
2092.0,2056.0,2098.0,2081.0,2040.0,2110.0,0.0,0.0,0.0,
2087.0,2057.0,2101.0,2078.0,2044.0,2111.0,0.0,0.0,0.0,
2083.0,2059.0,2093.0,2085.0,2044.0,2109.0,0.0,0.0,0.0,
2081.0,2058.0,2094.0,2080.0,2045.0,2104.0,0.0,0.0,0.0,
2063.0,2048.0,2065.0,2088.0,2038.0,2119.0,0.0,0.0,0.0,
2075.0,2050.0,2080.0,2087.0,2047.0,2122.0,0.0,0.0,0.0,
2072.0,2054.0,2084.0,2084.0,2051.0,2120.0,0.0,0.0,0.0,
2073.0,2059.0,2094.0,2089.0,2055.0,2134.0,0.0,0.0,0.0,
2076.0,2058.0,2092.0,2089.0,2057.0,2132.0,0.0,0.0,0.0,
2075.0,2059.0,2091.0,2092.0,2056.0,2127.0,0.0,0.0,0.0,
2067.0,2060.0,2095.0,2092.0,2058.0,2123.0,0.0,0.0,0.0,
2060.0,2059.0,2096.0,2090.0,2055.0,2104.0,0.0,0.0,0.0,
2058.0,2060.0,2099.0,2090.0,2055.0,2091.0,0.0,0.0,0.0,
2058.0,2064.0,2098.0,2092.0,2051.0,2090.0,0.0,0.0,0.0,
2053.0,2059.0,2094.0,2091.0,2045.0,2070.0,0.0,0.0,0.0,
2057.0,2047.0,2088.0,2086.0,2032.0,2051.0,0.0,0.0,0.0,
2087.0,2048.0,2064.0,2082.0,2023.0,1982.0,0.0,0.0,0.0,
2115.0,2056.0,2077.0,2081.0,2026.0,1959.0,0.0,0.0,0.0,
2139.0,2055.0,2074.0,2077.0,2024.0,1939.0,0.0,0.0,0.0,
2157.0,2057.0,2089.0,2078.0,2025.0,1920.0,0.0,0.0,0.0,
2157.0,2057.0,2080.0,2078.0,2020.0,1915.0,0.0,0.0,0.0,
2148.0,2057.0,2087.0,2077.0,2023.0,1904.0,0.0,0.0,0.0,
2118.0,2057.0,2079.0,2091.0,2018.0,1896.0,0.0,0.0,0.0,
2042.0,2052.0,2080.0,2070.0,2016.0,1867.0,0.0,0.0,0.0,
1978.0,2051.0,2071.0,2068.0,2017.0,1837.0,0.0,0.0,0.0,
1930.0,2047.0,2072.0,2068.0,2011.0,1808.0,0.0,0.0,0.0,
1892.0,2050.0,2064.0,2067.0,2012.0,1786.0,0.0,0.0,0.0,
1857.0,2044.0,2067.0,2066.0,2006.0,1759.0,0.0,0.0,0.0,
1820.0,2040.0,2056.0,2058.0,2007.0,1751.0,0.0,0.0,0.0,
1728.0,1996.0,2022.0,2048.0,1992.0,1754.0,0.0,0.0,0.0,
1744.0,2005.0,2031.0,2048.0,1996.0,1755.0,0.0,0.0,0.0,
1766.0,2009.0,2036.0,2049.0,2002.0,1772.0,0.0,0.0,0.0,
1785.0,2011.0,2041.0,2052.0,2009.0,1782.0,0.0,0.0,0.0,
1806.0,2015.0,2044.0,2056.0,2007.0,1827.0,0.0,0.0,0.0,
1839.0,2021.0,2053.0,2055.0,2015.0,1847.0,0.0,0.0,0.0,
1870.0,2023.0,2051.0,2057.0,2015.0,1883.0,0.0,0.0,0.0,
1926.0,2037.0,2050.0,2067.0,2020.0,1930.0,0.0,0.0,0.0,
1956.0,2041.0,2050.0,2057.0,2026.0,1975.0,0.0,0.0,0.0,
1990.0,2051.0,2055.0,2058.0,2029.0,2034.0,0.0,0.0,0.0,
2029.0,2057.0,2066.0,2065.0,2036.0,2098.0,0.0,0.0,0.0,
2044.0,2057.0,2074.0,2063.0,2043.0,2149.0,0.0,0.0,0.0,
1906.0,1974.0,2017.0,2060.0,2025.0,2108.0,0.0,0.0,0.0,
1851.0,1952.0,2013.0,2052.0,2019.0,2047.0,0.0,0.0,0.0,
1832.0,1937.0,2004.0,2053.0,2016.0,2020.0,0.0,0.0,0.0,
1849.0,1945.0,2011.0,2052.0,2018.0,2027.0,0.0,0.0,0.0,
1903.0,1975.0,2026.0,2058.0,2021.0,2075.0,0.0,0.0,0.0,
1992.0,2002.0,2054.0,2064.0,2033.0,2145.0,0.0,0.0,0.0,
2074.0,2044.0,2086.0,2075.0,2046.0,2223.0,0.0,0.0,0.0,
2202.0,2093.0,2136.0,2090.0,2068.0,2324.0,0.0,0.0,0.0,
2267.0,2111.0,2167.0,2098.0,2081.0,2372.0,0.0,0.0,0.0,
2317.0,2118.0,2179.0,2103.0,2084.0,2392.0,0.0,0.0,0.0,
2329.0,2110.0,2185.0,2107.0,2089.0,2382.0,0.0,0.0,0.0,
2331.0,2110.0,2188.0,2113.0,2095.0,2349.0,0.0,0.0,0.0,
2321.0,2116.0,2204.0,2113.0,2089.0,2309.0,0.0,0.0,0.0,
2193.0,2117.0,2120.0,2100.0,2056.0,2071.0,0.0,0.0,0.0,
2185.0,2096.0,2108.0,2095.0,2059.0,2056.0,0.0,0.0,0.0,
2185.0,2072.0,2096.0,2087.0,2057.0,2045.0,0.0,0.0,0.0,
2175.0,2046.0,2081.0,2086.0,2054.0,2029.0,0.0,0.0,0.0,
2139.0,2026.0,2059.0,2079.0,2046.0,2010.0,0.0,0.0,0.0,
2085.0,2009.0,2028.0,2075.0,2038.0,1999.0,0.0,0.0,0.0,
2030.0,1999.0,2038.0,2067.0,2029.0,1985.0,0.0,0.0,0.0,
1949.0,2024.0,2024.0,2060.0,2020.0,1990.0,0.0,0.0,0.0,
1926.0,2064.0,2018.0,2062.0,2023.0,2031.0,0.0,0.0,0.0,
1945.0,2109.0,2018.0,2059.0,2033.0,2091.0,0.0,0.0,0.0,
1997.0,2149.0,2028.0,2059.0,2031.0,2172.0,0.0,0.0,0.0,
2077.0,2157.0,2014.0,2063.0,2039.0,2256.0,0.0,0.0,0.0,
2239.0,2012.0,2044.0,2073.0,2050.0,2390.0,0.0,0.0,0.0,
2262.0,1934.0,2040.0,2077.0,2058.0,2378.0,0.0,0.0,0.0,
2249.0,1852.0,2043.0,2074.0,2063.0,2362.0,0.0,0.0,0.0,
2242.0,1790.0,2050.0,2079.0,2068.0,2340.0,0.0,0.0,0.0,
2218.0,1766.0,2063.0,2076.0,2069.0,2305.0,0.0,0.0,0.0,
2181.0,1758.0,2064.0,2074.0,2063.0,2260.0,0.0,0.0,0.0,
2136.0,1769.0,2061.0,2075.0,2058.0,2223.0,0.0,0.0,0.0,
2076.0,1790.0,2059.0,2073.0,2053.0,2168.0,0.0,0.0,0.0,
2041.0,1847.0,2069.0,2068.0,2051.0,2144.0,0.0,0.0,0.0,
2018.0,1915.0,2082.0,2070.0,2049.0,2127.0,0.0,0.0,0.0,
2017.0,1952.0,2087.0,2068.0,2048.0,2127.0,0.0,0.0,0.0,
2021.0,1953.0,2093.0,2068.0,2043.0,2130.0,0.0,0.0,0.0,
2014.0,1934.0,2069.0,2064.0,2042.0,2131.0,0.0,0.0,0.0,
1894.0,2013.0,1975.0,2050.0,2023.0,2083.0,0.0,0.0,0.0,
1904.0,2092.0,2011.0,2055.0,2030.0,2095.0,0.0,0.0,0.0,
1927.0,2170.0,2047.0,2058.0,2041.0,2112.0,0.0,0.0,0.0,
1955.0,2226.0,2077.0,2059.0,2044.0,2119.0,0.0,0.0,0.0,
1972.0,2247.0,2100.0,2058.0,2046.0,2136.0,0.0,0.0,0.0,
1983.0,2234.0,2117.0,2064.0,2053.0,2146.0,0.0,0.0,0.0,
1974.0,2205.0,2138.0,2075.0,2058.0,2149.0,0.0,0.0,0.0,
1960.0,2184.0,2155.0,2079.0,2061.0,2136.0,0.0,0.0,0.0,
1963.0,2182.0,2171.0,2078.0,2064.0,2115.0,0.0,0.0,0.0,
1959.0,2211.0,2193.0,2086.0,2058.0,2080.0,0.0,0.0,0.0,
1961.0,2276.0,2218.0,2087.0,2057.0,2026.0,0.0,0.0,0.0,
1988.0,2345.0,2229.0,2082.0,2053.0,1978.0,0.0,0.0,0.0,
2093.0,2367.0,2159.0,2077.0,2027.0,1845.0,0.0,0.0,0.0,
2133.0,2334.0,2147.0,2078.0,2025.0,1817.0,0.0,0.0,0.0,
2190.0,2279.0,2135.0,2074.0,2029.0,1810.0,0.0,0.0,0.0,
2267.0,2183.0,2125.0,2070.0,2025.0,1827.0,0.0,0.0,0.0,
2336.0,2050.0,2110.0,2064.0,2020.0,1853.0,0.0,0.0,0.0,
2369.0,1937.0,2090.0,2057.0,2017.0,1882.0,0.0,0.0,0.0,
2381.0,1893.0,2071.0,2055.0,2018.0,1901.0,0.0,0.0,0.0,
2361.0,1838.0,2026.0,2055.0,2017.0,1915.0,0.0,0.0,0.0,
2327.0,1786.0,1978.0,2051.0,2023.0,1926.0,0.0,0.0,0.0,
2284.0,1742.0,1930.0,2047.0,2015.0,1944.0,0.0,0.0,0.0,
2253.0,1748.0,1915.0,2047.0,2019.0,1969.0,0.0,0.0,0.0,
2223.0,1788.0,1927.0,2050.0,2023.0,1992.0,0.0,0.0,0.0,
2195.0,1835.0,1958.0,2052.0,2025.0,2008.0,0.0,0.0,0.0,
1957.0,2102.0,2001.0,2061.0,2017.0,1972.0,0.0,0.0,0.0,
1880.0,2194.0,2023.0,2058.0,2017.0,1923.0,0.0,0.0,0.0,
1836.0,2274.0,2039.0,2049.0,2016.0,1899.0,0.0,0.0,0.0,
1829.0,2344.0,2054.0,2051.0,2019.0,1917.0,0.0,0.0,0.0,
1850.0,2403.0,2082.0,2056.0,2025.0,1987.0,0.0,0.0,0.0,
1903.0,2445.0,2110.0,2062.0,2032.0,2082.0,0.0,0.0,0.0,
1943.0,2458.0,2123.0,2071.0,2040.0,2172.0,0.0,0.0,0.0,
1955.0,2404.0,2139.0,2072.0,2056.0,2297.0,0.0,0.0,0.0,
1958.0,2334.0,2133.0,2074.0,2064.0,2370.0,0.0,0.0,0.0,
1959.0,2264.0,2117.0,2072.0,2065.0,2409.0,0.0,0.0,0.0,
1955.0,2181.0,2122.0,2070.0,2066.0,2424.0,0.0,0.0,0.0,
1934.0,2080.0,2118.0,2066.0,2065.0,2404.0,0.0,0.0,0.0,
1816.0,1861.0,2098.0,2052.0,2033.0,2187.0,0.0,0.0,0.0,
1802.0,1886.0,2107.0,2048.0,2019.0,2127.0,0.0,0.0,0.0,
1807.0,1927.0,2127.0,2049.0,2026.0,2089.0,0.0,0.0,0.0,
1830.0,1920.0,2154.0,2053.0,2026.0,2075.0,0.0,0.0,0.0,
1876.0,1851.0,2112.0,2055.0,2032.0,2072.0,0.0,0.0,0.0,
1922.0,1775.0,2076.0,2063.0,2038.0,2087.0,0.0,0.0,0.0,
1971.0,1703.0,2041.0,2065.0,2046.0,2109.0,0.0,0.0,0.0,
2052.0,1634.0,2000.0,2069.0,2051.0,2140.0,0.0,0.0,0.0,
2119.0,1601.0,1959.0,2069.0,2056.0,2156.0,0.0,0.0,0.0,
2194.0,1610.0,1933.0,2071.0,2058.0,2173.0,0.0,0.0,0.0,
2239.0,1662.0,1915.0,2069.0,2056.0,2163.0,0.0,0.0,0.0,
2275.0,1758.0,1935.0,2066.0,2061.0,2165.0,0.0,0.0,0.0,
2312.0,1870.0,1970.0,2071.0,2060.0,2176.0,0.0,0.0,0.0,
2302.0,2279.0,2119.0,2099.0,2064.0,2266.0,0.0,0.0,0.0,
2299.0,2369.0,2150.0,2107.0,2080.0,2301.0,0.0,0.0,0.0,
2288.0,2410.0,2153.0,2111.0,2087.0,2332.0,0.0,0.0,0.0,
2262.0,2394.0,2148.0,2109.0,2089.0,2344.0,0.0,0.0,0.0,
2218.0,2362.0,2139.0,2108.0,2095.0,2322.0,0.0,0.0,0.0,
2177.0,2313.0,2131.0,2105.0,2086.0,2275.0,0.0,0.0,0.0,
2133.0,2244.0,2112.0,2098.0,2075.0,2241.0,0.0,0.0,0.0,
2082.0,2075.0,2079.0,2089.0,2066.0,2203.0,0.0,0.0,0.0,
2048.0,1883.0,2047.0,2081.0,2058.0,2184.0,0.0,0.0,0.0,
2011.0,1670.0,2028.0,2074.0,2058.0,2173.0,0.0,0.0,0.0,
2002.0,1534.0,2018.0,2075.0,2058.0,2167.0,0.0,0.0,0.0,
2016.0,1519.0,2025.0,2076.0,2062.0,2177.0,0.0,0.0,0.0,
2082.0,1742.0,2052.0,2081.0,2056.0,2202.0,0.0,0.0,0.0,
2110.0,1783.0,2069.0,2077.0,2058.0,2214.0,0.0,0.0,0.0,
2143.0,1790.0,2077.0,2080.0,2062.0,2226.0,0.0,0.0,0.0,
2187.0,1813.0,2071.0,2074.0,2061.0,2251.0,0.0,0.0,0.0,
2236.0,1880.0,2067.0,2077.0,2058.0,2271.0,0.0,0.0,0.0,
2273.0,1985.0,2066.0,2076.0,2060.0,2295.0,0.0,0.0,0.0,
2286.0,2129.0,2077.0,2069.0,2058.0,2294.0,0.0,0.0,0.0,
2269.0,2339.0,2083.0,2066.0,2056.0,2278.0,0.0,0.0,0.0,
2255.0,2473.0,2101.0,2061.0,2053.0,2261.0,0.0,0.0,0.0,
2246.0,2567.0,2113.0,2063.0,2050.0,2239.0,0.0,0.0,0.0,
2226.0,2611.0,2118.0,2063.0,2047.0,2225.0,0.0,0.0,0.0,
2199.0,2588.0,2104.0,2065.0,2041.0,2207.0,0.0,0.0,0.0,
2166.0,2493.0,2098.0,2066.0,2042.0,2185.0,0.0,0.0,0.0,
2127.0,2159.0,2084.0,2071.0,2024.0,2125.0,0.0,0.0,0.0,
2151.0,2170.0,2102.0,2070.0,2032.0,2117.0,0.0,0.0,0.0,
2171.0,2190.0,2112.0,2074.0,2046.0,2111.0,1.0,0.0,0.0,
2164.0,2210.0,2111.0,2079.0,2043.0,2097.0,1.0,0.0,0.0,
2142.0,2216.0,2120.0,2076.0,2043.0,2084.0,1.0,0.0,0.0,
2105.0,2202.0,2124.0,2081.0,2042.0,2072.0,1.0,0.0,-1.0,
2078.0,2170.0,2118.0,2073.0,2042.0,2053.0,0.0,0.0,0.0,
2020.0,2113.0,2109.0,2081.0,2034.0,2030.0,0.0,0.0,0.0,
1972.0,2064.0,2081.0,2063.0,2030.0,2016.0,0.0,0.0,0.0,
1928.0,2011.0,2060.0,2052.0,2025.0,1992.0,0.0,0.0,0.0,
1892.0,1954.0,2032.0,2068.0,2032.0,1973.0,0.0,0.0,0.0,
1866.0,1914.0,2010.0,2074.0,2038.0,1963.0,0.0,0.0,0.0,
1764.0,1866.0,1976.0,2081.0,2038.0,1931.0,0.0,0.0,0.0,
1735.0,1885.0,1967.0,2080.0,2035.0,1906.0,0.0,0.0,0.0,
1704.0,1899.0,1966.0,2075.0,2035.0,1880.0,0.0,0.0,0.0,
1666.0,1906.0,1966.0,2090.0,2038.0,1850.0,0.0,0.0,0.0,
1628.0,1911.0,1981.0,2076.0,2039.0,1813.0,0.0,0.0,0.0,
1611.0,1900.0,1995.0,2074.0,2035.0,1774.0,0.0,0.0,0.0,
1646.0,1905.0,2009.0,2075.0,2028.0,1732.0,0.0,0.0,0.0,
1716.0,1900.0,2012.0,2068.0,2022.0,1685.0,0.0,0.0,0.0,
1768.0,1907.0,2026.0,2068.0,2023.0,1658.0,0.0,0.0,0.0,
1802.0,1912.0,2045.0,2066.0,2014.0,1641.0,0.0,0.0,0.0,
1803.0,1924.0,2075.0,2067.0,2014.0,1623.0,0.0,0.0,0.0,
1859.0,1924.0,2109.0,2068.0,2015.0,1599.0,0.0,0.0,0.0,
1881.0,1953.0,2139.0,2069.0,2012.0,1593.0,0.0,0.0,0.0,
1775.0,2302.0,2144.0,2055.0,1987.0,1559.0,0.0,0.0,0.0,
1754.0,2327.0,2181.0,2050.0,1995.0,1577.0,0.0,0.0,0.0,
1738.0,2320.0,2210.0,2060.0,2002.0,1613.0,0.0,0.0,0.0,
1743.0,2287.0,2205.0,2065.0,2008.0,1639.0,0.0,0.0,0.0,
1755.0,2239.0,2198.0,2063.0,2014.0,1682.0,1.0,0.0,-1.0,
1748.0,2171.0,2172.0,2065.0,2016.0,1730.0,1.0,0.0,-1.0,
1728.0,2114.0,2134.0,2061.0,2010.0,1761.0,1.0,0.0,-1.0,
1696.0,2020.0,2081.0,2058.0,2002.0,1755.0,0.0,0.0,0.0,
1698.0,1939.0,2037.0,2051.0,1994.0,1732.0,0.0,0.0,0.0,
1737.0,1876.0,1977.0,2039.0,1985.0,1709.0,0.0,0.0,0.0,
1806.0,1823.0,1931.0,2029.0,1984.0,1720.0,0.0,0.0,0.0,
1874.0,1762.0,1895.0,2031.0,1987.0,1779.0,0.0,0.0,0.0,
1966.0,1610.0,1937.0,2038.0,2007.0,2053.0,0.0,0.0,0.0,
1926.0,1654.0,1990.0,2039.0,2015.0,2041.0,0.0,0.0,0.0,
1896.0,1720.0,2033.0,2045.0,2018.0,2002.0,0.0,0.0,0.0,
1921.0,1803.0,2057.0,2050.0,2012.0,1958.0,0.0,0.0,0.0,
1984.0,1870.0,2082.0,2049.0,2012.0,1917.0,0.0,0.0,0.0,
2046.0,1905.0,2095.0,2051.0,2015.0,1890.0,0.0,0.0,0.0,
2110.0,1906.0,2106.0,2053.0,2014.0,1879.0,0.0,0.0,0.0,
2185.0,1970.0,2124.0,2059.0,2017.0,1877.0,0.0,0.0,0.0,
2274.0,2025.0,2129.0,2060.0,2021.0,1894.0,0.0,0.0,0.0,
2371.0,2069.0,2126.0,2071.0,2018.0,1900.0,0.0,0.0,0.0,
2472.0,2103.0,2117.0,2066.0,2013.0,1898.0,1.0,0.0,-1.0,
2518.0,2119.0,2119.0,2062.0,2008.0,1877.0,1.0,0.0,-1.0,
2503.0,2125.0,2102.0,2062.0,2005.0,1844.0,1.0,0.0,-1.0,
2312.0,2091.0,2107.0,2062.0,1999.0,2028.0,1.0,0.0,-1.0,
2308.0,2116.0,2146.0,2073.0,2024.0,2151.0,0.0,0.0,0.0,
2280.0,2133.0,2176.0,2080.0,2042.0,2244.0,0.0,0.0,0.0,
2224.0,2154.0,2183.0,2087.0,2051.0,2275.0,0.0,0.0,0.0,
2176.0,2181.0,2169.0,2089.0,2060.0,2284.0,0.0,0.0,0.0,
2129.0,2202.0,2144.0,2089.0,2060.0,2275.0,0.0,0.0,0.0,
2086.0,2204.0,2120.0,2089.0,2067.0,2257.0,0.0,0.0,0.0,
2070.0,2192.0,2097.0,2091.0,2069.0,2270.0,0.0,0.0,0.0,
2078.0,2194.0,2085.0,2095.0,2077.0,2308.0,0.0,0.0,0.0,
2065.0,2202.0,2059.0,2094.0,2076.0,2324.0,0.0,0.0,0.0,
2019.0,2187.0,2014.0,2090.0,2066.0,2304.0,0.0,0.0,0.0,
1940.0,2162.0,1962.0,2081.0,2061.0,2246.0,0.0,0.0,0.0,
1823.0,2121.0,1914.0,2075.0,2028.0,2051.0,0.0,0.0,0.0,
1809.0,2138.0,1945.0,2073.0,2040.0,2001.0,0.0,0.0,0.0,
1780.0,2156.0,1979.0,2077.0,2027.0,1961.0,0.0,0.0,0.0,
1770.0,2197.0,2002.0,2075.0,2029.0,1927.0,0.0,0.0,0.0,
1814.0,2261.0,2023.0,2077.0,2031.0,1901.0,0.0,0.0,0.0,
1901.0,2323.0,2034.0,2079.0,2022.0,1870.0,0.0,0.0,0.0,
2023.0,2355.0,2033.0,2063.0,2026.0,1848.0,0.0,0.0,0.0,
2106.0,2347.0,2033.0,2080.0,2025.0,1855.0,0.0,0.0,0.0,
2147.0,2317.0,2054.0,2078.0,2030.0,1878.0,0.0,0.0,0.0,
2147.0,2294.0,2077.0,2077.0,2032.0,1903.0,0.0,0.0,0.0,
2116.0,2273.0,2081.0,2080.0,2026.0,1909.0,0.0,0.0,0.0,
2078.0,2254.0,2085.0,2087.0,2026.0,1906.0,0.0,0.0,0.0,
2063.0,2250.0,2081.0,2078.0,2024.0,1876.0,2.0,0.0,-1.0,
1897.0,2391.0,2117.0,2072.0,1998.0,1729.0,2.0,1.0,-1.0,
1850.0,2426.0,2147.0,2070.0,1995.0,1678.0,2.0,1.0,-1.0,
1838.0,2417.0,2147.0,2070.0,1997.0,1647.0,0.0,0.0,0.0,
1851.0,2359.0,2137.0,2062.0,1994.0,1661.0,0.0,0.0,0.0,
1888.0,2258.0,2104.0,2058.0,1999.0,1711.0,0.0,0.0,0.0,
1967.0,2162.0,2123.0,2058.0,2002.0,1817.0,0.0,0.0,0.0,
2080.0,2126.0,2135.0,2059.0,2013.0,1949.0,0.0,0.0,0.0,
2219.0,2170.0,2164.0,2068.0,2032.0,2146.0,0.0,0.0,0.0,
2324.0,2211.0,2197.0,2076.0,2050.0,2307.0,0.0,0.0,0.0,
2398.0,2206.0,2206.0,2083.0,2059.0,2425.0,0.0,0.0,0.0,
2441.0,2132.0,2176.0,2090.0,2073.0,2468.0,0.0,0.0,0.0,
2397.0,2025.0,2120.0,2090.0,2073.0,2449.0,0.0,0.0,0.0,
1969.0,1677.0,1952.0,2083.0,2054.0,2365.0,0.0,0.0,0.0,
1940.0,1596.0,1916.0,2086.0,2062.0,2401.0,0.0,0.0,0.0,
1959.0,1566.0,1890.0,2087.0,2068.0,2478.0,0.0,0.0,0.0,
2019.0,1619.0,1902.0,2094.0,2079.0,2572.0,0.0,0.0,0.0,
2083.0,1713.0,1932.0,2097.0,2095.0,2647.0,0.0,0.0,0.0,
2134.0,1765.0,1957.0,2098.0,2106.0,2692.0,2.0,1.0,-1.0,
2167.0,1712.0,1967.0,2108.0,2110.0,2703.0,2.0,1.0,-1.0,
2155.0,1431.0,1955.0,2112.0,2122.0,2710.0,2.0,2.0,-1.0,
2104.0,1182.0,1920.0,2114.0,2121.0,2685.0,0.0,0.0,0.0,
2035.0,1001.0,1888.0,2108.0,2121.0,2619.0,0.0,0.0,0.0,
1957.0,970.0,1868.0,2090.0,2115.0,2526.0,0.0,0.0,0.0,
1887.0,1089.0,1861.0,2074.0,2102.0,2418.0,0.0,0.0,0.0,
1821.0,1293.0,1862.0,2058.0,2085.0,2332.0,0.0,0.0,0.0,
2324.0,2185.0,2054.0,2067.0,2092.0,2421.0,0.0,0.0,0.0,
2445.0,2228.0,2095.0,2067.0,2094.0,2428.0,0.0,0.0,0.0,
2538.0,2236.0,2120.0,2072.0,2094.0,2432.0,0.0,0.0,0.0,
2617.0,2275.0,2142.0,2070.0,2089.0,2420.0,0.0,0.0,0.0,
2684.0,2351.0,2137.0,2070.0,2091.0,2434.0,0.0,0.0,0.0,
2725.0,2430.0,2146.0,2067.0,2089.0,2458.0,0.0,0.0,0.0,
2781.0,2543.0,2171.0,2071.0,2087.0,2515.0,0.0,0.0,0.0,
2814.0,2779.0,2237.0,2072.0,2087.0,2632.0,0.0,0.0,0.0,
2816.0,2941.0,2287.0,2075.0,2092.0,2715.0,0.0,0.0,0.0,
2799.0,3069.0,2361.0,2078.0,2089.0,2765.0,0.0,0.0,0.0,
2734.0,3115.0,2417.0,2081.0,2087.0,2773.0,2.0,2.0,-1.0,
2624.0,3057.0,2427.0,2085.0,2096.0,2751.0,2.0,2.0,-1.0,
2129.0,2241.0,2417.0,2066.0,2044.0,2457.0,3.0,3.0,-1.0,
2012.0,2035.0,2426.0,2067.0,2044.0,2341.0,0.0,0.0,0.0,
1935.0,1842.0,2398.0,2076.0,2049.0,2268.0,0.0,0.0,0.0,
1911.0,1678.0,2335.0,2081.0,2057.0,2243.0,0.0,0.0,0.0,
1915.0,1562.0,2256.0,2086.0,2061.0,2247.0,0.0,0.0,0.0,
1953.0,1465.0,2176.0,2084.0,2058.0,2253.0,0.0,0.0,0.0,
2005.0,1439.0,2133.0,2092.0,2057.0,2235.0,0.0,0.0,0.0,
2054.0,1411.0,2094.0,2098.0,2054.0,2166.0,0.0,0.0,0.0,
2091.0,1393.0,2066.0,2110.0,2054.0,2139.0,0.0,0.0,0.0,
2118.0,1394.0,2017.0,2117.0,2050.0,2111.0,0.0,0.0,0.0,
2139.0,1433.0,1944.0,2120.0,2045.0,2079.0,0.0,0.0,0.0,
2158.0,1529.0,1880.0,2116.0,2042.0,2060.0,0.0,0.0,0.0,
2171.0,1642.0,1827.0,2111.0,2035.0,2048.0,0.0,0.0,0.0,
2285.0,1958.0,1717.0,2115.0,2032.0,2178.0,0.0,0.0,0.0,
2319.0,2000.0,1776.0,2123.0,2050.0,2222.0,0.0,0.0,0.0,
2320.0,2041.0,1839.0,2134.0,2058.0,2235.0,0.0,0.0,0.0,
2272.0,2051.0,1915.0,2140.0,2060.0,2208.0,0.0,0.0,0.0,
2200.0,2051.0,2002.0,2140.0,2056.0,2159.0,3.0,3.0,-1.0,
2139.0,2032.0,2075.0,2140.0,2049.0,2114.0,3.0,3.0,-1.0,
2093.0,1988.0,2131.0,2133.0,2050.0,2090.0,3.0,4.0,-1.0,
2043.0,1937.0,2184.0,2118.0,2047.0,2097.0,0.0,0.0,0.0,
2001.0,1961.0,2239.0,2109.0,2049.0,2111.0,0.0,0.0,0.0,
1944.0,2074.0,2324.0,2101.0,2052.0,2109.0,0.0,0.0,0.0,
1873.0,2225.0,2391.0,2097.0,2054.0,2082.0,0.0,0.0,0.0,
1816.0,2340.0,2411.0,2092.0,2040.0,2037.0,0.0,0.0,0.0,
1633.0,2423.0,2327.0,2087.0,2024.0,1840.0,0.0,0.0,0.0,
1595.0,2415.0,2333.0,2096.0,2023.0,1808.0,0.0,0.0,0.0,
1578.0,2354.0,2305.0,2101.0,2033.0,1781.0,0.0,0.0,0.0,
1559.0,2243.0,2240.0,2096.0,2033.0,1773.0,0.0,0.0,0.0,
1538.0,2094.0,2168.0,2081.0,2028.0,1729.0,0.0,0.0,0.0,
1511.0,1929.0,2124.0,2072.0,2015.0,1719.0,0.0,0.0,0.0,
1483.0,1842.0,2075.0,2059.0,1999.0,1698.0,0.0,0.0,0.0,
1477.0,1842.0,1954.0,2040.0,1986.0,1677.0,0.0,0.0,0.0,
1528.0,1868.0,1848.0,2028.0,1984.0,1701.0,0.0,0.0,0.0,
1636.0,1862.0,1775.0,2013.0,1988.0,1740.0,0.0,0.0,0.0,
1780.0,1812.0,1745.0,1998.0,1985.0,1783.0,3.0,4.0,-1.0,
1921.0,1744.0,1751.0,1991.0,1993.0,1841.0,3.0,5.0,-1.0,
2008.0,1697.0,1789.0,1985.0,1997.0,1905.0,3.0,5.0,-1.0,
2132.0,2000.0,2026.0,2007.0,2020.0,2097.0,0.0,0.0,0.0,
2147.0,2048.0,2099.0,2013.0,2029.0,2082.0,0.0,0.0,0.0,
2127.0,2071.0,2148.0,2016.0,2034.0,2055.0,0.0,0.0,0.0,
2050.0,2072.0,2150.0,2011.0,2033.0,2002.0,0.0,0.0,0.0,
1967.0,2032.0,2130.0,1998.0,2020.0,1951.0,0.0,0.0,0.0,
1919.0,1929.0,2106.0,1979.0,2011.0,1901.0,0.0,0.0,0.0,
1917.0,1803.0,2095.0,1970.0,2001.0,1854.0,0.0,0.0,0.0,
1984.0,1730.0,2111.0,1959.0,1988.0,1841.0,0.0,0.0,0.0,
2059.0,1797.0,2140.0,1961.0,1996.0,1864.0,0.0,0.0,0.0,
2125.0,1982.0,2169.0,1975.0,1996.0,1897.0,0.0,0.0,0.0,
2187.0,2236.0,2194.0,1977.0,2002.0,1933.0,0.0,0.0,0.0,
2215.0,2462.0,2198.0,1990.0,2002.0,1970.0,0.0,0.0,0.0,
2191.0,2670.0,2199.0,2006.0,1999.0,2048.0,0.0,0.0,0.0,
2154.0,2588.0,2162.0,1998.0,2003.0,2048.0,0.0,0.0,0.0,
2093.0,2446.0,2097.0,1984.0,2000.0,2020.0,0.0,0.0,0.0,
2033.0,2301.0,2022.0,1979.0,1994.0,1982.0,4.0,6.0,-1.0,
2034.0,2203.0,1949.0,1975.0,1994.0,1965.0,4.0,7.0,-1.0,
2094.0,2149.0,1907.0,1980.0,1997.0,1994.0,4.0,7.0,-1.0,
2191.0,2135.0,1893.0,1993.0,1999.0,2043.0,0.0,0.0,0.0,
2330.0,2170.0,1913.0,2017.0,2011.0,2131.0,0.0,0.0,0.0,
2413.0,2177.0,1934.0,2027.0,2013.0,2182.0,0.0,0.0,0.0,
2442.0,2132.0,1931.0,2041.0,2013.0,2199.0,0.0,0.0,0.0,
2437.0,1995.0,1915.0,2045.0,2015.0,2173.0,0.0,0.0,0.0,
2422.0,1863.0,1906.0,2055.0,2002.0,2132.0,0.0,0.0,0.0,
2407.0,1798.0,1912.0,2064.0,2009.0,2091.0,0.0,0.0,0.0,
2228.0,2003.0,1942.0,2066.0,2001.0,1965.0,0.0,0.0,0.0,
2174.0,1943.0,1948.0,2060.0,2008.0,1962.0,0.0,0.0,0.0,
2119.0,1865.0,1972.0,2055.0,2007.0,1972.0,0.0,0.0,0.0,
2089.0,1820.0,2002.0,2062.0,2019.0,1991.0,0.0,0.0,0.0,
2086.0,1849.0,2059.0,2075.0,2025.0,2016.0,0.0,0.0,0.0,
2078.0,1924.0,2130.0,2097.0,2035.0,2034.0,0.0,0.0,0.0,
2085.0,1992.0,2163.0,2116.0,2037.0,2045.0,0.0,0.0,0.0,
2080.0,2051.0,2191.0,2138.0,2037.0,2049.0,0.0,0.0,0.0,
2073.0,2073.0,2184.0,2149.0,2038.0,2038.0,4.0,8.0,-1.0,
2062.0,2103.0,2183.0,2158.0,2031.0,2036.0,4.0,8.0,-1.0,
2048.0,2159.0,2187.0,2174.0,2033.0,2035.0,0.0,0.0,0.0,
2028.0,2212.0,2195.0,2189.0,2033.0,2021.0,0.0,0.0,0.0,
1927.0,2305.0,2150.0,2208.0,2040.0,1986.0,0.0,0.0,0.0,
1914.0,2339.0,2139.0,2209.0,2048.0,1985.0,0.0,0.0,0.0,
1906.0,2346.0,2132.0,2206.0,2053.0,1986.0,0.0,0.0,0.0,
1907.0,2309.0,2114.0,2207.0,2058.0,1998.0,0.0,0.0,0.0,
1908.0,2243.0,2102.0,2205.0,2053.0,2005.0,0.0,0.0,0.0,
1912.0,2187.0,2101.0,2204.0,2057.0,2014.0,0.0,0.0,0.0,
1918.0,2153.0,2115.0,2203.0,2055.0,2011.0,0.0,0.0,0.0,
1914.0,2066.0,2107.0,2199.0,2055.0,2004.0,0.0,0.0,0.0,
1903.0,2014.0,2089.0,2198.0,2055.0,2002.0,0.0,0.0,0.0,
1902.0,1977.0,2084.0,2197.0,2051.0,1997.0,0.0,0.0,0.0,
1903.0,1932.0,2078.0,2197.0,2051.0,2005.0,4.0,9.0,0.0,
1901.0,1883.0,2105.0,2190.0,2052.0,1998.0,0.0,0.0,0.0,
1893.0,1872.0,2117.0,2185.0,2053.0,2011.0,0.0,0.0,0.0,
1824.0,1874.0,2043.0,2137.0,2034.0,1990.0,0.0,0.0,0.0,
1825.0,1884.0,2016.0,2125.0,2031.0,1975.0,5.0,10.0,0.0,
1825.0,1914.0,2010.0,2115.0,2035.0,1970.0,5.0,10.0,0.0,
1844.0,1945.0,2001.0,2110.0,2037.0,1971.0,5.0,11.0,0.0,
1861.0,1922.0,1995.0,2098.0,2041.0,1967.0,0.0,0.0,0.0,
1871.0,1850.0,1990.0,2089.0,2043.0,1963.0,0.0,0.0,0.0,
1857.0,1750.0,1977.0,2081.0,2043.0,1947.0,0.0,0.0,0.0,
1815.0,1724.0,1997.0,2077.0,2037.0,1929.0,0.0,0.0,0.0,
1796.0,1754.0,2006.0,2075.0,2037.0,1912.0,0.0,0.0,0.0,
1799.0,1787.0,2007.0,2068.0,2031.0,1886.0,0.0,0.0,0.0,
1820.0,1829.0,1992.0,2062.0,2029.0,1866.0,0.0,0.0,0.0,
1839.0,1905.0,2004.0,2064.0,2032.0,1856.0,0.0,0.0,0.0,
1794.0,2170.0,2068.0,2064.0,2019.0,1828.0,0.0,0.0,0.0,
1779.0,2228.0,2101.0,2069.0,2024.0,1821.0,0.0,0.0,0.0,
1766.0,2244.0,2128.0,2089.0,2028.0,1817.0,0.0,0.0,0.0,
1764.0,2246.0,2141.0,2110.0,2038.0,1821.0,0.0,0.0,0.0,
1786.0,2248.0,2162.0,2123.0,2047.0,1822.0,0.0,0.0,0.0,
1803.0,2244.0,2178.0,2141.0,2054.0,1838.0,0.0,0.0,0.0,
1820.0,2213.0,2178.0,2150.0,2063.0,1862.0,0.0,0.0,0.0,
1826.0,2107.0,2123.0,2155.0,2071.0,1851.0,5.0,11.0,0.0,
1830.0,1969.0,2057.0,2150.0,2067.0,1845.0,5.0,12.0,0.0,
1855.0,1843.0,2002.0,2138.0,2063.0,1832.0,5.0,13.0,0.0,
1882.0,1749.0,1967.0,2128.0,2060.0,1856.0,0.0,0.0,0.0,
1911.0,1689.0,1979.0,2121.0,2069.0,1920.0,0.0,0.0,0.0,
1938.0,1667.0,2002.0,2121.0,2077.0,2015.0,0.0,0.0,0.0,
1899.0,1805.0,2089.0,2097.0,2094.0,2193.0,0.0,0.0,0.0,
1866.0,1889.0,2103.0,2080.0,2075.0,2123.0,0.0,0.0,0.0,
1864.0,1944.0,2110.0,2058.0,2078.0,2024.0,0.0,0.0,0.0,
1893.0,1988.0,2103.0,2055.0,2066.0,1923.0,0.0,0.0,0.0,
1950.0,2048.0,2094.0,2043.0,2052.0,1837.0,0.0,0.0,0.0,
2014.0,2119.0,2092.0,2029.0,2044.0,1769.0,0.0,0.0,0.0,
2066.0,2194.0,2081.0,2023.0,2033.0,1717.0,0.0,0.0,0.0,
2101.0,2286.0,2088.0,2008.0,2022.0,1662.0,0.0,0.0,0.0,
2104.0,2309.0,2083.0,1995.0,2009.0,1642.0,0.0,0.0,0.0,
2088.0,2321.0,2069.0,1999.0,2003.0,1636.0,0.0,0.0,0.0,
2067.0,2336.0,2053.0,1965.0,1992.0,1629.0,0.0,0.0,0.0,
2046.0,2357.0,2050.0,1977.0,1990.0,1648.0,0.0,0.0,0.0,
1903.0,2316.0,2018.0,1976.0,1960.0,1639.0,5.0,13.0,0.0,
1897.0,2243.0,2017.0,1978.0,1962.0,1654.0,5.0,14.0,0.0,
1911.0,2138.0,2005.0,1981.0,1960.0,1681.0,0.0,0.0,0.0,
1913.0,2006.0,1988.0,1986.0,1958.0,1706.0,0.0,0.0,0.0,
1932.0,1902.0,1967.0,1987.0,1956.0,1742.0,0.0,0.0,0.0,
2011.0,1835.0,1953.0,1999.0,1967.0,1834.0,0.0,0.0,0.0,
2139.0,1833.0,1960.0,2014.0,1982.0,1966.0,0.0,0.0,0.0,
2309.0,1938.0,2014.0,2028.0,2001.0,2177.0,0.0,0.0,0.0,
2410.0,2083.0,2050.0,2037.0,2021.0,2305.0,0.0,0.0,0.0,
2475.0,2197.0,2082.0,2042.0,2037.0,2400.0,0.0,0.0,0.0,
2501.0,2260.0,2094.0,2041.0,2051.0,2441.0,0.0,0.0,0.0,
2491.0,2270.0,2083.0,2041.0,2060.0,2445.0,0.0,0.0,0.0,
2273.0,2300.0,2012.0,2030.0,2038.0,2257.0,0.0,0.0,0.0,
2248.0,2324.0,2019.0,2020.0,2040.0,2206.0,0.0,0.0,0.0,
2267.0,2328.0,2031.0,2023.0,2039.0,2187.0,0.0,0.0,0.0,
2316.0,2327.0,2059.0,2020.0,2040.0,2198.0,0.0,0.0,0.0,
2352.0,2325.0,2067.0,2019.0,2047.0,2235.0,0.0,0.0,0.0,
2377.0,2327.0,2088.0,2019.0,2053.0,2290.0,0.0,0.0,0.0,
2392.0,2295.0,2109.0,2025.0,2061.0,2348.0,0.0,0.0,0.0,
2377.0,2126.0,2145.0,2036.0,2078.0,2405.0,5.0,15.0,1.0,
2340.0,1980.0,2162.0,2041.0,2082.0,2418.0,5.0,15.0,1.0,
2278.0,1873.0,2187.0,2049.0,2085.0,2389.0,5.0,16.0,1.0,
2202.0,1846.0,2205.0,2051.0,2083.0,2330.0,5.0,17.0,1.0,
2133.0,1885.0,2198.0,2034.0,2075.0,2251.0,0.0,0.0,0.0,
2074.0,1958.0,2184.0,2041.0,2062.0,2163.0,0.0,0.0,0.0,
1881.0,1981.0,2065.0,2020.0,2020.0,2021.0,0.0,0.0,0.0,
1844.0,2042.0,2102.0,2027.0,2025.0,2005.0,0.0,0.0,0.0,
1805.0,2126.0,2133.0,2032.0,2032.0,1962.0,0.0,0.0,0.0,
1779.0,2187.0,2139.0,2038.0,2032.0,1936.0,0.0,0.0,0.0,
1810.0,2167.0,2123.0,2042.0,2042.0,1907.0,0.0,0.0,0.0,
1852.0,2072.0,2093.0,2053.0,2049.0,1895.0,0.0,0.0,0.0,
1909.0,1915.0,2062.0,2057.0,2060.0,1895.0,0.0,0.0,0.0,
2006.0,1730.0,2064.0,2074.0,2075.0,1913.0,0.0,0.0,0.0,
2029.0,1690.0,2095.0,2081.0,2077.0,1911.0,0.0,0.0,0.0,
2001.0,1689.0,2124.0,2084.0,2080.0,1878.0,0.0,0.0,0.0,
1948.0,1696.0,2126.0,2086.0,2073.0,1864.0,0.0,0.0,0.0,
1918.0,1698.0,2111.0,2080.0,2068.0,1878.0,0.0,0.0,0.0,
2437.0,1931.0,2144.0,2095.0,2094.0,2645.0,0.0,0.0,0.0,
2557.0,1988.0,2161.0,2095.0,2109.0,2800.0,0.0,0.0,0.0,
2537.0,2061.0,2159.0,2092.0,2112.0,2855.0,0.0,0.0,0.0,
2420.0,2135.0,2139.0,2086.0,2099.0,2825.0,0.0,0.0,0.0,
2263.0,2205.0,2126.0,2074.0,2088.0,2750.0,0.0,0.0,0.0,
2124.0,2206.0,2101.0,2065.0,2082.0,2680.0,0.0,0.0,0.0,
2042.0,2127.0,2077.0,2069.0,2084.0,2652.0,5.0,17.0,1.0,
2025.0,2034.0,2045.0,2078.0,2096.0,2632.0,5.0,18.0,1.0,
2096.0,2031.0,2046.0,2086.0,2106.0,2662.0,0.0,0.0,0.0,
2181.0,2097.0,2054.0,2092.0,2108.0,2690.0,0.0,0.0,0.0,
2218.0,2186.0,2052.0,2084.0,2107.0,2689.0,0.0,0.0,0.0,
2233.0,2271.0,2042.0,2083.0,2091.0,2653.0,0.0,0.0,0.0,
2179.0,2224.0,1994.0,2067.0,2054.0,2359.0,0.0,0.0,0.0,
2192.0,2198.0,2008.0,2065.0,2047.0,2270.0,0.0,0.0,0.0,
2197.0,2193.0,2017.0,2057.0,2040.0,2188.0,0.0,0.0,0.0,
2181.0,2194.0,2024.0,2050.0,2027.0,2124.0,0.0,0.0,0.0,
2148.0,2175.0,2027.0,2044.0,2012.0,2067.0,0.0,0.0,0.0,
2091.0,2120.0,2021.0,2036.0,2011.0,2013.0,0.0,0.0,0.0,
2017.0,2002.0,2006.0,2035.0,2004.0,1956.0,5.0,19.0,1.0,
1928.0,1870.0,2032.0,2037.0,2006.0,1905.0,5.0,19.0,1.0,
1906.0,1847.0,2058.0,2042.0,2005.0,1864.0,5.0,20.0,1.0,
1906.0,1887.0,2097.0,2045.0,1994.0,1800.0,0.0,0.0,0.0,
1916.0,1988.0,2119.0,2045.0,1985.0,1743.0,0.0,0.0,0.0,
1921.0,2101.0,2126.0,2046.0,1982.0,1688.0,0.0,0.0,0.0,
1929.0,2206.0,2131.0,2045.0,1977.0,1674.0,0.0,0.0,0.0,
2131.0,2459.0,2182.0,2061.0,1985.0,1816.0,0.0,0.0,0.0,
2188.0,2381.0,2210.0,2065.0,1999.0,1792.0,0.0,0.0,0.0,
2185.0,2226.0,2220.0,2070.0,2000.0,1754.0,0.0,0.0,0.0,
2153.0,2024.0,2208.0,2072.0,1993.0,1714.0,0.0,0.0,0.0,
2134.0,1864.0,2180.0,2068.0,1993.0,1673.0,0.0,0.0,0.0,
2110.0,1767.0,2150.0,2059.0,1986.0,1631.0,0.0,0.0,0.0,
2080.0,1693.0,2085.0,2054.0,1974.0,1578.0,0.0,0.0,0.0,
2072.0,1639.0,2003.0,2045.0,1974.0,1590.0,0.0,0.0,0.0,
2094.0,1642.0,1984.0,2046.0,1979.0,1670.0,0.0,0.0,0.0,
2133.0,1678.0,2006.0,2058.0,1993.0,1815.0,0.0,0.0,0.0,
2201.0,1762.0,2048.0,2076.0,2017.0,2048.0,0.0,0.0,0.0,
2268.0,1900.0,2087.0,2090.0,2051.0,2276.0,5.0,21.0,1.0,
2022.0,2263.0,2055.0,2117.0,2064.0,2388.0,5.0,21.0,2.0,
1902.0,2348.0,2039.0,2110.0,2059.0,2291.0,5.0,22.0,2.0,
1842.0,2428.0,2032.0,2109.0,2059.0,2257.0,5.0,23.0,2.0,
1889.0,2505.0,2051.0,2116.0,2062.0,2314.0,5.0,23.0,2.0,
2009.0,2537.0,2062.0,2129.0,2082.0,2429.0,0.0,0.0,0.0,
2150.0,2450.0,2060.0,2142.0,2101.0,2548.0,0.0,0.0,0.0,
2265.0,2275.0,2051.0,2157.0,2123.0,2646.0,0.0,0.0,0.0,
2356.0,2030.0,2100.0,2170.0,2153.0,2729.0,0.0,0.0,0.0,
2377.0,1932.0,2133.0,2169.0,2161.0,2749.0,0.0,0.0,0.0,
2354.0,1891.0,2172.0,2161.0,2154.0,2717.0,0.0,0.0,0.0,
2251.0,1873.0,2203.0,2150.0,2139.0,2621.0,0.0,0.0,0.0,
2097.0,1825.0,2219.0,2135.0,2123.0,2476.0,0.0,0.0,0.0,
1580.0,1388.0,2096.0,2069.0,2032.0,1973.0,0.0,0.0,0.0,
1538.0,1428.0,2067.0,2055.0,2021.0,1858.0,0.0,0.0,0.0,
1549.0,1439.0,2030.0,2045.0,2010.0,1757.0,0.0,0.0,0.0,
1586.0,1455.0,1997.0,2033.0,2002.0,1709.0,0.0,0.0,0.0,
1628.0,1560.0,1986.0,2030.0,2001.0,1701.0,0.0,0.0,0.0,
1635.0,1720.0,1985.0,2034.0,2002.0,1719.0,0.0,0.0,0.0,
1610.0,1858.0,1961.0,2029.0,2003.0,1759.0,0.0,0.0,0.0,
1552.0,1929.0,1939.0,2013.0,1995.0,1782.0,0.0,0.0,0.0,
1511.0,2020.0,1944.0,2005.0,1999.0,1764.0,0.0,0.0,0.0,
1515.0,2198.0,1956.0,2004.0,1984.0,1733.0,0.0,0.0,0.0,
1543.0,2395.0,1974.0,1980.0,1977.0,1693.0,0.0,0.0,0.0,
1581.0,2564.0,1988.0,1997.0,1968.0,1651.0,0.0,0.0,0.0,
1648.0,2791.0,1990.0,1997.0,1968.0,1655.0,0.0,0.0,0.0,
2433.0,3443.0,2120.0,2052.0,2038.0,2339.0,0.0,0.0,0.0,
2497.0,3308.0,2160.0,2065.0,2064.0,2425.0,5.0,24.0,2.0,
2515.0,3098.0,2177.0,2072.0,2081.0,2457.0,5.0,25.0,2.0,
2528.0,2838.0,2166.0,2075.0,2081.0,2444.0,6.0,25.0,2.0,
2534.0,2565.0,2136.0,2068.0,2070.0,2393.0,0.0,0.0,0.0,
2495.0,2301.0,2096.0,2055.0,2049.0,2302.0,0.0,0.0,0.0,
2422.0,2022.0,2018.0,2045.0,2021.0,2185.0,0.0,0.0,0.0,
2367.0,1591.0,1937.0,2041.0,2003.0,2058.0,0.0,0.0,0.0,
2374.0,1333.0,1929.0,2050.0,2008.0,2040.0,0.0,0.0,0.0,
2386.0,1116.0,1943.0,2065.0,2024.0,2085.0,0.0,0.0,0.0,
2347.0,974.0,1970.0,2081.0,2049.0,2159.0,0.0,0.0,0.0,
2263.0,897.0,1998.0,2102.0,2076.0,2263.0,0.0,0.0,0.0,
1970.0,1270.0,2063.0,2114.0,2088.0,2324.0,0.0,0.0,0.0,
1868.0,1417.0,2118.0,2113.0,2097.0,2237.0,0.0,0.0,0.0,
1775.0,1543.0,2145.0,2114.0,2091.0,2161.0,0.0,0.0,0.0,
1677.0,1629.0,2159.0,2109.0,2081.0,2088.0,0.0,0.0,0.0,
1631.0,1687.0,2150.0,2101.0,2068.0,2021.0,0.0,0.0,0.0,
1644.0,1754.0,2138.0,2091.0,2057.0,1977.0,0.0,0.0,0.0,
1708.0,1882.0,2143.0,2086.0,2046.0,1955.0,0.0,0.0,0.0,
1822.0,2129.0,2149.0,2082.0,2037.0,1977.0,6.0,26.0,3.0,
1900.0,2252.0,2128.0,2072.0,2036.0,2013.0,0.0,0.0,0.0,
1994.0,2335.0,2094.0,2066.0,2031.0,2088.0,0.0,0.0,0.0,
2086.0,2378.0,2057.0,2065.0,2026.0,2164.0,0.0,0.0,0.0,
2153.0,2396.0,2016.0,2054.0,2023.0,2233.0,0.0,0.0,0.0,
2189.0,2365.0,1964.0,2048.0,2028.0,2278.0,0.0,0.0,0.0,
2237.0,1992.0,1838.0,2049.0,2017.0,2164.0,0.0,0.0,0.0,
2267.0,1948.0,1866.0,2056.0,2034.0,2136.0,0.0,0.0,0.0,
2351.0,1998.0,1894.0,2064.0,2039.0,2101.0,0.0,0.0,0.0,
2464.0,2100.0,1931.0,2069.0,2035.0,2055.0,6.0,27.0,3.0,
2530.0,2224.0,1965.0,2066.0,2033.0,2009.0,6.0,27.0,3.0,
2544.0,2308.0,2002.0,2067.0,2029.0,1970.0,7.0,28.0,3.0,
2552.0,2354.0,2056.0,2068.0,2023.0,1940.0,7.0,28.0,3.0,
2571.0,2425.0,2135.0,2073.0,2014.0,1884.0,7.0,29.0,4.0,
2538.0,2459.0,2166.0,2073.0,2010.0,1824.0,8.0,29.0,4.0,
2446.0,2454.0,2172.0,2071.0,2001.0,1755.0,0.0,0.0,0.0,
2312.0,2430.0,2184.0,2071.0,1995.0,1672.0,0.0,0.0,0.0,
2174.0,2333.0,2205.0,2073.0,1988.0,1599.0,0.0,0.0,0.0,
1911.0,1580.0,2255.0,2083.0,1980.0,1615.0,0.0,0.0,0.0,
1903.0,1479.0,2230.0,2099.0,2001.0,1713.0,0.0,0.0,0.0,
1925.0,1494.0,2209.0,2110.0,2022.0,1833.0,0.0,0.0,0.0,
1911.0,1616.0,2173.0,2116.0,2034.0,1910.0,0.0,0.0,0.0,
1830.0,1768.0,2127.0,2115.0,2038.0,1921.0,0.0,0.0,0.0,
1712.0,1935.0,2073.0,2109.0,2032.0,1889.0,0.0,0.0,0.0,
1617.0,2072.0,2016.0,2099.0,2017.0,1866.0,0.0,0.0,0.0,
1545.0,2213.0,1992.0,2091.0,2026.0,1876.0,0.0,0.0,0.0,
1526.0,2157.0,1973.0,2087.0,2024.0,1910.0,0.0,0.0,0.0,
1526.0,1993.0,1960.0,2082.0,2031.0,1978.0,0.0,0.0,0.0,
1539.0,1783.0,1964.0,2080.0,2035.0,2058.0,0.0,0.0,0.0,
1521.0,1543.0,1933.0,2078.0,2040.0,2084.0,0.0,0.0,0.0,
1516.0,1318.0,1913.0,2080.0,2044.0,2080.0,0.0,0.0,0.0,
1812.0,1224.0,1920.0,2072.0,2017.0,1926.0,0.0,0.0,0.0,
1910.0,1353.0,2004.0,2075.0,2038.0,1890.0,0.0,0.0,0.0,
1979.0,1466.0,2064.0,2080.0,2028.0,1866.0,0.0,0.0,0.0,
2022.0,1559.0,2109.0,2081.0,2030.0,1847.0,0.0,0.0,0.0,
2039.0,1638.0,2149.0,2089.0,2037.0,1847.0,0.0,0.0,0.0,
2090.0,1740.0,2182.0,2093.0,2035.0,1874.0,0.0,0.0,0.0,
2142.0,1854.0,2191.0,2093.0,2034.0,1928.0,0.0,0.0,0.0,
2167.0,1980.0,2136.0,2083.0,2033.0,2002.0,0.0,0.0,0.0,
2079.0,2107.0,2090.0,2077.0,2031.0,2016.0,0.0,0.0,0.0,
1945.0,2320.0,2073.0,2065.0,2027.0,1998.0,0.0,0.0,0.0,
1839.0,2601.0,2079.0,2063.0,2026.0,2005.0,0.0,0.0,0.0,
1825.0,2819.0,2095.0,2070.0,2035.0,2079.0,0.0,0.0,0.0,
2342.0,2762.0,2165.0,2102.0,2074.0,2477.0,0.0,0.0,0.0,
2390.0,2775.0,2243.0,2104.0,2086.0,2488.0,0.0,0.0,0.0,
2354.0,2758.0,2279.0,2103.0,2089.0,2463.0,8.0,30.0,4.0,
2303.0,2773.0,2321.0,2100.0,2089.0,2424.0,0.0,0.0,0.0,
2238.0,2754.0,2345.0,2090.0,2085.0,2391.0,0.0,0.0,0.0,
2180.0,2612.0,2345.0,2079.0,2083.0,2335.0,0.0,0.0,0.0,
2114.0,2340.0,2316.0,2061.0,2071.0,2240.0,0.0,0.0,0.0,
2027.0,2047.0,2263.0,2036.0,2049.0,2104.0,0.0,0.0,0.0,
1959.0,1980.0,2258.0,2017.0,2039.0,2009.0,0.0,0.0,0.0,
1899.0,2007.0,2263.0,1999.0,2016.0,1950.0,0.0,0.0,0.0,
1915.0,2124.0,2282.0,1990.0,2001.0,1944.0,0.0,0.0,0.0,
2018.0,2300.0,2300.0,1991.0,2004.0,2008.0,0.0,0.0,0.0,
2154.0,2415.0,2312.0,2002.0,2011.0,2095.0,8.0,30.0,4.0,
1981.0,1988.0,2133.0,1996.0,1997.0,1972.0,8.0,31.0,5.0,
1958.0,1761.0,2100.0,2001.0,1991.0,1832.0,8.0,31.0,5.0,
1992.0,1545.0,2064.0,1993.0,1973.0,1694.0,9.0,31.0,5.0,
2052.0,1392.0,2029.0,1992.0,1964.0,1620.0,9.0,32.0,5.0,
2110.0,1284.0,1999.0,1997.0,1964.0,1609.0,0.0,0.0,0.0,
2169.0,1261.0,1973.0,2006.0,1971.0,1674.0,0.0,0.0,0.0,
2248.0,1344.0,1920.0,2022.0,1987.0,1800.0,0.0,0.0,0.0,
2347.0,1595.0,1878.0,2038.0,2011.0,1997.0,0.0,0.0,0.0,
2374.0,1777.0,1844.0,2048.0,2025.0,2108.0,0.0,0.0,0.0,
2317.0,1940.0,1843.0,2052.0,2026.0,2142.0,0.0,0.0,0.0,
2218.0,2094.0,1854.0,2059.0,2023.0,2094.0,0.0,0.0,0.0,
1950.0,2449.0,1785.0,2042.0,1966.0,1839.0,0.0,0.0,0.0,
1866.0,2508.0,1767.0,2037.0,1964.0,1751.0,0.0,0.0,0.0,
1851.0,2547.0,1786.0,2035.0,1976.0,1792.0,0.0,0.0,0.0,
1921.0,2546.0,1801.0,2032.0,2003.0,1918.0,0.0,0.0,0.0,
2045.0,2488.0,1800.0,2037.0,2027.0,2091.0,0.0,0.0,0.0,
2159.0,2386.0,1816.0,2043.0,2041.0,2237.0,0.0,0.0,0.0,
2235.0,2277.0,1919.0,2058.0,2058.0,2324.0,0.0,0.0,0.0,
2242.0,2185.0,2079.0,2073.0,2063.0,2307.0,0.0,0.0,0.0,
2163.0,2064.0,2212.0,2080.0,2049.0,2126.0,0.0,0.0,0.0,
2088.0,1935.0,2250.0,2079.0,2037.0,1952.0,0.0,0.0,0.0,
2000.0,1799.0,2241.0,2068.0,2003.0,1812.0,0.0,0.0,0.0,
1897.0,1745.0,2226.0,2071.0,2009.0,1718.0,0.0,0.0,0.0,
1848.0,1719.0,2193.0,2081.0,2008.0,1709.0,0.0,0.0,0.0,
1980.0,2397.0,2044.0,2129.0,1998.0,1786.0,0.0,0.0,0.0,
1877.0,2510.0,2037.0,2134.0,2005.0,1772.0,9.0,32.0,5.0,
1719.0,2469.0,2005.0,2131.0,2009.0,1751.0,9.0,33.0,6.0,
1612.0,2339.0,1984.0,2106.0,2021.0,1796.0,9.0,33.0,6.0,
1600.0,2168.0,1964.0,2075.0,2021.0,1877.0,0.0,0.0,0.0,
1638.0,1949.0,1947.0,2051.0,2020.0,1958.0,0.0,0.0,0.0,
1618.0,1685.0,1916.0,2035.0,2020.0,2024.0,0.0,0.0,0.0,
1461.0,1218.0,1835.0,2031.0,2027.0,2101.0,0.0,0.0,0.0,
1419.0,952.0,1789.0,2055.0,2044.0,2175.0,0.0,0.0,0.0,
1516.0,897.0,1775.0,2093.0,2071.0,2316.0,0.0,0.0,0.0,
1733.0,1033.0,1792.0,2125.0,2108.0,2509.0,0.0,0.0,0.0,
1998.0,1302.0,1811.0,2144.0,2140.0,2707.0,0.0,0.0,0.0,
2402.0,2180.0,1997.0,2152.0,2179.0,2900.0,0.0,0.0,0.0,
2384.0,2321.0,2041.0,2144.0,2184.0,2829.0,0.0,0.0,0.0,
2341.0,2387.0,2067.0,2129.0,2180.0,2708.0,0.0,0.0,0.0,
2352.0,2371.0,2051.0,2113.0,2158.0,2554.0,0.0,0.0,0.0,
2449.0,2284.0,2032.0,2107.0,2138.0,2393.0,0.0,0.0,0.0,
2587.0,2170.0,1990.0,2087.0,2120.0,2274.0,0.0,0.0,0.0,
2708.0,2107.0,1967.0,2075.0,2106.0,2185.0,0.0,0.0,0.0,
2794.0,2101.0,1966.0,2059.0,2096.0,2121.0,10.0,34.0,6.0,
2794.0,2106.0,1979.0,2052.0,2087.0,2098.0,10.0,34.0,6.0,
2716.0,2109.0,1990.0,2046.0,2080.0,2098.0,10.0,34.0,6.0,
2590.0,2106.0,2016.0,2043.0,2076.0,2119.0,0.0,0.0,0.0,
2459.0,2126.0,2024.0,2039.0,2073.0,2160.0,0.0,0.0,0.0,
2344.0,2167.0,2025.0,2040.0,2074.0,2172.0,0.0,0.0,0.0,
1749.0,2274.0,2028.0,2023.0,2002.0,1911.0,0.0,0.0,0.0,
1688.0,2196.0,2073.0,2033.0,2008.0,1923.0,0.0,0.0,0.0,
1682.0,2083.0,2101.0,2038.0,2019.0,1995.0,0.0,0.0,0.0,
1711.0,2008.0,2121.0,2048.0,2028.0,2090.0,0.0,0.0,0.0,
1758.0,2010.0,2178.0,2069.0,2033.0,2174.0,0.0,0.0,0.0,
1795.0,2109.0,2239.0,2093.0,2043.0,2219.0,0.0,0.0,0.0,
1795.0,2213.0,2299.0,2127.0,2055.0,2211.0,0.0,0.0,0.0,
1816.0,2124.0,2324.0,2165.0,2063.0,2152.0,0.0,0.0,0.0,
1878.0,1966.0,2322.0,2187.0,2067.0,2117.0,0.0,0.0,0.0,
2044.0,1884.0,2306.0,2204.0,2067.0,2089.0,0.0,0.0,0.0,
2200.0,1907.0,2289.0,2203.0,2065.0,2047.0,0.0,0.0,0.0,
2308.0,2010.0,2271.0,2199.0,2057.0,2036.0,0.0,0.0,0.0,
2435.0,2263.0,2227.0,2185.0,2054.0,2213.0,0.0,0.0,0.0,
2482.0,2247.0,2239.0,2184.0,2068.0,2277.0,10.0,35.0,7.0,
2476.0,2206.0,2235.0,2178.0,2080.0,2297.0,10.0,35.0,7.0,
2398.0,2168.0,2228.0,2175.0,2081.0,2263.0,0.0,0.0,0.0,
2283.0,2134.0,2211.0,2168.0,2080.0,2219.0,0.0,0.0,0.0,
2217.0,2192.0,2210.0,2164.0,2075.0,2188.0,0.0,0.0,0.0,
2248.0,2305.0,2220.0,2165.0,2074.0,2149.0,0.0,0.0,0.0,
2377.0,2493.0,2171.0,2161.0,2068.0,2108.0,0.0,0.0,0.0,
2450.0,2504.0,2127.0,2154.0,2073.0,2146.0,0.0,0.0,0.0,
2472.0,2483.0,2096.0,2151.0,2080.0,2207.0,0.0,0.0,0.0,
2439.0,2530.0,2111.0,2148.0,2081.0,2276.0,0.0,0.0,0.0,
2356.0,2612.0,2140.0,2151.0,2079.0,2298.0,0.0,0.0,0.0,
2126.0,2532.0,2130.0,2137.0,2070.0,2258.0,0.0,0.0,0.0,
1200.0,948.0,1902.0,2056.0,1942.0,1773.0,0.0,0.0,0.0,
1108.0,927.0,1890.0,2049.0,1936.0,1641.0,0.0,0.0,0.0,
1008.0,978.0,1860.0,2037.0,1917.0,1505.0,0.0,0.0,0.0,
963.0,1160.0,1871.0,2031.0,1910.0,1459.0,0.0,0.0,0.0,
1038.0,1426.0,1903.0,2033.0,1907.0,1488.0,0.0,0.0,0.0,
1188.0,1637.0,1936.0,2040.0,1922.0,1599.0,0.0,0.0,0.0,
1396.0,1804.0,1965.0,2057.0,1955.0,1768.0,10.0,35.0,7.0,
1776.0,1974.0,2015.0,2092.0,2005.0,2065.0,11.0,36.0,7.0,
2046.0,2071.0,2074.0,2114.0,2049.0,2252.0,11.0,36.0,7.0,
2257.0,2271.0,2155.0,2138.0,2077.0,2378.0,11.0,36.0,7.0,
2404.0,2519.0,2218.0,2151.0,2094.0,2434.0,0.0,0.0,0.0,
2487.0,2733.0,2232.0,2152.0,2090.0,2397.0,0.0,0.0,0.0,
2732.0,3015.0,2134.0,2101.0,2003.0,2113.0,0.0,0.0,0.0,
2742.0,3021.0,2153.0,2093.0,2006.0,2106.0,0.0,0.0,0.0,
2687.0,2983.0,2185.0,2092.0,2012.0,2115.0,0.0,0.0,0.0,
2581.0,2878.0,2200.0,2096.0,2022.0,2122.0,0.0,0.0,0.0,
2465.0,2729.0,2193.0,2096.0,2029.0,2106.0,0.0,0.0,0.0,
2344.0,2576.0,2180.0,2097.0,2036.0,2065.0,0.0,0.0,0.0,
2191.0,2410.0,2155.0,2096.0,2036.0,2024.0,0.0,0.0,0.0,
1977.0,2080.0,2074.0,2086.0,2032.0,1927.0,0.0,0.0,0.0,
1822.0,1777.0,1986.0,2074.0,2026.0,1846.0,0.0,0.0,0.0,
1694.0,1513.0,1902.0,2064.0,2015.0,1754.0,0.0,0.0,0.0,
1631.0,1280.0,1830.0,2056.0,2012.0,1716.0,0.0,0.0,0.0,
1674.0,1211.0,1839.0,2055.0,2019.0,1737.0,0.0,0.0,0.0,
1754.0,2328.0,2159.0,2081.0,2045.0,1929.0,0.0,0.0,0.0,
1857.0,2426.0,2180.0,2080.0,2054.0,1953.0,11.0,37.0,7.0,
1953.0,2494.0,2187.0,2085.0,2056.0,1980.0,11.0,37.0,8.0,
1999.0,2560.0,2171.0,2082.0,2049.0,1965.0,0.0,0.0,0.0,
1985.0,2567.0,2163.0,2079.0,2039.0,1939.0,0.0,0.0,0.0,
1954.0,2474.0,2109.0,2074.0,2043.0,1921.0,0.0,0.0,0.0,
1910.0,2304.0,2045.0,2074.0,2042.0,1930.0,0.0,0.0,0.0,
1913.0,2044.0,1947.0,2077.0,2053.0,2044.0,0.0,0.0,0.0,
2035.0,1817.0,1922.0,2081.0,2071.0,2203.0,0.0,0.0,0.0,
2188.0,1610.0,1964.0,2084.0,2075.0,2342.0,0.0,0.0,0.0,
2267.0,1531.0,2022.0,2086.0,2094.0,2392.0,0.0,0.0,0.0,
2203.0,1581.0,2082.0,2082.0,2084.0,2330.0,0.0,0.0,0.0,
1793.0,1789.0,2195.0,2089.0,2070.0,2160.0,0.0,0.0,0.0,
1849.0,1697.0,2221.0,2091.0,2084.0,2222.0,0.0,0.0,0.0,
1864.0,1637.0,2233.0,2095.0,2092.0,2261.0,0.0,0.0,0.0,
1832.0,1584.0,2204.0,2086.0,2088.0,2230.0,0.0,0.0,0.0,
1767.0,1509.0,2157.0,2074.0,2072.0,2151.0,0.0,0.0,0.0,
1702.0,1442.0,2104.0,2059.0,2054.0,2050.0,0.0,0.0,0.0,
1694.0,1413.0,2068.0,2049.0,2037.0,1976.0,12.0,37.0,8.0,
1804.0,1435.0,2039.0,2044.0,2035.0,1949.0,12.0,38.0,8.0,
1919.0,1615.0,2018.0,2044.0,2039.0,1961.0,12.0,38.0,8.0,
2109.0,1925.0,2022.0,2041.0,2036.0,2004.0,12.0,38.0,8.0,
2343.0,2204.0,2032.0,2044.0,2038.0,2092.0,12.0,38.0,8.0,
2592.0,2438.0,2066.0,2046.0,2044.0,2195.0,0.0,0.0,0.0,
2818.0,2560.0,2080.0,2053.0,2049.0,2258.0,0.0,0.0,0.0,
2835.0,2608.0,2074.0,2057.0,2015.0,2128.0,0.0,0.0,0.0,
2746.0,2525.0,2077.0,2061.0,2013.0,2039.0,0.0,0.0,0.0,
2660.0,2391.0,2079.0,2041.0,2004.0,1902.0,0.0,0.0,0.0,
2474.0,2173.0,2071.0,2022.0,1983.0,1734.0,0.0,0.0,0.0,
2219.0,1864.0,2046.0,2002.0,1960.0,1569.0,0.0,0.0,0.0,
1955.0,1523.0,2027.0,1988.0,1936.0,1444.0,0.0,0.0,0.0,
1705.0,1320.0,2028.0,1988.0,1928.0,1373.0,0.0,0.0,0.0,
1516.0,1355.0,2107.0,2005.0,1951.0,1419.0,0.0,0.0,0.0,
1537.0,1491.0,2134.0,2022.0,1965.0,1502.0,0.0,0.0,0.0,
1616.0,1606.0,2114.0,2030.0,1979.0,1544.0,0.0,0.0,0.0,
1694.0,1691.0,2055.0,2025.0,1975.0,1561.0,0.0,0.0,0.0,
1752.0,1734.0,1996.0,2023.0,1974.0,1555.0,0.0,0.0,0.0,
1527.0,1799.0,1934.0,2009.0,1959.0,1552.0,0.0,0.0,0.0,
1366.0,1852.0,1970.0,2003.0,1950.0,1512.0,0.0,0.0,0.0,
1340.0,1946.0,1997.0,2003.0,1950.0,1498.0,0.0,0.0,0.0,
1467.0,2029.0,2028.0,2010.0,1960.0,1553.0,0.0,0.0,0.0,
1633.0,2069.0,2056.0,2023.0,1975.0,1642.0,0.0,0.0,0.0,
1816.0,2056.0,2105.0,2033.0,1992.0,1779.0,0.0,0.0,0.0,
1982.0,1991.0,2136.0,2045.0,2012.0,1936.0,0.0,0.0,0.0,
2242.0,1922.0,2169.0,2065.0,2052.0,2241.0,0.0,0.0,0.0,
2416.0,1860.0,2179.0,2082.0,2089.0,2489.0,12.0,39.0,8.0,
2489.0,1846.0,2170.0,2095.0,2113.0,2661.0,0.0,0.0,0.0,
2398.0,1869.0,2133.0,2095.0,2118.0,2722.0,0.0,0.0,0.0,
2203.0,1968.0,2121.0,2091.0,2117.0,2701.0,0.0,0.0,0.0,
2000.0,2059.0,2105.0,2079.0,2102.0,2628.0,0.0,0.0,0.0,
1859.0,2383.0,2129.0,2087.0,2094.0,2591.0,0.0,0.0,0.0,
1992.0,2581.0,2179.0,2094.0,2121.0,2684.0,0.0,0.0,0.0,
2049.0,2741.0,2233.0,2100.0,2136.0,2761.0,0.0,0.0,0.0,
2053.0,2805.0,2286.0,2116.0,2156.0,2802.0,0.0,0.0,0.0,
2066.0,2797.0,2343.0,2125.0,2177.0,2816.0,0.0,0.0,0.0,
2038.0,2678.0,2380.0,2135.0,2186.0,2768.0,12.0,39.0,8.0,
1993.0,2479.0,2367.0,2132.0,2173.0,2685.0,12.0,39.0,8.0,
1996.0,2150.0,2329.0,2126.0,2154.0,2543.0,12.0,39.0,8.0,
2156.0,1949.0,2298.0,2123.0,2141.0,2468.0,0.0,0.0,0.0,
2330.0,1745.0,2268.0,2112.0,2126.0,2427.0,0.0,0.0,0.0,
2390.0,1602.0,2224.0,2101.0,2104.0,2363.0,0.0,0.0,0.0,
2016.0,2142.0,2175.0,2066.0,2022.0,1954.0,0.0,0.0,0.0,
1826.0,2586.0,2177.0,2051.0,2005.0,1637.0,0.0,0.0,0.0,
1737.0,2780.0,2180.0,2047.0,1995.0,1430.0,0.0,0.0,0.0,
1636.0,2838.0,2151.0,2041.0,1981.0,1293.0,0.0,0.0,0.0,
1606.0,2742.0,2103.0,2035.0,1979.0,1286.0,0.0,0.0,0.0,
1565.0,2540.0,2068.0,2034.0,1977.0,1311.0,0.0,0.0,0.0,
1506.0,2293.0,2055.0,2035.0,1973.0,1301.0,0.0,0.0,0.0,
1527.0,2053.0,2058.0,2029.0,1965.0,1215.0,0.0,0.0,0.0,
1619.0,1768.0,2030.0,2010.0,1931.0,1021.0,0.0,0.0,0.0,
1677.0,1482.0,1956.0,1985.0,1905.0,904.0,0.0,0.0,0.0,
1649.0,1138.0,1866.0,1971.0,1892.0,874.0,0.0,0.0,0.0,
1723.0,960.0,1797.0,1969.0,1903.0,1008.0,0.0,0.0,0.0,
1876.0,975.0,1784.0,1985.0,1930.0,1246.0,13.0,40.0,8.0,
2382.0,1918.0,1823.0,2070.0,2092.0,2617.0,13.0,40.0,8.0,
2242.0,2085.0,1864.0,2079.0,2126.0,2741.0,13.0,40.0,8.0,
2178.0,2248.0,1915.0,2103.0,2141.0,2814.0,0.0,0.0,0.0,
2228.0,2405.0,1952.0,2106.0,2137.0,2807.0,0.0,0.0,0.0,
2301.0,2567.0,1984.0,2106.0,2132.0,2755.0,0.0,0.0,0.0,
2351.0,2680.0,2000.0,2112.0,2118.0,2705.0,0.0,0.0,0.0,
2407.0,2746.0,1993.0,2113.0,2110.0,2650.0,0.0,0.0,0.0,
2519.0,2842.0,1957.0,2105.0,2095.0,2530.0,0.0,0.0,0.0,
2522.0,2867.0,1903.0,2090.0,2077.0,2437.0,0.0,0.0,0.0,
2506.0,2763.0,1833.0,2100.0,2076.0,2388.0,0.0,0.0,0.0,
2503.0,2546.0,1762.0,2086.0,2082.0,2393.0,0.0,0.0,0.0,
2462.0,2298.0,1731.0,2080.0,2086.0,2420.0,0.0,0.0,0.0,
2081.0,1643.0,1821.0,2054.0,2058.0,2290.0,0.0,0.0,0.0,
2143.0,1525.0,1879.0,2053.0,2071.0,2367.0,13.0,40.0,8.0,
2235.0,1448.0,1899.0,2051.0,2084.0,2475.0,0.0,0.0,0.0,
2332.0,1438.0,1875.0,2047.0,2096.0,2580.0,0.0,0.0,0.0,
2431.0,1501.0,1853.0,2054.0,2102.0,2650.0,0.0,0.0,0.0,
2436.0,1614.0,1842.0,2067.0,2102.0,2656.0,0.0,0.0,0.0,
2442.0,1754.0,1869.0,2076.0,2109.0,2630.0,0.0,0.0,0.0,
2541.0,1922.0,1936.0,2088.0,2109.0,2555.0,0.0,0.0,0.0,
2604.0,2016.0,1981.0,2094.0,2112.0,2467.0,0.0,0.0,0.0,
2657.0,2105.0,2034.0,2099.0,2107.0,2358.0,13.0,41.0,9.0,
2696.0,2166.0,2071.0,2105.0,2106.0,2268.0,13.0,41.0,9.0,
2720.0,2144.0,2074.0,2098.0,2100.0,2194.0,0.0,0.0,0.0,
2712.0,2038.0,2046.0,2084.0,2088.0,2113.0,0.0,0.0,0.0,
2680.0,1588.0,1868.0,1961.0,1985.0,1834.0,0.0,0.0,0.0,
2664.0,1638.0,1893.0,1936.0,1979.0,1749.0,0.0,0.0,0.0,
2550.0,1753.0,1928.0,1924.0,1965.0,1618.0,0.0,0.0,0.0,
2404.0,1892.0,1960.0,1921.0,1944.0,1482.0,0.0,0.0,0.0,
2269.0,2044.0,2008.0,1926.0,1931.0,1379.0,0.0,0.0,0.0,
2158.0,2162.0,2065.0,1935.0,1930.0,1352.0,0.0,0.0,0.0,
2053.0,2164.0,2089.0,1945.0,1936.0,1366.0,0.0,0.0,0.0,
1863.0,1974.0,2077.0,1954.0,1940.0,1355.0,0.0,0.0,0.0,
1735.0,1970.0,2063.0,1952.0,1950.0,1359.0,0.0,0.0,0.0,
1769.0,2071.0,2089.0,1958.0,1960.0,1425.0,0.0,0.0,0.0,
1941.0,2183.0,2123.0,1964.0,1977.0,1608.0,0.0,0.0,0.0,
2250.0,2047.0,2119.0,1992.0,2014.0,2261.0,0.0,0.0,0.0,
2370.0,2148.0,2194.0,2022.0,2040.0,2361.0,0.0,0.0,0.0,
2418.0,2292.0,2253.0,2045.0,2041.0,2371.0,0.0,0.0,0.0,
2311.0,2433.0,2304.0,2058.0,2042.0,2335.0,0.0,0.0,0.0,
2084.0,2503.0,2330.0,2070.0,2044.0,2303.0,13.0,41.0,9.0,
1877.0,2468.0,2328.0,2074.0,2038.0,2300.0,13.0,42.0,9.0,
1731.0,2289.0,2314.0,2083.0,2043.0,2346.0,13.0,42.0,9.0,
1642.0,2064.0,2309.0,2090.0,2053.0,2443.0,14.0,42.0,9.0,
1525.0,1992.0,2314.0,2117.0,2071.0,2582.0,0.0,0.0,0.0,
1352.0,2094.0,2334.0,2141.0,2092.0,2617.0,0.0,0.0,0.0,
1096.0,2188.0,2350.0,2161.0,2097.0,2595.0,0.0,0.0,0.0,
890.0,2275.0,2343.0,2173.0,2096.0,2485.0,0.0,0.0,0.0,
782.0,2367.0,2303.0,2179.0,2087.0,2340.0,0.0,0.0,0.0,
956.0,2716.0,2174.0,2160.0,2025.0,2012.0,0.0,0.0,0.0,
1139.0,2698.0,2204.0,2162.0,2036.0,1949.0,0.0,0.0,0.0,
1315.0,2568.0,2187.0,2155.0,2033.0,1881.0,0.0,0.0,0.0,
1422.0,2372.0,2139.0,2147.0,2027.0,1812.0,0.0,0.0,0.0,
1521.0,2174.0,2119.0,2134.0,2017.0,1751.0,0.0,0.0,0.0,
1665.0,1975.0,2118.0,2127.0,2012.0,1722.0,0.0,0.0,0.0,
1874.0,1879.0,2112.0,2118.0,2011.0,1763.0,0.0,0.0,0.0,
2323.0,1932.0,2113.0,2106.0,2012.0,1902.0,0.0,0.0,0.0,
2678.0,2087.0,2202.0,2099.0,2014.0,1976.0,0.0,0.0,0.0,
2957.0,2302.0,2330.0,2111.0,2007.0,1988.0,0.0,0.0,0.0,
3120.0,2502.0,2456.0,2090.0,2003.0,1972.0,0.0,0.0,0.0,
3197.0,2666.0,2540.0,2089.0,2008.0,1933.0,0.0,0.0,0.0,
2578.0,2419.0,2438.0,2089.0,2003.0,1674.0,0.0,0.0,0.0,
2401.0,2097.0,2370.0,2092.0,2013.0,1593.0,14.0,42.0,9.0,
2278.0,1707.0,2298.0,2091.0,2021.0,1552.0,0.0,0.0,0.0,
2222.0,1347.0,2232.0,2096.0,2032.0,1581.0,0.0,0.0,0.0,
2227.0,1172.0,2185.0,2096.0,2041.0,1660.0,0.0,0.0,0.0,
2194.0,1154.0,2109.0,2087.0,2038.0,1735.0,0.0,0.0,0.0,
2092.0,1183.0,2022.0,2077.0,2034.0,1793.0,0.0,0.0,0.0,
1900.0,1281.0,1901.0,2060.0,2028.0,1929.0,0.0,0.0,0.0,
1841.0,1428.0,1839.0,2058.0,2036.0,2060.0,0.0,0.0,0.0,
1867.0,1629.0,1791.0,2052.0,2046.0,2211.0,0.0,0.0,0.0,
1901.0,1799.0,1722.0,2049.0,2054.0,2360.0,14.0,43.0,9.0,
1938.0,1877.0,1685.0,2053.0,2068.0,2520.0,14.0,43.0,9.0,
1991.0,1865.0,1697.0,2063.0,2091.0,2703.0,14.0,43.0,9.0,
2203.0,1510.0,2018.0,2080.0,2103.0,3005.0,15.0,43.0,10.0,
2375.0,1365.0,2100.0,2088.0,2117.0,3029.0,0.0,0.0,0.0,
2484.0,1365.0,2157.0,2097.0,2130.0,3020.0,0.0,0.0,0.0,
2481.0,1545.0,2188.0,2110.0,2130.0,2962.0,0.0,0.0,0.0,
2392.0,1817.0,2195.0,2116.0,2112.0,2835.0,0.0,0.0,0.0,
2205.0,2059.0,2172.0,2109.0,2080.0,2616.0,0.0,0.0,0.0,
1939.0,2161.0,2131.0,2095.0,2045.0,2380.0,0.0,0.0,0.0,
1582.0,2065.0,2065.0,2075.0,2015.0,2138.0,0.0,0.0,0.0,
1433.0,1953.0,2028.0,2056.0,2010.0,2050.0,0.0,0.0,0.0,
1363.0,1891.0,2012.0,2048.0,2015.0,2015.0,0.0,0.0,0.0,
1339.0,1882.0,2029.0,2044.0,2025.0,2006.0,0.0,0.0,0.0,
1284.0,1886.0,2055.0,2048.0,2041.0,1983.0,0.0,0.0,0.0,
1428.0,2061.0,2039.0,2053.0,2031.0,1777.0,0.0,0.0,0.0,
1562.0,2177.0,2058.0,2043.0,2032.0,1712.0,0.0,0.0,0.0,
1615.0,2254.0,2066.0,2038.0,2030.0,1662.0,0.0,0.0,0.0,
1589.0,2294.0,2046.0,2035.0,2023.0,1621.0,0.0,0.0,0.0,
1596.0,2326.0,2023.0,2029.0,2020.0,1629.0,0.0,0.0,0.0,
1677.0,2319.0,2004.0,2020.0,2024.0,1658.0,0.0,0.0,0.0,
1853.0,2265.0,1983.0,2018.0,2018.0,1683.0,0.0,0.0,0.0,
1997.0,2130.0,1958.0,2011.0,2019.0,1683.0,0.0,0.0,0.0,
2017.0,2049.0,1942.0,2012.0,2014.0,1629.0,0.0,0.0,0.0,
1982.0,2030.0,1942.0,2015.0,2003.0,1523.0,0.0,0.0,0.0,
1961.0,2054.0,1935.0,2012.0,1994.0,1418.0,0.0,0.0,0.0,
1978.0,2107.0,1939.0,2011.0,1990.0,1350.0,0.0,0.0,0.0,
2031.0,2192.0,1954.0,2012.0,1985.0,1343.0,15.0,43.0,10.0,
2051.0,2414.0,1978.0,2013.0,1963.0,1631.0,15.0,44.0,10.0,
1875.0,2329.0,2026.0,2013.0,1973.0,1621.0,0.0,0.0,0.0,
1689.0,2189.0,2065.0,2027.0,1982.0,1612.0,0.0,0.0,0.0,
1624.0,2022.0,2090.0,2039.0,1988.0,1652.0,0.0,0.0,0.0,
1710.0,1917.0,2106.0,2050.0,2007.0,1786.0,0.0,0.0,0.0,
1888.0,1938.0,2121.0,2058.0,2026.0,1990.0,0.0,0.0,0.0,
2068.0,2049.0,2134.0,2071.0,2046.0,2234.0,0.0,0.0,0.0,
2328.0,2248.0,2166.0,2089.0,2082.0,2636.0,0.0,0.0,0.0,
2621.0,2404.0,2202.0,2113.0,2114.0,2920.0,15.0,44.0,10.0,
2967.0,2542.0,2235.0,2134.0,2143.0,3132.0,16.0,44.0,10.0,
3206.0,2617.0,2264.0,2153.0,2155.0,3238.0,16.0,44.0,10.0,
2984.0,2596.0,2164.0,2161.0,2109.0,2936.0,0.0,0.0,0.0,
2704.0,2472.0,2124.0,2145.0,2087.0,2636.0,0.0,0.0,0.0,
2633.0,2276.0,2101.0,2140.0,2078.0,2503.0,0.0,0.0,0.0,
2680.0,2001.0,2086.0,2134.0,2069.0,2462.0,0.0,0.0,0.0,
2754.0,1778.0,2086.0,2139.0,2074.0,2469.0,0.0,0.0,0.0,
2813.0,1663.0,2103.0,2151.0,2076.0,2466.0,0.0,0.0,0.0,
2852.0,1629.0,2125.0,2165.0,2075.0,2447.0,0.0,0.0,0.0,
2856.0,1664.0,2162.0,2173.0,2078.0,2380.0,0.0,0.0,0.0,
2793.0,1801.0,2219.0,2184.0,2074.0,2287.0,0.0,0.0,0.0,
2723.0,1881.0,2250.0,2185.0,2075.0,2244.0,0.0,0.0,0.0,
2575.0,1921.0,2265.0,2180.0,2074.0,2203.0,0.0,0.0,0.0,
2397.0,1931.0,2266.0,2171.0,2073.0,2130.0,0.0,0.0,0.0,
2266.0,1943.0,2250.0,2157.0,2071.0,2030.0,0.0,0.0,0.0,
1935.0,1938.0,2127.0,2083.0,2012.0,1682.0,0.0,0.0,0.0,
1865.0,2007.0,2129.0,2068.0,2016.0,1608.0,0.0,0.0,0.0,
1734.0,1984.0,2111.0,2045.0,2003.0,1527.0,16.0,44.0,11.0,
1582.0,1892.0,2092.0,2016.0,1995.0,1469.0,16.0,44.0,11.0,
1548.0,1867.0,2089.0,1991.0,1993.0,1475.0,17.0,45.0,11.0,
1632.0,1932.0,2096.0,1992.0,1990.0,1545.0,0.0,0.0,0.0,
1849.0,2035.0,2128.0,2006.0,1969.0,1678.0,0.0,0.0,0.0,
2250.0,2135.0,2150.0,2034.0,1965.0,1874.0,0.0,0.0,0.0,
2448.0,2196.0,2147.0,2045.0,1964.0,1939.0,0.0,0.0,0.0,
2362.0,2251.0,2148.0,2050.0,1954.0,1937.0,0.0,0.0,0.0,
2061.0,2307.0,2162.0,2049.0,1945.0,1879.0,0.0,0.0,0.0,
1796.0,2312.0,2172.0,2055.0,1943.0,1839.0,0.0,0.0,0.0,
1168.0,1679.0,1969.0,2033.0,1921.0,1755.0,0.0,0.0,0.0,
1135.0,1587.0,1968.0,2015.0,1932.0,1724.0,0.0,0.0,0.0,
1289.0,1620.0,2002.0,2002.0,1951.0,1741.0,0.0,0.0,0.0,
1539.0,1711.0,2039.0,2001.0,1982.0,1796.0,0.0,0.0,0.0,
1794.0,1804.0,2055.0,2014.0,2029.0,1891.0,0.0,0.0,0.0,
1973.0,1872.0,2016.0,2027.0,2067.0,1964.0,0.0,0.0,0.0,
2067.0,1911.0,1936.0,2027.0,2101.0,2014.0,0.0,0.0,0.0,
2121.0,1967.0,1823.0,2039.0,2143.0,2113.0,0.0,0.0,0.0,
2135.0,2036.0,1794.0,2042.0,2166.0,2142.0,0.0,0.0,0.0,
2191.0,2080.0,1804.0,2046.0,2170.0,2145.0,0.0,0.0,0.0,
2229.0,2076.0,1804.0,2047.0,2167.0,2158.0,0.0,0.0,0.0,
2184.0,2040.0,1792.0,2044.0,2167.0,2225.0,0.0,0.0,0.0,
2081.0,1974.0,1802.0,2044.0,2159.0,2319.0,0.0,0.0,0.0,
1974.0,2202.0,1930.0,2092.0,2114.0,2624.0,17.0,45.0,12.0,
2009.0,2405.0,1975.0,2101.0,2105.0,2541.0,18.0,45.0,12.0,
2010.0,2606.0,1999.0,2108.0,2087.0,2397.0,0.0,0.0,0.0,
1980.0,2787.0,2013.0,2110.0,2074.0,2235.0,0.0,0.0,0.0,
1870.0,2860.0,2057.0,2115.0,2067.0,2098.0,0.0,0.0,0.0,
1740.0,2817.0,2117.0,2121.0,2072.0,2034.0,0.0,0.0,0.0,
1658.0,2733.0,2166.0,2133.0,2076.0,1999.0,0.0,0.0,0.0,
1543.0,2646.0,2229.0,2140.0,2070.0,1877.0,0.0,0.0,0.0,
1387.0,2641.0,2235.0,2133.0,2052.0,1725.0,0.0,0.0,0.0,
1145.0,2571.0,2221.0,2114.0,2026.0,1537.0,0.0,0.0,0.0,
896.0,2386.0,2198.0,2100.0,2001.0,1361.0,0.0,0.0,0.0,
726.0,2179.0,2178.0,2081.0,1984.0,1223.0,0.0,0.0,0.0,
910.0,1959.0,1974.0,2083.0,1945.0,954.0,0.0,0.0,0.0,
1167.0,1877.0,1901.0,2073.0,1946.0,910.0,18.0,45.0,12.0,
1408.0,1794.0,1838.0,2060.0,1939.0,891.0,18.0,45.0,12.0,
1643.0,1719.0,1805.0,2050.0,1933.0,963.0,19.0,45.0,13.0,
1860.0,1717.0,1810.0,2050.0,1932.0,1164.0,0.0,0.0,0.0,
2115.0,1758.0,1856.0,2069.0,1978.0,1500.0,0.0,0.0,0.0,
2319.0,1782.0,1910.0,2074.0,2016.0,1851.0,0.0,0.0,0.0,
2435.0,1741.0,1941.0,2083.0,2050.0,2184.0,0.0,0.0,0.0,
2438.0,1651.0,1934.0,2086.0,2060.0,2287.0,0.0,0.0,0.0,
2443.0,1536.0,1922.0,2085.0,2066.0,2372.0,0.0,0.0,0.0,
2559.0,1505.0,1947.0,2087.0,2079.0,2504.0,0.0,0.0,0.0,
2704.0,1550.0,1974.0,2090.0,2094.0,2689.0,19.0,45.0,13.0,
2625.0,1647.0,1984.0,2090.0,2079.0,2773.0,0.0,0.0,0.0,
2419.0,1537.0,1987.0,2081.0,2073.0,2627.0,0.0,0.0,0.0,
2192.0,1344.0,1964.0,2075.0,2070.0,2485.0,0.0,0.0,0.0,
2100.0,1253.0,1949.0,2075.0,2065.0,2409.0,0.0,0.0,0.0,
2153.0,1318.0,1991.0,2081.0,2068.0,2376.0,0.0,0.0,0.0,
2172.0,1462.0,2040.0,2085.0,2073.0,2362.0,0.0,0.0,0.0,
2136.0,1608.0,2081.0,2082.0,2076.0,2330.0,0.0,0.0,0.0,
2018.0,1838.0,2107.0,2085.0,2076.0,2270.0,0.0,0.0,0.0,
1922.0,1999.0,2151.0,2079.0,2072.0,2218.0,0.0,0.0,0.0,
1851.0,2136.0,2170.0,2074.0,2067.0,2145.0,0.0,0.0,0.0,
1788.0,2249.0,2175.0,2069.0,2056.0,2073.0,0.0,0.0,0.0,
1743.0,2276.0,2172.0,2058.0,2050.0,2027.0,0.0,0.0,0.0,
1757.0,2389.0,2094.0,2027.0,1990.0,2070.0,0.0,0.0,0.0,
1847.0,2460.0,2101.0,2027.0,2007.0,2133.0,0.0,0.0,0.0,
1969.0,2545.0,2114.0,2032.0,2022.0,2218.0,0.0,0.0,0.0,
2174.0,2600.0,2129.0,2039.0,2042.0,2351.0,0.0,0.0,0.0,
2438.0,2557.0,2161.0,2050.0,2054.0,2447.0,0.0,0.0,0.0,
2631.0,2389.0,2172.0,2063.0,2066.0,2423.0,19.0,45.0,13.0,
2671.0,2077.0,2163.0,2071.0,2063.0,2284.0,20.0,45.0,14.0,
2419.0,1616.0,2105.0,2063.0,2038.0,1955.0,0.0,0.0,0.0,
2145.0,1446.0,2041.0,2054.0,2007.0,1745.0,0.0,0.0,0.0,
1908.0,1386.0,2002.0,2042.0,1961.0,1584.0,0.0,0.0,0.0,
1800.0,1414.0,1980.0,2039.0,1971.0,1475.0,0.0,0.0,0.0,
1794.0,1538.0,2001.0,2045.0,2026.0,1413.0,0.0,0.0,0.0,
1879.0,1670.0,2025.0,2052.0,2084.0,1416.0,0.0,0.0,0.0,
2452.0,1721.0,1998.0,2068.0,2116.0,1638.0,20.0,46.0,14.0,
2503.0,1764.0,2018.0,2070.0,2122.0,1666.0,21.0,46.0,14.0,
2392.0,1940.0,2032.0,2063.0,2105.0,1676.0,21.0,46.0,14.0,
2207.0,2133.0,2063.0,2062.0,2084.0,1671.0,21.0,46.0,14.0,
2072.0,2275.0,2104.0,2043.0,2057.0,1662.0,0.0,0.0,0.0,
2117.0,2418.0,2131.0,2047.0,2032.0,1759.0,0.0,0.0,0.0,
2276.0,2597.0,2159.0,2044.0,2031.0,1999.0,0.0,0.0,0.0,
2543.0,2748.0,2213.0,2061.0,2049.0,2405.0,0.0,0.0,0.0,
2615.0,2693.0,2232.0,2065.0,2059.0,2560.0,0.0,0.0,0.0,
2561.0,2560.0,2201.0,2060.0,2031.0,2609.0,0.0,0.0,0.0,
2528.0,2381.0,2180.0,2054.0,2020.0,2609.0,0.0,0.0,0.0,
2554.0,2258.0,2157.0,2059.0,2017.0,2604.0,0.0,0.0,0.0,
2472.0,2119.0,2094.0,2086.0,1995.0,2573.0,0.0,0.0,0.0,
2475.0,2395.0,2090.0,2088.0,1989.0,2534.0,0.0,0.0,0.0,
2491.0,2575.0,2080.0,2082.0,1978.0,2502.0,0.0,0.0,0.0,
2504.0,2589.0,2079.0,2080.0,1978.0,2543.0,0.0,0.0,0.0,
2587.0,2537.0,2081.0,2084.0,1992.0,2659.0,0.0,0.0,0.0,
2675.0,2517.0,2118.0,2079.0,2013.0,2772.0,0.0,0.0,0.0,
2656.0,2490.0,2184.0,2085.0,2026.0,2841.0,0.0,0.0,0.0,
2487.0,2332.0,2251.0,2086.0,2046.0,2846.0,0.0,0.0,0.0,
2385.0,2204.0,2261.0,2094.0,2058.0,2810.0,0.0,0.0,0.0,
2330.0,2078.0,2235.0,2097.0,2076.0,2816.0,0.0,0.0,0.0,
2363.0,1998.0,2199.0,2101.0,2097.0,2843.0,0.0,0.0,0.0,
2454.0,2037.0,2197.0,2111.0,2112.0,2859.0,0.0,0.0,0.0,
1960.0,2144.0,2202.0,2114.0,2078.0,2384.0,0.0,0.0,0.0,
1727.0,2262.0,2224.0,2108.0,2066.0,2200.0,0.0,0.0,0.0,
1586.0,2401.0,2223.0,2098.0,2057.0,2069.0,0.0,0.0,0.0,
1584.0,2517.0,2212.0,2092.0,2044.0,1984.0,0.0,0.0,0.0,
1690.0,2663.0,2202.0,2079.0,2034.0,1900.0,21.0,46.0,15.0,
1829.0,2833.0,2188.0,2067.0,2011.0,1819.0,22.0,46.0,15.0,
1978.0,2933.0,2165.0,2052.0,1994.0,1786.0,0.0,0.0,0.0,
2137.0,2944.0,2152.0,2036.0,1975.0,1818.0,0.0,0.0,0.0,
2166.0,2925.0,2161.0,2035.0,1982.0,1875.0,0.0,0.0,0.0,
2083.0,2864.0,2174.0,2043.0,1993.0,1892.0,0.0,0.0,0.0,
1934.0,2614.0,2145.0,2044.0,1994.0,1866.0,0.0,0.0,0.0,
1784.0,2110.0,2115.0,2041.0,1992.0,1795.0,0.0,0.0,0.0,
1229.0,998.0,2097.0,2044.0,1966.0,1597.0,0.0,0.0,0.0,
1321.0,1220.0,2135.0,2056.0,1989.0,1731.0,22.0,46.0,15.0,
1425.0,1497.0,2164.0,2068.0,2023.0,1926.0,22.0,46.0,15.0,
1515.0,1737.0,2186.0,2088.0,2056.0,2076.0,0.0,0.0,0.0,
1541.0,1913.0,2208.0,2095.0,2076.0,2164.0,0.0,0.0,0.0,
1555.0,2068.0,2193.0,2091.0,2078.0,2140.0,0.0,0.0,0.0,
1614.0,2221.0,2138.0,2077.0,2066.0,2038.0,0.0,0.0,0.0,
1838.0,2336.0,2037.0,2070.0,2063.0,1931.0,0.0,0.0,0.0,
2032.0,2399.0,2006.0,2072.0,2067.0,1914.0,0.0,0.0,0.0,
2163.0,2382.0,1986.0,2083.0,2076.0,1925.0,0.0,0.0,0.0,
2223.0,2250.0,1936.0,2088.0,2079.0,1951.0,0.0,0.0,0.0,
2214.0,2080.0,1877.0,2081.0,2069.0,1965.0,0.0,0.0,0.0,
2194.0,1901.0,1807.0,2059.0,2043.0,1956.0,0.0,0.0,0.0,
2119.0,1654.0,1761.0,2029.0,2009.0,2151.0,0.0,0.0,0.0,
2074.0,1802.0,1856.0,2035.0,2020.0,2189.0,0.0,0.0,0.0,
2065.0,1801.0,1907.0,2033.0,2018.0,2202.0,0.0,0.0,0.0,
2019.0,1720.0,1911.0,2040.0,2019.0,2161.0,0.0,0.0,0.0,
1976.0,1616.0,1900.0,2065.0,2018.0,2081.0,0.0,0.0,0.0,
1983.0,1611.0,1909.0,2094.0,2026.0,2041.0,0.0,0.0,0.0,
2055.0,1741.0,1958.0,2130.0,2039.0,2087.0,22.0,46.0,15.0,
2177.0,1991.0,2055.0,2155.0,2069.0,2225.0,23.0,46.0,16.0,
2196.0,2115.0,2073.0,2169.0,2091.0,2309.0,23.0,46.0,16.0,
2140.0,2147.0,2052.0,2170.0,2102.0,2337.0,0.0,0.0,0.0,
2091.0,2059.0,2038.0,2163.0,2107.0,2330.0,0.0,0.0,0.0,
2112.0,2014.0,2065.0,2166.0,2103.0,2303.0,0.0,0.0,0.0,
2087.0,2201.0,2189.0,2155.0,2081.0,2191.0,0.0,0.0,0.0,
1989.0,2262.0,2275.0,2143.0,2094.0,2149.0,0.0,0.0,0.0,
1929.0,2248.0,2328.0,2124.0,2101.0,2108.0,0.0,0.0,0.0,
1860.0,2080.0,2352.0,2100.0,2100.0,2063.0,0.0,0.0,0.0,
1766.0,1757.0,2335.0,2058.0,2085.0,1988.0,0.0,0.0,0.0,
1671.0,1424.0,2281.0,2017.0,2066.0,1899.0,0.0,0.0,0.0,
1574.0,1271.0,2243.0,1981.0,2042.0,1776.0,0.0,0.0,0.0,
1511.0,1425.0,2203.0,1931.0,2007.0,1569.0,0.0,0.0,0.0,
1559.0,1540.0,2160.0,1910.0,1988.0,1474.0,0.0,0.0,0.0,
1635.0,1503.0,2098.0,1893.0,1975.0,1417.0,0.0,0.0,0.0,
1714.0,1342.0,2018.0,1878.0,1956.0,1383.0,0.0,0.0,0.0,
1792.0,1193.0,1947.0,1860.0,1948.0,1367.0,0.0,0.0,0.0,
1909.0,1199.0,1904.0,1844.0,1940.0,1379.0,23.0,46.0,16.0,
2353.0,1936.0,1974.0,1864.0,1881.0,1327.0,23.0,46.0,16.0,
2260.0,2005.0,2021.0,1871.0,1888.0,1289.0,23.0,46.0,16.0,
2097.0,2041.0,2071.0,1888.0,1894.0,1259.0,0.0,0.0,0.0,
1862.0,2096.0,2121.0,1904.0,1904.0,1301.0,0.0,0.0,0.0,
1663.0,2166.0,2137.0,1928.0,1930.0,1446.0,0.0,0.0,0.0,
1576.0,2277.0,2141.0,1952.0,1963.0,1663.0,0.0,0.0,0.0,
1616.0,2428.0,2141.0,1979.0,1989.0,1851.0,0.0,0.0,0.0,
1588.0,2517.0,2149.0,2006.0,2003.0,1918.0,0.0,0.0,0.0,
1530.0,2443.0,2145.0,2016.0,1994.0,1883.0,0.0,0.0,0.0,
1604.0,2317.0,2115.0,2018.0,1977.0,1836.0,0.0,0.0,0.0,
1778.0,2236.0,2083.0,2021.0,1961.0,1852.0,0.0,0.0,0.0,
2204.0,2169.0,2045.0,2054.0,1962.0,2074.0,0.0,0.0,0.0,
2160.0,2100.0,2144.0,2082.0,1989.0,2053.0,0.0,0.0,0.0,
2060.0,2070.0,2269.0,2103.0,2005.0,2034.0,0.0,0.0,0.0,
2029.0,2038.0,2387.0,2121.0,2022.0,2060.0,0.0,0.0,0.0,
2019.0,1949.0,2445.0,2137.0,2038.0,2134.0,0.0,0.0,0.0,
1940.0,1785.0,2416.0,2145.0,2039.0,2242.0,0.0,0.0,0.0,
1902.0,1583.0,2367.0,2159.0,2067.0,2425.0,23.0,47.0,16.0,
1943.0,1541.0,2330.0,2177.0,2095.0,2629.0,24.0,47.0,16.0,
1919.0,1790.0,2315.0,2199.0,2131.0,2743.0,24.0,47.0,16.0,
1843.0,2014.0,2299.0,2196.0,2139.0,2693.0,24.0,47.0,16.0,
1805.0,2191.0,2259.0,2215.0,2141.0,2604.0,0.0,0.0,0.0,
1834.0,2315.0,2199.0,2229.0,2136.0,2521.0,0.0,0.0,0.0,
1933.0,2428.0,2148.0,2251.0,2142.0,2489.0,0.0,0.0,0.0,
2570.0,2387.0,1912.0,2219.0,2118.0,2602.0,0.0,0.0,0.0,
2566.0,2371.0,1916.0,2205.0,2122.0,2566.0,0.0,0.0,0.0,
2540.0,2401.0,1900.0,2193.0,2126.0,2510.0,0.0,0.0,0.0,
2482.0,2468.0,1867.0,2184.0,2124.0,2435.0,0.0,0.0,0.0,
2399.0,2472.0,1820.0,2160.0,2113.0,2342.0,0.0,0.0,0.0,
2251.0,2398.0,1780.0,2136.0,2091.0,2214.0,0.0,0.0,0.0,
2062.0,2250.0,1759.0,2109.0,2065.0,2043.0,0.0,0.0,0.0,
1805.0,2010.0,1758.0,2067.0,2024.0,1754.0,0.0,0.0,0.0,
1713.0,1862.0,1779.0,2042.0,2006.0,1612.0,0.0,0.0,0.0,
1742.0,1791.0,1801.0,2031.0,2000.0,1561.0,0.0,0.0,0.0,
1906.0,1940.0,1834.0,2022.0,1996.0,1577.0,0.0,0.0,0.0,
2157.0,2183.0,1861.0,2025.0,2003.0,1635.0,0.0,0.0,0.0,
2710.0,2935.0,1877.0,2003.0,1988.0,2037.0,0.0,0.0,0.0,
2791.0,3143.0,1917.0,1999.0,2013.0,2182.0,0.0,0.0,0.0,
2883.0,3383.0,1970.0,2015.0,2034.0,2345.0,0.0,0.0,0.0,
2933.0,3507.0,2005.0,2038.0,2058.0,2538.0,0.0,0.0,0.0,
2903.0,3426.0,2024.0,2057.0,2073.0,2665.0,0.0,0.0,0.0,
2799.0,3110.0,2010.0,2068.0,2076.0,2697.0,24.0,47.0,16.0,
2695.0,2643.0,1981.0,2074.0,2074.0,2713.0,24.0,47.0,16.0,
2592.0,2058.0,1984.0,2086.0,2083.0,2807.0,0.0,0.0,0.0,
2459.0,1839.0,2020.0,2107.0,2107.0,2864.0,0.0,0.0,0.0,
2345.0,1681.0,2058.0,2131.0,2129.0,2888.0,0.0,0.0,0.0,
2306.0,1541.0,2083.0,2142.0,2155.0,2858.0,0.0,0.0,0.0,
2281.0,1284.0,2062.0,2148.0,2155.0,2778.0,0.0,0.0,0.0,
2207.0,931.0,2032.0,2144.0,2148.0,2664.0,0.0,0.0,0.0,
1778.0,1374.0,1888.0,2073.0,2012.0,1929.0,0.0,0.0,0.0,
1803.0,1655.0,1889.0,2057.0,2012.0,1827.0,0.0,0.0,0.0,
1778.0,1722.0,1883.0,2042.0,2000.0,1744.0,0.0,0.0,0.0,
1699.0,1640.0,1888.0,2037.0,1989.0,1674.0,0.0,0.0,0.0,
1635.0,1648.0,1928.0,2040.0,1992.0,1639.0,24.0,47.0,16.0,
1708.0,1780.0,1987.0,2052.0,1999.0,1655.0,24.0,47.0,16.0,
1877.0,1943.0,2037.0,2064.0,2004.0,1728.0,24.0,47.0,16.0,
2155.0,2191.0,2098.0,2075.0,2018.0,1891.0,24.0,47.0,16.0,
2328.0,2295.0,2153.0,2085.0,2026.0,1982.0,0.0,0.0,0.0,
2390.0,2307.0,2220.0,2099.0,2026.0,2002.0,0.0,0.0,0.0,
2330.0,2334.0,2296.0,2115.0,2038.0,1971.0,0.0,0.0,0.0,
2241.0,2382.0,2330.0,2125.0,2044.0,1919.0,0.0,0.0,0.0,
2026.0,2118.0,2190.0,2123.0,2012.0,1835.0,0.0,0.0,0.0,
1980.0,1882.0,2139.0,2113.0,2012.0,1848.0,0.0,0.0,0.0,
1899.0,1700.0,2118.0,2103.0,2019.0,1880.0,0.0,0.0,0.0,
1816.0,1668.0,2136.0,2098.0,2024.0,1959.0,0.0,0.0,0.0,
1778.0,1720.0,2140.0,2094.0,2038.0,2089.0,0.0,0.0,0.0,
1769.0,1728.0,2126.0,2095.0,2053.0,2222.0,0.0,0.0,0.0,
1768.0,1738.0,2122.0,2100.0,2067.0,2321.0,0.0,0.0,0.0,
1780.0,1856.0,2171.0,2113.0,2076.0,2431.0,0.0,0.0,0.0,
1825.0,1982.0,2230.0,2117.0,2081.0,2473.0,0.0,0.0,0.0,
1877.0,2157.0,2269.0,2125.0,2080.0,2481.0,0.0,0.0,0.0,
1917.0,2351.0,2256.0,2130.0,2082.0,2447.0,0.0,0.0,0.0,
1922.0,2475.0,2234.0,2135.0,2079.0,2373.0,0.0,0.0,0.0,
1944.0,2021.0,2128.0,2113.0,2022.0,2053.0,24.0,47.0,16.0,
1955.0,1784.0,2124.0,2106.0,2034.0,2013.0,0.0,0.0,0.0,
1930.0,1489.0,2097.0,2095.0,2037.0,1995.0,0.0,0.0,0.0,
1896.0,1232.0,2081.0,2090.0,2033.0,1992.0,0.0,0.0,0.0,
1862.0,1163.0,2100.0,2096.0,2036.0,2007.0,0.0,0.0,0.0,
1792.0,1266.0,2143.0,2100.0,2036.0,2023.0,0.0,0.0,0.0,
1722.0,1454.0,2182.0,2103.0,2034.0,1977.0,0.0,0.0,0.0,
1756.0,1768.0,2194.0,2097.0,2013.0,1853.0,24.0,47.0,16.0,
1842.0,1929.0,2141.0,2091.0,1989.0,1778.0,24.0,47.0,16.0,
1955.0,2097.0,2079.0,2087.0,1993.0,1744.0,24.0,47.0,16.0,
2047.0,2310.0,2028.0,2077.0,1989.0,1727.0,24.0,47.0,16.0,
2121.0,2477.0,2020.0,2068.0,1988.0,1733.0,0.0,0.0,0.0,
2030.0,2209.0,1966.0,2039.0,1983.0,1723.0,0.0,0.0,0.0,
1952.0,2099.0,1978.0,2036.0,1992.0,1723.0,0.0,0.0,0.0,
1918.0,2031.0,1987.0,2032.0,1995.0,1725.0,0.0,0.0,0.0,
1951.0,1991.0,1984.0,2027.0,1996.0,1733.0,0.0,0.0,0.0,
2008.0,1944.0,1991.0,2028.0,2004.0,1790.0,0.0,0.0,0.0,
2035.0,1863.0,2000.0,2034.0,2016.0,1863.0,0.0,0.0,0.0,
1980.0,1754.0,2005.0,2043.0,2028.0,1936.0,0.0,0.0,0.0,
1903.0,1652.0,2027.0,2047.0,2034.0,1956.0,0.0,0.0,0.0,
1871.0,1688.0,2035.0,2044.0,2033.0,1921.0,0.0,0.0,0.0,
1839.0,1810.0,2048.0,2042.0,2034.0,1882.0,0.0,0.0,0.0,
1764.0,1990.0,2067.0,2042.0,2037.0,1824.0,0.0,0.0,0.0,
1656.0,2166.0,2073.0,2032.0,2026.0,1724.0,0.0,0.0,0.0,
1566.0,2307.0,2063.0,2031.0,2012.0,1615.0,0.0,0.0,0.0,
1568.0,2295.0,1929.0,2010.0,1950.0,1336.0,0.0,0.0,0.0,
1644.0,2236.0,1973.0,2017.0,1963.0,1349.0,0.0,0.0,0.0,
1653.0,2185.0,2018.0,2024.0,1968.0,1378.0,0.0,0.0,0.0,
1578.0,2129.0,2049.0,2024.0,1974.0,1410.0,0.0,0.0,0.0,
1404.0,2100.0,2081.0,2028.0,1984.0,1454.0,0.0,0.0,0.0,
1215.0,2120.0,2104.0,2032.0,1984.0,1498.0,0.0,0.0,0.0,
1127.0,2203.0,2112.0,2033.0,1980.0,1521.0,0.0,0.0,0.0,
1378.0,2243.0,2122.0,2041.0,1970.0,1604.0,0.0,0.0,0.0,
1746.0,2235.0,2124.0,2050.0,1976.0,1725.0,0.0,0.0,0.0,
2115.0,2211.0,2139.0,2065.0,2000.0,1879.0,0.0,0.0,0.0,
2314.0,2193.0,2143.0,2078.0,2018.0,2004.0,24.0,47.0,17.0,
2474.0,2206.0,2148.0,2090.0,2052.0,2078.0,24.0,47.0,17.0,
2772.0,2296.0,2090.0,2099.0,2021.0,2106.0,0.0,0.0,0.0,
2666.0,2256.0,2074.0,2098.0,2023.0,2041.0,0.0,0.0,0.0,
2488.0,2162.0,2061.0,2095.0,2023.0,1942.0,0.0,0.0,0.0,
2183.0,2042.0,2063.0,2093.0,2025.0,1851.0,0.0,0.0,0.0,
1903.0,1966.0,2053.0,2090.0,2022.0,1835.0,0.0,0.0,0.0,
1771.0,1945.0,2034.0,2083.0,2029.0,1956.0,0.0,0.0,0.0,
1751.0,1980.0,2039.0,2083.0,2049.0,2173.0,0.0,0.0,0.0,
1792.0,2087.0,2090.0,2096.0,2092.0,2569.0,0.0,0.0,0.0,
1763.0,2139.0,2130.0,2115.0,2126.0,2783.0,0.0,0.0,0.0,
1683.0,2166.0,2154.0,2120.0,2144.0,2859.0,0.0,0.0,0.0,
1651.0,2172.0,2157.0,2126.0,2153.0,2831.0,0.0,0.0,0.0,
1727.0,2183.0,2152.0,2123.0,2150.0,2782.0,0.0,0.0,0.0,
2538.0,2040.0,2052.0,2097.0,2108.0,2852.0,24.0,47.0,17.0,
2718.0,2032.0,2067.0,2088.0,2118.0,2870.0,24.0,47.0,17.0,
2888.0,2079.0,2089.0,2082.0,2118.0,2855.0,25.0,47.0,17.0,
3025.0,2140.0,2105.0,2078.0,2115.0,2815.0,0.0,0.0,0.0,
3060.0,2225.0,2098.0,2072.0,2101.0,2714.0,0.0,0.0,0.0,
2992.0,2301.0,2085.0,2062.0,2082.0,2586.0,0.0,0.0,0.0,
2875.0,2328.0,2054.0,2041.0,2059.0,2454.0,0.0,0.0,0.0,
2648.0,2136.0,1992.0,2034.0,2036.0,2289.0,0.0,0.0,0.0,
2526.0,1912.0,1956.0,2035.0,2032.0,2225.0,0.0,0.0,0.0,
2444.0,1762.0,1977.0,2038.0,2041.0,2219.0,0.0,0.0,0.0,
2420.0,1729.0,2023.0,2044.0,2051.0,2269.0,0.0,0.0,0.0,
2423.0,1752.0,2096.0,2054.0,2066.0,2369.0,0.0,0.0,0.0,
2293.0,1919.0,2255.0,2086.0,2080.0,2466.0,0.0,0.0,0.0,
2231.0,1920.0,2297.0,2095.0,2084.0,2417.0,0.0,0.0,0.0,
2179.0,1894.0,2302.0,2088.0,2084.0,2353.0,0.0,0.0,0.0,
2155.0,1847.0,2281.0,2082.0,2072.0,2298.0,0.0,0.0,0.0,
2117.0,1799.0,2229.0,2077.0,2056.0,2256.0,0.0,0.0,0.0,
2059.0,1770.0,2183.0,2071.0,2040.0,2213.0,0.0,0.0,0.0,
2012.0,1749.0,2144.0,2069.0,2030.0,2177.0,0.0,0.0,0.0,
2015.0,1702.0,2090.0,2062.0,2019.0,2119.0,0.0,0.0,0.0,
2064.0,1679.0,2062.0,2063.0,2017.0,2084.0,0.0,0.0,0.0,
2113.0,1687.0,2045.0,2063.0,2020.0,2035.0,0.0,0.0,0.0,
2156.0,1732.0,2025.0,2062.0,2021.0,2005.0,25.0,47.0,17.0,
2182.0,1798.0,2011.0,2059.0,2023.0,1964.0,25.0,47.0,17.0,
2150.0,1856.0,2001.0,2060.0,2022.0,1892.0,25.0,47.0,17.0,
2008.0,2182.0,1958.0,2043.0,2012.0,1879.0,0.0,0.0,0.0,
2037.0,2242.0,2009.0,2047.0,2036.0,1919.0,0.0,0.0,0.0,
2041.0,2261.0,2067.0,2054.0,2047.0,1926.0,0.0,0.0,0.0,
2025.0,2235.0,2098.0,2059.0,2050.0,1920.0,0.0,0.0,0.0,
2004.0,2202.0,2112.0,2066.0,2045.0,1905.0,0.0,0.0,0.0,
2003.0,2183.0,2126.0,2067.0,2045.0,1909.0,0.0,0.0,0.0,
1998.0,2178.0,2134.0,2073.0,2048.0,1926.0,0.0,0.0,0.0,
1936.0,2171.0,2154.0,2081.0,2047.0,1916.0,0.0,0.0,0.0,
1876.0,2100.0,2154.0,2087.0,2052.0,1873.0,0.0,0.0,0.0,
1856.0,2043.0,2153.0,2091.0,2050.0,1812.0,0.0,0.0,0.0,
1861.0,2065.0,2154.0,2093.0,2040.0,1764.0,0.0,0.0,0.0,
1885.0,2231.0,2160.0,2092.0,2031.0,1735.0,0.0,0.0,0.0,
2046.0,3149.0,2197.0,2101.0,2038.0,2005.0,0.0,0.0,0.0,
2079.0,3238.0,2224.0,2107.0,2065.0,2097.0,0.0,0.0,0.0,
2138.0,3196.0,2234.0,2113.0,2083.0,2179.0,0.0,0.0,0.0,
2155.0,3057.0,2208.0,2114.0,2095.0,2227.0,25.0,47.0,17.0,
2067.0,2861.0,2170.0,2130.0,2094.0,2195.0,25.0,47.0,17.0,
1949.0,2599.0,2116.0,2093.0,2073.0,2103.0,25.0,47.0,17.0,
1854.0,2187.0,2009.0,2073.0,2050.0,2005.0,25.0,47.0,17.0,
1767.0,1315.0,1841.0,2038.0,2020.0,1909.0,25.0,47.0,17.0,
1756.0,864.0,1787.0,2018.0,2007.0,1902.0,25.0,47.0,17.0,
1781.0,775.0,1798.0,2014.0,2003.0,1919.0,0.0,0.0,0.0,
1812.0,979.0,1858.0,2021.0,2004.0,1939.0,0.0,0.0,0.0,
1876.0,1307.0,1930.0,2029.0,2011.0,1973.0,0.0,0.0,0.0,
1966.0,1662.0,1978.0,2035.0,2020.0,2001.0,0.0,0.0,0.0,
2347.0,2044.0,2048.0,2054.0,2016.0,2160.0,0.0,0.0,0.0,
2468.0,2015.0,2077.0,2060.0,2038.0,2227.0,0.0,0.0,0.0,
2471.0,1973.0,2084.0,2067.0,2045.0,2258.0,0.0,0.0,0.0,
2363.0,1934.0,2082.0,2067.0,2049.0,2234.0,0.0,0.0,0.0,
2225.0,1887.0,2079.0,2065.0,2041.0,2166.0,0.0,0.0,0.0,
2141.0,1887.0,2068.0,2065.0,2039.0,2094.0,0.0,0.0,0.0,
2152.0,1928.0,2063.0,2066.0,2034.0,2045.0,0.0,0.0,0.0,
2294.0,2028.0,2057.0,2061.0,2038.0,2002.0,0.0,0.0,0.0,
2373.0,2254.0,2034.0,2051.0,2031.0,1965.0,0.0,0.0,0.0,
2425.0,2689.0,2031.0,2045.0,2027.0,1946.0,0.0,0.0,0.0,
2470.0,3124.0,2085.0,2049.0,2036.0,1937.0,0.0,0.0,0.0,
2498.0,3270.0,2172.0,2070.0,2023.0,1953.0,0.0,0.0,0.0,
2424.0,2882.0,2173.0,2067.0,2038.0,1929.0,0.0,0.0,0.0,
2296.0,2653.0,2155.0,2066.0,2040.0,1901.0,0.0,0.0,0.0,
2166.0,2435.0,2126.0,2055.0,2032.0,1880.0,0.0,0.0,0.0,
2062.0,2120.0,2090.0,2052.0,2034.0,1879.0,0.0,0.0,0.0,
1941.0,1616.0,2018.0,2042.0,2031.0,1887.0,0.0,0.0,0.0,
1811.0,993.0,1987.0,2040.0,2025.0,1894.0,0.0,0.0,0.0,
1725.0,692.0,1999.0,2048.0,2028.0,1932.0,0.0,0.0,0.0,
1718.0,964.0,2065.0,2063.0,2042.0,1972.0,0.0,0.0,0.0,
1749.0,1297.0,2085.0,2073.0,2050.0,2001.0,0.0,0.0,0.0,
1765.0,1559.0,2083.0,2069.0,2055.0,2013.0,0.0,0.0,0.0,
1761.0,1704.0,2064.0,2066.0,2051.0,2023.0,0.0,0.0,0.0,
1762.0,1729.0,2057.0,2066.0,2044.0,2021.0,0.0,0.0,0.0,
1641.0,1439.0,2087.0,2076.0,2011.0,1831.0,0.0,0.0,0.0,
1512.0,1567.0,2066.0,2072.0,2014.0,1774.0,0.0,0.0,0.0,
1352.0,1591.0,1990.0,2068.0,2016.0,1731.0,25.0,47.0,17.0,
1183.0,1596.0,1889.0,2055.0,2013.0,1691.0,0.0,0.0,0.0,
1043.0,1576.0,1818.0,2044.0,2006.0,1664.0,0.0,0.0,0.0,
990.0,1588.0,1819.0,2042.0,2013.0,1694.0,0.0,0.0,0.0,
1054.0,1683.0,1848.0,2045.0,2017.0,1779.0,0.0,0.0,0.0,
1288.0,1977.0,1895.0,2044.0,2026.0,1911.0,0.0,0.0,0.0,
1467.0,2219.0,1902.0,2032.0,2021.0,1957.0,0.0,0.0,0.0,
1628.0,2349.0,1878.0,2023.0,2014.0,1976.0,0.0,0.0,0.0,
1791.0,2286.0,1853.0,2020.0,2015.0,2018.0,0.0,0.0,0.0,
1950.0,2154.0,1868.0,2024.0,2022.0,2070.0,25.0,47.0,17.0,
2356.0,1752.0,1994.0,2063.0,2049.0,2342.0,25.0,47.0,17.0,
2467.0,1753.0,2060.0,2075.0,2078.0,2449.0,25.0,47.0,17.0,
2522.0,1813.0,2111.0,2084.0,2094.0,2521.0,0.0,0.0,0.0,
2504.0,1908.0,2134.0,2091.0,2101.0,2545.0,0.0,0.0,0.0,
2448.0,1999.0,2147.0,2093.0,2101.0,2508.0,0.0,0.0,0.0,
2365.0,2078.0,2155.0,2095.0,2103.0,2453.0,0.0,0.0,0.0,
2345.0,2111.0,2155.0,2091.0,2098.0,2396.0,0.0,0.0,0.0,
2297.0,2133.0,2140.0,2084.0,2084.0,2306.0,0.0,0.0,0.0,
2251.0,2154.0,2137.0,2078.0,2079.0,2263.0,0.0,0.0,0.0,
2200.0,2176.0,2143.0,2080.0,2072.0,2228.0,0.0,0.0,0.0,
2143.0,2198.0,2144.0,2079.0,2067.0,2204.0,0.0,0.0,0.0,
2092.0,2211.0,2169.0,2082.0,2070.0,2180.0,0.0,0.0,0.0,
2049.0,2189.0,2182.0,2082.0,2068.0,2185.0,0.0,0.0,0.0,
1980.0,1892.0,2143.0,2079.0,2043.0,2151.0,0.0,0.0,0.0,
2018.0,1902.0,2169.0,2086.0,2051.0,2148.0,0.0,0.0,0.0,
2044.0,1939.0,2170.0,2090.0,2058.0,2138.0,0.0,0.0,0.0,
2045.0,1969.0,2163.0,2083.0,2053.0,2123.0,0.0,0.0,0.0,
2051.0,2002.0,2158.0,2084.0,2055.0,2105.0,25.0,47.0,17.0,
2068.0,2017.0,2144.0,2081.0,2057.0,2102.0,25.0,47.0,17.0,
2079.0,2023.0,2122.0,2081.0,2053.0,2095.0,25.0,47.0,17.0,
2086.0,2011.0,2100.0,2074.0,2049.0,2084.0,0.0,0.0,0.0,
2087.0,1994.0,2077.0,2071.0,2046.0,2056.0,0.0,0.0,0.0,
2087.0,1991.0,2059.0,2068.0,2041.0,2018.0,0.0,0.0,0.0,
2075.0,2034.0,2039.0,2068.0,2035.0,1959.0,0.0,0.0,0.0,
2056.0,2102.0,2029.0,2067.0,2033.0,1894.0,0.0,0.0,0.0,
2038.0,2121.0,1952.0,2064.0,1991.0,1646.0,0.0,0.0,0.0,
2045.0,2122.0,1970.0,2066.0,2004.0,1600.0,0.0,0.0,0.0,
2029.0,2126.0,1990.0,2066.0,2001.0,1568.0,0.0,0.0,0.0,
2003.0,2086.0,2009.0,2070.0,2009.0,1568.0,0.0,0.0,0.0,
1982.0,2032.0,2019.0,2064.0,2004.0,1585.0,0.0,0.0,0.0,
2006.0,2063.0,2049.0,2067.0,2009.0,1635.0,0.0,0.0,0.0,
2085.0,2162.0,2075.0,2073.0,2024.0,1724.0,0.0,0.0,0.0,
2111.0,2283.0,2116.0,2077.0,2027.0,1816.0,0.0,0.0,0.0,
2071.0,2306.0,2141.0,2082.0,2030.0,1871.0,0.0,0.0,0.0,
2070.0,2316.0,2163.0,2090.0,2043.0,1998.0,0.0,0.0,0.0,
2146.0,2305.0,2199.0,2097.0,2066.0,2211.0,0.0,0.0,0.0,
2249.0,2245.0,2201.0,2106.0,2087.0,2468.0,0.0,0.0,0.0,
2083.0,2102.0,1987.0,2081.0,2063.0,2522.0,25.0,47.0,17.0,
2017.0,2135.0,1999.0,2075.0,2064.0,2399.0,25.0,47.0,17.0,
1965.0,2063.0,2022.0,2075.0,2065.0,2315.0,25.0,47.0,17.0,
1928.0,1973.0,2029.0,2073.0,2068.0,2260.0,0.0,0.0,0.0,
1908.0,1937.0,2051.0,2074.0,2065.0,2236.0,0.0,0.0,0.0,
1894.0,1981.0,2083.0,2076.0,2067.0,2224.0,0.0,0.0,0.0,
1879.0,2050.0,2115.0,2082.0,2064.0,2202.0,0.0,0.0,0.0,
1867.0,2069.0,2147.0,2075.0,2061.0,2158.0,0.0,0.0,0.0,
1851.0,2005.0,2148.0,2073.0,2053.0,2121.0,0.0,0.0,0.0,
1805.0,1904.0,2136.0,2068.0,2046.0,2079.0,0.0,0.0,0.0,
1768.0,1813.0,2125.0,2064.0,2044.0,2055.0,0.0,0.0,0.0,
1820.0,1773.0,2127.0,2065.0,2047.0,2057.0,0.0,0.0,0.0,
1955.0,1779.0,2051.0,2063.0,2030.0,2067.0,0.0,0.0,0.0,
1986.0,1857.0,2061.0,2067.0,2041.0,2057.0,0.0,0.0,0.0,
2033.0,1953.0,2069.0,2071.0,2042.0,2055.0,0.0,0.0,0.0,
2101.0,2032.0,2074.0,2076.0,2048.0,2079.0,0.0,0.0,0.0,
2195.0,2091.0,2079.0,2080.0,2054.0,2115.0,0.0,0.0,0.0,
2269.0,2131.0,2080.0,2081.0,2056.0,2168.0,25.0,47.0,17.0,
2325.0,2160.0,2086.0,2084.0,2061.0,2211.0,25.0,47.0,17.0,
2329.0,2181.0,2107.0,2087.0,2063.0,2255.0,25.0,47.0,17.0,
2294.0,2214.0,2127.0,2084.0,2064.0,2255.0,25.0,47.0,17.0,
2258.0,2250.0,2154.0,2079.0,2059.0,2239.0,0.0,0.0,0.0,
2193.0,2295.0,2166.0,2083.0,2059.0,2216.0,0.0,0.0,0.0,
2162.0,2349.0,2179.0,2075.0,2056.0,2193.0,0.0,0.0,0.0,
2153.0,2413.0,2184.0,2063.0,2056.0,2164.0,0.0,0.0,0.0,
2168.0,2501.0,2134.0,2039.0,2037.0,2119.0,0.0,0.0,0.0,
2168.0,2501.0,2141.0,2037.0,2048.0,2108.0,0.0,0.0,0.0,
2148.0,2437.0,2130.0,2036.0,2056.0,2097.0,0.0,0.0,0.0,
2117.0,2253.0,2103.0,2035.0,2058.0,2076.0,0.0,0.0,0.0,
2073.0,2064.0,2075.0,2036.0,2057.0,2072.0,0.0,0.0,0.0,
2041.0,1912.0,2040.0,2038.0,2060.0,2068.0,0.0,0.0,0.0,
2022.0,1887.0,2026.0,2042.0,2057.0,2061.0,0.0,0.0,0.0,
2029.0,1923.0,1974.0,2041.0,2053.0,2042.0,0.0,0.0,0.0,
2035.0,1954.0,1935.0,2036.0,2048.0,2026.0,0.0,0.0,0.0,
2057.0,1967.0,1899.0,2036.0,2046.0,2021.0,0.0,0.0,0.0,
2067.0,1967.0,1873.0,2038.0,2043.0,2024.0,0.0,0.0,0.0,
2078.0,1963.0,1863.0,2043.0,2039.0,2028.0,0.0,0.0,0.0,
2043.0,1932.0,1863.0,2050.0,2015.0,2024.0,0.0,0.0,0.0,
2052.0,1966.0,1925.0,2055.0,2028.0,2031.0,0.0,0.0,0.0,
2059.0,1998.0,1980.0,2060.0,2033.0,2033.0,0.0,0.0,0.0,
2064.0,2025.0,2002.0,2067.0,2035.0,2040.0,0.0,0.0,0.0,
2067.0,2035.0,1999.0,2063.0,2028.0,2042.0,0.0,0.0,0.0,
2066.0,2034.0,1989.0,2063.0,2024.0,2036.0,0.0,0.0,0.0,
2067.0,2034.0,1975.0,2059.0,2026.0,2039.0,0.0,0.0,0.0,
2059.0,2022.0,1985.0,2059.0,2023.0,2034.0,25.0,47.0,17.0,
2055.0,2016.0,1995.0,2064.0,2025.0,2037.0,25.0,47.0,17.0,
2046.0,2017.0,2013.0,2073.0,2022.0,2038.0,0.0,0.0,0.0,
2041.0,2018.0,2012.0,2071.0,2020.0,2040.0,0.0,0.0,0.0,
2039.0,2017.0,2025.0,2075.0,2016.0,2032.0,0.0,0.0,0.0,
2044.0,2021.0,2031.0,2073.0,2021.0,2031.0,0.0,0.0,0.0,
2042.0,2022.0,2055.0,2077.0,1999.0,2009.0,0.0,0.0,0.0,
2057.0,2035.0,2096.0,2081.0,2020.0,2004.0,0.0,0.0,0.0,
2068.0,2041.0,2122.0,2088.0,2029.0,2004.0,0.0,0.0,0.0,
2070.0,2053.0,2127.0,2088.0,2035.0,2005.0,25.0,47.0,17.0,
2077.0,2061.0,2121.0,2090.0,2038.0,2006.0,25.0,47.0,17.0,
2074.0,2067.0,2117.0,2090.0,2040.0,2009.0,25.0,47.0,17.0,
2060.0,2067.0,2110.0,2089.0,2040.0,2008.0,25.0,47.0,17.0,
2037.0,2061.0,2108.0,2086.0,2044.0,2003.0,0.0,0.0,0.0,
2023.0,2056.0,2117.0,2084.0,2047.0,2005.0,0.0,0.0,0.0,
2013.0,2045.0,2114.0,2079.0,2046.0,1999.0,0.0,0.0,0.0,
2008.0,2040.0,2134.0,2080.0,2044.0,2009.0,0.0,0.0,0.0,
1914.0,1942.0,2102.0,2058.0,2017.0,1982.0,0.0,0.0,0.0,
1925.0,1948.0,2166.0,2072.0,2034.0,1985.0,0.0,0.0,0.0,
1939.0,1953.0,2195.0,2071.0,2042.0,2003.0,0.0,0.0,0.0,
1966.0,1927.0,2214.0,2077.0,2050.0,2013.0,0.0,0.0,0.0,
1988.0,1917.0,2228.0,2077.0,2050.0,2025.0,0.0,0.0,0.0,
2014.0,1934.0,2228.0,2080.0,2055.0,2033.0,0.0,0.0,0.0,
2040.0,1968.0,2231.0,2082.0,2048.0,2042.0,0.0,0.0,0.0,
2073.0,2014.0,2227.0,2082.0,2050.0,2053.0,0.0,0.0,0.0,
2120.0,2076.0,2210.0,2082.0,2054.0,2045.0,0.0,0.0,0.0,
2143.0,2113.0,2218.0,2085.0,2053.0,2051.0,0.0,0.0,0.0,
2162.0,2133.0,2214.0,2085.0,2057.0,2065.0,0.0,0.0,0.0,
2159.0,2134.0,2212.0,2085.0,2057.0,2076.0,0.0,0.0,0.0,
2150.0,2144.0,2201.0,2091.0,2065.0,2084.0,0.0,0.0,0.0,
2042.0,2055.0,2080.0,2085.0,2045.0,2102.0,0.0,0.0,0.0,
2047.0,2053.0,2090.0,2087.0,2061.0,2108.0,0.0,0.0,0.0,
2040.0,2045.0,2084.0,2090.0,2065.0,2120.0,0.0,0.0,0.0,
2041.0,2026.0,2077.0,2089.0,2068.0,2126.0,0.0,0.0,0.0,
2043.0,1995.0,2066.0,2090.0,2067.0,2138.0,0.0,0.0,0.0,
2049.0,1966.0,2062.0,2090.0,2071.0,2137.0,0.0,0.0,0.0,
2057.0,1956.0,2065.0,2089.0,2068.0,2136.0,25.0,47.0,17.0,
2064.0,1968.0,2063.0,2091.0,2070.0,2129.0,25.0,47.0,17.0,
2060.0,1990.0,2076.0,2091.0,2062.0,2123.0,0.0,0.0,0.0,
2062.0,2016.0,2078.0,2086.0,2057.0,2115.0,0.0,0.0,0.0,
2053.0,2047.0,2080.0,2084.0,2050.0,2096.0,0.0,0.0,0.0,
2042.0,2091.0,2082.0,2082.0,2050.0,2077.0,0.0,0.0,0.0,
2049.0,2116.0,2036.0,2075.0,2027.0,2085.0,0.0,0.0,0.0,
2065.0,2102.0,2066.0,2077.0,2038.0,2084.0,0.0,0.0,0.0,
2066.0,2080.0,2092.0,2073.0,2040.0,2088.0,0.0,0.0,0.0,
2065.0,2070.0,2106.0,2074.0,2046.0,2085.0,25.0,47.0,17.0,
2067.0,2082.0,2104.0,2075.0,2049.0,2087.0,25.0,47.0,17.0,
2059.0,2094.0,2115.0,2075.0,2046.0,2086.0,25.0,47.0,17.0,
2049.0,2093.0,2123.0,2077.0,2046.0,2073.0,25.0,47.0,17.0,
2026.0,2075.0,2136.0,2069.0,2041.0,2049.0,0.0,0.0,0.0,
2026.0,2057.0,2129.0,2073.0,2033.0,2045.0,0.0,0.0,0.0,
2028.0,2056.0,2129.0,2074.0,2039.0,2049.0,0.0,0.0,0.0,
2042.0,2073.0,2122.0,2076.0,2036.0,2052.0,0.0,0.0,0.0,
2051.0,2052.0,2106.0,2075.0,2039.0,2060.0,0.0,0.0,0.0,
2055.0,1989.0,2082.0,2070.0,2041.0,2061.0,0.0,0.0,0.0,
2009.0,1863.0,2008.0,2067.0,2008.0,2043.0,0.0,0.0,0.0,
2022.0,1908.0,2061.0,2072.0,2030.0,2046.0,0.0,0.0,0.0,
2033.0,1973.0,2118.0,2070.0,2031.0,2043.0,0.0,0.0,0.0,
2041.0,2044.0,2149.0,2070.0,2033.0,2040.0,0.0,0.0,0.0,
2036.0,2103.0,2167.0,2072.0,2035.0,2039.0,0.0,0.0,0.0,
2037.0,2137.0,2172.0,2075.0,2040.0,2045.0,0.0,0.0,0.0,
2038.0,2141.0,2177.0,2078.0,2036.0,2047.0,0.0,0.0,0.0,
2017.0,2101.0,2181.0,2076.0,2036.0,2037.0,0.0,0.0,0.0,
1997.0,2069.0,2183.0,2078.0,2035.0,2030.0,0.0,0.0,0.0,
1987.0,2067.0,2173.0,2073.0,2036.0,2033.0,0.0,0.0,0.0,
