2047.0,2050.0,2035.0,2086.0,0
2042.0,2055.0,2038.0,2087.0,0.0,0.0,
2041.0,2050.0,2042.0,2087.0,0.0,0.0,
2039.0,2035.0,2043.0,2092.0,0.0,0.0,
2042.0,2053.0,2037.0,2088.0,0
2041.0,2053.0,2043.0,2088.0,0
2046.0,2054.0,2038.0,2087.0,0
2042.0,2048.0,2039.0,2090.0,0
2036.0,2056.0,2043.0,2085.0,0
2044.0,2054.0,2036.0,2085.0,0
2039.0,2055.0,2036.0,2086.0,0
2036.0,2050.0,2041.0,2087.0,0
2035.0,2054.0,2047.0,2082.0,0
2032.0,2048.0,2040.0,2081.0,0
2039.0,2055.0,2040.0,2082.0,0
2037.0,2043.0,2039.0,2079.0,0
2037.0,2042.0,2041.0,2083.0,0
2039.0,2041.0,2039.0,2077.0,0
2028.0,2042.0,2044.0,2078.0,0
2041.0,2042.0,2038.0,2075.0,0
2039.0,2038.0,2040.0,2077.0,0
2047.0,2044.0,2037.0,2076.0,0
2042.0,2044.0,2036.0,2069.0,0
2043.0,2037.0,2038.0,2075.0,0.0,0.0,
2045.0,2038.0,2034.0,2077.0,0
2043.0,2039.0,2034.0,2075.0,0
2042.0,2037.0,2039.0,2075.0,0
2040.0,2036.0,2035.0,2075.0,0
2043.0,2038.0,2043.0,2069.0,0
2043.0,2039.0,2042.0,2049.0,0
2043.0,2038.0,2041.0,2068.0,0
2045.0,2038.0,2038.0,2072.0,0
2038.0,2038.0,2037.0,2074.0,0
2043.0,2036.0,2040.0,2070.0,0
2046.0,2038.0,2038.0,2070.0,0
2045.0,2037.0,2039.0,2071.0,0.0,0.0,
2043.0,2043.0,2038.0,2074.0,0.0,0.0,
2047.0,2046.0,2026.0,2074.0,0
2051.0,2046.0,2039.0,2073.0,0
2012.0,2044.0,2043.0,2076.0,0
2046.0,2044.0,2044.0,2077.0,0
2050.0,2045.0,2042.0,2092.0,0
2050.0,2043.0,2036.0,2075.0,0
2052.0,2034.0,2041.0,2072.0,0
2052.0,2047.0,2043.0,2068.0,0
2056.0,2043.0,2041.0,2070.0,0.0,0.0,
2056.0,2048.0,2042.0,2078.0,0.0,0.0,
2060.0,2047.0,2044.0,2073.0,0
2061.0,2047.0,2044.0,2073.0,0
2059.0,2055.0,2061.0,2073.0,0
2058.0,2048.0,2038.0,2075.0,0
2062.0,2054.0,2052.0,2079.0,0
2056.0,2046.0,2043.0,2075.0,0
2053.0,2047.0,2045.0,2075.0,0
2055.0,2050.0,2037.0,2077.0,0
2054.0,2052.0,2041.0,2074.0,0
2049.0,2049.0,2039.0,2076.0,0
2051.0,2052.0,2043.0,2078.0,0
2055.0,2052.0,2042.0,2082.0,0
2046.0,2050.0,2047.0,2074.0,0.0,0.0,
2047.0,2053.0,2044.0,2072.0,0
2052.0,2048.0,2044.0,2075.0,0
2049.0,2047.0,2041.0,2074.0,0
2051.0,2050.0,2042.0,2075.0,0
2045.0,2047.0,2040.0,2076.0,0
2052.0,2049.0,2041.0,2074.0,0
2052.0,2047.0,2039.0,2079.0,0
2050.0,2044.0,2041.0,2074.0,0
2051.0,2047.0,2039.0,2072.0,0.0,0.0,
2047.0,2047.0,2039.0,2073.0,0
2046.0,2045.0,2041.0,2069.0,0
2048.0,2046.0,2040.0,2066.0,0
2045.0,2045.0,2036.0,2066.0,0
2054.0,2044.0,2078.0,2070.0,0
2045.0,2043.0,2035.0,2062.0,0
2044.0,2047.0,2036.0,2064.0,0
2043.0,2048.0,2037.0,2067.0,0
2044.0,2043.0,2038.0,2068.0,0
2045.0,2047.0,2038.0,2068.0,0
2046.0,2046.0,2036.0,2067.0,0
2045.0,2045.0,2040.0,2068.0,0.0,0.0,
2050.0,2044.0,2036.0,2067.0,0.0,0.0,
2052.0,2041.0,2040.0,2069.0,0
2047.0,2041.0,2040.0,2067.0,0
2045.0,2039.0,2041.0,2064.0,0
2045.0,2038.0,2037.0,2105.0,0
2046.0,2040.0,2036.0,2068.0,0
2037.0,2046.0,2038.0,2065.0,0
2045.0,2043.0,2039.0,2071.0,0
2049.0,2046.0,2037.0,2063.0,0
2040.0,2046.0,2039.0,2066.0,0
2058.0,2044.0,2041.0,2077.0,0
2057.0,2047.0,2041.0,2075.0,0
2054.0,2047.0,2041.0,2076.0,0
2061.0,2046.0,2044.0,2079.0,0
2061.0,2048.0,2044.0,2080.0,0
2061.0,2050.0,2044.0,2079.0,0
2056.0,2048.0,2040.0,2077.0,0
2060.0,2040.0,2034.0,2085.0,0.0,0.0,
2062.0,2045.0,2043.0,2081.0,0
2065.0,2039.0,2046.0,2081.0,0
2063.0,2049.0,2042.0,2079.0,0
2061.0,2044.0,2037.0,2078.0,0
2061.0,2042.0,2048.0,2080.0,0.0,0.0,
2059.0,2047.0,2046.0,2075.0,0.0,0.0,
2055.0,2051.0,2045.0,2077.0,0
2058.0,2049.0,2040.0,2073.0,0
2052.0,2049.0,2083.0,2077.0,0
2053.0,2051.0,2043.0,2075.0,0
2053.0,2052.0,2043.0,2077.0,0
2052.0,2053.0,2046.0,2080.0,0
2050.0,2050.0,2043.0,2082.0,0
2052.0,2050.0,2046.0,2074.0,0
2042.0,2047.0,2044.0,2075.0,0
2049.0,2047.0,2038.0,2075.0,0.0,0.0,
2052.0,2051.0,2040.0,2063.0,0.0,0.0,
2055.0,2050.0,2043.0,2065.0,0
2053.0,2052.0,2039.0,2064.0,0
2050.0,2048.0,2038.0,2031.0,0
2053.0,2049.0,2035.0,2065.0,0
2049.0,2049.0,2040.0,2066.0,0
2043.0,2062.0,2047.0,2056.0,0
2045.0,2048.0,2042.0,2058.0,0
2041.0,2045.0,2040.0,2056.0,0
2044.0,2042.0,2039.0,2055.0,0
2045.0,2044.0,2037.0,2057.0,0
2052.0,2044.0,2038.0,2060.0,0
2044.0,2046.0,2035.0,2058.0,0
2044.0,2044.0,2040.0,2061.0,0
2045.0,2039.0,2038.0,2059.0,0
2048.0,2046.0,2036.0,2061.0,0
2045.0,2042.0,2041.0,2057.0,0
2046.0,2045.0,2040.0,2061.0,0
2043.0,2040.0,2038.0,2062.0,0
2042.0,2036.0,2034.0,2058.0,0
2029.0,2041.0,2036.0,2058.0,0
2043.0,2043.0,2039.0,2057.0,0.0,0.0,
2046.0,2045.0,2040.0,2065.0,0.0,0.0,
2044.0,2045.0,2039.0,2065.0,0
2043.0,2048.0,2040.0,2065.0,0
2043.0,2045.0,2037.0,2064.0,0
2041.0,2049.0,2037.0,2060.0,0
2040.0,2048.0,2039.0,2066.0,0
2037.0,2046.0,2050.0,2063.0,0
2046.0,2048.0,2043.0,2061.0,0
2040.0,2048.0,2036.0,2063.0,0
2043.0,2048.0,2041.0,2064.0,0
2045.0,2047.0,2033.0,2067.0,0
2046.0,2041.0,2038.0,2067.0,0
2053.0,2051.0,2041.0,2066.0,0.0,0.0,
2042.0,2050.0,2042.0,2066.0,0
2047.0,2053.0,2041.0,2073.0,0
2045.0,2058.0,2043.0,2066.0,0
2047.0,2062.0,2044.0,2069.0,0
2049.0,2060.0,2045.0,2063.0,0
2049.0,2061.0,2041.0,2067.0,0
2041.0,2063.0,2049.0,2069.0,0
2053.0,2056.0,2043.0,2067.0,0
2048.0,2057.0,2043.0,2061.0,0
2052.0,2057.0,2045.0,2070.0,0
2056.0,2061.0,2039.0,2066.0,0.0,0.0,
2053.0,2052.0,2045.0,2069.0,0.0,0.0,
2049.0,2055.0,2040.0,2079.0,0
2048.0,2053.0,2042.0,2076.0,0
2051.0,2053.0,2041.0,2070.0,0
2049.0,2044.0,2040.0,2075.0,0
2051.0,2046.0,2051.0,2074.0,0
2049.0,2048.0,2042.0,2069.0,0
2047.0,2052.0,2042.0,2075.0,0
2046.0,2053.0,2041.0,2071.0,0
2055.0,2051.0,2040.0,2075.0,0
2046.0,2048.0,2039.0,2076.0,0
2049.0,2068.0,2043.0,2069.0,0.0,0.0,
2046.0,2048.0,2038.0,2071.0,0.0,0.0,
2044.0,2044.0,2038.0,2072.0,0.0,0.0,
2043.0,2050.0,2039.0,2071.0,0
2044.0,2049.0,2042.0,2065.0,0
2036.0,2054.0,2040.0,2068.0,0
2043.0,2048.0,2038.0,2066.0,0
2040.0,2054.0,2037.0,2066.0,0
2045.0,2056.0,2058.0,2065.0,0
2042.0,2059.0,2036.0,2064.0,0
2036.0,2054.0,2034.0,2068.0,0
2040.0,2051.0,2046.0,2068.0,0
2081.0,2055.0,2036.0,2065.0,0
2045.0,2056.0,2029.0,2066.0,0
2048.0,2050.0,2034.0,2066.0,0
2040.0,2050.0,2038.0,2064.0,0
2042.0,2046.0,2035.0,2069.0,0
2043.0,2051.0,2035.0,2068.0,0
2044.0,2047.0,2029.0,2071.0,0
2048.0,2044.0,2036.0,2064.0,0
2046.0,2048.0,2040.0,2073.0,0
2044.0,2047.0,2039.0,2073.0,0
2049.0,2049.0,2040.0,2072.0,0.0,0.0,
2044.0,2052.0,2038.0,2074.0,0
2044.0,2046.0,2035.0,2068.0,0
2043.0,2049.0,2045.0,2071.0,0
2039.0,2055.0,2043.0,2069.0,0
2042.0,2047.0,2040.0,2068.0,0
2044.0,2059.0,2043.0,2074.0,0
2045.0,2045.0,2037.0,2072.0,0
2045.0,2049.0,2041.0,2071.0,0
2037.0,2051.0,2041.0,2073.0,0
2046.0,2050.0,2037.0,2071.0,0
2042.0,2051.0,2042.0,2073.0,0
2046.0,2045.0,2038.0,2065.0,0.0,0.0,
2042.0,2053.0,2038.0,2077.0,0.0,0.0,
2042.0,2049.0,2044.0,2076.0,0
2041.0,2048.0,2040.0,2076.0,0
2032.0,2052.0,2041.0,2072.0,0
2040.0,2048.0,2043.0,2077.0,0
2038.0,2043.0,2041.0,2077.0,0
2037.0,2055.0,2041.0,2077.0,0
2036.0,2049.0,2042.0,2065.0,0
2044.0,2049.0,2041.0,2066.0,0
2040.0,2044.0,2044.0,2067.0,0
2039.0,2045.0,2038.0,2064.0,0
2035.0,2040.0,2042.0,2063.0,0
2031.0,2037.0,2037.0,2032.0,0
2035.0,2032.0,2038.0,2063.0,0
2040.0,2031.0,2035.0,2063.0,0
2052.0,2031.0,2035.0,2068.0,0.0,0.0,
2064.0,2031.0,2036.0,2069.0,0.0,0.0,
2068.0,2032.0,2038.0,2074.0,0.0,0.0,
2072.0,2034.0,2035.0,2074.0,0
2075.0,2036.0,2036.0,2109.0,0
2078.0,2038.0,2036.0,2077.0,0
2072.0,2028.0,2037.0,2072.0,0
2056.0,2047.0,2032.0,2085.0,0
2053.0,2040.0,2035.0,2073.0,0
2052.0,2039.0,2036.0,2074.0,0
2050.0,2040.0,2035.0,2068.0,0
2050.0,2037.0,2034.0,2073.0,0
2044.0,2039.0,2034.0,2080.0,0
2044.0,2040.0,2036.0,2075.0,0
2047.0,2041.0,2036.0,2078.0,0
2042.0,2041.0,2033.0,2072.0,0
2039.0,2039.0,2034.0,2079.0,0
2043.0,2039.0,2030.0,2071.0,0
2041.0,2039.0,2033.0,2070.0,0.0,0.0,
2040.0,2041.0,2030.0,2073.0,0
2037.0,2041.0,2037.0,2070.0,0
2034.0,2044.0,2035.0,2067.0,0
2038.0,2041.0,2033.0,2071.0,0
2041.0,2051.0,2033.0,2071.0,0
2044.0,2048.0,2038.0,2074.0,0
2048.0,2049.0,2035.0,2077.0,0
2047.0,2046.0,2040.0,2074.0,0
2047.0,2045.0,2039.0,2079.0,0
2045.0,2053.0,2038.0,2079.0,0
2045.0,2053.0,2040.0,2079.0,0
2049.0,2061.0,2036.0,2079.0,0.0,0.0,
2048.0,2051.0,2039.0,2082.0,0.0,0.0,
2047.0,2047.0,2039.0,2080.0,0.0,0.0,
2049.0,2049.0,2038.0,2081.0,0
2050.0,2047.0,2037.0,2081.0,0
2047.0,2048.0,2040.0,2083.0,0
2049.0,2049.0,2036.0,2084.0,0
2047.0,2051.0,2038.0,2085.0,0
2047.0,2044.0,2037.0,2079.0,0
2046.0,2049.0,2042.0,2082.0,0
2050.0,2049.0,2040.0,2087.0,0
2053.0,2053.0,2045.0,2080.0,0
2056.0,2055.0,2041.0,2051.0,0
2052.0,2055.0,2039.0,2085.0,0
2055.0,2054.0,2043.0,2081.0,0
2060.0,2050.0,2041.0,2082.0,0
2066.0,2048.0,2039.0,2080.0,0
2074.0,2047.0,2038.0,2077.0,0
2077.0,2048.0,2037.0,2076.0,0
2080.0,2050.0,2041.0,2077.0,0
2072.0,2053.0,2039.0,2076.0,0
2074.0,2046.0,2038.0,2114.0,0
2069.0,2047.0,2039.0,2075.0,0
2070.0,2049.0,2039.0,2080.0,0.0,0.0,
2046.0,2049.0,2039.0,2074.0,0.0,0.0,
2044.0,2045.0,2036.0,2074.0,0
2040.0,2049.0,2038.0,2075.0,0
2034.0,2041.0,2036.0,2075.0,0
2034.0,2047.0,2035.0,2077.0,0
2031.0,2044.0,2039.0,2077.0,0
2025.0,2042.0,2036.0,2078.0,0
2035.0,2040.0,2037.0,2073.0,0
2023.0,2043.0,2039.0,2069.0,0
2018.0,2041.0,2035.0,2075.0,0.0,0.0,
2008.0,2034.0,2036.0,2073.0,0.0,0.0,
2015.0,2039.0,2033.0,2083.0,0
2008.0,2043.0,2039.0,2076.0,0
2005.0,2040.0,2039.0,2072.0,0
2011.0,2034.0,2036.0,2078.0,0
2001.0,2040.0,2037.0,2070.0,0
1998.0,2042.0,2045.0,2076.0,0
2000.0,2041.0,2038.0,2074.0,0
1999.0,2050.0,2036.0,2077.0,0
2000.0,2042.0,2035.0,2078.0,0
2010.0,2044.0,2038.0,2076.0,0
2017.0,2044.0,2043.0,2078.0,0
2017.0,2046.0,2038.0,2074.0,0
2021.0,2045.0,2040.0,2077.0,0
2024.0,2050.0,2036.0,2073.0,0
2027.0,2049.0,2038.0,2075.0,0
2029.0,2049.0,2039.0,2073.0,0
2033.0,2053.0,2043.0,2073.0,0
2032.0,2052.0,2044.0,2071.0,0
2031.0,2030.0,2039.0,2072.0,0
2036.0,2053.0,2042.0,2071.0,0
2042.0,2054.0,2040.0,2066.0,0.0,0.0,
2046.0,2055.0,2042.0,2070.0,0.0,0.0,
2051.0,2057.0,2041.0,2074.0,0
2051.0,2056.0,2041.0,2065.0,0
2051.0,2054.0,2038.0,2075.0,0
2050.0,2055.0,2040.0,2076.0,0
2051.0,2053.0,2040.0,2074.0,0
2049.0,2056.0,2038.0,2073.0,0
2053.0,2061.0,2032.0,2079.0,0
2054.0,2054.0,2041.0,2077.0,0
2060.0,2054.0,2039.0,2076.0,0
2059.0,2053.0,2040.0,2075.0,0
2056.0,2054.0,2039.0,2081.0,0
2062.0,2052.0,2039.0,2082.0,0
2061.0,2060.0,2040.0,2081.0,0.0,0.0,
2055.0,2047.0,2042.0,2073.0,0.0,0.0,
2056.0,2053.0,2035.0,2080.0,0.0,0.0,
2054.0,2052.0,2037.0,2068.0,0
2058.0,2048.0,2037.0,2080.0,0
2046.0,2050.0,2038.0,2081.0,0
2046.0,2047.0,2039.0,2082.0,0
2043.0,2045.0,2038.0,2078.0,0
2049.0,2048.0,2039.0,2079.0,0
2043.0,2045.0,2035.0,2073.0,0
2041.0,2046.0,2037.0,2076.0,0
2040.0,2045.0,2033.0,2073.0,0
2043.0,2046.0,2034.0,2081.0,0
2037.0,2041.0,2033.0,2070.0,0
2038.0,2044.0,2033.0,2067.0,0
2041.0,2032.0,2030.0,2071.0,0
2042.0,2045.0,2024.0,2066.0,0
2045.0,2045.0,2043.0,2072.0,0
2043.0,2042.0,2034.0,2068.0,0
2044.0,2047.0,2037.0,2067.0,0
2044.0,2041.0,2039.0,2067.0,0
2044.0,2042.0,2036.0,2071.0,0
2045.0,2042.0,2033.0,2035.0,0
2043.0,2039.0,2039.0,2073.0,0
2042.0,2044.0,2036.0,2066.0,0
2046.0,2043.0,2037.0,2073.0,0.0,0.0,
2045.0,2045.0,2038.0,2076.0,0.0,0.0,
2053.0,2040.0,2038.0,2072.0,0.0,0.0,
2047.0,2050.0,2039.0,2076.0,0
2044.0,2049.0,2042.0,2076.0,0
2047.0,2052.0,2040.0,2072.0,0
2051.0,2054.0,2043.0,2071.0,0
2043.0,2054.0,2045.0,2071.0,0
2054.0,2050.0,2040.0,2072.0,0
2042.0,2053.0,2039.0,2076.0,0
2050.0,2051.0,2042.0,2075.0,0
2054.0,2055.0,2043.0,2075.0,0
2045.0,2052.0,2041.0,2078.0,0
2055.0,2053.0,2043.0,2075.0,0
2054.0,2052.0,2040.0,2080.0,0
2056.0,2058.0,2056.0,2070.0,0
2056.0,2053.0,2041.0,2079.0,0
2056.0,2051.0,2042.0,2081.0,0
2054.0,2050.0,2040.0,2081.0,0
2054.0,2050.0,2042.0,2080.0,0
2050.0,2056.0,2042.0,2090.0,0.0,0.0,
2051.0,2055.0,2042.0,2082.0,0.0,0.0,
2053.0,2055.0,2040.0,2085.0,0
2043.0,2048.0,2043.0,2072.0,0
2042.0,2049.0,2040.0,2073.0,0
2038.0,2055.0,2041.0,2079.0,0
2042.0,2046.0,2040.0,2076.0,0
2043.0,2045.0,2041.0,2075.0,0
2041.0,2048.0,2039.0,2076.0,0
2035.0,2048.0,2040.0,2074.0,0
2035.0,2045.0,2042.0,2071.0,0
2037.0,2049.0,2041.0,2078.0,0.0,0.0,
2037.0,2048.0,2036.0,2071.0,0
2034.0,2044.0,2041.0,2070.0,0
2035.0,2041.0,2039.0,2072.0,0
2036.0,2042.0,2040.0,2068.0,0
2035.0,2040.0,2040.0,2066.0,0
2040.0,2040.0,2036.0,2065.0,0
2044.0,2049.0,2047.0,2061.0,0
2038.0,2045.0,2041.0,2061.0,0
2038.0,2041.0,2037.0,2061.0,0
2037.0,2047.0,2040.0,2060.0,0
2038.0,2040.0,2035.0,2061.0,0
2036.0,2045.0,2040.0,2059.0,0.0,0.0,
2035.0,2044.0,2042.0,2060.0,0.0,0.0,
2029.0,2042.0,2039.0,2058.0,0.0,0.0,
2030.0,2039.0,2040.0,2054.0,0
2028.0,2042.0,2037.0,2058.0,0
2028.0,2043.0,2038.0,2059.0,0
2032.0,2039.0,2042.0,2059.0,0
2027.0,2048.0,2040.0,2068.0,0
2035.0,2043.0,2080.0,2057.0,0
2029.0,2042.0,2040.0,2052.0,0
2030.0,2042.0,2041.0,2058.0,0
2021.0,2044.0,2042.0,2051.0,0
2029.0,2048.0,2044.0,2056.0,0
2040.0,2050.0,2045.0,2059.0,0
2037.0,2055.0,2041.0,2062.0,0
2039.0,2055.0,2041.0,2069.0,0
2041.0,2054.0,2043.0,2065.0,0
2040.0,2055.0,2045.0,2063.0,0
2041.0,2054.0,2043.0,2069.0,0
2034.0,2060.0,2044.0,2074.0,0
2041.0,2060.0,2042.0,2065.0,0
2040.0,2056.0,2043.0,2067.0,0
2057.0,2059.0,2043.0,2068.0,0
2040.0,2058.0,2042.0,2068.0,0.0,0.0,
2037.0,2058.0,2035.0,2068.0,0.0,0.0,
2039.0,2062.0,2041.0,2075.0,0.0,0.0,
2036.0,2059.0,2038.0,2082.0,0
2040.0,2057.0,2041.0,2071.0,0
2046.0,2028.0,2036.0,2076.0,0
2046.0,2056.0,2039.0,2077.0,0
2048.0,2057.0,2035.0,2072.0,0
2048.0,2053.0,2038.0,2074.0,0
2047.0,2054.0,2036.0,2071.0,0
2047.0,2054.0,2035.0,2071.0,0
2047.0,2055.0,2047.0,2073.0,0
2054.0,2052.0,2035.0,2071.0,0
2045.0,2053.0,2039.0,2069.0,0
2043.0,2049.0,2037.0,2072.0,0
2045.0,2049.0,2042.0,2073.0,0
2045.0,2050.0,2037.0,2079.0,0
2045.0,2049.0,2037.0,2071.0,0
2043.0,2083.0,2035.0,2069.0,0
2042.0,2048.0,2035.0,2063.0,0
2044.0,2046.0,2032.0,2067.0,0
2039.0,2051.0,2035.0,2068.0,0
2041.0,2047.0,2035.0,2067.0,0.0,0.0,
2042.0,2045.0,2037.0,2064.0,0.0,0.0,
2044.0,2049.0,2038.0,2068.0,0.0,0.0,
2037.0,2047.0,2034.0,2069.0,0.0,0.0,
2042.0,2050.0,2035.0,2064.0,0
2047.0,2049.0,2037.0,2068.0,0
2044.0,2046.0,2034.0,2071.0,0
2045.0,2043.0,2032.0,2070.0,0
2044.0,2043.0,2034.0,2071.0,0
2045.0,2048.0,2036.0,2069.0,0
2043.0,2043.0,2034.0,2066.0,0
2044.0,2045.0,2036.0,2061.0,0
2040.0,2054.0,2041.0,2066.0,0
2041.0,2049.0,2040.0,2066.0,0
2039.0,2048.0,2040.0,2061.0,0
2038.0,2046.0,2038.0,2065.0,0
2043.0,2047.0,2036.0,2067.0,0
2042.0,2048.0,2046.0,2069.0,0
2044.0,2048.0,2037.0,2067.0,0
2040.0,2044.0,2036.0,2068.0,0
2048.0,2042.0,2038.0,2068.0,0
2050.0,2052.0,2038.0,2068.0,0
2050.0,2047.0,2037.0,2067.0,0
2047.0,2049.0,2036.0,2077.0,0
2054.0,2047.0,2076.0,2071.0,0
2057.0,2046.0,2038.0,2071.0,0
2053.0,2044.0,2038.0,2074.0,0
2058.0,2044.0,2036.0,2069.0,0
2050.0,2051.0,2040.0,2059.0,0
2057.0,2039.0,2039.0,2072.0,0
2067.0,2043.0,2041.0,2076.0,0
2069.0,2043.0,2038.0,2078.0,0
2068.0,2039.0,2040.0,2083.0,0
2063.0,2044.0,2038.0,2091.0,0
2070.0,2045.0,2075.0,2093.0,0
2068.0,2042.0,2042.0,2095.0,0
2068.0,2043.0,2038.0,2093.0,0.0,0.0,
2069.0,2046.0,2039.0,2089.0,0.0,0.0,
2061.0,2044.0,2042.0,2088.0,0.0,0.0,
2055.0,2047.0,2037.0,2085.0,0
2053.0,2039.0,2037.0,2081.0,0
2053.0,2044.0,2039.0,2075.0,0
2056.0,2038.0,2036.0,2077.0,0
2047.0,2036.0,2039.0,2067.0,0
2046.0,2039.0,2036.0,2076.0,0
2040.0,2037.0,2029.0,2070.0,0
2051.0,2038.0,2035.0,2067.0,0
2045.0,2041.0,2027.0,2068.0,0
2050.0,2044.0,2035.0,2070.0,0
2054.0,2041.0,2037.0,2074.0,0
2055.0,2038.0,2036.0,2068.0,0
2048.0,2037.0,2038.0,2063.0,0
2050.0,2040.0,2036.0,2064.0,0
2052.0,2035.0,2035.0,2068.0,0
2054.0,2037.0,2033.0,2067.0,0
2049.0,2034.0,2030.0,2069.0,0
2049.0,2034.0,2031.0,2065.0,0
2053.0,2035.0,2035.0,2068.0,0
2053.0,2038.0,2035.0,2066.0,0.0,0.0,
2055.0,2037.0,2036.0,2061.0,0.0,0.0,
2036.0,2037.0,2033.0,2062.0,0
2046.0,2035.0,2032.0,2065.0,0
2049.0,2038.0,2031.0,2064.0,0
2051.0,2039.0,2029.0,2067.0,0
2055.0,2038.0,2036.0,2068.0,0
2049.0,2039.0,2033.0,2069.0,0
2048.0,2043.0,2034.0,2073.0,0
2046.0,2045.0,2030.0,2074.0,0
2045.0,2026.0,2034.0,2074.0,0
2043.0,2040.0,2043.0,2078.0,0.0,0.0,
2043.0,2037.0,2033.0,2078.0,0.0,0.0,
2046.0,2015.0,2035.0,2083.0,0.0,0.0,
2043.0,2041.0,2035.0,2076.0,0
2043.0,2043.0,2054.0,2077.0,0
2041.0,2047.0,2033.0,2073.0,0
2041.0,2049.0,2031.0,2076.0,0
2047.0,2050.0,2037.0,2076.0,0
2042.0,2048.0,2039.0,2082.0,0
2041.0,2050.0,2035.0,2076.0,0
2041.0,2050.0,2038.0,2078.0,0
2039.0,2049.0,2039.0,2077.0,0
2040.0,2050.0,2045.0,2074.0,0
2043.0,2050.0,2041.0,2076.0,0
2042.0,2052.0,2037.0,2076.0,0
2041.0,2051.0,2040.0,2076.0,0
2040.0,2048.0,2042.0,2075.0,0
2033.0,2057.0,2043.0,2075.0,0
2031.0,2049.0,2037.0,2068.0,0
2039.0,2052.0,2050.0,2071.0,0
2034.0,2054.0,2043.0,2076.0,0
2028.0,2046.0,2045.0,2067.0,0
2033.0,2042.0,2041.0,2068.0,0
2034.0,2040.0,2042.0,2069.0,0.0,0.0,
2034.0,2040.0,2037.0,2068.0,0
2035.0,2043.0,2041.0,2068.0,0
2034.0,2043.0,2038.0,2068.0,0
2031.0,2041.0,2040.0,2061.0,0
2028.0,2042.0,2047.0,2064.0,0
2032.0,2050.0,2047.0,2065.0,0
2026.0,2048.0,2047.0,2062.0,0
2026.0,2041.0,2040.0,2065.0,0
2028.0,2045.0,2039.0,2061.0,0
2025.0,2048.0,2040.0,2060.0,0
2030.0,2045.0,2038.0,2060.0,0
2014.0,2048.0,2041.0,2060.0,0.0,0.0,
2032.0,2042.0,2039.0,2054.0,0.0,0.0,
2042.0,2048.0,2039.0,2058.0,0.0,0.0,
2044.0,2045.0,2039.0,2060.0,0
2047.0,2041.0,2040.0,2056.0,0
2039.0,2041.0,2040.0,2058.0,0
2051.0,2045.0,2040.0,2058.0,0
2049.0,2044.0,2041.0,2061.0,0
2047.0,2045.0,2040.0,2062.0,0
2047.0,2043.0,2041.0,2059.0,0
2048.0,2047.0,2037.0,2056.0,0
2050.0,2041.0,2047.0,2060.0,0
2049.0,2041.0,2037.0,2056.0,0
2059.0,2041.0,2041.0,2055.0,0
2050.0,2040.0,2040.0,2059.0,0
2050.0,2047.0,2042.0,2055.0,0
2050.0,2042.0,2058.0,2057.0,0
2039.0,2055.0,2050.0,2063.0,0
2045.0,2049.0,2046.0,2053.0,0
2045.0,2046.0,2045.0,2055.0,0
2048.0,2041.0,2044.0,2059.0,0
2046.0,2053.0,2030.0,2057.0,0
2045.0,2053.0,2046.0,2065.0,0
2046.0,2042.0,2045.0,2061.0,0
2050.0,2055.0,2045.0,2063.0,0
2049.0,2052.0,2044.0,2065.0,0.0,0.0,
2051.0,2053.0,2041.0,2065.0,0.0,0.0,
2050.0,2053.0,2041.0,2058.0,0.0,0.0,
2048.0,2053.0,2047.0,2066.0,0
2045.0,2067.0,2043.0,2063.0,0
2042.0,2054.0,2041.0,2070.0,0
2045.0,2053.0,2042.0,2070.0,0
2046.0,2047.0,2046.0,2055.0,0
2043.0,2052.0,2043.0,2071.0,0
2047.0,2054.0,2044.0,2074.0,0
2049.0,2054.0,2032.0,2079.0,0
2045.0,2053.0,2035.0,2075.0,0
2049.0,2050.0,2042.0,2073.0,0
2048.0,2054.0,2039.0,2074.0,0
2049.0,2067.0,2039.0,2073.0,0
2049.0,2054.0,2049.0,2081.0,0
2046.0,2049.0,2042.0,2075.0,0
2045.0,2048.0,2040.0,2074.0,0
2047.0,2051.0,2039.0,2070.0,0
2046.0,2051.0,2038.0,2073.0,0
2046.0,2047.0,2040.0,2072.0,0.0,0.0,
2043.0,2048.0,2044.0,2065.0,0.0,0.0,
2043.0,2046.0,2043.0,2069.0,0.0,0.0,
2038.0,2040.0,2044.0,2063.0,0
2034.0,2060.0,2042.0,2069.0,0
2036.0,2045.0,2041.0,2071.0,0
2041.0,2043.0,2040.0,2073.0,0
2043.0,2050.0,2039.0,2074.0,0
2038.0,2048.0,2039.0,2060.0,0
2044.0,2046.0,2039.0,2070.0,0
2039.0,2046.0,2047.0,2074.0,0
2039.0,2050.0,2040.0,2071.0,0
2041.0,2050.0,2038.0,2072.0,0
2035.0,2051.0,2043.0,2076.0,0
2037.0,2049.0,2042.0,2073.0,0
2034.0,2046.0,2039.0,2075.0,0
2031.0,2045.0,2042.0,2067.0,0
2045.0,2043.0,2011.0,2067.0,0
2036.0,2044.0,2044.0,2075.0,0
2054.0,2041.0,2039.0,2072.0,0
2067.0,2046.0,2040.0,2076.0,0
2070.0,2047.0,2045.0,2080.0,0
2077.0,2048.0,2040.0,2083.0,0
2070.0,2036.0,2041.0,2085.0,0.0,0.0,
2065.0,2042.0,2032.0,2080.0,0.0,0.0,
2066.0,2051.0,2042.0,2082.0,0
2061.0,2042.0,2034.0,2081.0,0
2062.0,2046.0,2036.0,2083.0,0
2055.0,2048.0,2040.0,2084.0,0
2055.0,2041.0,2039.0,2085.0,0
2054.0,2049.0,2035.0,2088.0,0
2057.0,2050.0,2038.0,2092.0,0
2046.0,2047.0,2044.0,2090.0,0
2055.0,2052.0,2041.0,2087.0,0
2044.0,2055.0,2040.0,2078.0,0.0,0.0,
2046.0,2052.0,2043.0,2078.0,0.0,0.0,
2043.0,2053.0,2047.0,2079.0,0
2047.0,2055.0,2040.0,2083.0,0
2043.0,2054.0,2044.0,2077.0,0
2045.0,2046.0,2042.0,2077.0,0
2042.0,2055.0,2044.0,2078.0,0
2050.0,2053.0,2044.0,2085.0,0
2057.0,2053.0,2047.0,2088.0,0
2061.0,2058.0,2044.0,2093.0,0
2068.0,2056.0,2046.0,2092.0,0
2076.0,2050.0,2037.0,2089.0,0
2076.0,2048.0,2043.0,2088.0,0
2079.0,2050.0,2040.0,2088.0,0
2079.0,2050.0,2041.0,2091.0,0
2071.0,2050.0,2042.0,2079.0,0
2073.0,2051.0,2040.0,2079.0,0
2071.0,2052.0,2041.0,2079.0,0
2057.0,2051.0,2037.0,2079.0,0
2052.0,2046.0,2037.0,2077.0,0
2049.0,2049.0,2037.0,2074.0,0
2043.0,2049.0,2034.0,2074.0,0
2042.0,2053.0,2036.0,2075.0,0
2037.0,2040.0,2021.0,2071.0,0.0,0.0,
2035.0,2048.0,2042.0,2079.0,0.0,0.0,
2031.0,2050.0,2034.0,2079.0,0.0,0.0,
2030.0,2044.0,2037.0,2076.0,0.0,0.0,
2022.0,2042.0,2030.0,2076.0,0.0,0.0,
2021.0,2043.0,2033.0,2074.0,0.0,0.0,
2019.0,2039.0,2034.0,2075.0,0.0,0.0,
2012.0,2002.0,2033.0,2072.0,0.0,0.0,
2010.0,2037.0,2039.0,2072.0,0.0,0.0,
2010.0,2041.0,2036.0,2073.0,0
2013.0,2041.0,2038.0,2074.0,0
2015.0,2042.0,2039.0,2074.0,0
2011.0,2044.0,2034.0,2073.0,0
2013.0,2042.0,2033.0,2076.0,0
2017.0,2045.0,2031.0,2078.0,0
2020.0,2043.0,2037.0,2078.0,0
2022.0,2081.0,2035.0,2080.0,0
2033.0,2043.0,2038.0,2080.0,0
2030.0,2042.0,2035.0,2080.0,0
2035.0,2045.0,2040.0,2085.0,0
2035.0,2045.0,2038.0,2070.0,0
2036.0,2044.0,2035.0,2081.0,0
2035.0,2045.0,2034.0,2082.0,0
2042.0,2052.0,2041.0,2087.0,0
2041.0,2049.0,2038.0,2082.0,0
2038.0,2048.0,2038.0,2081.0,0
2038.0,2040.0,2037.0,2078.0,0
2035.0,2045.0,2042.0,2084.0,0
2037.0,2039.0,2038.0,2080.0,0
2041.0,2048.0,2039.0,2078.0,0
2048.0,2049.0,2038.0,2076.0,0
2047.0,2048.0,2035.0,2076.0,0
2047.0,2054.0,2042.0,2073.0,0
2055.0,2056.0,2035.0,2073.0,0
2039.0,2055.0,2036.0,2081.0,0
2052.0,2044.0,2036.0,2070.0,0
2041.0,2054.0,2035.0,2070.0,0
2051.0,2051.0,2037.0,2073.0,0
2053.0,2048.0,2039.0,2068.0,0
2052.0,2043.0,2036.0,2068.0,0
2054.0,2045.0,2039.0,2069.0,0
2058.0,2046.0,2030.0,2074.0,0
2060.0,2039.0,2033.0,2073.0,0
2059.0,2043.0,2037.0,2074.0,0
2061.0,2039.0,2038.0,2074.0,0
2062.0,2041.0,2036.0,2074.0,0
2099.0,2040.0,2035.0,2073.0,0
2064.0,2046.0,2037.0,2076.0,0
2061.0,2038.0,2035.0,2072.0,0
2056.0,2041.0,2037.0,2066.0,0
2052.0,2042.0,2035.0,2074.0,0
2057.0,2042.0,2035.0,2067.0,0
2051.0,2046.0,2036.0,2068.0,0
2053.0,2044.0,2034.0,2066.0,0
2052.0,2039.0,2034.0,2060.0,0
2054.0,2039.0,2037.0,2063.0,0
2053.0,2039.0,2030.0,2065.0,0
2051.0,2036.0,2035.0,2065.0,0
2046.0,2043.0,2035.0,2065.0,0
2052.0,2037.0,2035.0,2057.0,0
2050.0,2040.0,2031.0,2062.0,0
2050.0,2039.0,2037.0,2066.0,0
2048.0,2036.0,2037.0,2061.0,0
2053.0,2038.0,2038.0,2061.0,0
2051.0,2038.0,2036.0,2057.0,0
2047.0,2035.0,2034.0,2052.0,0
2047.0,2046.0,2037.0,2061.0,0
2063.0,2041.0,2038.0,2058.0,0
2046.0,2044.0,2039.0,2059.0,0
2046.0,2039.0,2038.0,2054.0,0
2046.0,2044.0,2041.0,2055.0,0.0,0.0,
2048.0,2048.0,2044.0,2057.0,0.0,0.0,
2044.0,2050.0,2034.0,2061.0,0
2050.0,2049.0,2042.0,2061.0,0
2041.0,2048.0,2036.0,2061.0,0
2045.0,2048.0,2035.0,2061.0,0
2049.0,2051.0,2040.0,2063.0,0
2046.0,2056.0,2039.0,2058.0,0
2045.0,2052.0,2043.0,2066.0,0
2046.0,2052.0,2039.0,2062.0,0
2043.0,2053.0,2041.0,2061.0,0
2040.0,2054.0,2044.0,2062.0,0
2045.0,2056.0,2040.0,2059.0,0
2038.0,2054.0,2042.0,2062.0,0.0,0.0,
2042.0,2054.0,2039.0,2059.0,0.0,0.0,
2035.0,2056.0,2042.0,2054.0,0.0,0.0,
2039.0,2056.0,2039.0,2059.0,0.0,0.0,
2036.0,2055.0,2040.0,2058.0,0
2050.0,2058.0,2039.0,2070.0,0
2038.0,2054.0,2044.0,2066.0,0
2036.0,2054.0,2039.0,2067.0,0
2031.0,2049.0,2035.0,2061.0,0
2040.0,2051.0,2035.0,2058.0,0
2030.0,2048.0,2032.0,2055.0,0
2039.0,2045.0,2036.0,2054.0,0
2036.0,2045.0,2036.0,2051.0,0
2036.0,2050.0,2036.0,2054.0,0
2041.0,2046.0,2037.0,2056.0,0
2040.0,2045.0,2037.0,2054.0,0
2044.0,2045.0,2038.0,2057.0,0
2046.0,2045.0,2035.0,2063.0,0
2051.0,2046.0,2038.0,2057.0,0
2054.0,2056.0,2040.0,2055.0,0
2052.0,2049.0,2036.0,2061.0,0
2050.0,2047.0,2035.0,2061.0,0
2046.0,2054.0,2040.0,2056.0,0
2048.0,2046.0,2036.0,2059.0,0
2048.0,2049.0,2036.0,2054.0,0
2051.0,2050.0,2031.0,2056.0,0
2044.0,2043.0,2038.0,2058.0,0
2044.0,2049.0,2038.0,2056.0,0
2049.0,2047.0,2038.0,2052.0,0
2051.0,2048.0,2039.0,2052.0,0
2049.0,2048.0,2037.0,2053.0,0
2037.0,2046.0,2037.0,2029.0,0
2049.0,2044.0,2038.0,2048.0,0.0,0.0,
2034.0,2050.0,2041.0,2045.0,0.0,0.0,
2032.0,2050.0,2039.0,2050.0,0
2038.0,2043.0,2034.0,2051.0,0
2036.0,2050.0,2037.0,2041.0,0
2042.0,2044.0,2037.0,2049.0,0
2044.0,2052.0,2036.0,2057.0,0
2047.0,2055.0,2033.0,2057.0,0
2047.0,2054.0,2039.0,2057.0,0
2043.0,2056.0,2035.0,2059.0,0
2052.0,2052.0,2038.0,2059.0,0
2052.0,2055.0,2039.0,2076.0,0.0,0.0,
2053.0,2059.0,2041.0,2066.0,0
2049.0,2056.0,2037.0,2064.0,0
2051.0,2059.0,2036.0,2072.0,0
2054.0,2059.0,2036.0,2068.0,0
2047.0,2058.0,2039.0,2064.0,0
2061.0,2065.0,2046.0,2090.0,0
2061.0,2062.0,2040.0,2088.0,0
2063.0,2058.0,2039.0,2095.0,0
2060.0,2059.0,2038.0,2097.0,0
2051.0,2060.0,2041.0,2096.0,0
2061.0,2062.0,2038.0,2096.0,0
2058.0,2061.0,2038.0,2101.0,0.0,0.0,
2055.0,2061.0,2042.0,2094.0,0.0,0.0,
2058.0,2063.0,2038.0,2099.0,0.0,0.0,
2056.0,2063.0,2038.0,2088.0,0
2054.0,2053.0,2039.0,2089.0,0
2047.0,2055.0,2040.0,2090.0,0
2054.0,2060.0,2037.0,2088.0,0
2050.0,2060.0,2036.0,2084.0,0
2051.0,2057.0,2037.0,2080.0,0
2044.0,2051.0,2038.0,2074.0,0
2051.0,2053.0,2038.0,2079.0,0
2050.0,2051.0,2036.0,2069.0,0
2039.0,2052.0,2037.0,2081.0,0
2050.0,2050.0,2034.0,2079.0,0
2051.0,2050.0,2036.0,2073.0,0
2051.0,2052.0,2036.0,2078.0,0
2047.0,2050.0,2035.0,2076.0,0
2050.0,2046.0,2044.0,2081.0,0
2045.0,2047.0,2037.0,2077.0,0
2047.0,2045.0,2037.0,2081.0,0
2047.0,2040.0,2034.0,2074.0,0
2040.0,2043.0,2035.0,2075.0,0
2050.0,2044.0,2032.0,2074.0,0
2049.0,2040.0,2035.0,2074.0,0.0,0.0,
2048.0,2043.0,2039.0,2078.0,0.0,0.0,
2044.0,2036.0,2037.0,2058.0,0.0,0.0,
2041.0,2036.0,2035.0,2070.0,0
2040.0,2039.0,2036.0,2069.0,0
2041.0,2040.0,2036.0,2075.0,0
2043.0,2037.0,2032.0,2070.0,0
2046.0,2043.0,2035.0,2072.0,0
2046.0,2041.0,2036.0,2074.0,0
2046.0,2081.0,2036.0,2071.0,0
2047.0,2044.0,2044.0,2074.0,0
2048.0,2049.0,2034.0,2075.0,0
2047.0,2048.0,2038.0,2071.0,0
2043.0,2046.0,2038.0,2072.0,0
2049.0,2048.0,2037.0,2076.0,0
2043.0,2045.0,2031.0,2076.0,0
2045.0,2045.0,2038.0,2070.0,0
2047.0,2044.0,2042.0,2069.0,0
2044.0,2053.0,2042.0,2073.0,0
2048.0,2050.0,2041.0,2077.0,0
2048.0,2051.0,2039.0,2078.0,0
2049.0,2051.0,2043.0,2077.0,0
2051.0,2052.0,2038.0,2074.0,0
2049.0,2050.0,2040.0,2091.0,0
2051.0,2053.0,2037.0,2091.0,0
2050.0,2049.0,2036.0,2079.0,0.0,0.0,
2049.0,2050.0,2039.0,2079.0,0.0,0.0,
2052.0,2048.0,2041.0,2081.0,0.0,0.0,
2050.0,2049.0,2041.0,2077.0,0.0,0.0,
2049.0,2054.0,2041.0,2075.0,0.0,0.0,
2059.0,2055.0,2041.0,2075.0,0
2046.0,2056.0,2039.0,2072.0,0
2046.0,2067.0,2041.0,2072.0,0
2046.0,2048.0,2041.0,2066.0,0
2045.0,2047.0,2041.0,2065.0,0
2048.0,2047.0,2040.0,2065.0,0
2049.0,2046.0,2040.0,2070.0,0
2050.0,2045.0,2040.0,2083.0,0
2052.0,2045.0,2038.0,2071.0,0
2048.0,2042.0,2029.0,2066.0,0
2043.0,2047.0,2038.0,2068.0,0
2042.0,2048.0,2038.0,2068.0,0
2043.0,2041.0,2036.0,2066.0,0
2045.0,2041.0,2034.0,2068.0,0
2044.0,2036.0,2034.0,2068.0,0
2042.0,2037.0,2037.0,2065.0,0
2047.0,2038.0,2037.0,2064.0,0
2041.0,2041.0,2037.0,2068.0,0
2044.0,2034.0,2037.0,2060.0,0
2051.0,2040.0,2041.0,2065.0,0
2044.0,2036.0,2035.0,2063.0,0
2048.0,2041.0,2040.0,2062.0,0
2044.0,2039.0,2037.0,2065.0,0
2040.0,2037.0,2036.0,2065.0,0
2046.0,2036.0,2037.0,2065.0,0
2042.0,2037.0,2036.0,2067.0,0
2040.0,2040.0,2037.0,2062.0,0.0,0.0,
2039.0,2038.0,2038.0,2066.0,0
2041.0,2039.0,2034.0,2068.0,0
2038.0,2041.0,2037.0,2067.0,0
2040.0,2039.0,2034.0,2065.0,0
2040.0,2037.0,2036.0,2069.0,0
2035.0,2044.0,2037.0,2066.0,0
2038.0,2043.0,2027.0,2064.0,0
2044.0,2048.0,2040.0,2058.0,0
2045.0,2046.0,2038.0,2065.0,0
2044.0,2039.0,2040.0,2065.0,0
2040.0,2044.0,2036.0,2065.0,0
2040.0,2046.0,2037.0,2070.0,0.0,0.0,
2042.0,2043.0,2034.0,2072.0,0.0,0.0,
2042.0,2049.0,2037.0,2073.0,0
2043.0,2044.0,2042.0,2070.0,0
2046.0,2047.0,2036.0,2074.0,0
2042.0,2061.0,2040.0,2080.0,0
2043.0,2052.0,2042.0,2074.0,0
2038.0,2049.0,2044.0,2082.0,0
2035.0,2052.0,2044.0,2076.0,0
2035.0,2053.0,2042.0,2075.0,0
2035.0,2053.0,2045.0,2070.0,0
2035.0,2054.0,2043.0,2073.0,0.0,0.0,
2035.0,2064.0,2043.0,2083.0,0.0,0.0,
2038.0,2057.0,2041.0,2085.0,0
2041.0,2092.0,2042.0,2081.0,0
2040.0,2056.0,2040.0,2078.0,0
2034.0,2089.0,2043.0,2076.0,0
2040.0,2052.0,2042.0,2083.0,0
2038.0,2052.0,2041.0,2080.0,0
2042.0,2054.0,2041.0,2081.0,0
2046.0,2054.0,2038.0,2074.0,0
2051.0,2053.0,2038.0,2078.0,0
2046.0,2052.0,2037.0,2075.0,0
2045.0,2052.0,2041.0,2077.0,0
2043.0,2052.0,2042.0,2077.0,0
2046.0,2051.0,2036.0,2077.0,0
2042.0,2048.0,2040.0,2078.0,0
2040.0,2053.0,2041.0,2066.0,0
2042.0,2048.0,2039.0,2068.0,0
2040.0,2050.0,2038.0,2072.0,0
2045.0,2045.0,2037.0,2079.0,0
2043.0,2045.0,2034.0,2075.0,0
2045.0,2045.0,2036.0,2080.0,0
2050.0,2043.0,2035.0,2076.0,0
2052.0,2041.0,2040.0,2077.0,0
2052.0,2049.0,2048.0,2084.0,0.0,0.0,
2055.0,2040.0,2038.0,2073.0,0.0,0.0,
2056.0,2044.0,2036.0,2109.0,0
2055.0,2036.0,2039.0,2078.0,0
2060.0,2034.0,2038.0,2073.0,0
2056.0,2039.0,2037.0,2079.0,0
2059.0,2038.0,2040.0,2085.0,0
2057.0,2039.0,2040.0,2076.0,0
2056.0,2041.0,2037.0,2078.0,0
2060.0,2041.0,2041.0,2081.0,0
2056.0,2041.0,2038.0,2079.0,0
2059.0,2046.0,2037.0,2080.0,0.0,0.0,
2062.0,2050.0,2039.0,2080.0,0.0,0.0,
2061.0,2049.0,2035.0,2081.0,0.0,0.0,
2063.0,2056.0,2037.0,2073.0,0
2064.0,2053.0,2036.0,2076.0,0
2063.0,2054.0,2036.0,2080.0,0
2064.0,2046.0,2039.0,2080.0,0
2067.0,2057.0,2039.0,2079.0,0
2067.0,2053.0,2039.0,2082.0,0
2071.0,2051.0,2039.0,2084.0,0
2064.0,2055.0,2038.0,2086.0,0
2062.0,2050.0,2037.0,2082.0,0
2069.0,2059.0,2047.0,2083.0,0
2058.0,2057.0,2040.0,2081.0,0
2055.0,2058.0,2040.0,2081.0,0
2055.0,2053.0,2041.0,2080.0,0
2050.0,2054.0,2038.0,2080.0,0
2051.0,2059.0,2038.0,2080.0,0
2048.0,2055.0,2041.0,2076.0,0
2048.0,2056.0,2041.0,2080.0,0
2047.0,2064.0,2045.0,2081.0,0
2043.0,2055.0,2046.0,2078.0,0
2041.0,2049.0,2041.0,2068.0,0.0,0.0,
2041.0,2049.0,2038.0,2070.0,0
2039.0,2048.0,2037.0,2065.0,0
2044.0,2046.0,2039.0,2068.0,0
2038.0,2051.0,2039.0,2084.0,0
2053.0,2043.0,2040.0,2060.0,0
2054.0,2037.0,2035.0,2056.0,0
2063.0,2036.0,2036.0,2064.0,0
2067.0,2035.0,2036.0,2064.0,0
2070.0,2035.0,2036.0,2068.0,0
2086.0,2039.0,2048.0,2070.0,0
2092.0,2039.0,2035.0,2083.0,0
2096.0,2040.0,2026.0,2073.0,0
2094.0,2041.0,2033.0,2090.0,0.0,0.0,
2086.0,2042.0,2035.0,2070.0,0.0,0.0,
2079.0,2040.0,2034.0,2045.0,0.0,0.0,
2070.0,2041.0,2031.0,2064.0,0
2068.0,2042.0,2035.0,2061.0,0
2063.0,2039.0,2033.0,2068.0,0
2054.0,2042.0,2036.0,2059.0,0
2046.0,2038.0,2034.0,2070.0,0
2037.0,2041.0,2034.0,2058.0,0
2035.0,2044.0,2033.0,2060.0,0
2036.0,2045.0,2033.0,2066.0,0
2036.0,2045.0,2035.0,2070.0,0
2030.0,2040.0,2037.0,2073.0,0
2028.0,2046.0,2036.0,2077.0,0
2020.0,2049.0,2039.0,2080.0,0
2025.0,2046.0,2036.0,2076.0,0
2023.0,2045.0,2034.0,2073.0,0
2023.0,2046.0,2034.0,2074.0,0
2021.0,2044.0,2034.0,2076.0,0
2019.0,2051.0,2035.0,2076.0,0
2022.0,2050.0,2034.0,2075.0,0
2026.0,2050.0,2033.0,2075.0,0
2024.0,2051.0,2037.0,2070.0,0
2036.0,2051.0,2040.0,2061.0,0.0,0.0,
2033.0,2055.0,2042.0,2062.0,0.0,0.0,
2040.0,2055.0,2047.0,2063.0,0
2042.0,2055.0,2038.0,2065.0,0
2046.0,2055.0,2037.0,2065.0,0
2043.0,2059.0,2039.0,2067.0,0
2044.0,2057.0,2037.0,2067.0,0
2043.0,2057.0,2037.0,2064.0,0
2044.0,2055.0,2041.0,2063.0,0
2046.0,2052.0,2035.0,2064.0,0
2043.0,2056.0,2039.0,2054.0,0.0,0.0,
2039.0,2056.0,2040.0,2063.0,0.0,0.0,
2057.0,2053.0,2040.0,2063.0,0
2049.0,2059.0,2038.0,2063.0,0
2051.0,2050.0,2044.0,2063.0,0
2056.0,2052.0,2037.0,2063.0,0
2048.0,2051.0,2041.0,2050.0,0
2054.0,2053.0,2039.0,2058.0,0
2048.0,2054.0,2037.0,2062.0,0
2051.0,2050.0,2038.0,2064.0,0
2053.0,2049.0,2036.0,2062.0,0
2048.0,2062.0,2042.0,2063.0,0
2050.0,2048.0,2034.0,2060.0,0
2049.0,2056.0,2036.0,2062.0,0
2038.0,2051.0,2041.0,2059.0,0
2042.0,2050.0,2037.0,2061.0,0
2044.0,2055.0,2038.0,2057.0,0
2043.0,2047.0,2036.0,2059.0,0
2063.0,2051.0,2040.0,2058.0,0
2043.0,2047.0,2040.0,2056.0,0
2043.0,2050.0,2039.0,2061.0,0
2035.0,2047.0,2035.0,2056.0,0.0,0.0,
2033.0,2047.0,2038.0,2057.0,0.0,0.0,
2037.0,2042.0,2036.0,2055.0,0.0,0.0,
2031.0,2043.0,2040.0,2059.0,0.0,0.0,
2034.0,2047.0,2033.0,2059.0,0
2023.0,2044.0,2037.0,2057.0,0
2034.0,2048.0,2036.0,2059.0,0
2030.0,2043.0,2038.0,2059.0,0
2029.0,2037.0,2036.0,2055.0,0
2033.0,2044.0,2037.0,2060.0,0
2030.0,2044.0,2038.0,2062.0,0
2030.0,2045.0,2038.0,2058.0,0
2031.0,2044.0,1998.0,2062.0,0
2034.0,2044.0,2037.0,2072.0,0
2034.0,2047.0,2036.0,2060.0,0
2035.0,2043.0,2037.0,2066.0,0
2032.0,2047.0,2044.0,2064.0,0
2034.0,2048.0,2040.0,2068.0,0
2034.0,2047.0,2041.0,2071.0,0
2013.0,2046.0,2041.0,2072.0,0
2033.0,2048.0,2042.0,2075.0,0
2048.0,2048.0,2037.0,2076.0,0
2040.0,2048.0,2040.0,2082.0,0
2039.0,2046.0,2042.0,2079.0,0
2037.0,2044.0,2040.0,2077.0,0
2046.0,2039.0,2041.0,2082.0,0
2041.0,2048.0,2042.0,2080.0,0
2038.0,2084.0,2040.0,2083.0,0
2039.0,2036.0,2040.0,2078.0,0
2044.0,2044.0,2043.0,2081.0,0.0,0.0,
2041.0,2045.0,2040.0,2077.0,0.0,0.0,
2035.0,2044.0,2055.0,2080.0,0.0,0.0,
2043.0,2052.0,2044.0,2078.0,0
2046.0,2049.0,2046.0,2079.0,0
2047.0,2053.0,2045.0,2079.0,0
2051.0,2053.0,2043.0,2076.0,0
2047.0,2050.0,2040.0,2077.0,0
2043.0,2055.0,2041.0,2073.0,0
2044.0,2053.0,2036.0,2072.0,0
2039.0,2053.0,2040.0,2059.0,0
2044.0,2052.0,2044.0,2068.0,0
2038.0,2055.0,2043.0,2068.0,0
2041.0,2053.0,2042.0,2066.0,0
2040.0,2058.0,2039.0,2071.0,0
2017.0,2052.0,2041.0,2071.0,0
2034.0,2058.0,2039.0,2066.0,0
2035.0,2052.0,2036.0,2064.0,0
2041.0,2050.0,2043.0,2063.0,0.0,0.0,
2037.0,2049.0,2041.0,2066.0,0.0,0.0,
2044.0,2046.0,2036.0,2068.0,0.0,0.0,
2040.0,2049.0,2036.0,2067.0,0.0,0.0,
2042.0,2049.0,2037.0,2074.0,0
2047.0,2047.0,2039.0,2074.0,0
2044.0,2048.0,2034.0,2072.0,0
2046.0,2047.0,2037.0,2073.0,0
2048.0,2051.0,2035.0,2070.0,0
2014.0,2045.0,2028.0,2072.0,0
2052.0,2041.0,2040.0,2076.0,0
2050.0,2045.0,2037.0,2068.0,0
2050.0,2043.0,2040.0,2076.0,0
2051.0,2041.0,2036.0,2079.0,0
2054.0,2039.0,2043.0,2083.0,0
2054.0,2046.0,2036.0,2090.0,0
2056.0,2049.0,2035.0,2084.0,0
2055.0,2049.0,2038.0,2091.0,0
2048.0,2045.0,2034.0,2108.0,0
2051.0,2041.0,2034.0,2092.0,0
2043.0,2045.0,2033.0,2081.0,0
2048.0,2044.0,2037.0,2084.0,0
2046.0,2048.0,2037.0,2085.0,0
2041.0,2046.0,2034.0,2088.0,0
2045.0,2059.0,2034.0,2081.0,0
2047.0,2051.0,2033.0,2087.0,0
2044.0,2053.0,2035.0,2085.0,0
2045.0,2048.0,2039.0,2087.0,0
2046.0,2052.0,2041.0,2089.0,0
2047.0,2050.0,2039.0,2085.0,0
2042.0,2046.0,2038.0,2089.0,0
2051.0,2052.0,2037.0,2096.0,0
2053.0,2051.0,2040.0,2097.0,0
2055.0,2051.0,2037.0,2099.0,0
2051.0,2048.0,2038.0,2099.0,0
2052.0,2045.0,2038.0,2096.0,0.0,0.0,
2052.0,2051.0,2036.0,2092.0,0.0,0.0,
2054.0,2047.0,2028.0,2095.0,0.0,0.0,
2055.0,2047.0,2036.0,2096.0,0
2054.0,2050.0,2039.0,2096.0,0
2050.0,2047.0,2035.0,2092.0,0
2059.0,2045.0,2030.0,2086.0,0
2053.0,2047.0,2033.0,2083.0,0
2059.0,2045.0,2035.0,2084.0,0
2051.0,2043.0,2032.0,2081.0,0
2050.0,2044.0,2038.0,2080.0,0
2045.0,2042.0,2034.0,2072.0,0
2045.0,2048.0,2035.0,2041.0,0
2047.0,2039.0,2029.0,2074.0,0
2045.0,2042.0,2034.0,2073.0,0
2050.0,2039.0,2033.0,2074.0,0
2046.0,2042.0,2033.0,2073.0,0
2051.0,2034.0,2032.0,2080.0,0
2041.0,2036.0,2032.0,2068.0,0
2050.0,2034.0,2031.0,2069.0,0
2050.0,2034.0,2033.0,2073.0,0
2049.0,2036.0,2033.0,2073.0,0
2051.0,2038.0,2033.0,2083.0,0
2055.0,2041.0,2034.0,2068.0,0.0,0.0,
2051.0,2040.0,2034.0,2071.0,0.0,0.0,
2055.0,2042.0,2035.0,2068.0,0.0,0.0,
2055.0,2037.0,2032.0,2070.0,0
2047.0,2037.0,2034.0,2060.0,0
2051.0,2038.0,2034.0,2059.0,0
2049.0,2040.0,2034.0,2064.0,0
2053.0,2038.0,2031.0,2066.0,0
2057.0,2041.0,2037.0,2059.0,0
2054.0,2045.0,2034.0,2068.0,0
2055.0,2040.0,2038.0,2070.0,0
2040.0,2042.0,2039.0,2066.0,0
2059.0,2052.0,2019.0,2080.0,0
2066.0,2040.0,2031.0,2069.0,0
2060.0,2043.0,2034.0,2071.0,0
2054.0,2042.0,2031.0,2069.0,0
2060.0,2046.0,2033.0,2072.0,0
2058.0,2047.0,2036.0,2072.0,0
2059.0,2050.0,2030.0,2072.0,0
2052.0,2054.0,2039.0,2073.0,0
2052.0,2051.0,2037.0,2075.0,0
2053.0,2053.0,2037.0,2078.0,0
2050.0,2050.0,2035.0,2076.0,0
2048.0,2052.0,2037.0,2077.0,0.0,0.0,
2050.0,2053.0,2037.0,2078.0,0
2054.0,2052.0,2032.0,2076.0,0
2051.0,2054.0,2040.0,2080.0,0
2049.0,2055.0,2038.0,2078.0,0
2048.0,2055.0,2039.0,2078.0,0
2050.0,2058.0,2040.0,2081.0,0
2049.0,2051.0,2038.0,2080.0,0
2050.0,2050.0,2040.0,2076.0,0
2050.0,2053.0,2039.0,2082.0,0
2046.0,2054.0,2040.0,2080.0,0
2046.0,2056.0,2035.0,2066.0,0
2045.0,2057.0,2039.0,2071.0,0.0,0.0,
2046.0,2052.0,2036.0,2068.0,0.0,0.0,
2041.0,2050.0,2033.0,2068.0,0.0,0.0,
2044.0,2045.0,2035.0,2071.0,0.0,0.0,
2042.0,2048.0,2035.0,2064.0,0.0,0.0,
2044.0,2045.0,2040.0,2070.0,0
2043.0,2047.0,2037.0,2073.0,0
2044.0,2044.0,2033.0,2068.0,0
2052.0,2044.0,2035.0,2067.0,0
2063.0,2046.0,2034.0,2067.0,0
2048.0,2041.0,2030.0,2067.0,0
2042.0,2052.0,2034.0,2074.0,0
2045.0,2041.0,2032.0,2073.0,0
2044.0,2045.0,2035.0,2069.0,0
2012.0,2048.0,2032.0,2067.0,0
2045.0,2041.0,2035.0,2066.0,0
2048.0,2047.0,2031.0,2066.0,0
2050.0,2046.0,2032.0,2067.0,0
2054.0,2046.0,2033.0,2067.0,0
2052.0,2048.0,2034.0,2068.0,0
2050.0,2046.0,2034.0,2068.0,0
2048.0,2048.0,2033.0,2069.0,0
2045.0,2046.0,2035.0,2070.0,0
2043.0,2050.0,2042.0,2067.0,0
2045.0,2045.0,2035.0,2072.0,0
2041.0,2038.0,2037.0,2070.0,0
2043.0,2040.0,2037.0,2072.0,0
2044.0,2046.0,2037.0,2069.0,0
2040.0,2046.0,2041.0,2072.0,0
2047.0,2048.0,2038.0,2072.0,0
2048.0,2043.0,2040.0,2060.0,0
2036.0,2047.0,2040.0,2064.0,0
2043.0,2048.0,2042.0,2066.0,0
2038.0,2049.0,2037.0,2086.0,0
2041.0,2048.0,2034.0,2070.0,0.0,0.0,
2045.0,2049.0,2038.0,2067.0,0
2039.0,2048.0,2043.0,2074.0,0
2038.0,2052.0,2038.0,2070.0,0
2041.0,2047.0,2035.0,2070.0,0
2035.0,2047.0,2042.0,2073.0,0
2038.0,2053.0,2040.0,2072.0,0
2040.0,2053.0,2038.0,2071.0,0
2037.0,2047.0,2038.0,2071.0,0
2038.0,2052.0,2041.0,2072.0,0
2038.0,2047.0,2038.0,2071.0,0
2036.0,2057.0,2039.0,2071.0,0
2029.0,2051.0,2044.0,2066.0,0.0,0.0,
2031.0,2055.0,2041.0,2068.0,0.0,0.0,
2033.0,2055.0,2038.0,2068.0,0.0,0.0,
2039.0,2053.0,2038.0,2068.0,0
2034.0,2051.0,2038.0,2068.0,0
2029.0,2053.0,2032.0,2069.0,0
2030.0,2047.0,2038.0,2061.0,0
2036.0,2048.0,2039.0,2070.0,0
2035.0,2040.0,2039.0,2065.0,0
2039.0,2045.0,2037.0,2065.0,0
2043.0,2043.0,2037.0,2061.0,0
2040.0,2052.0,2035.0,2070.0,0
2040.0,2046.0,2039.0,2063.0,0
2041.0,2062.0,2037.0,2063.0,0
2041.0,2046.0,2035.0,2063.0,0
2040.0,2049.0,2039.0,2061.0,0
2045.0,2053.0,2054.0,2061.0,0
2047.0,2047.0,2033.0,2060.0,0
2048.0,2044.0,2037.0,2059.0,0
2047.0,2044.0,2039.0,2054.0,0
2046.0,2042.0,2039.0,2060.0,0
2051.0,2042.0,2037.0,2054.0,0
2047.0,2045.0,2037.0,2059.0,0
2049.0,2047.0,2038.0,2059.0,0.0,0.0,
2050.0,2042.0,2036.0,2058.0,0.0,0.0,
2049.0,2044.0,2032.0,2061.0,0.0,0.0,
2050.0,2044.0,2036.0,2060.0,0
2047.0,2040.0,2038.0,2057.0,0
2058.0,2039.0,2036.0,2059.0,0
2042.0,2042.0,2036.0,2067.0,0
2046.0,2043.0,2037.0,2059.0,0
2049.0,2045.0,2037.0,2057.0,0
2044.0,2042.0,2039.0,2061.0,0
2045.0,2047.0,2038.0,2061.0,0
2045.0,2048.0,2039.0,2053.0,0
2048.0,2050.0,2037.0,2063.0,0
2043.0,2041.0,2038.0,2068.0,0
2047.0,2047.0,2038.0,2066.0,0
2045.0,2051.0,2037.0,2065.0,0
2046.0,2041.0,2033.0,2066.0,0
2047.0,2053.0,2043.0,2064.0,0
2044.0,2053.0,2040.0,2067.0,0
2044.0,2052.0,2041.0,2067.0,0
2048.0,2065.0,2041.0,2071.0,0
2047.0,2055.0,2039.0,2069.0,0
2048.0,2054.0,2042.0,2068.0,0.0,0.0,
2051.0,2054.0,2039.0,2067.0,0.0,0.0,
2035.0,2057.0,2033.0,2066.0,0
2039.0,2057.0,2039.0,2068.0,0
2040.0,2058.0,2048.0,2069.0,0
2041.0,2058.0,2047.0,2069.0,0
2038.0,2057.0,2039.0,2074.0,0
2042.0,2056.0,2039.0,2076.0,0
2045.0,2054.0,2042.0,2078.0,0
2050.0,2057.0,2042.0,2077.0,0
2043.0,2062.0,2043.0,2077.0,0
2037.0,2062.0,2040.0,2082.0,0.0,0.0,
2045.0,2055.0,2046.0,2079.0,0.0,0.0,
2045.0,2054.0,2041.0,2074.0,0
2044.0,2051.0,2039.0,2074.0,0
2046.0,2050.0,2041.0,2074.0,0
2049.0,2055.0,2038.0,2086.0,0
2035.0,2056.0,2046.0,2072.0,0
2042.0,2053.0,2041.0,2070.0,0
2042.0,2052.0,2039.0,2073.0,0
2041.0,2052.0,2039.0,2073.0,0
2046.0,2053.0,2038.0,2069.0,0
2046.0,2049.0,2045.0,2074.0,0
2042.0,2046.0,2039.0,2073.0,0
2045.0,2047.0,2041.0,2078.0,0
2045.0,2052.0,2038.0,2077.0,0
2041.0,2045.0,2037.0,2077.0,0
2042.0,2047.0,2041.0,2074.0,0.0,0.0,
2038.0,2051.0,2040.0,2072.0,0
2038.0,2047.0,2038.0,2073.0,0
2041.0,2049.0,2042.0,2091.0,0
2035.0,2047.0,2042.0,2076.0,0
2042.0,2045.0,2039.0,2076.0,0
2035.0,2051.0,2041.0,2072.0,0
2037.0,2049.0,2038.0,2070.0,0.0,0.0,
2035.0,2049.0,2044.0,2072.0,0
2037.0,2049.0,2042.0,2073.0,0
2039.0,2048.0,2041.0,2073.0,0
2020.0,2045.0,2041.0,2076.0,0
2036.0,2046.0,2038.0,2072.0,0
2037.0,2050.0,2038.0,2080.0,0
2041.0,2049.0,2043.0,2080.0,0
2045.0,2046.0,2035.0,2080.0,0
2041.0,2052.0,2040.0,2076.0,0
2039.0,2045.0,2038.0,2077.0,0
2048.0,2048.0,2042.0,2077.0,0
2043.0,2046.0,2041.0,2078.0,0.0,0.0,
2042.0,2048.0,2040.0,2077.0,0.0,0.0,
2045.0,2049.0,2044.0,2075.0,0
2049.0,2046.0,2044.0,2070.0,0
2048.0,2048.0,2037.0,2078.0,0
2052.0,2045.0,2043.0,2079.0,0
2043.0,2048.0,2042.0,2079.0,0
2057.0,2040.0,2041.0,2081.0,0
2053.0,2046.0,2042.0,2080.0,0
2054.0,2045.0,2041.0,2082.0,0
2056.0,2047.0,2043.0,2068.0,0.0,0.0,
2050.0,2050.0,2045.0,2076.0,0.0,0.0,
2056.0,2050.0,2042.0,2074.0,0
2051.0,2051.0,2041.0,2075.0,0
2064.0,2044.0,2035.0,2072.0,0
2048.0,2051.0,2042.0,2093.0,0
2037.0,2047.0,2043.0,2082.0,0
2053.0,2049.0,2041.0,2080.0,0
2049.0,2043.0,2041.0,2073.0,0
2047.0,2038.0,2041.0,2076.0,0
2049.0,2041.0,2041.0,2074.0,0
2050.0,2041.0,2039.0,2073.0,0
2048.0,2041.0,2037.0,2068.0,0
2054.0,2037.0,2040.0,2074.0,0
2059.0,2047.0,2039.0,2070.0,0
2054.0,2046.0,2041.0,2072.0,0
2055.0,2033.0,2040.0,2065.0,0
2057.0,2042.0,2036.0,2070.0,0
2054.0,2045.0,2036.0,2071.0,0
2053.0,2040.0,2042.0,2071.0,0
2055.0,2043.0,2039.0,2068.0,0
2057.0,2044.0,2036.0,2066.0,0
2052.0,2043.0,2039.0,2069.0,0
2047.0,2036.0,2040.0,2061.0,0.0,0.0,
2050.0,2038.0,2040.0,2062.0,0.0,0.0,
2048.0,2042.0,2039.0,2062.0,0.0,0.0,
2051.0,2036.0,2037.0,2063.0,0.0,0.0,
2046.0,2034.0,2033.0,2064.0,0.0,0.0,
2049.0,2034.0,2036.0,2064.0,0
2049.0,2034.0,2036.0,2062.0,0
2048.0,2034.0,2036.0,2063.0,0
2048.0,2004.0,2042.0,2063.0,0
2051.0,2039.0,2036.0,2077.0,0
2051.0,2040.0,2040.0,2063.0,0
2048.0,2036.0,2039.0,2067.0,0
2044.0,2038.0,2045.0,2064.0,0
2049.0,2040.0,2033.0,2062.0,0
2047.0,2041.0,2032.0,2066.0,0
2049.0,2039.0,2039.0,2069.0,0
2044.0,2041.0,2038.0,2055.0,0
2055.0,2043.0,2039.0,2065.0,0
2049.0,2041.0,2038.0,2076.0,0
2051.0,2044.0,2035.0,2072.0,0
2052.0,2044.0,2035.0,2074.0,0
2050.0,2044.0,2040.0,2076.0,0
2048.0,2044.0,2035.0,2074.0,0
2046.0,2036.0,2036.0,2109.0,0
2048.0,2047.0,2034.0,2086.0,0
2050.0,2043.0,2035.0,2073.0,0
2052.0,2043.0,2035.0,2072.0,0
2053.0,2045.0,2035.0,2077.0,0
2050.0,2046.0,2034.0,2075.0,0
2052.0,2042.0,2041.0,2074.0,0
2047.0,2045.0,2038.0,2075.0,0
2052.0,2051.0,2043.0,2072.0,0
2052.0,2046.0,2038.0,2072.0,0
2050.0,2051.0,2037.0,2080.0,0
2055.0,2043.0,2039.0,2072.0,0
2048.0,2045.0,2038.0,2068.0,0.0,0.0,
2053.0,2047.0,2035.0,2081.0,0
2054.0,2048.0,2037.0,2075.0,0
2054.0,2047.0,2036.0,2075.0,0
2051.0,2048.0,2040.0,2073.0,0
2055.0,2050.0,2032.0,2069.0,0
2053.0,2050.0,2038.0,2066.0,0
2056.0,2048.0,2000.0,2072.0,0
2048.0,2050.0,2036.0,2074.0,0
2050.0,2046.0,2035.0,2068.0,0
2048.0,2040.0,2037.0,2071.0,0
2048.0,2046.0,2035.0,2068.0,0
2063.0,2052.0,2043.0,2071.0,0.0,0.0,
2069.0,2042.0,2035.0,2077.0,0.0,0.0,
2072.0,2045.0,2040.0,2066.0,0.0,0.0,
2076.0,2042.0,2035.0,2068.0,0
2081.0,2041.0,2033.0,2062.0,0
2083.0,2045.0,2034.0,2070.0,0
2080.0,2042.0,2035.0,2056.0,0
2079.0,2046.0,2033.0,2068.0,0
2075.0,2046.0,2032.0,2070.0,0
2072.0,2047.0,2034.0,2071.0,0
2066.0,2047.0,2035.0,2071.0,0
2057.0,2045.0,2037.0,2071.0,0
2056.0,2049.0,2035.0,2069.0,0
2055.0,2049.0,2029.0,2069.0,0
2050.0,2047.0,2033.0,2068.0,0
2039.0,2050.0,2037.0,2062.0,0
2033.0,2047.0,2039.0,2068.0,0
2039.0,2046.0,2038.0,2074.0,0
2040.0,2045.0,2039.0,2081.0,0
2032.0,2045.0,2035.0,2080.0,0
2027.0,2043.0,2038.0,2081.0,0
2023.0,2041.0,2035.0,2082.0,0
2024.0,2045.0,2038.0,2077.0,0
2002.0,2041.0,2034.0,2084.0,0.0,0.0,
2016.0,2040.0,2035.0,2084.0,0.0,0.0,
2016.0,2041.0,2041.0,2084.0,0
2016.0,2033.0,2033.0,2081.0,0
2022.0,2038.0,2032.0,2085.0,0
2029.0,2041.0,2035.0,2084.0,0
2041.0,2040.0,2037.0,2091.0,0
2040.0,2045.0,2076.0,2086.0,0
2046.0,2054.0,2038.0,2090.0,0
2039.0,2050.0,2039.0,2088.0,0
2044.0,2051.0,2040.0,2083.0,0
2041.0,2051.0,2036.0,2080.0,0.0,0.0,
2043.0,2049.0,2040.0,2087.0,0.0,0.0,
2044.0,2046.0,2038.0,2085.0,0.0,0.0,
2045.0,2051.0,2041.0,2089.0,0
2041.0,2056.0,2039.0,2082.0,0
2040.0,2051.0,2035.0,2085.0,0
2042.0,2056.0,2039.0,2080.0,0
2044.0,2054.0,2041.0,2084.0,0
2043.0,2051.0,2040.0,2084.0,0
2041.0,2050.0,2040.0,2085.0,0
2044.0,2057.0,2039.0,2086.0,0
2046.0,2080.0,2039.0,2087.0,0
2045.0,2051.0,2038.0,2075.0,0
2048.0,2044.0,2037.0,2075.0,0
2023.0,2047.0,2037.0,2075.0,0
2046.0,2045.0,2036.0,2075.0,0
2045.0,2045.0,2034.0,2074.0,0
2044.0,2045.0,2035.0,2074.0,0
2034.0,2048.0,2037.0,2077.0,0
2041.0,2047.0,2040.0,2076.0,0
2044.0,2044.0,2034.0,2075.0,0
2039.0,2042.0,2037.0,2073.0,0
2040.0,2042.0,2036.0,2074.0,0
2039.0,2044.0,2034.0,2073.0,0.0,0.0,
2039.0,2043.0,2035.0,2074.0,0.0,0.0,
2039.0,2044.0,2036.0,2079.0,0.0,0.0,
2037.0,2038.0,2037.0,2074.0,0
2040.0,2038.0,2034.0,2077.0,0
2034.0,2038.0,2035.0,2070.0,0
2033.0,2042.0,2036.0,2065.0,0
2038.0,2044.0,2034.0,2073.0,0
2035.0,2041.0,2033.0,2072.0,0
2039.0,2059.0,2034.0,2070.0,0
2049.0,2048.0,2037.0,2076.0,0
2045.0,2050.0,2036.0,2069.0,0
2043.0,2053.0,2039.0,2074.0,0
2045.0,2057.0,2039.0,2069.0,0
2044.0,2054.0,2038.0,2075.0,0
2050.0,2053.0,2037.0,2068.0,0
2042.0,2060.0,2035.0,2078.0,0
2034.0,2054.0,2037.0,2075.0,0
2038.0,2059.0,2036.0,2073.0,0
2036.0,2055.0,2037.0,2078.0,0
2033.0,2058.0,2039.0,2076.0,0
2033.0,2058.0,2036.0,2077.0,0
2035.0,2058.0,2038.0,2081.0,0.0,0.0,
2039.0,2056.0,2040.0,2076.0,0.0,0.0,
2042.0,2058.0,2035.0,2080.0,0.0,0.0,
2043.0,2053.0,2040.0,2078.0,0
2043.0,2050.0,2039.0,2077.0,0
2045.0,2054.0,2039.0,2078.0,0
2046.0,2059.0,2038.0,2080.0,0
2048.0,2057.0,2034.0,2080.0,0
2045.0,2058.0,2041.0,2078.0,0
2043.0,2058.0,2042.0,2070.0,0
2041.0,2057.0,2042.0,2076.0,0
2042.0,2058.0,2044.0,2090.0,0
2010.0,2061.0,2019.0,2077.0,0
2042.0,2056.0,2038.0,2073.0,0
2051.0,2046.0,2039.0,2063.0,0
2050.0,2052.0,2041.0,2063.0,0
2051.0,2052.0,2039.0,2062.0,0
2051.0,2051.0,2038.0,2062.0,0
2054.0,2048.0,2037.0,2062.0,0
2053.0,2047.0,2038.0,2065.0,0
2058.0,2049.0,2040.0,2063.0,0
2053.0,2049.0,2035.0,2057.0,0
2054.0,2050.0,2079.0,2058.0,0
2056.0,2048.0,2038.0,2058.0,0.0,0.0,
2054.0,2049.0,2033.0,2060.0,0
2057.0,2049.0,2034.0,2059.0,0
2057.0,2048.0,2037.0,2059.0,0
2053.0,2045.0,2039.0,2057.0,0
2057.0,2045.0,2036.0,2059.0,0
2036.0,2048.0,2029.0,2050.0,0
2048.0,2053.0,2038.0,2055.0,0
2050.0,2051.0,2034.0,2057.0,0
2052.0,2051.0,2037.0,2055.0,0
2051.0,2049.0,2037.0,2048.0,0
2050.0,2050.0,2030.0,2062.0,0
2051.0,2051.0,2038.0,2062.0,0
2051.0,2049.0,2036.0,2059.0,0.0,0.0,
2047.0,2050.0,2038.0,2062.0,0.0,0.0,
2047.0,2045.0,2037.0,2059.0,0.0,0.0,
2050.0,2051.0,2036.0,2059.0,0
2049.0,2044.0,2037.0,2060.0,0
2048.0,2047.0,2039.0,2057.0,0
2050.0,2050.0,2039.0,2062.0,0
2045.0,2048.0,2040.0,2055.0,0
2050.0,2048.0,2037.0,2054.0,0
2043.0,2049.0,2040.0,2055.0,0
2043.0,2051.0,2039.0,2060.0,0
2044.0,2049.0,2041.0,2067.0,0
2042.0,2048.0,2043.0,2065.0,0
2043.0,2039.0,2040.0,2065.0,0
2047.0,2047.0,2039.0,2076.0,0
2045.0,2048.0,2021.0,2067.0,0
2044.0,2052.0,2040.0,2066.0,0
2044.0,2055.0,2049.0,2069.0,0
2042.0,2057.0,2042.0,2065.0,0
2046.0,2057.0,2047.0,2060.0,0
2044.0,2053.0,2041.0,2066.0,0
2046.0,2048.0,2037.0,2065.0,0
2041.0,2051.0,2034.0,2065.0,0.0,0.0,
2042.0,2047.0,2039.0,2063.0,0.0,0.0,
2029.0,2055.0,2040.0,2061.0,0
2035.0,2057.0,2042.0,2062.0,0
2038.0,2054.0,2038.0,2061.0,0
2038.0,2056.0,2037.0,2069.0,0
2036.0,2059.0,2038.0,2066.0,0
2028.0,2055.0,2037.0,2072.0,0
2033.0,2053.0,2034.0,2069.0,0
2039.0,2051.0,2035.0,2067.0,0
2036.0,2051.0,2033.0,2070.0,0
2035.0,2054.0,2033.0,2073.0,0.0,0.0,
2036.0,2051.0,2030.0,2070.0,0
2037.0,2050.0,2039.0,2074.0,0
2034.0,2052.0,2037.0,2071.0,0
2035.0,2054.0,2035.0,2069.0,0
2033.0,2053.0,2037.0,2072.0,0
2041.0,2049.0,2034.0,2069.0,0
2043.0,2052.0,2031.0,2082.0,0
2050.0,2049.0,2037.0,2084.0,0
2050.0,2051.0,2036.0,2087.0,0
2050.0,2013.0,2038.0,2089.0,0
2050.0,2048.0,2046.0,2090.0,0
2050.0,2051.0,2035.0,2092.0,0.0,0.0,
2054.0,2051.0,2036.0,2091.0,0.0,0.0,
2051.0,2050.0,2037.0,2089.0,0.0,0.0,
2048.0,2048.0,2035.0,2088.0,0
2047.0,2045.0,2035.0,2086.0,0
2046.0,2049.0,2037.0,2081.0,0
2045.0,2048.0,2045.0,2079.0,0
2045.0,2041.0,2033.0,2074.0,0
2041.0,2046.0,2036.0,2072.0,0
2040.0,2052.0,2037.0,2078.0,0
2035.0,2049.0,2040.0,2075.0,0
2041.0,2050.0,2039.0,2075.0,0
2046.0,2051.0,2037.0,2072.0,0
2044.0,2053.0,2039.0,2082.0,0
2042.0,2054.0,2037.0,2081.0,0
2045.0,2052.0,2039.0,2083.0,0
2042.0,2053.0,2034.0,2082.0,0
2045.0,2053.0,2042.0,2084.0,0
2044.0,2046.0,2036.0,2079.0,0
2052.0,2056.0,2045.0,2080.0,0
2049.0,2054.0,2049.0,2090.0,0
2053.0,2051.0,2041.0,2089.0,0
2055.0,2056.0,2043.0,2089.0,0
2052.0,2050.0,2042.0,2086.0,0.0,0.0,
2052.0,2051.0,2046.0,2088.0,0
2053.0,2052.0,2045.0,2086.0,0
2048.0,2054.0,2042.0,2080.0,0
2052.0,2051.0,2041.0,2081.0,0
2049.0,2050.0,2042.0,2084.0,0
2048.0,2053.0,2045.0,2085.0,0
2051.0,2047.0,2042.0,2083.0,0
2049.0,2055.0,2044.0,2083.0,0
2054.0,2056.0,2044.0,2091.0,0
2050.0,2052.0,2040.0,2082.0,0
2057.0,2052.0,2050.0,2084.0,0.0,0.0,
2048.0,2057.0,2041.0,2074.0,0.0,0.0,
2047.0,2052.0,2041.0,2075.0,0
2046.0,2052.0,2044.0,2077.0,0
2044.0,2048.0,2039.0,2069.0,0
2042.0,2046.0,2038.0,2075.0,0
2041.0,2050.0,2039.0,2071.0,0
2035.0,2046.0,2041.0,2080.0,0
2041.0,2047.0,2038.0,2072.0,0
2037.0,2048.0,2038.0,2074.0,0
2040.0,2040.0,2038.0,2075.0,0
2039.0,2043.0,2038.0,2073.0,0
2039.0,2039.0,2037.0,2073.0,0.0,0.0,
2040.0,2038.0,2041.0,2071.0,0
2043.0,2041.0,2037.0,2071.0,0
2036.0,2041.0,2037.0,2070.0,0
2039.0,2044.0,2038.0,2072.0,0
2039.0,2039.0,2034.0,2072.0,0
2040.0,2039.0,2038.0,2071.0,0
2036.0,2038.0,2035.0,2070.0,0
2035.0,2031.0,2035.0,2068.0,0
2056.0,2036.0,2037.0,2071.0,0
2036.0,2035.0,2040.0,2072.0,0
2040.0,2036.0,2036.0,2060.0,0.0,0.0,
2042.0,2036.0,2025.0,2065.0,0.0,0.0,
2040.0,2037.0,2035.0,2032.0,0
2045.0,2033.0,2035.0,2067.0,0
2043.0,2037.0,2036.0,2066.0,0
2045.0,2035.0,2039.0,2068.0,0
2047.0,2037.0,2033.0,2068.0,0
2047.0,2036.0,2036.0,2077.0,0
2048.0,2041.0,2041.0,2072.0,0
2042.0,2041.0,2036.0,2074.0,0
2048.0,2043.0,2032.0,2073.0,0
2045.0,2042.0,2036.0,2069.0,0.0,0.0,
2054.0,2044.0,2034.0,2072.0,0
2056.0,2049.0,2036.0,2075.0,0
2056.0,2045.0,2038.0,2073.0,0
2054.0,2052.0,2043.0,2069.0,0
2057.0,2049.0,2038.0,2072.0,0
2060.0,2050.0,2039.0,2072.0,0
2062.0,2051.0,2038.0,2076.0,0
2055.0,2052.0,2035.0,2075.0,0
2059.0,2053.0,2038.0,2067.0,0
2058.0,2054.0,2037.0,2076.0,0
2053.0,2054.0,2036.0,2072.0,0
2061.0,2063.0,2044.0,2084.0,0.0,0.0,
2058.0,2055.0,2037.0,2076.0,0.0,0.0,
2047.0,2056.0,2039.0,2069.0,0.0,0.0,
2054.0,2059.0,2038.0,2073.0,0
2053.0,2058.0,2035.0,2074.0,0
2056.0,2056.0,2039.0,2076.0,0
2055.0,2061.0,2037.0,2071.0,0
2057.0,2059.0,2042.0,2067.0,0
2047.0,2061.0,2037.0,2056.0,0
2045.0,2060.0,2039.0,2058.0,0
2045.0,2061.0,2036.0,2055.0,0
2044.0,2055.0,2035.0,2064.0,0
2045.0,2057.0,2038.0,2067.0,0
2040.0,2056.0,2038.0,2071.0,0
2039.0,2054.0,2035.0,2059.0,0
2039.0,2053.0,2030.0,2067.0,0
2042.0,2052.0,2036.0,2068.0,0
2040.0,2050.0,2037.0,2067.0,0
2039.0,2049.0,2040.0,2078.0,0
2041.0,2049.0,2036.0,2063.0,0
2039.0,2055.0,2037.0,2027.0,0
2006.0,2046.0,2037.0,2066.0,0
2040.0,2045.0,2039.0,2067.0,0
2040.0,2045.0,2036.0,2056.0,0.0,0.0,
2040.0,2044.0,2040.0,2061.0,0.0,0.0,
2040.0,2044.0,2040.0,2068.0,0
2044.0,2044.0,2038.0,2069.0,0
2044.0,2037.0,2029.0,2065.0,0
2040.0,2037.0,2039.0,2063.0,0
2038.0,2040.0,2041.0,2063.0,0
2040.0,2048.0,2037.0,2066.0,0
2043.0,2043.0,2037.0,2067.0,0
2046.0,2040.0,2036.0,2062.0,0
2042.0,2042.0,2037.0,2065.0,0
2043.0,2046.0,2038.0,2060.0,0.0,0.0,
2041.0,2044.0,2041.0,2063.0,0
2044.0,2047.0,2036.0,2061.0,0
2046.0,2047.0,2037.0,2066.0,0
2045.0,2049.0,2041.0,2070.0,0
2041.0,2051.0,2040.0,2066.0,0
2046.0,2050.0,2042.0,2066.0,0
2047.0,2054.0,2040.0,2066.0,0
2048.0,2049.0,2042.0,2065.0,0
2047.0,2053.0,2044.0,2071.0,0
2049.0,2051.0,2039.0,2084.0,0
2051.0,2059.0,2038.0,2071.0,0
2054.0,2052.0,2040.0,2073.0,0.0,0.0,
2045.0,2052.0,2037.0,2077.0,0.0,0.0,
2050.0,2049.0,2043.0,2077.0,0
2049.0,2058.0,2040.0,2075.0,0
2048.0,2054.0,2046.0,2077.0,0
2048.0,2058.0,2040.0,2078.0,0
2049.0,2057.0,2039.0,2083.0,0
2047.0,2058.0,2038.0,2075.0,0.0,0.0,
2040.0,2058.0,2043.0,2068.0,0
2030.0,2054.0,2043.0,2082.0,0
2044.0,2056.0,2040.0,2078.0,0
2038.0,2054.0,2039.0,2079.0,0
2042.0,2062.0,2040.0,2078.0,0
2044.0,2053.0,2042.0,2082.0,0
2040.0,2051.0,2038.0,2081.0,0
2045.0,2045.0,2039.0,2079.0,0
2044.0,2052.0,2036.0,2075.0,0
2041.0,2049.0,2040.0,2077.0,0
2043.0,2056.0,2043.0,2079.0,0
2043.0,2050.0,2035.0,2077.0,0
2035.0,2050.0,2039.0,2079.0,0.0,0.0,
2038.0,2051.0,2037.0,2076.0,0.0,0.0,
2038.0,2053.0,2038.0,2075.0,0
2037.0,2049.0,2037.0,2076.0,0
2042.0,2050.0,2037.0,2068.0,0
2042.0,2046.0,2039.0,2059.0,0
2040.0,2046.0,2033.0,2069.0,0
2045.0,2053.0,2037.0,2072.0,0
2043.0,2048.0,2034.0,2071.0,0
2046.0,2056.0,2035.0,2068.0,0
2043.0,2046.0,2034.0,2066.0,0
2046.0,2045.0,2029.0,2072.0,0
2042.0,2042.0,2032.0,2061.0,0
2043.0,2047.0,2036.0,2065.0,0
2046.0,2042.0,2035.0,2067.0,0.0,0.0,
2040.0,2039.0,2035.0,2065.0,0
2041.0,2038.0,2034.0,2063.0,0
2046.0,2040.0,2034.0,2063.0,0
2037.0,2040.0,2075.0,2064.0,0
2039.0,2041.0,2036.0,2063.0,0
2047.0,2042.0,2038.0,2063.0,0
2045.0,2050.0,2033.0,2065.0,0
2037.0,2042.0,2034.0,2066.0,0
2049.0,2042.0,2035.0,2073.0,0
2050.0,2047.0,2034.0,2067.0,0
2048.0,2046.0,2035.0,2081.0,0
2050.0,2045.0,2035.0,2064.0,0.0,0.0,
2050.0,2049.0,2035.0,2067.0,0.0,0.0,
2050.0,2049.0,2036.0,2068.0,0
2050.0,2051.0,2035.0,2069.0,0
2049.0,2051.0,2026.0,2070.0,0
2051.0,2047.0,2034.0,2067.0,0
2052.0,2049.0,2049.0,2069.0,0
2051.0,2049.0,2034.0,2072.0,0
2051.0,2049.0,2033.0,2068.0,0
2045.0,2047.0,2037.0,2068.0,0
2050.0,2049.0,2037.0,2065.0,0.0,0.0,
2048.0,2048.0,2040.0,2070.0,0
2046.0,2047.0,2036.0,2079.0,0
2052.0,2050.0,2029.0,2072.0,0
2052.0,2049.0,2037.0,2075.0,0
2057.0,2049.0,2038.0,2075.0,0
2053.0,2047.0,2039.0,2075.0,0
2051.0,2047.0,2045.0,2075.0,0
2050.0,2035.0,2039.0,2075.0,0
2048.0,2046.0,2038.0,2092.0,0
2047.0,2042.0,2029.0,2076.0,0
2048.0,2041.0,2036.0,2076.0,0
2048.0,2036.0,2037.0,2079.0,0
2049.0,2038.0,2037.0,2077.0,0.0,0.0,
2047.0,2038.0,2036.0,2077.0,0.0,0.0,
2040.0,2038.0,2035.0,2072.0,0.0,0.0,
2042.0,2032.0,2033.0,2077.0,0
2044.0,2034.0,2036.0,2076.0,0
2054.0,2037.0,2036.0,2074.0,0
2046.0,2039.0,2033.0,2076.0,0
2044.0,2039.0,2038.0,2076.0,0
2045.0,2033.0,2037.0,2074.0,0
2043.0,2038.0,2040.0,2075.0,0
2044.0,2034.0,2038.0,2070.0,0
2048.0,2037.0,2036.0,2070.0,0
2048.0,2039.0,2037.0,2086.0,0
2046.0,2035.0,2039.0,2070.0,0
2049.0,2036.0,2037.0,2074.0,0
2048.0,2034.0,2037.0,2074.0,0
2047.0,2036.0,2041.0,2072.0,0
2041.0,2022.0,2028.0,2050.0,0
2046.0,2037.0,2040.0,2067.0,0
2048.0,2040.0,2037.0,2076.0,0
2043.0,2041.0,2035.0,2073.0,0
2048.0,2044.0,2040.0,2070.0,0
2048.0,2040.0,2039.0,2073.0,0.0,0.0,
2047.0,2038.0,2015.0,2078.0,0.0,0.0,
2050.0,2045.0,2037.0,2074.0,0
2047.0,2043.0,2038.0,2080.0,0
2048.0,2043.0,2039.0,2045.0,0
2052.0,2040.0,2038.0,2078.0,0
2048.0,2041.0,2038.0,2079.0,0
2053.0,2043.0,2037.0,2078.0,0
2050.0,2041.0,2039.0,2075.0,0
2051.0,2039.0,2037.0,2069.0,0
2047.0,2045.0,2041.0,2060.0,0
2045.0,2045.0,2040.0,2074.0,0.0,0.0,
2045.0,2049.0,2041.0,2082.0,0
2053.0,2042.0,2038.0,2079.0,0
2050.0,2047.0,2038.0,2077.0,0
2086.0,2049.0,2039.0,2073.0,0
2051.0,2051.0,2035.0,2080.0,0
2049.0,2058.0,2039.0,2076.0,0
2047.0,2048.0,2044.0,2072.0,0
2046.0,2054.0,2036.0,2078.0,0
2047.0,2057.0,2040.0,2078.0,0
2047.0,2053.0,2037.0,2079.0,0
2045.0,2053.0,2039.0,2079.0,0
2045.0,2060.0,2037.0,2079.0,0.0,0.0,
2046.0,2054.0,2040.0,2082.0,0.0,0.0,
2045.0,2053.0,2040.0,2082.0,0.0,0.0,
2035.0,2050.0,2040.0,2068.0,0
2043.0,2051.0,2039.0,2072.0,0
2043.0,2051.0,2036.0,2074.0,0
2040.0,2052.0,2035.0,2074.0,0
2038.0,2042.0,2037.0,2072.0,0
2036.0,2050.0,2035.0,2072.0,0
2036.0,2056.0,2040.0,2073.0,0
2035.0,2053.0,2038.0,2075.0,0
2034.0,2050.0,2034.0,2073.0,0
2034.0,2050.0,2035.0,2080.0,0
2032.0,2042.0,2036.0,2072.0,0
2031.0,2045.0,2035.0,2071.0,0
2032.0,2045.0,2034.0,2068.0,0
2032.0,2040.0,2037.0,2072.0,0
2036.0,2044.0,2039.0,2074.0,0
2034.0,2041.0,2039.0,2070.0,0
2035.0,2044.0,2039.0,2061.0,0
2036.0,2040.0,2045.0,2065.0,0
2037.0,2039.0,2036.0,2065.0,0
2037.0,2039.0,2039.0,2069.0,0
2043.0,2036.0,2039.0,2070.0,0.0,0.0,
2046.0,2038.0,2043.0,2070.0,0
2042.0,2038.0,2027.0,2066.0,0
2038.0,2040.0,2036.0,2068.0,0
2038.0,2038.0,2041.0,2067.0,0
2039.0,2042.0,2039.0,2068.0,0
2036.0,2040.0,2040.0,2072.0,0
2038.0,2042.0,2039.0,2066.0,0
2035.0,2039.0,2042.0,2067.0,0
2040.0,2043.0,2039.0,2066.0,0
2039.0,2044.0,2039.0,2067.0,0
2034.0,2053.0,2045.0,2070.0,0.0,0.0,
2036.0,2043.0,2042.0,2060.0,0.0,0.0,
2077.0,2050.0,2043.0,2066.0,0
2042.0,2055.0,2041.0,2067.0,0
2044.0,2056.0,2039.0,2067.0,0
2042.0,2056.0,2042.0,2069.0,0
2046.0,2045.0,2040.0,2071.0,0
2041.0,2054.0,2040.0,2073.0,0
2046.0,2054.0,2041.0,2072.0,0
2040.0,2053.0,2043.0,2072.0,0
2046.0,2056.0,2034.0,2073.0,0
2048.0,2059.0,2040.0,2073.0,0
2045.0,2055.0,2023.0,2072.0,0.0,0.0,
2045.0,2059.0,2041.0,2071.0,0
2046.0,2055.0,2045.0,2072.0,0
2045.0,2054.0,2039.0,2067.0,0
2052.0,2050.0,2042.0,2077.0,0
2083.0,2050.0,2045.0,2075.0,0
2070.0,2048.0,2039.0,2078.0,0
2073.0,2049.0,2039.0,2081.0,0
2074.0,2020.0,2040.0,2082.0,0
2066.0,2052.0,2037.0,2078.0,0
2112.0,2050.0,2034.0,2075.0,0
2063.0,2043.0,2036.0,2077.0,0
2061.0,2038.0,2040.0,2075.0,0.0,0.0,
2054.0,2052.0,2037.0,2107.0,0.0,0.0,
2055.0,2048.0,2036.0,2063.0,0.0,0.0,
2053.0,2049.0,2035.0,2066.0,0
2053.0,2049.0,2036.0,2067.0,0
2050.0,2044.0,2036.0,2066.0,0
2050.0,2049.0,2036.0,2064.0,0
2043.0,2045.0,2035.0,2063.0,0
2040.0,2046.0,2037.0,2067.0,0
2039.0,2047.0,2036.0,2065.0,0
2041.0,2040.0,2054.0,2071.0,0
2040.0,2040.0,2030.0,2073.0,0
2038.0,2041.0,2029.0,2070.0,0
2036.0,2042.0,2036.0,2071.0,0
2033.0,2037.0,2034.0,2070.0,0
2032.0,2042.0,2032.0,2071.0,0
2032.0,2037.0,2034.0,2070.0,0
2032.0,2043.0,2034.0,2073.0,0
2033.0,2042.0,2036.0,2071.0,0
2062.0,2042.0,2026.0,2068.0,0
2029.0,2037.0,2036.0,2068.0,0
2029.0,2039.0,2035.0,2070.0,0
2027.0,2043.0,2035.0,2065.0,0
2022.0,2046.0,2028.0,2059.0,0.0,0.0,
2026.0,2043.0,2034.0,2065.0,0.0,0.0,
2028.0,2048.0,2034.0,2065.0,0
2032.0,2045.0,2037.0,2067.0,0
2037.0,2041.0,2036.0,2067.0,0
2027.0,2043.0,2039.0,2089.0,0
2033.0,2046.0,2041.0,2070.0,0
2037.0,2043.0,2037.0,2060.0,0
2036.0,2043.0,2036.0,2067.0,0
2037.0,2049.0,2037.0,2063.0,0
2039.0,2043.0,2032.0,2068.0,0.0,0.0,
2041.0,2045.0,2037.0,2077.0,0
2034.0,2048.0,2030.0,2073.0,0
2035.0,2049.0,2034.0,2067.0,0
2035.0,2050.0,2039.0,2056.0,0
2037.0,2046.0,2036.0,2068.0,0
2038.0,2047.0,2035.0,2071.0,0
2041.0,2047.0,2041.0,2071.0,0
2039.0,2048.0,2032.0,2073.0,0
2040.0,2046.0,2039.0,2070.0,0
2038.0,2047.0,2039.0,2067.0,0
2040.0,2050.0,2038.0,2069.0,0
2048.0,2056.0,2044.0,2078.0,0.0,0.0,
2048.0,2053.0,2038.0,2069.0,0.0,0.0,
2045.0,2049.0,2037.0,2071.0,0
2039.0,2048.0,2036.0,2072.0,0
2047.0,2048.0,1999.0,2068.0,0
2043.0,2045.0,2033.0,2073.0,0
2042.0,2046.0,2033.0,2070.0,0
2045.0,2049.0,2036.0,2074.0,0
2052.0,2044.0,2036.0,2064.0,0
2048.0,2048.0,2032.0,2067.0,0
2047.0,2041.0,2032.0,2064.0,0
2048.0,2043.0,2035.0,2072.0,0.0,0.0,
2047.0,2044.0,2034.0,2065.0,0.0,0.0,
2044.0,2041.0,2035.0,2070.0,0
2048.0,2043.0,2034.0,2067.0,0
2046.0,2042.0,2034.0,2072.0,0
2038.0,2041.0,2032.0,2068.0,0
2043.0,2045.0,2036.0,2066.0,0
2042.0,2041.0,2037.0,2066.0,0
2037.0,2042.0,2035.0,2035.0,0
2044.0,2039.0,2032.0,2067.0,0.0,0.0,
2046.0,2033.0,2036.0,2067.0,0
2045.0,2040.0,2036.0,2070.0,0
2036.0,2043.0,2040.0,2050.0,0
2036.0,2043.0,2040.0,2063.0,0
2035.0,2046.0,2034.0,2061.0,0
2039.0,2046.0,2034.0,2067.0,0
2040.0,2042.0,2034.0,2067.0,0
2040.0,2044.0,2033.0,2072.0,0
2046.0,2043.0,2036.0,2068.0,0
2039.0,2044.0,2037.0,2070.0,0
2045.0,2044.0,2037.0,2071.0,0
2044.0,2042.0,2038.0,2069.0,0.0,0.0,
2047.0,2044.0,2037.0,2067.0,0
2046.0,2045.0,2036.0,2067.0,0
2052.0,2043.0,2036.0,2069.0,0
2050.0,2046.0,2040.0,2072.0,0
2049.0,2053.0,2034.0,2068.0,0
2053.0,2048.0,2040.0,2062.0,0
2048.0,2047.0,2037.0,2062.0,0
2061.0,2055.0,2040.0,2064.0,0
2057.0,2047.0,2045.0,2070.0,0
2056.0,2047.0,2041.0,2068.0,0
2054.0,2048.0,2040.0,2068.0,0
2056.0,2048.0,2040.0,2068.0,0
2054.0,2051.0,2040.0,2068.0,0
2056.0,2053.0,2041.0,2067.0,0.0,0.0,
2058.0,2053.0,2039.0,2068.0,0.0,0.0,
2053.0,2052.0,2041.0,2067.0,0
2056.0,2050.0,2040.0,2070.0,0
2056.0,2054.0,2043.0,2069.0,0
2057.0,2052.0,2041.0,2074.0,0
2061.0,2054.0,2043.0,2069.0,0
2057.0,2054.0,2042.0,2071.0,0
2046.0,2050.0,2043.0,2065.0,0
2045.0,2046.0,2040.0,2063.0,0
2050.0,2048.0,2041.0,2065.0,0
2051.0,2047.0,2038.0,2068.0,0.0,0.0,
2043.0,2047.0,2041.0,2072.0,0.0,0.0,
2051.0,2048.0,2040.0,2075.0,0.0,0.0,
2041.0,2048.0,2040.0,2069.0,0
2043.0,2046.0,2034.0,2073.0,0
2041.0,2045.0,2038.0,2076.0,0
2039.0,2043.0,2039.0,2075.0,0
2039.0,2048.0,2040.0,2068.0,0
2043.0,2049.0,2041.0,2072.0,0
2041.0,2050.0,2040.0,2075.0,0
2032.0,2046.0,2039.0,2072.0,0
2035.0,2047.0,2042.0,2072.0,0
2031.0,2047.0,2037.0,2073.0,0
2032.0,2046.0,2035.0,2061.0,0
2037.0,2056.0,2036.0,2069.0,0
2031.0,2047.0,2038.0,2076.0,0
2035.0,2047.0,2036.0,2071.0,0
2036.0,2046.0,2036.0,2073.0,0
2037.0,2043.0,2037.0,2074.0,0
2035.0,2043.0,2038.0,2071.0,0
2032.0,2041.0,2035.0,2069.0,0
2033.0,2037.0,2036.0,2071.0,0
2036.0,2040.0,2036.0,2069.0,0.0,0.0,
2034.0,2045.0,2038.0,2076.0,0
2033.0,2045.0,2038.0,2082.0,0
2038.0,2043.0,2032.0,2075.0,0
2040.0,2014.0,2035.0,2074.0,0
2041.0,2048.0,2033.0,2071.0,0
2038.0,2045.0,2036.0,2066.0,0
2041.0,2047.0,2038.0,2063.0,0
2043.0,2044.0,2044.0,2069.0,0
2043.0,2045.0,2042.0,2070.0,0
2043.0,2043.0,2038.0,2073.0,0
2047.0,2045.0,2039.0,2073.0,0
2039.0,2047.0,2040.0,2077.0,0
2047.0,2047.0,2040.0,2074.0,0.0,0.0,
2048.0,2047.0,2038.0,2077.0,0.0,0.0,
2050.0,2046.0,2044.0,2074.0,0
2047.0,2051.0,2041.0,2074.0,0
2050.0,2044.0,2043.0,2071.0,0
2049.0,2047.0,2042.0,2073.0,0
2057.0,2049.0,2051.0,2074.0,0
2050.0,2046.0,2041.0,2073.0,0
2052.0,2050.0,2043.0,2077.0,0
2059.0,2056.0,2048.0,2077.0,0
2048.0,2057.0,2041.0,2080.0,0.0,0.0,
2049.0,2052.0,2039.0,2081.0,0
2047.0,2050.0,2040.0,2081.0,0
2046.0,2047.0,2039.0,2077.0,0
2039.0,2048.0,2041.0,2079.0,0
2044.0,2045.0,2039.0,2072.0,0
2043.0,2046.0,2037.0,2068.0,0
2043.0,2042.0,2041.0,2077.0,0
2035.0,2047.0,2038.0,2072.0,0
2051.0,2045.0,2040.0,2078.0,0
2042.0,2049.0,2036.0,2077.0,0
2043.0,2043.0,2040.0,2077.0,0
2040.0,2047.0,2038.0,2067.0,0
2041.0,2044.0,2037.0,2074.0,0.0,0.0,
2036.0,2047.0,2039.0,2066.0,0.0,0.0,
2038.0,2045.0,2038.0,2067.0,0.0,0.0,
2039.0,2044.0,2039.0,2069.0,0
2040.0,2040.0,2038.0,2067.0,0
2008.0,2040.0,2034.0,2071.0,0
2036.0,2040.0,2036.0,2069.0,0
2034.0,2040.0,2033.0,2065.0,0
2035.0,2035.0,2034.0,2072.0,0
2043.0,2041.0,2035.0,2071.0,0
2034.0,2040.0,2031.0,2068.0,0
2037.0,2038.0,2032.0,2075.0,0
2039.0,2038.0,2033.0,2070.0,0
2038.0,2038.0,2035.0,2071.0,0
2051.0,2040.0,2072.0,2073.0,0
2034.0,2045.0,2031.0,2073.0,0
2038.0,2041.0,2031.0,2074.0,0
2039.0,2037.0,2032.0,2067.0,0
2042.0,2059.0,2037.0,2067.0,0
2040.0,2052.0,2041.0,2071.0,0
2038.0,2048.0,2038.0,2069.0,0
2041.0,2050.0,2040.0,2086.0,0
2044.0,2049.0,2048.0,2070.0,0.0,0.0,
2045.0,2048.0,2035.0,2071.0,0.0,0.0,
2036.0,2050.0,2043.0,2075.0,0.0,0.0,
2046.0,2051.0,2034.0,2072.0,0
2049.0,2051.0,2037.0,2077.0,0
2049.0,2053.0,2039.0,2073.0,0
2042.0,2055.0,2038.0,2073.0,0
2046.0,2046.0,2044.0,2076.0,0
2045.0,2043.0,2039.0,2080.0,0
2048.0,2046.0,2039.0,2084.0,0
2047.0,2050.0,2038.0,2079.0,0
2049.0,2049.0,2038.0,2082.0,0
2054.0,2048.0,2038.0,2081.0,0
2052.0,2049.0,2041.0,2080.0,0
2051.0,2052.0,2041.0,2082.0,0
2045.0,2050.0,2036.0,2083.0,0
2051.0,2067.0,2041.0,2081.0,0
2058.0,2054.0,2037.0,2063.0,0
2052.0,2059.0,2040.0,2072.0,0
2058.0,2058.0,2037.0,2081.0,0
2052.0,2053.0,2038.0,2078.0,0
2048.0,2050.0,2043.0,2077.0,0
2051.0,2052.0,2039.0,2076.0,0
2051.0,2057.0,2038.0,2077.0,0.0,0.0,
2029.0,2054.0,2036.0,2073.0,0.0,0.0,
2054.0,2053.0,2038.0,2066.0,0.0,0.0,
2042.0,2048.0,2042.0,2069.0,0.0,0.0,
2035.0,2050.0,2036.0,2063.0,0
2041.0,2043.0,2036.0,2067.0,0
2042.0,2050.0,2035.0,2065.0,0
2045.0,2046.0,2027.0,2066.0,0
2037.0,2048.0,2038.0,2063.0,0
2034.0,2045.0,2038.0,2059.0,0
2040.0,2041.0,2035.0,2062.0,0
2041.0,2047.0,2040.0,2072.0,0
2040.0,2046.0,2037.0,2062.0,0
2036.0,2043.0,2037.0,2067.0,0
2034.0,2043.0,2036.0,2058.0,0
2033.0,2045.0,2036.0,2054.0,0
2035.0,2045.0,2035.0,2059.0,0
2033.0,2042.0,2091.0,2056.0,0
2028.0,2050.0,2041.0,2055.0,0
2033.0,2045.0,2035.0,2049.0,0
2031.0,2036.0,2036.0,2054.0,0
2028.0,2041.0,2038.0,2056.0,0
2029.0,2040.0,2037.0,2053.0,0
2027.0,2037.0,2033.0,2058.0,0
2029.0,2041.0,2035.0,2052.0,0
2033.0,2045.0,2035.0,2057.0,0
2031.0,2048.0,2038.0,2059.0,0
2034.0,2039.0,2034.0,2061.0,0
2034.0,2045.0,2037.0,2058.0,0
2041.0,2024.0,2037.0,2062.0,0
2043.0,2046.0,2040.0,2063.0,0
2045.0,2044.0,2037.0,2066.0,0
2043.0,2049.0,2039.0,2071.0,0
2048.0,2048.0,2037.0,2071.0,0
2038.0,2047.0,2040.0,2059.0,0.0,0.0,
2043.0,2049.0,2036.0,2068.0,0
2057.0,2052.0,2055.0,2071.0,0
2052.0,2050.0,2036.0,2082.0,0
2067.0,2047.0,2041.0,2080.0,0
2054.0,2047.0,2042.0,2086.0,0
2057.0,2048.0,2040.0,2085.0,0
2056.0,2049.0,2045.0,2093.0,0
2056.0,2046.0,2042.0,2097.0,0.0,0.0,
2058.0,2049.0,2041.0,2098.0,0
2063.0,2047.0,2043.0,2096.0,0
2056.0,2050.0,2042.0,2091.0,0
2061.0,2051.0,2041.0,2102.0,0
2072.0,2050.0,2043.0,2102.0,0
2067.0,2051.0,2043.0,2106.0,0
2068.0,2056.0,2046.0,2100.0,0
2062.0,2048.0,2044.0,2110.0,0
2066.0,2047.0,2043.0,2106.0,0
2064.0,2047.0,2043.0,2106.0,0
2065.0,2050.0,2042.0,2099.0,0
2064.0,2049.0,2043.0,2093.0,0
2061.0,2051.0,2041.0,2094.0,0
2062.0,2051.0,2044.0,2089.0,0
2053.0,2047.0,2042.0,2081.0,0.0,0.0,
2056.0,2018.0,2043.0,2086.0,0.0,0.0,
2050.0,2052.0,2043.0,2091.0,0.0,0.0,
2057.0,2050.0,2045.0,2089.0,0
2052.0,2050.0,2041.0,2087.0,0
2055.0,2050.0,2036.0,2086.0,0
2054.0,2045.0,2039.0,2084.0,0
2057.0,2050.0,2038.0,2083.0,0
2050.0,2041.0,2039.0,2072.0,0
2046.0,2043.0,2035.0,2070.0,0
2023.0,2044.0,2038.0,2072.0,0
2047.0,2035.0,2037.0,2070.0,0
2053.0,2041.0,2039.0,2067.0,0
2041.0,2042.0,2039.0,2068.0,0
2038.0,2044.0,2039.0,2066.0,0
2040.0,2046.0,2038.0,2061.0,0
2041.0,2048.0,2036.0,2066.0,0
2038.0,2043.0,2044.0,2062.0,0
2043.0,2047.0,2036.0,2072.0,0
2036.0,2048.0,2039.0,2063.0,0
2045.0,2050.0,2037.0,2059.0,0
2046.0,2046.0,2035.0,2063.0,0
2049.0,2048.0,2038.0,2066.0,0
2051.0,2057.0,2044.0,2067.0,0.0,0.0,
2047.0,2051.0,2037.0,2065.0,0.0,0.0,
2047.0,2053.0,2033.0,2062.0,0
2051.0,2054.0,2036.0,2064.0,0
2053.0,2061.0,2038.0,2063.0,0
2051.0,2052.0,2036.0,2064.0,0
2047.0,2049.0,2043.0,2065.0,0
2051.0,2054.0,2039.0,2068.0,0
2041.0,2049.0,2039.0,2065.0,0
2050.0,2059.0,2035.0,2067.0,0
2057.0,2054.0,2032.0,2066.0,0
2050.0,2054.0,2034.0,2058.0,0.0,0.0,
2032.0,2055.0,2042.0,2059.0,0
2057.0,2057.0,2038.0,2059.0,0
2053.0,2054.0,2037.0,2061.0,0
2056.0,2057.0,1983.0,2061.0,0
2051.0,2053.0,2038.0,2065.0,0
2050.0,2057.0,2040.0,2065.0,0
2055.0,2057.0,2038.0,2071.0,0
2055.0,2052.0,2040.0,2069.0,0
2054.0,2053.0,2036.0,2071.0,0
2052.0,2050.0,2042.0,2068.0,0
2059.0,2048.0,2042.0,2075.0,0
2054.0,2049.0,2033.0,2072.0,0
2055.0,2051.0,2041.0,2073.0,0.0,0.0,
2051.0,2046.0,2041.0,2071.0,0.0,0.0,
2046.0,2045.0,2038.0,2071.0,0.0,0.0,
2046.0,2044.0,2042.0,2066.0,0.0,0.0,
2047.0,2047.0,2038.0,2063.0,0.0,0.0,
2049.0,2043.0,2041.0,2061.0,0.0,0.0,
2048.0,2047.0,2037.0,2059.0,0.0,0.0,
2040.0,2047.0,2039.0,2059.0,0.0,0.0,
2041.0,2049.0,2041.0,2056.0,0.0,0.0,
2038.0,2044.0,2038.0,2058.0,0.0,0.0,
2039.0,2046.0,2035.0,2053.0,0.0,0.0,
2041.0,2044.0,2035.0,2060.0,0.0,0.0,
2041.0,2042.0,2035.0,2063.0,0.0,0.0,
2044.0,2042.0,2036.0,2061.0,0.0,0.0,
2042.0,2041.0,2035.0,2063.0,0.0,0.0,
2041.0,2040.0,2036.0,2064.0,0
2043.0,2046.0,2038.0,2066.0,0
2042.0,2041.0,2036.0,2056.0,0
2041.0,2042.0,2039.0,2064.0,0
2041.0,2034.0,2039.0,2060.0,0
2040.0,2039.0,2036.0,2061.0,0
2040.0,2042.0,2034.0,2060.0,0
2041.0,2042.0,2036.0,2058.0,0
2041.0,2045.0,2037.0,2059.0,0
2046.0,2048.0,2036.0,2070.0,0
2053.0,2043.0,2033.0,2070.0,0
2049.0,2039.0,2035.0,2070.0,0
2050.0,2045.0,2038.0,2108.0,0
2053.0,2044.0,2039.0,2074.0,0
2054.0,2044.0,2040.0,2074.0,0
2057.0,2044.0,2036.0,2074.0,0
2053.0,2045.0,2038.0,2080.0,0
2051.0,2048.0,2039.0,2074.0,0
2056.0,2052.0,2040.0,2078.0,0
2057.0,2045.0,2039.0,2077.0,0
2055.0,2049.0,2041.0,2092.0,0
2054.0,2051.0,2035.0,2078.0,0
2055.0,2048.0,2038.0,2079.0,0
2053.0,2047.0,2040.0,2065.0,0
2050.0,2056.0,2036.0,2076.0,0
2055.0,2058.0,2036.0,2075.0,0
2055.0,2051.0,2037.0,2076.0,0
2057.0,2049.0,2037.0,2077.0,0
2070.0,2050.0,2038.0,2076.0,0
2054.0,2044.0,2037.0,2078.0,0
2057.0,2048.0,2037.0,2065.0,0
2055.0,2053.0,2038.0,2078.0,0
2047.0,2049.0,2037.0,2072.0,0
2050.0,2051.0,2031.0,2075.0,0
2054.0,2048.0,2035.0,2074.0,0
2047.0,2046.0,2030.0,2071.0,0
2052.0,2050.0,2034.0,2053.0,0
2054.0,2048.0,2028.0,2073.0,0
2054.0,2044.0,2039.0,2077.0,0
2042.0,2043.0,2036.0,2073.0,0
2012.0,2041.0,2030.0,2074.0,0
2045.0,2038.0,2038.0,2078.0,0
2042.0,2043.0,2036.0,2081.0,0
2041.0,2040.0,2036.0,2078.0,0
2041.0,2038.0,2037.0,2079.0,0
2040.0,2038.0,2036.0,2080.0,0
2039.0,2011.0,2037.0,2083.0,0
2038.0,2051.0,2040.0,2085.0,0
2039.0,2038.0,2036.0,2082.0,0
2036.0,2042.0,2048.0,2084.0,0
2034.0,2040.0,2035.0,2077.0,0
2033.0,2041.0,2036.0,2079.0,0
2026.0,2042.0,2035.0,2078.0,0
2035.0,2043.0,2035.0,2077.0,0
2031.0,2042.0,2040.0,2069.0,0
2033.0,2045.0,2037.0,2072.0,0
2030.0,2048.0,2040.0,2078.0,0
2038.0,2039.0,2037.0,2078.0,0
2035.0,2042.0,2038.0,2075.0,0
2026.0,2042.0,2040.0,2086.0,0
2035.0,2045.0,2039.0,2076.0,0
2034.0,2039.0,2039.0,2079.0,0
2037.0,2044.0,2041.0,2075.0,0
2038.0,2041.0,2041.0,2075.0,0
2038.0,2043.0,2040.0,2076.0,0
2039.0,2042.0,2042.0,2078.0,0
2043.0,2042.0,2040.0,2081.0,0
2044.0,2040.0,2037.0,2081.0,0
2042.0,2044.0,2041.0,2085.0,0
2029.0,2042.0,2039.0,2080.0,0
2041.0,2036.0,2044.0,2073.0,0
2041.0,2041.0,2044.0,2076.0,0
2046.0,2045.0,2034.0,2077.0,0
2049.0,2044.0,2040.0,2072.0,0
2012.0,2042.0,2043.0,2066.0,0
2043.0,2044.0,2043.0,2074.0,0
2039.0,2051.0,2044.0,2071.0,0
2044.0,2048.0,2043.0,2070.0,0
2039.0,2047.0,2041.0,2072.0,0
2041.0,2047.0,2044.0,2073.0,0
2041.0,2042.0,2041.0,2069.0,0
2045.0,2048.0,2042.0,2063.0,0
2044.0,2055.0,2041.0,2077.0,0
2050.0,2055.0,2043.0,2075.0,0
2049.0,2050.0,2040.0,2069.0,0
2042.0,2045.0,2038.0,2071.0,0
2037.0,2050.0,2039.0,2069.0,0
2039.0,2062.0,2036.0,2058.0,0
2039.0,2046.0,2032.0,2059.0,0
2035.0,2047.0,2022.0,2054.0,0
2036.0,2046.0,2035.0,2052.0,0
2050.0,2047.0,2036.0,2050.0,0
2036.0,2045.0,2037.0,2050.0,0
2033.0,2054.0,2035.0,2045.0,0
2035.0,2046.0,2029.0,2054.0,0
2037.0,2044.0,2035.0,2051.0,0
2042.0,2043.0,2038.0,2052.0,0
2032.0,2042.0,2050.0,2050.0,0
2032.0,2041.0,2034.0,2045.0,0.0,0.0,
2029.0,2043.0,2036.0,2053.0,0.0,0.0,
2027.0,2045.0,2039.0,2057.0,0.0,0.0,
2031.0,2044.0,2043.0,2057.0,0.0,0.0,
2030.0,2048.0,2040.0,2060.0,0.0,0.0,
2032.0,2042.0,2038.0,2061.0,0
2032.0,2042.0,2036.0,2056.0,0
2034.0,2038.0,2036.0,2054.0,0
2034.0,2041.0,2025.0,2055.0,0
2035.0,2035.0,2042.0,2064.0,0
2035.0,2035.0,2034.0,2060.0,0
2038.0,2036.0,2038.0,2058.0,0
2046.0,2038.0,2036.0,2067.0,0
2049.0,2040.0,2037.0,2070.0,0
2053.0,2034.0,2040.0,2068.0,0
2054.0,2033.0,2036.0,2074.0,0
2057.0,2034.0,2037.0,2075.0,0
2062.0,2038.0,2039.0,2075.0,0
2059.0,2035.0,2045.0,2073.0,0
2062.0,2033.0,2044.0,2079.0,0
2064.0,2033.0,2028.0,2086.0,0
2068.0,2035.0,2044.0,2093.0,0
2067.0,2030.0,2034.0,2088.0,0
2066.0,2034.0,2044.0,2090.0,0
2067.0,2032.0,2040.0,2094.0,0
2063.0,2040.0,2041.0,2091.0,0
2060.0,2028.0,2035.0,2088.0,0
2067.0,2026.0,2040.0,2094.0,0
2064.0,2023.0,2034.0,2097.0,0
2064.0,2023.0,2032.0,2089.0,0
2061.0,2027.0,2030.0,2084.0,0
2058.0,2023.0,2033.0,2084.0,0
2056.0,2030.0,2036.0,2083.0,0
2058.0,2034.0,2037.0,2081.0,0
2054.0,2057.0,2039.0,2071.0,0.0,0.0,
2047.0,2052.0,2035.0,2077.0,0.0,0.0,
2051.0,2057.0,2037.0,2075.0,0
2054.0,2055.0,2029.0,2076.0,0
2053.0,2060.0,2031.0,2073.0,0
2054.0,2064.0,2029.0,2074.0,0
2053.0,2068.0,2033.0,2075.0,0
2059.0,2068.0,2031.0,2076.0,0
2049.0,2069.0,2035.0,2079.0,0
2050.0,2075.0,2040.0,2082.0,0
2052.0,2072.0,2042.0,2079.0,0
2049.0,2072.0,2043.0,2084.0,0
2044.0,2077.0,2042.0,2087.0,0
2046.0,2080.0,2043.0,2088.0,0
2041.0,2079.0,2046.0,2086.0,0
2038.0,2084.0,2044.0,2070.0,0
2041.0,2079.0,2044.0,2079.0,0
2034.0,2072.0,2043.0,2079.0,0
2039.0,2073.0,2044.0,2081.0,0
2038.0,2068.0,2042.0,2086.0,0
2036.0,2068.0,2042.0,2086.0,0
2034.0,2068.0,2043.0,2091.0,0
2043.0,2060.0,2039.0,2090.0,0
2057.0,2061.0,2044.0,2090.0,0.0,0.0,
2051.0,2063.0,2043.0,2094.0,0.0,0.0,
2046.0,2056.0,2045.0,2096.0,0.0,0.0,
2053.0,2050.0,2041.0,2089.0,0
2040.0,2045.0,2045.0,2088.0,0
2049.0,2038.0,2039.0,2087.0,0
2042.0,2041.0,2038.0,2084.0,0
2048.0,2045.0,2039.0,2083.0,0
2042.0,2040.0,2044.0,2074.0,0
2037.0,2044.0,2046.0,2072.0,0
2040.0,2050.0,2048.0,2066.0,0
2039.0,2045.0,2047.0,2067.0,0
2036.0,2050.0,2045.0,2068.0,0
2037.0,2057.0,2049.0,2070.0,0
2038.0,2051.0,2045.0,2072.0,0
2032.0,2059.0,2048.0,2086.0,0
2034.0,2057.0,2041.0,2072.0,0
2033.0,2055.0,2044.0,2073.0,0
2035.0,2053.0,2043.0,2071.0,0
2036.0,2064.0,2044.0,2077.0,0
2036.0,2061.0,2037.0,2072.0,0
2032.0,2070.0,2039.0,2071.0,0
2034.0,2068.0,2038.0,2071.0,0
2033.0,2063.0,2035.0,2061.0,0.0,0.0,
2035.0,2061.0,2030.0,2068.0,0.0,0.0,
2046.0,2065.0,2033.0,2071.0,0
2040.0,2067.0,2032.0,2069.0,0
2042.0,2068.0,2034.0,2064.0,0
2040.0,2071.0,2037.0,2069.0,0
2039.0,2076.0,2038.0,2061.0,0
2041.0,2068.0,2035.0,2064.0,0
2038.0,2067.0,2040.0,2061.0,0
2044.0,2057.0,2047.0,2060.0,0
2037.0,2048.0,2042.0,2058.0,0
2044.0,2051.0,2040.0,2055.0,0
2046.0,2049.0,2037.0,2057.0,0.0,0.0,
2048.0,2048.0,2035.0,2052.0,0.0,0.0,
2047.0,2050.0,2040.0,2060.0,0.0,0.0,
2046.0,2048.0,2035.0,2062.0,0
2051.0,2047.0,2041.0,2052.0,0
2049.0,2039.0,2039.0,2060.0,0
2050.0,2032.0,2039.0,2065.0,0
2051.0,2020.0,2036.0,2068.0,0
2048.0,2017.0,2039.0,2068.0,0
2050.0,1996.0,2038.0,2075.0,0
2055.0,1993.0,2041.0,2077.0,0
2049.0,1983.0,2038.0,2080.0,0
2050.0,1984.0,2036.0,2083.0,0
2052.0,1985.0,2038.0,2075.0,0
2049.0,1995.0,2034.0,2072.0,0
2051.0,2004.0,2031.0,2067.0,0
2044.0,2009.0,2033.0,2062.0,0
2051.0,2014.0,2035.0,2065.0,0
2051.0,2027.0,2035.0,2064.0,0
2045.0,2049.0,2045.0,2059.0,0
2050.0,2049.0,2041.0,2096.0,0
2053.0,2047.0,2044.0,2061.0,0
2047.0,2047.0,2039.0,2056.0,0.0,0.0,
2047.0,2047.0,2041.0,2059.0,0
2047.0,2046.0,2038.0,2056.0,0
2023.0,2046.0,2040.0,2069.0,0
2047.0,2046.0,2041.0,2050.0,0
2040.0,2050.0,2036.0,2048.0,0
2048.0,2046.0,2037.0,2043.0,0
2048.0,2046.0,2032.0,2063.0,0
2046.0,2046.0,2031.0,2053.0,0
2050.0,2041.0,2036.0,2054.0,0
2055.0,2041.0,2035.0,2053.0,0
2054.0,2047.0,2036.0,2060.0,0
2053.0,2057.0,2040.0,2047.0,0
2073.0,2105.0,2054.0,2074.0,0.0,0.0,
2064.0,2090.0,2046.0,2072.0,0.0,0.0,
2072.0,2097.0,2042.0,2080.0,0.0,0.0,
2074.0,2099.0,2048.0,2079.0,0
2080.0,2106.0,2047.0,2086.0,0
2075.0,2112.0,2047.0,2090.0,0
2077.0,2117.0,2049.0,2092.0,0
2075.0,2115.0,2042.0,2090.0,0
2067.0,2107.0,2041.0,2088.0,0
2072.0,2110.0,2038.0,2085.0,0
2069.0,2103.0,2034.0,2084.0,0
2069.0,2099.0,2030.0,2088.0,0
2060.0,2092.0,2023.0,2087.0,0
2056.0,2077.0,2022.0,2086.0,0
2053.0,2068.0,2021.0,2082.0,0
2045.0,2063.0,2039.0,2075.0,0
2047.0,2057.0,2041.0,2075.0,0
2043.0,2056.0,2042.0,2071.0,0
2044.0,2057.0,2045.0,2072.0,0
2045.0,2049.0,2044.0,2070.0,0
2044.0,2055.0,2044.0,2070.0,0
2043.0,2050.0,2045.0,2076.0,0
2044.0,2050.0,2046.0,2073.0,0.0,0.0,
2041.0,2047.0,2046.0,2068.0,0.0,0.0,
2035.0,2040.0,2047.0,2066.0,0.0,0.0,
2030.0,2037.0,2048.0,2065.0,0
2025.0,2033.0,2048.0,2062.0,0
2028.0,2027.0,2046.0,2057.0,0
2024.0,2028.0,2051.0,2060.0,0
2030.0,2025.0,2050.0,2057.0,0
2029.0,2018.0,2046.0,2062.0,0
2012.0,1959.0,2035.0,2047.0,0
2008.0,1947.0,2034.0,2048.0,0
2004.0,1935.0,2031.0,2045.0,0
2009.0,1928.0,2031.0,2042.0,0
2008.0,1919.0,2034.0,2040.0,0
2007.0,1913.0,2028.0,2037.0,0
2006.0,1920.0,2027.0,2031.0,0
1993.0,1931.0,2025.0,2040.0,0
2005.0,1942.0,2018.0,2040.0,0
2004.0,1964.0,2028.0,2037.0,0
2004.0,1968.0,2032.0,2037.0,0
2013.0,1998.0,2035.0,2050.0,0
2018.0,2014.0,2034.0,2052.0,0
2020.0,2029.0,2040.0,2061.0,0
2022.0,2042.0,2043.0,2065.0,0.0,0.0,
2021.0,2061.0,2051.0,2065.0,0.0,0.0,
2024.0,2056.0,2054.0,2051.0,0
2030.0,2060.0,2055.0,2075.0,0
2036.0,2060.0,2051.0,2075.0,0
2034.0,2053.0,2045.0,2067.0,0
2040.0,2059.0,2039.0,2065.0,0
2035.0,2050.0,2037.0,2073.0,0
2039.0,2042.0,2027.0,2054.0,0
2028.0,2042.0,2021.0,2060.0,0
2040.0,2031.0,2020.0,2079.0,0
2042.0,2035.0,2023.0,2083.0,0.0,0.0,
2045.0,2039.0,2021.0,2086.0,0
2048.0,2035.0,2020.0,2085.0,0
2046.0,2032.0,2022.0,2084.0,0
2046.0,2037.0,2030.0,2083.0,0
2045.0,2033.0,2029.0,2082.0,0
2040.0,2027.0,2013.0,2056.0,0
2047.0,2030.0,2009.0,2060.0,0
2051.0,2031.0,2012.0,2061.0,0
2054.0,2024.0,2001.0,2068.0,0
2061.0,2015.0,2002.0,2079.0,0
2060.0,2005.0,2003.0,2075.0,0
2061.0,2001.0,2006.0,2087.0,0.0,0.0,
2069.0,2008.0,2016.0,2090.0,0.0,0.0,
2067.0,2012.0,2013.0,2097.0,0.0,0.0,
2072.0,2020.0,2008.0,2091.0,0
2070.0,2031.0,2018.0,2090.0,0
2075.0,2028.0,2017.0,2088.0,0
2074.0,2030.0,2019.0,2083.0,0
2067.0,2032.0,2020.0,2082.0,0
2067.0,2033.0,2023.0,2076.0,0
2064.0,2054.0,2040.0,2076.0,0
2062.0,2065.0,2044.0,2078.0,0
2060.0,2074.0,2056.0,2080.0,0
2060.0,2086.0,2058.0,2080.0,0
2064.0,2097.0,2058.0,2082.0,0
2060.0,2103.0,2050.0,2083.0,0
2057.0,2104.0,2058.0,2090.0,0
2044.0,2098.0,2060.0,2091.0,0
2055.0,2090.0,2055.0,2082.0,0
2048.0,2079.0,2059.0,2081.0,0
2040.0,2072.0,2057.0,2072.0,0
2035.0,2064.0,2056.0,2070.0,0
2025.0,2062.0,2061.0,2067.0,0
2029.0,2065.0,2060.0,2057.0,0
2019.0,2067.0,2066.0,2060.0,0.0,0.0,
2027.0,2073.0,2070.0,2064.0,0.0,0.0,
2027.0,2065.0,2066.0,2063.0,0
2023.0,2067.0,2060.0,2064.0,0
2024.0,2070.0,2057.0,2061.0,0
2024.0,2070.0,2059.0,2065.0,0
2023.0,2068.0,2063.0,2065.0,0
2032.0,2061.0,2068.0,2064.0,0
2036.0,2049.0,2069.0,2061.0,0
2040.0,2045.0,2068.0,2067.0,0
2039.0,2044.0,2077.0,2066.0,0.0,0.0,
2046.0,2059.0,2074.0,2069.0,0.0,0.0,
2048.0,2072.0,2078.0,2069.0,0.0,0.0,
2055.0,2078.0,2076.0,2069.0,0
2050.0,2082.0,2075.0,2070.0,0
2045.0,2083.0,2072.0,2064.0,0
2043.0,2076.0,2063.0,2059.0,0
2031.0,2021.0,2036.0,2058.0,0
2031.0,2013.0,2036.0,2097.0,0
2036.0,2005.0,2026.0,2063.0,0
2036.0,2011.0,2019.0,2073.0,0
2041.0,2017.0,2012.0,2073.0,0
2042.0,2027.0,2007.0,2075.0,0
2049.0,2042.0,2005.0,2077.0,0
2047.0,2051.0,2003.0,2081.0,0
2049.0,2054.0,2003.0,2080.0,0
2048.0,2059.0,2008.0,2076.0,0
2041.0,2063.0,2011.0,2072.0,0
2042.0,2064.0,2019.0,2074.0,0
2044.0,2069.0,2022.0,2082.0,0
2056.0,2069.0,2026.0,2085.0,0
2061.0,2066.0,2025.0,2099.0,0
2064.0,2060.0,2026.0,2107.0,0
2083.0,2082.0,2019.0,2120.0,0.0,0.0,
2091.0,2081.0,2023.0,2121.0,0
2088.0,2073.0,2031.0,2115.0,0
2090.0,2066.0,2030.0,2115.0,0
2081.0,2064.0,2039.0,2108.0,0
2076.0,2065.0,2046.0,2109.0,0
2075.0,2068.0,2050.0,2101.0,0
2066.0,2070.0,2060.0,2102.0,0
2065.0,2078.0,2057.0,2101.0,0
2078.0,2079.0,2052.0,2094.0,0
2056.0,2087.0,2057.0,2088.0,0
2048.0,2094.0,2047.0,2088.0,0
2055.0,2107.0,2052.0,2079.0,0.0,0.0,
2056.0,2119.0,2050.0,2089.0,0.0,0.0,
2059.0,2124.0,2049.0,2086.0,0
2063.0,2120.0,2032.0,2082.0,0
2064.0,2095.0,2030.0,2087.0,0
2058.0,2071.0,2027.0,2086.0,0
2052.0,2054.0,2028.0,2085.0,0
2052.0,2031.0,2025.0,2085.0,0
2049.0,2026.0,2036.0,2084.0,0
2043.0,2017.0,2043.0,2079.0,0
2039.0,2011.0,2043.0,2080.0,0
2026.0,2022.0,2048.0,2074.0,0.0,0.0,
2036.0,2029.0,2053.0,2066.0,0
2036.0,2031.0,2058.0,2062.0,0
2034.0,2034.0,2057.0,2067.0,0
2031.0,2030.0,2052.0,2058.0,0
2030.0,2025.0,2043.0,2053.0,0
2032.0,2032.0,2053.0,2054.0,0
2036.0,2035.0,2052.0,2055.0,0
2036.0,2063.0,2061.0,2061.0,0
2042.0,2066.0,2058.0,2061.0,0
2050.0,2071.0,2044.0,2073.0,0
2055.0,2074.0,2046.0,2079.0,0
2058.0,2079.0,2040.0,2084.0,0
2060.0,2079.0,2038.0,2083.0,0
2059.0,2074.0,2043.0,2083.0,0
2057.0,2071.0,2042.0,2080.0,0.0,0.0,
2044.0,2052.0,2048.0,2081.0,0.0,0.0,
2044.0,2051.0,2050.0,2077.0,0.0,0.0,
2038.0,2042.0,2056.0,2077.0,0
2041.0,2037.0,2059.0,2070.0,0
2039.0,2026.0,2063.0,2071.0,0
2037.0,2006.0,2065.0,2067.0,0
2036.0,1992.0,2065.0,2065.0,0
2034.0,1981.0,2082.0,2057.0,0
2010.0,1993.0,2080.0,2054.0,0
2028.0,2009.0,2082.0,2060.0,0
2025.0,2020.0,2072.0,2056.0,0
2018.0,2032.0,2066.0,2050.0,0
2017.0,2033.0,2066.0,2050.0,0
2015.0,2035.0,2060.0,2040.0,0
2013.0,2045.0,2053.0,2039.0,0
2009.0,2060.0,2052.0,2035.0,0
2014.0,2071.0,2051.0,2039.0,0
2016.0,2070.0,2044.0,2036.0,0
2016.0,2078.0,2042.0,2031.0,0
2017.0,2071.0,2039.0,2038.0,0.0,0.0,
2018.0,2052.0,2043.0,2036.0,0.0,0.0,
2012.0,2034.0,2051.0,2038.0,0.0,0.0,
2011.0,2016.0,2050.0,2035.0,0
1998.0,1978.0,2042.0,2023.0,0
1989.0,1967.0,2038.0,2019.0,0
1993.0,1940.0,2008.0,2027.0,0
1998.0,1922.0,2021.0,2030.0,0
1996.0,1912.0,2011.0,2035.0,0
2009.0,1924.0,1963.0,2046.0,0
2021.0,1948.0,1995.0,2053.0,0
2020.0,1972.0,1987.0,2058.0,0
2022.0,1999.0,1980.0,2063.0,0
2025.0,2014.0,1978.0,2064.0,0
2037.0,2021.0,1968.0,2068.0,0
2030.0,2013.0,1959.0,2068.0,0
2038.0,1995.0,1950.0,2070.0,0
2046.0,1993.0,1937.0,2075.0,0
2046.0,1988.0,1936.0,2082.0,0
2058.0,2026.0,1958.0,2095.0,0
2067.0,2040.0,1966.0,2098.0,0
2066.0,2044.0,1972.0,2107.0,0
2073.0,2052.0,1988.0,2103.0,0
2072.0,2050.0,1977.0,2102.0,0.0,0.0,
2081.0,2059.0,1992.0,2103.0,0
2086.0,2069.0,2003.0,2105.0,0
2086.0,2079.0,2016.0,2103.0,0
2088.0,2086.0,2022.0,2097.0,0
2087.0,2084.0,2023.0,2097.0,0
2083.0,2086.0,2023.0,2091.0,0
2075.0,2076.0,2033.0,2085.0,0
2074.0,2063.0,2024.0,2080.0,0
2063.0,2058.0,2025.0,2078.0,0
2062.0,2062.0,2029.0,2080.0,0
2057.0,2068.0,2033.0,2077.0,0
2052.0,2093.0,1981.0,2026.0,0.0,0.0,
2049.0,2105.0,1992.0,2032.0,0.0,-1.0,
2052.0,2110.0,1997.0,2032.0,0.0,-1.0,
2055.0,2112.0,2008.0,2025.0,0
2063.0,2113.0,2026.0,2028.0,0
2065.0,2113.0,2045.0,2029.0,0
2069.0,2109.0,2048.0,2025.0,0
2067.0,2106.0,2056.0,2030.0,0
2065.0,2098.0,2049.0,2034.0,0
2063.0,2090.0,2043.0,2031.0,0
2056.0,2076.0,2033.0,2033.0,0
2048.0,2073.0,2022.0,2029.0,0
2039.0,2063.0,2017.0,2025.0,0
2029.0,2058.0,2018.0,2023.0,0
2025.0,2057.0,2020.0,2022.0,0
2021.0,2081.0,2065.0,2026.0,0
2026.0,2089.0,2070.0,2038.0,0
2025.0,2114.0,2077.0,2047.0,0
2028.0,2105.0,2085.0,2048.0,0
2024.0,2120.0,2089.0,2045.0,0
2024.0,2126.0,2097.0,2047.0,0
2011.0,2131.0,2099.0,2038.0,0
2009.0,2127.0,2084.0,2034.0,0
2014.0,2124.0,2065.0,2031.0,0.0,-1.0,
2010.0,2110.0,2043.0,2040.0,0.0,-1.0,
2016.0,2107.0,2024.0,2051.0,0.0,-1.0,
2018.0,2093.0,2005.0,2053.0,0
2011.0,2066.0,1986.0,2053.0,0
2014.0,2049.0,1987.0,2061.0,0
2026.0,2045.0,2002.0,2093.0,0
2033.0,2061.0,2026.0,2096.0,0
2064.0,2121.0,2063.0,2138.0,0
2066.0,2117.0,2059.0,2127.0,0
2069.0,2106.0,2066.0,2130.0,0
2063.0,2093.0,2049.0,2122.0,0
2065.0,2071.0,2045.0,2121.0,0
2065.0,2050.0,2041.0,2123.0,0
2066.0,2042.0,2035.0,2130.0,0
2066.0,2050.0,2030.0,2146.0,0
2077.0,2067.0,2032.0,2153.0,0
2085.0,2095.0,2021.0,2157.0,0
2085.0,2101.0,2016.0,2154.0,0
2053.0,2074.0,2015.0,2157.0,0
2086.0,2034.0,2016.0,2152.0,0
2086.0,1988.0,2007.0,2144.0,0
2081.0,1951.0,2010.0,2129.0,0.0,-1.0,
2072.0,1887.0,2026.0,2073.0,0.0,-1.0,
2048.0,1875.0,2029.0,2076.0,0
2042.0,1858.0,2034.0,2070.0,0
2035.0,1857.0,2037.0,2064.0,0
2028.0,1865.0,2043.0,2065.0,0
2018.0,1880.0,2048.0,2067.0,0
2015.0,1903.0,2045.0,2071.0,0
2015.0,1929.0,2041.0,2078.0,0
2017.0,1954.0,2034.0,2087.0,0
2018.0,1985.0,2034.0,2088.0,0
2020.0,2014.0,2033.0,2102.0,0.0,-1.0,
2029.0,2036.0,2036.0,2103.0,0
2035.0,2058.0,2032.0,2134.0,0
2045.0,2072.0,2033.0,2117.0,0
2051.0,2110.0,2034.0,2110.0,0
2062.0,2142.0,2053.0,2126.0,0
2062.0,2162.0,2108.0,2128.0,0
2055.0,2141.0,2103.0,2109.0,0
2047.0,2123.0,2105.0,2089.0,0
2040.0,2118.0,2105.0,2060.0,0
2029.0,2101.0,2106.0,2052.0,0
2020.0,2092.0,2110.0,2029.0,0
2010.0,2099.0,2116.0,2015.0,0.0,-1.0,
2017.0,2110.0,2124.0,2008.0,0.0,-2.0,
2053.0,2123.0,2132.0,1996.0,0.0,-2.0,
2021.0,2124.0,2138.0,2003.0,0
2027.0,2133.0,2142.0,2010.0,0
2042.0,2137.0,2139.0,2025.0,0
2049.0,2131.0,2134.0,2040.0,0
2058.0,2122.0,2126.0,2060.0,0
2058.0,2114.0,2119.0,2066.0,0
2060.0,2046.0,2083.0,2095.0,0
2061.0,2020.0,2076.0,2096.0,0
2058.0,1991.0,2067.0,2101.0,0
2050.0,1956.0,2048.0,2100.0,0
2043.0,1923.0,2028.0,2090.0,0
2037.0,1896.0,2007.0,2085.0,0
2028.0,1883.0,1981.0,2077.0,0
2027.0,1889.0,1959.0,2066.0,0
2022.0,1910.0,1934.0,2060.0,0
2029.0,1945.0,1925.0,2046.0,0
2019.0,1975.0,1930.0,2038.0,0
2017.0,2006.0,1949.0,2033.0,0
2012.0,2043.0,1971.0,2036.0,0
2017.0,2081.0,2015.0,2043.0,0
2019.0,2125.0,2044.0,2060.0,0.0,-2.0,
2029.0,2143.0,2075.0,2078.0,0.0,-2.0,
2061.0,2023.0,2112.0,2127.0,0
2064.0,1994.0,2098.0,2128.0,0
2063.0,1968.0,2066.0,2128.0,0
2066.0,1953.0,2041.0,2128.0,0
2055.0,1953.0,2014.0,2121.0,0
2054.0,1966.0,1991.0,2112.0,0
2036.0,1975.0,1976.0,2095.0,0
2043.0,1989.0,1966.0,2086.0,0
2031.0,1989.0,1968.0,2080.0,0
2027.0,1987.0,1969.0,2073.0,0.0,-2.0,
2022.0,1964.0,1983.0,2070.0,-1.0,-3.0,
2020.0,1932.0,1994.0,2070.0,-1.0,-3.0,
2014.0,1876.0,2005.0,2075.0,0
2014.0,1837.0,2021.0,2075.0,0
2017.0,1818.0,2030.0,2075.0,0
2033.0,1893.0,2056.0,2081.0,0
2030.0,1933.0,2048.0,2093.0,0
2036.0,1964.0,2048.0,2091.0,0
2037.0,1983.0,2050.0,2092.0,0
2034.0,2001.0,2049.0,2088.0,0
2036.0,2016.0,2047.0,2066.0,0
2038.0,2027.0,2044.0,2082.0,0
2026.0,2027.0,2037.0,2077.0,0
2033.0,2023.0,2026.0,2082.0,0
2034.0,2015.0,2014.0,2083.0,0
2033.0,2017.0,2006.0,2076.0,0
2039.0,2032.0,2001.0,2069.0,0
2041.0,2050.0,1997.0,2068.0,0
2043.0,2079.0,1993.0,2061.0,0
2043.0,2098.0,2002.0,2050.0,0
2045.0,2109.0,2000.0,2041.0,0
2055.0,2108.0,2012.0,2039.0,-1.0,-3.0,
2052.0,2109.0,2024.0,2038.0,-1.0,-3.0,
2057.0,2103.0,2025.0,2030.0,-1.0,-4.0,
2053.0,2094.0,2030.0,2018.0,0
2047.0,2083.0,2026.0,2008.0,0
2042.0,2077.0,2019.0,2001.0,0
2039.0,2076.0,2015.0,2002.0,0
2041.0,2072.0,2019.0,2007.0,0
2045.0,2068.0,2005.0,2006.0,0
2052.0,2057.0,2006.0,2012.0,0
2054.0,2054.0,1995.0,2019.0,0
2061.0,2051.0,1994.0,2026.0,0
2065.0,2061.0,1999.0,2038.0,0
2075.0,2064.0,2005.0,2045.0,0
2074.0,2073.0,2010.0,2058.0,0
2066.0,2087.0,2003.0,2089.0,0
2062.0,2086.0,2004.0,2087.0,0
2059.0,2078.0,2012.0,2088.0,0
2055.0,2054.0,2018.0,2082.0,0
2045.0,2037.0,2012.0,2080.0,0
2043.0,2013.0,2010.0,2080.0,0
2033.0,1996.0,2020.0,2079.0,0
2037.0,1973.0,2027.0,2088.0,0
2034.0,1973.0,2041.0,2095.0,-1.0,-4.0,
2028.0,1979.0,2052.0,2106.0,0
2031.0,1998.0,2065.0,2119.0,0
2027.0,2017.0,2081.0,2126.0,0
2035.0,2040.0,2100.0,2136.0,0
2041.0,2070.0,2117.0,2143.0,0
2045.0,2093.0,2130.0,2151.0,0
2050.0,2114.0,2133.0,2153.0,0
2038.0,2141.0,2075.0,2099.0,0
2038.0,2132.0,2050.0,2084.0,0
2031.0,2131.0,2026.0,2067.0,0
2032.0,2119.0,1994.0,2052.0,0
2031.0,2109.0,1965.0,2040.0,-1.0,-5.0,
2028.0,2098.0,1935.0,2034.0,-1.0,-5.0,
2030.0,2089.0,1937.0,2032.0,-1.0,-5.0,
2035.0,2086.0,1948.0,2030.0,0
2036.0,2092.0,1960.0,2032.0,0
2040.0,2088.0,1976.0,2043.0,0
2046.0,2109.0,1999.0,2042.0,0
2062.0,2115.0,2026.0,2045.0,0
2058.0,2122.0,2046.0,2049.0,0
2052.0,2126.0,2069.0,2045.0,0
2051.0,2135.0,2081.0,2041.0,0
2047.0,2148.0,2107.0,2042.0,0
2045.0,2152.0,2096.0,2045.0,0
2046.0,2142.0,2081.0,2048.0,0
2046.0,2137.0,2073.0,2051.0,0
2033.0,2131.0,2060.0,2049.0,0
2038.0,2106.0,2055.0,2059.0,0
2040.0,2095.0,2052.0,2064.0,0
2042.0,2073.0,2046.0,2071.0,0
2033.0,2052.0,2024.0,2070.0,0
2034.0,2030.0,1988.0,2071.0,0
2028.0,2008.0,1949.0,2063.0,0
2017.0,1985.0,1920.0,2060.0,0
2016.0,1963.0,1895.0,2060.0,-1.0,-6.0,
2008.0,1962.0,1896.0,2063.0,0
2016.0,1965.0,1855.0,2072.0,0
2020.0,1985.0,1823.0,2070.0,0
2073.0,2081.0,1828.0,2123.0,0
2086.0,2082.0,1869.0,2139.0,0
2095.0,2078.0,1909.0,2142.0,0
2101.0,2055.0,1947.0,2149.0,0
2098.0,2036.0,1979.0,2155.0,0
2097.0,2018.0,2014.0,2134.0,0
2089.0,2006.0,2049.0,2115.0,0
2079.0,1997.0,2082.0,2088.0,0
2067.0,1989.0,2098.0,2056.0,-1.0,-6.0,
2055.0,2008.0,2123.0,2036.0,-2.0,-7.0,
2045.0,2009.0,2114.0,2017.0,0
2032.0,2019.0,2084.0,1989.0,0
2026.0,2019.0,2056.0,1978.0,0
2022.0,2013.0,2040.0,1982.0,0
2025.0,2007.0,2039.0,1961.0,0
2020.0,2036.0,2086.0,1964.0,0
2036.0,2049.0,2085.0,1976.0,0
2047.0,2064.0,2068.0,1991.0,0
2058.0,2082.0,2054.0,1997.0,0
2068.0,2084.0,2055.0,2001.0,-2.0,-7.0,
2067.0,2097.0,2077.0,2002.0,-2.0,-8.0,
2068.0,2128.0,2113.0,2002.0,-2.0,-8.0,
2063.0,2150.0,2136.0,1996.0,0
2051.0,2160.0,2147.0,1990.0,0
2051.0,2143.0,2149.0,1980.0,0
2041.0,2129.0,2112.0,1973.0,0
2039.0,2106.0,2118.0,1970.0,0
2035.0,2090.0,2112.0,1984.0,0
2039.0,2079.0,2107.0,1997.0,0
2039.0,2060.0,2093.0,2021.0,0
2042.0,2051.0,2077.0,2032.0,0
2038.0,1925.0,2148.0,2066.0,0
2045.0,1902.0,2166.0,2068.0,0
2053.0,1909.0,2162.0,2075.0,0
2060.0,1936.0,2147.0,2080.0,0
2063.0,1957.0,2130.0,2095.0,0
2076.0,1982.0,2139.0,2099.0,0
2072.0,2005.0,2169.0,2112.0,0
2078.0,2024.0,2194.0,2114.0,0
2070.0,2029.0,2209.0,2110.0,0
2061.0,2029.0,2210.0,2102.0,0
2047.0,2020.0,2199.0,2090.0,0
2031.0,2001.0,2186.0,2074.0,-2.0,-8.0,
2016.0,1994.0,2158.0,2061.0,-2.0,-9.0,
2005.0,1996.0,2139.0,2039.0,-2.0,-9.0,
2001.0,2009.0,2116.0,2023.0,0
1980.0,2039.0,1991.0,1957.0,0
1985.0,2046.0,1967.0,1957.0,0
2000.0,2062.0,2019.0,1979.0,0
2020.0,2069.0,2078.0,2009.0,0
2036.0,2077.0,2147.0,2038.0,0
2050.0,2082.0,2201.0,2068.0,0
2062.0,2086.0,2252.0,2094.0,0
2074.0,2089.0,2275.0,2122.0,0
2086.0,2093.0,2271.0,2153.0,0
2084.0,2110.0,2219.0,2158.0,0
2103.0,2145.0,2169.0,2179.0,0
2108.0,2197.0,2113.0,2194.0,0
2110.0,2239.0,2064.0,2202.0,0
2112.0,2257.0,2029.0,2205.0,0
2106.0,2245.0,1970.0,2205.0,0
2084.0,2213.0,1906.0,2193.0,0
2074.0,2098.0,1732.0,2178.0,0
2074.0,2090.0,1717.0,2179.0,0
2077.0,2083.0,1710.0,2166.0,0
2077.0,2084.0,1698.0,2143.0,-2.0,-10.0,
2076.0,2081.0,1698.0,2125.0,0
2071.0,2085.0,1703.0,2111.0,0
2071.0,2089.0,1737.0,2111.0,0
2075.0,2097.0,1784.0,2113.0,0
2082.0,2109.0,1840.0,2126.0,0
2096.0,2122.0,1885.0,2137.0,0
2106.0,2131.0,1940.0,2146.0,0
2113.0,2135.0,1991.0,2146.0,0
2119.0,2137.0,2041.0,2146.0,0
2107.0,2131.0,2076.0,2148.0,0
2102.0,2125.0,2126.0,2140.0,0
2075.0,2073.0,2242.0,2099.0,-2.0,-10.0,
2084.0,2027.0,2208.0,2084.0,-2.0,-11.0,
2059.0,1929.0,2154.0,2063.0,-2.0,-12.0,
2056.0,1816.0,2079.0,2033.0,0
2037.0,1742.0,2010.0,2034.0,0
2030.0,1721.0,1973.0,2024.0,0
2034.0,1744.0,1989.0,2020.0,0
2038.0,1792.0,2046.0,2027.0,0
2022.0,1858.0,2115.0,2039.0,0
2040.0,1913.0,2181.0,2049.0,0
2049.0,1963.0,2232.0,2069.0,0
2050.0,2004.0,2261.0,2080.0,0
2047.0,2030.0,2279.0,2095.0,0
2048.0,2054.0,2287.0,2095.0,0
2046.0,2069.0,2292.0,2097.0,0
2049.0,2081.0,2286.0,2094.0,0
2013.0,2054.0,2160.0,2081.0,0
2002.0,2032.0,2133.0,2069.0,0
1989.0,2022.0,2108.0,2062.0,0
1981.0,2019.0,2088.0,2062.0,0
1971.0,2011.0,2086.0,2034.0,0
1961.0,2016.0,2085.0,2037.0,0
1956.0,2009.0,2086.0,2040.0,0
1963.0,2021.0,2090.0,2047.0,-2.0,-12.0,
1973.0,2021.0,2100.0,2068.0,-2.0,-13.0,
1981.0,2025.0,2104.0,2090.0,0
1988.0,2004.0,2093.0,2106.0,0
1998.0,1968.0,2074.0,2121.0,0
1996.0,1931.0,2062.0,2128.0,0
2003.0,1904.0,2051.0,2137.0,0
2018.0,1898.0,2048.0,2140.0,0
2049.0,2032.0,2028.0,2112.0,0
2062.0,2064.0,2021.0,2103.0,0
2070.0,2090.0,2023.0,2092.0,-3.0,-13.0,
2067.0,2107.0,2022.0,2097.0,0
2067.0,2116.0,2016.0,2082.0,0
2067.0,2128.0,2014.0,2075.0,0
2066.0,2130.0,2002.0,2069.0,0
2059.0,2135.0,1998.0,2054.0,0
2052.0,2137.0,2012.0,2044.0,0
2052.0,2139.0,2041.0,2028.0,0
2056.0,2139.0,2090.0,2012.0,0
2049.0,2149.0,2132.0,2002.0,0
2055.0,2148.0,2160.0,1996.0,0
2056.0,2150.0,2163.0,1999.0,0
2062.0,2141.0,2169.0,2018.0,-3.0,-14.0,
2063.0,2127.0,2159.0,2028.0,-3.0,-14.0,
2061.0,2037.0,2050.0,2080.0,-3.0,-15.0,
2062.0,1999.0,1996.0,2074.0,0
2056.0,1956.0,1939.0,2049.0,0
2055.0,1910.0,1885.0,2073.0,0
2052.0,1861.0,1828.0,2073.0,0
2045.0,1827.0,1778.0,2068.0,0
2034.0,1821.0,1731.0,2069.0,0
2019.0,1840.0,1673.0,2058.0,0
2017.0,1875.0,1601.0,2044.0,0
2002.0,1913.0,1533.0,2038.0,0
2002.0,1949.0,1510.0,2030.0,0
2007.0,1985.0,1522.0,2042.0,0
2015.0,2016.0,1577.0,2055.0,0
2032.0,2036.0,1658.0,2077.0,0
2039.0,2048.0,1750.0,2081.0,0
2063.0,1996.0,1995.0,2046.0,0
2053.0,1961.0,2033.0,2025.0,0
2037.0,1934.0,2054.0,1990.0,0
2018.0,1928.0,2070.0,1957.0,0
2009.0,1923.0,2075.0,1925.0,0
1989.0,1931.0,2069.0,1897.0,0
1985.0,1948.0,2074.0,1881.0,-3.0,-15.0,
1997.0,1970.0,2095.0,1876.0,-3.0,-16.0,
2007.0,2000.0,2122.0,1876.0,0
2012.0,2011.0,2157.0,1880.0,0
2015.0,2014.0,2195.0,1892.0,0
2015.0,2010.0,2216.0,1897.0,0
2013.0,2036.0,2212.0,1918.0,0
2018.0,2042.0,2194.0,1924.0,0
2019.0,2068.0,2187.0,1951.0,0
2021.0,2090.0,2208.0,1976.0,0
2008.0,2195.0,2404.0,2122.0,0
2042.0,2174.0,2383.0,2151.0,-3.0,-16.0,
2049.0,2146.0,2334.0,2172.0,0
2058.0,2121.0,2274.0,2184.0,0
2065.0,2108.0,2182.0,2195.0,0
2077.0,2108.0,2044.0,2191.0,0
2089.0,2106.0,1836.0,2166.0,0
2085.0,2103.0,1608.0,2142.0,0
2077.0,2086.0,1440.0,2112.0,0
2068.0,2066.0,1339.0,2079.0,0
2062.0,2059.0,1327.0,2055.0,0
2065.0,2064.0,1366.0,2044.0,0
2068.0,2064.0,1436.0,2034.0,0
2064.0,2055.0,1534.0,2021.0,-3.0,-17.0,
2053.0,2037.0,1643.0,1998.0,-3.0,-17.0,
2056.0,2005.0,1882.0,1918.0,0
2068.0,2004.0,1876.0,1937.0,0
2086.0,2015.0,1865.0,1930.0,0
2101.0,2025.0,1874.0,1941.0,0
2113.0,2049.0,1884.0,1973.0,0
2114.0,2073.0,1883.0,1999.0,0
2117.0,2112.0,1881.0,2029.0,0
2119.0,2124.0,1873.0,2053.0,0
2123.0,2142.0,1882.0,2063.0,-3.0,-18.0,
2115.0,2137.0,1928.0,2072.0,-3.0,-18.0,
2103.0,2140.0,2007.0,2081.0,-3.0,-19.0,
2099.0,2138.0,2112.0,2097.0,0
2094.0,2130.0,2252.0,2111.0,0
2075.0,2117.0,2358.0,2139.0,0
2062.0,2084.0,2433.0,2161.0,0
2048.0,2053.0,2461.0,2198.0,0
1991.0,2076.0,2511.0,2194.0,0
1991.0,2098.0,2601.0,2225.0,0
1984.0,2103.0,2665.0,2235.0,0
1985.0,2104.0,2726.0,2229.0,0
1987.0,2101.0,2655.0,2227.0,0
2004.0,2099.0,2558.0,2221.0,0
2019.0,2092.0,2437.0,2215.0,0
2033.0,2071.0,2332.0,2200.0,0
2032.0,2044.0,2272.0,2175.0,0
2031.0,2022.0,2231.0,2143.0,0
2018.0,1999.0,2241.0,2113.0,0
2009.0,1990.0,2247.0,2093.0,0
2018.0,1992.0,2243.0,2098.0,0
2033.0,1992.0,2209.0,2100.0,0
2040.0,1977.0,2158.0,2102.0,0
2019.0,1915.0,2083.0,1985.0,-3.0,-19.0,
2013.0,1914.0,2070.0,1942.0,0
2014.0,1942.0,2079.0,1929.0,0
2022.0,1963.0,2107.0,1940.0,0
2024.0,1968.0,2157.0,1954.0,0
2036.0,2007.0,2201.0,1975.0,0
2036.0,2020.0,2232.0,2000.0,0
2043.0,2046.0,2250.0,2031.0,0
2058.0,2087.0,2262.0,2071.0,0
2062.0,2119.0,2255.0,2117.0,0
2075.0,2146.0,2257.0,2170.0,0
2085.0,2186.0,2257.0,2215.0,0
2086.0,2213.0,2241.0,2226.0,0
2088.0,2233.0,2225.0,2223.0,-3.0,-20.0,
2081.0,2245.0,2189.0,2204.0,-3.0,-20.0,
2068.0,2241.0,2158.0,2174.0,-3.0,-21.0,
2021.0,2163.0,2234.0,2086.0,0
2035.0,2178.0,2244.0,2076.0,0
2050.0,2205.0,2239.0,2081.0,0
2065.0,2240.0,2211.0,2098.0,0
2084.0,2268.0,2158.0,2109.0,0
2101.0,2289.0,2114.0,2171.0,0
2120.0,2306.0,2079.0,2210.0,0
2096.0,2306.0,2058.0,2236.0,0
2132.0,2294.0,2059.0,2272.0,0
2122.0,2254.0,2060.0,2253.0,0
2106.0,2201.0,2075.0,2238.0,0
2084.0,2146.0,2080.0,2213.0,0
2065.0,2091.0,2066.0,2177.0,0
2034.0,2036.0,2032.0,2144.0,0
2003.0,1985.0,1974.0,2113.0,0
1989.0,1748.0,1786.0,2112.0,0
1986.0,1675.0,1775.0,2116.0,0
1989.0,1684.0,1808.0,2119.0,0
1993.0,1751.0,1852.0,2117.0,0
2012.0,1852.0,1923.0,2126.0,-3.0,-21.0,
2031.0,1960.0,1997.0,2148.0,0
2061.0,2044.0,2032.0,2172.0,0
2072.0,2104.0,2034.0,2181.0,0
2073.0,2123.0,2028.0,2167.0,0
2068.0,2127.0,2017.0,2156.0,0
2059.0,2119.0,2029.0,2130.0,0
2043.0,2109.0,2033.0,2106.0,0
2028.0,2098.0,2044.0,2075.0,0
2012.0,2083.0,2058.0,2048.0,0
1990.0,2063.0,2057.0,2018.0,0
1978.0,2047.0,2036.0,1988.0,0
1977.0,1981.0,1798.0,1936.0,-3.0,-22.0,
1985.0,1978.0,1753.0,1946.0,-3.0,-22.0,
1995.0,1982.0,1733.0,1954.0,-3.0,-23.0,
1998.0,1980.0,1731.0,1955.0,0
2020.0,1988.0,1742.0,1950.0,0
2010.0,1987.0,1758.0,1943.0,0
2006.0,1987.0,1786.0,1935.0,0
2004.0,1996.0,1814.0,1930.0,0
2004.0,1982.0,1831.0,1938.0,0
1989.0,1957.0,1851.0,1946.0,0
1992.0,1941.0,1847.0,1958.0,0
2008.0,1936.0,1833.0,1973.0,0
2030.0,1956.0,1807.0,2001.0,0
2053.0,1990.0,1796.0,2019.0,0
2070.0,2017.0,1803.0,2041.0,0
2129.0,2136.0,1870.0,2141.0,0
2144.0,2165.0,1882.0,2168.0,0
2157.0,2179.0,1878.0,2196.0,0
2167.0,2180.0,1866.0,2208.0,0
2162.0,2165.0,1857.0,2208.0,0
2146.0,2132.0,1859.0,2190.0,0
2125.0,2099.0,1876.0,2165.0,0
2103.0,2070.0,1889.0,2142.0,0
2084.0,2033.0,1892.0,2114.0,-3.0,-23.0,
2071.0,1997.0,1906.0,2092.0,-3.0,-24.0,
2062.0,1977.0,1930.0,2083.0,-3.0,-24.0,
2061.0,1977.0,1958.0,2067.0,0
2057.0,1997.0,2009.0,2050.0,0
2061.0,2018.0,2018.0,2037.0,0
2064.0,2019.0,2034.0,2024.0,0
2061.0,2031.0,2021.0,2008.0,0
2015.0,1986.0,1898.0,1944.0,0
2004.0,1937.0,1878.0,1933.0,0
1994.0,1885.0,1918.0,1935.0,0
1993.0,1848.0,1960.0,1935.0,0
1990.0,1835.0,2017.0,1948.0,0
1990.0,1827.0,2055.0,1958.0,0
1987.0,1845.0,2040.0,1978.0,0
1984.0,1869.0,1952.0,1977.0,0
1973.0,1891.0,1831.0,1961.0,0
1960.0,1915.0,1699.0,1932.0,0
1951.0,1939.0,1580.0,1912.0,0
1955.0,1963.0,1502.0,1900.0,0
1963.0,1982.0,1480.0,1894.0,0
1971.0,1965.0,1528.0,1897.0,0
1976.0,1927.0,1604.0,1903.0,0
2013.0,1863.0,1806.0,1949.0,-3.0,-25.0,
2026.0,1879.0,1857.0,1973.0,-3.0,-26.0,
2029.0,1889.0,1914.0,1980.0,0
2027.0,1903.0,1991.0,1977.0,0
2029.0,1919.0,2072.0,1989.0,0
2037.0,1959.0,2153.0,2000.0,0
2043.0,2002.0,2234.0,2009.0,0
2051.0,2036.0,2314.0,2013.0,0
2046.0,2040.0,2372.0,1994.0,0
2037.0,2029.0,2424.0,1975.0,0
2017.0,2027.0,2464.0,1958.0,0
2002.0,2027.0,2486.0,1939.0,-3.0,-26.0,
1995.0,2034.0,2476.0,1944.0,-3.0,-27.0,
2005.0,2046.0,2464.0,1957.0,-2.0,-28.0,
2019.0,2066.0,2439.0,1989.0,0
2030.0,2074.0,2414.0,2030.0,0
2052.0,2029.0,2232.0,2082.0,0
2055.0,2002.0,2143.0,2075.0,0
2060.0,1984.0,2047.0,2076.0,0
2048.0,1969.0,1970.0,2080.0,0
2071.0,1959.0,1922.0,2097.0,0
2075.0,1948.0,1910.0,2118.0,0
2072.0,1938.0,1903.0,2119.0,0
2057.0,1917.0,1888.0,2113.0,0
2039.0,1904.0,1855.0,2100.0,0
2020.0,1891.0,1834.0,2097.0,0
2029.0,1903.0,1853.0,2114.0,0
2044.0,1935.0,1926.0,2141.0,0
2061.0,1986.0,2037.0,2179.0,0
2086.0,2060.0,2159.0,2212.0,0
2100.0,2121.0,2265.0,2250.0,0
2102.0,2235.0,2476.0,2233.0,0
2095.0,2232.0,2462.0,2211.0,0
2077.0,2196.0,2418.0,2186.0,-2.0,-28.0,
2065.0,2140.0,2358.0,2173.0,0
2050.0,2070.0,2290.0,2144.0,0
2035.0,2019.0,2220.0,2114.0,0
2023.0,1991.0,2161.0,2088.0,0
2016.0,1996.0,2091.0,2058.0,0
2009.0,2022.0,2031.0,2036.0,0
2014.0,2033.0,1970.0,2014.0,0
2011.0,2032.0,1919.0,2001.0,0
2010.0,2037.0,1873.0,2002.0,0
2017.0,2046.0,1823.0,2024.0,0
2027.0,2066.0,1793.0,2030.0,0
2031.0,2092.0,1782.0,2016.0,0
2039.0,2115.0,1804.0,2032.0,-2.0,-29.0,
2028.0,2214.0,1966.0,2031.0,-2.0,-30.0,
2030.0,2253.0,1983.0,2047.0,0
2031.0,2292.0,1990.0,2050.0,0
2044.0,2314.0,1993.0,2073.0,0
2048.0,2324.0,1985.0,2077.0,0
2056.0,2329.0,1973.0,2072.0,0
2070.0,2335.0,1953.0,2063.0,0
2086.0,2336.0,1926.0,2067.0,0
2087.0,2334.0,1919.0,2071.0,0
2116.0,2330.0,1918.0,2081.0,-2.0,-30.0,
2122.0,2335.0,1935.0,2091.0,0
2124.0,2328.0,1972.0,2089.0,0
2118.0,2313.0,2018.0,2080.0,0
2110.0,2291.0,2068.0,2079.0,0
2100.0,2273.0,2095.0,2082.0,0
2087.0,2233.0,2112.0,2127.0,0
2078.0,2197.0,2061.0,2126.0,0
2074.0,2166.0,2003.0,2132.0,0
2066.0,2138.0,1936.0,2141.0,0
2061.0,2117.0,1878.0,2144.0,0
2059.0,2101.0,1852.0,2155.0,0
2058.0,2059.0,1846.0,2165.0,0
2060.0,2024.0,1838.0,2166.0,-2.0,-31.0,
2060.0,1993.0,1840.0,2156.0,-2.0,-31.0,
2058.0,1971.0,1838.0,2143.0,-1.0,-32.0,
2051.0,1974.0,1842.0,2121.0,0
2034.0,1982.0,1832.0,2095.0,0
2022.0,2003.0,1826.0,2069.0,0
2010.0,2027.0,1827.0,2041.0,0
2004.0,2051.0,1830.0,2023.0,0
2000.0,2066.0,1836.0,2008.0,0
2000.0,2085.0,1870.0,2010.0,0
2066.0,2203.0,2145.0,2109.0,0
2095.0,2257.0,2186.0,2150.0,0
2119.0,2285.0,2220.0,2196.0,0
2124.0,2286.0,2247.0,2214.0,0
2122.0,2272.0,2268.0,2214.0,0
2106.0,2233.0,2276.0,2193.0,0
2094.0,2215.0,2287.0,2171.0,0
2091.0,2202.0,2289.0,2152.0,0
2084.0,2181.0,2283.0,2138.0,0
2084.0,2150.0,2261.0,2128.0,0
2087.0,2116.0,2230.0,2111.0,0
2075.0,2052.0,2185.0,2092.0,0
2075.0,2012.0,2124.0,2073.0,-1.0,-33.0,
2065.0,1967.0,2112.0,2060.0,-1.0,-33.0,
2054.0,1927.0,2094.0,2040.0,0
1987.0,1809.0,2044.0,1966.0,0
1960.0,1772.0,2024.0,1961.0,0
1983.0,1736.0,2008.0,1957.0,0
1985.0,1706.0,1980.0,1960.0,0
1987.0,1691.0,1960.0,1945.0,0
1989.0,1709.0,1959.0,1965.0,0
1991.0,1748.0,1987.0,1986.0,0
1993.0,1803.0,2039.0,2030.0,0
2002.0,1847.0,2098.0,2090.0,-1.0,-34.0,
2008.0,1870.0,2152.0,2158.0,-1.0,-34.0,
2010.0,1872.0,2180.0,2205.0,0
2020.0,1874.0,2193.0,2222.0,0
2030.0,1882.0,2202.0,2226.0,0
2030.0,1903.0,2211.0,2217.0,0
2039.0,1937.0,2214.0,2191.0,0
2046.0,1960.0,2186.0,2156.0,0
2038.0,2006.0,2042.0,2097.0,0
2040.0,2023.0,2009.0,2100.0,0
2037.0,2039.0,1970.0,2107.0,-1.0,-35.0,
2039.0,2044.0,1933.0,2106.0,0.0,-35.0,
2041.0,2046.0,1897.0,2113.0,0.0,-36.0,
2032.0,2039.0,1879.0,2092.0,0
2027.0,2032.0,1866.0,2079.0,0
2023.0,2010.0,1856.0,2064.0,0
2017.0,1992.0,1854.0,2063.0,0
2019.0,1983.0,1858.0,2058.0,0
2018.0,1983.0,1860.0,2047.0,0
2031.0,1988.0,1864.0,2039.0,0
2033.0,2022.0,1878.0,2042.0,0
2035.0,2024.0,1917.0,2049.0,0
2030.0,2105.0,2085.0,2098.0,0
2042.0,2125.0,2111.0,2100.0,0
2054.0,2145.0,2129.0,2113.0,0
2065.0,2165.0,2140.0,2120.0,0
2078.0,2174.0,2148.0,2113.0,0
2088.0,2181.0,2160.0,2129.0,0
2088.0,2167.0,2186.0,2137.0,0
2084.0,2141.0,2196.0,2150.0,0
2078.0,2079.0,2205.0,2164.0,0
2074.0,1974.0,2204.0,2181.0,0
2064.0,1869.0,2199.0,2160.0,0
2054.0,1813.0,2200.0,2150.0,0.0,-37.0,
2043.0,1811.0,2201.0,2133.0,0
2041.0,1845.0,2205.0,2130.0,0
2037.0,1891.0,2204.0,2126.0,0
2044.0,1941.0,2190.0,2117.0,0
2045.0,2055.0,2111.0,2039.0,0
2039.0,2058.0,2097.0,2027.0,0
2033.0,2067.0,2085.0,2018.0,0
2028.0,2074.0,2066.0,2003.0,0
2031.0,2073.0,2041.0,1989.0,0
2032.0,2071.0,2023.0,1979.0,0
2020.0,2060.0,2006.0,1959.0,0
2005.0,2042.0,1991.0,1932.0,0.0,-37.0,
1987.0,2016.0,1973.0,1917.0,0.0,-37.0,
1971.0,2000.0,1975.0,1901.0,0.0,-38.0,
1956.0,1990.0,1986.0,1905.0,0
1953.0,1993.0,1983.0,1909.0,0
1956.0,2010.0,2003.0,1923.0,0
1979.0,2027.0,2018.0,1948.0,0
1994.0,2059.0,2033.0,1969.0,0
2032.0,2047.0,2035.0,2054.0,0
2037.0,2012.0,2023.0,2075.0,0
2034.0,1981.0,2017.0,2098.0,0
2034.0,1970.0,2020.0,2113.0,0
2029.0,1973.0,2039.0,2130.0,0
2032.0,1995.0,2069.0,2142.0,0
2037.0,2017.0,2100.0,2143.0,0
2036.0,2057.0,2130.0,2143.0,0
2034.0,2063.0,2154.0,2131.0,0
2029.0,2076.0,2191.0,2123.0,0
2035.0,2085.0,2231.0,2115.0,0
2044.0,2084.0,2281.0,2109.0,0
2050.0,2091.0,2316.0,2111.0,0
2062.0,2081.0,2333.0,2114.0,0
2070.0,2052.0,2321.0,2108.0,0
2066.0,2021.0,2292.0,2098.0,0.0,-38.0,
2015.0,1960.0,2204.0,2040.0,0.0,-39.0,
2021.0,1983.0,2180.0,2044.0,0
2030.0,1992.0,2155.0,2064.0,0
2041.0,1986.0,2119.0,2068.0,0
2045.0,1979.0,2075.0,2078.0,0
2052.0,1979.0,2039.0,2079.0,0
2054.0,1974.0,2022.0,2075.0,0
2046.0,1977.0,2019.0,2065.0,0
2037.0,1960.0,2038.0,2046.0,0
2036.0,2005.0,2087.0,2038.0,0
2042.0,2042.0,2130.0,2035.0,0.0,-39.0,
2047.0,2070.0,2167.0,2040.0,0
2051.0,2087.0,2155.0,2037.0,0
2053.0,2085.0,2106.0,2042.0,0
2049.0,2064.0,2048.0,2025.0,0
1986.0,2058.0,2040.0,1987.0,0
2003.0,2092.0,2048.0,2019.0,0
2028.0,2125.0,2019.0,2052.0,0
2052.0,2151.0,1952.0,2092.0,0
2077.0,2169.0,1879.0,2118.0,0
2103.0,2187.0,1786.0,2133.0,0
2104.0,2193.0,1783.0,2137.0,0
2096.0,2195.0,1763.0,2128.0,0.0,-40.0,
2078.0,2189.0,1772.0,2110.0,1.0,-40.0,
2072.0,2169.0,1802.0,2090.0,1.0,-40.0,
2056.0,2146.0,1846.0,2078.0,0
2041.0,2127.0,1866.0,2071.0,0
2037.0,2119.0,1902.0,2062.0,0
2041.0,2128.0,1927.0,2066.0,0
2054.0,2147.0,1961.0,2060.0,0
2062.0,2165.0,1993.0,2051.0,0
2061.0,2167.0,1961.0,1953.0,0
2066.0,2155.0,1900.0,1968.0,0
2079.0,2110.0,1802.0,1986.0,0
2087.0,2054.0,1702.0,2002.0,0
2091.0,2007.0,1643.0,2020.0,0
2093.0,1977.0,1629.0,2037.0,0
2095.0,1970.0,1645.0,2055.0,0
2093.0,1982.0,1644.0,2031.0,0
2085.0,1997.0,1650.0,2069.0,0
2075.0,2005.0,1666.0,2043.0,0
2062.0,2011.0,1698.0,2007.0,0
2046.0,2010.0,1728.0,1974.0,0
2031.0,2004.0,1763.0,1933.0,1.0,-41.0,
2016.0,1994.0,1819.0,1939.0,1.0,-41.0,
2008.0,1989.0,1887.0,1946.0,0
2001.0,2050.0,2104.0,2048.0,0
2002.0,2072.0,2230.0,2081.0,0
2011.0,2100.0,2373.0,2129.0,0
2020.0,2104.0,2509.0,2167.0,0
2027.0,2098.0,2603.0,2177.0,0
2026.0,2079.0,2629.0,2167.0,0
2029.0,2065.0,2588.0,2143.0,0
2032.0,2071.0,2527.0,2122.0,0
2035.0,2083.0,2474.0,2120.0,0
2049.0,2102.0,2444.0,2133.0,1.0,-41.0,
2060.0,2101.0,2417.0,2159.0,0
2067.0,2113.0,2381.0,2183.0,0
2074.0,2095.0,2353.0,2197.0,0
2081.0,2075.0,2285.0,2200.0,0
2084.0,2065.0,2242.0,2190.0,0
2080.0,2058.0,2208.0,2174.0,0
2043.0,1976.0,2033.0,2049.0,0
2051.0,1980.0,2015.0,2046.0,0
2083.0,1994.0,2002.0,2038.0,0
2049.0,2011.0,2009.0,2028.0,0
2050.0,2029.0,2005.0,2014.0,0
2039.0,2039.0,1997.0,1998.0,1.0,-42.0,
2033.0,2053.0,1995.0,1981.0,1.0,-42.0,
2023.0,2076.0,1996.0,1978.0,1.0,-42.0,
2025.0,2101.0,2010.0,1995.0,1.0,-42.0,
2026.0,2119.0,2023.0,2027.0,1.0,-42.0,
2028.0,2106.0,2042.0,2057.0,0
2022.0,2080.0,2050.0,2078.0,0
2011.0,2055.0,2050.0,2059.0,0
2024.0,2052.0,2048.0,2046.0,0
2006.0,2068.0,2040.0,2041.0,0
2014.0,2146.0,1985.0,1992.0,0
2013.0,2153.0,1956.0,2011.0,0
2027.0,2145.0,1927.0,2033.0,0
2042.0,2135.0,1882.0,2049.0,0
2051.0,2123.0,1845.0,2044.0,0
2058.0,2091.0,1826.0,2029.0,0
2054.0,2057.0,1833.0,2011.0,0
2051.0,2026.0,1855.0,2009.0,0
2051.0,1996.0,1878.0,2019.0,0
2050.0,1975.0,1895.0,2042.0,0
2053.0,1968.0,1907.0,2049.0,0
2056.0,1935.0,1919.0,2112.0,0
2055.0,1900.0,1938.0,2149.0,0
2058.0,1884.0,1963.0,2184.0,0
2068.0,1886.0,1981.0,2229.0,0
2078.0,1888.0,1985.0,2245.0,0
2080.0,1995.0,1918.0,2163.0,0
2079.0,2017.0,1958.0,2152.0,0
2071.0,2035.0,1973.0,2121.0,0
2067.0,2053.0,1986.0,2094.0,0
2054.0,2059.0,1991.0,2062.0,0
2053.0,2078.0,2009.0,2071.0,0
2051.0,2105.0,2041.0,2094.0,0
2053.0,2129.0,2026.0,2147.0,0
2062.0,2148.0,2023.0,2197.0,1.0,-43.0,
2079.0,2172.0,2017.0,2224.0,0
2100.0,2203.0,2017.0,2235.0,0
2116.0,2241.0,2029.0,2240.0,0
2122.0,2272.0,2050.0,2220.0,0
2124.0,2289.0,2067.0,2204.0,0
2120.0,2298.0,2086.0,2180.0,0
2086.0,2271.0,2123.0,2126.0,0
2052.0,2244.0,2116.0,2102.0,0
2058.0,2217.0,2106.0,2084.0,0
2041.0,2168.0,2088.0,2055.0,0
2030.0,2093.0,2070.0,2045.0,0
2016.0,2007.0,2061.0,2043.0,2.0,-43.0,
2015.0,1946.0,2054.0,2055.0,0
2017.0,1919.0,2051.0,2074.0,0
2023.0,1933.0,2029.0,2088.0,0
2018.0,1948.0,2051.0,2092.0,0
2024.0,1955.0,2032.0,2095.0,0
2024.0,1962.0,2009.0,2093.0,0
2024.0,1948.0,1960.0,2093.0,0
2031.0,1930.0,1924.0,2087.0,0
2028.0,1898.0,1913.0,2089.0,0
2029.0,1853.0,1923.0,2092.0,0
2006.0,1753.0,1985.0,2063.0,2.0,-43.0,
2018.0,1780.0,1991.0,2067.0,2.0,-43.0,
2026.0,1817.0,1998.0,2072.0,0
2031.0,1868.0,2003.0,2081.0,0
2028.0,1904.0,2005.0,2078.0,0
2042.0,1933.0,2002.0,2069.0,0
2038.0,1965.0,2001.0,2069.0,0
2038.0,1987.0,2003.0,2066.0,0
2033.0,1995.0,2001.0,2062.0,0
2040.0,1974.0,2010.0,2052.0,0
2034.0,2008.0,2009.0,2050.0,0
2034.0,2003.0,2007.0,2053.0,0
2034.0,2015.0,2013.0,2048.0,2.0,-43.0,
2031.0,2025.0,2008.0,2052.0,2.0,-43.0,
2018.0,2044.0,2020.0,2045.0,0
2028.0,2047.0,2022.0,2047.0,0
2031.0,2047.0,2023.0,2051.0,0
2021.0,2043.0,2017.0,2057.0,0
2027.0,2044.0,2020.0,2066.0,0
2034.0,2048.0,2024.0,2064.0,0
2029.0,2057.0,2023.0,2072.0,0
2033.0,2043.0,2019.0,2068.0,0
2033.0,2038.0,2024.0,2063.0,2.0,-44.0,
2031.0,2039.0,2027.0,2059.0,2.0,-44.0,
2046.0,2043.0,2028.0,2061.0,2.0,-44.0,
2031.0,2044.0,2026.0,2055.0,0
2031.0,2044.0,2029.0,2054.0,0
2037.0,2042.0,2019.0,2057.0,0
2041.0,2047.0,2033.0,2056.0,0
2039.0,2048.0,2042.0,2057.0,0
2032.0,2069.0,2025.0,2046.0,0
2039.0,2066.0,2028.0,2043.0,0
2038.0,2062.0,2031.0,2051.0,0
2039.0,2062.0,2027.0,2053.0,0
2039.0,2065.0,2030.0,2056.0,0
2044.0,2077.0,2034.0,2057.0,0
2044.0,2080.0,2035.0,2051.0,0
2050.0,2084.0,2033.0,2052.0,0
2045.0,2088.0,2028.0,2057.0,0
2046.0,2091.0,2035.0,2056.0,0
2048.0,2097.0,2035.0,2054.0,0
2042.0,2094.0,2039.0,2057.0,0
2042.0,2096.0,2040.0,2059.0,0
2045.0,2099.0,2039.0,2059.0,0
2046.0,2105.0,2047.0,2060.0,0
2046.0,2105.0,2047.0,2056.0,2.0,-44.0,
2054.0,2099.0,2051.0,2052.0,0
2048.0,2095.0,2045.0,2058.0,0
2048.0,2095.0,2046.0,2054.0,0
2054.0,2096.0,2044.0,2057.0,0
2058.0,2096.0,2044.0,2054.0,0
2055.0,2090.0,2041.0,2058.0,0
2056.0,2081.0,2040.0,2055.0,0
2058.0,2064.0,2038.0,2052.0,0
2048.0,2047.0,2036.0,2069.0,0
2049.0,2032.0,2016.0,2048.0,0
2044.0,2029.0,2024.0,2049.0,0
2046.0,2037.0,2024.0,2051.0,2.0,-44.0,
2046.0,2046.0,2023.0,2054.0,0
2046.0,2049.0,2027.0,2053.0,0
2049.0,2042.0,2028.0,2057.0,0
2059.0,2040.0,2011.0,2067.0,0
2068.0,2058.0,2013.0,2068.0,0
2064.0,2084.0,2016.0,2075.0,0
2069.0,2109.0,2026.0,2085.0,0
2061.0,2130.0,2038.0,2086.0,0
2053.0,2139.0,2046.0,2090.0,0
2062.0,2135.0,2060.0,2088.0,0
2050.0,2127.0,2064.0,2074.0,0
2037.0,2112.0,2063.0,2055.0,2.0,-44.0,
2049.0,2106.0,2067.0,2048.0,2.0,-44.0,
2033.0,2096.0,2073.0,2038.0,0
2035.0,2102.0,2078.0,2037.0,0
2039.0,2104.0,2087.0,2034.0,0
2036.0,2099.0,2094.0,2036.0,0
2038.0,2095.0,2107.0,2035.0,0
2051.0,2091.0,2120.0,2039.0,0
2056.0,2088.0,2101.0,2051.0,0
2057.0,2083.0,2068.0,2042.0,0
2056.0,2080.0,2040.0,2050.0,0
2055.0,2083.0,2021.0,2046.0,2.0,-44.0,
2055.0,2082.0,2014.0,2050.0,2.0,-44.0,
2057.0,2067.0,1996.0,2058.0,2.0,-44.0,
2048.0,2046.0,1979.0,2063.0,0
2052.0,2018.0,1971.0,2069.0,0
2054.0,1997.0,1964.0,2078.0,0
2055.0,1999.0,1972.0,2075.0,0
2060.0,2003.0,1979.0,2077.0,0
2062.0,2013.0,2008.0,2078.0,0
2066.0,2024.0,2018.0,2078.0,0
2061.0,2032.0,2036.0,2079.0,0
2069.0,2027.0,2051.0,2074.0,0
2059.0,1942.0,2008.0,2044.0,0
2054.0,1907.0,2011.0,2046.0,0
2044.0,1902.0,1998.0,2032.0,0
2038.0,1902.0,2006.0,2037.0,0
2034.0,1910.0,2011.0,2044.0,0
2033.0,1927.0,2019.0,2048.0,0
2035.0,1938.0,2023.0,2052.0,0
2035.0,1945.0,2022.0,2054.0,0
2035.0,1948.0,2026.0,2054.0,0
2033.0,1949.0,2067.0,2057.0,0
2023.0,1955.0,2030.0,2054.0,0
2022.0,1951.0,2032.0,2053.0,2.0,-44.0,
2026.0,1955.0,2033.0,2042.0,2.0,-44.0,
2031.0,1966.0,2043.0,2055.0,2.0,-44.0,
2036.0,1977.0,2037.0,2063.0,0
2049.0,2016.0,2044.0,2083.0,0
2048.0,2026.0,2053.0,2082.0,0
2046.0,2041.0,2056.0,2082.0,0
2049.0,2046.0,2050.0,2080.0,0
2013.0,2055.0,2048.0,2073.0,0
2048.0,2051.0,2043.0,2074.0,0
2048.0,2043.0,2034.0,2069.0,0
2043.0,2037.0,2020.0,2067.0,0
2028.0,2028.0,2008.0,2054.0,0
2042.0,2032.0,2017.0,2063.0,0
2041.0,2042.0,2020.0,2071.0,0
2042.0,2054.0,2029.0,2070.0,0
2042.0,2052.0,2027.0,2073.0,0
2039.0,2065.0,2030.0,2072.0,0
2035.0,2070.0,2038.0,2069.0,0
2030.0,2077.0,2040.0,2070.0,0
2029.0,2084.0,2048.0,2057.0,0
2035.0,2085.0,2048.0,2063.0,0
2031.0,2070.0,2047.0,2064.0,0
2036.0,2071.0,2053.0,2067.0,3.0,-44.0,
2033.0,2030.0,2049.0,2071.0,3.0,-44.0,
2027.0,2052.0,2051.0,2073.0,3.0,-44.0,
2040.0,2048.0,2049.0,2077.0,0
2037.0,2036.0,2050.0,2080.0,0
2039.0,2021.0,2051.0,2087.0,0
2042.0,2023.0,2046.0,2087.0,0
2044.0,2034.0,2049.0,2088.0,0
2044.0,2032.0,2051.0,2086.0,0
2043.0,2029.0,2036.0,2092.0,0
2043.0,2025.0,2036.0,2087.0,0
2047.0,2023.0,2022.0,2088.0,0
2042.0,2064.0,2047.0,2066.0,0
2057.0,2083.0,2053.0,2087.0,0
2056.0,2099.0,2064.0,2092.0,0
2056.0,2103.0,2057.0,2086.0,0
2054.0,2102.0,2058.0,2087.0,0
2055.0,2103.0,2052.0,2087.0,0
2054.0,2109.0,2052.0,2085.0,0
2050.0,2112.0,2055.0,2088.0,0
2049.0,2112.0,2054.0,2088.0,0
2048.0,2126.0,2053.0,2090.0,0
2050.0,2131.0,2049.0,2087.0,3.0,-44.0,
2047.0,2140.0,2053.0,2088.0,3.0,-44.0,
2053.0,2148.0,2054.0,2095.0,0
2052.0,2149.0,2047.0,2097.0,0
2019.0,2149.0,2042.0,2102.0,0
2059.0,2133.0,2049.0,2101.0,0
2045.0,2102.0,2046.0,2093.0,0
2045.0,2098.0,2042.0,2097.0,0
2044.0,2092.0,2043.0,2099.0,0
2039.0,2092.0,2039.0,2099.0,0
2030.0,2088.0,2041.0,2086.0,0
2029.0,2088.0,2039.0,2092.0,0
2023.0,2092.0,2039.0,2085.0,0
2014.0,2080.0,2043.0,2075.0,0
2010.0,2074.0,2039.0,2067.0,0
2025.0,2063.0,2038.0,2064.0,0
2030.0,2050.0,2039.0,2068.0,0
2035.0,2024.0,2037.0,2072.0,0
2037.0,2002.0,2039.0,2072.0,3.0,-44.0,
2039.0,2002.0,2040.0,2053.0,3.0,-44.0,
2041.0,2004.0,2039.0,2048.0,3.0,-44.0,
2043.0,2009.0,2037.0,2050.0,3.0,-44.0,
2046.0,2013.0,2038.0,2046.0,3.0,-44.0,
2049.0,2016.0,2038.0,2042.0,0
2050.0,2023.0,2037.0,2052.0,0
2054.0,2029.0,2037.0,2049.0,0
2058.0,2033.0,2038.0,2051.0,0
2054.0,2034.0,2036.0,2055.0,0
2053.0,2034.0,2037.0,2055.0,0
2048.0,2029.0,2043.0,2056.0,0
2047.0,2031.0,2037.0,2058.0,0
2045.0,2030.0,2038.0,2067.0,0
2047.0,2034.0,2040.0,2079.0,0
2053.0,2038.0,2041.0,2088.0,0
2053.0,2046.0,2043.0,2094.0,0
2061.0,2050.0,2048.0,2103.0,0
2062.0,2052.0,2047.0,2110.0,0
2070.0,2052.0,2052.0,2108.0,0
2065.0,2051.0,2048.0,2111.0,0
2064.0,2058.0,2044.0,2112.0,0
2064.0,2048.0,2043.0,2104.0,0
2064.0,2055.0,2048.0,2104.0,0
2061.0,2053.0,2046.0,2097.0,0
2061.0,2048.0,2047.0,2097.0,0
2065.0,2049.0,2043.0,2090.0,0
2060.0,2049.0,2040.0,2095.0,0
2062.0,2055.0,2039.0,2097.0,0
2063.0,2051.0,2043.0,2096.0,0
2068.0,2050.0,2043.0,2104.0,0
2067.0,2055.0,2042.0,2113.0,0
2061.0,2039.0,2040.0,2113.0,0
2065.0,2028.0,2044.0,2116.0,0
2069.0,2032.0,2044.0,2115.0,0
2072.0,2026.0,2040.0,2114.0,0
2073.0,2032.0,2042.0,2115.0,0
2069.0,2032.0,2045.0,2109.0,0
2064.0,2037.0,2042.0,2113.0,0
2063.0,2043.0,2039.0,2103.0,3.0,-44.0,
2055.0,2047.0,2042.0,2100.0,3.0,-44.0,
2057.0,2044.0,2037.0,2098.0,3.0,-44.0,
2062.0,2044.0,2036.0,2104.0,0
2057.0,2043.0,2037.0,2087.0,0
2054.0,2052.0,2036.0,2086.0,0
2056.0,2043.0,2033.0,2082.0,0
2053.0,2034.0,2034.0,2078.0,0
2055.0,2040.0,2027.0,2075.0,0
2048.0,2031.0,2044.0,2057.0,0
2045.0,2031.0,2033.0,2066.0,0
2047.0,2035.0,2033.0,2064.0,0
2052.0,2035.0,2040.0,2065.0,0
2050.0,2033.0,2033.0,2062.0,0
2041.0,2035.0,2033.0,2067.0,0
2037.0,2035.0,2030.0,2061.0,0
2028.0,2035.0,2034.0,2061.0,0
2013.0,2044.0,2041.0,2065.0,0
2001.0,2035.0,2030.0,2055.0,0
1992.0,2036.0,2030.0,2049.0,0
1992.0,2037.0,2033.0,2046.0,0
1999.0,2038.0,2032.0,2038.0,0
2027.0,2040.0,2032.0,2051.0,0
2034.0,2037.0,2035.0,2033.0,3.0,-44.0,
2080.0,2046.0,2038.0,2029.0,3.0,-44.0,
2084.0,2049.0,2033.0,2037.0,0
2092.0,2049.0,2040.0,2045.0,0
2091.0,2051.0,2036.0,2046.0,0
2088.0,2056.0,2037.0,2052.0,0
2053.0,2054.0,2038.0,2052.0,0
2064.0,2054.0,2035.0,2049.0,0
2047.0,2053.0,2035.0,2049.0,0
2030.0,2054.0,2034.0,2045.0,0
2013.0,2054.0,2034.0,2044.0,0
1999.0,2054.0,2031.0,2045.0,0
1987.0,2055.0,2039.0,2070.0,0
1976.0,2059.0,2034.0,2060.0,3.0,-44.0,
1970.0,2061.0,2033.0,2064.0,3.0,-44.0,
1971.0,2058.0,2037.0,2067.0,3.0,-44.0,
1968.0,2063.0,2036.0,2075.0,0
1952.0,2050.0,2030.0,2054.0,0
1968.0,2058.0,2033.0,2072.0,0
1966.0,2053.0,2035.0,2065.0,0
1988.0,2055.0,2033.0,2059.0,0
2000.0,2044.0,2035.0,2061.0,0
2029.0,2041.0,2033.0,2067.0,0
2065.0,2042.0,2032.0,2103.0,0
2105.0,2040.0,2032.0,2071.0,0
2149.0,2043.0,2029.0,2077.0,0
2187.0,2047.0,2028.0,2074.0,0
2224.0,2049.0,2035.0,2078.0,0
2252.0,2056.0,2032.0,2081.0,0
2249.0,2062.0,2033.0,2077.0,0
2264.0,2068.0,2034.0,2077.0,0
2269.0,2069.0,2031.0,2075.0,0
2295.0,2080.0,2043.0,2052.0,0
2298.0,2084.0,2037.0,2055.0,3.0,-44.0,
2281.0,2080.0,2037.0,2057.0,0
2267.0,2076.0,2038.0,2052.0,0
2245.0,2078.0,2038.0,2061.0,0
2227.0,2078.0,2037.0,2055.0,0
2201.0,2066.0,2035.0,2070.0,0
2176.0,2060.0,2053.0,2047.0,0
2152.0,2055.0,2035.0,2046.0,0
2132.0,2057.0,2033.0,2049.0,0
2109.0,2058.0,2031.0,2049.0,0
2087.0,2050.0,2031.0,2047.0,0
2068.0,2064.0,2032.0,2057.0,0
2042.0,2047.0,2039.0,2055.0,0
2020.0,2046.0,2030.0,2056.0,0
2001.0,2044.0,2032.0,2055.0,4.0,-44.0,
1902.0,2021.0,2034.0,2043.0,4.0,-44.0,
1885.0,2011.0,2034.0,2055.0,4.0,-43.0,
1870.0,1998.0,2028.0,2062.0,0
1861.0,1995.0,2030.0,2077.0,0
1858.0,1991.0,2026.0,2090.0,0
1866.0,1995.0,2029.0,2099.0,0
1865.0,2001.0,2034.0,2107.0,0
1865.0,2009.0,2037.0,2127.0,0
1863.0,2015.0,2040.0,2128.0,0
1863.0,2023.0,2039.0,2138.0,0
1854.0,2030.0,2042.0,2134.0,0
1839.0,2028.0,2044.0,2132.0,0
1830.0,2033.0,2042.0,2129.0,0
1824.0,2035.0,2043.0,2121.0,0
1822.0,2042.0,2043.0,2116.0,0
1852.0,2049.0,2053.0,2109.0,0
1872.0,2052.0,2046.0,2105.0,0
1896.0,2047.0,2043.0,2096.0,0
1917.0,2045.0,2049.0,2096.0,0
1927.0,2047.0,2046.0,2096.0,0
1945.0,2042.0,2043.0,2103.0,4.0,-43.0,
1966.0,2045.0,2042.0,2098.0,4.0,-43.0,
1975.0,2044.0,2040.0,2101.0,4.0,-43.0,
1989.0,2046.0,2040.0,2093.0,4.0,-43.0,
1996.0,2046.0,2040.0,2096.0,0
2008.0,2048.0,2030.0,2096.0,0
2015.0,2048.0,2041.0,2100.0,0
2018.0,2053.0,2043.0,2097.0,0
2019.0,2049.0,2042.0,2093.0,0
2028.0,2051.0,2039.0,2094.0,0
2026.0,2050.0,2038.0,2089.0,0
2037.0,2048.0,2039.0,2075.0,0
2043.0,2041.0,2037.0,2075.0,0
2055.0,2047.0,2038.0,2077.0,0
2052.0,2046.0,2035.0,2069.0,0
2055.0,2047.0,2036.0,2072.0,0
2056.0,2048.0,2023.0,2073.0,0
2073.0,2044.0,2033.0,2073.0,0
2089.0,2049.0,1998.0,2078.0,0
2106.0,2050.0,2036.0,2075.0,0
2125.0,2051.0,2033.0,2080.0,0
2116.0,2055.0,2031.0,2075.0,0
2138.0,2052.0,2034.0,2078.0,0
2139.0,2058.0,2033.0,2072.0,0
2131.0,2060.0,2037.0,2073.0,0
2127.0,2059.0,2036.0,2066.0,0
2089.0,2053.0,2036.0,2058.0,0
2080.0,2049.0,2036.0,2060.0,0
2076.0,2045.0,2027.0,2063.0,0
2069.0,2042.0,2028.0,2060.0,0
2063.0,2044.0,2039.0,2065.0,0
2061.0,2046.0,2034.0,2065.0,0
2057.0,2042.0,2033.0,2062.0,0
2047.0,2047.0,2035.0,2062.0,0
2031.0,2044.0,2036.0,2059.0,0
2033.0,2047.0,2034.0,2057.0,4.0,-43.0,
2027.0,2049.0,2028.0,2051.0,0
2024.0,2048.0,2036.0,2047.0,0
2023.0,2049.0,2037.0,2051.0,0
2035.0,2051.0,2035.0,2049.0,0
2040.0,2046.0,2037.0,2046.0,0
2050.0,2045.0,2033.0,2048.0,0
2083.0,2045.0,2036.0,2053.0,0
2083.0,2042.0,2038.0,2054.0,4.0,-43.0,
2073.0,2046.0,2038.0,2056.0,0
2067.0,2049.0,2046.0,2057.0,0
2062.0,2045.0,2040.0,2059.0,0
2057.0,2047.0,2039.0,2058.0,0
2050.0,2049.0,2034.0,2060.0,0
2042.0,2046.0,2036.0,2063.0,0
2037.0,2050.0,2037.0,2061.0,0
1999.0,2050.0,2036.0,2061.0,0
2030.0,2054.0,2037.0,2064.0,0
2022.0,2055.0,2039.0,2060.0,0
2020.0,2065.0,2039.0,2070.0,0
2008.0,2050.0,2035.0,2071.0,0
2017.0,2052.0,2040.0,2070.0,0
2014.0,2034.0,2036.0,2054.0,4.0,-42.0,
2033.0,2052.0,2037.0,2072.0,3.0,-42.0,
2035.0,2049.0,2033.0,2079.0,3.0,-42.0,
2042.0,2043.0,2038.0,2079.0,0
2047.0,2046.0,2036.0,2079.0,0
2047.0,2038.0,2036.0,2082.0,0
2066.0,2037.0,2034.0,2078.0,0
2071.0,2039.0,2033.0,2076.0,0
2067.0,2039.0,2029.0,2067.0,0
2068.0,2037.0,2031.0,2062.0,0
2077.0,2042.0,2029.0,2063.0,0
2074.0,2044.0,2031.0,2062.0,0
2089.0,2046.0,2033.0,2060.0,0
2091.0,2047.0,2033.0,2027.0,0
2094.0,2053.0,2033.0,2063.0,0
2088.0,2052.0,2033.0,2047.0,0
2021.0,2059.0,2037.0,2038.0,0
2040.0,2052.0,2035.0,2033.0,0
2030.0,2052.0,2036.0,2034.0,0
2021.0,2049.0,2034.0,2030.0,0
2010.0,2049.0,2040.0,2026.0,0
2008.0,2049.0,2034.0,2027.0,0
2000.0,2051.0,2032.0,2021.0,0
2008.0,2050.0,2035.0,2019.0,0
2012.0,2057.0,2042.0,2023.0,3.0,-42.0,
2007.0,2044.0,2035.0,2015.0,3.0,-42.0,
2002.0,2041.0,2033.0,2021.0,0
2006.0,2033.0,2033.0,2026.0,0
2015.0,2032.0,2034.0,2030.0,0
2034.0,2035.0,2030.0,2049.0,0
2067.0,2036.0,2037.0,2059.0,0
2095.0,2039.0,2037.0,2056.0,0
2138.0,2045.0,2043.0,2054.0,0
2165.0,2049.0,2039.0,2054.0,0
2211.0,2054.0,2041.0,2048.0,0
2240.0,2057.0,2039.0,2043.0,3.0,-41.0,
2263.0,2060.0,2052.0,2051.0,0
2282.0,2065.0,2044.0,2052.0,0
2310.0,2074.0,2043.0,2063.0,0
2316.0,2073.0,2040.0,2059.0,0
2326.0,2076.0,2044.0,2060.0,0
2311.0,2078.0,2044.0,2056.0,0
2296.0,2078.0,2041.0,2052.0,0
2275.0,2067.0,2042.0,2050.0,0
2252.0,2066.0,2040.0,2044.0,0
2227.0,2058.0,2038.0,2049.0,0
2141.0,2048.0,2037.0,2072.0,3.0,-41.0,
2123.0,2049.0,2038.0,2078.0,3.0,-41.0,
2110.0,2051.0,2037.0,2080.0,3.0,-41.0,
2090.0,2056.0,2042.0,2082.0,0
2060.0,2058.0,2037.0,2080.0,0
2020.0,2062.0,2048.0,2073.0,0
1987.0,2059.0,2043.0,2072.0,0
1944.0,2060.0,2042.0,2066.0,0
1893.0,2052.0,2040.0,2064.0,0
1845.0,2043.0,2043.0,2067.0,0
1794.0,2030.0,2039.0,2078.0,0
1752.0,2015.0,2032.0,2093.0,0
1705.0,2005.0,2033.0,2104.0,0
1694.0,1996.0,2035.0,2123.0,0
1685.0,2000.0,2037.0,2141.0,0
1712.0,2001.0,2037.0,2150.0,0
1735.0,1997.0,2039.0,2159.0,0
1767.0,2009.0,2037.0,2168.0,0
1799.0,2007.0,2039.0,2170.0,0
1829.0,2021.0,2042.0,2172.0,0
1855.0,2030.0,2037.0,2176.0,0
1887.0,2070.0,2045.0,2182.0,0
1901.0,2046.0,2037.0,2178.0,0
1921.0,2041.0,2036.0,2158.0,3.0,-40.0,
1940.0,2051.0,2040.0,2154.0,0
1959.0,2055.0,2044.0,2142.0,0
1973.0,2051.0,2043.0,2137.0,0
1988.0,2049.0,2041.0,2123.0,3.0,-40.0,
1997.0,2048.0,2038.0,2112.0,2.0,-40.0,
2012.0,2047.0,2036.0,2104.0,0
2021.0,2046.0,2039.0,2097.0,0
2040.0,2045.0,2041.0,2077.0,0
2045.0,2034.0,2031.0,2074.0,0
2045.0,2035.0,2036.0,2072.0,0
2062.0,2038.0,2035.0,2060.0,0
2082.0,2039.0,2036.0,2064.0,0
2116.0,2045.0,2037.0,2061.0,0
2153.0,2045.0,2036.0,2062.0,0
2183.0,2047.0,2036.0,2058.0,0
2208.0,2047.0,2042.0,2056.0,0
2238.0,2051.0,2037.0,2087.0,0
2261.0,2049.0,2039.0,2049.0,0
2284.0,2059.0,2035.0,2047.0,0
2302.0,2059.0,2040.0,2041.0,0
2309.0,2058.0,2037.0,2042.0,0
2308.0,2058.0,2041.0,2044.0,0
2305.0,2058.0,2040.0,2038.0,2.0,-39.0,
2308.0,2061.0,2043.0,2023.0,2.0,-39.0,
2287.0,2051.0,2041.0,2032.0,2.0,-39.0,
2271.0,2054.0,2040.0,2025.0,2.0,-38.0,
2240.0,2049.0,2039.0,2034.0,2.0,-38.0,
2210.0,2047.0,2039.0,2039.0,0
2187.0,2046.0,2039.0,2048.0,0
2167.0,2049.0,2038.0,2060.0,0
2154.0,2053.0,2039.0,2069.0,0
2130.0,2059.0,2040.0,2070.0,0
2111.0,2060.0,2045.0,2072.0,0
2074.0,2056.0,2034.0,2066.0,0
2050.0,2051.0,2038.0,2062.0,0
2014.0,2047.0,2039.0,2053.0,0
1978.0,2038.0,2057.0,2047.0,0
1940.0,2033.0,2035.0,2044.0,0
1827.0,2028.0,2037.0,2060.0,0
1803.0,2034.0,2035.0,2067.0,0
1796.0,2027.0,2029.0,2065.0,0
1815.0,2040.0,2035.0,2074.0,0
1824.0,2039.0,2024.0,2074.0,0
1833.0,2044.0,2035.0,2077.0,0
1844.0,2040.0,2038.0,2075.0,0
1848.0,2040.0,2037.0,2070.0,0
1850.0,2044.0,2031.0,2067.0,0
1855.0,2051.0,2038.0,2065.0,0
1873.0,2039.0,2027.0,2067.0,0
1881.0,2042.0,2036.0,2069.0,0
1890.0,2040.0,2035.0,2070.0,0
1892.0,2047.0,2035.0,2064.0,0
1897.0,2047.0,2040.0,2062.0,0
1923.0,2051.0,2033.0,2044.0,0
1938.0,2050.0,2034.0,2040.0,0
1944.0,2049.0,2034.0,2043.0,0
1960.0,2048.0,2034.0,2040.0,2.0,-37.0,
1971.0,2048.0,2035.0,2040.0,0
1978.0,2055.0,2034.0,2043.0,0
1984.0,2051.0,2049.0,2037.0,0
1990.0,2045.0,2031.0,2039.0,0
1991.0,2047.0,2035.0,2036.0,0
1999.0,2045.0,2032.0,2035.0,0
1993.0,2040.0,2036.0,2035.0,0
2004.0,2038.0,2035.0,2037.0,0
2019.0,2035.0,2036.0,2035.0,0
2023.0,2027.0,2036.0,2041.0,0
2032.0,2031.0,2036.0,2049.0,0
2049.0,2034.0,2039.0,2059.0,0
2083.0,2047.0,2042.0,2075.0,1.0,-37.0,
2086.0,2048.0,2062.0,2077.0,1.0,-36.0,
2087.0,2047.0,2044.0,2081.0,1.0,-36.0,
2087.0,2048.0,2044.0,2071.0,0
2086.0,2048.0,2044.0,2072.0,0
2089.0,2050.0,2046.0,2071.0,0
2094.0,2050.0,2046.0,2072.0,0
2097.0,2051.0,2048.0,2070.0,0
2106.0,2047.0,2047.0,2073.0,0
2110.0,2050.0,2042.0,2074.0,0
2120.0,2049.0,2042.0,2074.0,0
2111.0,2052.0,2040.0,2069.0,0
2113.0,2051.0,2043.0,2059.0,0
2115.0,2051.0,2040.0,2069.0,0
2110.0,2056.0,2041.0,2071.0,0
2087.0,2059.0,2046.0,2058.0,0
2077.0,2058.0,2047.0,2063.0,0
2074.0,2059.0,2042.0,2067.0,0
2064.0,2060.0,2045.0,2074.0,0
