2060.0,2073.0,2053.0,2053.0,0.0,0.0,0.0,
2058.0,2072.0,2053.0,2049.0,0.0,0.0,0.0,
2055.0,2071.0,2055.0,2044.0,0.0,0.0,0.0,
2053.0,2068.0,2051.0,2045.0,0.0,0.0,0.0,
2056.0,2070.0,2049.0,2045.0,0.0,0.0,0.0,
2033.0,2067.0,2037.0,2038.0,0.0,0.0,0.0,
2041.0,2074.0,2046.0,2045.0,0,
2051.0,2075.0,2052.0,2049.0,0,
2055.0,2083.0,2055.0,2050.0,0,
2046.0,2085.0,2054.0,2052.0,0,
2058.0,2088.0,2054.0,2053.0,0,
2055.0,2084.0,2057.0,2052.0,0,
2053.0,2079.0,2049.0,2055.0,0,
2053.0,2084.0,2054.0,2050.0,0,
2053.0,2075.0,2050.0,2048.0,0,
2055.0,2075.0,2051.0,2045.0,0,
2056.0,2077.0,2050.0,2047.0,0,
2051.0,2076.0,2048.0,2045.0,0,
2019.0,2052.0,2025.0,2033.0,0,
2034.0,2066.0,2027.0,2037.0,0,
2040.0,2066.0,2044.0,2042.0,0,
2041.0,2068.0,2045.0,2043.0,0,
2041.0,2062.0,2043.0,2043.0,0,
2042.0,2064.0,2044.0,2042.0,0,
2040.0,2066.0,2043.0,2044.0,0,
2039.0,2061.0,2043.0,2043.0,0,
2042.0,2072.0,2046.0,2043.0,0,
2033.0,2058.0,2047.0,2042.0,0,
2031.0,2056.0,2043.0,2042.0,0,
2036.0,2059.0,2045.0,2043.0,0,
2037.0,2061.0,2045.0,2042.0,0,
2022.0,2050.0,2025.0,2035.0,0,
2034.0,2055.0,2034.0,2040.0,0,
2039.0,2060.0,2042.0,2043.0,0,
2044.0,2060.0,2047.0,2047.0,0,
2041.0,2061.0,2046.0,2046.0,0,
2047.0,2060.0,2047.0,2049.0,0,
2050.0,2066.0,2051.0,2049.0,0,
2050.0,2067.0,2050.0,2051.0,0.0,0.0,0.0,
2055.0,2074.0,2052.0,2051.0,0.0,0.0,0.0,
2052.0,2073.0,2051.0,2051.0,0.0,0.0,0.0,
2052.0,2068.0,2052.0,2053.0,0.0,0.0,0.0,
2049.0,2069.0,2050.0,2054.0,0,
2051.0,2072.0,2052.0,2049.0,0,
2036.0,2073.0,2031.0,2044.0,0.0,0.0,0.0,
2049.0,2080.0,2043.0,2051.0,0,
2060.0,2079.0,2053.0,2055.0,0,
2059.0,2085.0,2056.0,2054.0,0,
2061.0,2087.0,2056.0,2043.0,0,
2063.0,2087.0,2055.0,2054.0,0,
2063.0,2084.0,2053.0,2056.0,0,
2065.0,2082.0,2055.0,2056.0,0,
2063.0,2085.0,2051.0,2054.0,0,
2062.0,2083.0,2056.0,2054.0,0,
2076.0,2083.0,2052.0,2053.0,0,
2061.0,2083.0,2053.0,2053.0,0,
2057.0,2081.0,2065.0,2052.0,0,
2032.0,2071.0,2032.0,2040.0,0,
2041.0,2073.0,2040.0,2048.0,0,
2049.0,2073.0,2044.0,2049.0,0,
2046.0,2073.0,2048.0,2050.0,0,
2043.0,2073.0,2048.0,2052.0,0,
2047.0,2068.0,2048.0,2051.0,0,
2043.0,2070.0,2047.0,2049.0,0,
2044.0,2064.0,2045.0,2047.0,0,
2038.0,2061.0,2046.0,2045.0,0,
2035.0,2063.0,2043.0,2045.0,0,
2035.0,2055.0,2042.0,2043.0,0,
2035.0,2062.0,2043.0,2044.0,0,
2031.0,2066.0,2042.0,2045.0,0,
2034.0,2062.0,2040.0,2041.0,0,
2003.0,2046.0,2019.0,2032.0,0,
2015.0,2046.0,2031.0,2034.0,0,
2026.0,2054.0,2035.0,2037.0,0,
2028.0,2057.0,2046.0,2039.0,0,
2041.0,2058.0,2044.0,2036.0,0,
2036.0,2058.0,2043.0,2043.0,0,
2035.0,2055.0,2047.0,2044.0,0.0,0.0,0.0,
2034.0,2061.0,2048.0,2046.0,0.0,0.0,0.0,
2034.0,2063.0,2051.0,2048.0,0,
2046.0,2067.0,2050.0,2050.0,0,
2050.0,2063.0,2052.0,2046.0,0,
2046.0,2067.0,2041.0,2048.0,0,
2040.0,2068.0,2048.0,2049.0,0,
2028.0,2065.0,2033.0,2048.0,0,
2039.0,2071.0,2042.0,2044.0,0,
2048.0,2072.0,2048.0,2048.0,0.0,0.0,0.0,
2055.0,2075.0,2053.0,2052.0,0,
2051.0,2076.0,2054.0,2051.0,0,
2055.0,2082.0,2056.0,2053.0,0,
2055.0,2078.0,2057.0,2056.0,0,
2051.0,2076.0,2057.0,2058.0,0,
2051.0,2074.0,2056.0,2057.0,0,
2050.0,2069.0,2055.0,2058.0,0,
2049.0,2074.0,2053.0,2058.0,0.0,0.0,0.0,
2051.0,2075.0,2055.0,2058.0,0.0,0.0,0.0,
2054.0,2076.0,2056.0,2057.0,0.0,0.0,0.0,
2028.0,2064.0,2029.0,2037.0,0,
2038.0,2075.0,2038.0,2046.0,0,
2046.0,2077.0,2046.0,2052.0,0,
2055.0,2074.0,2040.0,2051.0,0,
2054.0,2070.0,2047.0,2050.0,0,
2059.0,2074.0,2050.0,2051.0,0,
2065.0,2070.0,2049.0,2052.0,0.0,0.0,0.0,
2060.0,2071.0,2049.0,2051.0,0,
2061.0,2068.0,2046.0,2043.0,0,
2056.0,2068.0,2047.0,2048.0,0.0,0.0,0.0,
2058.0,2064.0,2046.0,2046.0,0,
2052.0,2060.0,2047.0,2048.0,0,
2046.0,2058.0,2045.0,2047.0,0,
2025.0,2051.0,2023.0,2035.0,0,
2035.0,2053.0,2031.0,2031.0,0,
2041.0,2050.0,2039.0,2044.0,0,
2050.0,2059.0,2044.0,2046.0,0,
2050.0,2054.0,2044.0,2047.0,0,
2043.0,2054.0,2050.0,2047.0,0,
2051.0,2054.0,2042.0,2052.0,0,
2066.0,2053.0,2045.0,2055.0,0,
2046.0,2050.0,2047.0,2050.0,0,
2047.0,2052.0,2049.0,2051.0,0,
2051.0,2037.0,2047.0,2050.0,0,
2044.0,2052.0,2046.0,2047.0,0,
2045.0,2054.0,2050.0,2046.0,0,
2046.0,2052.0,2046.0,2046.0,0,
2016.0,2044.0,2031.0,2033.0,0,
2029.0,2050.0,2040.0,2044.0,0,
2040.0,2054.0,2049.0,2050.0,0,
2040.0,2058.0,2051.0,2055.0,0,
2047.0,2056.0,2056.0,2052.0,0.0,0.0,0.0,
2051.0,2059.0,2064.0,2057.0,0.0,0.0,0.0,
2049.0,2063.0,2057.0,2056.0,0.0,0.0,0.0,
2039.0,2064.0,2058.0,2057.0,0.0,0.0,0.0,
2051.0,2065.0,2056.0,2055.0,0,
2054.0,2067.0,2057.0,2056.0,0,
2055.0,2065.0,2057.0,2054.0,0,
2057.0,2071.0,2057.0,2055.0,0,
2051.0,2073.0,2039.0,2041.0,0,
2058.0,2076.0,2049.0,2046.0,0,
2065.0,2080.0,2051.0,2047.0,0,
2066.0,2082.0,2058.0,2047.0,0,
2069.0,2087.0,2058.0,2049.0,0,
2071.0,2091.0,2060.0,2051.0,0,
2067.0,2089.0,2057.0,2047.0,0,
2065.0,2082.0,2055.0,2046.0,0,
2062.0,2082.0,2051.0,2045.0,0,
2059.0,2085.0,2053.0,2043.0,0,
2060.0,2080.0,2053.0,2043.0,0,
2054.0,2076.0,2049.0,2039.0,0,
2051.0,2081.0,2047.0,2045.0,0,
2052.0,2080.0,2048.0,2045.0,0,
2009.0,2058.0,2026.0,2033.0,0,
2022.0,2067.0,2035.0,2039.0,0,
2031.0,2068.0,2042.0,2042.0,0,
2031.0,2071.0,2044.0,2045.0,0,
2020.0,2068.0,2042.0,2041.0,0.0,0.0,0.0,
2028.0,2062.0,2044.0,2041.0,0.0,0.0,0.0,
2031.0,2059.0,2043.0,2040.0,0.0,0.0,0.0,
2028.0,2063.0,2044.0,2041.0,0.0,0.0,0.0,
2032.0,2059.0,2044.0,2044.0,0,
2032.0,2062.0,2045.0,2046.0,0,
2032.0,2059.0,2045.0,2058.0,0,
2038.0,2057.0,2044.0,2044.0,0,
2039.0,2055.0,2044.0,2043.0,0,
2017.0,2048.0,2026.0,2036.0,0,
2026.0,2048.0,2036.0,2040.0,0,
2038.0,2054.0,2039.0,2046.0,0,
2037.0,2057.0,2050.0,2046.0,0,
2038.0,2063.0,2052.0,2047.0,0,
2040.0,2058.0,2049.0,2048.0,0,
2041.0,2064.0,2049.0,2047.0,0,
2049.0,2045.0,2051.0,2048.0,0,
2047.0,2064.0,2055.0,2050.0,0,
2050.0,2066.0,2053.0,2048.0,0,
2045.0,2066.0,2053.0,2051.0,0,
2049.0,2074.0,2052.0,2056.0,0,
2048.0,2116.0,2053.0,2051.0,0,
2033.0,2069.0,2031.0,2042.0,0,
2049.0,2076.0,2044.0,2046.0,0,
2057.0,2082.0,2053.0,2053.0,0.0,0.0,0.0,
2058.0,2082.0,2055.0,2057.0,0.0,0.0,0.0,
2068.0,2087.0,2057.0,2055.0,0.0,0.0,0.0,
2066.0,2087.0,2060.0,2058.0,0.0,0.0,0.0,
2062.0,2086.0,2058.0,2056.0,0,
2055.0,2079.0,2054.0,2048.0,0,
2051.0,2075.0,2049.0,2052.0,0,
2048.0,2085.0,2050.0,2053.0,0,
2046.0,2080.0,2050.0,2052.0,0,
2051.0,2087.0,2042.0,2050.0,0,
2054.0,2087.0,2048.0,2048.0,0,
2038.0,2075.0,2026.0,2035.0,0,
2047.0,2078.0,2039.0,2043.0,0,
2055.0,2083.0,2057.0,2044.0,0,
2053.0,2083.0,2049.0,2045.0,0,
2048.0,2078.0,2045.0,2045.0,0,
2048.0,2074.0,2040.0,2047.0,0,
2050.0,2078.0,2047.0,2041.0,0,
2058.0,2076.0,2042.0,2042.0,0,
2059.0,2078.0,2045.0,2043.0,0,
2059.0,2079.0,2043.0,2045.0,0,
2060.0,2075.0,2043.0,2044.0,0,
2051.0,2077.0,2043.0,2042.0,0,
2050.0,2073.0,2042.0,2045.0,0,
2014.0,2048.0,2021.0,2030.0,0,
2027.0,2058.0,2034.0,2037.0,0,
2034.0,2061.0,2042.0,2043.0,0.0,0.0,0.0,
2035.0,2059.0,2046.0,2043.0,0.0,0.0,0.0,
2032.0,2060.0,2049.0,2041.0,0.0,0.0,0.0,
2033.0,2058.0,2049.0,2042.0,0.0,0.0,0.0,
2034.0,2067.0,2050.0,2039.0,0.0,0.0,0.0,
2030.0,2062.0,2055.0,2042.0,0.0,0.0,0.0,
2043.0,2064.0,2050.0,2041.0,0,
2045.0,2067.0,2051.0,2043.0,0,
2047.0,2065.0,2055.0,2040.0,0,
2053.0,2069.0,2054.0,2044.0,0,
2051.0,2067.0,2055.0,2044.0,0,
2041.0,2062.0,2038.0,2040.0,0,
2045.0,2066.0,2045.0,2044.0,0,
2069.0,2073.0,2053.0,2048.0,0,
2059.0,2077.0,2057.0,2051.0,0,
2060.0,2078.0,2059.0,2049.0,0,
2060.0,2067.0,2060.0,2052.0,0,
2063.0,2077.0,2063.0,2052.0,0,
2065.0,2076.0,2057.0,2050.0,0,
2059.0,2078.0,2060.0,2047.0,0,
2066.0,2083.0,2059.0,2052.0,0,
2064.0,2079.0,2060.0,2045.0,0,
2067.0,2082.0,2060.0,2047.0,0,
2058.0,2082.0,2057.0,2048.0,0,
2060.0,2081.0,2056.0,2049.0,0,
2034.0,2065.0,2030.0,2040.0,0,
2049.0,2074.0,2042.0,2046.0,0,
2068.0,2076.0,2049.0,2051.0,0,
2070.0,2077.0,2050.0,2051.0,0,
2074.0,2078.0,2047.0,2067.0,0,
2070.0,2076.0,2050.0,2053.0,0,
2067.0,2071.0,2048.0,2052.0,0,
2061.0,2065.0,2048.0,2053.0,0,
2056.0,2067.0,2045.0,2051.0,0,
2052.0,2069.0,2044.0,2048.0,0,
2052.0,2061.0,2046.0,2058.0,0,
2051.0,2059.0,2043.0,2046.0,0,
2028.0,2039.0,2024.0,2038.0,0,
2035.0,2047.0,2035.0,2042.0,0.0,0.0,0.0,
2040.0,2048.0,2033.0,2045.0,0.0,0.0,0.0,
2044.0,2046.0,2041.0,2046.0,0.0,0.0,0.0,
2047.0,2050.0,2042.0,2045.0,0,
2039.0,2050.0,2043.0,2045.0,0,
2042.0,2049.0,2044.0,2046.0,0,
2042.0,2046.0,2048.0,2047.0,0,
2042.0,2043.0,2044.0,2048.0,0,
2044.0,2046.0,2046.0,2046.0,0,
2047.0,2047.0,2045.0,2045.0,0,
2046.0,2050.0,2047.0,2047.0,0,
2051.0,2051.0,2031.0,2047.0,0,
2044.0,2051.0,2046.0,2049.0,0,
2022.0,2049.0,2031.0,2040.0,0,
2033.0,2055.0,2044.0,2049.0,0,
2047.0,2061.0,2045.0,2050.0,0,
2052.0,2060.0,2048.0,2046.0,0,
2054.0,2064.0,2051.0,2049.0,0,
2057.0,2075.0,2054.0,2048.0,0,
2060.0,2069.0,2050.0,2052.0,0,
2066.0,2073.0,2057.0,2049.0,0,
2067.0,2072.0,2054.0,2048.0,0,
2066.0,2075.0,2055.0,2052.0,0,
2069.0,2074.0,2056.0,2051.0,0,
2072.0,2076.0,2058.0,2051.0,0,
2071.0,2079.0,2057.0,2049.0,0,
2045.0,2074.0,2039.0,2039.0,0.0,0.0,0.0,
2054.0,2080.0,2047.0,2044.0,0.0,0.0,0.0,
2065.0,2080.0,2050.0,2046.0,0.0,0.0,0.0,
2064.0,2081.0,2057.0,2046.0,0.0,0.0,0.0,
2068.0,2077.0,2055.0,2049.0,0.0,0.0,0.0,
2066.0,2082.0,2054.0,2047.0,0.0,0.0,0.0,
2062.0,2077.0,2054.0,2047.0,0,
2060.0,2079.0,2050.0,2045.0,0,
2063.0,2079.0,2053.0,2049.0,0,
2059.0,2076.0,2050.0,2046.0,0,
2056.0,2071.0,2048.0,2045.0,0,
2057.0,2066.0,2046.0,2046.0,0,
2053.0,2069.0,2048.0,2044.0,0,
2022.0,2058.0,2023.0,2029.0,0,
2032.0,2055.0,2031.0,2037.0,0,
2039.0,2062.0,2041.0,2040.0,0,
2046.0,2063.0,2043.0,2044.0,0,
2043.0,2057.0,2046.0,2044.0,0,
2043.0,2059.0,2046.0,2043.0,0,
2046.0,2059.0,2047.0,2043.0,0,
2040.0,2059.0,2048.0,2042.0,0,
2036.0,2056.0,2046.0,2043.0,0,
2040.0,2055.0,2045.0,2040.0,0,
2038.0,2055.0,2044.0,2039.0,0,
2036.0,2057.0,2044.0,2039.0,0,
2045.0,2061.0,2043.0,2039.0,0,
2019.0,2054.0,2028.0,2030.0,0,
2029.0,2055.0,2040.0,2034.0,0,
2037.0,2057.0,2045.0,2036.0,0,
2044.0,2059.0,2053.0,2041.0,0,
2049.0,2059.0,2051.0,2042.0,0,
2054.0,2061.0,2053.0,2041.0,0,
2053.0,2061.0,2060.0,2044.0,0,
2052.0,2066.0,2051.0,2041.0,0,
2052.0,2063.0,2053.0,2046.0,0,
2052.0,2066.0,2054.0,2043.0,0,
2065.0,2069.0,2052.0,2044.0,0,
2058.0,2069.0,2053.0,2045.0,0,
2057.0,2074.0,2058.0,2046.0,0.0,0.0,0.0,
2032.0,2074.0,2034.0,2038.0,0.0,0.0,0.0,
2048.0,2077.0,2045.0,2044.0,0,
2056.0,2080.0,2052.0,2046.0,0,
2057.0,2079.0,2056.0,2052.0,0,
2063.0,2085.0,2057.0,2051.0,0,
2059.0,2082.0,2057.0,2054.0,0,
2058.0,2085.0,2056.0,2052.0,0,
2065.0,2079.0,2054.0,2053.0,0,
2055.0,2081.0,2054.0,2055.0,0,
2058.0,2084.0,2054.0,2054.0,0.0,0.0,0.0,
2054.0,2082.0,2054.0,2053.0,0,
2054.0,2076.0,2052.0,2056.0,0,
2051.0,2083.0,2049.0,2055.0,0,
2033.0,2069.0,2029.0,2042.0,0,
2037.0,2078.0,2048.0,2047.0,0,
2043.0,2074.0,2044.0,2047.0,0,
2041.0,2082.0,2046.0,2050.0,0,
2042.0,2075.0,2045.0,2052.0,0,
2040.0,2074.0,2046.0,2048.0,0,
2040.0,2075.0,2047.0,2049.0,0,
2040.0,2066.0,2046.0,2047.0,0.0,0.0,0.0,
2038.0,2065.0,2048.0,2047.0,0.0,0.0,0.0,
2034.0,2061.0,2043.0,2045.0,0.0,0.0,0.0,
2031.0,2061.0,2040.0,2046.0,0.0,0.0,0.0,
2030.0,2058.0,2043.0,2047.0,0.0,0.0,0.0,
2030.0,2060.0,2043.0,2045.0,0,
2024.0,2061.0,2043.0,2045.0,0,
1995.0,2052.0,2021.0,2036.0,0,
2009.0,2056.0,2043.0,2043.0,0,
2019.0,2061.0,2037.0,2049.0,0,
2026.0,2061.0,2044.0,2046.0,0,
2028.0,2062.0,2045.0,2047.0,0,
2030.0,2062.0,2046.0,2049.0,0,
2035.0,2060.0,2048.0,2049.0,0,
2040.0,2061.0,2047.0,2048.0,0,
2049.0,2062.0,2047.0,2047.0,0,
2053.0,2068.0,2048.0,2048.0,0,
2060.0,2072.0,2049.0,2048.0,0,
2064.0,2078.0,2053.0,2049.0,0,
2039.0,2068.0,2035.0,2042.0,0,
2046.0,2071.0,2043.0,2043.0,0,
2052.0,2077.0,2050.0,2047.0,0,
2057.0,2075.0,2052.0,2053.0,0,
2053.0,2079.0,2053.0,2050.0,0,
2054.0,2076.0,2065.0,2051.0,0,
2056.0,2082.0,2057.0,2050.0,0,
2056.0,2081.0,2058.0,2049.0,0,
2054.0,2079.0,2060.0,2049.0,0,
2051.0,2082.0,2058.0,2051.0,0,
2054.0,2080.0,2058.0,2051.0,0,
2057.0,2084.0,2058.0,2051.0,0.0,0.0,0.0,
2054.0,2084.0,2056.0,2053.0,0.0,0.0,0.0,
2058.0,2087.0,2058.0,2053.0,0.0,0.0,0.0,
2023.0,2075.0,2032.0,2041.0,0.0,0.0,0.0,
2035.0,2080.0,2042.0,2045.0,0,
2038.0,2082.0,2048.0,2051.0,0,
2043.0,2078.0,2046.0,2047.0,0,
2045.0,2079.0,2049.0,2045.0,0,
2045.0,2076.0,2050.0,2046.0,0,
2047.0,2077.0,2048.0,2042.0,0,
2046.0,2072.0,2048.0,2041.0,0,
2046.0,2075.0,2051.0,2040.0,0,
2045.0,2074.0,2048.0,2042.0,0,
2040.0,2079.0,2048.0,2044.0,0,
2040.0,2075.0,2045.0,2043.0,0,
2041.0,2071.0,2044.0,2042.0,0,
2005.0,2063.0,2023.0,2033.0,0,
2014.0,2063.0,2033.0,2038.0,0,
2022.0,2066.0,2040.0,2041.0,0,
2027.0,2065.0,2045.0,2041.0,0,
2026.0,2066.0,2046.0,2042.0,0,
2026.0,2065.0,2045.0,2043.0,0,
2029.0,2059.0,2043.0,2041.0,0,
2027.0,2063.0,2040.0,2043.0,0,
2037.0,2062.0,2043.0,2047.0,0,
2031.0,2063.0,2045.0,2044.0,0.0,0.0,0.0,
2036.0,2068.0,2025.0,2043.0,0.0,0.0,0.0,
2027.0,2068.0,2045.0,2043.0,0,
2032.0,2063.0,2043.0,2043.0,0,
2014.0,2058.0,2028.0,2039.0,0,
2025.0,2068.0,2041.0,2047.0,0,
2034.0,2072.0,2047.0,2050.0,0,
2035.0,2074.0,2048.0,2054.0,0,
2044.0,2079.0,2055.0,2056.0,0,
2049.0,2078.0,2058.0,2053.0,0,
2046.0,2075.0,2053.0,2051.0,0,
2043.0,2073.0,2053.0,2050.0,0,
2043.0,2072.0,2052.0,2046.0,0,
2037.0,2073.0,2055.0,2046.0,0.0,0.0,0.0,
2050.0,2078.0,2057.0,2048.0,0.0,0.0,0.0,
2054.0,2073.0,2058.0,2051.0,0.0,0.0,0.0,
2061.0,2073.0,2052.0,2052.0,0.0,0.0,0.0,
2048.0,2072.0,2039.0,2044.0,0.0,0.0,0.0,
2058.0,2065.0,2050.0,2048.0,0.0,0.0,0.0,
2065.0,2076.0,2056.0,2051.0,0,
2068.0,2077.0,2051.0,2050.0,0,
2070.0,2076.0,2053.0,2051.0,0,
2072.0,2081.0,2054.0,2052.0,0,
2074.0,2079.0,2057.0,2052.0,0,
2066.0,2071.0,2050.0,2050.0,0,
2064.0,2079.0,2054.0,2051.0,0,
2057.0,2075.0,2049.0,2050.0,0,
2053.0,2065.0,2048.0,2046.0,0,
2050.0,2071.0,2045.0,2046.0,0,
2046.0,2069.0,2048.0,2042.0,0,
2020.0,2050.0,2022.0,2036.0,0,
2034.0,2052.0,2035.0,2036.0,0,
2040.0,2056.0,2042.0,2039.0,0,
2045.0,2057.0,2041.0,2042.0,0,
2039.0,2053.0,2042.0,2040.0,0,
2039.0,2055.0,2037.0,2042.0,0,
2046.0,2056.0,2043.0,2040.0,0,
2047.0,2055.0,2046.0,2038.0,0,
2042.0,2055.0,2044.0,2041.0,0,
2041.0,2057.0,2042.0,2040.0,0,
2050.0,2059.0,2044.0,2041.0,0,
2048.0,2056.0,2044.0,2042.0,0,
2046.0,2064.0,2043.0,2043.0,0,
2018.0,2053.0,2027.0,2037.0,0,
2022.0,2054.0,2038.0,2041.0,0,
2038.0,2062.0,2045.0,2045.0,0,
2043.0,2064.0,2049.0,2046.0,0,
2047.0,2064.0,2046.0,2046.0,0,
2045.0,2066.0,2050.0,2047.0,0,
2050.0,2068.0,2051.0,2049.0,0,
2059.0,2068.0,2052.0,2045.0,0,
2056.0,2069.0,2055.0,2047.0,0.0,0.0,0.0,
2058.0,2075.0,2057.0,2048.0,0.0,0.0,0.0,
2053.0,2070.0,2054.0,2051.0,0.0,0.0,0.0,
2051.0,2071.0,2055.0,2051.0,0.0,0.0,0.0,
2042.0,2075.0,2056.0,2049.0,0,
2060.0,2076.0,2058.0,2053.0,0,
2030.0,2068.0,2033.0,2043.0,0,
2050.0,2075.0,2048.0,2049.0,0,
2058.0,2079.0,2055.0,2051.0,0,
2063.0,2081.0,2059.0,2048.0,0,
2066.0,2082.0,2060.0,2056.0,0,
2066.0,2079.0,2059.0,2058.0,0,
2066.0,2091.0,2059.0,2053.0,0,
2069.0,2079.0,2058.0,2055.0,0,
2065.0,2080.0,2058.0,2055.0,0,
2065.0,2083.0,2058.0,2054.0,0,
2059.0,2070.0,2056.0,2052.0,0,
2060.0,2077.0,2052.0,2052.0,0,
2032.0,2069.0,2032.0,2042.0,0,
2043.0,2071.0,2043.0,2046.0,0,
2047.0,2069.0,2048.0,2049.0,0,
2050.0,2073.0,2049.0,2048.0,0,
2050.0,2072.0,2047.0,2051.0,0,
2053.0,2064.0,2051.0,2049.0,0,
2050.0,2068.0,2049.0,2050.0,0,
2048.0,2066.0,2049.0,2048.0,0.0,0.0,0.0,
2053.0,2068.0,2045.0,2048.0,0,
2050.0,2062.0,2049.0,2048.0,0,
2050.0,2061.0,2047.0,2045.0,0,
2046.0,2058.0,2044.0,2047.0,0,
2047.0,2059.0,2043.0,2044.0,0,
2043.0,2065.0,2044.0,2043.0,0,
2011.0,2043.0,2025.0,2031.0,0,
2021.0,2049.0,2033.0,2039.0,0,
2030.0,2051.0,2042.0,2041.0,0,
2038.0,2051.0,2043.0,2043.0,0,
2039.0,2055.0,2045.0,2044.0,0,
2045.0,2059.0,2048.0,2042.0,0,
2042.0,2053.0,2047.0,2046.0,0.0,0.0,0.0,
2051.0,2059.0,2047.0,2044.0,0.0,0.0,0.0,
2049.0,2065.0,2046.0,2044.0,0.0,0.0,0.0,
2044.0,2058.0,2047.0,2042.0,0.0,0.0,0.0,
2049.0,2060.0,2048.0,2046.0,0.0,0.0,0.0,
2046.0,2059.0,2044.0,2045.0,0.0,0.0,0.0,
2027.0,2060.0,2029.0,2040.0,0,
2037.0,2067.0,2064.0,2050.0,0,
2043.0,2071.0,2052.0,2051.0,0,
2051.0,2085.0,2055.0,2055.0,0,
2053.0,2076.0,2055.0,2055.0,0,
2050.0,2072.0,2054.0,2057.0,0,
2055.0,2073.0,2052.0,2058.0,0,
2050.0,2075.0,2051.0,2053.0,0,
2052.0,2074.0,2055.0,2052.0,0,
2052.0,2075.0,2052.0,2052.0,0,
2052.0,2076.0,2052.0,2047.0,0,
2051.0,2071.0,2051.0,2045.0,0,
2053.0,2071.0,2051.0,2045.0,0,
2057.0,2077.0,2052.0,2048.0,0,
2031.0,2069.0,2029.0,2040.0,0,
2047.0,2072.0,2039.0,2045.0,0,
2059.0,2078.0,2045.0,2047.0,0,
2058.0,2081.0,2046.0,2053.0,0,
2055.0,2073.0,2048.0,2048.0,0,
2057.0,2070.0,2048.0,2046.0,0,
2059.0,2073.0,2045.0,2050.0,0,
2053.0,2073.0,2048.0,2048.0,0,
2050.0,2070.0,2057.0,2046.0,0,
2043.0,2066.0,2043.0,2044.0,0,
2044.0,2066.0,2041.0,2044.0,0,
2038.0,2063.0,2046.0,2043.0,0,
2039.0,2062.0,2042.0,2043.0,0,
2012.0,2046.0,2022.0,2030.0,0,
2021.0,2050.0,2031.0,2035.0,0,
2029.0,2054.0,2039.0,2038.0,0,
2030.0,2055.0,2042.0,2039.0,0,
2030.0,2058.0,2043.0,2040.0,0,
2024.0,2058.0,2042.0,2040.0,0.0,0.0,0.0,
2027.0,2058.0,2039.0,2040.0,0.0,0.0,0.0,
2026.0,2055.0,2039.0,2036.0,0.0,0.0,0.0,
2026.0,2051.0,2037.0,2037.0,0.0,0.0,0.0,
2027.0,2059.0,2042.0,2038.0,0.0,0.0,0.0,
2027.0,2058.0,2041.0,2040.0,0.0,0.0,0.0,
2030.0,2058.0,2045.0,2042.0,0,
2027.0,2059.0,2044.0,2036.0,0,
2013.0,2052.0,2028.0,2034.0,0,
2026.0,2056.0,2039.0,2040.0,0,
2037.0,2058.0,2045.0,2043.0,0,
2043.0,2064.0,2053.0,2044.0,0,
2056.0,2067.0,2054.0,2049.0,0,
2058.0,2066.0,2055.0,2051.0,0,
2059.0,2069.0,2053.0,2049.0,0,
2064.0,2068.0,2055.0,2050.0,0,
2061.0,2074.0,2053.0,2047.0,0,
2062.0,2074.0,2057.0,2047.0,0,
2062.0,2075.0,2057.0,2047.0,0,
2060.0,2075.0,2057.0,2049.0,0,
2056.0,2075.0,2055.0,2048.0,0,
2033.0,2065.0,2032.0,2042.0,0,
2040.0,2071.0,2045.0,2047.0,0,
2048.0,2075.0,2050.0,2049.0,0,
2046.0,2073.0,2051.0,2046.0,0,
2051.0,2075.0,2052.0,2051.0,0,
2049.0,2069.0,2051.0,2050.0,0,
2047.0,2076.0,2054.0,2050.0,0,
2046.0,2073.0,2049.0,2052.0,0,
2050.0,2069.0,2050.0,2053.0,0,
2048.0,2069.0,2049.0,2052.0,0,
2049.0,2068.0,2051.0,2050.0,0,
2053.0,2069.0,2052.0,2051.0,0,
2059.0,2072.0,2052.0,2050.0,0,
2024.0,2060.0,2036.0,2033.0,0,
2040.0,2064.0,2035.0,2037.0,0,
2045.0,2063.0,2039.0,2041.0,0,
2049.0,2065.0,2045.0,2041.0,0,
2046.0,2063.0,2045.0,2043.0,0.0,0.0,0.0,
2045.0,2059.0,2047.0,2043.0,0.0,0.0,0.0,
2048.0,2066.0,2047.0,2044.0,0.0,0.0,0.0,
2044.0,2060.0,2049.0,2038.0,0.0,0.0,0.0,
2047.0,2060.0,2047.0,2042.0,0.0,0.0,0.0,
2040.0,2055.0,2049.0,2039.0,0.0,0.0,0.0,
2038.0,2055.0,2044.0,2038.0,0,
2037.0,2058.0,2046.0,2036.0,0,
2039.0,2059.0,2044.0,2039.0,0,
2017.0,2042.0,2030.0,2032.0,0,
2026.0,2050.0,2040.0,2034.0,0,
2031.0,2051.0,2044.0,2039.0,0,
2036.0,2057.0,2048.0,2041.0,0,
2041.0,2061.0,2050.0,2040.0,0,
2044.0,2062.0,2051.0,2042.0,0,
2039.0,2066.0,2053.0,2046.0,0,
2045.0,2067.0,2052.0,2046.0,0,
2051.0,2064.0,2053.0,2047.0,0,
2056.0,2072.0,2056.0,2048.0,0,
2060.0,2069.0,2056.0,2047.0,0,
2059.0,2070.0,2074.0,2048.0,0,
2063.0,2068.0,2056.0,2049.0,0,
2059.0,2070.0,2058.0,2050.0,0,
2047.0,2069.0,2037.0,2039.0,0,
2052.0,2081.0,2048.0,2046.0,0,
2067.0,2083.0,2052.0,2050.0,0,
2068.0,2085.0,2059.0,2051.0,0,
2068.0,2078.0,2061.0,2054.0,0,
2069.0,2089.0,2055.0,2054.0,0,
2061.0,2090.0,2057.0,2055.0,0,
2058.0,2089.0,2057.0,2052.0,0,
2057.0,2087.0,2058.0,2053.0,0,
2055.0,2086.0,2056.0,2057.0,0,
2060.0,2087.0,2055.0,2054.0,0,
2059.0,2088.0,2055.0,2051.0,0,
2041.0,2076.0,2033.0,2044.0,0,
2050.0,2077.0,2039.0,2048.0,0,
2056.0,2076.0,2044.0,2050.0,0,
2054.0,2076.0,2039.0,2050.0,0.0,0.0,0.0,
2055.0,2080.0,2047.0,2052.0,0.0,0.0,0.0,
2053.0,2078.0,2048.0,2053.0,0.0,0.0,0.0,
2053.0,2076.0,2045.0,2050.0,0.0,0.0,0.0,
2039.0,2072.0,2045.0,2051.0,0,
2040.0,2069.0,2040.0,2050.0,0,
2045.0,2066.0,2053.0,2047.0,0,
2039.0,2068.0,2041.0,2049.0,0,
2050.0,2060.0,2042.0,2047.0,0,
2049.0,2061.0,2040.0,2046.0,0,
2048.0,2063.0,2040.0,2047.0,0,
2017.0,2038.0,2019.0,2036.0,0,
2030.0,2046.0,2031.0,2042.0,0,
2041.0,2053.0,2038.0,2042.0,0,
2047.0,2056.0,2037.0,2046.0,0,
2075.0,2061.0,2045.0,2050.0,0,
2049.0,2060.0,2047.0,2049.0,0,
2051.0,2058.0,2046.0,2046.0,0,
2050.0,2058.0,2046.0,2041.0,0,
2052.0,2060.0,2048.0,2053.0,0,
2059.0,2059.0,2050.0,2052.0,0,
2063.0,2062.0,2052.0,2056.0,0,
2063.0,2064.0,2048.0,2056.0,0,
2062.0,2066.0,2053.0,2057.0,0,
2043.0,2066.0,2034.0,2043.0,0,
2051.0,2070.0,2043.0,2052.0,0,
2059.0,2074.0,2048.0,2055.0,0.0,0.0,0.0,
2060.0,2075.0,2056.0,2053.0,0.0,0.0,0.0,
2062.0,2079.0,2059.0,2058.0,0.0,0.0,0.0,
2050.0,2077.0,2058.0,2059.0,0.0,0.0,0.0,
2063.0,2083.0,2058.0,2059.0,0,
2063.0,2076.0,2055.0,2057.0,0,
2065.0,2079.0,2053.0,2053.0,0,
2060.0,2083.0,2056.0,2056.0,0,
2064.0,2084.0,2050.0,2057.0,0,
2065.0,2086.0,2054.0,2059.0,0,
2067.0,2082.0,2054.0,2058.0,0,
2030.0,2069.0,2029.0,2043.0,0,
2047.0,2074.0,2040.0,2048.0,0,
2053.0,2081.0,2044.0,2052.0,0,
2056.0,2081.0,2051.0,2052.0,0,
2056.0,2079.0,2038.0,2051.0,0,
2043.0,2079.0,2049.0,2048.0,0,
2053.0,2079.0,2050.0,2052.0,0,
2054.0,2076.0,2050.0,2051.0,0,
2048.0,2076.0,2046.0,2051.0,0,
2051.0,2075.0,2047.0,2047.0,0,
2045.0,2074.0,2045.0,2050.0,0,
2049.0,2073.0,2044.0,2048.0,0,
2047.0,2071.0,2044.0,2048.0,0,
2016.0,2057.0,2024.0,2036.0,0,
2023.0,2058.0,2032.0,2042.0,0.0,0.0,0.0,
2031.0,2063.0,2038.0,2041.0,0.0,0.0,0.0,
2035.0,2064.0,2042.0,2047.0,0.0,0.0,0.0,
2042.0,2063.0,2040.0,2043.0,0.0,0.0,0.0,
2037.0,2061.0,2041.0,2043.0,0.0,0.0,0.0,
2035.0,2060.0,2042.0,2044.0,0,
2035.0,2059.0,2038.0,2044.0,0,
2037.0,2060.0,2040.0,2045.0,0,
2038.0,2054.0,2044.0,2043.0,0,
2036.0,2060.0,2044.0,2039.0,0,
2036.0,2058.0,2040.0,2043.0,0,
2036.0,2056.0,2042.0,2042.0,0,
2017.0,2065.0,2024.0,2036.0,0,
2034.0,2061.0,2045.0,2042.0,0,
2046.0,2070.0,2043.0,2043.0,0,
2051.0,2072.0,2050.0,2046.0,0,
2057.0,2072.0,2053.0,2047.0,0,
2051.0,2070.0,2052.0,2047.0,0,
2055.0,2073.0,2052.0,2047.0,0,
2051.0,2075.0,2054.0,2047.0,0,
2054.0,2074.0,2054.0,2048.0,0,
2057.0,2078.0,2066.0,2052.0,0,
2052.0,2081.0,2051.0,2051.0,0,
2052.0,2082.0,2056.0,2056.0,0,
2052.0,2083.0,2054.0,2051.0,0,
2031.0,2078.0,2036.0,2042.0,0,
2039.0,2084.0,2047.0,2046.0,0,
2049.0,2086.0,2052.0,2050.0,0,
2049.0,2069.0,2056.0,2050.0,0,
2054.0,2083.0,2059.0,2051.0,0,
2054.0,2085.0,2056.0,2052.0,0,
2051.0,2085.0,2055.0,2051.0,0,
2050.0,2085.0,2053.0,2054.0,0,
2045.0,2084.0,2051.0,2054.0,0,
2048.0,2082.0,2050.0,2053.0,0,
2044.0,2080.0,2050.0,2051.0,0,
2042.0,2087.0,2051.0,2052.0,0,
2039.0,2075.0,2046.0,2050.0,0,
2032.0,2076.0,2043.0,2054.0,0,
2008.0,2051.0,2018.0,2035.0,0.0,0.0,0.0,
2028.0,2056.0,2024.0,2037.0,0.0,0.0,0.0,
2037.0,2053.0,2033.0,2044.0,0.0,0.0,0.0,
2039.0,2056.0,2038.0,2044.0,0.0,0.0,0.0,
2039.0,2061.0,2040.0,2048.0,0,
2041.0,2057.0,2044.0,2050.0,0,
2036.0,2059.0,2045.0,2050.0,0,
2038.0,2056.0,2043.0,2049.0,0,
2041.0,2058.0,2043.0,2043.0,0,
2035.0,2055.0,2040.0,2044.0,0,
2040.0,2054.0,2045.0,2045.0,0,
2035.0,2053.0,2043.0,2043.0,0,
2012.0,2049.0,2022.0,2036.0,0,
2020.0,2056.0,2037.0,2039.0,0,
2027.0,2059.0,2044.0,2042.0,0,
2027.0,2069.0,2045.0,2044.0,0,
2029.0,2060.0,2048.0,2047.0,0,
2028.0,2061.0,2049.0,2045.0,0,
2030.0,2064.0,2051.0,2045.0,0,
2036.0,2065.0,2053.0,2048.0,0,
2040.0,2069.0,2056.0,2049.0,0,
2049.0,2072.0,2053.0,2050.0,0,
2051.0,2074.0,2055.0,2048.0,0,
2053.0,2068.0,2053.0,2048.0,0,
2057.0,2073.0,2063.0,2049.0,0,
2061.0,2074.0,2055.0,2050.0,0.0,0.0,0.0,
2037.0,2066.0,2033.0,2040.0,0.0,0.0,0.0,
2049.0,2071.0,2050.0,2046.0,0.0,0.0,0.0,
2063.0,2071.0,2052.0,2051.0,0.0,0.0,0.0,
2059.0,2071.0,2060.0,2048.0,0,
2066.0,2075.0,2056.0,2053.0,0,
2066.0,2078.0,2055.0,2050.0,0,
2068.0,2077.0,2054.0,2052.0,0,
2064.0,2077.0,2054.0,2050.0,0,
2068.0,2076.0,2055.0,2051.0,0,
2070.0,2080.0,2053.0,2049.0,0,
2067.0,2081.0,2054.0,2048.0,0,
2066.0,2083.0,2056.0,2046.0,0,
2069.0,2082.0,2054.0,2045.0,0,
2034.0,2066.0,2029.0,2037.0,0,
2039.0,2072.0,2037.0,2039.0,0,
2040.0,2072.0,2048.0,2045.0,0,
2045.0,2073.0,2048.0,2059.0,0,
2045.0,2070.0,2047.0,2044.0,0,
2045.0,2068.0,2047.0,2045.0,0,
2044.0,2074.0,2046.0,2046.0,0,
2042.0,2066.0,2044.0,2045.0,0,
2042.0,2065.0,2044.0,2046.0,0,
2044.0,2064.0,2043.0,2035.0,0,
2041.0,2063.0,2043.0,2044.0,0,
2038.0,2062.0,2040.0,2041.0,0.0,0.0,0.0,
2036.0,2062.0,2040.0,2043.0,0.0,0.0,0.0,
2012.0,2050.0,2021.0,2033.0,0.0,0.0,0.0,
2007.0,2055.0,2033.0,2038.0,0.0,0.0,0.0,
2032.0,2057.0,2041.0,2041.0,0,
2041.0,2060.0,2045.0,2044.0,0,
2044.0,2064.0,2047.0,2043.0,0,
2046.0,2066.0,2045.0,2042.0,0,
2049.0,2066.0,2048.0,2041.0,0,
2046.0,2068.0,2049.0,2037.0,0,
2054.0,2072.0,2047.0,2042.0,0,
2058.0,2070.0,2051.0,2041.0,0,
2063.0,2075.0,2051.0,2043.0,0,
2060.0,2081.0,2051.0,2042.0,0,
2056.0,2081.0,2048.0,2042.0,0,
2035.0,2079.0,2034.0,2036.0,0,
2020.0,2079.0,2046.0,2040.0,0,
2050.0,2079.0,2052.0,2045.0,0,
2055.0,2089.0,2056.0,2046.0,0,
2056.0,2082.0,2057.0,2048.0,0,
2057.0,2088.0,2057.0,2050.0,0,
2061.0,2090.0,2057.0,2051.0,0,
2058.0,2087.0,2056.0,2047.0,0,
2056.0,2089.0,2056.0,2049.0,0,
2061.0,2085.0,2054.0,2050.0,0,
2059.0,2089.0,2059.0,2051.0,0,
2062.0,2094.0,2057.0,2051.0,0.0,0.0,0.0,
2060.0,2088.0,2056.0,2048.0,0.0,0.0,0.0,
2028.0,2071.0,2032.0,2040.0,0.0,0.0,0.0,
2035.0,2075.0,2045.0,2041.0,0.0,0.0,0.0,
2049.0,2071.0,2048.0,2046.0,0,
2052.0,2079.0,2050.0,2048.0,0,
2047.0,2080.0,2051.0,2048.0,0,
2052.0,2079.0,2051.0,2049.0,0,
2048.0,2079.0,2047.0,2046.0,0,
2042.0,2074.0,2048.0,2036.0,0,
2048.0,2066.0,2047.0,2045.0,0,
2050.0,2069.0,2048.0,2043.0,0,
2051.0,2069.0,2044.0,2044.0,0,
2054.0,2062.0,2045.0,2043.0,0,
2054.0,2063.0,2043.0,2041.0,0,
2026.0,2050.0,2032.0,2029.0,0,
2033.0,2053.0,2034.0,2034.0,0,
2036.0,2053.0,2040.0,2038.0,0,
2043.0,2056.0,2045.0,2042.0,0,
2036.0,2053.0,2047.0,2041.0,0,
2037.0,2056.0,2045.0,2039.0,0,
2034.0,2055.0,2045.0,2040.0,0,
2033.0,2041.0,2044.0,2039.0,0,
2033.0,2052.0,2042.0,2038.0,0,
2029.0,2049.0,2044.0,2037.0,0,
2028.0,2051.0,2041.0,2037.0,0.0,0.0,0.0,
2031.0,2052.0,2040.0,2036.0,0.0,0.0,0.0,
2032.0,2056.0,2043.0,2040.0,0.0,0.0,0.0,
2044.0,2057.0,2043.0,2042.0,0.0,0.0,0.0,
2028.0,2053.0,2026.0,2036.0,0.0,0.0,0.0,
2045.0,2061.0,2043.0,2042.0,0.0,0.0,0.0,
2053.0,2063.0,2049.0,2048.0,0,
2052.0,2078.0,2052.0,2045.0,0,
2061.0,2069.0,2054.0,2047.0,0,
2062.0,2071.0,2056.0,2046.0,0,
2066.0,2075.0,2054.0,2046.0,0,
2066.0,2075.0,2054.0,2046.0,0,
2068.0,2075.0,2055.0,2047.0,0,
2063.0,2076.0,2054.0,2048.0,0,
2063.0,2074.0,2052.0,2046.0,0,
2064.0,2074.0,2056.0,2045.0,0,
2051.0,2076.0,2037.0,2041.0,0,
2066.0,2085.0,2046.0,2048.0,0,
2069.0,2079.0,2031.0,2050.0,0,
2079.0,2084.0,2056.0,2050.0,0,
2076.0,2085.0,2059.0,2054.0,0,
2073.0,2086.0,2059.0,2054.0,0,
2065.0,2081.0,2054.0,2053.0,0,
2063.0,2076.0,2052.0,2052.0,0,
2065.0,2075.0,2051.0,2051.0,0,
2065.0,2077.0,2049.0,2050.0,0,
2066.0,2083.0,2052.0,2053.0,0,
2068.0,2076.0,2048.0,2052.0,0,
2061.0,2070.0,2047.0,2051.0,0,
2059.0,2069.0,2046.0,2050.0,0,
2024.0,2052.0,2022.0,2034.0,0,
2036.0,2054.0,2034.0,2040.0,0,
2046.0,2057.0,2041.0,2043.0,0,
2046.0,2059.0,2044.0,2045.0,0,
2046.0,2063.0,2044.0,2048.0,0,
2040.0,2058.0,2043.0,2049.0,0,
2041.0,2058.0,2043.0,2047.0,0,
2050.0,2055.0,2041.0,2044.0,0,
2040.0,2054.0,2043.0,2048.0,0.0,0.0,0.0,
2046.0,2051.0,2043.0,2047.0,0.0,0.0,0.0,
2049.0,2052.0,2043.0,2046.0,0,
2053.0,2051.0,2045.0,2046.0,0,
2055.0,2053.0,2046.0,2046.0,0,
2028.0,2047.0,2028.0,2036.0,0,
2040.0,2049.0,2036.0,2041.0,0,
2046.0,2049.0,2042.0,2044.0,0,
2055.0,2052.0,2048.0,2045.0,0,
2053.0,2056.0,2045.0,2045.0,0,
2059.0,2061.0,2046.0,2047.0,0,
2061.0,2059.0,2047.0,2051.0,0,
2067.0,2063.0,2054.0,2049.0,0,
2067.0,2063.0,2053.0,2052.0,0,
2067.0,2065.0,2054.0,2053.0,0.0,0.0,0.0,
2062.0,2066.0,2054.0,2051.0,0.0,0.0,0.0,
2063.0,2070.0,2054.0,2053.0,0.0,0.0,0.0,
2065.0,2071.0,2055.0,2051.0,0.0,0.0,0.0,
2037.0,2068.0,2034.0,2044.0,0,
2051.0,2076.0,2046.0,2048.0,0,
2058.0,2082.0,2050.0,2053.0,0,
2063.0,2084.0,2053.0,2058.0,0,
2061.0,2079.0,2055.0,2053.0,0,
2065.0,2089.0,2058.0,2056.0,0,
2066.0,2088.0,2054.0,2056.0,0,
2066.0,2087.0,2055.0,2056.0,0,
2067.0,2090.0,2056.0,2056.0,0,
2069.0,2088.0,2053.0,2055.0,0,
2065.0,2087.0,2054.0,2054.0,0,
2069.0,2091.0,2064.0,2054.0,0,
2072.0,2089.0,2053.0,2059.0,0,
2045.0,2075.0,2028.0,2044.0,0,
2049.0,2074.0,2040.0,2047.0,0,
2053.0,2076.0,2046.0,2051.0,0,
2055.0,2077.0,2044.0,2052.0,0,
2052.0,2077.0,2045.0,2051.0,0,
2050.0,2076.0,2044.0,2052.0,0,
2048.0,2079.0,2046.0,2049.0,0,
2039.0,2066.0,2045.0,2045.0,0.0,0.0,0.0,
2046.0,2067.0,2063.0,2047.0,0.0,0.0,0.0,
2040.0,2066.0,2043.0,2046.0,0.0,0.0,0.0,
2040.0,2065.0,2041.0,2044.0,0,
2039.0,2059.0,2042.0,2037.0,0,
2038.0,2055.0,2042.0,2041.0,0,
2008.0,2049.0,2022.0,2029.0,0,
2018.0,2055.0,2034.0,2037.0,0,
2025.0,2058.0,2042.0,2041.0,0,
2006.0,2059.0,2045.0,2044.0,0,
2033.0,2058.0,2042.0,2043.0,0,
2038.0,2057.0,2045.0,2049.0,0,
2042.0,2058.0,2048.0,2044.0,0,
2039.0,2056.0,2051.0,2045.0,0,
2041.0,2059.0,2049.0,2046.0,0,
2044.0,2062.0,2051.0,2046.0,0,
2041.0,2062.0,2054.0,2047.0,0,
2043.0,2062.0,2051.0,2045.0,0,
2044.0,2070.0,2051.0,2046.0,0,
2026.0,2061.0,2030.0,2036.0,0,
2037.0,2073.0,2052.0,2043.0,0,
2043.0,2072.0,2051.0,2046.0,0,
2052.0,2077.0,2055.0,2050.0,0,
2052.0,2085.0,2058.0,2052.0,0,
2055.0,2078.0,2060.0,2054.0,0,
2057.0,2084.0,2058.0,2056.0,0,
2062.0,2084.0,2052.0,2055.0,0.0,0.0,0.0,
2048.0,2086.0,2056.0,2046.0,0.0,0.0,0.0,
2060.0,2088.0,2055.0,2056.0,0.0,0.0,0.0,
2059.0,2087.0,2058.0,2054.0,0.0,0.0,0.0,
2060.0,2085.0,2055.0,2051.0,0,
2053.0,2080.0,2049.0,2052.0,0,
2054.0,2083.0,2054.0,2045.0,0,
2024.0,2074.0,2031.0,2038.0,0,
2023.0,2078.0,2042.0,2042.0,0,
2044.0,2081.0,2047.0,2049.0,0,
2047.0,2080.0,2050.0,2049.0,0,
2048.0,2079.0,2052.0,2051.0,0,
2049.0,2074.0,2050.0,2051.0,0,
2049.0,2074.0,2051.0,2051.0,0,
2044.0,2074.0,2050.0,2049.0,0,
2043.0,2070.0,2050.0,2050.0,0,
2045.0,2073.0,2048.0,2051.0,0,
2037.0,2069.0,2048.0,2048.0,0,
2034.0,2070.0,2049.0,2052.0,0,
2009.0,2054.0,2026.0,2035.0,0,
2020.0,2057.0,2036.0,2043.0,0,
2027.0,2056.0,2040.0,2043.0,0,
2028.0,2059.0,2040.0,2043.0,0,
2024.0,2058.0,2043.0,2042.0,0,
2028.0,2057.0,2044.0,2041.0,0,
2027.0,2055.0,2044.0,2041.0,0,
2031.0,2057.0,2043.0,2041.0,0.0,0.0,0.0,
2030.0,2056.0,2043.0,2040.0,0.0,0.0,0.0,
2030.0,2055.0,2042.0,2043.0,0,
2034.0,2056.0,2044.0,2042.0,0,
2042.0,2058.0,2043.0,2042.0,0,
2046.0,2055.0,2047.0,2043.0,0,
2047.0,2057.0,2045.0,2041.0,0,
2029.0,2051.0,2026.0,2028.0,0,
2039.0,2054.0,2040.0,2039.0,0,
2045.0,2060.0,2046.0,2044.0,0,
2057.0,2059.0,2049.0,2049.0,0,
2056.0,2068.0,2053.0,2051.0,0,
2059.0,2068.0,2053.0,2053.0,0.0,0.0,0.0,
2062.0,2072.0,2054.0,2053.0,0.0,0.0,0.0,
2064.0,2069.0,2058.0,2053.0,0.0,0.0,0.0,
2063.0,2071.0,2055.0,2055.0,0.0,0.0,0.0,
2059.0,2072.0,2057.0,2052.0,0.0,0.0,0.0,
2063.0,2075.0,2059.0,2052.0,0.0,0.0,0.0,
2063.0,2075.0,2057.0,2055.0,0,
2059.0,2076.0,2055.0,2053.0,0,
2034.0,2070.0,2036.0,2044.0,0,
2040.0,2076.0,2038.0,2050.0,0,
2045.0,2080.0,2048.0,2055.0,0,
2056.0,2080.0,2052.0,2053.0,0,
2056.0,2080.0,2051.0,2046.0,0,
2059.0,2082.0,2052.0,2052.0,0,
2062.0,2079.0,2054.0,2055.0,0,
2058.0,2078.0,2049.0,2055.0,0,
2058.0,2078.0,2053.0,2057.0,0,
2055.0,2084.0,2049.0,2055.0,0,
2051.0,2073.0,2048.0,2053.0,0,
2051.0,2069.0,2046.0,2053.0,0,
2050.0,2073.0,2050.0,2054.0,0,
2014.0,2050.0,2022.0,2037.0,0,
2027.0,2051.0,2033.0,2045.0,0,
2036.0,2058.0,2040.0,2047.0,0,
2043.0,2060.0,2041.0,2047.0,0,
2039.0,2057.0,2045.0,2047.0,0,
2044.0,2055.0,2043.0,2046.0,0,
2040.0,2056.0,2046.0,2047.0,0,
2039.0,2051.0,2044.0,2045.0,0,
2039.0,2050.0,2045.0,2059.0,0,
2033.0,2049.0,2044.0,2047.0,0,
2033.0,2044.0,2045.0,2046.0,0,
2034.0,2047.0,2042.0,2047.0,0,
2031.0,2050.0,2047.0,2047.0,0,
2005.0,2039.0,2025.0,2039.0,0,
2017.0,2039.0,2035.0,2041.0,0,
2019.0,2043.0,2042.0,2045.0,0,
2018.0,2049.0,2045.0,2047.0,0,
2028.0,2048.0,2048.0,2046.0,0.0,0.0,0.0,
2033.0,2049.0,2047.0,2047.0,0.0,0.0,0.0,
2037.0,2053.0,2049.0,2049.0,0.0,0.0,0.0,
2034.0,2055.0,2051.0,2050.0,0.0,0.0,0.0,
2042.0,2054.0,2049.0,2050.0,0.0,0.0,0.0,
2043.0,2059.0,2049.0,2053.0,0.0,0.0,0.0,
2044.0,2064.0,2049.0,2051.0,0,
2043.0,2065.0,2049.0,2052.0,0,
2045.0,2062.0,2050.0,2054.0,0,
2050.0,2069.0,2054.0,2051.0,0,
2042.0,2069.0,2034.0,2042.0,0,
2053.0,2079.0,2047.0,2047.0,0,
2063.0,2079.0,2054.0,2053.0,0,
2060.0,2081.0,2058.0,2055.0,0,
2062.0,2084.0,2059.0,2053.0,0,
2060.0,2080.0,2056.0,2053.0,0,
2060.0,2079.0,2055.0,2055.0,0,
2054.0,2080.0,2055.0,2052.0,0,
2052.0,2082.0,2055.0,2053.0,0,
2045.0,2080.0,2055.0,2053.0,0,
2048.0,2083.0,2054.0,2038.0,0,
2048.0,2084.0,2051.0,2050.0,0,
2029.0,2070.0,2029.0,2037.0,0,
2041.0,2074.0,2040.0,2045.0,0,
2045.0,2075.0,2039.0,2046.0,0,
2047.0,2071.0,2051.0,2046.0,0,
2047.0,2075.0,2050.0,2048.0,0,
2049.0,2076.0,2048.0,2045.0,0,
2049.0,2068.0,2048.0,2043.0,0,
2046.0,2068.0,2048.0,2040.0,0,
2040.0,2069.0,2045.0,2042.0,0,
2038.0,2064.0,2043.0,2041.0,0,
2029.0,2064.0,2044.0,2040.0,0,
2032.0,2067.0,2042.0,2040.0,0,
2030.0,2063.0,2043.0,2041.0,0,
2031.0,2062.0,2043.0,2037.0,0,
2017.0,2051.0,2020.0,2028.0,0,
2028.0,2061.0,2033.0,2035.0,0,
2032.0,2063.0,2038.0,2033.0,0.0,0.0,0.0,
2037.0,2061.0,2042.0,2037.0,0.0,0.0,0.0,
2042.0,2064.0,2045.0,2040.0,0.0,0.0,0.0,
2041.0,2062.0,2045.0,2042.0,0.0,0.0,0.0,
2035.0,2061.0,2049.0,2041.0,0.0,0.0,0.0,
2036.0,2061.0,2046.0,2042.0,0.0,0.0,0.0,
2037.0,2063.0,2045.0,2043.0,0,
2047.0,2063.0,2047.0,2040.0,0,
2046.0,2066.0,2048.0,2044.0,0,
2051.0,2065.0,2049.0,2045.0,0,
2029.0,2063.0,2035.0,2038.0,0,
2043.0,2071.0,2043.0,2042.0,0,
2045.0,2074.0,2051.0,2044.0,0,
2048.0,2077.0,2054.0,2049.0,0,
2052.0,2076.0,2057.0,2045.0,0,
2049.0,2077.0,2053.0,2046.0,0,
2052.0,2078.0,2054.0,2040.0,0,
2051.0,2079.0,2055.0,2047.0,0,
2048.0,2077.0,2054.0,2047.0,0,
2053.0,2076.0,2057.0,2051.0,0,
2061.0,2077.0,2054.0,2050.0,0,
2061.0,2080.0,2054.0,2048.0,0,
2062.0,2084.0,2051.0,2048.0,0,
2061.0,2084.0,2051.0,2044.0,0,
2030.0,2069.0,2030.0,2022.0,0,
2048.0,2076.0,2043.0,2042.0,0,
2057.0,2084.0,2053.0,2048.0,0,
2065.0,2082.0,2051.0,2049.0,0,
2058.0,2080.0,2052.0,2048.0,0,
2057.0,2076.0,2046.0,2048.0,0,
2050.0,2077.0,2052.0,2049.0,0,
2052.0,2077.0,2050.0,2046.0,0,
2048.0,2080.0,2050.0,2047.0,0,
2051.0,2075.0,2050.0,2045.0,0,
2048.0,2072.0,2050.0,2046.0,0,
2049.0,2068.0,2048.0,2045.0,0,
2042.0,2069.0,2051.0,2043.0,0,
2017.0,2057.0,2024.0,2034.0,0,
2025.0,2061.0,2033.0,2039.0,0.0,0.0,0.0,
2031.0,2063.0,2039.0,2042.0,0.0,0.0,0.0,
2037.0,2062.0,2042.0,2042.0,0.0,0.0,0.0,
2040.0,2063.0,2042.0,2042.0,0.0,0.0,0.0,
2037.0,2062.0,2043.0,2043.0,0,
2035.0,2056.0,2042.0,2044.0,0,
2039.0,2056.0,2041.0,2041.0,0,
2031.0,2054.0,2042.0,2040.0,0,
2031.0,2048.0,2043.0,2042.0,0,
2034.0,2053.0,2043.0,2044.0,0,
2034.0,2054.0,2045.0,2041.0,0,
2037.0,2053.0,2044.0,2041.0,0,
2012.0,2048.0,2026.0,2032.0,0,
2028.0,2053.0,2039.0,2040.0,0,
2037.0,2060.0,2046.0,2048.0,0,
2048.0,2065.0,2052.0,2045.0,0,
2046.0,2065.0,2051.0,2044.0,0,
2049.0,2069.0,2052.0,2044.0,0,
2049.0,2068.0,2054.0,2046.0,0,
2054.0,2067.0,2048.0,2048.0,0,
2053.0,2073.0,2056.0,2045.0,0,
2056.0,2077.0,2057.0,2046.0,0,
2061.0,2074.0,2053.0,2050.0,0,
2065.0,2068.0,2057.0,2051.0,0,
2065.0,2076.0,2056.0,2051.0,0,
2044.0,2072.0,2034.0,2046.0,0,
2060.0,2079.0,2048.0,2051.0,0.0,0.0,0.0,
2068.0,2079.0,2052.0,2053.0,0.0,0.0,0.0,
2064.0,2081.0,2056.0,2056.0,0.0,0.0,0.0,
2072.0,2079.0,2055.0,2057.0,0.0,0.0,0.0,
2073.0,2085.0,2058.0,2056.0,0.0,0.0,0.0,
2072.0,2081.0,2057.0,2058.0,0,
2070.0,2076.0,2055.0,2057.0,0,
2069.0,2072.0,2054.0,2054.0,0,
2065.0,2074.0,2051.0,2053.0,0,
2058.0,2075.0,2049.0,2049.0,0,
2061.0,2072.0,2050.0,2050.0,0,
2059.0,2067.0,2049.0,2053.0,0,
2055.0,2068.0,2044.0,2051.0,0,
2024.0,2056.0,2017.0,2034.0,0,
2033.0,2059.0,2035.0,2030.0,0,
2034.0,2059.0,2038.0,2046.0,0,
2033.0,2056.0,2039.0,2056.0,0,
2036.0,2055.0,2044.0,2051.0,0,
2035.0,2056.0,2039.0,2052.0,0,
2034.0,2050.0,2042.0,2049.0,0,
2033.0,2052.0,2042.0,2049.0,0,
2032.0,2053.0,2040.0,2048.0,0,
2030.0,2050.0,2043.0,2046.0,0,
2025.0,2031.0,2044.0,2046.0,0,
2025.0,2049.0,2044.0,2045.0,0,
2000.0,2041.0,2023.0,2036.0,0,
2016.0,2048.0,2031.0,2037.0,0,
2025.0,2048.0,2040.0,2037.0,0,
2034.0,2046.0,2044.0,2040.0,0,
2045.0,2049.0,2047.0,2041.0,0,
2057.0,2055.0,2049.0,2045.0,0,
2063.0,2061.0,2049.0,2049.0,0,
2068.0,2064.0,2054.0,2046.0,0,
2088.0,2067.0,2052.0,2048.0,0,
2066.0,2066.0,2051.0,2044.0,0,
2063.0,2065.0,2047.0,2044.0,0,
2060.0,2064.0,2048.0,2040.0,0,
2058.0,2067.0,2048.0,2039.0,0,
2057.0,2066.0,2051.0,2043.0,0.0,0.0,0.0,
2049.0,2067.0,2035.0,2044.0,0.0,0.0,0.0,
2061.0,2075.0,2048.0,2053.0,0,
2066.0,2081.0,2055.0,2055.0,0,
2074.0,2083.0,2058.0,2055.0,0,
2078.0,2084.0,2058.0,2045.0,0,
2079.0,2086.0,2058.0,2059.0,0,
2080.0,2087.0,2058.0,2058.0,0,
2076.0,2083.0,2059.0,2058.0,0,
2070.0,2084.0,2060.0,2058.0,0,
2063.0,2085.0,2050.0,2057.0,0,
2055.0,2080.0,2055.0,2067.0,0,
2052.0,2082.0,2054.0,2054.0,0.0,0.0,0.0,
2019.0,2072.0,2034.0,2046.0,0.0,0.0,0.0,
2028.0,2077.0,2047.0,2046.0,0.0,0.0,0.0,
2039.0,2074.0,2048.0,2047.0,0.0,0.0,0.0,
2042.0,2076.0,2048.0,2049.0,0.0,0.0,0.0,
2047.0,2076.0,2051.0,2047.0,0.0,0.0,0.0,
2052.0,2075.0,2048.0,2050.0,0,
2052.0,2072.0,2049.0,2049.0,0,
2050.0,2067.0,2046.0,2048.0,0,
2044.0,2064.0,2048.0,2044.0,0,
2045.0,2063.0,2046.0,2044.0,0,
2048.0,2058.0,2045.0,2044.0,0,
2048.0,2063.0,2046.0,2043.0,0,
2046.0,2059.0,2043.0,2043.0,0,
2042.0,2058.0,2045.0,2039.0,0,
2020.0,2043.0,2022.0,2030.0,0,
2032.0,2049.0,2035.0,2039.0,0,
2041.0,2052.0,2038.0,2040.0,0,
2040.0,2053.0,2044.0,2044.0,0,
2043.0,2059.0,2048.0,2043.0,0,
2040.0,2057.0,2049.0,2045.0,0,
2042.0,2056.0,2049.0,2044.0,0,
2033.0,2054.0,2051.0,2046.0,0,
2032.0,2055.0,2050.0,2047.0,0,
2038.0,2057.0,2052.0,2049.0,0,
2043.0,2059.0,2050.0,2046.0,0,
2044.0,2058.0,2048.0,2043.0,0,
2047.0,2066.0,2051.0,2046.0,0,
2035.0,2058.0,2035.0,2036.0,0,
2051.0,2062.0,2047.0,2042.0,0,
2053.0,2068.0,2051.0,2046.0,0,
2061.0,2070.0,2056.0,2049.0,0,
2066.0,2071.0,2057.0,2049.0,0,
2072.0,2077.0,2060.0,2053.0,0,
2072.0,2081.0,2065.0,2055.0,0,
2068.0,2078.0,2060.0,2055.0,0,
2070.0,2081.0,2060.0,2052.0,0,
2068.0,2082.0,2056.0,2050.0,0,
2059.0,2079.0,2058.0,2050.0,0,
2060.0,2077.0,2056.0,2050.0,0.0,0.0,0.0,
2063.0,2079.0,2057.0,2050.0,0.0,0.0,0.0,
2033.0,2065.0,2029.0,2036.0,0,
2042.0,2073.0,2041.0,2048.0,0,
2053.0,2072.0,2051.0,2049.0,0,
2051.0,2076.0,2053.0,2050.0,0,
2050.0,2080.0,2052.0,2052.0,0,
2052.0,2076.0,2053.0,2050.0,0,
2052.0,2075.0,2051.0,2053.0,0,
2044.0,2075.0,2050.0,2048.0,0,
2045.0,2073.0,2053.0,2047.0,0,
2039.0,2068.0,2047.0,2050.0,0,
2038.0,2069.0,2047.0,2046.0,0,
2011.0,2062.0,2040.0,2043.0,0.0,0.0,0.0,
2037.0,2064.0,2041.0,2047.0,0.0,0.0,0.0,
2004.0,2049.0,2021.0,2031.0,0.0,0.0,0.0,
2015.0,2075.0,2029.0,2035.0,0.0,0.0,0.0,
2021.0,2055.0,2037.0,2039.0,0.0,0.0,0.0,
2023.0,2055.0,2040.0,2036.0,0.0,0.0,0.0,
2029.0,2055.0,2043.0,2044.0,0,
2036.0,2054.0,2051.0,2042.0,0,
2039.0,2055.0,2043.0,2042.0,0,
2044.0,2060.0,2040.0,2039.0,0,
2050.0,2061.0,2044.0,2038.0,0,
2053.0,2063.0,2044.0,2040.0,0,
2053.0,2062.0,2046.0,2036.0,0,
2050.0,2067.0,2046.0,2039.0,0,
2038.0,2062.0,2045.0,2050.0,0,
2035.0,2059.0,2028.0,2031.0,0,
2044.0,2061.0,2039.0,2039.0,0,
2053.0,2071.0,2049.0,2041.0,0,
2058.0,2069.0,2054.0,2043.0,0,
2060.0,2073.0,2055.0,2042.0,0,
2060.0,2070.0,2055.0,2044.0,0,
2058.0,2072.0,2055.0,2046.0,0,
2055.0,2075.0,2055.0,2044.0,0,
2044.0,2075.0,2052.0,2048.0,0,
2057.0,2074.0,2057.0,2046.0,0,
2059.0,2078.0,2059.0,2044.0,0,
2061.0,2081.0,2056.0,2050.0,0,
2054.0,2084.0,2055.0,2047.0,0,
2035.0,2074.0,2037.0,2037.0,0,
2049.0,2082.0,2048.0,2044.0,0,
2058.0,2085.0,2051.0,2042.0,0,
2060.0,2086.0,2053.0,2047.0,0,
2058.0,2084.0,2055.0,2048.0,0,
2061.0,2088.0,2060.0,2048.0,0,
2058.0,2087.0,2057.0,2048.0,0,
2057.0,2085.0,2047.0,2047.0,0,
2047.0,2084.0,2055.0,2045.0,0,
2052.0,2081.0,2052.0,2045.0,0,
2045.0,2080.0,2052.0,2044.0,0.0,0.0,0.0,
2048.0,2079.0,2050.0,2046.0,0.0,0.0,0.0,
2040.0,2082.0,2047.0,2044.0,0.0,0.0,0.0,
2043.0,2073.0,2046.0,2043.0,0.0,0.0,0.0,
2024.0,2063.0,2020.0,2032.0,0,
2033.0,2064.0,2027.0,2037.0,0,
2040.0,2066.0,2037.0,2040.0,0,
2037.0,2068.0,2039.0,2040.0,0,
2039.0,2065.0,2039.0,2043.0,0,
2044.0,2063.0,2040.0,2042.0,0,
2052.0,2064.0,2041.0,2039.0,0,
2046.0,2063.0,2042.0,2042.0,0,
2045.0,2063.0,2041.0,2039.0,0,
2044.0,2060.0,2043.0,2041.0,0,
2041.0,2060.0,2041.0,2040.0,0,
2047.0,2064.0,2043.0,2041.0,0,
2018.0,2049.0,2026.0,2032.0,0,
2028.0,2056.0,2037.0,2037.0,0,
2036.0,2060.0,2043.0,2039.0,0,
2038.0,2062.0,2047.0,2043.0,0,
2039.0,2066.0,2048.0,2044.0,0,
2037.0,2063.0,2049.0,2045.0,0,
2039.0,2065.0,2050.0,2047.0,0,
2041.0,2065.0,2050.0,2046.0,0,
2043.0,2068.0,2051.0,2048.0,0,
2045.0,2066.0,2050.0,2048.0,0.0,0.0,0.0,
2047.0,2067.0,2052.0,2047.0,0.0,0.0,0.0,
2050.0,2072.0,2054.0,2050.0,0.0,0.0,0.0,
2054.0,2066.0,2053.0,2049.0,0.0,0.0,0.0,
2059.0,2074.0,2055.0,2050.0,0.0,0.0,0.0,
2036.0,2065.0,2027.0,2039.0,0.0,0.0,0.0,
2050.0,2075.0,2056.0,2048.0,0,
2065.0,2081.0,2049.0,2050.0,0,
2067.0,2058.0,2051.0,2052.0,0,
2067.0,2083.0,2050.0,2052.0,0,
2068.0,2084.0,2055.0,2052.0,0,
2070.0,2085.0,2058.0,2054.0,0,
2066.0,2081.0,2055.0,2053.0,0,
2065.0,2079.0,2056.0,2051.0,0,
2063.0,2087.0,2053.0,2053.0,0,
2060.0,2076.0,2052.0,2054.0,0,
2057.0,2078.0,2054.0,2054.0,0,
2037.0,2064.0,2031.0,2034.0,0,
2049.0,2063.0,2040.0,2044.0,0,
2055.0,2068.0,2045.0,2045.0,0,
2062.0,2066.0,2049.0,2049.0,0,
2059.0,2068.0,2049.0,2050.0,0,
2065.0,2065.0,2048.0,2051.0,0,
2056.0,2063.0,2046.0,2049.0,0,
2053.0,2060.0,2044.0,2047.0,0,
2050.0,2056.0,2044.0,2046.0,0,
2041.0,2051.0,2042.0,2045.0,0,
2046.0,2055.0,2042.0,2045.0,0,
2040.0,2052.0,2041.0,2044.0,0,
2036.0,2070.0,2041.0,2043.0,0,
2034.0,2049.0,2043.0,2043.0,0,
2010.0,2036.0,2020.0,2032.0,0,
2022.0,2041.0,2029.0,2040.0,0,
2031.0,2042.0,2038.0,2042.0,0,
2032.0,2045.0,2040.0,2042.0,0,
2037.0,2046.0,2045.0,2042.0,0,
2040.0,2048.0,2046.0,2043.0,0,
2034.0,2048.0,2049.0,2045.0,0,
2038.0,2047.0,2045.0,2039.0,0.0,0.0,0.0,
2045.0,2048.0,2047.0,2043.0,0.0,0.0,0.0,
2042.0,2050.0,2049.0,2044.0,0.0,0.0,0.0,
2031.0,2055.0,2049.0,2049.0,0,
2038.0,2050.0,2048.0,2043.0,0,
2042.0,2059.0,2050.0,2044.0,0,
2030.0,2063.0,2032.0,2041.0,0,
2048.0,2067.0,2044.0,2048.0,0,
2056.0,2072.0,2050.0,2050.0,0,
2059.0,2075.0,2056.0,2052.0,0,
2056.0,2069.0,2054.0,2053.0,0,
2055.0,2078.0,2058.0,2056.0,0,
2056.0,2077.0,2056.0,2054.0,0,
2054.0,2077.0,2055.0,2054.0,0,
2052.0,2077.0,2054.0,2056.0,0,
2054.0,2076.0,2064.0,2051.0,0,
2056.0,2082.0,2055.0,2050.0,0,
2058.0,2084.0,2055.0,2050.0,0,
2064.0,2082.0,2055.0,2050.0,0,
2042.0,2072.0,2031.0,2043.0,0,
2053.0,2079.0,2047.0,2049.0,0,
2058.0,2080.0,2050.0,2049.0,0,
2061.0,2082.0,2050.0,2053.0,0,
2060.0,2082.0,2051.0,2055.0,0,
2057.0,2079.0,2048.0,2053.0,0,
2056.0,2081.0,2050.0,2051.0,0,
2054.0,2074.0,2047.0,2050.0,0.0,0.0,0.0,
2050.0,2071.0,2047.0,2047.0,0.0,0.0,0.0,
2046.0,2076.0,2048.0,2048.0,0.0,0.0,0.0,
2041.0,2069.0,2045.0,2047.0,0.0,0.0,0.0,
2043.0,2070.0,2045.0,2050.0,0,
2045.0,2064.0,2047.0,2051.0,0,
2023.0,2052.0,2028.0,2040.0,0,
2029.0,2054.0,2032.0,2045.0,0,
2036.0,2053.0,2036.0,2047.0,0,
2043.0,2055.0,2041.0,2045.0,0,
2043.0,2054.0,2040.0,2045.0,0,
2042.0,2050.0,2041.0,2041.0,0,
2043.0,2050.0,2043.0,2044.0,0,
2040.0,2051.0,2038.0,2043.0,0,
2038.0,2047.0,2040.0,2043.0,0,
2036.0,2054.0,2046.0,2043.0,0,
2033.0,2047.0,2043.0,2046.0,0,
2038.0,2046.0,2045.0,2048.0,0,
2036.0,2050.0,2042.0,2043.0,0,
2036.0,2048.0,2043.0,2044.0,0,
2004.0,2041.0,2022.0,2030.0,0,
2024.0,2050.0,2040.0,2037.0,0,
2036.0,2060.0,2047.0,2048.0,0,
2042.0,2065.0,2050.0,2045.0,0,
2048.0,2070.0,2054.0,2047.0,0,
2049.0,2072.0,2056.0,2050.0,0.0,0.0,0.0,
2056.0,2071.0,2058.0,2052.0,0.0,0.0,0.0,
2058.0,2075.0,2061.0,2053.0,0.0,0.0,0.0,
2057.0,2080.0,2060.0,2057.0,0.0,0.0,0.0,
2052.0,2077.0,2059.0,2055.0,0,
2062.0,2082.0,2058.0,2053.0,0,
2056.0,2083.0,2057.0,2053.0,0,
2054.0,2077.0,2034.0,2044.0,0,
2070.0,2089.0,2060.0,2048.0,0,
2076.0,2084.0,2050.0,2054.0,0,
2078.0,2089.0,2052.0,2050.0,0,
2075.0,2094.0,2054.0,2052.0,0,
2074.0,2095.0,2055.0,2046.0,0,
2072.0,2088.0,2053.0,2050.0,0,
2068.0,2088.0,2053.0,2052.0,0,
2069.0,2084.0,2049.0,2048.0,0,
2065.0,2078.0,2051.0,2050.0,0,
2064.0,2085.0,2046.0,2047.0,0,
2059.0,2077.0,2047.0,2050.0,0,
2055.0,2081.0,2044.0,2049.0,0,
2056.0,2077.0,2044.0,2047.0,0,
2015.0,2066.0,2021.0,2036.0,0,
2025.0,2067.0,2033.0,2041.0,0,
2030.0,2067.0,2042.0,2047.0,0,
2030.0,2066.0,2042.0,2048.0,0,
2029.0,2064.0,2042.0,2047.0,0,
2027.0,2063.0,2040.0,2049.0,0.0,0.0,0.0,
2031.0,2064.0,2044.0,2047.0,0.0,0.0,0.0,
2037.0,2063.0,2044.0,2049.0,0.0,0.0,0.0,
2037.0,2069.0,2044.0,2049.0,0.0,0.0,0.0,
2036.0,2067.0,2045.0,2046.0,0,
2038.0,2064.0,2042.0,2049.0,0,
2036.0,2065.0,2038.0,2043.0,0,
2027.0,2066.0,2040.0,2044.0,0,
2019.0,2052.0,2021.0,2031.0,0,
2036.0,2061.0,2035.0,2035.0,0,
2048.0,2065.0,2042.0,2040.0,0,
2058.0,2068.0,2044.0,2046.0,0,
2065.0,2072.0,2051.0,2041.0,0,
2070.0,2082.0,2053.0,2042.0,0,
2067.0,2077.0,2051.0,2041.0,0,
2066.0,2077.0,2054.0,2042.0,0,
2063.0,2079.0,2053.0,2040.0,0,
2067.0,2080.0,2055.0,2043.0,0,
2067.0,2077.0,2054.0,2042.0,0,
2066.0,2082.0,2054.0,2046.0,0,
2072.0,2083.0,2053.0,2046.0,0,
2048.0,2081.0,2032.0,2040.0,0,
2062.0,2083.0,2045.0,2048.0,0,
2064.0,2086.0,2053.0,2051.0,0,
2060.0,2087.0,2055.0,2051.0,0,
2068.0,2084.0,2053.0,2051.0,0.0,0.0,0.0,
2068.0,2087.0,2057.0,2052.0,0.0,0.0,0.0,
2072.0,2090.0,2055.0,2052.0,0.0,0.0,0.0,
2069.0,2087.0,2056.0,2050.0,0.0,0.0,0.0,
2066.0,2084.0,2054.0,2052.0,0.0,0.0,0.0,
2071.0,2084.0,2056.0,2046.0,0.0,0.0,0.0,
2071.0,2087.0,2054.0,2050.0,0.0,0.0,0.0,
2074.0,2086.0,2057.0,2052.0,0,
2079.0,2086.0,2053.0,2051.0,0,
2041.0,2072.0,2032.0,2039.0,0,
2047.0,2072.0,2042.0,2045.0,0,
2050.0,2073.0,2047.0,2046.0,0,
2052.0,2076.0,2049.0,2049.0,0,
2048.0,2074.0,2051.0,2045.0,0,
2051.0,2075.0,2050.0,2046.0,0,
2052.0,2076.0,2047.0,2044.0,0,
2050.0,2070.0,2048.0,2044.0,0,
2049.0,2069.0,2045.0,2043.0,0,
2043.0,2063.0,2044.0,2039.0,0,
2041.0,2063.0,2043.0,2041.0,0,
2043.0,2056.0,2038.0,2040.0,0,
2041.0,2056.0,2045.0,2046.0,0,
2012.0,2041.0,2023.0,2035.0,0,
2028.0,2043.0,2035.0,2037.0,0,
2036.0,2049.0,2042.0,2042.0,0,
2040.0,2053.0,2048.0,2044.0,0,
2047.0,2049.0,2047.0,2041.0,0,
2043.0,2050.0,2046.0,2044.0,0,
2043.0,2051.0,2048.0,2044.0,0,
2046.0,2053.0,2043.0,2046.0,0,
2044.0,2052.0,2046.0,2046.0,0,
2044.0,2056.0,2049.0,2045.0,0,
2041.0,2057.0,2048.0,2044.0,0,
2040.0,2056.0,2048.0,2045.0,0,
2043.0,2058.0,2047.0,2048.0,0,
2027.0,2057.0,2036.0,2039.0,0,
2031.0,2060.0,2045.0,2045.0,0.0,0.0,0.0,
2041.0,2062.0,2048.0,2048.0,0,
2045.0,2065.0,2054.0,2049.0,0,
2054.0,2069.0,2056.0,2049.0,0,
2058.0,2073.0,2058.0,2053.0,0,
2055.0,2073.0,2057.0,2052.0,0,
2058.0,2075.0,2057.0,2055.0,0,
2057.0,2069.0,2055.0,2053.0,0,
2060.0,2074.0,2054.0,2057.0,0,
2061.0,2078.0,2057.0,2053.0,0,
2060.0,2072.0,2057.0,2051.0,0,
2056.0,2075.0,2055.0,2045.0,0,
2053.0,2079.0,2055.0,2051.0,0,
2041.0,2075.0,2034.0,2040.0,0,
2053.0,2077.0,2044.0,2044.0,0,
2060.0,2080.0,2048.0,2044.0,0.0,0.0,0.0,
2064.0,2080.0,2052.0,2043.0,0.0,0.0,0.0,
2058.0,2080.0,2052.0,2046.0,0,
2052.0,2074.0,2051.0,2046.0,0,
2049.0,2076.0,2053.0,2045.0,0,
2047.0,2071.0,2053.0,2043.0,0,
2044.0,2071.0,2050.0,2045.0,0,
2046.0,2073.0,2050.0,2042.0,0,
2048.0,2071.0,2049.0,2047.0,0,
2045.0,2068.0,2047.0,2047.0,0,
2024.0,2055.0,2030.0,2036.0,0,
2035.0,2056.0,2036.0,2041.0,0,
2044.0,2061.0,2042.0,2045.0,0.0,0.0,0.0,
2044.0,2063.0,2045.0,2044.0,0.0,0.0,0.0,
2041.0,2060.0,2044.0,2042.0,0.0,0.0,0.0,
2041.0,2057.0,2045.0,2038.0,0.0,0.0,0.0,
2041.0,2057.0,2045.0,2050.0,0.0,0.0,0.0,
2040.0,2056.0,2049.0,2038.0,0.0,0.0,0.0,
2038.0,2057.0,2045.0,2039.0,0,
2041.0,2056.0,2047.0,2040.0,0,
2041.0,2055.0,2046.0,2041.0,0,
2040.0,2041.0,2046.0,2041.0,0,
2039.0,2055.0,2047.0,2040.0,0,
2026.0,2053.0,2046.0,2040.0,0,
2015.0,2046.0,2025.0,2032.0,0,
2031.0,2054.0,2041.0,2042.0,0,
2035.0,2060.0,2048.0,2044.0,0,
2043.0,2066.0,2052.0,2049.0,0,
2048.0,2067.0,2051.0,2050.0,0,
2046.0,2072.0,2056.0,2050.0,0,
2051.0,2072.0,2052.0,2051.0,0,
2049.0,2075.0,2054.0,2053.0,0,
2057.0,2079.0,2053.0,2052.0,0,
2061.0,2076.0,2052.0,2054.0,0,
2061.0,2076.0,2053.0,2052.0,0,
2057.0,2075.0,2055.0,2052.0,0,
2028.0,2072.0,2037.0,2046.0,0,
2042.0,2074.0,2046.0,2051.0,0,
2044.0,2073.0,2052.0,2055.0,0,
2045.0,2080.0,2056.0,2055.0,0,
2050.0,2078.0,2056.0,2057.0,0,
2042.0,2077.0,2053.0,2053.0,0,
2038.0,2075.0,2048.0,2051.0,0,
2042.0,2070.0,2050.0,2049.0,0,
2051.0,2068.0,2050.0,2046.0,0,
2057.0,2074.0,2052.0,2051.0,0,
2060.0,2074.0,2051.0,2052.0,0,
2061.0,2075.0,2049.0,2049.0,0,
2062.0,2067.0,2048.0,2050.0,0,
2063.0,2072.0,2050.0,2050.0,0,
2026.0,2053.0,2018.0,2039.0,0.0,0.0,0.0,
2038.0,2063.0,2030.0,2044.0,0.0,0.0,0.0,
2048.0,2064.0,2041.0,2048.0,0.0,0.0,0.0,
2049.0,2071.0,2043.0,2048.0,0.0,0.0,0.0,
2042.0,2063.0,2041.0,2047.0,0.0,0.0,0.0,
2040.0,2063.0,2042.0,2046.0,0,
2037.0,2063.0,2043.0,2048.0,0,
2037.0,2062.0,2038.0,2047.0,0,
2035.0,2063.0,2045.0,2046.0,0,
2037.0,2058.0,2041.0,2042.0,0,
2033.0,2056.0,2037.0,2043.0,0,
2032.0,2052.0,2034.0,2040.0,0,
2033.0,2054.0,2037.0,2039.0,0,
2010.0,2048.0,2023.0,2033.0,0,
2022.0,2050.0,2031.0,2038.0,0,
2030.0,2055.0,2035.0,2042.0,0,
2041.0,2055.0,2041.0,2042.0,0,
2043.0,2060.0,2034.0,2043.0,0,
2043.0,2062.0,2046.0,2042.0,0,
2051.0,2065.0,2050.0,2044.0,0,
2050.0,2071.0,2050.0,2046.0,0,
2048.0,2065.0,2051.0,2045.0,0,
2045.0,2069.0,2051.0,2046.0,0,
2048.0,2067.0,2050.0,2047.0,0,
2047.0,2069.0,2049.0,2046.0,0,
2053.0,2068.0,2051.0,2046.0,0,
2044.0,2073.0,2033.0,2040.0,0,
2055.0,2077.0,2044.0,2049.0,0,
2062.0,2082.0,2050.0,2049.0,0,
2055.0,2089.0,2053.0,2052.0,0,
2065.0,2091.0,2054.0,2054.0,0,
2069.0,2092.0,2057.0,2047.0,0,
2068.0,2090.0,2057.0,2057.0,0,
2062.0,2093.0,2055.0,2057.0,0,
2068.0,2091.0,2055.0,2058.0,0,
2067.0,2092.0,2051.0,2055.0,0,
2067.0,2092.0,2053.0,2057.0,0,
2066.0,2091.0,2052.0,2055.0,0,
2069.0,2090.0,2051.0,2053.0,0,
2037.0,2080.0,2031.0,2045.0,0.0,0.0,0.0,
2047.0,2083.0,2039.0,2049.0,0.0,0.0,0.0,
2050.0,2081.0,2043.0,2049.0,0,
2054.0,2081.0,2046.0,2047.0,0,
2055.0,2076.0,2045.0,2051.0,0,
2051.0,2078.0,2045.0,2048.0,0,
2052.0,2082.0,2045.0,2048.0,0,
2044.0,2077.0,2046.0,2046.0,0,
2045.0,2072.0,2041.0,2045.0,0,
2042.0,2070.0,2042.0,2044.0,0,
2040.0,2064.0,2041.0,2044.0,0,
2035.0,2066.0,2042.0,2042.0,0,
2037.0,2064.0,2041.0,2040.0,0,
2036.0,2065.0,2043.0,2040.0,0.0,0.0,0.0,
2013.0,2047.0,2023.0,2032.0,0.0,0.0,0.0,
2024.0,2054.0,2033.0,2039.0,0.0,0.0,0.0,
2030.0,2058.0,2042.0,2043.0,0.0,0.0,0.0,
2035.0,2057.0,2044.0,2042.0,0,
2045.0,2057.0,2048.0,2046.0,0,
2037.0,2064.0,2048.0,2045.0,0,
2037.0,2065.0,2051.0,2046.0,0,
2037.0,2064.0,2050.0,2045.0,0,
2036.0,2067.0,2048.0,2047.0,0,
2044.0,2071.0,2050.0,2047.0,0,
2041.0,2068.0,2050.0,2047.0,0,
2041.0,2068.0,2052.0,2048.0,0,
2041.0,2071.0,2051.0,2048.0,0,
2026.0,2064.0,2034.0,2038.0,0,
2036.0,2068.0,2048.0,2041.0,0,
2054.0,2072.0,2051.0,2047.0,0,
2060.0,2074.0,2055.0,2050.0,0,
2070.0,2077.0,2055.0,2050.0,0,
2062.0,2078.0,2057.0,2051.0,0,
2062.0,2083.0,2059.0,2054.0,0,
2064.0,2081.0,2059.0,2053.0,0,
2061.0,2079.0,2054.0,2042.0,0,
2059.0,2078.0,2056.0,2053.0,0,
2051.0,2078.0,2052.0,2053.0,0,
2055.0,2071.0,2054.0,2052.0,0.0,0.0,0.0,
2053.0,2079.0,2055.0,2049.0,0.0,0.0,0.0,
2015.0,2064.0,2029.0,2034.0,0.0,0.0,0.0,
2032.0,2069.0,2042.0,2041.0,0.0,0.0,0.0,
2039.0,2073.0,2049.0,2046.0,0.0,0.0,0.0,
2050.0,2078.0,2047.0,2045.0,0.0,0.0,0.0,
2046.0,2078.0,2053.0,2047.0,0,
2047.0,2079.0,2050.0,2051.0,0,
2048.0,2089.0,2048.0,2046.0,0,
2044.0,2080.0,2052.0,2048.0,0,
2046.0,2079.0,2050.0,2048.0,0,
2051.0,2076.0,2049.0,2048.0,0,
2044.0,2073.0,2046.0,2048.0,0,
2041.0,2072.0,2045.0,2049.0,0,
2042.0,2069.0,2043.0,2047.0,0,
2018.0,2053.0,2022.0,2036.0,0,
2026.0,2056.0,2031.0,2040.0,0,
2033.0,2059.0,2038.0,2043.0,0,
2043.0,2059.0,2043.0,2043.0,0,
2041.0,2058.0,2046.0,2046.0,0,
2043.0,2057.0,2043.0,2040.0,0,
2042.0,2055.0,2045.0,2043.0,0,
2040.0,2056.0,2046.0,2042.0,0,
2042.0,2054.0,2046.0,2038.0,0,
2046.0,2059.0,2047.0,2039.0,0,
2050.0,2060.0,2048.0,2040.0,0,
2062.0,2058.0,2046.0,2038.0,0,
2044.0,2057.0,2045.0,2038.0,0,
2027.0,2052.0,2028.0,2032.0,0,
2041.0,2059.0,2042.0,2041.0,0,
2051.0,2062.0,2045.0,2044.0,0,
2057.0,2067.0,2050.0,2047.0,0,
2058.0,2068.0,2058.0,2048.0,0,
2059.0,2070.0,2054.0,2049.0,0,
2069.0,2070.0,2055.0,2051.0,0,
2062.0,2072.0,2056.0,2047.0,0,
2059.0,2072.0,2053.0,2051.0,0,
2059.0,2072.0,2055.0,2051.0,0,
2059.0,2077.0,2057.0,2049.0,0.0,0.0,0.0,
2064.0,2078.0,2058.0,2052.0,0.0,0.0,0.0,
2059.0,2080.0,2055.0,2053.0,0,
2034.0,2071.0,2037.0,2046.0,0,
2049.0,2079.0,2044.0,2047.0,0,
2055.0,2084.0,2049.0,2051.0,0,
2056.0,2065.0,2053.0,2049.0,0,
2053.0,2082.0,2052.0,2052.0,0,
2050.0,2082.0,2052.0,2049.0,0,
2055.0,2083.0,2053.0,2051.0,0,
2048.0,2076.0,2052.0,2051.0,0,
2048.0,2079.0,2050.0,2049.0,0,
2051.0,2071.0,2046.0,2048.0,0,
2045.0,2075.0,2039.0,2046.0,0.0,0.0,0.0,
2047.0,2074.0,2047.0,2039.0,0.0,0.0,0.0,
2043.0,2074.0,2045.0,2046.0,0.0,0.0,0.0,
2043.0,2069.0,2044.0,2044.0,0.0,0.0,0.0,
2013.0,2042.0,2022.0,2035.0,0,
2026.0,2057.0,2035.0,2042.0,0,
2032.0,2061.0,2037.0,2045.0,0,
2038.0,2053.0,2040.0,2045.0,0,
2040.0,2059.0,2045.0,2046.0,0,
2041.0,2059.0,2045.0,2046.0,0,
2039.0,2057.0,2044.0,2047.0,0,
2037.0,2055.0,2049.0,2047.0,0,
2034.0,2054.0,2041.0,2046.0,0,
2035.0,2052.0,2042.0,2043.0,0,
2032.0,2049.0,2042.0,2041.0,0,
2026.0,2050.0,2040.0,2044.0,0,
2010.0,2041.0,2021.0,2032.0,0,
2024.0,2047.0,2030.0,2034.0,0,
2034.0,2050.0,2041.0,2039.0,0,
2042.0,2054.0,2045.0,2042.0,0,
2044.0,2057.0,2045.0,2043.0,0,
2050.0,2056.0,2047.0,2044.0,0,
2057.0,2060.0,2046.0,2046.0,0,
2055.0,2066.0,2047.0,2047.0,0,
2054.0,2063.0,2048.0,2047.0,0,
2052.0,2067.0,2052.0,2047.0,0.0,0.0,0.0,
2050.0,2065.0,2050.0,2050.0,0.0,0.0,0.0,
2031.0,2065.0,2051.0,2059.0,0.0,0.0,0.0,
2040.0,2069.0,2051.0,2048.0,0.0,0.0,0.0,
2047.0,2066.0,2036.0,2049.0,0,
2022.0,2046.0,2032.0,2040.0,0,
2035.0,2070.0,2043.0,2047.0,0,
2053.0,2074.0,2051.0,2053.0,0,
2058.0,2070.0,2055.0,2052.0,0,
2067.0,2077.0,2057.0,2054.0,0,
2066.0,2077.0,2055.0,2052.0,0,
2069.0,2082.0,2057.0,2053.0,0,
2068.0,2076.0,2054.0,2052.0,0,
2065.0,2075.0,2050.0,2051.0,0,
2068.0,2078.0,2050.0,2054.0,0,
2064.0,2074.0,2047.0,2053.0,0,
2062.0,2074.0,2051.0,2053.0,0,
2037.0,2060.0,2032.0,2046.0,0,
2044.0,2067.0,2040.0,2048.0,0,
2052.0,2069.0,2042.0,2048.0,0,
2060.0,2070.0,2046.0,2051.0,0,
2060.0,2068.0,2048.0,2051.0,0,
2065.0,2067.0,2046.0,2050.0,0,
2054.0,2061.0,2044.0,2049.0,0,
2046.0,2049.0,2041.0,2049.0,0,
2038.0,2059.0,2040.0,2045.0,0,
2042.0,2056.0,2042.0,2045.0,0.0,0.0,0.0,
2041.0,2057.0,2045.0,2043.0,0.0,0.0,0.0,
2046.0,2058.0,2040.0,2043.0,0,
2045.0,2056.0,2040.0,2041.0,0,
2049.0,2060.0,2039.0,2042.0,0,
2016.0,2047.0,2022.0,2034.0,0,
2027.0,2052.0,2030.0,2038.0,0,
2036.0,2058.0,2037.0,2042.0,0,
2043.0,2057.0,2041.0,2042.0,0,
2047.0,2055.0,2043.0,2045.0,0,
2045.0,2057.0,2045.0,2042.0,0,
2046.0,2058.0,2042.0,2041.0,0,
2043.0,2055.0,2041.0,2039.0,0,
2045.0,2062.0,2045.0,2042.0,0,
2052.0,2060.0,2044.0,2045.0,0.0,0.0,0.0,
2059.0,2065.0,2047.0,2043.0,0,
2056.0,2064.0,2049.0,2045.0,0,
2058.0,2071.0,2050.0,2045.0,0,
2040.0,2060.0,2033.0,2037.0,0,
2049.0,2067.0,2042.0,2044.0,0,
2051.0,2069.0,2044.0,2047.0,0,
2055.0,2073.0,2051.0,2050.0,0,
2059.0,2075.0,2055.0,2050.0,0,
2058.0,2075.0,2064.0,2051.0,0,
2065.0,2080.0,2057.0,2054.0,0,
2070.0,2081.0,2056.0,2053.0,0.0,0.0,0.0,
2070.0,2083.0,2058.0,2051.0,0.0,0.0,0.0,
2071.0,2082.0,2056.0,2054.0,0,
2070.0,2084.0,2056.0,2052.0,0,
2074.0,2086.0,2056.0,2053.0,0,
2064.0,2086.0,2056.0,2050.0,0,
2032.0,2067.0,2031.0,2039.0,0,
2047.0,2074.0,2042.0,2043.0,0,
2056.0,2076.0,2047.0,2050.0,0,
2060.0,2077.0,2049.0,2051.0,0,
2056.0,2075.0,2052.0,2049.0,0,
2055.0,2074.0,2051.0,2051.0,0,
2050.0,2074.0,2051.0,2047.0,0,
2049.0,2069.0,2052.0,2049.0,0.0,0.0,0.0,
2046.0,2065.0,2049.0,2047.0,0.0,0.0,0.0,
2049.0,2065.0,2045.0,2047.0,0.0,0.0,0.0,
2047.0,2066.0,2051.0,2046.0,0,
2046.0,2066.0,2046.0,2049.0,0,
2047.0,2066.0,2044.0,2047.0,0,
2022.0,2052.0,2026.0,2036.0,0,
2055.0,2052.0,2035.0,2045.0,0,
2034.0,2063.0,2040.0,2043.0,0,
2040.0,2057.0,2043.0,2040.0,0,
2035.0,2059.0,2044.0,2044.0,0,
2036.0,2055.0,2043.0,2044.0,0,
2036.0,2054.0,2043.0,2044.0,0,
2034.0,2054.0,2044.0,2042.0,0,
2033.0,2060.0,2045.0,2041.0,0,
2028.0,2057.0,2045.0,2040.0,0,
2027.0,2059.0,2045.0,2040.0,0,
2029.0,2053.0,2041.0,2042.0,0,
2034.0,2058.0,2044.0,2040.0,0,
2035.0,2053.0,2044.0,2042.0,0,
2016.0,2056.0,2028.0,2028.0,0,
2033.0,2059.0,2040.0,2039.0,0,
2037.0,2066.0,2049.0,2047.0,0,
2039.0,2068.0,2053.0,2046.0,0,
2038.0,2064.0,2055.0,2040.0,0,
2044.0,2067.0,2058.0,2047.0,0,
2048.0,2071.0,2056.0,2048.0,0.0,0.0,0.0,
2047.0,2077.0,2053.0,2050.0,0.0,0.0,0.0,
2061.0,2076.0,2053.0,2053.0,0.0,0.0,0.0,
2052.0,2077.0,2052.0,2051.0,0.0,0.0,0.0,
2056.0,2080.0,2052.0,2054.0,0,
2062.0,2079.0,2051.0,2053.0,0,
2064.0,2085.0,2051.0,2052.0,0,
2053.0,2088.0,2039.0,2039.0,0,
2061.0,2093.0,2047.0,2041.0,0,
2073.0,2098.0,2053.0,2048.0,0,
2073.0,2098.0,2053.0,2048.0,0,
2069.0,2099.0,2053.0,2049.0,0,
2067.0,2094.0,2053.0,2050.0,0,
2069.0,2092.0,2056.0,2052.0,0,
2069.0,2091.0,2055.0,2050.0,0,
2071.0,2090.0,2053.0,2050.0,0,
2065.0,2090.0,2052.0,2051.0,0,
2056.0,2088.0,2050.0,2053.0,0,
2055.0,2084.0,2047.0,2052.0,0,
2050.0,2081.0,2046.0,2052.0,0,
2016.0,2068.0,2023.0,2039.0,0,
2025.0,2071.0,2034.0,2046.0,0,
2034.0,2072.0,2041.0,2048.0,0,
2036.0,2075.0,2044.0,2050.0,0,
2036.0,2072.0,2044.0,2046.0,0,
2031.0,2071.0,2042.0,2049.0,0.0,0.0,0.0,
2035.0,2072.0,2044.0,2046.0,0.0,0.0,0.0,
2034.0,2070.0,2042.0,2053.0,0,
2039.0,2078.0,2043.0,2044.0,0,
2045.0,2075.0,2046.0,2045.0,0,
2046.0,2070.0,2044.0,2045.0,0,
2040.0,2069.0,2038.0,2045.0,0,
2042.0,2067.0,2042.0,2044.0,0,
2010.0,2058.0,2022.0,2040.0,0,
2023.0,2060.0,2036.0,2044.0,0,
2023.0,2062.0,2043.0,2046.0,0,
2029.0,2063.0,2047.0,2047.0,0,
2030.0,2065.0,2049.0,2049.0,0,
2036.0,2070.0,2051.0,2049.0,0.0,0.0,0.0,
2035.0,2071.0,2050.0,2054.0,0.0,0.0,0.0,
2041.0,2075.0,2054.0,2052.0,0.0,0.0,0.0,
2038.0,2071.0,2053.0,2053.0,0,
2038.0,2073.0,2050.0,2054.0,0,
2040.0,2074.0,2050.0,2052.0,0,
2044.0,2076.0,2050.0,2051.0,0,
2048.0,2073.0,2047.0,2048.0,0,
2044.0,2069.0,2029.0,2038.0,0,
2057.0,2080.0,2044.0,2040.0,0,
2066.0,2078.0,2050.0,2046.0,0,
2074.0,2083.0,2053.0,2050.0,0,
2075.0,2083.0,2057.0,2046.0,0,
2082.0,2107.0,2061.0,2051.0,0,
2076.0,2086.0,2058.0,2051.0,0,
2071.0,2088.0,2056.0,2050.0,0,
2067.0,2080.0,2056.0,2048.0,0,
2069.0,2083.0,2055.0,2050.0,0,
2073.0,2078.0,2055.0,2049.0,0.0,0.0,0.0,
2067.0,2076.0,2057.0,2051.0,0.0,0.0,0.0,
2067.0,2079.0,2052.0,2050.0,0.0,0.0,0.0,
2040.0,2065.0,2032.0,2037.0,0.0,0.0,0.0,
2045.0,2069.0,2041.0,2042.0,0.0,0.0,0.0,
2049.0,2064.0,2048.0,2044.0,0,
2051.0,2067.0,2046.0,2046.0,0,
2051.0,2066.0,2047.0,2043.0,0,
2047.0,2063.0,2047.0,2044.0,0,
2052.0,2065.0,2048.0,2034.0,0,
2044.0,2060.0,2045.0,2042.0,0,
2043.0,2054.0,2045.0,2045.0,0,
2045.0,2054.0,2045.0,2043.0,0,
2036.0,2052.0,2040.0,2042.0,0,
2037.0,2047.0,2042.0,2044.0,0,
2035.0,2051.0,2043.0,2043.0,0,
2035.0,2050.0,2041.0,2043.0,0,
2012.0,2037.0,2021.0,2033.0,0,
2027.0,2041.0,2033.0,2037.0,0,
2038.0,2040.0,2040.0,2041.0,0,
2037.0,2045.0,2044.0,2039.0,0,
2038.0,2048.0,2045.0,2042.0,0,
2042.0,2051.0,2058.0,2044.0,0,
2048.0,2051.0,2048.0,2044.0,0,
2042.0,2054.0,2048.0,2044.0,0,
2042.0,2053.0,2049.0,2044.0,0,
2040.0,2052.0,2048.0,2049.0,0,
2043.0,2058.0,2050.0,2045.0,0,
2049.0,2056.0,2053.0,2047.0,0,
2041.0,2055.0,2036.0,2039.0,0,
2049.0,2058.0,2047.0,2045.0,0,
2060.0,2061.0,2055.0,2049.0,0,
2065.0,2063.0,2053.0,2050.0,0.0,0.0,0.0,
2069.0,2072.0,2059.0,2052.0,0.0,0.0,0.0,
2064.0,2076.0,2057.0,2054.0,0.0,0.0,0.0,
2065.0,2076.0,2061.0,2052.0,0.0,0.0,0.0,
2065.0,2089.0,2057.0,2051.0,0,
2058.0,2069.0,2055.0,2054.0,0,
2060.0,2073.0,2056.0,2052.0,0,
2059.0,2074.0,2067.0,2049.0,0,
2058.0,2073.0,2055.0,2055.0,0,
2060.0,2076.0,2056.0,2051.0,0,
2056.0,2076.0,2056.0,2049.0,0,
2028.0,2065.0,2030.0,2040.0,0,
2041.0,2071.0,2041.0,2045.0,0,
2057.0,2074.0,2048.0,2045.0,0,
2056.0,2079.0,2052.0,2047.0,0,
2055.0,2080.0,2051.0,2045.0,0,
2053.0,2075.0,2053.0,2045.0,0,
2050.0,2070.0,2052.0,2045.0,0,
2053.0,2068.0,2051.0,2044.0,0,
2049.0,2071.0,2047.0,2048.0,0,
2049.0,2073.0,2050.0,2046.0,0,
2043.0,2067.0,2048.0,2047.0,0,
2038.0,2068.0,2048.0,2045.0,0,
2010.0,2053.0,2021.0,2035.0,0,
2018.0,2057.0,2033.0,2041.0,0,
2023.0,2060.0,2039.0,2043.0,0,
2026.0,2064.0,2045.0,2039.0,0.0,0.0,0.0,
2019.0,2062.0,2045.0,2041.0,0.0,0.0,0.0,
2023.0,2067.0,2044.0,2037.0,0.0,0.0,0.0,
2021.0,2059.0,2043.0,2036.0,0.0,0.0,0.0,
2024.0,2058.0,2043.0,2035.0,0,
2025.0,2060.0,2043.0,2035.0,0,
2026.0,2060.0,2040.0,2032.0,0,
2030.0,2060.0,2041.0,2035.0,0,
2036.0,2059.0,2043.0,2037.0,0,
2039.0,2059.0,2041.0,2036.0,0,
2044.0,2060.0,2042.0,2040.0,0,
2027.0,2057.0,2021.0,2034.0,0,
2044.0,2066.0,2041.0,2038.0,0,
2050.0,2067.0,2050.0,2045.0,0,
2078.0,2072.0,2053.0,2049.0,0,
2062.0,2074.0,2053.0,2046.0,0,
2063.0,2077.0,2053.0,2050.0,0,
2069.0,2076.0,2055.0,2051.0,0,
2073.0,2080.0,2054.0,2050.0,0,
2068.0,2078.0,2043.0,2052.0,0,
2068.0,2079.0,2052.0,2053.0,0,
2067.0,2079.0,2059.0,2052.0,0,
2069.0,2087.0,2059.0,2053.0,0,
2064.0,2084.0,2055.0,2057.0,0,
2041.0,2068.0,2034.0,2041.0,0,
2048.0,2074.0,2044.0,2046.0,0.0,0.0,0.0,
2058.0,2078.0,2052.0,2049.0,0.0,0.0,0.0,
2059.0,2079.0,2054.0,2051.0,0.0,0.0,0.0,
2057.0,2079.0,2056.0,2052.0,0.0,0.0,0.0,
2060.0,2084.0,2054.0,2052.0,0,
2064.0,2081.0,2055.0,2054.0,0,
2061.0,2082.0,2056.0,2050.0,0,
2063.0,2082.0,2055.0,2053.0,0,
2060.0,2076.0,2051.0,2053.0,0,
2060.0,2073.0,2052.0,2052.0,0,
2057.0,2070.0,2051.0,2053.0,0,
2055.0,2070.0,2047.0,2051.0,0,
2019.0,2058.0,2019.0,2038.0,0,
2030.0,2061.0,2033.0,2042.0,0,
2040.0,2066.0,2040.0,2046.0,0,
2042.0,2067.0,2038.0,2046.0,0,
2043.0,2067.0,2041.0,2046.0,0,
2043.0,2067.0,2038.0,2045.0,0,
2038.0,2067.0,2045.0,2044.0,0,
2035.0,2066.0,2044.0,2044.0,0,
2038.0,2068.0,2045.0,2045.0,0,
2033.0,2062.0,2043.0,2053.0,0,
2029.0,2061.0,2042.0,2043.0,0,
2032.0,2062.0,2043.0,2043.0,0,
2034.0,2054.0,2042.0,2043.0,0,
2014.0,2051.0,2023.0,2034.0,0.0,0.0,0.0,
2022.0,2058.0,2034.0,2037.0,0.0,0.0,0.0,
2030.0,2053.0,2042.0,2037.0,0.0,0.0,0.0,
2038.0,2059.0,2045.0,2039.0,0.0,0.0,0.0,
2043.0,2064.0,2048.0,2041.0,0,
2046.0,2066.0,2048.0,2041.0,0,
2047.0,2066.0,2053.0,2041.0,0,
2055.0,2070.0,2052.0,2043.0,0,
2061.0,2072.0,2054.0,2045.0,0,
2067.0,2078.0,2053.0,2046.0,0,
2064.0,2075.0,2054.0,2048.0,0,
2059.0,2077.0,2052.0,2047.0,0,
2060.0,2077.0,2051.0,2045.0,0,
2062.0,2080.0,2052.0,2045.0,0,
2031.0,2066.0,2027.0,2040.0,0,
2047.0,2073.0,2042.0,2047.0,0,
2056.0,2078.0,2051.0,2050.0,0,
2063.0,2081.0,2052.0,2050.0,0,
2063.0,2085.0,2059.0,2053.0,0,
2062.0,2076.0,2058.0,2050.0,0,
2063.0,2082.0,2057.0,2051.0,0,
2061.0,2084.0,2056.0,2052.0,0,
2061.0,2083.0,2054.0,2048.0,0,
2056.0,2085.0,2056.0,2048.0,0,
2057.0,2082.0,2055.0,2047.0,0,
2054.0,2080.0,2049.0,2046.0,0,
2024.0,2069.0,2026.0,2037.0,0.0,0.0,0.0,
2031.0,2069.0,2038.0,2044.0,0,
2034.0,2072.0,2043.0,2046.0,0,
2041.0,2068.0,2044.0,2050.0,0,
2041.0,2068.0,2046.0,2049.0,0,
2039.0,2072.0,2053.0,2047.0,0,
2036.0,2067.0,2043.0,2046.0,0,
2043.0,2056.0,2043.0,2046.0,0,
2038.0,2063.0,2044.0,2042.0,0,
2043.0,2062.0,2045.0,2043.0,0,
2052.0,2065.0,2043.0,2043.0,0,
2054.0,2062.0,2046.0,2040.0,0,
2059.0,2061.0,2041.0,2050.0,0,
2055.0,2061.0,2041.0,2041.0,0.0,0.0,0.0,
2032.0,2048.0,2020.0,2029.0,0.0,0.0,0.0,
2034.0,2054.0,2031.0,2033.0,0.0,0.0,0.0,
2038.0,2057.0,2046.0,2037.0,0.0,0.0,0.0,
2043.0,2059.0,2043.0,2035.0,0,
2044.0,2061.0,2047.0,2039.0,0,
2047.0,2061.0,2047.0,2040.0,0,
2047.0,2063.0,2050.0,2039.0,0,
2048.0,2063.0,2048.0,2038.0,0,
2052.0,2064.0,2049.0,2043.0,0,
2057.0,2065.0,2051.0,2027.0,0,
2052.0,2064.0,2049.0,2044.0,0,
2052.0,2070.0,2050.0,2046.0,0,
2051.0,2068.0,2048.0,2048.0,0,
2032.0,2061.0,2031.0,2045.0,0,
2038.0,2062.0,2043.0,2047.0,0,
2048.0,2065.0,2043.0,2050.0,0,
2053.0,2066.0,2052.0,2049.0,0,
2063.0,2073.0,2053.0,2047.0,0,
2074.0,2075.0,2054.0,2050.0,0,
2079.0,2079.0,2055.0,2057.0,0,
2079.0,2076.0,2057.0,2056.0,0,
2075.0,2078.0,2056.0,2058.0,0,
2068.0,2081.0,2056.0,2057.0,0,
2067.0,2076.0,2058.0,2056.0,0,
2067.0,2073.0,2055.0,2055.0,0.0,0.0,0.0,
2066.0,2078.0,2055.0,2050.0,0.0,0.0,0.0,
2039.0,2066.0,2029.0,2037.0,0,
2055.0,2071.0,2043.0,2044.0,0,
2068.0,2076.0,2047.0,2045.0,0,
2068.0,2082.0,2048.0,2050.0,0,
2068.0,2079.0,2051.0,2050.0,0,
2073.0,2078.0,2048.0,2049.0,0,
2083.0,2081.0,2050.0,2050.0,0,
2076.0,2073.0,2046.0,2045.0,0,
2074.0,2075.0,2048.0,2044.0,0,
2075.0,2076.0,2046.0,2041.0,0,
2072.0,2072.0,2044.0,2044.0,0,
2066.0,2070.0,2047.0,2052.0,0.0,0.0,0.0,
2067.0,2068.0,2047.0,2039.0,0.0,0.0,0.0,
2024.0,2053.0,2024.0,2034.0,0.0,0.0,0.0,
2036.0,2052.0,2031.0,2039.0,0.0,0.0,0.0,
2038.0,2053.0,2037.0,2040.0,0,
2038.0,2055.0,2040.0,2044.0,0,
2039.0,2059.0,2042.0,2042.0,0,
2041.0,2057.0,2040.0,2040.0,0,
2043.0,2057.0,2044.0,2040.0,0,
2035.0,2053.0,2043.0,2039.0,0,
2032.0,2053.0,2044.0,2039.0,0,
2036.0,2050.0,2045.0,2042.0,0,
2036.0,2055.0,2048.0,2042.0,0,
2041.0,2054.0,2046.0,2041.0,0,
2053.0,2052.0,2046.0,2043.0,0,
2028.0,2052.0,2030.0,2036.0,0,
2040.0,2054.0,2039.0,2039.0,0,
2048.0,2057.0,2045.0,2045.0,0,
2058.0,2058.0,2050.0,2047.0,0,
2062.0,2064.0,2051.0,2047.0,0,
2037.0,2064.0,2053.0,2045.0,0,
2057.0,2065.0,2053.0,2049.0,0,
2060.0,2069.0,2055.0,2052.0,0,
2065.0,2068.0,2057.0,2049.0,0,
2064.0,2070.0,2058.0,2051.0,0,
2063.0,2073.0,2058.0,2050.0,0.0,0.0,0.0,
2057.0,2072.0,2054.0,2048.0,0.0,0.0,0.0,
2061.0,2071.0,2054.0,2050.0,0.0,0.0,0.0,
2035.0,2061.0,2035.0,2041.0,0.0,0.0,0.0,
2044.0,2066.0,2043.0,2047.0,0,
2050.0,2071.0,2048.0,2049.0,0,
2050.0,2073.0,2053.0,2052.0,0,
2051.0,2073.0,2054.0,2054.0,0,
2059.0,2079.0,2055.0,2055.0,0,
2061.0,2077.0,2057.0,2053.0,0,
2062.0,2078.0,2056.0,2054.0,0,
2061.0,2077.0,2056.0,2055.0,0,
2057.0,2075.0,2051.0,2053.0,0,
2044.0,2074.0,2053.0,2053.0,0,
2050.0,2079.0,2054.0,2054.0,0,
2047.0,2074.0,2051.0,2054.0,0,
2047.0,2069.0,2048.0,2055.0,0,
2023.0,2057.0,2024.0,2035.0,0,
2028.0,2060.0,2033.0,2041.0,0,
2039.0,2055.0,2036.0,2040.0,0,
2048.0,2057.0,2037.0,2043.0,0,
2050.0,2052.0,2040.0,2044.0,0,
2045.0,2052.0,2041.0,2044.0,0,
2047.0,2052.0,2041.0,2045.0,0,
2045.0,2053.0,2044.0,2046.0,0,
2049.0,2053.0,2043.0,2047.0,0,
2045.0,2053.0,2041.0,2049.0,0.0,0.0,0.0,
2045.0,2054.0,2045.0,2049.0,0.0,0.0,0.0,
2044.0,2055.0,2042.0,2052.0,0,
2021.0,2048.0,2027.0,2043.0,0,
2035.0,2057.0,2035.0,2050.0,0,
2047.0,2057.0,2042.0,2052.0,0,
2048.0,2054.0,2044.0,2051.0,0,
2054.0,2058.0,2051.0,2052.0,0,
2051.0,2057.0,2053.0,2051.0,0,
2049.0,2064.0,2054.0,2052.0,0,
2053.0,2063.0,2054.0,2052.0,0,
2050.0,2065.0,2052.0,2051.0,0,
2056.0,2070.0,2056.0,2051.0,0.0,0.0,0.0,
2056.0,2065.0,2055.0,2050.0,0.0,0.0,0.0,
2057.0,2067.0,2056.0,2050.0,0.0,0.0,0.0,
2057.0,2072.0,2059.0,2051.0,0.0,0.0,0.0,
2070.0,2071.0,2054.0,2051.0,0,
2031.0,2066.0,2034.0,2042.0,0,
2043.0,2070.0,2048.0,2046.0,0,
2053.0,2072.0,2054.0,2052.0,0,
2061.0,2077.0,2055.0,2053.0,0,
2064.0,2078.0,2057.0,2052.0,0,
2070.0,2080.0,2056.0,2056.0,0,
2070.0,2085.0,2054.0,2055.0,0,
2078.0,2083.0,2058.0,2055.0,0,
2065.0,2084.0,2059.0,2054.0,0,
2063.0,2082.0,2058.0,2057.0,0,
2036.0,2078.0,2055.0,2055.0,0,
2058.0,2077.0,2055.0,2053.0,0,
2055.0,2079.0,2051.0,2055.0,0,
2036.0,2068.0,2032.0,2042.0,0,
2046.0,2072.0,2038.0,2049.0,0,
2050.0,2076.0,2046.0,2047.0,0,
2052.0,2073.0,2050.0,2049.0,0,
2052.0,2069.0,2047.0,2046.0,0,
2048.0,2066.0,2045.0,2046.0,0,
2046.0,2067.0,2044.0,2045.0,0,
2048.0,2066.0,2046.0,2046.0,0,
2042.0,2061.0,2045.0,2043.0,0.0,0.0,0.0,
2041.0,2061.0,2047.0,2042.0,0.0,0.0,0.0,
2037.0,2060.0,2046.0,2043.0,0.0,0.0,0.0,
2041.0,2058.0,2045.0,2045.0,0.0,0.0,0.0,
2040.0,2055.0,2048.0,2044.0,0,
2009.0,2042.0,2024.0,2035.0,0,
2019.0,2047.0,2036.0,2037.0,0,
2034.0,2048.0,2042.0,2057.0,0,
2031.0,2046.0,2044.0,2041.0,0,
2029.0,2050.0,2050.0,2041.0,0,
2028.0,2050.0,2049.0,2040.0,0,
2025.0,2052.0,2049.0,2038.0,0,
2026.0,2051.0,2047.0,2039.0,0,
2025.0,2049.0,2046.0,2038.0,0,
2025.0,2050.0,2045.0,2036.0,0,
2027.0,2053.0,2048.0,2040.0,0,
2033.0,2052.0,2049.0,2040.0,0,
2032.0,2058.0,2051.0,2041.0,0,
2021.0,2060.0,2031.0,2034.0,0,
2035.0,2062.0,2042.0,2039.0,0,
2041.0,2068.0,2048.0,2043.0,0,
2044.0,2070.0,2050.0,2046.0,0,
2047.0,2071.0,2053.0,2044.0,0,
2052.0,2073.0,2052.0,2047.0,0,
2041.0,2079.0,2054.0,2049.0,0,
2055.0,2079.0,2051.0,2048.0,0.0,0.0,0.0,
2050.0,2082.0,2051.0,2048.0,0.0,0.0,0.0,
2056.0,2080.0,2046.0,2048.0,0,
2064.0,2086.0,2050.0,2048.0,0,
2074.0,2092.0,2051.0,2050.0,0,
2082.0,2091.0,2058.0,2051.0,0,
2035.0,2088.0,2030.0,2040.0,0,
2051.0,2087.0,2041.0,2044.0,0,
2056.0,2092.0,2047.0,2051.0,0,
2054.0,2087.0,2050.0,2051.0,0,
2053.0,2090.0,2051.0,2047.0,0,
2056.0,2083.0,2052.0,2050.0,0,
2054.0,2085.0,2065.0,2049.0,0,
2056.0,2082.0,2049.0,2048.0,0.0,0.0,0.0,
2054.0,2076.0,2046.0,2049.0,0,
2048.0,2074.0,2044.0,2046.0,0,
2047.0,2074.0,2046.0,2047.0,0,
2038.0,2071.0,2043.0,2046.0,0,
2044.0,2068.0,2045.0,2044.0,0,
2016.0,2053.0,2019.0,2030.0,0,
2023.0,2058.0,2027.0,2036.0,0,
2032.0,2062.0,2035.0,2025.0,0,
2038.0,2068.0,2039.0,2038.0,0,
2044.0,2065.0,2035.0,2040.0,0,
2042.0,2067.0,2038.0,2039.0,0,
2040.0,2063.0,2038.0,2039.0,0,
2042.0,2064.0,2039.0,2041.0,0.0,0.0,0.0,
2058.0,2065.0,2041.0,2037.0,0.0,0.0,0.0,
2041.0,2064.0,2043.0,2041.0,0.0,0.0,0.0,
2043.0,2064.0,2041.0,2042.0,0.0,0.0,0.0,
2040.0,2059.0,2042.0,2040.0,0.0,0.0,0.0,
2041.0,2061.0,2038.0,2042.0,0.0,0.0,0.0,
2038.0,2063.0,2045.0,2041.0,0,
2020.0,2056.0,2022.0,2033.0,0,
2033.0,2059.0,2041.0,2039.0,0,
2040.0,2067.0,2044.0,2040.0,0,
2052.0,2071.0,2049.0,2044.0,0,
2047.0,2069.0,2049.0,2046.0,0,
2054.0,2077.0,2052.0,2048.0,0,
2060.0,2078.0,2053.0,2047.0,0,
2058.0,2085.0,2050.0,2051.0,0,
2056.0,2082.0,2052.0,2053.0,0,
2056.0,2083.0,2053.0,2052.0,0,
2051.0,2081.0,2053.0,2050.0,0,
2059.0,2083.0,2054.0,2051.0,0,
2035.0,2071.0,2033.0,2039.0,0,
2047.0,2079.0,2044.0,2050.0,0,
2060.0,2082.0,2048.0,2050.0,0,
2063.0,2081.0,2049.0,2050.0,0,
2066.0,2080.0,2052.0,2047.0,0,
2063.0,2081.0,2054.0,2049.0,0,
2070.0,2080.0,2055.0,2051.0,0,
2068.0,2078.0,2055.0,2055.0,0,
2071.0,2080.0,2053.0,2055.0,0,
2068.0,2074.0,2052.0,2057.0,0,
2063.0,2076.0,2054.0,2057.0,0,
2059.0,2069.0,2052.0,2055.0,0,
2057.0,2068.0,2050.0,2053.0,0,
2054.0,2067.0,2050.0,2048.0,0,
2027.0,2052.0,2020.0,2039.0,0,
2028.0,2058.0,2032.0,2041.0,0,
2035.0,2060.0,2037.0,2041.0,0,
2039.0,2059.0,2042.0,2043.0,0,
2042.0,2061.0,2055.0,2042.0,0,
2046.0,2057.0,2045.0,2041.0,0.0,0.0,0.0,
2045.0,2058.0,2043.0,2042.0,0.0,0.0,0.0,
2047.0,2063.0,2047.0,2043.0,0,
2048.0,2064.0,2045.0,2043.0,0,
2044.0,2062.0,2047.0,2041.0,0,
2047.0,2063.0,2046.0,2040.0,0,
2047.0,2061.0,2046.0,2039.0,0,
2016.0,2045.0,2023.0,2033.0,0,
2028.0,2054.0,2036.0,2038.0,0,
2036.0,2054.0,2044.0,2041.0,0,
2040.0,2058.0,2046.0,2044.0,0,
2045.0,2059.0,2044.0,2045.0,0,
2047.0,2056.0,2047.0,2043.0,0,
2049.0,2059.0,2050.0,2045.0,0.0,0.0,0.0,
2052.0,2063.0,2051.0,2045.0,0.0,0.0,0.0,
2059.0,2070.0,2051.0,2047.0,0.0,0.0,0.0,
2058.0,2068.0,2053.0,2046.0,0.0,0.0,0.0,
2057.0,2068.0,2055.0,2046.0,0,
2059.0,2072.0,2053.0,2050.0,0,
2060.0,2070.0,2055.0,2049.0,0,
2058.0,2072.0,2053.0,2050.0,0,
2029.0,2061.0,2028.0,2042.0,0,
2042.0,2067.0,2044.0,2048.0,0,
2051.0,2072.0,2048.0,2051.0,0,
2053.0,2070.0,2043.0,2053.0,0,
2055.0,2071.0,2049.0,2054.0,0,
2060.0,2079.0,2054.0,2054.0,0,
2066.0,2081.0,2056.0,2055.0,0,
2065.0,2084.0,2058.0,2054.0,0,
2061.0,2081.0,2058.0,2055.0,0,
2061.0,2082.0,2058.0,2054.0,0,
2059.0,2077.0,2058.0,2052.0,0,
2061.0,2083.0,2054.0,2052.0,0,
2064.0,2082.0,2051.0,2056.0,0,
2044.0,2063.0,2029.0,2042.0,0,
2054.0,2067.0,2038.0,2050.0,0,
2057.0,2075.0,2044.0,2049.0,0,
2060.0,2073.0,2042.0,2050.0,0,
2065.0,2073.0,2048.0,2051.0,0.0,0.0,0.0,
2069.0,2071.0,2044.0,2049.0,0.0,0.0,0.0,
2070.0,2070.0,2046.0,2049.0,0,
2061.0,2066.0,2045.0,2048.0,0,
2060.0,2064.0,2044.0,2046.0,0,
2045.0,2063.0,2046.0,2047.0,0,
2049.0,2065.0,2043.0,2045.0,0,
2042.0,2061.0,2042.0,2046.0,0,
2044.0,2060.0,2041.0,2044.0,0,
2021.0,2044.0,2019.0,2035.0,0,
2036.0,2048.0,2031.0,2041.0,0,
2043.0,2054.0,2038.0,2046.0,0,
2046.0,2055.0,2044.0,2050.0,0,
2046.0,2055.0,2045.0,2053.0,0.0,0.0,0.0,
2047.0,2048.0,2046.0,2049.0,0.0,0.0,0.0,
2046.0,2053.0,2045.0,2051.0,0.0,0.0,0.0,
2045.0,2051.0,2045.0,2051.0,0.0,0.0,0.0,
2049.0,2054.0,2047.0,2051.0,0,
2045.0,2055.0,2048.0,2052.0,0,
2051.0,2056.0,2051.0,2053.0,0,
2043.0,2052.0,2048.0,2053.0,0,
2046.0,2061.0,2049.0,2051.0,0,
2039.0,2060.0,2031.0,2042.0,0,
2051.0,2063.0,2044.0,2043.0,0,
2059.0,2068.0,2050.0,2052.0,0,
2063.0,2072.0,2054.0,2054.0,0,
2070.0,2068.0,2054.0,2051.0,0,
2063.0,2072.0,2058.0,2057.0,0,
2064.0,2073.0,2054.0,2055.0,0,
2067.0,2077.0,2054.0,2057.0,0,
2066.0,2074.0,2054.0,2053.0,0,
2070.0,2075.0,2054.0,2051.0,0,
2074.0,2073.0,2054.0,2051.0,0,
2072.0,2076.0,2052.0,2052.0,0,
2074.0,2078.0,2056.0,2053.0,0,
2068.0,2080.0,2055.0,2053.0,0,
2042.0,2067.0,2032.0,2035.0,0,
2048.0,2069.0,2039.0,2045.0,0,
2059.0,2075.0,2049.0,2048.0,0.0,0.0,0.0,
2058.0,2075.0,2051.0,2047.0,0.0,0.0,0.0,
2059.0,2074.0,2051.0,2049.0,0.0,0.0,0.0,
2052.0,2075.0,2058.0,2048.0,0.0,0.0,0.0,
2053.0,2073.0,2045.0,2047.0,0,
2055.0,2070.0,2044.0,2048.0,0,
2056.0,2072.0,2043.0,2046.0,0,
2055.0,2068.0,2044.0,2047.0,0,
2053.0,2070.0,2045.0,2048.0,0,
2048.0,2070.0,2039.0,2045.0,0,
2026.0,2055.0,2022.0,2035.0,0,
2034.0,2059.0,2035.0,2038.0,0,
2042.0,2062.0,2037.0,2041.0,0,
2044.0,2057.0,2041.0,2043.0,0,
2046.0,2061.0,2042.0,2043.0,0,
2052.0,2063.0,2042.0,2043.0,0,
2049.0,2060.0,2044.0,2042.0,0,
2051.0,2059.0,2038.0,2044.0,0,
2050.0,2060.0,2041.0,2046.0,0,
2047.0,2058.0,2043.0,2045.0,0,
2043.0,2060.0,2040.0,2046.0,0,
2046.0,2065.0,2042.0,2045.0,0,
2043.0,2062.0,2045.0,2042.0,0,
2046.0,2062.0,2047.0,2042.0,0,
2020.0,2048.0,2028.0,2032.0,0,
2037.0,2057.0,2041.0,2037.0,0,
2051.0,2065.0,2049.0,2044.0,0.0,0.0,0.0,
2049.0,2066.0,2050.0,2048.0,0.0,0.0,0.0,
2053.0,2063.0,2054.0,2050.0,0,
2052.0,2069.0,2056.0,2049.0,0,
2053.0,2069.0,2056.0,2051.0,0,
2056.0,2070.0,2058.0,2037.0,0,
2055.0,2072.0,2056.0,2054.0,0,
2052.0,2077.0,2056.0,2055.0,0,
2054.0,2072.0,2056.0,2057.0,0,
2053.0,2072.0,2057.0,2055.0,0,
2031.0,2072.0,2037.0,2049.0,0,
2043.0,2076.0,2046.0,2052.0,0,
2050.0,2084.0,2052.0,2053.0,0.0,0.0,0.0,
2060.0,2087.0,2057.0,2058.0,0.0,0.0,0.0,
2069.0,2090.0,2057.0,2059.0,0.0,0.0,0.0,
2068.0,2092.0,2056.0,2059.0,0.0,0.0,0.0,
2065.0,2084.0,2059.0,2061.0,0,
2064.0,2085.0,2046.0,2059.0,0,
2062.0,2083.0,2053.0,2056.0,0,
2059.0,2082.0,2052.0,2054.0,0,
2058.0,2083.0,2049.0,2057.0,0,
2054.0,2085.0,2049.0,2055.0,0,
2052.0,2079.0,2050.0,2052.0,0,
2045.0,2077.0,2049.0,2052.0,0,
2016.0,2059.0,2027.0,2040.0,0,
2028.0,2062.0,2033.0,2047.0,0,
2034.0,2069.0,2041.0,2053.0,0,
2040.0,2070.0,2047.0,2051.0,0,
2038.0,2047.0,2045.0,2049.0,0,
2027.0,2063.0,2043.0,2047.0,0,
2029.0,2063.0,2037.0,2048.0,0,
2031.0,2060.0,2042.0,2047.0,0,
2030.0,2062.0,2045.0,2044.0,0,
2028.0,2061.0,2044.0,2046.0,0,
2028.0,2056.0,2025.0,2045.0,0,
2022.0,2058.0,2044.0,2046.0,0,
2023.0,2055.0,2040.0,2042.0,0,
2004.0,2046.0,2020.0,2038.0,0,
2018.0,2048.0,2029.0,2039.0,0.0,0.0,0.0,
2029.0,2055.0,2035.0,2043.0,0,
2035.0,2058.0,2039.0,2044.0,0,
2044.0,2064.0,2044.0,2043.0,0,
2050.0,2065.0,2045.0,2043.0,0,
2054.0,2068.0,2046.0,2044.0,0,
2062.0,2071.0,2048.0,2044.0,0,
2065.0,2071.0,2051.0,2046.0,0,
2064.0,2073.0,2051.0,2045.0,0,
2067.0,2072.0,2053.0,2047.0,0,
2063.0,2077.0,2050.0,2045.0,0,
2061.0,2073.0,2052.0,2044.0,0,
2058.0,2075.0,2050.0,2045.0,0,
2037.0,2069.0,2036.0,2037.0,0.0,0.0,0.0,
2053.0,2079.0,2045.0,2040.0,0.0,0.0,0.0,
2057.0,2076.0,2051.0,2044.0,0.0,0.0,0.0,
2063.0,2084.0,2055.0,2045.0,0.0,0.0,0.0,
2059.0,2080.0,2050.0,2047.0,0,
2058.0,2080.0,2052.0,2047.0,0,
2060.0,2084.0,2055.0,2047.0,0,
2067.0,2086.0,2055.0,2044.0,0,
2070.0,2086.0,2053.0,2047.0,0,
2073.0,2090.0,2052.0,2048.0,0,
2077.0,2086.0,2053.0,2050.0,0,
2072.0,2085.0,2050.0,2048.0,0,
2046.0,2071.0,2026.0,2038.0,0,
2053.0,2074.0,2035.0,2042.0,0,
2059.0,2076.0,2041.0,2043.0,0,
2061.0,2073.0,2042.0,2045.0,0,
2061.0,2070.0,2043.0,2045.0,0,
2061.0,2072.0,2043.0,2047.0,0,
2063.0,2074.0,2046.0,2041.0,0,
2055.0,2071.0,2043.0,2045.0,0,
2046.0,2064.0,2043.0,2043.0,0,
2043.0,2065.0,2042.0,2044.0,0,
2040.0,2061.0,2042.0,2044.0,0,
2044.0,2067.0,2042.0,2044.0,0,
2047.0,2059.0,2041.0,2040.0,0,
2038.0,2059.0,2039.0,2041.0,0.0,0.0,0.0,
2011.0,2050.0,2022.0,2032.0,0.0,0.0,0.0,
2020.0,2052.0,2034.0,2036.0,0.0,0.0,0.0,
2027.0,2054.0,2039.0,2038.0,0.0,0.0,0.0,
2032.0,2058.0,2042.0,2038.0,0,
2032.0,2055.0,2043.0,2042.0,0,
2030.0,2057.0,2044.0,2041.0,0,
2033.0,2059.0,2047.0,2042.0,0,
2036.0,2057.0,2040.0,2044.0,0,
2035.0,2055.0,2042.0,2041.0,0,
2033.0,2059.0,2045.0,2045.0,0,
2032.0,2060.0,2047.0,2043.0,0,
2036.0,2057.0,2047.0,2044.0,0,
2033.0,2061.0,2049.0,2044.0,0,
2032.0,2066.0,2046.0,2042.0,0,
2021.0,2058.0,2030.0,2034.0,0,
2036.0,2063.0,2044.0,2045.0,0,
2048.0,2067.0,2050.0,2049.0,0,
2056.0,2069.0,2054.0,2049.0,0,
2061.0,2074.0,2056.0,2051.0,0,
2065.0,2077.0,2061.0,2052.0,0,
2065.0,2080.0,2064.0,2051.0,0,
2063.0,2079.0,2060.0,2050.0,0,
2058.0,2073.0,2058.0,2051.0,0,
2059.0,2079.0,2056.0,2053.0,0,
2057.0,2078.0,2058.0,2051.0,0,
2054.0,2079.0,2057.0,2054.0,0.0,0.0,0.0,
2029.0,2065.0,2035.0,2039.0,0.0,0.0,0.0,
2038.0,2066.0,2041.0,2047.0,0.0,0.0,0.0,
2052.0,2071.0,2047.0,2047.0,0.0,0.0,0.0,
2060.0,2072.0,2051.0,2050.0,0,
2063.0,2077.0,2051.0,2051.0,0,
2066.0,2074.0,2048.0,2048.0,0,
2061.0,2071.0,2044.0,2047.0,0,
2060.0,2069.0,2043.0,2043.0,0,
2058.0,2071.0,2049.0,2042.0,0,
2054.0,2066.0,2042.0,2056.0,0,
2054.0,2065.0,2043.0,2039.0,0,
2051.0,2064.0,2043.0,2039.0,0,
2053.0,2063.0,2044.0,2041.0,0,
2056.0,2063.0,2041.0,2051.0,0,
2025.0,2046.0,2021.0,2030.0,0,
2036.0,2056.0,2032.0,2031.0,0,
2047.0,2053.0,2039.0,2041.0,0,
2046.0,2054.0,2043.0,2038.0,0,
2046.0,2050.0,2045.0,2039.0,0,
2047.0,2053.0,2043.0,2041.0,0,
2047.0,2054.0,2044.0,2045.0,0,
2046.0,2054.0,2044.0,2040.0,0,
2045.0,2055.0,2040.0,2041.0,0,
2033.0,2054.0,2041.0,2038.0,0,
2035.0,2056.0,2045.0,2040.0,0.0,0.0,0.0,
2043.0,2055.0,2025.0,2043.0,0.0,0.0,0.0,
2043.0,2055.0,2044.0,2041.0,0,
2022.0,2053.0,2031.0,2034.0,0,
2029.0,2055.0,2037.0,2041.0,0,
2040.0,2058.0,2044.0,2045.0,0,
2046.0,2070.0,2050.0,2048.0,0,
2050.0,2067.0,2049.0,2048.0,0,
2054.0,2066.0,2052.0,2051.0,0,
2049.0,2068.0,2053.0,2047.0,0,
2047.0,2067.0,2057.0,2050.0,0,
2049.0,2073.0,2052.0,2052.0,0,
2049.0,2075.0,2053.0,2049.0,0,
2050.0,2074.0,2053.0,2049.0,0.0,0.0,0.0,
2048.0,2078.0,2054.0,2048.0,0.0,0.0,0.0,
2055.0,2079.0,2056.0,2052.0,0.0,0.0,0.0,
2034.0,2073.0,2033.0,2045.0,0.0,0.0,0.0,
2040.0,2075.0,2042.0,2049.0,0,
2047.0,2080.0,2051.0,2051.0,0,
2044.0,2084.0,2054.0,2050.0,0,
2053.0,2084.0,2053.0,2055.0,0,
2050.0,2083.0,2056.0,2053.0,0,
2047.0,2084.0,2051.0,2053.0,0,
2052.0,2083.0,2049.0,2051.0,0,
2048.0,2082.0,2052.0,2052.0,0,
2045.0,2081.0,2049.0,2051.0,0,
2038.0,2080.0,2048.0,2053.0,0,
2036.0,2077.0,2048.0,2051.0,0,
2036.0,2075.0,2049.0,2046.0,0,
2028.0,2069.0,2030.0,2041.0,0,
2039.0,2076.0,2037.0,2048.0,0,
2041.0,2074.0,2044.0,2050.0,0,
2042.0,2071.0,2046.0,2048.0,0,
2040.0,2072.0,2046.0,2049.0,0,
2041.0,2078.0,2047.0,2050.0,0,
2042.0,2075.0,2043.0,2046.0,0,
2041.0,2070.0,2046.0,2048.0,0,
2042.0,2068.0,2044.0,2047.0,0,
2051.0,2069.0,2045.0,2047.0,0.0,0.0,0.0,
2043.0,2066.0,2045.0,2046.0,0.0,0.0,0.0,
2038.0,2070.0,2042.0,2047.0,0.0,0.0,0.0,
2032.0,2066.0,2041.0,2045.0,0.0,0.0,0.0,
2035.0,2065.0,2039.0,2044.0,0,
2008.0,2051.0,2021.0,2028.0,0,
2022.0,2057.0,2035.0,2034.0,0,
2031.0,2062.0,2043.0,2036.0,0,
2039.0,2063.0,2044.0,2044.0,0,
2041.0,2065.0,2047.0,2045.0,0,
2043.0,2071.0,2051.0,2044.0,0,
2047.0,2072.0,2054.0,2047.0,0,
2054.0,2079.0,2055.0,2050.0,0,
2059.0,2078.0,2056.0,2048.0,0,
2059.0,2083.0,2056.0,2051.0,0,
2055.0,2077.0,2053.0,2052.0,0,
2059.0,2081.0,2052.0,2054.0,0,
2034.0,2073.0,2032.0,2044.0,0,
2047.0,2076.0,2046.0,2048.0,0,
2055.0,2079.0,2050.0,2051.0,0,
2061.0,2079.0,2053.0,2050.0,0,
2062.0,2081.0,2053.0,2052.0,0,
2057.0,2082.0,2056.0,2051.0,0,
2057.0,2084.0,2055.0,2055.0,0,
2060.0,2088.0,2054.0,2054.0,0,
2058.0,2084.0,2054.0,2055.0,0.0,0.0,0.0,
2057.0,2084.0,2053.0,2057.0,0.0,0.0,0.0,
2051.0,2084.0,2054.0,2053.0,0,
2053.0,2086.0,2051.0,2053.0,0,
2057.0,2082.0,2050.0,2053.0,0,
2056.0,2083.0,2047.0,2053.0,0,
2023.0,2068.0,2026.0,2043.0,0,
2036.0,2066.0,2033.0,2047.0,0,
2045.0,2072.0,2042.0,2049.0,0,
2047.0,2067.0,2044.0,2050.0,0,
2049.0,2070.0,2047.0,2048.0,0,
2042.0,2070.0,2047.0,2050.0,0,
2045.0,2068.0,2043.0,2049.0,0,
2045.0,2065.0,2044.0,2047.0,0.0,0.0,0.0,
2043.0,2064.0,2042.0,2048.0,0.0,0.0,0.0,
2041.0,2063.0,2045.0,2046.0,0.0,0.0,0.0,
2035.0,2063.0,2041.0,2049.0,0,
2040.0,2061.0,2043.0,2044.0,0,
2040.0,2061.0,2041.0,2045.0,0,
2016.0,2052.0,2028.0,2035.0,0,
2042.0,2054.0,2034.0,2038.0,0,
2031.0,2052.0,2041.0,2040.0,0,
2033.0,2053.0,2043.0,2044.0,0,
2029.0,2052.0,2041.0,2042.0,0,
2030.0,2051.0,2042.0,2044.0,0,
2035.0,2056.0,2045.0,2043.0,0,
2039.0,2057.0,2046.0,2044.0,0,
2040.0,2058.0,2050.0,2044.0,0,
2034.0,2055.0,2048.0,2048.0,0,
2044.0,2054.0,2047.0,2046.0,0,
2049.0,2059.0,2049.0,2042.0,0,
2055.0,2064.0,2049.0,2047.0,0,
2036.0,2064.0,2027.0,2033.0,0,
2055.0,2071.0,2043.0,2039.0,0,
2058.0,2074.0,2052.0,2043.0,0,
2057.0,2081.0,2056.0,2043.0,0,
2061.0,2075.0,2055.0,2049.0,0,
2063.0,2077.0,2057.0,2048.0,0,
2069.0,2057.0,2059.0,2049.0,0,
2066.0,2080.0,2054.0,2050.0,0.0,0.0,0.0,
2070.0,2075.0,2058.0,2051.0,0.0,0.0,0.0,
2067.0,2075.0,2058.0,2050.0,0,
2065.0,2075.0,2070.0,2050.0,0,
2066.0,2073.0,2053.0,2049.0,0,
2067.0,2072.0,2053.0,2050.0,0,
2042.0,2063.0,2035.0,2041.0,0,
2053.0,2071.0,2045.0,2045.0,0,
2061.0,2070.0,2048.0,2049.0,0,
2062.0,2068.0,2052.0,2049.0,0,
2062.0,2071.0,2053.0,2052.0,0,
2057.0,2069.0,2051.0,2050.0,0,
2058.0,2067.0,2050.0,2048.0,0,
2057.0,2064.0,2049.0,2052.0,0.0,0.0,0.0,
2052.0,2062.0,2050.0,2052.0,0.0,0.0,0.0,
2052.0,2063.0,2049.0,2044.0,0.0,0.0,0.0,
2047.0,2061.0,2045.0,2044.0,0.0,0.0,0.0,
2045.0,2055.0,2043.0,2045.0,0,
2043.0,2056.0,2039.0,2042.0,0,
2033.0,2051.0,2043.0,2043.0,0,
2010.0,2044.0,2018.0,2034.0,0,
2027.0,2046.0,2032.0,2036.0,0,
2033.0,2047.0,2039.0,2043.0,0,
2037.0,2051.0,2042.0,2043.0,0,
2037.0,2050.0,2044.0,2045.0,0,
2036.0,2046.0,2042.0,2046.0,0,
2034.0,2044.0,2038.0,2043.0,0,
2027.0,2041.0,2039.0,2044.0,0,
2024.0,2046.0,2038.0,2043.0,0,
2029.0,2050.0,2040.0,2043.0,0,
2028.0,2046.0,2040.0,2040.0,0,
2032.0,2048.0,2038.0,2043.0,0,
2027.0,2047.0,2024.0,2036.0,0,
2038.0,2050.0,2047.0,2042.0,0,
2051.0,2053.0,2041.0,2042.0,0,
2059.0,2061.0,2033.0,2046.0,0,
2068.0,2066.0,2050.0,2049.0,0,
2068.0,2065.0,2052.0,2050.0,0,
2075.0,2066.0,2054.0,2052.0,0.0,0.0,0.0,
2080.0,2072.0,2054.0,2052.0,0.0,0.0,0.0,
2076.0,2073.0,2055.0,2052.0,0.0,0.0,0.0,
2082.0,2072.0,2050.0,2052.0,0.0,0.0,0.0,
2080.0,2075.0,2052.0,2050.0,0,
2080.0,2074.0,2053.0,2048.0,0,
2077.0,2072.0,2051.0,2050.0,0,
2080.0,2080.0,2051.0,2050.0,0,
2058.0,2078.0,2035.0,2035.0,0,
2072.0,2086.0,2046.0,2042.0,0,
2078.0,2087.0,2053.0,2045.0,0,
2078.0,2094.0,2051.0,2047.0,0,
2080.0,2090.0,2056.0,2048.0,0,
2084.0,2094.0,2056.0,2053.0,0,
2080.0,2095.0,2055.0,2050.0,0,
2070.0,2090.0,2054.0,2051.0,0,
2069.0,2088.0,2053.0,2049.0,0,
2067.0,2084.0,2049.0,2050.0,0,
2058.0,2083.0,2050.0,2049.0,0,
2059.0,2085.0,2052.0,2047.0,0,
2025.0,2066.0,2026.0,2035.0,0,
2038.0,2065.0,2034.0,2039.0,0,
2043.0,2068.0,2042.0,2040.0,0,
2048.0,2071.0,2042.0,2045.0,0,
2052.0,2069.0,2044.0,2045.0,0,
2044.0,2069.0,2045.0,2047.0,0.0,0.0,0.0,
2046.0,2070.0,2041.0,2048.0,0.0,0.0,0.0,
2043.0,2067.0,2052.0,2044.0,0.0,0.0,0.0,
2046.0,2066.0,2042.0,2040.0,0,
2047.0,2064.0,2042.0,2039.0,0,
2041.0,2063.0,2044.0,2038.0,0,
2045.0,2065.0,2041.0,2036.0,0,
2046.0,2063.0,2036.0,2035.0,0,
2038.0,2066.0,2038.0,2036.0,0,
2013.0,2047.0,2019.0,2029.0,0,
2024.0,2058.0,2032.0,2034.0,0,
2035.0,2062.0,2042.0,2038.0,0,
2042.0,2064.0,2043.0,2042.0,0,
2045.0,2065.0,2048.0,2044.0,0,
2057.0,2069.0,2048.0,2044.0,0,
2057.0,2071.0,2050.0,2045.0,0,
2054.0,2073.0,2051.0,2048.0,0,
2054.0,2072.0,2052.0,2048.0,0,
2053.0,2071.0,2054.0,2051.0,0,
2051.0,2074.0,2054.0,2051.0,0,
2053.0,2077.0,2055.0,2052.0,0,
2053.0,2078.0,2057.0,2052.0,0,
2029.0,2074.0,2043.0,2044.0,0.0,0.0,0.0,
2042.0,2080.0,2046.0,2047.0,0.0,0.0,0.0,
2044.0,2083.0,2053.0,2050.0,0,
2050.0,2083.0,2055.0,2050.0,0,
2057.0,2085.0,2056.0,2052.0,0,
2062.0,2090.0,2059.0,2053.0,0,
2066.0,2087.0,2056.0,2053.0,0,
2069.0,2089.0,2054.0,2056.0,0,
2065.0,2086.0,2056.0,2054.0,0,
2061.0,2083.0,2054.0,2055.0,0,
2062.0,2083.0,2055.0,2054.0,0,
2061.0,2081.0,2051.0,2056.0,0,
2057.0,2081.0,2050.0,2056.0,0,
2021.0,2061.0,2026.0,2044.0,0,
2029.0,2053.0,2037.0,2047.0,0,
2042.0,2064.0,2046.0,2053.0,0,
2045.0,2065.0,2049.0,2053.0,0.0,0.0,0.0,
2047.0,2060.0,2048.0,2054.0,0.0,0.0,0.0,
2048.0,2064.0,2053.0,2054.0,0.0,0.0,0.0,
2047.0,2064.0,2043.0,2049.0,0.0,0.0,0.0,
2048.0,2059.0,2045.0,2050.0,0,
2054.0,2063.0,2047.0,2048.0,0,
2057.0,2063.0,2043.0,2048.0,0,
2054.0,2068.0,2046.0,2046.0,0,
2055.0,2067.0,2041.0,2045.0,0,
2051.0,2063.0,2042.0,2044.0,0,
2026.0,2058.0,2024.0,2038.0,0,
2030.0,2060.0,2035.0,2044.0,0,
2037.0,2063.0,2039.0,2044.0,0,
2040.0,2065.0,2041.0,2046.0,0,
2040.0,2064.0,2038.0,2048.0,0,
2041.0,2068.0,2044.0,2046.0,0,
2036.0,2062.0,2045.0,2048.0,0,
2035.0,2064.0,2045.0,2046.0,0,
2034.0,2061.0,2043.0,2045.0,0,
2033.0,2060.0,2044.0,2042.0,0,
2035.0,2062.0,2045.0,2040.0,0,
2037.0,2068.0,2044.0,2041.0,0,
2037.0,2062.0,2045.0,2039.0,0,
2034.0,2061.0,2046.0,2041.0,0,
2020.0,2054.0,2028.0,2034.0,0,
2036.0,2061.0,2043.0,2038.0,0,
2049.0,2066.0,2048.0,2042.0,0.0,0.0,0.0,
2059.0,2075.0,2052.0,2046.0,0.0,0.0,0.0,
2062.0,2080.0,2054.0,2043.0,0.0,0.0,0.0,
2065.0,2081.0,2059.0,2044.0,0.0,0.0,0.0,
2066.0,2087.0,2062.0,2042.0,0,
2069.0,2087.0,2059.0,2044.0,0,
2065.0,2085.0,2059.0,2045.0,0,
2065.0,2085.0,2061.0,2047.0,0,
2063.0,2087.0,2059.0,2052.0,0,
2062.0,2088.0,2057.0,2047.0,0,
2055.0,2092.0,2055.0,2047.0,0,
2039.0,2079.0,2033.0,2037.0,0,
2048.0,2080.0,2041.0,2043.0,0,
2054.0,2084.0,2060.0,2043.0,0,
2056.0,2082.0,2048.0,2046.0,0,
2055.0,2080.0,2048.0,2044.0,0,
2055.0,2079.0,2048.0,2043.0,0,
2051.0,2077.0,2047.0,2045.0,0,
2052.0,2077.0,2046.0,2045.0,0,
2052.0,2076.0,2047.0,2042.0,0,
2050.0,2078.0,2045.0,2044.0,0,
2046.0,2076.0,2044.0,2042.0,0,
2045.0,2074.0,2047.0,2044.0,0,
2041.0,2079.0,2047.0,2045.0,0,
2014.0,2059.0,2018.0,2034.0,0,
2028.0,2066.0,2033.0,2038.0,0.0,0.0,0.0,
2044.0,2063.0,2042.0,2041.0,0.0,0.0,0.0,
2047.0,2064.0,2040.0,2042.0,0.0,0.0,0.0,
2049.0,2065.0,2048.0,2042.0,0,
2047.0,2066.0,2044.0,2042.0,0,
2045.0,2065.0,2045.0,2042.0,0,
2041.0,2064.0,2046.0,2041.0,0,
2041.0,2063.0,2045.0,2042.0,0,
2035.0,2059.0,2043.0,2041.0,0,
2032.0,2059.0,2045.0,2041.0,0,
2056.0,2059.0,2044.0,2037.0,0,
2034.0,2061.0,2044.0,2038.0,0,
2022.0,2054.0,2025.0,2033.0,0,
2040.0,2062.0,2036.0,2038.0,0,
2055.0,2068.0,2043.0,2040.0,0,
2058.0,2082.0,2049.0,2048.0,0,
2061.0,2075.0,2051.0,2048.0,0,
2066.0,2083.0,2048.0,2051.0,0,
2058.0,2073.0,2050.0,2052.0,0,
2059.0,2079.0,2058.0,2052.0,0,
2051.0,2081.0,2050.0,2049.0,0,
2059.0,2086.0,2052.0,2051.0,0,
2060.0,2082.0,2050.0,2053.0,0,
2058.0,2082.0,2051.0,2052.0,0,
2055.0,2080.0,2047.0,2049.0,0,
2075.0,2083.0,2050.0,2050.0,0,
2026.0,2070.0,2029.0,2046.0,0.0,0.0,0.0,
2043.0,2082.0,2042.0,2051.0,0.0,0.0,0.0,
2053.0,2086.0,2050.0,2058.0,0.0,0.0,0.0,
2054.0,2084.0,2054.0,2059.0,0,
2063.0,2081.0,2052.0,2060.0,0,
2052.0,2081.0,2053.0,2062.0,0,
2052.0,2085.0,2053.0,2063.0,0,
2051.0,2083.0,2060.0,2061.0,0,
2046.0,2080.0,2049.0,2055.0,0,
2037.0,2076.0,2050.0,2056.0,0,
2027.0,2072.0,2047.0,2052.0,0,
2036.0,2071.0,2044.0,2053.0,0,
2021.0,2062.0,2028.0,2046.0,0.0,0.0,0.0,
2033.0,2067.0,2038.0,2050.0,0.0,0.0,0.0,
2038.0,2068.0,2045.0,2051.0,0.0,0.0,0.0,
2039.0,2069.0,2046.0,2050.0,0,
2040.0,2065.0,2043.0,2048.0,0,
2034.0,2067.0,2045.0,2046.0,0,
2037.0,2063.0,2045.0,2044.0,0,
2031.0,2062.0,2048.0,2048.0,0,
2036.0,2062.0,2042.0,2047.0,0,
2049.0,2060.0,2041.0,2046.0,0,
2043.0,2061.0,2041.0,2046.0,0,
2038.0,2061.0,2039.0,2043.0,0,
2037.0,2062.0,2037.0,2041.0,0,
2033.0,2058.0,2035.0,2042.0,0,
2017.0,2050.0,2023.0,2038.0,0,
2037.0,2058.0,2038.0,2045.0,0,
2043.0,2060.0,2047.0,2050.0,0,
2050.0,2064.0,2054.0,2053.0,0,
2051.0,2065.0,2053.0,2060.0,0,
2050.0,2068.0,2053.0,2055.0,0,
2050.0,2065.0,2049.0,2055.0,0,
2053.0,2065.0,2049.0,2052.0,0,
2050.0,2071.0,2049.0,2051.0,0,
2059.0,2069.0,2050.0,2051.0,0,
2053.0,2068.0,2049.0,2051.0,0,
2035.0,2068.0,2051.0,2051.0,0.0,0.0,0.0,
2042.0,2070.0,2036.0,2043.0,0.0,0.0,0.0,
2061.0,2077.0,2051.0,2052.0,0.0,0.0,0.0,
2070.0,2078.0,2059.0,2048.0,0.0,0.0,0.0,
2069.0,2076.0,2058.0,2055.0,0,
2067.0,2078.0,2063.0,2054.0,0,
2052.0,2075.0,2058.0,2058.0,0,
2064.0,2077.0,2058.0,2059.0,0,
2060.0,2077.0,2058.0,2059.0,0,
2059.0,2074.0,2057.0,2057.0,0,
2054.0,2076.0,2058.0,2056.0,0,
2052.0,2072.0,2056.0,2055.0,0,
2053.0,2073.0,2055.0,2054.0,0,
2052.0,2069.0,2053.0,2055.0,0,
2055.0,2074.0,2055.0,2056.0,0,
2027.0,2062.0,2030.0,2043.0,0,
2038.0,2065.0,2040.0,2048.0,0,
2046.0,2066.0,2046.0,2053.0,0,
2051.0,2067.0,2044.0,2049.0,0,
2053.0,2069.0,2046.0,2050.0,0,
2050.0,2069.0,2048.0,2052.0,0,
2052.0,2064.0,2048.0,2051.0,0,
2047.0,2066.0,2047.0,2049.0,0,
2050.0,2063.0,2047.0,2048.0,0,
2053.0,2063.0,2046.0,2050.0,0,
2044.0,2060.0,2045.0,2044.0,0,
2046.0,2060.0,2045.0,2047.0,0,
2043.0,2057.0,2047.0,2050.0,0.0,0.0,0.0,
2006.0,2046.0,2022.0,2036.0,0.0,0.0,0.0,
2021.0,2048.0,2033.0,2039.0,0,
2019.0,2047.0,2038.0,2044.0,0,
2030.0,2052.0,2044.0,2042.0,0,
2035.0,2048.0,2042.0,2045.0,0,
2032.0,2050.0,2042.0,2044.0,0,
2038.0,2052.0,2047.0,2046.0,0,
2040.0,2051.0,2046.0,2046.0,0,
2043.0,2056.0,2047.0,2048.0,0,
2045.0,2055.0,2044.0,2046.0,0,
2045.0,2055.0,2048.0,2036.0,0,
2044.0,2050.0,2046.0,2047.0,0.0,0.0,0.0,
2045.0,2055.0,2051.0,2047.0,0.0,0.0,0.0,
2054.0,2057.0,2027.0,2048.0,0.0,0.0,0.0,
2042.0,2061.0,2042.0,2044.0,0.0,0.0,0.0,
2049.0,2065.0,2046.0,2048.0,0,
2055.0,2073.0,2054.0,2050.0,0,
2047.0,2071.0,2054.0,2051.0,0,
2063.0,2072.0,2053.0,2053.0,0,
2065.0,2081.0,2056.0,2052.0,0,
2067.0,2077.0,2056.0,2054.0,0,
2063.0,2077.0,2057.0,2053.0,0,
2063.0,2087.0,2056.0,2052.0,0,
2061.0,2082.0,2058.0,2052.0,0,
2059.0,2079.0,2056.0,2050.0,0,
2059.0,2080.0,2055.0,2048.0,0,
2030.0,2075.0,2035.0,2043.0,0,
2048.0,2077.0,2042.0,2045.0,0,
2056.0,2078.0,2048.0,2049.0,0,
2056.0,2075.0,2039.0,2050.0,0,
2063.0,2078.0,2051.0,2051.0,0,
2064.0,2080.0,2049.0,2050.0,0,
2062.0,2078.0,2051.0,2049.0,0,
2066.0,2080.0,2052.0,2049.0,0,
2062.0,2075.0,2049.0,2047.0,0,
2062.0,2077.0,2050.0,2047.0,0,
2057.0,2077.0,2051.0,2043.0,0,
2054.0,2071.0,2052.0,2051.0,0.0,0.0,0.0,
2056.0,2071.0,2045.0,2049.0,0.0,0.0,0.0,
2051.0,2067.0,2046.0,2046.0,0,
2011.0,2049.0,2021.0,2030.0,0,
2017.0,2052.0,2032.0,2034.0,0,
2032.0,2053.0,2040.0,2039.0,0,
2035.0,2058.0,2044.0,2040.0,0,
2041.0,2059.0,2048.0,2042.0,0,
2044.0,2055.0,2047.0,2039.0,0,
2039.0,2058.0,2045.0,2043.0,0,
2036.0,2052.0,2045.0,2042.0,0,
2033.0,2056.0,2041.0,2044.0,0,
2034.0,2055.0,2042.0,2044.0,0.0,0.0,0.0,
2038.0,2054.0,2043.0,2044.0,0.0,0.0,0.0,
2032.0,2053.0,2042.0,2042.0,0.0,0.0,0.0,
2022.0,2050.0,2022.0,2028.0,0.0,0.0,0.0,
2037.0,2056.0,2036.0,2038.0,0,
2047.0,2064.0,2041.0,2044.0,0,
2060.0,2066.0,2045.0,2042.0,0,
2059.0,2070.0,2050.0,2048.0,0,
2061.0,2073.0,2054.0,2049.0,0,
2062.0,2075.0,2052.0,2049.0,0,
2062.0,2077.0,2052.0,2050.0,0,
2063.0,2072.0,2051.0,2048.0,0,
2060.0,2076.0,2052.0,2045.0,0,
2065.0,2079.0,2053.0,2048.0,0,
2071.0,2081.0,2049.0,2048.0,0,
2075.0,2085.0,2055.0,2051.0,0,
2071.0,2088.0,2056.0,2050.0,0,
2039.0,2074.0,2031.0,2041.0,0,
2057.0,2077.0,2042.0,2046.0,0,
2070.0,2086.0,2053.0,2049.0,0,
2077.0,2087.0,2054.0,2052.0,0,
2076.0,2084.0,2054.0,2051.0,0,
2068.0,2088.0,2055.0,2052.0,0,
2071.0,2085.0,2063.0,2055.0,0,
2067.0,2080.0,2054.0,2053.0,0,
2060.0,2080.0,2050.0,2051.0,0,
2055.0,2083.0,2048.0,2048.0,0.0,0.0,0.0,
2052.0,2078.0,2049.0,2049.0,0.0,0.0,0.0,
2049.0,2072.0,2048.0,2046.0,0,
2045.0,2074.0,2051.0,2048.0,0,
2023.0,2062.0,2024.0,2038.0,0,
2034.0,2063.0,2034.0,2040.0,0,
2042.0,2067.0,2040.0,2043.0,0,
2043.0,2065.0,2044.0,2044.0,0,
2045.0,2065.0,2043.0,2045.0,0,
2041.0,2062.0,2042.0,2043.0,0,
2048.0,2060.0,2042.0,2040.0,0,
2044.0,2058.0,2041.0,2043.0,0,
2047.0,2059.0,2043.0,2040.0,0.0,0.0,0.0,
2046.0,2060.0,2041.0,2043.0,0.0,0.0,0.0,
2044.0,2057.0,2038.0,2042.0,0.0,0.0,0.0,
2042.0,2059.0,2038.0,2040.0,0.0,0.0,0.0,
2040.0,2055.0,2041.0,2033.0,0,
2016.0,2054.0,2018.0,2031.0,0,
2026.0,2053.0,2031.0,2041.0,0,
2039.0,2059.0,2038.0,2040.0,0,
2042.0,2055.0,2043.0,2040.0,0,
2037.0,2060.0,2042.0,2039.0,0,
2041.0,2063.0,2044.0,2041.0,0,
2043.0,2062.0,2043.0,2044.0,0,
2046.0,2064.0,2049.0,2046.0,0,
2050.0,2069.0,2048.0,2045.0,0,
2052.0,2072.0,2048.0,2049.0,0,
2058.0,2074.0,2051.0,2050.0,0,
2056.0,2070.0,2053.0,2053.0,0,
2058.0,2073.0,2055.0,2053.0,0,
2031.0,2065.0,2034.0,2044.0,0,
2041.0,2073.0,2043.0,2049.0,0,
2049.0,2078.0,2048.0,2048.0,0,
2054.0,2079.0,2054.0,2049.0,0,
2053.0,2079.0,2054.0,2051.0,0,
2040.0,2075.0,2054.0,2048.0,0,
2053.0,2075.0,2053.0,2050.0,0,
2053.0,2079.0,2046.0,2047.0,0,
2054.0,2090.0,2052.0,2046.0,0.0,0.0,0.0,
2056.0,2081.0,2053.0,2056.0,0.0,0.0,0.0,
2054.0,2082.0,2051.0,2047.0,0.0,0.0,0.0,
2052.0,2099.0,2050.0,2044.0,0.0,0.0,0.0,
2051.0,2078.0,2050.0,2045.0,0,
2057.0,2081.0,2048.0,2044.0,0,
2031.0,2070.0,2027.0,2032.0,0,
2041.0,2073.0,2035.0,2035.0,0,
2043.0,2075.0,2042.0,2038.0,0,
2047.0,2072.0,2043.0,2041.0,0,
2045.0,2070.0,2047.0,2043.0,0,
2046.0,2069.0,2047.0,2042.0,0,
2045.0,2064.0,2045.0,2044.0,0,
2044.0,2063.0,2043.0,2042.0,0,
2043.0,2064.0,2046.0,2042.0,0,
2037.0,2064.0,2045.0,2041.0,0,
2036.0,2056.0,2042.0,2037.0,0,
2030.0,2056.0,2038.0,2038.0,0,
2012.0,2045.0,2023.0,2031.0,0,
2025.0,2049.0,2034.0,2034.0,0,
2036.0,2051.0,2044.0,2035.0,0,
2038.0,2050.0,2040.0,2051.0,0,
2043.0,2055.0,2043.0,2038.0,0,
2047.0,2057.0,2042.0,2037.0,0,
2043.0,2057.0,2046.0,2040.0,0,
2043.0,2055.0,2046.0,2042.0,0.0,0.0,0.0,
2037.0,2057.0,2047.0,2041.0,0.0,0.0,0.0,
2030.0,2055.0,2046.0,2037.0,0.0,0.0,0.0,
2043.0,2057.0,2045.0,2042.0,0,
2042.0,2059.0,2047.0,2041.0,0,
2047.0,2064.0,2049.0,2040.0,0,
2051.0,2067.0,2047.0,2043.0,0,
2031.0,2060.0,2031.0,2040.0,0,
2045.0,2070.0,2042.0,2042.0,0,
2053.0,2070.0,2049.0,2047.0,0,
2058.0,2071.0,2051.0,2049.0,0,
2058.0,2077.0,2056.0,2046.0,0,
2061.0,2077.0,2055.0,2049.0,0,
2061.0,2079.0,2049.0,2052.0,0,
2063.0,2080.0,2057.0,2053.0,0,
2060.0,2079.0,2058.0,2052.0,0,
2060.0,2083.0,2057.0,2053.0,0,
2060.0,2080.0,2058.0,2054.0,0,
2066.0,2083.0,2057.0,2053.0,0,
2060.0,2081.0,2053.0,2052.0,0,
2034.0,2073.0,2033.0,2046.0,0,
2044.0,2083.0,2048.0,2046.0,0,
2052.0,2081.0,2048.0,2046.0,0,
2054.0,2081.0,2050.0,2047.0,0,
2056.0,2078.0,2052.0,2049.0,0,
2053.0,2079.0,2051.0,2049.0,0,
2054.0,2078.0,2055.0,2052.0,0.0,0.0,0.0,
2052.0,2078.0,2051.0,2051.0,0.0,0.0,0.0,
2052.0,2075.0,2047.0,2053.0,0.0,0.0,0.0,
2046.0,2068.0,2048.0,2047.0,0.0,0.0,0.0,
2050.0,2068.0,2046.0,2048.0,0,
2050.0,2065.0,2047.0,2047.0,0,
2056.0,2064.0,2046.0,2047.0,0,
2011.0,2041.0,2020.0,2034.0,0,
2024.0,2046.0,2033.0,2038.0,0,
2030.0,2049.0,2043.0,2041.0,0,
2032.0,2053.0,2041.0,2042.0,0,
2032.0,2049.0,2041.0,2042.0,0,
2036.0,2046.0,2042.0,2041.0,0,
2042.0,2047.0,2045.0,2042.0,0,
2050.0,2054.0,2048.0,2044.0,0,
2057.0,2054.0,2048.0,2046.0,0,
2082.0,2054.0,2049.0,2051.0,0,
2056.0,2054.0,2049.0,2046.0,0,
2065.0,2059.0,2049.0,2045.0,0,
2053.0,2061.0,2048.0,2047.0,0,
2026.0,2051.0,2030.0,2038.0,0,
2036.0,2054.0,2042.0,2042.0,0,
2044.0,2057.0,2047.0,2053.0,0,
2055.0,2058.0,2051.0,2049.0,0,
2057.0,2059.0,2053.0,2050.0,0,
2064.0,2056.0,2053.0,2049.0,0.0,0.0,0.0,
2064.0,2058.0,2050.0,2049.0,0.0,0.0,0.0,
2060.0,2061.0,2054.0,2048.0,0,
2065.0,2064.0,2055.0,2047.0,0,
2057.0,2066.0,2056.0,2050.0,0,
2052.0,2066.0,2057.0,2049.0,0,
2054.0,2065.0,2052.0,2049.0,0,
2051.0,2062.0,2053.0,2048.0,0,
2033.0,2061.0,2029.0,2038.0,0,
2046.0,2069.0,2042.0,2048.0,0,
2060.0,2070.0,2047.0,2050.0,0,
2066.0,2080.0,2052.0,2054.0,0,
2074.0,2082.0,2057.0,2056.0,0,
2079.0,2087.0,2054.0,2053.0,0.0,0.0,0.0,
2078.0,2087.0,2057.0,2054.0,0.0,0.0,0.0,
2079.0,2090.0,2057.0,2053.0,0.0,0.0,0.0,
2073.0,2092.0,2060.0,2052.0,0.0,0.0,0.0,
2066.0,2090.0,2056.0,2049.0,0,
2065.0,2088.0,2054.0,2050.0,0,
2058.0,2086.0,2051.0,2046.0,0,
2052.0,2089.0,2050.0,2046.0,0,
2004.0,2073.0,2029.0,2033.0,0,
2005.0,2075.0,2036.0,2041.0,0,
1996.0,2073.0,2042.0,2039.0,0,
1981.0,2071.0,2041.0,2045.0,0,
1961.0,2066.0,2043.0,2043.0,0,
1943.0,2069.0,2042.0,2039.0,0,
1925.0,2066.0,2043.0,2043.0,0,
1915.0,2066.0,2045.0,2043.0,0,
1898.0,2066.0,2040.0,2041.0,0,
1887.0,2064.0,2039.0,2040.0,0,
1885.0,2066.0,2042.0,2038.0,0,
1886.0,2061.0,2042.0,2037.0,0,
1889.0,2065.0,2042.0,2038.0,0,
1894.0,2063.0,2040.0,2039.0,0,
1915.0,2050.0,2027.0,2028.0,0,
1939.0,2052.0,2035.0,2034.0,0,
1950.0,2059.0,2041.0,2035.0,0,
1966.0,2062.0,2050.0,2039.0,0.0,0.0,0.0,
1980.0,2060.0,2052.0,2039.0,0.0,0.0,0.0,
1994.0,2062.0,2050.0,2041.0,0,
2009.0,2061.0,2052.0,2042.0,0,
2032.0,2057.0,2053.0,2043.0,0,
2046.0,2054.0,2053.0,2044.0,0,
2060.0,2050.0,2053.0,2044.0,0,
2065.0,2052.0,2051.0,2042.0,0,
2058.0,2044.0,2051.0,2043.0,0,
2007.0,2028.0,2029.0,2034.0,0,
2039.0,2030.0,2044.0,2039.0,0,
2084.0,2043.0,2048.0,2043.0,0,
2123.0,2056.0,2054.0,2047.0,0,
2167.0,2067.0,2058.0,2053.0,0.0,0.0,0.0,
2184.0,2069.0,2061.0,2057.0,0.0,0.0,0.0,
2213.0,2109.0,2067.0,2063.0,0.0,0.0,0.0,
2232.0,2136.0,2069.0,2066.0,0.0,0.0,0.0,
2243.0,2155.0,2067.0,2065.0,0,
2248.0,2169.0,2066.0,2065.0,0,
2251.0,2175.0,2067.0,2062.0,0,
2247.0,2184.0,2060.0,2059.0,0,
2237.0,2194.0,2062.0,2059.0,0,
2225.0,2204.0,2058.0,2055.0,0,
2124.0,2170.0,2030.0,2044.0,0,
2121.0,2155.0,2040.0,2048.0,0,
2118.0,2140.0,2045.0,2051.0,0,
2112.0,2129.0,2045.0,2051.0,0,
2096.0,2112.0,2045.0,2053.0,0,
2077.0,2119.0,2046.0,2050.0,0,
2053.0,2131.0,2029.0,2051.0,0,
2026.0,2146.0,2038.0,2045.0,0,
2034.0,2142.0,2042.0,2046.0,0,
2046.0,2139.0,2041.0,2046.0,0,
2068.0,2129.0,2026.0,2048.0,0,
2086.0,2118.0,2041.0,2051.0,0,
2095.0,2072.0,2025.0,2049.0,0,
2103.0,2060.0,2036.0,2055.0,0,
2104.0,2033.0,2043.0,2056.0,0,
2091.0,2005.0,2044.0,2056.0,0.0,0.0,0.0,
2068.0,1961.0,2043.0,2052.0,0.0,0.0,0.0,
2043.0,1931.0,2046.0,2052.0,0,
2020.0,1912.0,2045.0,2045.0,0,
1990.0,1910.0,2045.0,2046.0,0,
1978.0,1910.0,2047.0,2047.0,0,
1981.0,1896.0,2047.0,2048.0,0,
1986.0,1870.0,2050.0,2049.0,0,
1981.0,1830.0,2051.0,2051.0,0,
1983.0,1825.0,2050.0,2051.0,0,
1975.0,1863.0,2051.0,2051.0,0,
2013.0,2002.0,2038.0,2044.0,0,
2042.0,2018.0,2056.0,2052.0,0,
2072.0,2027.0,2056.0,2058.0,0.0,0.0,0.0,
2085.0,2026.0,2061.0,2057.0,0.0,0.0,0.0,
2094.0,2033.0,2056.0,2060.0,0.0,0.0,0.0,
2101.0,2043.0,2062.0,2062.0,0.0,0.0,0.0,
2110.0,2047.0,2061.0,2061.0,0,
2111.0,2045.0,2061.0,2059.0,0,
2109.0,2035.0,2059.0,2054.0,0,
2109.0,2023.0,2065.0,2057.0,0,
2100.0,2014.0,2084.0,2054.0,0,
2087.0,2007.0,2063.0,2055.0,0,
2071.0,2005.0,2065.0,2052.0,0,
2044.0,2003.0,2036.0,2042.0,0,
2077.0,2019.0,2041.0,2047.0,0,
2105.0,2029.0,2043.0,2044.0,0,
2131.0,2022.0,2045.0,2047.0,0,
2144.0,2018.0,2042.0,2047.0,0,
2160.0,2019.0,2042.0,2046.0,0,
2175.0,2023.0,2043.0,2044.0,0,
2189.0,2040.0,2045.0,2049.0,0,
2198.0,2060.0,2044.0,2049.0,0,
2207.0,2064.0,2049.0,2051.0,0,
2201.0,2040.0,2052.0,2055.0,0,
2181.0,2017.0,2050.0,2055.0,0,
2154.0,2011.0,2043.0,2053.0,0,
2044.0,2162.0,2022.0,2033.0,0,
2057.0,2196.0,2033.0,2041.0,0.0,0.0,0.0,
2068.0,2215.0,2045.0,2043.0,0.0,0.0,0.0,
2069.0,2223.0,2050.0,2047.0,0,
2069.0,2213.0,2052.0,2046.0,0,
2063.0,2193.0,2051.0,2045.0,0,
2052.0,2174.0,2049.0,2044.0,0,
2038.0,2153.0,2050.0,2043.0,0,
2031.0,2145.0,2044.0,2039.0,0,
2018.0,2137.0,2043.0,2038.0,0,
2020.0,2133.0,2046.0,2037.0,0,
2012.0,2138.0,2046.0,2038.0,0,
2013.0,2137.0,2051.0,2039.0,0,
1995.0,2122.0,2026.0,2029.0,0,
2011.0,2125.0,2039.0,2035.0,0.0,0.0,0.0,
2021.0,2123.0,2043.0,2038.0,0.0,0.0,0.0,
2029.0,2125.0,2050.0,2040.0,0.0,0.0,0.0,
2030.0,2120.0,2050.0,2042.0,0.0,0.0,0.0,
2029.0,2116.0,2052.0,2045.0,0,
2026.0,2113.0,2050.0,2044.0,0,
2024.0,2108.0,2053.0,2045.0,0,
2025.0,2105.0,2052.0,2042.0,0,
2035.0,2102.0,2054.0,2043.0,0,
2023.0,2100.0,2052.0,2044.0,0,
2021.0,2099.0,2050.0,2047.0,0,
2023.0,2096.0,2052.0,2045.0,0,
2025.0,2098.0,2053.0,2044.0,0,
2006.0,2084.0,2030.0,2038.0,0,
2021.0,2086.0,2029.0,2042.0,0,
2037.0,2094.0,2050.0,2046.0,0,
2049.0,2094.0,2052.0,2050.0,0,
2054.0,2097.0,2053.0,2039.0,0,
2058.0,2094.0,2050.0,2050.0,0,
2061.0,2098.0,2051.0,2051.0,0,
2054.0,2090.0,2045.0,2049.0,0,
2050.0,2088.0,2051.0,2042.0,0,
2043.0,2085.0,2047.0,2050.0,0,
2034.0,2085.0,2044.0,2046.0,0,
2030.0,2078.0,2044.0,2043.0,0,
1990.0,2061.0,2024.0,2036.0,0.0,0.0,0.0,
2004.0,2061.0,2034.0,2035.0,0,
2004.0,2059.0,2041.0,2037.0,0,
2002.0,2059.0,2041.0,2039.0,0,
2001.0,2057.0,2044.0,2038.0,0,
1998.0,2056.0,2040.0,2038.0,0,
2006.0,2053.0,2041.0,2040.0,0,
2006.0,2051.0,2040.0,2038.0,0,
2010.0,2053.0,2041.0,2038.0,0,
2013.0,2054.0,2042.0,2037.0,0,
2017.0,2057.0,2044.0,2038.0,0,
2018.0,2050.0,2040.0,2039.0,0,
2012.0,2047.0,2037.0,2039.0,0,
2010.0,2049.0,2043.0,2038.0,0,
1985.0,2044.0,2023.0,2031.0,0.0,0.0,0.0,
1998.0,2051.0,2037.0,2035.0,0.0,0.0,0.0,
2003.0,2051.0,2042.0,2039.0,0.0,0.0,0.0,
2007.0,2055.0,2044.0,2042.0,0.0,0.0,0.0,
2007.0,2053.0,2048.0,2042.0,0,
2007.0,2056.0,2048.0,2042.0,0,
2006.0,2057.0,2047.0,2043.0,0,
2010.0,2053.0,2048.0,2041.0,0,
2015.0,2064.0,2048.0,2042.0,0,
2017.0,2067.0,2052.0,2041.0,0,
2023.0,2068.0,2051.0,2040.0,0,
2032.0,2072.0,2053.0,2044.0,0,
2024.0,2066.0,2034.0,2039.0,0,
2045.0,2070.0,2044.0,2045.0,0,
2047.0,2074.0,2051.0,2050.0,0,
2047.0,2075.0,2052.0,2049.0,0,
2051.0,2074.0,2055.0,2052.0,0,
2047.0,2066.0,2055.0,2051.0,0,
2046.0,2067.0,2056.0,2051.0,0,
2045.0,2065.0,2059.0,2049.0,0,
2038.0,2067.0,2054.0,2050.0,0,
2038.0,2068.0,2052.0,2052.0,0,
2039.0,2066.0,2053.0,2051.0,0,
2035.0,2064.0,2053.0,2047.0,0,
2031.0,2060.0,2052.0,2049.0,0,
2028.0,2058.0,2050.0,2051.0,0.0,0.0,0.0,
2006.0,2051.0,2030.0,2036.0,0.0,0.0,0.0,
2020.0,2056.0,2037.0,2041.0,0.0,0.0,0.0,
2027.0,2057.0,2045.0,2045.0,0.0,0.0,0.0,
2036.0,2057.0,2045.0,2044.0,0,
2036.0,2059.0,2037.0,2046.0,0,
2020.0,2056.0,2046.0,2047.0,0,
2037.0,2055.0,2046.0,2050.0,0,
2039.0,2053.0,2046.0,2045.0,0,
2034.0,2052.0,2050.0,2046.0,0,
2026.0,2051.0,2047.0,2046.0,0,
2027.0,2048.0,2044.0,2045.0,0,
2027.0,2046.0,2046.0,2044.0,0,
2025.0,2048.0,2045.0,2046.0,0,
1994.0,2036.0,2026.0,2032.0,0,
2004.0,2043.0,2032.0,2040.0,0,
2011.0,2039.0,2042.0,2033.0,0,
2012.0,2040.0,2047.0,2043.0,0,
2013.0,2042.0,2047.0,2043.0,0,
2011.0,2037.0,2047.0,2043.0,0,
2014.0,2038.0,2042.0,2043.0,0,
2013.0,2041.0,2045.0,2043.0,0,
2041.0,2042.0,2048.0,2039.0,0,
2020.0,2046.0,2047.0,2045.0,0,
2025.0,2050.0,2049.0,2046.0,0,
2031.0,2048.0,2048.0,2048.0,0.0,0.0,0.0,
2035.0,2052.0,2051.0,2050.0,0.0,0.0,0.0,
2014.0,2066.0,2032.0,2037.0,0,
2028.0,2071.0,2041.0,2045.0,0,
2038.0,2078.0,2049.0,2048.0,0,
2048.0,2089.0,2054.0,2052.0,0,
2050.0,2088.0,2054.0,2057.0,0,
2053.0,2086.0,2054.0,2053.0,0,
2051.0,2089.0,2057.0,2052.0,0,
2051.0,2087.0,2059.0,2051.0,0,
2050.0,2088.0,2055.0,2050.0,0,
2048.0,2087.0,2057.0,2049.0,0,
2051.0,2097.0,2054.0,2049.0,0,
2055.0,2098.0,2053.0,2047.0,0.0,0.0,0.0,
2072.0,2112.0,2052.0,2048.0,0.0,0.0,0.0,
2093.0,2103.0,2036.0,2042.0,0.0,0.0,0.0,
2107.0,2110.0,2046.0,2047.0,0.0,0.0,0.0,
2108.0,2110.0,2050.0,2049.0,0,
2106.0,2117.0,2042.0,2049.0,0,
2107.0,2120.0,2053.0,2053.0,0,
2103.0,2118.0,2052.0,2049.0,0,
2100.0,2117.0,2050.0,2048.0,0,
2088.0,2110.0,2049.0,2048.0,0,
2078.0,2104.0,2052.0,2047.0,0,
2073.0,2096.0,2049.0,2046.0,0,
2068.0,2091.0,2050.0,2047.0,0,
2062.0,2086.0,2048.0,2046.0,0,
2056.0,2075.0,2049.0,2046.0,0,
2048.0,2074.0,2049.0,2047.0,0,
2014.0,2050.0,2023.0,2038.0,0,
2022.0,2055.0,2036.0,2042.0,0,
2027.0,2058.0,2044.0,2047.0,0,
2038.0,2062.0,2048.0,2048.0,0,
2021.0,2048.0,2047.0,2050.0,0,
2017.0,2057.0,2049.0,2051.0,0,
2015.0,2051.0,2048.0,2045.0,0,
2013.0,2051.0,2046.0,2046.0,0,
2022.0,2049.0,2049.0,2048.0,0,
2028.0,2052.0,2048.0,2049.0,0.0,0.0,0.0,
2030.0,2049.0,2049.0,2052.0,0.0,0.0,0.0,
2029.0,2048.0,2048.0,2049.0,0,
2005.0,2033.0,2031.0,2037.0,0,
2005.0,2040.0,2041.0,2043.0,0,
1997.0,2043.0,2049.0,2048.0,0,
1996.0,2027.0,2050.0,2050.0,0,
1994.0,2048.0,2052.0,2050.0,0,
1996.0,2048.0,2056.0,2052.0,0,
2000.0,2050.0,2054.0,2053.0,0,
2002.0,2048.0,2056.0,2053.0,0,
2004.0,2049.0,2053.0,2051.0,0,
2005.0,2052.0,2053.0,2053.0,0,
2002.0,2052.0,2059.0,2053.0,0.0,0.0,0.0,
2008.0,2054.0,2052.0,2052.0,0.0,0.0,0.0,
2009.0,2059.0,2052.0,2052.0,0.0,0.0,0.0,
2009.0,2061.0,2052.0,2052.0,0.0,0.0,0.0,
1978.0,2055.0,2028.0,2040.0,0.0,0.0,0.0,
2002.0,2059.0,2036.0,2046.0,0.0,0.0,0.0,
2014.0,2067.0,2049.0,2050.0,0,
2027.0,2066.0,2048.0,2048.0,0,
2035.0,2064.0,2049.0,2049.0,0,
2032.0,2062.0,2048.0,2049.0,0,
2021.0,2068.0,2048.0,2047.0,0,
1992.0,2064.0,2050.0,2048.0,0,
1979.0,2062.0,2050.0,2047.0,0,
1979.0,2062.0,2050.0,2046.0,0,
1977.0,2063.0,2067.0,2043.0,0,
1971.0,2093.0,2045.0,2042.0,0,
1972.0,2224.0,2027.0,2034.0,0,
2007.0,2240.0,2037.0,2041.0,0,
2039.0,2246.0,2045.0,2050.0,0,
2061.0,2256.0,2048.0,2040.0,0,
2076.0,2265.0,2047.0,2040.0,0,
2081.0,2256.0,2047.0,2036.0,0,
2075.0,2252.0,2048.0,2040.0,0,
2041.0,2238.0,2043.0,2039.0,0,
1997.0,2216.0,2047.0,2041.0,0,
1935.0,2184.0,2041.0,2038.0,0,
1871.0,2145.0,2042.0,2036.0,0,
1813.0,2110.0,2039.0,2033.0,0,
1765.0,2075.0,2034.0,2030.0,0,
1736.0,2063.0,2033.0,2028.0,0,
1679.0,1851.0,1995.0,2009.0,0,
1685.0,1735.0,1987.0,2013.0,0,
1706.0,1622.0,2008.0,2015.0,0,
1768.0,1556.0,2013.0,2020.0,0,
1858.0,1562.0,2022.0,2027.0,0,
1968.0,1633.0,2027.0,2041.0,0,
2106.0,1742.0,2036.0,2042.0,0,
2256.0,1888.0,2049.0,2054.0,0,
2333.0,1973.0,2053.0,2061.0,0.0,0.0,0.0,
2380.0,2028.0,2062.0,2065.0,0.0,0.0,0.0,
2392.0,2037.0,2062.0,2070.0,0.0,0.0,0.0,
2379.0,2030.0,2064.0,2067.0,0.0,0.0,0.0,
2357.0,2019.0,2061.0,2066.0,0,
2309.0,2055.0,2039.0,2049.0,0,
2317.0,2098.0,2047.0,2051.0,0,
2335.0,2154.0,2051.0,2054.0,0,
2374.0,2228.0,2052.0,2053.0,0,
2427.0,2296.0,2053.0,2054.0,0,
2496.0,2326.0,2054.0,2062.0,0,
2560.0,2321.0,2055.0,2064.0,0,
2615.0,2285.0,2059.0,2068.0,0,
2614.0,2235.0,2060.0,2074.0,0,
2585.0,2176.0,2060.0,2073.0,0,
2532.0,2119.0,2064.0,2075.0,0,
2460.0,2056.0,2065.0,2074.0,0,
2396.0,2012.0,2064.0,2071.0,0,
2170.0,1967.0,2039.0,2051.0,0,
2179.0,1945.0,2048.0,2053.0,0,
2192.0,1899.0,2054.0,2052.0,0,
2204.0,1841.0,2057.0,2055.0,0,
2199.0,1813.0,2058.0,2051.0,0,
2179.0,1830.0,2057.0,2057.0,0,
2153.0,1865.0,2055.0,2048.0,0,
2125.0,1905.0,2051.0,2044.0,0.0,0.0,0.0,
2106.0,1928.0,2046.0,2041.0,0.0,0.0,0.0,
2090.0,1951.0,2042.0,2039.0,0,
2077.0,1987.0,2035.0,2037.0,0,
2069.0,2043.0,2031.0,2045.0,0,
2061.0,2107.0,2029.0,2032.0,0,
2017.0,2366.0,2007.0,2027.0,0,
2046.0,2388.0,2023.0,2034.0,0,
2068.0,2362.0,2035.0,2045.0,0,
2081.0,2338.0,2043.0,2051.0,0,
2085.0,2313.0,2043.0,2047.0,0,
2082.0,2301.0,2044.0,2045.0,0,
2080.0,2298.0,2043.0,2047.0,0,
2072.0,2295.0,2040.0,2048.0,0.0,0.0,0.0,
2074.0,2258.0,2042.0,2049.0,0.0,0.0,0.0,
2067.0,2206.0,2038.0,2048.0,0,
2060.0,2145.0,2042.0,2047.0,0,
2055.0,2100.0,2042.0,2051.0,0,
2037.0,2067.0,2046.0,2051.0,0,
1965.0,1977.0,2028.0,2047.0,0,
1973.0,1933.0,2043.0,2053.0,0,
1990.0,1905.0,2048.0,2059.0,0,
2006.0,1918.0,2054.0,2062.0,0,
2010.0,1947.0,2057.0,2061.0,0,
2010.0,1983.0,2058.0,2063.0,0,
1995.0,2019.0,2057.0,2061.0,0,
1945.0,2056.0,2057.0,2060.0,0.0,0.0,0.0,
1899.0,2079.0,2057.0,2057.0,0.0,0.0,0.0,
1862.0,2099.0,2058.0,2057.0,0.0,0.0,0.0,
1829.0,2106.0,2052.0,2054.0,0,
1808.0,2107.0,2051.0,2051.0,0,
1779.0,2103.0,2047.0,2047.0,0,
1769.0,2045.0,2030.0,2040.0,0,
1794.0,2047.0,2035.0,2043.0,0,
1809.0,2055.0,2043.0,2044.0,0,
1831.0,2065.0,2048.0,2044.0,0,
1841.0,2078.0,2047.0,2045.0,0,
1894.0,2086.0,2043.0,2046.0,0,
1932.0,2098.0,2049.0,2048.0,0,
1968.0,2104.0,2046.0,2049.0,0,
1992.0,2101.0,2048.0,2050.0,0,
2018.0,2096.0,2053.0,2051.0,0,
2034.0,2097.0,2050.0,2051.0,0,
2043.0,2096.0,2048.0,2051.0,0,
2051.0,2089.0,2050.0,2049.0,0,
2059.0,2082.0,2048.0,2049.0,0,
1995.0,2039.0,2022.0,2031.0,0,
2004.0,2039.0,2034.0,2035.0,0,
2024.0,2037.0,2046.0,2038.0,0,
2046.0,2044.0,2041.0,2041.0,0,
2073.0,2059.0,2047.0,2038.0,0,
2101.0,2074.0,2043.0,2038.0,0,
2118.0,2086.0,2043.0,2042.0,0.0,0.0,0.0,
2128.0,2099.0,2048.0,2042.0,0.0,0.0,0.0,
2126.0,2097.0,2048.0,2044.0,0,
2122.0,2084.0,2047.0,2040.0,0,
2114.0,2070.0,2051.0,2045.0,0,
2097.0,2057.0,2050.0,2045.0,0,
2025.0,2027.0,2032.0,2039.0,0,
2046.0,2042.0,2039.0,2042.0,0.0,0.0,0.0,
2064.0,2062.0,2044.0,2048.0,0,
2072.0,2084.0,2050.0,2050.0,0,
2077.0,2092.0,2051.0,2050.0,0,
2067.0,2094.0,2074.0,2053.0,0,
2059.0,2086.0,2052.0,2050.0,0,
2034.0,2077.0,2056.0,2053.0,0,
2011.0,2077.0,2051.0,2051.0,0,
1998.0,2064.0,2052.0,2051.0,0,
1987.0,2047.0,2050.0,2049.0,0,
1994.0,2003.0,2050.0,2051.0,0,
1996.0,1951.0,2050.0,2051.0,0,
1983.0,1900.0,2052.0,2050.0,0.0,0.0,0.0,
1848.0,2002.0,2030.0,2039.0,0.0,0.0,0.0,
1834.0,2046.0,2045.0,2047.0,0.0,0.0,0.0,
1828.0,2081.0,2048.0,2049.0,0,
1821.0,2102.0,2056.0,2048.0,0,
1816.0,2108.0,2052.0,2046.0,0,
1820.0,2114.0,2055.0,2047.0,0,
1823.0,2109.0,2059.0,2052.0,0,
1829.0,2114.0,2056.0,2050.0,0,
1852.0,2125.0,2053.0,2048.0,0,
1890.0,2124.0,2052.0,2050.0,0,
1934.0,2110.0,2047.0,2047.0,0,
1986.0,2104.0,2049.0,2051.0,0,
2074.0,2074.0,2028.0,2046.0,0,
2077.0,2074.0,2038.0,2049.0,0,
2082.0,2066.0,2045.0,2050.0,0,
2092.0,2057.0,2045.0,2052.0,0,
2098.0,2047.0,2046.0,2054.0,0,
2100.0,2043.0,2047.0,2052.0,0,
2112.0,2040.0,2040.0,2051.0,0.0,0.0,0.0,
2152.0,2065.0,2049.0,2051.0,0.0,0.0,0.0,
2178.0,2064.0,2046.0,2052.0,0,
2206.0,2068.0,2048.0,2056.0,0,
2233.0,2083.0,2050.0,2057.0,0,
2249.0,2099.0,2041.0,2054.0,0,
2245.0,2108.0,2040.0,2050.0,0,
2237.0,2103.0,2035.0,2045.0,0,
2135.0,2144.0,2011.0,2031.0,0,
2141.0,2191.0,2020.0,2036.0,0,
2152.0,2180.0,2029.0,2046.0,0,
2164.0,2120.0,2038.0,2047.0,0,
2166.0,2045.0,2037.0,2046.0,0,
2162.0,1975.0,2037.0,2050.0,0.0,0.0,0.0,
2152.0,1930.0,2038.0,2048.0,0.0,0.0,0.0,
2138.0,1933.0,2033.0,2051.0,0.0,0.0,0.0,
2142.0,1985.0,2043.0,2054.0,0.0,0.0,0.0,
2156.0,2059.0,2044.0,2053.0,0,
2186.0,2104.0,2047.0,2055.0,0,
2216.0,2113.0,2048.0,2052.0,0,
2231.0,2094.0,2031.0,2054.0,0,
2203.0,1952.0,2033.0,2043.0,0,
2207.0,1949.0,2042.0,2050.0,0,
2203.0,1961.0,2047.0,2050.0,0,
2190.0,1991.0,2065.0,2050.0,0,
2184.0,2011.0,2054.0,2038.0,0,
2166.0,2037.0,2056.0,2051.0,0,
2147.0,2043.0,2057.0,2051.0,0,
2125.0,2065.0,2048.0,2051.0,0,
2107.0,2074.0,2053.0,2051.0,0,
2086.0,2080.0,2053.0,2051.0,0,
2073.0,2083.0,2053.0,2047.0,0,
2059.0,2079.0,2053.0,2049.0,0,
2042.0,2075.0,2049.0,2048.0,0,
1941.0,2068.0,2032.0,2033.0,0,
1920.0,2080.0,2051.0,2042.0,0,
1897.0,2095.0,2049.0,2046.0,0,
1862.0,2086.0,2051.0,2045.0,0,
1833.0,2113.0,2053.0,2043.0,0.0,1.0,0.0,
1807.0,2109.0,2053.0,2045.0,0.0,1.0,-1.0,
1780.0,2108.0,2051.0,2045.0,0,
1731.0,2103.0,2052.0,2042.0,0,
1693.0,2104.0,2051.0,2040.0,0,
1659.0,2097.0,2048.0,2039.0,0,
1637.0,2094.0,2049.0,2039.0,0,
1624.0,2088.0,2066.0,2037.0,0,
1629.0,2085.0,2047.0,2038.0,0,
1671.0,2068.0,2023.0,2042.0,0,
1696.0,2069.0,2036.0,2030.0,0,
1722.0,2071.0,2037.0,2034.0,0,
1744.0,2067.0,2044.0,2037.0,0,
1774.0,2069.0,2046.0,2035.0,-1.0,1.0,-1.0,
1788.0,2063.0,2044.0,2035.0,-1.0,1.0,-1.0,
1828.0,2063.0,2046.0,2037.0,-1.0,1.0,-1.0,
1874.0,2065.0,2044.0,2036.0,-1.0,1.0,-1.0,
1910.0,2062.0,2047.0,2037.0,0,
1937.0,2056.0,2044.0,2036.0,0,
1975.0,2059.0,2047.0,2038.0,0,
2015.0,2050.0,2048.0,2038.0,0,
2038.0,2047.0,2047.0,2039.0,0,
2061.0,2053.0,2048.0,2039.0,0,
2118.0,2021.0,2027.0,2033.0,0,
2159.0,2035.0,2042.0,2038.0,0,
2221.0,2041.0,2047.0,2059.0,0,
2297.0,2054.0,2054.0,2052.0,0,
2366.0,2060.0,2061.0,2054.0,0,
2405.0,2074.0,2062.0,2057.0,0,
2427.0,2081.0,2062.0,2062.0,0,
2402.0,2095.0,2062.0,2061.0,0,
2378.0,2099.0,2063.0,2061.0,0,
2357.0,2101.0,2064.0,2056.0,0,
2320.0,2101.0,2058.0,2053.0,0,
2285.0,2104.0,2057.0,2052.0,0,
2201.0,2096.0,2031.0,2034.0,0,
2193.0,2108.0,2036.0,2038.0,0,
2187.0,2118.0,2041.0,2040.0,0,
2172.0,2120.0,2042.0,2042.0,-1.0,1.0,-1.0,
2166.0,2123.0,2046.0,2043.0,-1.0,1.0,-1.0,
2160.0,2126.0,2044.0,2041.0,0,
2156.0,2129.0,2048.0,2039.0,0,
2151.0,2134.0,2042.0,2038.0,0,
2135.0,2133.0,2037.0,2037.0,0,
2099.0,2127.0,2035.0,2036.0,-1.0,1.0,-1.0,
2056.0,2118.0,2031.0,2032.0,0,
1991.0,2100.0,2036.0,2033.0,0,
1931.0,2086.0,2039.0,2031.0,0,
1868.0,2073.0,2036.0,2029.0,0,
1778.0,2043.0,2017.0,2016.0,0,
1794.0,2050.0,2021.0,2021.0,0,
1794.0,2060.0,2030.0,2023.0,0,
1798.0,2059.0,2036.0,2028.0,0,
1803.0,2062.0,2035.0,2034.0,0,
1810.0,2055.0,2035.0,2032.0,0,
1821.0,2052.0,2031.0,2036.0,0,
1823.0,2048.0,2036.0,2036.0,0,
1827.0,2045.0,2030.0,2040.0,0,
1826.0,2046.0,2033.0,2038.0,0,
1807.0,2048.0,2035.0,2038.0,0,
1805.0,2049.0,2034.0,2042.0,0,
1800.0,2038.0,2023.0,2032.0,-1.0,1.0,-1.0,
1834.0,2041.0,2037.0,2038.0,-1.0,1.0,-1.0,
1832.0,2042.0,2045.0,2045.0,-1.0,1.0,-1.0,
1778.0,2034.0,2045.0,2045.0,0,
1705.0,2027.0,2050.0,2041.0,0,
1661.0,2018.0,2053.0,2039.0,0,
1642.0,2000.0,2051.0,2037.0,0,
1661.0,2003.0,2049.0,2034.0,0,
1688.0,1996.0,2051.0,2030.0,0,
1733.0,2009.0,2054.0,2031.0,0,
1796.0,2021.0,2058.0,2031.0,0,
1857.0,2048.0,2062.0,2036.0,0,
1922.0,2064.0,2072.0,2043.0,0,
1981.0,2077.0,2070.0,2050.0,0,
2093.0,2135.0,2055.0,2039.0,0,
2128.0,2154.0,2071.0,2044.0,-1.0,1.0,-1.0,
2175.0,2160.0,2054.0,2049.0,-1.0,1.0,-1.0,
2243.0,2160.0,2074.0,2048.0,0,
2314.0,2156.0,2069.0,2050.0,0,
2374.0,2139.0,2072.0,2054.0,0,
2413.0,2122.0,2068.0,2057.0,0,
2465.0,2061.0,2065.0,2060.0,0,
2501.0,2002.0,2064.0,2061.0,0,
2551.0,1956.0,2063.0,2062.0,0,
2606.0,1915.0,2053.0,2061.0,0,
2656.0,1869.0,2053.0,2056.0,0,
2704.0,1863.0,2053.0,2063.0,0,
2706.0,2033.0,2042.0,2058.0,0,
2695.0,2112.0,2052.0,2068.0,-1.0,1.0,-1.0,
2675.0,2185.0,2060.0,2070.0,-1.0,1.0,-1.0,
2644.0,2265.0,2065.0,2073.0,-1.0,1.0,-1.0,
2616.0,2331.0,2068.0,2075.0,-1.0,1.0,-1.0,
2591.0,2384.0,2067.0,2081.0,0,
2585.0,2427.0,2067.0,2080.0,0,
2570.0,2451.0,2068.0,2078.0,0,
2552.0,2439.0,2057.0,2080.0,0,
2527.0,2423.0,2065.0,2077.0,0,
2481.0,2418.0,2065.0,2076.0,0,
2411.0,2386.0,2057.0,2068.0,0,
2327.0,2375.0,2050.0,2064.0,0,
2059.0,2092.0,2005.0,2034.0,0,
2020.0,1918.0,2017.0,2038.0,0,
2000.0,1818.0,2023.0,2038.0,0,
2012.0,1763.0,2028.0,2038.0,0,
2059.0,1751.0,2035.0,2037.0,0,
2110.0,1764.0,2039.0,2043.0,0,
2156.0,1770.0,2046.0,2046.0,0,
2205.0,1712.0,2046.0,2055.0,0,
2207.0,1662.0,2053.0,2053.0,0,
2188.0,1671.0,2056.0,2056.0,0,
2165.0,1740.0,2059.0,2056.0,0,
2136.0,1864.0,2057.0,2054.0,0,
2110.0,1992.0,2059.0,2054.0,0,
2058.0,2183.0,2039.0,2042.0,-1.0,1.0,-1.0,
2066.0,2161.0,2047.0,2049.0,-1.0,1.0,-1.0,
2060.0,2127.0,2051.0,2051.0,0,
2046.0,2098.0,2054.0,2050.0,0,
2065.0,2073.0,2054.0,2051.0,0,
2083.0,2057.0,2051.0,2051.0,0,
2094.0,2035.0,2052.0,2050.0,0,
2100.0,1969.0,2050.0,2055.0,0,
2098.0,1910.0,2042.0,2048.0,0,
2109.0,1863.0,2042.0,2047.0,0,
2123.0,1849.0,2043.0,2049.0,0,
2111.0,1872.0,2038.0,2047.0,0,
2085.0,1911.0,2035.0,2045.0,0,
1864.0,1997.0,2018.0,2032.0,-1.0,1.0,-1.0,
1849.0,2014.0,2028.0,2038.0,-1.0,1.0,-1.0,
1854.0,2008.0,2028.0,2040.0,-1.0,1.0,-1.0,
1879.0,2003.0,2037.0,2040.0,0,
1906.0,2004.0,2037.0,2040.0,0,
1905.0,2007.0,2039.0,2044.0,0,
1950.0,2002.0,2041.0,2046.0,0,
1973.0,1990.0,2038.0,2049.0,0,
1979.0,1973.0,2042.0,2051.0,0,
1969.0,1948.0,2044.0,2054.0,0,
1958.0,1919.0,2048.0,2054.0,0,
1932.0,1890.0,2051.0,2053.0,0,
1913.0,1870.0,2050.0,2053.0,0,
1840.0,1888.0,2039.0,2054.0,0,
1835.0,1917.0,2051.0,2055.0,0,
1840.0,1946.0,2056.0,2058.0,0,
1842.0,1978.0,2059.0,2055.0,0,
1835.0,1980.0,2056.0,2055.0,0,
1822.0,1995.0,2054.0,2054.0,0,
1811.0,2012.0,2057.0,2052.0,0,
1814.0,2063.0,2052.0,2048.0,0,
1823.0,2087.0,2051.0,2044.0,0,
1834.0,2141.0,2046.0,2043.0,0,
1846.0,2197.0,2044.0,2042.0,0,
1866.0,2270.0,2045.0,2043.0,0,
1911.0,2329.0,2044.0,2037.0,0,
1891.0,2372.0,2038.0,2043.0,-1.0,1.0,-1.0,
1777.0,2199.0,2004.0,2027.0,-1.0,1.0,-1.0,
1768.0,2160.0,2016.0,2034.0,0,
1760.0,2143.0,2019.0,2038.0,0,
1761.0,2141.0,2029.0,2037.0,0,
1775.0,2151.0,2033.0,2040.0,0,
1784.0,2172.0,2038.0,2030.0,0,
1793.0,2193.0,2046.0,2040.0,0,
1814.0,2210.0,2051.0,2046.0,0,
1833.0,2205.0,2049.0,2047.0,0,
1851.0,2197.0,2055.0,2049.0,0,
1862.0,2184.0,2057.0,2046.0,0,
1872.0,2173.0,2055.0,2048.0,-1.0,1.0,-1.0,
1870.0,2125.0,2036.0,2036.0,-1.0,2.0,-1.0,
1864.0,2122.0,2048.0,2042.0,-1.0,2.0,-1.0,
1837.0,2118.0,2055.0,2045.0,0.0,2.0,-1.0,
1798.0,2111.0,2059.0,2047.0,0,
1785.0,2116.0,2042.0,2046.0,0,
1779.0,2120.0,2055.0,2047.0,0,
1786.0,2120.0,2051.0,2045.0,0,
1800.0,2113.0,2052.0,2047.0,0,
1808.0,2107.0,2052.0,2043.0,0,
1824.0,2105.0,2055.0,2040.0,0,
1850.0,2098.0,2054.0,2039.0,0,
1882.0,2090.0,2052.0,2039.0,0,
1912.0,2086.0,2049.0,2037.0,0,
1949.0,2087.0,2051.0,2036.0,0,
2052.0,2052.0,2018.0,2027.0,0,
2082.0,2056.0,2028.0,2029.0,0,
2112.0,2067.0,2032.0,2032.0,0,
2134.0,2076.0,2034.0,2033.0,0,
2144.0,2079.0,2030.0,2034.0,0,
2154.0,2088.0,2029.0,2027.0,0,
2161.0,2088.0,2026.0,2025.0,0,
2172.0,2096.0,2023.0,2024.0,0,
2189.0,2095.0,2024.0,2022.0,0,
2210.0,2097.0,2026.0,2021.0,0,
2249.0,2092.0,2028.0,2025.0,0,
2298.0,2086.0,2031.0,2025.0,0.0,2.0,-1.0,
2333.0,2103.0,2041.0,2028.0,0.0,2.0,-1.0,
2296.0,2095.0,2022.0,2025.0,0,
2269.0,2092.0,2036.0,2035.0,0,
2230.0,2093.0,2048.0,2039.0,0,
2194.0,2086.0,2056.0,2042.0,0,
2161.0,2083.0,2058.0,2046.0,0,
2135.0,2077.0,2061.0,2050.0,0,
2112.0,2075.0,2065.0,2050.0,0,
2091.0,2074.0,2068.0,2051.0,0,
2084.0,2076.0,2065.0,2051.0,0,
2078.0,2081.0,2071.0,2054.0,0,
2071.0,2082.0,2073.0,2054.0,0.0,2.0,-1.0,
2060.0,2084.0,2052.0,2057.0,0.0,2.0,-1.0,
2037.0,2086.0,2073.0,2052.0,0.0,2.0,-1.0,
1942.0,2060.0,2047.0,2045.0,0.0,3.0,-1.0,
1936.0,2066.0,2055.0,2054.0,0,
1916.0,2063.0,2060.0,2049.0,0,
1894.0,2059.0,2060.0,2047.0,0,
1871.0,2054.0,2061.0,2044.0,0,
1853.0,2058.0,2062.0,2044.0,0,
1835.0,2060.0,2061.0,2046.0,0,
1834.0,2061.0,2062.0,2044.0,0,
1850.0,2057.0,2062.0,2044.0,0,
1881.0,2053.0,2062.0,2046.0,0,
1921.0,2057.0,2061.0,2047.0,0,
1965.0,2054.0,2060.0,2048.0,0,
1994.0,2050.0,2056.0,2045.0,0,
2064.0,2037.0,2036.0,2036.0,0,
2095.0,2037.0,2044.0,2042.0,0,
2117.0,2040.0,2048.0,2044.0,0,
2116.0,2036.0,2048.0,2041.0,0,
2117.0,2035.0,2045.0,2045.0,0,
2118.0,2031.0,2051.0,2037.0,0,
2140.0,2036.0,2042.0,2039.0,0,
2196.0,2041.0,2041.0,2037.0,0,
2230.0,2045.0,2043.0,2040.0,0,
2248.0,2046.0,2042.0,2042.0,0,
2238.0,2046.0,2042.0,2041.0,0.0,3.0,-1.0,
2221.0,2053.0,2040.0,2044.0,0.0,3.0,-1.0,
2202.0,2051.0,2043.0,2044.0,0.0,3.0,-1.0,
2022.0,2018.0,2018.0,2039.0,0.0,3.0,-1.0,
1993.0,2033.0,2028.0,2049.0,0,
1980.0,2048.0,2037.0,2050.0,0,
1980.0,2058.0,2040.0,2051.0,0,
1992.0,2059.0,2044.0,2049.0,0,
2025.0,2060.0,2049.0,2055.0,0,
2052.0,2057.0,2048.0,2056.0,0,
2079.0,2054.0,2050.0,2054.0,0,
2090.0,2049.0,2051.0,2055.0,0,
2083.0,2036.0,2055.0,2060.0,0,
2093.0,2013.0,2054.0,2050.0,0,
2088.0,1991.0,2048.0,2049.0,0,
2084.0,1974.0,2055.0,2049.0,0,
2004.0,1939.0,2032.0,2036.0,0,
2001.0,1946.0,2042.0,2039.0,0,
2012.0,1959.0,2047.0,2039.0,0,
2030.0,1969.0,2048.0,2038.0,0,
2042.0,1979.0,2047.0,2044.0,0,
2035.0,1988.0,2045.0,2044.0,0,
2009.0,2011.0,2046.0,2044.0,0,
1974.0,2067.0,2046.0,2046.0,0,
1967.0,2121.0,2059.0,2045.0,0,
1973.0,2187.0,2049.0,2049.0,0.0,3.0,-1.0,
1990.0,2238.0,2050.0,2052.0,0.0,4.0,-1.0,
2006.0,2260.0,2051.0,2048.0,0,
2025.0,2269.0,2048.0,2053.0,0,
2042.0,2256.0,2051.0,2052.0,0,
2176.0,2171.0,2024.0,2042.0,0,
2218.0,2167.0,2035.0,2045.0,0,
2274.0,2165.0,2048.0,2050.0,0,
2327.0,2166.0,2050.0,2052.0,0,
2360.0,2164.0,2051.0,2051.0,0,
2366.0,2166.0,2045.0,2051.0,0,
2360.0,2156.0,2049.0,2051.0,0,
2314.0,2165.0,2048.0,2046.0,0,
2281.0,2163.0,2048.0,2047.0,0.0,4.0,-1.0,
2262.0,2166.0,2049.0,2044.0,0.0,4.0,-1.0,
2256.0,2164.0,2046.0,2047.0,0.0,4.0,-1.0,
2259.0,2153.0,2047.0,2046.0,0.0,4.0,-1.0,
2107.0,2058.0,2026.0,2031.0,0,
2081.0,2036.0,2036.0,2032.0,0,
2047.0,2025.0,2042.0,2028.0,0,
2002.0,2019.0,2042.0,2028.0,0,
1970.0,2014.0,2041.0,2030.0,0,
1954.0,1997.0,2040.0,2032.0,0,
1963.0,1964.0,2037.0,2035.0,0,
1994.0,1869.0,2037.0,2039.0,0,
2036.0,1833.0,2040.0,2042.0,0,
2065.0,1848.0,2041.0,2049.0,0,
2095.0,1892.0,2044.0,2051.0,0,
2129.0,1921.0,2050.0,2056.0,0,
2164.0,1939.0,2050.0,2059.0,0,
2194.0,1932.0,2052.0,2064.0,0,
2138.0,1999.0,2035.0,2054.0,0,
2132.0,2025.0,2047.0,2058.0,0,
2134.0,2057.0,2046.0,2060.0,0,
2128.0,2087.0,2054.0,2060.0,0,
2118.0,2111.0,2060.0,2059.0,0,
2094.0,2133.0,2059.0,2058.0,0,
2061.0,2163.0,2056.0,2061.0,0,
2015.0,2233.0,2059.0,2059.0,0.0,4.0,-1.0,
1994.0,2271.0,2054.0,2057.0,0.0,5.0,-1.0,
1973.0,2282.0,2058.0,2055.0,0,
1960.0,2276.0,2061.0,2056.0,0,
1961.0,2251.0,2056.0,2053.0,0,
1965.0,2214.0,2050.0,2053.0,0,
1999.0,2068.0,2032.0,2038.0,0,
2025.0,2043.0,2043.0,2046.0,0,
2036.0,2020.0,2048.0,2049.0,0,
2021.0,1981.0,2049.0,2049.0,0,
2007.0,1907.0,2048.0,2048.0,0,
2000.0,1814.0,2050.0,2048.0,0,
2003.0,1755.0,2051.0,2049.0,0,
2034.0,1761.0,2050.0,2048.0,0.0,5.0,-1.0,
2075.0,1805.0,2054.0,2049.0,0.0,5.0,-1.0,
2075.0,1862.0,2053.0,2047.0,0.0,5.0,-1.0,
2061.0,1941.0,2053.0,2049.0,0,
2039.0,2050.0,2053.0,2046.0,0,
2015.0,2142.0,2055.0,2043.0,0,
2016.0,2349.0,2030.0,2034.0,0,
2031.0,2429.0,2044.0,2040.0,0,
2030.0,2511.0,2055.0,2044.0,0,
2007.0,2559.0,2061.0,2046.0,0,
1967.0,2561.0,2062.0,2046.0,0,
1929.0,2515.0,2058.0,2048.0,0,
1880.0,2479.0,2055.0,2042.0,0,
1820.0,2425.0,2047.0,2043.0,0,
1797.0,2386.0,2051.0,2043.0,0,
1784.0,2331.0,2048.0,2040.0,0,
1765.0,2262.0,2045.0,2039.0,0,
1747.0,2180.0,2044.0,2037.0,0,
1731.0,2088.0,2043.0,2039.0,0,
1758.0,1574.0,2012.0,2029.0,0,
1807.0,1406.0,2024.0,2039.0,0,
1847.0,1276.0,2030.0,2041.0,0,
1888.0,1195.0,2035.0,2046.0,0,
1920.0,1226.0,2039.0,2045.0,0,
1953.0,1333.0,2040.0,2042.0,0,
1998.0,1504.0,2058.0,2044.0,0,
2075.0,1765.0,2050.0,2047.0,0.0,5.0,-1.0,
2120.0,1916.0,2049.0,2046.0,0.0,6.0,-1.0,
2157.0,2011.0,2050.0,2048.0,0,
2177.0,2053.0,2051.0,2050.0,0,
2197.0,2059.0,2049.0,2053.0,0,
2239.0,2063.0,2050.0,2054.0,0,
2344.0,2246.0,2035.0,2050.0,0,
2332.0,2255.0,2042.0,2054.0,0,
2306.0,2224.0,2047.0,2069.0,0,
2277.0,2187.0,2045.0,2058.0,0,
2244.0,2142.0,2045.0,2058.0,0,
2218.0,2111.0,2042.0,2056.0,0,
