LabVIEW Measurement,
Writer_Version,2
Reader_Version,2
Separator,Comma
Decimal_Separator,.
Multi_Headings,No
X_Columns,Multi
Time_Pref,Absolute
Operator,Dymnz
Date,2017/08/29
Time,13:20:19.4534843833531361136
***End_of_Header***,
,
Channels,1,
Samples,1000,
Date,2017/08/29,
Time,13:20:19.4534843833531361136,
Y_Unit_Label,Volts,
X_Dimension,Time,
X0,0.0000000000000000E+0,
Delta_X,0.001000,
***End_of_Header***,,
X_Value,Voltage,Comment
0.000000,-1.631617
0.001000,-1.649437
0.002000,-1.721988
0.003000,-1.583249
0.004000,-1.463603
0.005000,-1.459785
0.006000,-1.431783
0.007000,-1.399962
0.008000,-1.412690
0.009000,-1.413963
0.010000,-1.408872
0.011000,-1.415236
0.012000,-1.312137
0.013000,-1.296863
0.014000,-1.354140
0.015000,-1.467422
0.016000,-1.555247
0.017000,-1.594705
0.018000,-1.593432
0.019000,-1.713078
0.020000,-1.719442
0.021000,-1.727079
0.022000,-1.631617
0.023000,-1.601069
0.024000,-1.534882
0.025000,-1.449602
0.026000,-1.347776
0.027000,-1.266315
0.028000,-1.253586
0.029000,-1.231948
0.030000,-1.024477
0.031000,-1.133940
0.032000,-1.417782
0.033000,-1.485242
0.034000,-1.513244
0.035000,-1.515789
0.036000,-1.528518
0.037000,-1.517062
0.038000,-1.495424
0.039000,-1.424146
0.040000,-1.453421
0.041000,-1.482696
0.042000,-1.541246
0.043000,-1.384688
0.044000,-1.244677
0.045000,-1.285407
0.046000,-1.379597
0.047000,-1.463603
0.048000,-1.589614
0.049000,-1.616343
0.050000,-1.678712
0.051000,-1.662165
0.052000,-1.597251
0.053000,-1.606160
0.054000,-1.671075
0.055000,-1.691440
0.056000,-1.615070
0.057000,-1.545065
0.058000,-1.496697
0.059000,-1.472513
0.060000,-1.453421
0.061000,-1.457239
0.062000,-1.471240
0.063000,-1.492879
0.064000,-1.580704
0.065000,-1.594705
0.066000,-1.534882
0.067000,-1.459785
0.068000,-1.431783
0.069000,-1.383415
0.070000,-1.350322
0.071000,-1.407599
0.072000,-1.352867
0.073000,-1.312137
0.074000,-1.478877
0.075000,-1.620162
0.076000,-1.144123
0.077000,-1.030841
0.078000,-1.044842
0.079000,-1.043570
0.080000,-1.387234
0.081000,-1.662165
0.082000,-1.891274
0.083000,-2.010920
0.084000,-2.080926
0.085000,-2.035104
0.086000,-1.971463
0.087000,-1.882365
0.088000,-1.756354
0.089000,-1.585795
0.090000,-1.463603
0.091000,-1.457239
0.092000,-1.478877
0.093000,-1.436874
0.094000,-1.301954
0.095000,-1.352867
0.096000,-1.374505
0.097000,-1.345230
0.098000,-1.290499
0.099000,-1.349049
0.100000,-1.489060
0.101000,-1.593432
0.102000,-1.653255
0.103000,-1.682530
0.104000,-1.615070
0.105000,-1.581977
0.106000,-1.545065
0.107000,-1.579431
0.108000,-1.580704
0.109000,-1.496697
0.110000,-1.587068
0.111000,-1.627799
0.112000,-1.541246
0.113000,-1.406326
0.114000,-1.337593
0.115000,-1.245950
0.116000,-1.153033
0.117000,-1.214129
0.118000,-1.308318
0.119000,-1.384688
0.120000,-1.396143
0.121000,-1.462331
0.122000,-1.490333
0.123000,-1.463603
0.124000,-1.463603
0.125000,-1.459785
0.126000,-1.469968
0.127000,-1.476332
0.128000,-1.514517
0.129000,-1.589614
0.130000,-1.569248
0.131000,-1.491606
0.132000,-1.495424
0.133000,-1.547610
0.134000,-1.597251
0.135000,-1.573067
0.136000,-1.519608
0.137000,-1.343957
0.138000,-1.347776
0.139000,-1.434328
0.140000,-1.453421
0.141000,-1.477605
0.142000,-1.483969
0.143000,-1.434328
0.144000,-1.388506
0.145000,-1.369414
0.146000,-1.468695
0.147000,-1.508152
0.148000,-1.477605
0.149000,-1.476332
0.150000,-1.359231
0.151000,-1.289226
0.152000,-1.243404
0.153000,-1.392325
0.154000,-1.441965
0.155000,-1.494151
0.156000,-1.559066
0.157000,-1.525972
0.158000,-1.585795
0.159000,-1.659619
0.160000,-1.643072
0.161000,-1.585795
0.162000,-1.612525
0.163000,-1.646891
0.164000,-1.587068
0.165000,-1.490333
0.166000,-1.469968
0.167000,-1.480150
0.168000,-1.475059
0.169000,-1.103393
0.170000,-1.079209
0.171000,-1.170853
0.172000,-1.349049
0.173000,-1.616343
0.174000,-1.877273
0.175000,-1.872182
0.176000,-1.784357
0.177000,-1.711805
0.178000,-1.732171
0.179000,-1.732171
0.180000,-1.699077
0.181000,-1.617616
0.182000,-1.513244
0.183000,-1.426691
0.184000,-1.453421
0.185000,-1.589614
0.186000,-1.611252
0.187000,-1.489060
0.188000,-1.445784
0.189000,-1.431783
0.190000,-1.407599
0.191000,-1.445784
0.192000,-1.467422
0.193000,-1.466149
0.194000,-1.515789
0.195000,-0.971018
0.196000,-0.668085
0.197000,-0.828461
0.198000,-1.265042
0.199000,-1.613797
0.200000,-1.799631
0.201000,-1.911640
0.202000,-1.976554
0.203000,-1.990555
0.204000,-1.886183
0.205000,-1.807268
0.206000,-1.674893
0.207000,-1.514517
0.208000,-1.459785
0.209000,-1.448329
0.210000,-1.438147
0.211000,-1.422873
0.212000,-1.459785
0.213000,-1.477605
0.214000,-1.497970
0.215000,-1.499243
0.216000,-1.475059
0.217000,-1.453421
0.218000,-1.467422
0.219000,-1.431783
0.220000,-1.419054
0.221000,-1.458512
0.222000,-1.466149
0.223000,-1.438147
0.224000,-1.468695
0.225000,-1.538700
0.226000,-1.477605
0.227000,-1.459785
0.228000,-1.473786
0.229000,-1.433056
0.230000,-1.405053
0.231000,-1.380869
0.232000,-1.450875
0.233000,-1.388506
0.234000,-1.380869
0.235000,-1.537428
0.236000,-1.612525
0.237000,-1.640527
0.238000,-1.534882
0.239000,-1.365596
0.240000,-1.468695
0.241000,-1.467422
0.242000,-1.441965
0.243000,-1.368141
0.244000,-1.312137
0.245000,-1.303227
0.246000,-1.324865
0.247000,-1.368141
0.248000,-1.421600
0.249000,-1.483969
0.250000,-1.524699
0.251000,-1.468695
0.252000,-1.393598
0.253000,-1.477605
0.254000,-1.653255
0.255000,-1.769083
0.256000,-1.835270
0.257000,-1.777992
0.258000,-1.715624
0.259000,-1.567976
0.260000,-1.545065
0.261000,-1.567976
0.262000,-1.573067
0.263000,-1.349049
0.264000,-1.055025
0.265000,-1.168307
0.266000,-1.324865
0.267000,-1.542519
0.268000,-1.674893
0.269000,-1.687622
0.270000,-1.691440
0.271000,-1.674893
0.272000,-1.640527
0.273000,-1.590886
0.274000,-1.589614
0.275000,-1.545065
0.276000,-1.510698
0.277000,-1.398689
0.278000,-1.331229
0.279000,-1.366868
0.280000,-1.401235
0.281000,-1.445784
0.282000,-1.427964
0.283000,-1.424146
0.284000,-1.458512
0.285000,-1.520881
0.286000,-1.485242
0.287000,-1.389779
0.288000,-1.380869
0.289000,-1.401235
0.290000,-1.413963
0.291000,-1.411417
0.292000,-1.487787
0.293000,-1.478877
0.294000,-1.478877
0.295000,-1.542519
0.296000,-1.532336
0.297000,-1.515789
0.298000,-1.503061
0.299000,-1.439420
0.300000,-1.366868
0.301000,-1.253586
0.302000,-1.375778
0.303000,-1.536155
0.304000,-1.645618
0.305000,-1.713078
0.306000,-1.755082
0.307000,-1.724534
0.308000,-1.676166
0.309000,-1.643072
0.310000,-1.609979
0.311000,-1.562884
0.312000,-1.469968
0.313000,-1.387234
0.314000,-1.328683
0.315000,-1.338866
0.316000,-1.359231
0.317000,-1.412690
0.318000,-1.475059
0.319000,-1.495424
0.320000,-1.566703
0.321000,-1.632890
0.322000,-1.555247
0.323000,-1.564157
0.324000,-1.567976
0.325000,-1.536155
0.326000,-1.529791
0.327000,-1.462331
0.328000,-1.422873
0.329000,-1.424146
0.330000,-1.505607
0.331000,-1.550156
0.332000,-1.618889
0.333000,-1.523426
0.334000,-1.434328
0.335000,-1.378324
0.336000,-1.317228
0.337000,-1.289226
0.338000,-1.282862
0.339000,-1.276497
0.340000,-1.286680
0.341000,-1.357959
0.342000,-1.448329
0.343000,-1.525972
0.344000,-1.580704
0.345000,-1.573067
0.346000,-1.710532
0.347000,-1.691440
0.348000,-1.643072
0.349000,-1.621434
0.350000,-1.570521
0.351000,-1.531063
0.352000,-1.421600
0.353000,-1.377051
0.354000,-1.373233
0.355000,-1.433056
0.356000,-1.450875
0.357000,-1.536155
0.358000,-1.640527
0.359000,-1.678712
0.360000,-1.648164
0.361000,-1.618889
0.362000,-1.534882
0.363000,-1.560339
0.364000,-1.562884
0.365000,-1.639254
0.366000,-1.744899
0.367000,-1.723261
0.368000,-1.644345
0.369000,-1.533609
0.370000,-1.351594
0.371000,-1.317228
0.372000,-1.346503
0.373000,-1.343957
0.374000,-1.341412
0.375000,-1.427964
0.376000,-1.388506
0.377000,-1.249768
0.378000,-1.281589
0.379000,-1.331229
0.380000,-1.360504
0.381000,-1.363050
0.382000,-1.396143
0.383000,-1.354140
0.384000,-1.086846
0.385000,-0.941743
0.386000,-1.175944
0.387000,-1.345230
0.388000,-1.571794
0.389000,-1.707987
0.390000,-1.784357
0.391000,-1.819996
0.392000,-1.831451
0.393000,-1.760173
0.394000,-1.673620
0.395000,-1.710532
0.396000,-1.601069
0.397000,-1.491606
0.398000,-1.412690
0.399000,-1.328683
0.400000,-1.394871
0.401000,-1.503061
0.402000,-1.657074
0.403000,-1.601069
0.404000,-1.548883
0.405000,-1.455966
0.406000,-1.285407
0.407000,-1.333775
0.408000,-1.392325
0.409000,-1.447057
0.410000,-1.444511
0.411000,-1.495424
0.412000,-1.551429
0.413000,-1.534882
0.414000,-1.515789
0.415000,-1.350322
0.416000,-1.063935
0.417000,-1.196309
0.418000,-1.466149
0.419000,-1.748717
0.420000,-1.812359
0.421000,-1.853089
0.422000,-1.809813
0.423000,-1.845452
0.424000,-1.830178
0.425000,-1.687622
0.426000,-1.576885
0.427000,-1.539973
0.428000,-1.632890
0.429000,-1.644345
0.430000,-1.598523
0.431000,-1.588341
0.432000,-1.645618
0.433000,-1.397416
0.434000,-1.354140
0.435000,-1.397416
0.436000,-1.375778
0.437000,-1.296863
0.438000,-1.247222
0.439000,-1.268860
0.440000,-1.281589
0.441000,-1.313410
0.442000,-1.375778
0.443000,-1.452148
0.444000,-1.464876
0.445000,-1.565430
0.446000,-1.539973
0.447000,-1.513244
0.448000,-1.455966
0.449000,-1.408872
0.450000,-1.392325
0.451000,-1.468695
0.452000,-1.551429
0.453000,-1.571794
0.454000,-1.608706
0.455000,-1.575612
0.456000,-1.520881
0.457000,-1.496697
0.458000,-1.495424
0.459000,-1.531063
0.460000,-1.480150
0.461000,-1.421600
0.462000,-1.326138
0.463000,-1.284134
0.464000,-1.257405
0.465000,-1.267588
0.466000,-1.327411
0.467000,-1.431783
0.468000,-1.489060
0.469000,-1.496697
0.470000,-1.471240
0.471000,-1.443238
0.472000,-1.504334
0.473000,-1.529791
0.474000,-1.515789
0.475000,-1.497970
0.476000,-1.501788
0.477000,-1.455966
0.478000,-1.528518
0.479000,-1.195036
0.480000,-1.149214
0.481000,-1.276497
0.482000,-1.514517
0.483000,-1.603615
0.484000,-1.724534
0.485000,-1.863272
0.486000,-1.842907
0.487000,-1.728352
0.488000,-1.627799
0.489000,-1.504334
0.490000,-1.497970
0.491000,-1.515789
0.492000,-1.482696
0.493000,-1.407599
0.494000,-1.331229
0.495000,-1.371960
0.496000,-1.514517
0.497000,-1.515789
0.498000,-1.651982
0.499000,-1.734716
0.500000,-1.655801
0.501000,-1.469968
0.502000,-1.371960
0.503000,-1.326138
0.504000,-1.396143
0.505000,-1.461058
0.506000,-1.529791
0.507000,-1.597251
0.508000,-1.741080
0.509000,-1.881092
0.510000,-1.819996
0.511000,-1.632890
0.512000,-1.500516
0.513000,-1.495424
0.514000,-1.490333
0.515000,-1.501788
0.516000,-1.504334
0.517000,-1.533609
0.518000,-1.489060
0.519000,-1.439420
0.520000,-1.411417
0.521000,-1.417782
0.522000,-1.438147
0.523000,-1.443238
0.524000,-1.391052
0.525000,-1.375778
0.526000,-1.454694
0.527000,-1.589614
0.528000,-1.580704
0.529000,-1.565430
0.530000,-1.570521
0.531000,-1.506880
0.532000,-1.482696
0.533000,-1.468695
0.534000,-1.472513
0.535000,-1.537428
0.536000,-1.520881
0.537000,-1.452148
0.538000,-1.425419
0.539000,-1.402508
0.540000,-1.380869
0.541000,-1.477605
0.542000,-1.555247
0.543000,-1.511971
0.544000,-1.443238
0.545000,-1.291771
0.546000,-1.168307
0.547000,-1.181035
0.548000,-1.301954
0.549000,-1.406326
0.550000,-1.434328
0.551000,-1.030841
0.552000,-1.077936
0.553000,-1.266315
0.554000,-1.567976
0.555000,-1.893820
0.556000,-2.018557
0.557000,-1.965098
0.558000,-1.830178
0.559000,-1.783084
0.560000,-1.657074
0.561000,-1.571794
0.562000,-1.461058
0.563000,-1.396143
0.564000,-1.328683
0.565000,-1.300681
0.566000,-1.256132
0.567000,-1.315955
0.568000,-1.468695
0.569000,-1.473786
0.570000,-1.443238
0.571000,-1.592159
0.572000,-1.687622
0.573000,-1.713078
0.574000,-1.636708
0.575000,-1.571794
0.576000,-1.503061
0.577000,-1.431783
0.578000,-1.433056
0.579000,-1.445784
0.580000,-1.450875
0.581000,-1.486514
0.582000,-1.491606
0.583000,-1.452148
0.584000,-1.441965
0.585000,-1.314682
0.586000,-1.257405
0.587000,-1.296863
0.588000,-1.215402
0.589000,-0.981201
0.590000,-1.137759
0.591000,-1.341412
0.592000,-1.494151
0.593000,-1.643072
0.594000,-1.711805
0.595000,-1.853089
0.596000,-1.962553
0.597000,-1.975281
0.598000,-1.779265
0.599000,-1.690167
0.600000,-1.727079
0.601000,-1.682530
0.602000,-1.702895
0.603000,-1.643072
0.604000,-1.541246
0.605000,-1.519608
0.606000,-1.440693
0.607000,-1.388506
0.608000,-1.443238
0.609000,-1.501788
0.610000,-1.424146
0.611000,-1.365596
0.612000,-1.351594
0.613000,-1.327411
0.614000,-1.392325
0.615000,-1.491606
0.616000,-1.506880
0.617000,-1.403780
0.618000,-1.373233
0.619000,-1.374505
0.620000,-1.383415
0.621000,-1.340139
0.622000,-1.406326
0.623000,-1.567976
0.624000,-1.545065
0.625000,-1.525972
0.626000,-1.597251
0.627000,-1.556520
0.628000,-1.459785
0.629000,-1.396143
0.630000,-1.341412
0.631000,-1.287953
0.632000,-1.399962
0.633000,-1.534882
0.634000,-1.637981
0.635000,-1.667256
0.636000,-1.590886
0.637000,-1.583249
0.638000,-1.672348
0.639000,-1.739808
0.640000,-1.707987
0.641000,-1.641800
0.642000,-1.615070
0.643000,-1.559066
0.644000,-1.527245
0.645000,-1.464876
0.646000,-1.375778
0.647000,-1.309591
0.648000,-1.402508
0.649000,-1.491606
0.650000,-1.438147
0.651000,-1.365596
0.652000,-1.407599
0.653000,-1.251041
0.654000,-1.142850
0.655000,-1.301954
0.656000,-1.430510
0.657000,-1.518335
0.658000,-1.607433
0.659000,-1.618889
0.660000,-1.602342
0.661000,-1.505607
0.662000,-1.481423
0.663000,-1.524699
0.664000,-1.513244
0.665000,-1.405053
0.666000,-1.228130
0.667000,-1.182308
0.668000,-1.331229
0.669000,-1.528518
0.670000,-1.615070
0.671000,-1.629071
0.672000,-1.611252
0.673000,-1.579431
0.674000,-1.508152
0.675000,-1.522154
0.676000,-1.487787
0.677000,-1.448329
0.678000,-1.433056
0.679000,-1.387234
0.680000,-1.401235
0.681000,-1.373233
0.682000,-1.357959
0.683000,-1.324865
0.684000,-1.369414
0.685000,-1.469968
0.686000,-1.513244
0.687000,-1.559066
0.688000,-1.575612
0.689000,-1.536155
0.690000,-1.492879
0.691000,-1.565430
0.692000,-1.636708
0.693000,-1.335048
0.694000,-1.195036
0.695000,-1.413963
0.696000,-1.542519
0.697000,-1.749990
0.698000,-1.831451
0.699000,-1.804722
0.700000,-1.752536
0.701000,-1.812359
0.702000,-1.851817
0.703000,-1.779265
0.704000,-1.669802
0.705000,-1.531063
0.706000,-1.161943
0.707000,-0.743182
0.708000,-0.889557
0.709000,-1.183581
0.710000,-1.490333
0.711000,-1.804722
0.712000,-1.999465
0.713000,-1.948552
0.714000,-1.881092
0.715000,-1.763991
0.716000,-1.669802
0.717000,-1.612525
0.718000,-1.541246
0.719000,-1.522154
0.720000,-1.436874
0.721000,-1.417782
0.722000,-1.485242
0.723000,-1.458512
0.724000,-1.411417
0.725000,-1.397416
0.726000,-1.307045
0.727000,-1.146669
0.728000,-1.151760
0.729000,-1.156851
0.730000,-1.243404
0.731000,-1.360504
0.732000,-1.377051
0.733000,-1.340139
0.734000,-1.405053
0.735000,-1.574340
0.736000,-1.659619
0.737000,-1.630344
0.738000,-1.545065
0.739000,-1.541246
0.740000,-1.532336
0.741000,-1.522154
0.742000,-1.458512
0.743000,-1.391052
0.744000,-1.350322
0.745000,-1.317228
0.746000,-1.374505
0.747000,-1.417782
0.748000,-1.253586
0.749000,-1.196309
0.750000,-1.295590
0.751000,-1.458512
0.752000,-1.545065
0.753000,-1.523426
0.754000,-1.576885
0.755000,-1.687622
0.756000,-1.650709
0.757000,-1.677439
0.758000,-1.695259
0.759000,-1.606160
0.760000,-1.589614
0.761000,-1.566703
0.762000,-1.565430
0.763000,-1.545065
0.764000,-1.522154
0.765000,-1.505607
0.766000,-1.476332
0.767000,-1.163216
0.768000,-0.995202
0.769000,-1.174671
0.770000,-1.365596
0.771000,-1.639254
0.772000,-1.831451
0.773000,-1.870909
0.774000,-1.835270
0.775000,-1.772901
0.776000,-1.664711
0.777000,-1.463603
0.778000,-1.346503
0.779000,-1.289226
0.780000,-1.298136
0.781000,-1.341412
0.782000,-1.425419
0.783000,-1.491606
0.784000,-1.598523
0.785000,-1.719442
0.786000,-1.737262
0.787000,-1.650709
0.788000,-1.560339
0.789000,-1.588341
0.790000,-1.629071
0.791000,-1.581977
0.792000,-1.486514
0.793000,-1.375778
0.794000,-1.313410
0.795000,-1.336320
0.796000,-1.340139
0.797000,-1.309591
0.798000,-1.375778
0.799000,-1.506880
0.800000,-1.618889
0.801000,-1.696531
0.802000,-1.660892
0.803000,-1.551429
0.804000,-1.471240
0.805000,-1.361777
0.806000,-1.313410
0.807000,-1.312137
0.808000,-1.424146
0.809000,-1.542519
0.810000,-1.659619
0.811000,-1.803449
0.812000,-1.746172
0.813000,-1.618889
0.814000,-1.504334
0.815000,-1.463603
0.816000,-1.467422
0.817000,-1.466149
0.818000,-1.531063
0.819000,-1.570521
0.820000,-1.497970
0.821000,-1.461058
0.822000,-1.385961
0.823000,-1.382142
0.824000,-1.402508
0.825000,-1.412690
0.826000,-1.424146
0.827000,-1.401235
0.828000,-1.453421
0.829000,-1.352867
0.830000,-1.256132
0.831000,-1.300681
0.832000,-1.453421
0.833000,-1.522154
0.834000,-1.523426
0.835000,-1.533609
0.836000,-1.553974
0.837000,-1.483969
0.838000,-1.503061
0.839000,-1.503061
0.840000,-1.486514
0.841000,-1.511971
0.842000,-1.501788
0.843000,-1.434328
0.844000,-1.407599
0.845000,-1.373233
0.846000,-1.419054
0.847000,-1.431783
0.848000,-1.422873
0.849000,-1.417782
0.850000,-1.405053
0.851000,-1.188672
0.852000,-1.280316
0.853000,-1.427964
0.854000,-1.651982
0.855000,-1.775447
0.856000,-1.828906
0.857000,-1.753809
0.858000,-1.721988
0.859000,-1.751263
0.860000,-1.551429
0.861000,-1.537428
0.862000,-1.476332
0.863000,-0.982474
0.864000,-0.990111
0.865000,-1.216674
0.866000,-1.561611
0.867000,-1.701623
0.868000,-1.807268
0.869000,-1.869636
0.870000,-1.807268
0.871000,-1.692713
0.872000,-1.580704
0.873000,-1.594705
0.874000,-1.616343
0.875000,-1.636708
0.876000,-1.587068
0.877000,-1.495424
0.878000,-1.417782
0.879000,-1.373233
0.880000,-1.359231
0.881000,-1.399962
0.882000,-1.481423
0.883000,-1.490333
0.884000,-1.421600
0.885000,-1.439420
0.886000,-1.378324
0.887000,-1.508152
0.888000,-1.497970
0.889000,-1.580704
0.890000,-1.578158
0.891000,-1.622707
0.892000,-1.607433
0.893000,-1.525972
0.894000,-1.402508
0.895000,-1.410145
0.896000,-1.426691
0.897000,-1.394871
0.898000,-1.351594
0.899000,-1.341412
0.900000,-1.315955
0.901000,-1.388506
0.902000,-1.468695
0.903000,-1.471240
0.904000,-1.485242
0.905000,-1.489060
0.906000,-1.552702
0.907000,-1.543792
0.908000,-1.573067
0.909000,-1.631617
0.910000,-1.637981
0.911000,-1.500516
0.912000,-1.440693
0.913000,-1.481423
0.914000,-1.536155
0.915000,-1.644345
0.916000,-1.634163
0.917000,-1.528518
0.918000,-1.327411
0.919000,-1.345230
0.920000,-1.347776
0.921000,-1.349049
0.922000,-1.471240
0.923000,-1.570521
0.924000,-1.618889
0.925000,-1.650709
0.926000,-1.576885
0.927000,-1.501788
0.928000,-1.506880
0.929000,-1.481423
0.930000,-1.378324
0.931000,-1.237040
0.932000,-1.256132
0.933000,-1.263769
0.934000,-1.336320
0.935000,-1.537428
0.936000,-1.709260
0.937000,-1.808540
0.938000,-1.721988
0.939000,-1.671075
0.940000,-1.587068
0.941000,-1.548883
0.942000,-1.560339
0.943000,-1.550156
0.944000,-1.592159
0.945000,-1.697804
0.946000,-1.672348
0.947000,-1.545065
0.948000,-1.393598
0.949000,-1.321046
0.950000,-1.317228
0.951000,-1.295590
0.952000,-1.351594
0.953000,-1.350322
0.954000,-1.355413
0.955000,-1.051207
0.956000,-1.178490
0.957000,-1.271406
0.958000,-1.319774
0.959000,-1.454694
0.960000,-1.552702
0.961000,-1.583249
0.962000,-1.608706
0.963000,-1.627799
0.964000,-1.601069
0.965000,-1.637981
0.966000,-1.637981
0.967000,-1.598523
0.968000,-1.551429
0.969000,-1.415236
0.970000,-1.329956
0.971000,-1.403780
0.972000,-1.547610
0.973000,-1.681257
0.974000,-1.710532
0.975000,-1.667256
0.976000,-1.681257
0.977000,-1.676166
0.978000,-1.659619
0.979000,-1.728352
0.980000,-1.123758
0.981000,-0.823370
0.982000,-1.095756
0.983000,-1.329956
0.984000,-1.632890
0.985000,-1.742353
0.986000,-1.788175
0.987000,-1.791994
0.988000,-1.711805
0.989000,-1.575612
0.990000,-1.490333
0.991000,-1.440693
0.992000,-1.411417
0.993000,-1.415236
0.994000,-1.364323
0.995000,-1.439420
0.996000,-1.427964
0.997000,-1.466149
0.998000,-1.500516
0.999000,-1.490333
1.000000,-1.454694
1.001000,-1.473786
1.002000,-1.519608
1.003000,-1.483969
1.004000,-1.424146
1.005000,-1.257405
1.006000,-1.245950
1.007000,-1.314682
1.008000,-1.421600
1.009000,-1.475059
1.010000,-1.496697
1.011000,-1.538700
1.012000,-1.565430
1.013000,-1.550156
1.014000,-1.583249
1.015000,-1.718169
1.016000,-1.715624
1.017000,-1.622707
1.018000,-1.575612
1.019000,-1.485242
1.020000,-1.385961
1.021000,-1.331229
1.022000,-1.382142
1.023000,-1.419054
1.024000,-1.430510
1.025000,-1.449602
1.026000,-1.482696
1.027000,-1.513244
1.028000,-1.648164
1.029000,-1.714351
1.030000,-1.651982
1.031000,-1.525972
1.032000,-1.448329
1.033000,-1.539973
1.034000,-1.594705
1.035000,-1.542519
1.036000,-1.532336
1.037000,-1.494151
1.038000,-1.445784
1.039000,-1.420327
1.040000,-1.387234
1.041000,-1.392325
1.042000,-1.357959
1.043000,-1.375778
1.044000,-1.420327
1.045000,-1.281589
1.046000,-1.081754
1.047000,-1.150487
1.048000,-1.397416
1.049000,-1.622707
1.050000,-1.747445
1.051000,-1.817450
1.052000,-1.742353
1.053000,-1.721988
1.054000,-1.760173
1.055000,-1.693986
1.056000,-1.581977
1.057000,-1.491606
1.058000,-1.489060
1.059000,-1.407599
1.060000,-1.322319
1.061000,-1.270133
1.062000,-1.197582
1.063000,-1.107211
1.064000,-1.140305
1.065000,-1.266315
1.066000,-1.388506
1.067000,-1.469968
1.068000,-1.583249
1.069000,-1.598523
1.070000,-1.602342
1.071000,-1.599796
1.072000,-1.631617
1.073000,-1.570521
1.074000,-1.541246
1.075000,-1.514517
1.076000,-1.480150
1.077000,-1.397416
1.078000,-1.377051
1.079000,-1.356686
1.080000,-1.385961
1.081000,-1.384688
1.082000,-1.413963
1.083000,-1.447057
1.084000,-1.503061
1.085000,-1.585795
1.086000,-1.651982
1.087000,-1.707987
1.088000,-1.727079
1.089000,-1.673620
1.090000,-1.618889
1.091000,-1.574340
1.092000,-1.499243
1.093000,-1.286680
1.094000,-1.239585
1.095000,-1.343957
1.096000,-1.405053
1.097000,-1.434328
1.098000,-1.539973
1.099000,-1.641800
1.100000,-1.615070
1.101000,-1.635435
1.102000,-1.612525
1.103000,-1.611252
1.104000,-1.649437
1.105000,-1.655801
1.106000,-1.658346
1.107000,-1.649437
1.108000,-1.528518
1.109000,-0.960836
1.110000,-0.906104
1.111000,-1.133940
1.112000,-1.468695
1.113000,-1.777992
1.114000,-1.744899
1.115000,-1.707987
1.116000,-1.702895
1.117000,-1.752536
1.118000,-1.763991
1.119000,-1.711805
1.120000,-1.559066
1.121000,-1.398689
1.122000,-1.373233
1.123000,-1.434328
1.124000,-1.371960
1.125000,-1.375778
1.126000,-1.412690
1.127000,-1.378324
1.128000,-1.380869
1.129000,-1.417782
1.130000,-1.506880
1.131000,-1.527245
1.132000,-1.511971
1.133000,-1.463603
1.134000,-1.461058
1.135000,-1.486514
1.136000,-1.473786
1.137000,-1.454694
1.138000,-1.429237
1.139000,-1.440693
1.140000,-1.369414
1.141000,-1.413963
1.142000,-1.424146
1.143000,-1.402508
1.144000,-1.443238
1.145000,-1.522154
1.146000,-1.608706
1.147000,-1.654528
1.148000,-1.629071
1.149000,-1.639254
1.150000,-1.450875
1.151000,-1.107211
1.152000,-1.173398
1.153000,-1.280316
1.154000,-1.487787
1.155000,-1.693986
1.156000,-1.786902
1.157000,-1.747445
1.158000,-1.800903
1.159000,-1.739808
1.160000,-1.518335
1.161000,-1.420327
1.162000,-1.363050
1.163000,-1.394871
1.164000,-1.415236
1.165000,-1.403780
1.166000,-1.496697
1.167000,-1.576885
1.168000,-1.529791
1.169000,-1.625253
1.170000,-1.720715
1.171000,-1.667256
1.172000,-1.589614
1.173000,-1.606160
1.174000,-1.548883
1.175000,-1.529791
1.176000,-1.545065
1.177000,-1.464876
1.178000,-1.448329
1.179000,-1.443238
1.180000,-1.475059
1.181000,-1.336320
1.182000,-1.261223
1.183000,-1.318501
1.184000,-1.458512
1.185000,-1.644345
1.186000,-1.637981
1.187000,-1.589614
1.188000,-1.545065
1.189000,-1.466149
1.190000,-1.349049
1.191000,-1.219220
1.192000,-1.315955
1.193000,-1.247222
1.194000,-1.195036
1.195000,-1.415236
1.196000,-1.524699
1.197000,-1.542519
1.198000,-1.531063
1.199000,-1.523426
1.200000,-1.411417
1.201000,-1.398689
1.202000,-1.497970
1.203000,-1.454694
1.204000,-1.464876
1.205000,-1.520881
1.206000,-1.557793
1.207000,-1.514517
1.208000,-1.501788
1.209000,-1.406326
1.210000,-1.368141
1.211000,-1.402508
1.212000,-1.485242
1.213000,-1.557793
1.214000,-1.616343
1.215000,-1.620162
1.216000,-1.602342
1.217000,-1.650709
1.218000,-1.678712
1.219000,-1.737262
1.220000,-1.704168
1.221000,-1.659619
1.222000,-1.604888
1.223000,-1.543792
1.224000,-1.495424
1.225000,-1.462331
1.226000,-1.398689
1.227000,-1.296863
1.228000,-1.335048
1.229000,-1.346503
1.230000,-1.368141
1.231000,-1.398689
1.232000,-1.485242
1.233000,-1.561611
1.234000,-1.615070
1.235000,-1.655801
1.236000,-1.555247
1.237000,-1.464876
1.238000,-1.439420
1.239000,-1.461058
1.240000,-1.444511
1.241000,-1.436874
1.242000,-1.463603
1.243000,-1.481423
1.244000,-1.523426
1.245000,-1.573067
1.246000,-1.576885
1.247000,-1.529791
1.248000,-1.472513
1.249000,-1.398689
1.250000,-1.363050
1.251000,-1.183581
1.252000,-0.973564
1.253000,-1.093210
1.254000,-1.287953
1.255000,-1.534882
1.256000,-1.734716
1.257000,-1.906548
1.258000,-1.967644
1.259000,-1.961280
1.260000,-2.013466
1.261000,-1.956189
1.262000,-1.830178
1.263000,-1.654528
1.264000,-1.298136
1.265000,-0.859009
1.266000,-0.925196
1.267000,-1.268860
1.268000,-1.564157
1.269000,-1.674893
1.270000,-1.660892
1.271000,-1.687622
1.272000,-1.677439
1.273000,-1.679985
1.274000,-1.522154
1.275000,-1.387234
1.276000,-1.327411
1.277000,-1.324865
1.278000,-1.453421
1.279000,-1.380869
1.280000,-1.300681
1.281000,-1.322319
1.282000,-1.405053
1.283000,-1.435601
1.284000,-1.504334
1.285000,-1.580704
1.286000,-1.525972
1.287000,-1.581977
1.288000,-1.566703
1.289000,-1.494151
1.290000,-1.475059
1.291000,-1.448329
1.292000,-1.335048
1.293000,-1.244677
1.294000,-1.281589
1.295000,-1.365596
1.296000,-1.491606
1.297000,-1.587068
1.298000,-1.603615
1.299000,-1.637981
1.300000,-1.595978
1.301000,-1.552702
1.302000,-1.553974
1.303000,-1.537428
1.304000,-1.499243
1.305000,-1.462331
1.306000,-1.410145
1.307000,-1.366868
1.308000,-1.416509
1.309000,-1.500516
1.310000,-1.499243
1.311000,-1.480150
1.312000,-1.449602
1.313000,-1.438147
1.314000,-1.478877
1.315000,-1.520881
1.316000,-1.520881
1.317000,-1.496697
1.318000,-1.483969
1.319000,-1.458512
1.320000,-1.427964
1.321000,-1.448329
1.322000,-1.466149
1.323000,-1.412690
1.324000,-1.430510
1.325000,-1.551429
1.326000,-1.573067
1.327000,-1.576885
1.328000,-1.632890
1.329000,-1.678712
1.330000,-1.625253
1.331000,-1.550156
1.332000,-1.490333
1.333000,-1.472513
1.334000,-1.503061
1.335000,-1.518335
1.336000,-1.462331
1.337000,-1.361777
1.338000,-1.300681
1.339000,-1.032114
1.340000,-1.091937
1.341000,-1.296863
1.342000,-1.441965
1.343000,-1.699077
1.344000,-1.822541
1.345000,-1.876000
1.346000,-1.901457
1.347000,-1.836543
1.348000,-1.763991
1.349000,-1.639254
1.350000,-1.562884
1.351000,-1.533609
1.352000,-1.525972
1.353000,-1.443238
1.354000,-1.361777
1.355000,-1.407599
1.356000,-1.243404
1.357000,-1.193763
1.358000,-1.203946
1.359000,-1.389779
1.360000,-1.514517
1.361000,-1.570521
1.362000,-1.640527
1.363000,-1.555247
1.364000,-1.468695
1.365000,-1.509425
1.366000,-1.489060
1.367000,-1.531063
1.368000,-1.621434
1.369000,-1.489060
1.370000,-0.897194
1.371000,-0.873010
1.372000,-1.076663
1.373000,-1.341412
1.374000,-1.609979
1.375000,-1.786902
1.376000,-1.791994
1.377000,-1.728352
1.378000,-1.777992
1.379000,-1.735989
1.380000,-1.728352
1.381000,-1.617616
1.382000,-1.511971
1.383000,-1.447057
1.384000,-1.424146
1.385000,-1.457239
1.386000,-1.401235
1.387000,-1.419054
1.388000,-1.385961
1.389000,-1.399962
1.390000,-1.384688
1.391000,-1.415236
1.392000,-1.476332
1.393000,-1.510698
1.394000,-1.542519
1.395000,-1.562884
1.396000,-1.632890
1.397000,-1.693986
1.398000,-1.650709
1.399000,-1.513244
1.400000,-1.495424
1.401000,-1.538700
1.402000,-1.560339
1.403000,-1.501788
1.404000,-1.436874
1.405000,-1.408872
1.406000,-1.385961
1.407000,-1.450875
1.408000,-1.553974
1.409000,-1.529791
1.410000,-1.435601
1.411000,-1.407599
1.412000,-1.458512
1.413000,-1.463603
1.414000,-1.388506
1.415000,-1.342685
1.416000,-1.342685
1.417000,-1.345230
1.418000,-1.452148
1.419000,-1.564157
1.420000,-1.564157
1.421000,-1.581977
1.422000,-1.636708
1.423000,-1.655801
1.424000,-1.640527
1.425000,-1.630344
1.426000,-1.585795
1.427000,-1.453421
1.428000,-1.378324
1.429000,-1.268860
1.430000,-1.368141
1.431000,-1.449602
1.432000,-1.494151
1.433000,-1.462331
1.434000,-1.066480
1.435000,-0.951926
1.436000,-1.109757
1.437000,-1.336320
1.438000,-1.469968
1.439000,-1.538700
1.440000,-1.660892
1.441000,-1.765264
1.442000,-1.854362
1.443000,-1.929459
1.444000,-1.821269
1.445000,-1.539973
1.446000,-1.415236
1.447000,-1.429237
1.448000,-1.346503
1.449000,-1.469968
1.450000,-1.534882
1.451000,-1.575612
1.452000,-1.536155
1.453000,-1.489060
1.454000,-1.485242
1.455000,-1.424146
1.456000,-1.382142
1.457000,-1.403780
1.458000,-1.462331
1.459000,-1.543792
1.460000,-1.471240
1.461000,-1.436874
1.462000,-1.597251
1.463000,-1.665983
1.464000,-1.607433
1.465000,-1.510698
1.466000,-1.482696
1.467000,-1.504334
1.468000,-1.517062
1.469000,-1.545065
1.470000,-1.546337
1.471000,-1.545065
1.472000,-1.559066
1.473000,-1.555247
1.474000,-1.496697
1.475000,-1.391052
1.476000,-1.365596
1.477000,-1.398689
1.478000,-1.499243
1.479000,-1.471240
1.480000,-1.435601
1.481000,-1.431783
1.482000,-1.430510
1.483000,-1.392325
1.484000,-1.370687
1.485000,-1.430510
1.486000,-1.433056
1.487000,-1.436874
1.488000,-1.443238
1.489000,-1.448329
1.490000,-1.438147
1.491000,-1.489060
1.492000,-1.497970
1.493000,-1.458512
1.494000,-1.515789
1.495000,-1.560339
1.496000,-1.570521
1.497000,-1.575612
1.498000,-1.579431
1.499000,-1.593432
1.500000,-1.489060
1.501000,-1.482696
1.502000,-1.559066
1.503000,-1.545065
1.504000,-1.529791
1.505000,-1.528518
1.506000,-1.504334
1.507000,-1.458512
1.508000,-1.338866
1.509000,-1.332502
1.510000,-1.350322
1.511000,-1.406326
1.512000,-1.438147
1.513000,-1.417782
1.514000,-1.349049
1.515000,-1.420327
1.516000,-1.593432
1.517000,-1.690167
1.518000,-1.612525
1.519000,-1.644345
1.520000,-1.571794
1.521000,-1.485242
1.522000,-1.137759
1.523000,-0.833553
1.524000,-1.001566
1.525000,-1.257405
1.526000,-1.494151
1.527000,-1.724534
1.528000,-2.030013
1.529000,-2.072016
1.530000,-1.974008
1.531000,-1.929459
1.532000,-1.825087
1.533000,-1.672348
1.534000,-1.613797
1.535000,-1.575612
1.536000,-1.421600
1.537000,-1.375778
1.538000,-1.425419
1.539000,-1.435601
1.540000,-1.088119
1.541000,-0.995202
1.542000,-1.273952
1.543000,-1.455966
1.544000,-1.595978
1.545000,-1.650709
1.546000,-1.672348
1.547000,-1.631617
1.548000,-1.779265
1.549000,-1.896366
1.550000,-1.851817
1.551000,-1.742353
1.552000,-1.655801
1.553000,-1.546337
1.554000,-1.461058
1.555000,-1.448329
1.556000,-1.485242
1.557000,-1.440693
1.558000,-1.421600
1.559000,-1.396143
1.560000,-1.350322
1.561000,-1.346503
1.562000,-1.326138
1.563000,-1.245950
1.564000,-1.142850
1.565000,-1.254859
1.566000,-1.336320
1.567000,-1.341412
1.568000,-1.415236
1.569000,-1.455966
1.570000,-1.501788
1.571000,-1.579431
1.572000,-1.618889
1.573000,-1.599796
1.574000,-1.508152
1.575000,-1.453421
1.576000,-1.383415
1.577000,-1.392325
1.578000,-1.486514
1.579000,-1.458512
1.580000,-1.407599
1.581000,-1.408872
1.582000,-1.420327
1.583000,-1.489060
1.584000,-1.550156
1.585000,-1.533609
1.586000,-1.433056
1.587000,-1.373233
1.588000,-1.433056
1.589000,-1.601069
1.590000,-1.625253
1.591000,-1.620162
1.592000,-1.587068
1.593000,-1.575612
1.594000,-1.565430
1.595000,-1.622707
1.596000,-1.615070
1.597000,-1.566703
1.598000,-1.463603
1.599000,-1.452148
1.600000,-1.519608
1.601000,-1.509425
1.602000,-1.506880
1.603000,-1.444511
1.604000,-1.440693
1.605000,-1.476332
1.606000,-1.529791
1.607000,-1.506880
1.608000,-1.509425
1.609000,-1.485242
1.610000,-1.440693
1.611000,-1.463603
1.612000,-1.429237
1.613000,-1.443238
1.614000,-1.461058
1.615000,-1.450875
1.616000,-1.495424
1.617000,-1.630344
1.618000,-1.697804
1.619000,-1.649437
1.620000,-1.595978
1.621000,-1.533609
1.622000,-1.581977
1.623000,-1.598523
1.624000,-1.533609
1.625000,-1.499243
1.626000,-1.447057
1.627000,-1.342685
1.628000,-1.000293
1.629000,-0.936652
1.630000,-1.132668
1.631000,-1.374505
1.632000,-1.640527
1.633000,-1.776720
1.634000,-1.795812
1.635000,-1.761446
1.636000,-1.883637
1.637000,-1.833997
1.638000,-1.682530
1.639000,-1.556520
1.640000,-1.452148
1.641000,-1.391052
1.642000,-1.341412
1.643000,-1.366868
1.644000,-1.402508
1.645000,-1.461058
1.646000,-1.463603
1.647000,-1.366868
1.648000,-1.393598
1.649000,-1.406326
1.650000,-0.968473
1.651000,-0.853918
1.652000,-1.158124
1.653000,-1.495424
1.654000,-1.753809
1.655000,-1.697804
1.656000,-1.772901
1.657000,-1.821269
1.658000,-1.898911
1.659000,-1.835270
1.660000,-1.741080
1.661000,-1.510698
1.662000,-1.299408
1.663000,-1.379597
1.664000,-1.369414
1.665000,-1.403780
1.666000,-1.476332
1.667000,-1.461058
1.668000,-1.529791
1.669000,-1.518335
1.670000,-1.449602
1.671000,-1.443238
1.672000,-1.450875
1.673000,-1.450875
1.674000,-1.463603
1.675000,-1.555247
1.676000,-1.542519
1.677000,-1.469968
1.678000,-1.370687
1.679000,-1.308318
1.680000,-1.314682
1.681000,-1.321046
1.682000,-1.332502
1.683000,-1.323592
1.684000,-1.410145
1.685000,-1.623980
1.686000,-1.585795
1.687000,-1.552702
1.688000,-1.575612
1.689000,-1.562884
1.690000,-1.539973
1.691000,-1.452148
1.692000,-1.425419
1.693000,-1.388506
1.694000,-1.382142
1.695000,-1.503061
1.696000,-1.534882
1.697000,-1.522154
1.698000,-1.546337
1.699000,-1.444511
1.700000,-1.455966
1.701000,-1.529791
1.702000,-1.561611
1.703000,-1.565430
1.704000,-1.589614
1.705000,-1.569248
1.706000,-1.522154
1.707000,-1.497970
1.708000,-1.467422
1.709000,-1.405053
1.710000,-1.384688
1.711000,-1.382142
1.712000,-1.397416
1.713000,-1.406326
1.714000,-1.388506
1.715000,-1.476332
1.716000,-1.663438
1.717000,-1.774174
1.718000,-1.860726
1.719000,-1.795812
1.720000,-1.618889
1.721000,-1.529791
1.722000,-1.537428
1.723000,-1.534882
1.724000,-1.570521
1.725000,-1.529791
1.726000,-1.399962
1.727000,-1.216674
1.728000,-1.317228
1.729000,-1.406326
1.730000,-1.485242
1.731000,-1.424146
1.732000,-1.369414
1.733000,-1.528518
1.734000,-1.621434
1.735000,-1.439420
1.736000,-1.023204
1.737000,-1.118667
1.738000,-1.357959
1.739000,-1.487787
1.740000,-1.702895
1.741000,-1.794539
1.742000,-1.743626
1.743000,-1.710532
1.744000,-1.707987
1.745000,-1.618889
1.746000,-1.503061
1.747000,-1.453421
1.748000,-1.384688
1.749000,-1.307045
1.750000,-1.338866
1.751000,-1.483969
1.752000,-1.631617
1.753000,-1.599796
1.754000,-1.655801
1.755000,-1.546337
1.756000,-1.455966
1.757000,-1.425419
1.758000,-1.466149
1.759000,-1.436874
1.760000,-1.425419
1.761000,-1.436874
1.762000,-1.478877
1.763000,-1.435601
1.764000,-1.425419
1.765000,-1.440693
1.766000,-1.468695
1.767000,-1.478877
1.768000,-1.527245
1.769000,-1.542519
1.770000,-1.506880
1.771000,-1.505607
1.772000,-1.538700
1.773000,-1.520881
1.774000,-1.434328
1.775000,-1.415236
1.776000,-1.389779
1.777000,-1.197582
1.778000,-1.160670
1.779000,-1.249768
1.780000,-1.359231
1.781000,-1.401235
1.782000,-1.529791
1.783000,-1.518335
1.784000,-1.063935
1.785000,-1.091937
1.786000,-1.352867
1.787000,-1.662165
1.788000,-1.933278
1.789000,-2.068198
1.790000,-1.907821
1.791000,-1.798358
1.792000,-1.808540
1.793000,-1.752536
1.794000,-1.649437
1.795000,-1.500516
1.796000,-1.440693
1.797000,-1.393598
1.798000,-1.416509
1.799000,-1.481423
1.800000,-1.499243
1.801000,-1.485242
1.802000,-1.556520
1.803000,-1.627799
1.804000,-1.608706
1.805000,-1.581977
1.806000,-1.571794
1.807000,-1.598523
1.808000,-1.570521
1.809000,-1.505607
1.810000,-1.401235
1.811000,-1.389779
1.812000,-1.459785
1.813000,-1.406326
1.814000,-1.373233
1.815000,-1.347776
1.816000,-1.374505
1.817000,-1.331229
1.818000,-1.332502
1.819000,-1.444511
1.820000,-1.495424
1.821000,-1.433056
1.822000,-1.550156
1.823000,-1.569248
1.824000,-1.537428
1.825000,-1.487787
1.826000,-1.401235
1.827000,-1.314682
1.828000,-1.307045
1.829000,-1.268860
1.830000,-1.263769
1.831000,-1.291771
1.832000,-1.411417
1.833000,-1.509425
1.834000,-1.653255
1.835000,-1.766537
1.836000,-1.665983
1.837000,-1.637981
1.838000,-1.592159
1.839000,-1.611252
1.840000,-1.551429
1.841000,-1.527245
1.842000,-1.543792
1.843000,-1.500516
1.844000,-1.384688
1.845000,-1.100847
1.846000,-0.981201
1.847000,-1.219220
1.848000,-1.429237
1.849000,-1.627799
1.850000,-1.795812
1.851000,-1.877273
1.852000,-1.825087
1.853000,-1.859454
1.854000,-1.876000
1.855000,-1.790721
1.856000,-1.739808
1.857000,-1.701623
1.858000,-1.617616
1.859000,-1.461058
1.860000,-1.350322
1.861000,-1.370687
1.862000,-1.425419
1.863000,-1.443238
1.864000,-1.448329
1.865000,-1.505607
1.866000,-1.337593
1.867000,-1.229403
1.868000,-1.305773
1.869000,-1.462331
1.870000,-1.548883
1.871000,-1.588341
1.872000,-1.626526
1.873000,-1.677439
1.874000,-1.673620
1.875000,-1.711805
1.876000,-1.615070
1.877000,-1.567976
1.878000,-1.590886
1.879000,-1.532336
1.880000,-1.328683
1.881000,-1.356686
1.882000,-1.239585
1.883000,-1.170853
1.884000,-1.170853
1.885000,-1.436874
1.886000,-1.438147
1.887000,-1.486514
1.888000,-1.444511
1.889000,-1.475059
1.890000,-1.468695
1.891000,-1.462331
1.892000,-1.443238
1.893000,-1.454694
1.894000,-1.461058
1.895000,-1.468695
1.896000,-1.440693
1.897000,-1.388506
1.898000,-1.427964
1.899000,-1.415236
1.900000,-1.392325
1.901000,-1.436874
1.902000,-1.508152
1.903000,-1.504334
1.904000,-1.531063
1.905000,-1.545065
1.906000,-1.519608
1.907000,-1.529791
1.908000,-1.529791
1.909000,-1.504334
1.910000,-1.439420
1.911000,-1.430510
1.912000,-1.427964
1.913000,-1.433056
1.914000,-1.464876
1.915000,-1.504334
1.916000,-1.566703
1.917000,-1.603615
1.918000,-1.630344
1.919000,-1.648164
1.920000,-1.585795
1.921000,-1.497970
1.922000,-1.489060
1.923000,-1.514517
1.924000,-1.587068
1.925000,-1.651982
1.926000,-1.576885
1.927000,-1.449602
1.928000,-1.455966
1.929000,-1.454694
1.930000,-1.489060
1.931000,-1.499243
1.932000,-1.463603
1.933000,-1.448329
1.934000,-1.491606
1.935000,-1.536155
1.936000,-1.443238
1.937000,-1.388506
1.938000,-1.405053
1.939000,-1.443238
1.940000,-1.495424
1.941000,-1.538700
1.942000,-1.552702
1.943000,-1.455966
1.944000,-1.410145
1.945000,-1.472513
1.946000,-1.515789
1.947000,-1.546337
1.948000,-1.539973
1.949000,-1.035933
1.950000,-0.488616
1.951000,-0.559894
1.952000,-1.006657
1.953000,-1.420327
1.954000,-1.826360
1.955000,-2.086017
1.956000,-2.251485
1.957000,-2.404225
1.958000,-2.373677
1.959000,-2.052924
1.960000,-1.809813
1.961000,-1.651982
1.962000,-1.583249
1.963000,-1.455966
1.964000,-1.280316
1.965000,-1.211583
1.966000,-1.200128
1.967000,-1.242131
1.968000,-1.284134
1.969000,-1.346503
1.970000,-1.384688
1.971000,-1.420327
1.972000,-1.480150
1.973000,-1.536155
1.974000,-1.527245
1.975000,-1.556520
1.976000,-1.547610
1.977000,-1.434328
1.978000,-1.392325
1.979000,-1.383415
1.980000,-1.405053
1.981000,-1.429237
1.982000,-1.504334
1.983000,-1.541246
1.984000,-1.575612
1.985000,-1.517062
1.986000,-1.464876
1.987000,-1.429237
1.988000,-1.410145
1.989000,-1.458512
1.990000,-1.483969
1.991000,-1.482696
1.992000,-1.459785
1.993000,-1.402508
1.994000,-1.378324
1.995000,-1.411417
1.996000,-1.393598
1.997000,-1.392325
1.998000,-1.441965
1.999000,-1.383415
2.000000,-1.438147
2.001000,-1.576885
2.002000,-1.562884
2.003000,-1.531063
2.004000,-1.532336
2.005000,-1.522154
2.006000,-1.626526
2.007000,-1.640527
2.008000,-1.567976
2.009000,-1.509425
2.010000,-1.448329
2.011000,-1.492879
2.012000,-1.508152
2.013000,-1.531063
2.014000,-1.501788
2.015000,-1.501788
2.016000,-1.492879
2.017000,-1.547610
2.018000,-1.534882
2.019000,-1.510698
2.020000,-1.489060
2.021000,-1.505607
2.022000,-1.528518
2.023000,-1.566703
2.024000,-1.588341
2.025000,-1.571794
2.026000,-1.536155
2.027000,-1.471240
2.028000,-1.468695
2.029000,-1.515789
2.030000,-1.497970
2.031000,-1.497970
2.032000,-1.496697
2.033000,-1.511971
2.034000,-1.458512
2.035000,-1.468695
2.036000,-1.520881
2.037000,-1.569248
2.038000,-1.520881
2.039000,-1.545065
2.040000,-1.567976
2.041000,-1.551429
2.042000,-1.478877
2.043000,-1.478877
2.044000,-1.468695
2.045000,-1.477605
2.046000,-1.287953
2.047000,-1.383415
2.048000,-1.433056
2.049000,-1.226857
2.050000,-0.866646
2.051000,-0.865373
2.052000,-1.004112
2.053000,-1.265042
2.054000,-1.464876
2.055000,-1.603615
2.056000,-1.489060
2.057000,-1.168307
2.058000,-1.186127
2.059000,-1.500516
2.060000,-1.814905
2.061000,-1.952370
2.062000,-2.021103
2.063000,-1.954916
2.064000,-1.995646
2.065000,-2.027467
2.066000,-1.884910
2.067000,-1.709260
2.068000,-1.608706
2.069000,-1.536155
2.070000,-1.426691
2.071000,-1.364323
2.072000,-1.371960
2.073000,-1.389779
2.074000,-1.388506
2.075000,-1.398689
2.076000,-1.448329
2.077000,-1.450875
2.078000,-1.533609
2.079000,-1.571794
2.080000,-1.552702
2.081000,-1.520881
2.082000,-1.467422
2.083000,-1.371960
2.084000,-1.397416
2.085000,-1.513244
2.086000,-1.559066
2.087000,-1.529791
2.088000,-1.469968
2.089000,-1.481423
2.090000,-1.495424
2.091000,-1.472513
2.092000,-1.422873
2.093000,-1.377051
2.094000,-1.352867
2.095000,-1.426691
2.096000,-1.472513
2.097000,-1.469968
2.098000,-1.476332
2.099000,-1.464876
2.100000,-1.375778
2.101000,-1.388506
2.102000,-1.412690
2.103000,-1.315955
2.104000,-1.336320
2.105000,-1.370687
2.106000,-1.420327
2.107000,-1.595978
2.108000,-1.640527
2.109000,-1.616343
2.110000,-1.612525
2.111000,-1.573067
2.112000,-1.524699
2.113000,-1.438147
2.114000,-1.478877
2.115000,-1.527245
2.116000,-1.469968
2.117000,-1.443238
2.118000,-1.477605
2.119000,-1.496697
2.120000,-1.510698
2.121000,-1.497970
2.122000,-1.413963
2.123000,-1.443238
2.124000,-1.458512
2.125000,-1.489060
2.126000,-1.338866
2.127000,-1.377051
2.128000,-1.594705
2.129000,-1.626526
2.130000,-1.695259
2.131000,-1.737262
2.132000,-1.707987
2.133000,-1.649437
2.134000,-1.532336
2.135000,-1.520881
2.136000,-1.505607
2.137000,-1.490333
2.138000,-1.559066
2.139000,-1.523426
2.140000,-1.366868
2.141000,-1.394871
2.142000,-1.425419
2.143000,-1.413963
2.144000,-1.397416
2.145000,-1.391052
2.146000,-1.401235
2.147000,-1.410145
2.148000,-1.408872
2.149000,-1.436874
2.150000,-1.462331
2.151000,-1.522154
2.152000,-1.583249
2.153000,-1.576885
2.154000,-1.562884
2.155000,-1.562884
2.156000,-1.514517
2.157000,-1.475059
2.158000,-1.431783
2.159000,-1.426691
2.160000,-1.346503
2.161000,-1.235767
2.162000,-1.005385
2.163000,-1.209037
2.164000,-1.463603
2.165000,-1.668529
2.166000,-1.741080
2.167000,-1.697804
2.168000,-1.564157
2.169000,-1.417782
2.170000,-1.318501
2.171000,-1.237040
2.172000,-1.299408
2.173000,-1.337593
2.174000,-1.440693
2.175000,-1.686349
2.176000,-1.821269
2.177000,-1.960007
2.178000,-1.965098
2.179000,-1.739808
2.180000,-1.650709
2.181000,-1.604888
2.182000,-1.581977
2.183000,-1.550156
2.184000,-1.550156
2.185000,-1.645618
2.186000,-1.623980
2.187000,-1.630344
2.188000,-1.598523
2.189000,-1.539973
2.190000,-1.444511
2.191000,-1.393598
2.192000,-1.355413
2.193000,-1.355413
2.194000,-1.351594
2.195000,-1.434328
2.196000,-1.426691
2.197000,-1.452148
2.198000,-1.508152
2.199000,-1.575612
2.200000,-1.550156
2.201000,-1.112302
2.202000,-1.019386
2.203000,-1.212856
2.204000,-1.481423
2.205000,-1.756354
2.206000,-1.854362
2.207000,-1.783084
2.208000,-1.574340
2.209000,-1.557793
2.210000,-1.529791
2.211000,-1.571794
2.212000,-1.571794
2.213000,-1.505607
2.214000,-1.471240
2.215000,-1.417782
2.216000,-1.397416
2.217000,-1.508152
2.218000,-1.575612
2.219000,-1.571794
2.220000,-1.501788
2.221000,-1.463603
2.222000,-1.492879
2.223000,-1.574340
2.224000,-1.552702
2.225000,-1.515789
2.226000,-1.435601
2.227000,-1.398689
2.228000,-1.480150
2.229000,-1.500516
2.230000,-1.536155
2.231000,-1.408872
2.232000,-1.305773
2.233000,-1.398689
2.234000,-1.438147
2.235000,-1.566703
2.236000,-1.562884
2.237000,-1.546337
2.238000,-1.458512
2.239000,-1.461058
2.240000,-1.449602
2.241000,-1.489060
2.242000,-1.427964
2.243000,-1.305773
2.244000,-1.296863
2.245000,-1.377051
2.246000,-1.457239
2.247000,-1.469968
2.248000,-1.495424
2.249000,-1.473786
2.250000,-1.543792
2.251000,-1.541246
2.252000,-1.559066
2.253000,-1.578158
2.254000,-1.557793
2.255000,-1.515789
2.256000,-1.126303
2.257000,-0.974837
2.258000,-1.069026
2.259000,-1.307045
2.260000,-1.527245
2.261000,-1.706714
2.262000,-1.735989
2.263000,-1.725806
2.264000,-1.705441
2.265000,-1.651982
2.266000,-1.593432
2.267000,-1.532336
2.268000,-1.557793
2.269000,-1.578158
2.270000,-1.543792
2.271000,-1.490333
2.272000,-1.560339
2.273000,-1.639254
2.274000,-1.553974
2.275000,-1.503061
2.276000,-1.509425
2.277000,-1.501788
2.278000,-1.548883
2.279000,-1.580704
2.280000,-1.599796
2.281000,-1.574340
2.282000,-1.561611
2.283000,-1.443238
2.284000,-1.405053
2.285000,-1.385961
2.286000,-1.410145
2.287000,-1.354140
2.288000,-1.295590
2.289000,-1.370687
2.290000,-1.407599
2.291000,-1.480150
2.292000,-1.550156
2.293000,-1.514517
2.294000,-1.475059
2.295000,-1.370687
2.296000,-1.295590
2.297000,-1.324865
2.298000,-1.402508
2.299000,-1.505607
2.300000,-1.583249
2.301000,-1.654528
2.302000,-1.592159
2.303000,-1.571794
2.304000,-1.602342
2.305000,-1.529791
2.306000,-1.494151
2.307000,-1.468695
2.308000,-1.430510
2.309000,-1.396143
2.310000,-1.377051
2.311000,-1.377051
2.312000,-1.439420
2.313000,-1.496697
2.314000,-1.539973
2.315000,-1.541246
2.316000,-1.552702
2.317000,-1.564157
2.318000,-1.617616
2.319000,-1.609979
2.320000,-1.573067
2.321000,-1.517062
2.322000,-1.504334
2.323000,-1.489060
2.324000,-1.482696
2.325000,-1.450875
2.326000,-1.459785
2.327000,-1.312137
2.328000,-1.257405
2.329000,-1.247222
2.330000,-1.327411
2.331000,-1.373233
2.332000,-1.375778
2.333000,-1.462331
2.334000,-1.597251
2.335000,-1.707987
2.336000,-1.751263
2.337000,-1.757627
2.338000,-1.677439
2.339000,-1.562884
2.340000,-1.472513
2.341000,-1.471240
2.342000,-1.468695
2.343000,-1.438147
2.344000,-1.450875
2.345000,-1.462331
2.346000,-1.496697
2.347000,-1.452148
2.348000,-1.458512
2.349000,-1.585795
2.350000,-1.608706
2.351000,-1.537428
2.352000,-1.506880
2.353000,-1.411417
2.354000,-1.345230
2.355000,-1.346503
2.356000,-1.392325
2.357000,-1.431783
2.358000,-1.478877
2.359000,-1.351594
2.360000,-1.286680
2.361000,-1.102120
2.362000,-0.785185
2.363000,-1.001566
2.364000,-1.352867
2.365000,-1.658346
2.366000,-1.856908
2.367000,-1.896366
2.368000,-1.881092
2.369000,-1.845452
2.370000,-1.865818
2.371000,-1.808540
2.372000,-1.748717
2.373000,-1.631617
2.374000,-1.570521
2.375000,-1.285407
2.376000,-1.001566
2.377000,-1.116121
2.378000,-1.318501
2.379000,-1.513244
2.380000,-1.671075
2.381000,-1.771628
2.382000,-1.747445
2.383000,-1.576885
2.384000,-1.592159
2.385000,-1.537428
2.386000,-1.581977
2.387000,-1.539973
2.388000,-1.468695
2.389000,-1.494151
2.390000,-1.308318
2.391000,-1.225584
2.392000,-1.271406
2.393000,-1.313410
2.394000,-1.379597
2.395000,-1.468695
2.396000,-1.539973
2.397000,-1.615070
2.398000,-1.623980
2.399000,-1.678712
2.400000,-1.763991
2.401000,-1.785629
2.402000,-1.671075
2.403000,-1.506880
2.404000,-1.312137
2.405000,-1.228130
2.406000,-1.329956
2.407000,-1.427964
2.408000,-1.536155
2.409000,-1.573067
2.410000,-1.552702
2.411000,-1.589614
2.412000,-1.560339
2.413000,-1.570521
2.414000,-1.555247
2.415000,-1.578158
2.416000,-1.533609
2.417000,-1.464876
2.418000,-1.382142
2.419000,-1.377051
2.420000,-1.389779
2.421000,-1.324865
2.422000,-1.424146
2.423000,-1.472513
2.424000,-1.492879
2.425000,-1.505607
2.426000,-1.448329
2.427000,-1.368141
2.428000,-1.431783
2.429000,-1.427964
2.430000,-1.412690
2.431000,-1.397416
2.432000,-1.459785
2.433000,-1.606160
2.434000,-1.629071
2.435000,-1.697804
2.436000,-1.641800
2.437000,-1.570521
2.438000,-1.471240
2.439000,-1.497970
2.440000,-1.537428
2.441000,-1.491606
2.442000,-1.454694
2.443000,-1.449602
2.444000,-1.505607
2.445000,-1.556520
2.446000,-1.458512
2.447000,-1.425419
2.448000,-1.471240
2.449000,-1.469968
2.450000,-1.513244
2.451000,-1.506880
2.452000,-1.478877
2.453000,-1.419054
2.454000,-1.445784
2.455000,-1.454694
2.456000,-1.427964
2.457000,-1.392325
2.458000,-1.422873
2.459000,-1.410145
2.460000,-1.545065
2.461000,-1.557793
2.462000,-1.520881
2.463000,-1.499243
2.464000,-1.532336
2.465000,-1.519608
2.466000,-1.514517
2.467000,-1.551429
2.468000,-1.524699
2.469000,-1.534882
2.470000,-1.475059
2.471000,-1.445784
2.472000,-1.450875
2.473000,-1.445784
2.474000,-1.444511
2.475000,-1.160670
2.476000,-1.046115
2.477000,-1.145396
2.478000,-1.329956
2.479000,-1.560339
2.480000,-1.653255
2.481000,-1.748717
2.482000,-1.766537
2.483000,-1.650709
2.484000,-1.651982
2.485000,-1.673620
2.486000,-1.621434
2.487000,-1.576885
2.488000,-1.580704
2.489000,-1.533609
2.490000,-1.481423
2.491000,-1.541246
2.492000,-1.529791
2.493000,-1.565430
2.494000,-1.569248
2.495000,-1.496697
2.496000,-1.537428
2.497000,-1.589614
2.498000,-1.561611
2.499000,-1.616343
2.500000,-1.639254
2.501000,-1.658346
2.502000,-1.644345
2.503000,-1.212856
2.504000,-0.707542
2.505000,-0.806823
2.506000,-1.047388
2.507000,-1.407599
2.508000,-1.664711
2.509000,-1.851817
2.510000,-1.846725
2.511000,-1.923095
2.512000,-2.008375
2.513000,-1.947279
2.514000,-1.804722
2.515000,-1.653255
2.516000,-1.567976
2.517000,-1.491606
2.518000,-1.449602
2.519000,-1.434328
2.520000,-1.438147
2.521000,-1.441965
2.522000,-1.385961
2.523000,-1.363050
2.524000,-1.354140
2.525000,-1.318501
2.526000,-1.328683
2.527000,-1.312137
2.528000,-1.392325
2.529000,-1.444511
2.530000,-1.482696
2.531000,-1.528518
2.532000,-1.575612
2.533000,-1.634163
2.534000,-1.621434
2.535000,-1.592159
2.536000,-1.562884
2.537000,-1.537428
2.538000,-1.541246
2.539000,-1.445784
2.540000,-1.337593
2.541000,-1.354140
2.542000,-1.433056
2.543000,-1.429237
2.544000,-1.471240
2.545000,-1.501788
2.546000,-1.438147
2.547000,-1.370687
2.548000,-1.309591
2.549000,-1.192491
2.550000,-1.289226
2.551000,-1.448329
2.552000,-1.499243
2.553000,-1.463603
2.554000,-1.458512
2.555000,-1.466149
2.556000,-1.478877
2.557000,-1.492879
2.558000,-1.494151
2.559000,-1.506880
2.560000,-1.477605
2.561000,-1.524699
2.562000,-1.509425
2.563000,-1.497970
2.564000,-1.459785
2.565000,-1.557793
2.566000,-1.547610
2.567000,-1.569248
2.568000,-1.595978
2.569000,-1.332502
2.570000,-1.389779
2.571000,-1.492879
2.572000,-1.542519
2.573000,-1.528518
2.574000,-1.458512
2.575000,-1.371960
2.576000,-1.261223
2.577000,-1.279043
2.578000,-1.384688
2.579000,-1.436874
2.580000,-1.430510
2.581000,-1.459785
2.582000,-1.524699
2.583000,-1.537428
2.584000,-1.207765
2.585000,-1.231948
2.586000,-1.402508
2.587000,-1.584522
2.588000,-1.833997
2.589000,-2.026194
2.590000,-2.060561
2.591000,-2.022376
2.592000,-1.953643
2.593000,-1.833997
2.594000,-1.621434
2.595000,-1.523426
2.596000,-1.473786
2.597000,-1.441965
2.598000,-1.377051
2.599000,-1.392325
2.600000,-1.459785
2.601000,-1.534882
2.602000,-1.542519
2.603000,-1.519608
2.604000,-1.529791
2.605000,-1.511971
2.606000,-1.495424
2.607000,-1.491606
2.608000,-1.455966
2.609000,-1.425419
2.610000,-1.401235
2.611000,-1.441965
2.612000,-1.407599
2.613000,-1.385961
2.614000,-1.335048
2.615000,-1.341412
2.616000,-1.399962
2.617000,-1.410145
2.618000,-1.471240
2.619000,-1.562884
2.620000,-1.576885
2.621000,-1.517062
2.622000,-1.527245
2.623000,-1.345230
2.624000,-1.226857
2.625000,-1.276497
2.626000,-1.280316
2.627000,-1.189945
2.628000,-1.207765
2.629000,-1.366868
2.630000,-1.581977
2.631000,-1.812359
2.632000,-1.968917
2.633000,-2.014739
2.634000,-1.828906
2.635000,-1.669802
2.636000,-1.587068
2.637000,-1.529791
2.638000,-1.000293
2.639000,-0.945562
2.640000,-1.156851
2.641000,-1.482696
2.642000,-1.681257
2.643000,-1.688894
2.644000,-1.702895
2.645000,-1.649437
2.646000,-1.705441
2.647000,-1.667256
2.648000,-1.623980
2.649000,-1.509425
2.650000,-1.429237
2.651000,-1.407599
2.652000,-1.373233
2.653000,-1.332502
2.654000,-1.385961
2.655000,-1.427964
2.656000,-1.495424
2.657000,-1.449602
2.658000,-1.370687
2.659000,-1.369414
2.660000,-1.346503
2.661000,-1.365596
2.662000,-1.310864
2.663000,-1.290499
2.664000,-1.338866
2.665000,-1.380869
2.666000,-1.462331
2.667000,-1.459785
2.668000,-1.555247
2.669000,-1.649437
2.670000,-1.720715
2.671000,-1.763991
2.672000,-1.697804
2.673000,-1.546337
2.674000,-1.459785
2.675000,-1.485242
2.676000,-1.489060
2.677000,-1.480150
2.678000,-1.515789
2.679000,-1.531063
2.680000,-1.531063
2.681000,-1.518335
2.682000,-1.459785
2.683000,-1.439420
2.684000,-1.387234
2.685000,-1.272679
2.686000,-0.936652
2.687000,-0.995202
2.688000,-1.294317
2.689000,-1.503061
2.690000,-1.643072
2.691000,-1.746172
2.692000,-1.770355
2.693000,-1.706714
2.694000,-1.701623
2.695000,-1.679985
2.696000,-1.597251
2.697000,-1.559066
2.698000,-1.564157
2.699000,-1.501788
2.700000,-1.396143
2.701000,-1.337593
2.702000,-1.402508
2.703000,-1.430510
2.704000,-1.545065
2.705000,-1.626526
2.706000,-1.620162
2.707000,-1.626526
2.708000,-1.564157
2.709000,-1.504334
2.710000,-1.463603
2.711000,-1.448329
2.712000,-1.450875
2.713000,-1.439420
2.714000,-1.403780
2.715000,-1.370687
2.716000,-1.356686
2.717000,-1.391052
2.718000,-1.467422
2.719000,-1.559066
2.720000,-1.609979
2.721000,-1.639254
2.722000,-1.626526
2.723000,-1.646891
2.724000,-1.651982
2.725000,-1.620162
2.726000,-1.538700
2.727000,-1.511971
2.728000,-1.481423
2.729000,-1.355413
2.730000,-1.277770
2.731000,-1.336320
2.732000,-1.417782
2.733000,-1.509425
2.734000,-1.494151
2.735000,-1.506880
2.736000,-1.598523
2.737000,-1.618889
2.738000,-1.630344
2.739000,-1.525972
2.740000,-1.486514
2.741000,-1.277770
2.742000,-0.817006
2.743000,-0.799186
2.744000,-0.973564
2.745000,-1.375778
2.746000,-1.718169
2.747000,-1.876000
2.748000,-1.822541
2.749000,-1.842907
2.750000,-1.923095
2.751000,-1.840361
2.752000,-1.776720
2.753000,-1.690167
2.754000,-1.629071
2.755000,-1.517062
2.756000,-1.412690
2.757000,-1.454694
2.758000,-1.449602
2.759000,-1.380869
2.760000,-1.266315
2.761000,-1.259951
2.762000,-1.237040
2.763000,-1.259951
2.764000,-1.276497
2.765000,-1.239585
2.766000,-1.281589
2.767000,-1.536155
2.768000,-1.719442
2.769000,-1.746172
2.770000,-1.715624
2.771000,-1.654528
2.772000,-1.631617
2.773000,-1.658346
2.774000,-1.598523
2.775000,-1.565430
2.776000,-1.541246
2.777000,-1.433056
2.778000,-1.108484
2.779000,-1.062662
2.780000,-1.231948
2.781000,-1.510698
2.782000,-1.682530
2.783000,-1.758900
2.784000,-1.771628
2.785000,-1.776720
2.786000,-1.728352
2.787000,-1.617616
2.788000,-1.501788
2.789000,-1.360504
2.790000,-1.308318
2.791000,-1.365596
2.792000,-1.450875
2.793000,-1.505607
2.794000,-1.573067
2.795000,-1.601069
2.796000,-1.555247
2.797000,-1.499243
2.798000,-1.480150
2.799000,-1.481423
2.800000,-1.462331
2.801000,-1.430510
2.802000,-1.435601
2.803000,-1.424146
2.804000,-1.405053
2.805000,-1.433056
2.806000,-1.525972
2.807000,-1.598523
2.808000,-1.669802
2.809000,-1.677439
2.810000,-1.566703
2.811000,-1.469968
2.812000,-1.468695
2.813000,-1.552702
2.814000,-1.613797
2.815000,-1.581977
2.816000,-1.519608
2.817000,-1.534882
2.818000,-1.494151
2.819000,-1.411417
2.820000,-1.234494
2.821000,-1.280316
2.822000,-1.327411
2.823000,-1.314682
2.824000,-1.347776
2.825000,-1.349049
2.826000,-1.328683
2.827000,-1.267588
2.828000,-1.219220
2.829000,-1.247222
2.830000,-1.371960
2.831000,-1.486514
2.832000,-1.593432
2.833000,-1.667256
2.834000,-1.570521
2.835000,-1.416509
2.836000,-1.340139
2.837000,-1.401235
2.838000,-1.528518
2.839000,-1.595978
2.840000,-1.725806
2.841000,-1.749990
2.842000,-1.692713
2.843000,-1.654528
2.844000,-1.734716
2.845000,-1.724534
2.846000,-1.613797
2.847000,-1.533609
2.848000,-1.552702
2.849000,-1.562884
2.850000,-1.548883
2.851000,-1.499243
2.852000,-1.553974
2.853000,-1.429237
2.854000,-1.380869
2.855000,-1.468695
2.856000,-1.528518
2.857000,-1.499243
2.858000,-1.424146
2.859000,-1.452148
2.860000,-1.452148
2.861000,-1.403780
2.862000,-1.436874
2.863000,-1.448329
2.864000,-1.445784
2.865000,-1.425419
2.866000,-1.448329
2.867000,-1.494151
2.868000,-1.441965
2.869000,-1.429237
2.870000,-1.537428
2.871000,-1.517062
2.872000,-1.429237
2.873000,-1.436874
2.874000,-1.486514
2.875000,-1.525972
2.876000,-1.389779
2.877000,-1.265042
2.878000,-1.275225
2.879000,-1.295590
2.880000,-1.323592
2.881000,-1.315955
2.882000,-1.343957
2.883000,-1.426691
2.884000,-1.601069
2.885000,-1.804722
2.886000,-1.836543
2.887000,-1.476332
2.888000,-1.159397
2.889000,-1.247222
2.890000,-1.416509
2.891000,-1.592159
2.892000,-1.356686
2.893000,-1.366868
2.894000,-1.468695
2.895000,-1.690167
2.896000,-1.811086
2.897000,-1.819996
2.898000,-1.808540
2.899000,-1.725806
2.900000,-1.681257
2.901000,-1.655801
2.902000,-1.597251
2.903000,-1.541246
2.904000,-1.581977
2.905000,-1.677439
2.906000,-1.622707
2.907000,-1.463603
2.908000,-1.494151
2.909000,-1.467422
2.910000,-1.387234
2.911000,-1.347776
2.912000,-1.375778
2.913000,-1.328683
2.914000,-1.289226
2.915000,-1.322319
2.916000,-1.293044
2.917000,-1.293044
2.918000,-1.355413
2.919000,-1.359231
2.920000,-1.389779
2.921000,-1.466149
2.922000,-1.487787
2.923000,-1.420327
2.924000,-1.310864
2.925000,-1.378324
2.926000,-1.454694
2.927000,-1.515789
2.928000,-1.593432
2.929000,-1.641800
2.930000,-1.617616
2.931000,-1.579431
2.932000,-1.571794
2.933000,-1.543792
2.934000,-1.524699
2.935000,-1.517062
2.936000,-1.487787
2.937000,-1.450875
2.938000,-1.378324
2.939000,-1.355413
2.940000,-1.313410
2.941000,-1.440693
2.942000,-1.616343
2.943000,-1.756354
2.944000,-1.788175
2.945000,-1.771628
2.946000,-1.678712
2.947000,-1.629071
2.948000,-1.622707
2.949000,-1.625253
2.950000,-1.615070
2.951000,-1.637981
2.952000,-1.667256
2.953000,-1.593432
2.954000,-1.517062
2.955000,-1.469968
2.956000,-1.468695
2.957000,-1.441965
2.958000,-1.433056
2.959000,-1.393598
2.960000,-1.356686
2.961000,-1.352867
2.962000,-1.408872
2.963000,-1.388506
2.964000,-1.355413
2.965000,-1.427964
2.966000,-1.462331
2.967000,-1.491606
2.968000,-1.536155
2.969000,-1.564157
2.970000,-1.622707
2.971000,-1.621434
2.972000,-1.649437
2.973000,-1.700350
2.974000,-1.606160
2.975000,-1.505607
2.976000,-1.450875
2.977000,-1.299408
2.978000,-1.271406
2.979000,-1.263769
2.980000,-1.346503
2.981000,-1.435601
2.982000,-1.438147
2.983000,-1.340139
2.984000,-1.433056
2.985000,-1.570521
2.986000,-1.602342
2.987000,-1.618889
2.988000,-1.482696
2.989000,-1.440693
2.990000,-1.461058
2.991000,-1.557793
2.992000,-1.555247
2.993000,-1.473786
2.994000,-1.394871
2.995000,-1.461058
2.996000,-1.422873
2.997000,-1.429237
2.998000,-1.396143
2.999000,-1.084300
3.000000,-1.128849
3.001000,-1.331229
3.002000,-1.551429
3.003000,-1.657074
3.004000,-1.785629
3.005000,-1.840361
3.006000,-1.847998
3.007000,-1.904003
3.008000,-1.760173
3.009000,-1.691440
3.010000,-1.583249
3.011000,-1.485242
3.012000,-1.383415
3.013000,-1.332502
3.014000,-1.332502
3.015000,-1.370687
3.016000,-1.440693
3.017000,-1.480150
3.018000,-1.547610
3.019000,-1.528518
3.020000,-1.332502
3.021000,-1.211583
3.022000,-1.281589
3.023000,-1.341412
3.024000,-1.417782
3.025000,-1.455966
3.026000,-1.491606
3.027000,-1.487787
3.028000,-1.589614
3.029000,-1.710532
3.030000,-1.658346
3.031000,-1.595978
3.032000,-1.621434
3.033000,-1.602342
3.034000,-1.560339
3.035000,-1.569248
3.036000,-1.546337
3.037000,-1.504334
3.038000,-1.486514
3.039000,-1.140305
3.040000,-0.838644
3.041000,-1.000293
3.042000,-1.203946
3.043000,-1.225584
3.044000,-1.313410
3.045000,-1.517062
3.046000,-1.602342
3.047000,-1.667256
3.048000,-1.681257
3.049000,-1.611252
3.050000,-1.607433
3.051000,-1.597251
3.052000,-1.576885
3.053000,-1.536155
3.054000,-1.636708
3.055000,-1.828906
3.056000,-1.958734
3.057000,-1.856908
3.058000,-1.668529
3.059000,-1.594705
3.060000,-1.524699
3.061000,-1.580704
3.062000,-1.630344
3.063000,-1.581977
3.064000,-1.463603
3.065000,-1.379597
3.066000,-1.328683
3.067000,-1.303227
3.068000,-1.363050
3.069000,-1.425419
3.070000,-1.477605
3.071000,-1.565430
3.072000,-1.683803
3.073000,-1.650709
3.074000,-1.603615
3.075000,-1.574340
3.076000,-1.514517
3.077000,-1.476332
3.078000,-1.377051
3.079000,-1.212856
3.080000,-1.374505
3.081000,-1.379597
3.082000,-1.440693
3.083000,-1.326138
3.084000,-1.308318
3.085000,-1.509425
3.086000,-1.579431
3.087000,-1.472513
3.088000,-1.393598
3.089000,-1.212856
3.090000,-0.963381
3.091000,-1.112302
3.092000,-1.305773
3.093000,-1.476332
3.094000,-1.578158
3.095000,-1.693986
3.096000,-1.630344
3.097000,-1.513244
3.098000,-1.543792
3.099000,-1.654528
3.100000,-1.683803
3.101000,-1.723261
3.102000,-1.687622
3.103000,-1.573067
3.104000,-1.546337
3.105000,-1.500516
3.106000,-1.509425
3.107000,-1.524699
3.108000,-1.457239
3.109000,-1.491606
3.110000,-1.489060
3.111000,-1.481423
3.112000,-1.443238
3.113000,-1.422873
3.114000,-1.435601
3.115000,-1.435601
3.116000,-1.461058
3.117000,-1.495424
3.118000,-1.532336
3.119000,-1.547610
3.120000,-1.528518
3.121000,-1.550156
3.122000,-1.606160
3.123000,-1.575612
3.124000,-1.468695
3.125000,-1.458512
3.126000,-1.396143
3.127000,-1.328683
3.128000,-1.338866
3.129000,-1.349049
3.130000,-1.341412
3.131000,-1.520881
3.132000,-1.532336
3.133000,-1.492879
3.134000,-1.492879
3.135000,-1.557793
3.136000,-1.556520
3.137000,-1.561611
3.138000,-1.622707
3.139000,-1.588341
3.140000,-1.492879
3.141000,-1.402508
3.142000,-1.336320
3.143000,-1.327411
3.144000,-1.360504
3.145000,-1.431783
3.146000,-1.527245
3.147000,-1.553974
3.148000,-1.561611
3.149000,-1.635435
3.150000,-1.696531
3.151000,-1.685076
3.152000,-1.617616
3.153000,-1.501788
3.154000,-1.454694
3.155000,-1.529791
3.156000,-1.592159
3.157000,-1.369414
3.158000,-1.403780
3.159000,-1.368141
3.160000,-1.324865
3.161000,-1.326138
3.162000,-1.206492
3.163000,-0.888284
3.164000,-0.995202
3.165000,-1.187399
3.166000,-1.631617
3.167000,-1.859454
3.168000,-2.101291
3.169000,-1.979100
3.170000,-1.918004
3.171000,-1.873455
3.172000,-1.688894
3.173000,-1.537428
3.174000,-1.452148
3.175000,-1.457239
3.176000,-1.411417
3.177000,-1.183581
3.178000,-1.214129
3.179000,-1.310864
3.180000,-1.422873
3.181000,-1.454694
3.182000,-1.513244
3.183000,-1.518335
3.184000,-1.524699
3.185000,-1.592159
3.186000,-1.643072
3.187000,-1.621434
3.188000,-1.585795
3.189000,-1.583249
3.190000,-1.560339
3.191000,-1.459785
3.192000,-1.417782
3.193000,-1.057571
3.194000,-1.030841
3.195000,-1.186127
3.196000,-1.370687
3.197000,-1.496697
3.198000,-1.590886
3.199000,-1.676166
3.200000,-1.715624
3.201000,-1.748717
3.202000,-1.753809
3.203000,-1.893820
3.204000,-1.863272
3.205000,-1.700350
3.206000,-1.541246
3.207000,-1.495424
3.208000,-1.429237
3.209000,-1.405053
3.210000,-1.360504
3.211000,-1.355413
3.212000,-1.343957
3.213000,-1.370687
3.214000,-1.387234
3.215000,-1.407599
3.216000,-1.436874
3.217000,-1.473786
3.218000,-1.509425
3.219000,-1.489060
3.220000,-1.510698
3.221000,-1.467422
3.222000,-1.439420
3.223000,-1.454694
3.224000,-1.466149
3.225000,-1.486514
3.226000,-1.503061
3.227000,-1.482696
3.228000,-1.510698
3.229000,-1.475059
3.230000,-1.444511
3.231000,-1.449602
3.232000,-1.489060
3.233000,-1.500516
3.234000,-1.571794
3.235000,-1.641800
3.236000,-1.637981
3.237000,-1.595978
3.238000,-1.583249
3.239000,-1.513244
3.240000,-1.468695
3.241000,-1.497970
3.242000,-1.472513
3.243000,-1.422873
3.244000,-1.458512
3.245000,-1.463603
3.246000,-1.466149
3.247000,-1.408872
3.248000,-1.406326
3.249000,-1.454694
3.250000,-1.500516
3.251000,-1.494151
3.252000,-1.450875
3.253000,-1.415236
3.254000,-1.420327
3.255000,-1.469968
3.256000,-1.495424
3.257000,-1.504334
3.258000,-1.501788
3.259000,-1.525972
3.260000,-1.519608
3.261000,-1.485242
3.262000,-1.431783
3.263000,-1.399962
3.264000,-1.399962
3.265000,-1.438147
3.266000,-1.501788
3.267000,-1.589614
3.268000,-1.654528
3.269000,-1.646891
3.270000,-1.702895
3.271000,-1.626526
3.272000,-1.593432
3.273000,-1.466149
3.274000,-1.444511
3.275000,-1.373233
3.276000,-1.245950
3.277000,-1.307045
3.278000,-1.477605
3.279000,-1.559066
3.280000,-1.559066
3.281000,-1.501788
3.282000,-1.487787
3.283000,-1.453421
3.284000,-1.433056
3.285000,-1.519608
3.286000,-1.597251
3.287000,-1.654528
3.288000,-1.682530
3.289000,-1.761446
3.290000,-1.747445
3.291000,-1.709260
3.292000,-1.648164
3.293000,-1.587068
3.294000,-1.503061
3.295000,-1.480150
3.296000,-1.580704
3.297000,-1.559066
3.298000,-1.439420
3.299000,-1.468695
3.300000,-1.455966
3.301000,-1.449602
3.302000,-1.467422
3.303000,-1.467422
3.304000,-1.490333
3.305000,-1.459785
3.306000,-1.430510
3.307000,-1.444511
3.308000,-1.449602
3.309000,-1.416509
3.310000,-1.397416
3.311000,-1.438147
3.312000,-1.454694
3.313000,-1.438147
3.314000,-1.329956
3.315000,-1.076663
3.316000,-0.864101
3.317000,-0.986292
3.318000,-1.256132
3.319000,-1.430510
3.320000,-1.576885
3.321000,-1.687622
3.322000,-1.728352
3.323000,-1.713078
3.324000,-1.802176
3.325000,-1.763991
3.326000,-1.693986
3.327000,-1.588341
3.328000,-1.546337
3.329000,-1.475059
3.330000,-1.410145
3.331000,-1.261223
3.332000,-1.340139
3.333000,-1.458512
3.334000,-1.519608
3.335000,-1.545065
3.336000,-1.478877
3.337000,-1.422873
3.338000,-1.405053
3.339000,-1.375778
3.340000,-1.413963
3.341000,-1.299408
3.342000,-1.327411
3.343000,-1.349049
3.344000,-1.444511
3.345000,-1.458512
3.346000,-1.438147
3.347000,-1.444511
3.348000,-1.495424
3.349000,-1.499243
3.350000,-1.500516
3.351000,-1.541246
3.352000,-1.651982
3.353000,-1.685076
3.354000,-1.737262
3.355000,-1.682530
3.356000,-1.673620
3.357000,-1.643072
3.358000,-1.616343
3.359000,-1.468695
3.360000,-1.322319
3.361000,-1.388506
3.362000,-1.430510
3.363000,-1.454694
3.364000,-1.472513
3.365000,-1.438147
3.366000,-1.459785
3.367000,-1.505607
3.368000,-1.609979
3.369000,-1.685076
3.370000,-1.575612
3.371000,-1.499243
3.372000,-1.501788
3.373000,-1.547610
3.374000,-1.606160
3.375000,-1.449602
3.376000,-1.391052
3.377000,-1.355413
3.378000,-1.528518
3.379000,-1.713078
3.380000,-1.686349
3.381000,-1.657074
3.382000,-1.598523
3.383000,-1.649437
3.384000,-1.683803
3.385000,-1.640527
3.386000,-1.543792
3.387000,-1.518335
3.388000,-1.116121
3.389000,-0.913741
3.390000,-1.018113
3.391000,-1.273952
3.392000,-1.579431
3.393000,-1.665983
3.394000,-1.692713
3.395000,-1.749990
3.396000,-1.840361
3.397000,-1.719442
3.398000,-1.562884
3.399000,-1.464876
3.400000,-1.359231
3.401000,-1.321046
3.402000,-1.299408
3.403000,-1.245950
3.404000,-1.243404
3.405000,-1.196309
3.406000,-1.215402
3.407000,-1.304500
3.408000,-1.515789
3.409000,-1.678712
3.410000,-1.681257
3.411000,-1.696531
3.412000,-1.650709
3.413000,-1.593432
3.414000,-1.541246
3.415000,-1.486514
3.416000,-1.429237
3.417000,-1.427964
3.418000,-1.382142
3.419000,-1.345230
3.420000,-1.402508
3.421000,-1.496697
3.422000,-1.345230
3.423000,-1.080482
3.424000,-1.248495
3.425000,-1.384688
3.426000,-1.459785
3.427000,-1.527245
3.428000,-1.593432
3.429000,-1.608706
3.430000,-1.609979
3.431000,-1.648164
3.432000,-1.653255
3.433000,-1.559066
3.434000,-1.525972
3.435000,-1.564157
3.436000,-1.585795
3.437000,-1.501788
3.438000,-1.499243
3.439000,-1.518335
3.440000,-1.475059
3.441000,-1.468695
3.442000,-1.571794
3.443000,-1.503061
3.444000,-1.458512
3.445000,-1.385961
3.446000,-1.303227
3.447000,-1.363050
3.448000,-1.431783
3.449000,-1.471240
3.450000,-1.543792
3.451000,-1.580704
3.452000,-1.682530
3.453000,-1.728352
3.454000,-1.776720
3.455000,-1.721988
3.456000,-1.691440
3.457000,-1.659619
3.458000,-1.621434
3.459000,-1.551429
3.460000,-1.487787
3.461000,-1.481423
3.462000,-1.430510
3.463000,-1.421600
3.464000,-1.399962
3.465000,-1.392325
3.466000,-1.354140
3.467000,-1.392325
3.468000,-1.480150
3.469000,-1.559066
3.470000,-1.575612
3.471000,-1.555247
3.472000,-1.551429
3.473000,-1.454694
3.474000,-1.407599
3.475000,-1.412690
3.476000,-1.399962
3.477000,-1.406326
3.478000,-1.415236
3.479000,-1.417782
3.480000,-1.439420
3.481000,-1.457239
3.482000,-1.444511
3.483000,-1.379597
3.484000,-1.477605
3.485000,-1.524699
3.486000,-1.504334
3.487000,-1.466149
3.488000,-1.434328
3.489000,-1.326138
3.490000,-1.327411
3.491000,-1.366868
3.492000,-1.382142
3.493000,-1.365596
3.494000,-1.380869
3.495000,-1.401235
3.496000,-1.449602
3.497000,-1.598523
3.498000,-1.641800
3.499000,-1.660892
3.500000,-1.668529
3.501000,-1.719442
3.502000,-1.693986
3.503000,-1.458512
3.504000,-1.462331
3.505000,-1.520881
3.506000,-1.504334
3.507000,-1.487787
3.508000,-1.487787
3.509000,-1.468695
3.510000,-1.455966
3.511000,-1.515789
3.512000,-1.461058
3.513000,-1.389779
3.514000,-1.415236
3.515000,-1.413963
3.516000,-1.413963
3.517000,-1.389779
3.518000,-1.379597
3.519000,-1.406326
3.520000,-1.256132
3.521000,-0.991384
3.522000,-1.126303
3.523000,-1.324865
3.524000,-1.576885
3.525000,-1.789448
3.526000,-1.893820
3.527000,-1.919277
3.528000,-1.946006
3.529000,-1.861999
3.530000,-1.777992
3.531000,-1.513244
3.532000,-1.427964
3.533000,-1.421600
3.534000,-1.467422
3.535000,-1.531063
3.536000,-1.515789
3.537000,-1.553974
3.538000,-1.613797
3.539000,-1.620162
3.540000,-1.676166
3.541000,-1.627799
3.542000,-1.579431
3.543000,-1.476332
3.544000,-1.429237
3.545000,-1.364323
3.546000,-1.310864
3.547000,-1.275225
3.548000,-1.326138
3.549000,-1.365596
3.550000,-1.349049
3.551000,-0.927742
3.552000,-1.035933
3.553000,-1.242131
3.554000,-1.490333
3.555000,-1.690167
3.556000,-1.791994
3.557000,-1.805995
3.558000,-1.767810
3.559000,-1.755082
3.560000,-1.681257
3.561000,-1.682530
3.562000,-1.651982
3.563000,-1.556520
3.564000,-1.443238
3.565000,-1.421600
3.566000,-1.399962
3.567000,-1.402508
3.568000,-1.433056
3.569000,-1.440693
3.570000,-1.434328
3.571000,-1.459785
3.572000,-1.483969
3.573000,-1.541246
3.574000,-1.546337
3.575000,-1.506880
3.576000,-1.469968
3.577000,-1.515789
3.578000,-1.589614
3.579000,-1.594705
3.580000,-1.471240
3.581000,-1.508152
3.582000,-1.588341
3.583000,-1.729625
3.584000,-1.747445
3.585000,-1.716897
3.586000,-1.626526
3.587000,-1.617616
3.588000,-1.579431
3.589000,-1.441965
3.590000,-1.149214
3.591000,-1.140305
3.592000,-1.209037
3.593000,-1.186127
3.594000,-1.168307
3.595000,-1.401235
3.596000,-1.494151
3.597000,-1.545065
3.598000,-1.637981
3.599000,-1.557793
3.600000,-1.575612
3.601000,-1.606160
3.602000,-1.581977
3.603000,-1.448329
3.604000,-1.441965
3.605000,-1.427964
3.606000,-1.439420
3.607000,-1.441965
3.608000,-1.445784
3.609000,-1.457239
3.610000,-1.427964
3.611000,-1.447057
3.612000,-1.486514
3.613000,-1.443238
3.614000,-1.219220
3.615000,-0.778821
3.616000,-0.818279
3.617000,-0.927742
3.618000,-1.332502
3.619000,-1.686349
3.620000,-1.906548
3.621000,-2.094927
3.622000,-2.186571
3.623000,-2.222210
3.624000,-2.098746
3.625000,-1.856908
3.626000,-1.617616
3.627000,-1.436874
3.628000,-1.458512
3.629000,-1.438147
3.630000,-1.387234
3.631000,-1.363050
3.632000,-1.327411
3.633000,-1.337593
3.634000,-1.436874
3.635000,-1.496697
3.636000,-1.439420
3.637000,-1.417782
3.638000,-1.467422
3.639000,-1.455966
3.640000,-1.492879
3.641000,-1.466149
3.642000,-1.440693
3.643000,-1.433056
3.644000,-1.420327
3.645000,-1.463603
3.646000,-1.466149
3.647000,-1.402508
3.648000,-1.468695
3.649000,-1.490333
3.650000,-1.452148
3.651000,-1.443238
3.652000,-1.458512
3.653000,-1.380869
3.654000,-1.417782
3.655000,-1.491606
3.656000,-1.566703
3.657000,-1.635435
3.658000,-1.584522
3.659000,-1.528518
3.660000,-1.504334
3.661000,-1.499243
3.662000,-1.447057
3.663000,-1.478877
3.664000,-1.532336
3.665000,-1.522154
3.666000,-1.514517
3.667000,-1.580704
3.668000,-1.550156
3.669000,-1.556520
3.670000,-1.548883
3.671000,-1.545065
3.672000,-1.576885
3.673000,-1.594705
3.674000,-1.580704
3.675000,-1.553974
3.676000,-1.417782
3.677000,-1.443238
3.678000,-1.459785
3.679000,-1.458512
3.680000,-1.444511
3.681000,-1.543792
3.682000,-1.585795
3.683000,-1.565430
3.684000,-1.539973
3.685000,-1.537428
3.686000,-1.471240
3.687000,-1.444511
3.688000,-1.438147
3.689000,-1.394871
3.690000,-1.202673
3.691000,-0.870465
3.692000,-0.949380
3.693000,-1.144123
3.694000,-1.455966
3.695000,-1.706714
3.696000,-1.845452
3.697000,-1.882365
3.698000,-1.868363
3.699000,-1.902730
3.700000,-1.761446
3.701000,-1.643072
3.702000,-1.482696
3.703000,-1.384688
3.704000,-1.420327
3.705000,-1.467422
3.706000,-1.527245
3.707000,-1.594705
3.708000,-1.310864
3.709000,-1.275225
3.710000,-1.332502
3.711000,-1.509425
3.712000,-1.541246
3.713000,-1.511971
3.714000,-1.287953
3.715000,-0.848827
3.716000,-0.934106
3.717000,-1.137759
3.718000,-1.430510
3.719000,-1.637981
3.720000,-1.821269
3.721000,-1.940915
3.722000,-1.855635
3.723000,-1.831451
3.724000,-1.864545
3.725000,-1.720715
3.726000,-1.574340
3.727000,-1.476332
3.728000,-1.407599
3.729000,-1.285407
3.730000,-1.298136
3.731000,-1.413963
3.732000,-1.552702
3.733000,-1.598523
3.734000,-1.631617
3.735000,-1.622707
3.736000,-1.542519
3.737000,-1.491606
3.738000,-1.430510
3.739000,-1.347776
3.740000,-1.313410
3.741000,-1.368141
3.742000,-1.405053
3.743000,-1.341412
3.744000,-1.380869
3.745000,-1.499243
3.746000,-1.580704
3.747000,-1.601069
3.748000,-1.625253
3.749000,-1.655801
3.750000,-1.690167
3.751000,-1.625253
3.752000,-1.548883
3.753000,-1.501788
3.754000,-1.509425
3.755000,-1.461058
3.756000,-1.453421
3.757000,-1.467422
3.758000,-1.448329
3.759000,-1.443238
3.760000,-1.415236
3.761000,-1.384688
3.762000,-1.375778
3.763000,-1.384688
3.764000,-1.399962
3.765000,-1.485242
3.766000,-1.487787
3.767000,-1.461058
3.768000,-1.517062
3.769000,-1.478877
3.770000,-1.392325
3.771000,-1.318501
3.772000,-1.309591
3.773000,-1.296863
3.774000,-1.420327
3.775000,-1.534882
3.776000,-1.541246
3.777000,-1.453421
3.778000,-1.539973
3.779000,-1.578158
3.780000,-1.529791
3.781000,-1.490333
3.782000,-1.480150
3.783000,-1.448329
3.784000,-1.623980
3.785000,-1.785629
3.786000,-1.751263
3.787000,-1.654528
3.788000,-1.565430
3.789000,-1.501788
3.790000,-1.481423
3.791000,-1.415236
3.792000,-1.275225
3.793000,-1.328683
3.794000,-1.435601
3.795000,-1.534882
3.796000,-1.641800
3.797000,-1.669802
3.798000,-1.662165
3.799000,-1.641800
3.800000,-1.654528
3.801000,-1.637981
3.802000,-1.557793
3.803000,-1.435601
3.804000,-1.361777
3.805000,-1.361777
3.806000,-1.389779
3.807000,-1.340139
3.808000,-1.371960
3.809000,-1.403780
3.810000,-1.354140
3.811000,-1.346503
3.812000,-1.359231
3.813000,-1.380869
3.814000,-1.323592
3.815000,-1.280316
3.816000,-1.342685
3.817000,-0.848827
3.818000,-0.447885
3.819000,-0.758456
3.820000,-1.272679
3.821000,-1.841634
3.822000,-2.209482
3.823000,-2.509870
3.824000,-2.478049
3.825000,-2.289670
3.826000,-2.046560
3.827000,-1.906548
3.828000,-1.808540
3.829000,-1.539973
3.830000,-1.453421
3.831000,-1.371960
3.832000,-1.291771
3.833000,-1.355413
3.834000,-1.415236
3.835000,-1.454694
3.836000,-1.436874
3.837000,-1.422873
3.838000,-1.394871
3.839000,-1.389779
3.840000,-1.359231
3.841000,-1.399962
3.842000,-1.415236
3.843000,-1.419054
3.844000,-1.458512
3.845000,-1.481423
3.846000,-1.489060
3.847000,-1.550156
3.848000,-1.581977
3.849000,-1.547610
3.850000,-1.523426
3.851000,-1.420327
3.852000,-1.273952
3.853000,-1.247222
3.854000,-1.231948
3.855000,-1.229403
3.856000,-1.290499
3.857000,-1.410145
3.858000,-1.483969
3.859000,-1.534882
3.860000,-1.677439
3.861000,-1.766537
3.862000,-1.733443
3.863000,-1.674893
3.864000,-1.606160
3.865000,-1.599796
3.866000,-1.584522
3.867000,-1.598523
3.868000,-1.589614
3.869000,-1.576885
3.870000,-1.555247
3.871000,-1.480150
3.872000,-1.492879
3.873000,-1.537428
3.874000,-1.489060
3.875000,-1.396143
3.876000,-1.286680
3.877000,-1.233221
3.878000,-1.256132
3.879000,-1.335048
3.880000,-1.419054
3.881000,-1.309591
3.882000,-1.294317
3.883000,-1.520881
3.884000,-1.650709
3.885000,-1.672348
3.886000,-1.635435
3.887000,-1.589614
3.888000,-1.602342
3.889000,-1.617616
3.890000,-1.618889
3.891000,-1.494151
3.892000,-1.458512
3.893000,-1.364323
3.894000,-1.257405
3.895000,-1.253586
3.896000,-1.321046
3.897000,-1.354140
3.898000,-1.463603
3.899000,-1.604888
3.900000,-1.602342
3.901000,-1.643072
3.902000,-1.601069
3.903000,-1.571794
3.904000,-1.585795
3.905000,-1.616343
3.906000,-1.598523
3.907000,-1.541246
3.908000,-1.483969
3.909000,-1.422873
3.910000,-1.389779
3.911000,-1.401235
3.912000,-1.368141
3.913000,-1.389779
3.914000,-1.382142
3.915000,-1.389779
3.916000,-1.405053
3.917000,-1.448329
3.918000,-1.545065
3.919000,-1.626526
3.920000,-1.640527
3.921000,-1.565430
3.922000,-1.529791
3.923000,-1.510698
3.924000,-1.510698
3.925000,-1.533609
3.926000,-1.552702
3.927000,-1.210310
3.928000,-1.071572
3.929000,-1.117394
3.930000,-1.234494
3.931000,-1.510698
3.932000,-1.641800
3.933000,-1.808540
3.934000,-1.859454
3.935000,-1.861999
3.936000,-1.667256
3.937000,-1.486514
3.938000,-1.361777
3.939000,-1.284134
3.940000,-1.351594
3.941000,-1.480150
3.942000,-1.533609
3.943000,-1.532336
3.944000,-1.612525
3.945000,-1.660892
3.946000,-1.664711
3.947000,-1.611252
3.948000,-1.588341
3.949000,-1.565430
3.950000,-1.504334
3.951000,-1.473786
3.952000,-1.508152
3.953000,-1.520881
3.954000,-1.481423
3.955000,-1.574340
3.956000,-1.631617
3.957000,-1.590886
3.958000,-1.542519
3.959000,-1.496697
3.960000,-1.398689
3.961000,-1.361777
3.962000,-1.371960
3.963000,-1.401235
3.964000,-1.421600
3.965000,-1.468695
3.966000,-1.486514
3.967000,-1.332502
3.968000,-1.300681
3.969000,-1.351594
3.970000,-1.419054
3.971000,-1.515789
3.972000,-1.585795
3.973000,-1.609979
3.974000,-1.617616
3.975000,-1.514517
3.976000,-1.524699
3.977000,-1.550156
3.978000,-1.595978
3.979000,-1.576885
3.980000,-1.565430
3.981000,-1.663438
3.982000,-1.743626
3.983000,-1.682530
3.984000,-1.641800
3.985000,-1.574340
3.986000,-1.435601
3.987000,-1.370687
3.988000,-1.030841
3.989000,-0.736818
3.990000,-0.932833
3.991000,-1.258678
3.992000,-1.643072
3.993000,-1.771628
3.994000,-1.869636
3.995000,-1.807268
3.996000,-1.702895
3.997000,-1.658346
3.998000,-1.566703
3.999000,-1.520881
4.000000,-1.326138
4.001000,-1.357959
4.002000,-1.286680
4.003000,-1.273952
4.004000,-1.426691
4.005000,-1.534882
4.006000,-1.578158
4.007000,-1.581977
4.008000,-1.537428
4.009000,-1.476332
4.010000,-1.447057
4.011000,-1.471240
4.012000,-1.466149
4.013000,-1.427964
4.014000,-1.398689
4.015000,-1.347776
4.016000,-1.341412
4.017000,-1.354140
4.018000,-1.397416
4.019000,-1.401235
4.020000,-1.444511
4.021000,-1.475059
4.022000,-1.450875
4.023000,-1.492879
4.024000,-1.525972
4.025000,-1.576885
4.026000,-1.539973
4.027000,-1.496697
4.028000,-1.360504
4.029000,-0.987565
4.030000,-1.047388
4.031000,-1.263769
4.032000,-1.522154
4.033000,-1.735989
4.034000,-1.947279
4.035000,-2.032558
4.036000,-1.971463
4.037000,-1.963826
4.038000,-1.867091
4.039000,-1.693986
4.040000,-1.627799
4.041000,-1.511971
4.042000,-1.407599
4.043000,-1.312137
4.044000,-1.276497
4.045000,-1.388506
4.046000,-1.466149
4.047000,-1.444511
4.048000,-1.468695
4.049000,-1.519608
4.050000,-1.590886
4.051000,-1.561611
4.052000,-1.578158
4.053000,-1.514517
4.054000,-1.513244
4.055000,-1.545065
4.056000,-1.519608
4.057000,-1.444511
4.058000,-1.426691
4.059000,-1.419054
4.060000,-1.392325
4.061000,-1.457239
4.062000,-1.473786
4.063000,-1.480150
4.064000,-1.410145
4.065000,-1.267588
4.066000,-1.203946
4.067000,-1.291771
4.068000,-1.413963
4.069000,-1.510698
4.070000,-1.546337
4.071000,-1.574340
4.072000,-1.687622
4.073000,-1.738535
4.074000,-1.732171
4.075000,-1.747445
4.076000,-1.660892
4.077000,-1.593432
4.078000,-1.529791
4.079000,-1.497970
4.080000,-1.454694
4.081000,-1.417782
4.082000,-1.326138
4.083000,-1.329956
4.084000,-1.345230
4.085000,-1.401235
4.086000,-1.300681
4.087000,-1.196309
4.088000,-1.189945
4.089000,-1.167034
4.090000,-1.111030
4.091000,-1.155579
4.092000,-1.300681
4.093000,-1.303227
4.094000,-0.977382
4.095000,-1.189945
4.096000,-1.459785
4.097000,-1.776720
4.098000,-1.998192
4.099000,-2.064379
4.100000,-1.993101
4.101000,-1.935823
4.102000,-1.962553
4.103000,-1.840361
4.104000,-1.748717
4.105000,-1.627799
4.106000,-1.561611
4.107000,-1.514517
4.108000,-1.468695
4.109000,-1.459785
4.110000,-1.462331
4.111000,-1.520881
4.112000,-1.495424
4.113000,-1.476332
4.114000,-1.438147
4.115000,-1.436874
4.116000,-1.399962
4.117000,-1.405053
4.118000,-1.394871
4.119000,-1.317228
4.120000,-1.318501
4.121000,-1.373233
4.122000,-1.436874
4.123000,-1.458512
4.124000,-1.551429
4.125000,-1.629071
4.126000,-1.589614
4.127000,-1.510698
4.128000,-1.504334
4.129000,-1.392325
4.130000,-0.981201
4.131000,-0.909922
4.132000,-1.083027
4.133000,-1.226857
4.134000,-1.355413
4.135000,-1.487787
4.136000,-1.616343
4.137000,-1.756354
4.138000,-1.770355
4.139000,-1.807268
4.140000,-1.850544
4.141000,-1.795812
4.142000,-1.706714
4.143000,-1.620162
4.144000,-1.543792
4.145000,-1.454694
4.146000,-1.294317
4.147000,-1.265042
4.148000,-1.276497
4.149000,-1.312137
4.150000,-1.329956
4.151000,-1.398689
4.152000,-1.494151
4.153000,-1.503061
4.154000,-1.499243
4.155000,-1.581977
4.156000,-1.665983
4.157000,-1.710532
4.158000,-1.734716
4.159000,-1.640527
4.160000,-1.509425
4.161000,-1.482696
4.162000,-1.357959
4.163000,-1.284134
4.164000,-1.336320
4.165000,-1.424146
4.166000,-1.471240
4.167000,-1.611252
4.168000,-1.667256
4.169000,-1.587068
4.170000,-1.595978
4.171000,-1.604888
4.172000,-1.551429
4.173000,-1.461058
4.174000,-1.472513
4.175000,-1.426691
4.176000,-1.378324
4.177000,-1.388506
4.178000,-1.313410
4.179000,-1.389779
4.180000,-1.485242
4.181000,-1.562884
4.182000,-1.597251
4.183000,-1.537428
4.184000,-1.422873
4.185000,-1.398689
4.186000,-1.313410
4.187000,-1.214129
4.188000,-1.195036
4.189000,-1.097028
4.190000,-1.192491
4.191000,-1.403780
4.192000,-1.571794
4.193000,-1.649437
4.194000,-1.528518
4.195000,-1.499243
4.196000,-1.574340
4.197000,-1.632890
4.198000,-1.695259
4.199000,-1.776720
4.200000,-1.864545
4.201000,-1.902730
4.202000,-1.842907
4.203000,-1.702895
4.204000,-1.562884
4.205000,-1.551429
4.206000,-1.567976
4.207000,-1.541246
4.208000,-1.519608
4.209000,-1.466149
4.210000,-1.415236
4.211000,-1.431783
4.212000,-1.461058
4.213000,-1.433056
4.214000,-1.434328
4.215000,-1.449602
4.216000,-1.471240
4.217000,-1.504334
4.218000,-1.567976
4.219000,-1.545065
4.220000,-1.503061
4.221000,-1.490333
4.222000,-1.482696
4.223000,-1.482696
4.224000,-1.439420
4.225000,-1.373233
4.226000,-1.322319
4.227000,-1.322319
4.228000,-1.354140
4.229000,-1.359231
4.230000,-1.383415
4.231000,-1.384688
4.232000,-1.455966
4.233000,-1.609979
4.234000,-1.654528
4.235000,-1.654528
4.236000,-1.585795
4.237000,-1.524699
4.238000,-1.466149
4.239000,-1.417782
4.240000,-1.201400
4.241000,-0.744455
4.242000,-0.701178
4.243000,-0.862828
4.244000,-1.205219
4.245000,-1.612525
4.246000,-1.837815
4.247000,-1.962553
4.248000,-2.142022
4.249000,-2.245121
4.250000,-2.168751
4.251000,-2.073289
4.252000,-1.942188
4.253000,-1.851817
4.254000,-1.678712
4.255000,-1.625253
4.256000,-1.588341
4.257000,-1.415236
4.258000,-1.304500
4.259000,-1.352867
4.260000,-1.355413
4.261000,-1.356686
4.262000,-1.356686
4.263000,-1.351594
4.264000,-1.419054
4.265000,-1.475059
4.266000,-1.486514
4.267000,-1.537428
4.268000,-1.561611
4.269000,-1.520881
4.270000,-1.517062
4.271000,-1.560339
4.272000,-1.473786
4.273000,-1.415236
4.274000,-1.389779
4.275000,-1.382142
4.276000,-1.371960
4.277000,-1.406326
4.278000,-1.439420
4.279000,-1.429237
4.280000,-1.410145
4.281000,-1.369414
4.282000,-1.350322
4.283000,-1.280316
4.284000,-1.287953
4.285000,-1.373233
4.286000,-1.310864
4.287000,-1.349049
4.288000,-1.504334
4.289000,-1.550156
4.290000,-1.590886
4.291000,-1.559066
4.292000,-1.560339
4.293000,-1.483969
4.294000,-1.457239
4.295000,-1.487787
4.296000,-1.538700
4.297000,-1.528518
4.298000,-1.464876
4.299000,-1.476332
4.300000,-1.497970
4.301000,-1.569248
4.302000,-1.573067
4.303000,-1.560339
4.304000,-1.592159
4.305000,-1.637981
4.306000,-1.663438
4.307000,-1.662165
4.308000,-1.602342
4.309000,-1.517062
4.310000,-1.475059
4.311000,-1.486514
4.312000,-1.483969
4.313000,-1.431783
4.314000,-1.403780
4.315000,-1.422873
4.316000,-1.419054
4.317000,-1.441965
4.318000,-1.486514
4.319000,-1.520881
4.320000,-1.384688
4.321000,-1.249768
4.322000,-1.150487
4.323000,-1.060116
4.324000,-1.053752
4.325000,-1.150487
4.326000,-1.315955
4.327000,-1.506880
4.328000,-1.646891
4.329000,-1.777992
4.330000,-1.817450
4.331000,-1.779265
4.332000,-1.788175
4.333000,-1.772901
4.334000,-1.763991
4.335000,-1.735989
4.336000,-1.683803
4.337000,-1.622707
4.338000,-1.580704
4.339000,-1.565430
4.340000,-1.541246
4.341000,-1.523426
4.342000,-1.513244
4.343000,-1.496697
4.344000,-1.489060
4.345000,-1.508152
4.346000,-1.482696
4.347000,-1.487787
4.348000,-1.499243
4.349000,-1.483969
4.350000,-1.448329
4.351000,-1.487787
4.352000,-1.472513
4.353000,-1.483969
4.354000,-1.476332
4.355000,-1.469968
4.356000,-1.459785
4.357000,-1.388506
4.358000,-1.298136
4.359000,-1.314682
4.360000,-1.037205
4.361000,-0.922651
4.362000,-0.971018
4.363000,-1.253586
4.364000,-1.491606
4.365000,-1.702895
4.366000,-1.580704
4.367000,-1.156851
4.368000,-1.196309
4.369000,-1.304500
4.370000,-1.481423
4.371000,-1.677439
4.372000,-1.785629
4.373000,-1.870909
4.374000,-1.856908
4.375000,-1.954916
4.376000,-1.881092
4.377000,-1.814905
4.378000,-1.718169
4.379000,-1.622707
4.380000,-1.524699
4.381000,-1.377051
4.382000,-1.471240
4.383000,-1.504334
4.384000,-1.513244
4.385000,-1.518335
4.386000,-1.518335
4.387000,-1.573067
4.388000,-1.534882
4.389000,-1.490333
4.390000,-1.431783
4.391000,-1.392325
4.392000,-1.382142
4.393000,-1.323592
4.394000,-1.265042
4.395000,-1.248495
4.396000,-1.319774
4.397000,-1.351594
4.398000,-1.389779
4.399000,-1.401235
4.400000,-1.490333
4.401000,-1.562884
4.402000,-1.613797
4.403000,-1.637981
4.404000,-1.598523
4.405000,-1.511971
4.406000,-1.429237
4.407000,-1.356686
4.408000,-1.326138
4.409000,-1.347776
4.410000,-1.172125
4.411000,-1.188672
4.412000,-1.328683
4.413000,-1.420327
4.414000,-1.545065
4.415000,-1.629071
4.416000,-1.587068
4.417000,-1.584522
4.418000,-1.743626
4.419000,-1.856908
4.420000,-1.704168
4.421000,-1.659619
4.422000,-1.636708
4.423000,-1.593432
4.424000,-1.499243
4.425000,-1.438147
4.426000,-1.415236
4.427000,-1.444511
4.428000,-1.464876
4.429000,-1.495424
4.430000,-1.482696
4.431000,-1.438147
4.432000,-1.449602
4.433000,-1.469968
4.434000,-1.510698
4.435000,-1.545065
4.436000,-1.504334
4.437000,-1.468695
4.438000,-1.459785
4.439000,-1.487787
4.440000,-1.489060
4.441000,-1.497970
4.442000,-1.457239
4.443000,-1.382142
4.444000,-1.426691
4.445000,-1.435601
4.446000,-1.491606
4.447000,-1.459785
4.448000,-1.401235
4.449000,-1.412690
4.450000,-1.434328
4.451000,-1.503061
4.452000,-1.607433
4.453000,-1.590886
4.454000,-1.576885
4.455000,-1.607433
4.456000,-1.723261
4.457000,-1.774174
4.458000,-1.713078
4.459000,-1.539973
4.460000,-1.405053
4.461000,-1.392325
4.462000,-1.394871
4.463000,-1.440693
4.464000,-1.483969
4.465000,-1.564157
4.466000,-1.595978
4.467000,-1.579431
4.468000,-1.453421
4.469000,-1.438147
4.470000,-1.415236
4.471000,-1.447057
4.472000,-1.529791
4.473000,-1.565430
4.474000,-1.542519
4.475000,-1.299408
4.476000,-1.095756
4.477000,-1.256132
4.478000,-1.441965
4.479000,-1.674893
4.480000,-1.758900
4.481000,-1.825087
4.482000,-1.863272
4.483000,-1.803449
4.484000,-1.755082
4.485000,-1.641800
4.486000,-1.378324
4.487000,-1.173398
4.488000,-1.198855
4.489000,-1.282862
4.490000,-1.309591
4.491000,-1.410145
4.492000,-1.443238
4.493000,-1.419054
4.494000,-1.405053
4.495000,-1.439420
4.496000,-1.514517
4.497000,-1.567976
4.498000,-1.609979
4.499000,-1.551429
4.500000,-1.515789
4.501000,-1.480150
4.502000,-1.478877
4.503000,-1.491606
4.504000,-1.482696
4.505000,-1.459785
4.506000,-1.448329
4.507000,-1.503061
4.508000,-1.518335
4.509000,-1.490333
4.510000,-1.505607
4.511000,-1.495424
4.512000,-1.375778
4.513000,-1.361777
4.514000,-1.391052
4.515000,-1.448329
4.516000,-1.514517
4.517000,-1.520881
4.518000,-1.527245
4.519000,-1.517062
4.520000,-1.546337
4.521000,-1.617616
4.522000,-1.648164
4.523000,-1.609979
4.524000,-1.570521
4.525000,-1.500516
4.526000,-1.023204
4.527000,-0.809369
4.528000,-0.971018
4.529000,-1.289226
4.530000,-1.627799
4.531000,-1.817450
4.532000,-1.926914
4.533000,-1.940915
4.534000,-1.948552
4.535000,-1.900184
4.536000,-1.813632
4.537000,-1.677439
4.538000,-1.621434
4.539000,-1.509425
4.540000,-1.337593
4.541000,-1.253586
4.542000,-1.321046
4.543000,-1.299408
4.544000,-1.356686
4.545000,-1.408872
4.546000,-1.385961
4.547000,-1.387234
4.548000,-1.439420
4.549000,-1.458512
4.550000,-1.447057
4.551000,-1.489060
4.552000,-1.464876
4.553000,-1.485242
4.554000,-1.496697
4.555000,-1.529791
4.556000,-1.565430
4.557000,-1.552702
4.558000,-1.574340
4.559000,-1.609979
4.560000,-1.622707
4.561000,-1.667256
4.562000,-1.631617
4.563000,-1.547610
4.564000,-1.415236
4.565000,-1.298136
4.566000,-1.239585
4.567000,-1.261223
4.568000,-1.137759
4.569000,-0.953199
4.570000,-1.107211
4.571000,-1.270133
4.572000,-1.515789
4.573000,-1.762718
4.574000,-1.864545
4.575000,-1.906548
4.576000,-1.876000
4.577000,-1.909094
4.578000,-1.850544
4.579000,-1.710532
4.580000,-1.539973
4.581000,-1.341412
4.582000,-1.301954
4.583000,-1.357959
4.584000,-1.422873
4.585000,-1.369414
4.586000,-1.331229
4.587000,-1.331229
4.588000,-1.422873
4.589000,-1.560339
4.590000,-1.551429
4.591000,-1.534882
4.592000,-1.481423
4.593000,-1.458512
4.594000,-1.486514
4.595000,-1.533609
4.596000,-1.536155
4.597000,-1.560339
4.598000,-1.571794
4.599000,-1.537428
4.600000,-1.459785
4.601000,-1.366868
4.602000,-1.452148
4.603000,-1.411417
4.604000,-1.393598
4.605000,-1.417782
4.606000,-1.378324
4.607000,-1.268860
4.608000,-1.315955
4.609000,-1.343957
4.610000,-1.405053
4.611000,-1.511971
4.612000,-1.623980
4.613000,-1.650709
4.614000,-1.603615
4.615000,-1.594705
4.616000,-1.559066
4.617000,-1.504334
4.618000,-1.489060
4.619000,-1.499243
4.620000,-1.560339
4.621000,-1.505607
4.622000,-1.508152
4.623000,-1.468695
4.624000,-1.467422
4.625000,-1.495424
4.626000,-1.448329
4.627000,-1.438147
4.628000,-1.458512
4.629000,-1.462331
4.630000,-1.458512
4.631000,-1.480150
4.632000,-1.482696
4.633000,-1.458512
4.634000,-1.468695
4.635000,-1.444511
4.636000,-1.433056
4.637000,-1.490333
4.638000,-1.578158
4.639000,-1.601069
4.640000,-1.548883
4.641000,-1.481423
4.642000,-1.419054
4.643000,-1.478877
4.644000,-1.574340
4.645000,-1.532336
4.646000,-1.410145
4.647000,-1.445784
4.648000,-1.461058
4.649000,-1.478877
4.650000,-1.487787
4.651000,-1.469968
4.652000,-1.448329
4.653000,-1.458512
4.654000,-1.482696
4.655000,-1.533609
4.656000,-1.566703
4.657000,-1.539973
4.658000,-1.534882
4.659000,-1.517062
4.660000,-1.515789
4.661000,-1.559066
4.662000,-1.555247
4.663000,-1.548883
4.664000,-1.551429
4.665000,-1.489060
4.666000,-1.463603
4.667000,-1.419054
4.668000,-1.366868
4.669000,-1.321046
4.670000,-1.383415
4.671000,-1.151760
4.672000,-0.585351
4.673000,-0.738090
4.674000,-1.091937
4.675000,-1.486514
4.676000,-1.776720
4.677000,-2.054197
4.678000,-2.199299
4.679000,-2.290943
4.680000,-2.252758
4.681000,-1.980372
4.682000,-1.774174
4.683000,-1.639254
4.684000,-1.643072
4.685000,-1.623980
4.686000,-1.461058
4.687000,-1.388506
4.688000,-1.397416
4.689000,-1.281589
4.690000,-1.254859
4.691000,-1.360504
4.692000,-1.454694
4.693000,-1.448329
4.694000,-1.427964
4.695000,-1.477605
4.696000,-1.513244
4.697000,-1.531063
4.698000,-1.469968
4.699000,-1.430510
4.700000,-1.397416
4.701000,-1.435601
4.702000,-1.384688
4.703000,-1.321046
4.704000,-1.310864
4.705000,-1.307045
4.706000,-1.438147
4.707000,-1.538700
4.708000,-1.500516
4.709000,-1.485242
4.710000,-1.490333
4.711000,-1.524699
4.712000,-1.566703
4.713000,-1.635435
4.714000,-1.592159
4.715000,-1.570521
4.716000,-1.522154
4.717000,-1.448329
4.718000,-1.475059
4.719000,-1.430510
4.720000,-1.497970
4.721000,-1.553974
4.722000,-1.524699
4.723000,-1.491606
4.724000,-1.562884
4.725000,-1.593432
4.726000,-1.491606
4.727000,-1.350322
4.728000,-1.357959
4.729000,-1.341412
4.730000,-1.360504
4.731000,-1.374505
4.732000,-1.364323
4.733000,-1.399962
4.734000,-1.452148
4.735000,-1.514517
4.736000,-1.463603
4.737000,-1.433056
4.738000,-1.438147
4.739000,-1.447057
4.740000,-1.357959
4.741000,-1.392325
4.742000,-1.478877
4.743000,-1.517062
4.744000,-1.587068
4.745000,-1.626526
4.746000,-1.625253
4.747000,-1.603615
4.748000,-1.593432
4.749000,-1.618889
4.750000,-1.580704
4.751000,-1.489060
4.752000,-1.462331
4.753000,-1.410145
4.754000,-1.427964
4.755000,-1.496697
4.756000,-1.547610
4.757000,-1.611252
4.758000,-1.657074
4.759000,-1.608706
4.760000,-1.574340
4.761000,-1.550156
4.762000,-1.529791
4.763000,-1.561611
4.764000,-1.569248
4.765000,-1.553974
4.766000,-1.473786
4.767000,-1.482696
4.768000,-1.560339
4.769000,-1.607433
4.770000,-1.585795
4.771000,-1.486514
4.772000,-1.217947
4.773000,-0.444067
4.774000,-0.402063
4.775000,-0.735545
4.776000,-1.234494
4.777000,-1.533609
4.778000,-1.788175
4.779000,-2.130566
4.780000,-2.157296
4.781000,-2.199299
4.782000,-2.166206
4.783000,-2.080926
4.784000,-1.920549
4.785000,-1.771628
4.786000,-1.550156
4.787000,-1.321046
4.788000,-1.317228
4.789000,-1.427964
4.790000,-1.340139
4.791000,-1.328683
4.792000,-1.257405
4.793000,-1.181035
4.794000,-1.265042
4.795000,-1.444511
4.796000,-1.504334
4.797000,-1.617616
4.798000,-1.576885
4.799000,-1.483969
4.800000,-1.452148
4.801000,-1.454694
4.802000,-1.469968
4.803000,-1.515789
4.804000,-1.599796
4.805000,-1.595978
4.806000,-1.601069
4.807000,-1.564157
4.808000,-1.435601
4.809000,-1.387234
4.810000,-1.383415
4.811000,-1.440693
4.812000,-1.426691
4.813000,-1.347776
4.814000,-1.314682
4.815000,-1.365596
4.816000,-1.445784
4.817000,-1.576885
4.818000,-1.658346
4.819000,-1.654528
4.820000,-1.580704
4.821000,-1.553974
4.822000,-1.524699
4.823000,-1.525972
4.824000,-1.513244
4.825000,-1.477605
4.826000,-1.337593
4.827000,-1.301954
4.828000,-1.393598
4.829000,-1.421600
4.830000,-1.454694
4.831000,-1.514517
4.832000,-1.520881
4.833000,-1.509425
4.834000,-1.510698
4.835000,-1.486514
4.836000,-1.425419
4.837000,-1.417782
4.838000,-1.444511
4.839000,-1.473786
4.840000,-1.405053
4.841000,-1.419054
4.842000,-1.509425
4.843000,-1.537428
4.844000,-1.555247
4.845000,-1.532336
4.846000,-1.505607
4.847000,-1.548883
4.848000,-1.621434
4.849000,-1.489060
4.850000,-1.216674
4.851000,-1.289226
4.852000,-1.336320
4.853000,-1.515789
4.854000,-1.691440
4.855000,-1.791994
4.856000,-1.804722
4.857000,-1.715624
4.858000,-1.665983
4.859000,-1.531063
4.860000,-1.461058
4.861000,-1.490333
4.862000,-1.491606
4.863000,-1.422873
4.864000,-1.411417
4.865000,-1.443238
4.866000,-1.328683
4.867000,-1.331229
4.868000,-1.385961
4.869000,-1.363050
4.870000,-1.332502
4.871000,-1.326138
4.872000,-1.433056
4.873000,-1.547610
4.874000,-1.665983
4.875000,-1.668529
4.876000,-1.579431
4.877000,-1.562884
4.878000,-1.629071
4.879000,-1.682530
4.880000,-1.711805
4.881000,-1.620162
4.882000,-1.659619
4.883000,-1.612525
4.884000,-1.589614
4.885000,-1.547610
4.886000,-1.407599
4.887000,-0.979928
4.888000,-1.015567
4.889000,-1.215402
4.890000,-1.489060
4.891000,-1.713078
4.892000,-1.744899
4.893000,-1.710532
4.894000,-1.699077
4.895000,-1.724534
4.896000,-1.650709
4.897000,-1.593432
4.898000,-1.570521
4.899000,-1.504334
4.900000,-1.396143
4.901000,-1.265042
4.902000,-1.225584
4.903000,-1.329956
4.904000,-1.398689
4.905000,-1.419054
4.906000,-1.486514
4.907000,-1.408872
4.908000,-1.382142
4.909000,-1.387234
4.910000,-1.411417
4.911000,-1.382142
4.912000,-1.443238
4.913000,-1.473786
4.914000,-1.462331
4.915000,-1.447057
4.916000,-1.468695
4.917000,-1.458512
4.918000,-1.458512
4.919000,-1.477605
4.920000,-1.522154
4.921000,-1.448329
4.922000,-1.441965
4.923000,-1.425419
4.924000,-1.450875
4.925000,-1.468695
4.926000,-1.463603
4.927000,-1.515789
4.928000,-1.536155
4.929000,-1.579431
4.930000,-1.601069
4.931000,-1.587068
4.932000,-1.546337
4.933000,-1.495424
4.934000,-1.504334
4.935000,-1.533609
4.936000,-1.523426
4.937000,-1.486514
4.938000,-1.383415
4.939000,-1.399962
4.940000,-1.543792
4.941000,-1.655801
4.942000,-1.719442
4.943000,-1.653255
4.944000,-1.645618
4.945000,-1.630344
4.946000,-1.599796
4.947000,-1.546337
4.948000,-1.422873
4.949000,-1.374505
4.950000,-1.394871
4.951000,-1.440693
4.952000,-1.415236
4.953000,-1.122485
4.954000,-1.010476
4.955000,-1.161943
4.956000,-1.361777
4.957000,-1.477605
4.958000,-1.559066
4.959000,-1.621434
4.960000,-1.707987
4.961000,-1.793266
4.962000,-1.784357
4.963000,-1.769083
4.964000,-1.631617
4.965000,-1.430510
4.966000,-1.407599
4.967000,-1.443238
4.968000,-1.510698
4.969000,-1.580704
4.970000,-1.632890
4.971000,-1.646891
4.972000,-1.671075
4.973000,-1.545065
4.974000,-1.415236
4.975000,-1.350322
4.976000,-1.355413
4.977000,-1.415236
4.978000,-1.455966
4.979000,-1.450875
4.980000,-1.310864
4.981000,-1.197582
4.982000,-1.247222
4.983000,-1.384688
4.984000,-1.448329
4.985000,-1.519608
4.986000,-1.550156
4.987000,-1.580704
4.988000,-1.644345
4.989000,-1.693986
4.990000,-1.797085
4.991000,-1.758900
4.992000,-1.511971
4.993000,-1.440693
4.994000,-1.545065
4.995000,-1.200128
4.996000,-1.006657
4.997000,-1.133940
4.998000,-1.384688
4.999000,-1.693986
5.000000,-1.845452
5.001000,-1.937096
5.002000,-1.893820
5.003000,-1.870909
5.004000,-1.747445
5.005000,-1.567976
5.006000,-1.499243
5.007000,-1.476332
5.008000,-1.351594
5.009000,-1.308318
5.010000,-1.321046
5.011000,-1.380869
5.012000,-1.373233
5.013000,-1.323592
5.014000,-1.478877
5.015000,-1.552702
5.016000,-1.567976
5.017000,-1.514517
5.018000,-1.480150
5.019000,-1.410145
5.020000,-1.335048
5.021000,-1.365596
5.022000,-1.349049
5.023000,-1.364323
5.024000,-1.359231
5.025000,-1.332502
5.026000,-1.365596
5.027000,-1.431783
5.028000,-1.478877
5.029000,-1.556520
5.030000,-1.609979
5.031000,-1.579431
5.032000,-1.529791
5.033000,-1.473786
5.034000,-1.494151
5.035000,-1.552702
5.036000,-1.583249
5.037000,-1.545065
5.038000,-1.515789
5.039000,-1.495424
5.040000,-1.472513
5.041000,-1.501788
5.042000,-1.560339
5.043000,-1.551429
5.044000,-1.538700
5.045000,-1.436874
5.046000,-1.458512
5.047000,-1.450875
5.048000,-1.441965
5.049000,-1.434328
5.050000,-1.450875
5.051000,-1.515789
5.052000,-1.528518
5.053000,-1.523426
5.054000,-1.504334
5.055000,-1.482696
5.056000,-1.476332
5.057000,-1.501788
5.058000,-1.550156
5.059000,-1.127576
5.060000,-0.904831
5.061000,-1.140305
5.062000,-1.426691
5.063000,-1.616343
5.064000,-1.714351
5.065000,-1.739808
5.066000,-1.695259
5.067000,-1.830178
5.068000,-1.873455
5.069000,-1.760173
5.070000,-1.709260
5.071000,-1.623980
5.072000,-1.531063
5.073000,-1.490333
5.074000,-1.452148
5.075000,-1.443238
5.076000,-1.433056
5.077000,-1.511971
5.078000,-1.547610
5.079000,-1.524699
5.080000,-1.508152
5.081000,-1.455966
5.082000,-1.440693
5.083000,-1.478877
5.084000,-1.524699
5.085000,-1.514517
5.086000,-1.461058
5.087000,-1.397416
5.088000,-1.485242
5.089000,-1.673620
5.090000,-1.626526
5.091000,-1.476332
5.092000,-1.405053
5.093000,-1.396143
5.094000,-1.445784
5.095000,-1.337593
5.096000,-1.328683
5.097000,-1.383415
5.098000,-1.476332
5.099000,-1.478877
5.100000,-1.590886
5.101000,-1.601069
5.102000,-1.431783
5.103000,-1.468695
5.104000,-1.483969
5.105000,-1.489060
5.106000,-1.509425
5.107000,-1.556520
5.108000,-1.589614
5.109000,-1.584522
5.110000,-1.489060
5.111000,-1.453421
5.112000,-1.117394
5.113000,-0.867919
5.114000,-1.089391
5.115000,-1.253586
5.116000,-1.562884
5.117000,-1.769083
5.118000,-1.906548
5.119000,-1.902730
5.120000,-1.790721
5.121000,-1.687622
5.122000,-1.685076
5.123000,-1.574340
5.124000,-1.407599
5.125000,-1.354140
5.126000,-1.307045
5.127000,-1.310864
5.128000,-1.332502
5.129000,-1.299408
5.130000,-1.307045
5.131000,-1.421600
5.132000,-1.489060
5.133000,-1.472513
5.134000,-1.466149
5.135000,-1.485242
5.136000,-1.509425
5.137000,-1.524699
5.138000,-1.556520
5.139000,-1.547610
5.140000,-1.559066
5.141000,-1.589614
5.142000,-1.594705
5.143000,-1.511971
5.144000,-1.482696
5.145000,-1.457239
5.146000,-1.509425
5.147000,-1.557793
5.148000,-1.566703
5.149000,-1.588341
5.150000,-1.508152
5.151000,-1.458512
5.152000,-1.453421
5.153000,-1.405053
5.154000,-1.378324
5.155000,-1.368141
5.156000,-1.322319
5.157000,-1.187399
5.158000,-1.239585
5.159000,-1.383415
5.160000,-1.504334
5.161000,-1.667256
5.162000,-1.713078
5.163000,-1.651982
5.164000,-1.598523
5.165000,-1.639254
5.166000,-1.588341
5.167000,-1.523426
5.168000,-1.499243
5.169000,-1.438147
5.170000,-1.466149
5.171000,-1.453421
5.172000,-1.411417
5.173000,-1.504334
5.174000,-1.546337
5.175000,-1.559066
5.176000,-1.514517
5.177000,-1.486514
5.178000,-1.476332
5.179000,-1.505607
5.180000,-1.555247
5.181000,-1.461058
5.182000,-1.049934
5.183000,-1.041024
5.184000,-1.145396
5.185000,-1.352867
5.186000,-1.525972
5.187000,-1.688894
5.188000,-1.757627
5.189000,-1.776720
5.190000,-1.804722
5.191000,-1.741080
5.192000,-1.672348
5.193000,-1.514517
5.194000,-1.472513
5.195000,-1.557793
5.196000,-1.477605
5.197000,-1.399962
5.198000,-1.440693
5.199000,-1.476332
5.200000,-1.541246
5.201000,-1.631617
5.202000,-1.625253
5.203000,-1.556520
5.204000,-1.627799
5.205000,-1.584522
5.206000,-1.462331
5.207000,-1.383415
5.208000,-1.401235
5.209000,-1.412690
5.210000,-1.402508
5.211000,-1.431783
5.212000,-1.410145
5.213000,-1.425419
5.214000,-1.534882
5.215000,-1.553974
5.216000,-1.579431
5.217000,-1.622707
5.218000,-1.553974
5.219000,-1.513244
5.220000,-1.430510
5.221000,-1.388506
5.222000,-1.413963
5.223000,-1.443238
5.224000,-1.448329
5.225000,-1.355413
5.226000,-0.832280
5.227000,-0.814460
5.228000,-1.081754
5.229000,-1.420327
5.230000,-1.699077
5.231000,-1.737262
5.232000,-1.831451
5.233000,-1.928186
5.234000,-2.008375
5.235000,-1.802176
5.236000,-1.671075
5.237000,-1.583249
5.238000,-1.513244
5.239000,-1.402508
5.240000,-1.393598
5.241000,-1.411417
5.242000,-1.439420
5.243000,-1.439420
5.244000,-1.447057
5.245000,-1.421600
5.246000,-1.410145
5.247000,-1.433056
5.248000,-1.445784
5.249000,-1.463603
5.250000,-1.504334
5.251000,-1.522154
5.252000,-1.468695
5.253000,-1.476332
5.254000,-1.571794
5.255000,-1.545065
5.256000,-1.528518
5.257000,-1.494151
5.258000,-1.385961
5.259000,-1.266315
5.260000,-1.270133
5.261000,-1.389779
5.262000,-1.426691
5.263000,-1.522154
5.264000,-1.587068
5.265000,-1.721988
5.266000,-1.770355
5.267000,-1.721988
5.268000,-1.672348
5.269000,-1.575612
5.270000,-1.581977
5.271000,-1.655801
5.272000,-1.723261
5.273000,-1.701623
5.274000,-1.646891
5.275000,-1.564157
5.276000,-1.458512
5.277000,-1.364323
5.278000,-1.098301
5.279000,-0.968473
5.280000,-1.047388
5.281000,-1.275225
5.282000,-1.455966
5.283000,-1.495424
5.284000,-1.490333
5.285000,-1.617616
5.286000,-1.612525
5.287000,-1.500516
5.288000,-1.545065
5.289000,-1.659619
5.290000,-1.765264
5.291000,-1.794539
5.292000,-1.590886
5.293000,-1.490333
5.294000,-1.435601
5.295000,-1.435601
5.296000,-1.500516
5.297000,-1.515789
5.298000,-1.506880
5.299000,-1.430510
5.300000,-1.369414
5.301000,-1.419054
5.302000,-1.434328
5.303000,-1.455966
5.304000,-1.513244
5.305000,-1.497970
5.306000,-1.499243
5.307000,-1.534882
5.308000,-1.551429
5.309000,-1.518335
5.310000,-1.326138
5.311000,-1.279043
5.312000,-1.361777
5.313000,-1.433056
5.314000,-1.499243
5.315000,-1.536155
5.316000,-1.529791
5.317000,-1.497970
5.318000,-1.522154
5.319000,-1.539973
5.320000,-1.595978
5.321000,-1.587068
5.322000,-1.552702
5.323000,-1.494151
5.324000,-1.431783
5.325000,-1.417782
5.326000,-1.445784
5.327000,-1.419054
5.328000,-1.394871
5.329000,-1.368141
5.330000,-1.375778
5.331000,-1.443238
5.332000,-1.443238
5.333000,-1.518335
5.334000,-1.664711
5.335000,-1.747445
5.336000,-1.622707
5.337000,-1.556520
5.338000,-1.497970
5.339000,-1.445784
5.340000,-1.466149
5.341000,-1.431783
5.342000,-1.527245
5.343000,-1.517062
5.344000,-1.413963
5.345000,-1.219220
5.346000,-1.275225
5.347000,-1.366868
5.348000,-1.490333
5.349000,-1.562884
5.350000,-1.618889
5.351000,-1.617616
5.352000,-1.611252
5.353000,-1.195036
5.354000,-1.010476
5.355000,-1.137759
5.356000,-1.340139
5.357000,-1.593432
5.358000,-1.728352
5.359000,-1.767810
5.360000,-1.668529
5.361000,-1.794539
5.362000,-1.863272
5.363000,-1.831451
5.364000,-1.660892
5.365000,-1.533609
5.366000,-1.463603
5.367000,-1.466149
5.368000,-1.513244
5.369000,-1.564157
5.370000,-1.570521
5.371000,-1.543792
5.372000,-1.545065
5.373000,-1.541246
5.374000,-1.505607
5.375000,-1.307045
5.376000,-1.275225
5.377000,-1.331229
5.378000,-1.184854
5.379000,-0.976110
5.380000,-1.170853
5.381000,-1.314682
5.382000,-1.528518
5.383000,-1.620162
5.384000,-1.687622
5.385000,-1.682530
5.386000,-1.585795
5.387000,-1.667256
5.388000,-1.688894
5.389000,-1.664711
5.390000,-1.585795
5.391000,-1.581977
5.392000,-1.525972
5.393000,-1.447057
5.394000,-1.441965
5.395000,-1.469968
5.396000,-1.473786
5.397000,-1.435601
5.398000,-1.452148
5.399000,-1.464876
5.400000,-1.514517
5.401000,-1.573067
5.402000,-1.583249
5.403000,-1.573067
5.404000,-1.499243
5.405000,-1.361777
5.406000,-1.308318
5.407000,-1.337593
5.408000,-1.440693
5.409000,-1.528518
5.410000,-1.522154
5.411000,-1.550156
5.412000,-1.590886
5.413000,-1.645618
5.414000,-1.709260
5.415000,-1.699077
5.416000,-1.634163
5.417000,-1.565430
5.418000,-1.477605
5.419000,-1.413963
5.420000,-1.394871
5.421000,-1.371960
5.422000,-1.368141
5.423000,-1.363050
5.424000,-1.365596
5.425000,-1.331229
5.426000,-1.249768
5.427000,-1.340139
5.428000,-1.377051
5.429000,-1.422873
5.430000,-1.449602
5.431000,-1.449602
5.432000,-1.425419
5.433000,-1.444511
5.434000,-1.481423
5.435000,-1.370687
5.436000,-1.392325
5.437000,-1.468695
5.438000,-1.556520
5.439000,-1.641800
5.440000,-1.665983
5.441000,-1.621434
5.442000,-1.587068
5.443000,-1.522154
5.444000,-1.564157
5.445000,-1.528518
5.446000,-1.528518
5.447000,-1.545065
5.448000,-1.537428
5.449000,-1.515789
5.450000,-1.434328
5.451000,-1.454694
5.452000,-1.457239
5.453000,-1.424146
5.454000,-1.443238
5.455000,-1.469968
5.456000,-1.515789
5.457000,-1.578158
5.458000,-1.575612
5.459000,-1.583249
5.460000,-1.597251
5.461000,-1.529791
5.462000,-1.581977
5.463000,-1.621434
5.464000,-1.562884
5.465000,-1.093210
5.466000,-0.587896
5.467000,-0.450431
5.468000,-0.839917
5.469000,-1.364323
5.470000,-1.775447
5.471000,-1.990555
5.472000,-2.201845
5.473000,-2.266759
5.474000,-2.107655
5.475000,-1.946006
5.476000,-1.692713
5.477000,-1.341412
5.478000,-1.349049
5.479000,-1.315955
5.480000,-1.307045
5.481000,-1.397416
5.482000,-1.461058
5.483000,-1.639254
5.484000,-1.737262
5.485000,-1.762718
5.486000,-1.676166
5.487000,-1.584522
5.488000,-1.483969
5.489000,-1.533609
5.490000,-1.538700
5.491000,-1.511971
5.492000,-1.459785
5.493000,-1.408872
5.494000,-1.382142
5.495000,-1.336320
5.496000,-1.326138
5.497000,-1.308318
5.498000,-1.272679
5.499000,-1.217947
5.500000,-1.324865
5.501000,-1.477605
5.502000,-1.561611
5.503000,-1.562884
5.504000,-1.487787
5.505000,-1.499243
5.506000,-1.525972
5.507000,-1.578158
5.508000,-1.645618
5.509000,-1.564157
5.510000,-1.481423
5.511000,-1.483969
5.512000,-1.387234
5.513000,-1.291771
5.514000,-1.291771
5.515000,-1.335048
5.516000,-1.421600
5.517000,-1.494151
5.518000,-1.417782
5.519000,-1.340139
5.520000,-1.326138
5.521000,-1.398689
5.522000,-1.449602
5.523000,-1.496697
5.524000,-1.534882
5.525000,-1.504334
5.526000,-1.459785
5.527000,-1.420327
5.528000,-1.352867
5.529000,-1.413963
5.530000,-1.489060
5.531000,-1.494151
5.532000,-1.539973
5.533000,-1.588341
5.534000,-1.587068
5.535000,-1.606160
5.536000,-1.612525
5.537000,-1.589614
5.538000,-1.625253
5.539000,-1.653255
5.540000,-1.632890
5.541000,-1.569248
5.542000,-1.517062
5.543000,-1.458512
5.544000,-1.448329
5.545000,-1.326138
5.546000,-1.240858
5.547000,-1.312137
5.548000,-1.403780
5.549000,-1.422873
5.550000,-1.485242
5.551000,-1.511971
5.552000,-1.550156
5.553000,-1.667256
5.554000,-1.769083
5.555000,-1.729625
5.556000,-1.601069
5.557000,-1.489060
5.558000,-1.459785
5.559000,-1.369414
5.560000,-1.459785
5.561000,-1.481423
5.562000,-1.397416
5.563000,-1.263769
5.564000,-0.976110
5.565000,-1.071572
5.566000,-1.328683
5.567000,-1.579431
5.568000,-1.758900
5.569000,-1.760173
5.570000,-1.733443
5.571000,-1.739808
5.572000,-1.772901
5.573000,-1.762718
5.574000,-1.714351
5.575000,-1.618889
5.576000,-1.505607
5.577000,-1.453421
5.578000,-1.342685
5.579000,-1.343957
5.580000,-1.365596
5.581000,-1.379597
5.582000,-1.473786
5.583000,-1.550156
5.584000,-1.560339
5.585000,-1.466149
5.586000,-1.450875
5.587000,-1.449602
5.588000,-1.466149
5.589000,-1.463603
5.590000,-1.443238
5.591000,-1.495424
5.592000,-1.482696
5.593000,-1.475059
5.594000,-1.565430
5.595000,-1.580704
5.596000,-1.546337
5.597000,-1.342685
5.598000,-0.922651
5.599000,-0.985019
5.600000,-1.252314
5.601000,-1.606160
5.602000,-1.785629
5.603000,-1.863272
5.604000,-1.846725
5.605000,-1.797085
5.606000,-1.779265
5.607000,-1.583249
5.608000,-1.486514
5.609000,-1.379597
5.610000,-1.308318
5.611000,-1.351594
5.612000,-1.430510
5.613000,-1.631617
5.614000,-1.737262
5.615000,-1.688894
5.616000,-1.648164
5.617000,-1.542519
5.618000,-1.539973
5.619000,-1.464876
5.620000,-1.486514
5.621000,-1.429237
5.622000,-1.449602
5.623000,-1.405053
5.624000,-1.415236
5.625000,-1.398689
5.626000,-1.392325
5.627000,-1.352867
5.628000,-1.315955
5.629000,-1.360504
5.630000,-1.396143
5.631000,-1.394871
5.632000,-1.413963
5.633000,-1.534882
5.634000,-1.581977
5.635000,-1.662165
5.636000,-1.693986
5.637000,-1.623980
5.638000,-1.565430
5.639000,-1.607433
5.640000,-1.584522
5.641000,-1.565430
5.642000,-1.527245
5.643000,-1.408872
5.644000,-1.426691
5.645000,-1.436874
5.646000,-1.397416
5.647000,-1.440693
5.648000,-1.472513
5.649000,-1.475059
5.650000,-1.478877
5.651000,-1.517062
5.652000,-1.528518
5.653000,-1.510698
5.654000,-1.528518
5.655000,-1.565430
5.656000,-1.553974
5.657000,-1.496697
5.658000,-1.455966
5.659000,-1.032114
5.660000,-0.773730
5.661000,-0.962108
5.662000,-1.243404
5.663000,-1.440693
5.664000,-1.519608
5.665000,-1.702895
5.666000,-1.817450
5.667000,-1.896366
5.668000,-1.920549
5.669000,-1.858181
5.670000,-1.672348
5.671000,-1.648164
5.672000,-1.763991
5.673000,-1.672348
5.674000,-1.550156
5.675000,-1.491606
5.676000,-1.411417
5.677000,-1.416509
5.678000,-1.429237
5.679000,-1.417782
5.680000,-1.410145
5.681000,-1.422873
5.682000,-1.422873
5.683000,-1.463603
5.684000,-1.543792
5.685000,-1.559066
5.686000,-1.557793
5.687000,-1.553974
5.688000,-1.529791
5.689000,-1.483969
5.690000,-1.469968
5.691000,-1.447057
5.692000,-1.396143
5.693000,-1.385961
5.694000,-1.424146
5.695000,-1.385961
5.696000,-1.346503
5.697000,-1.242131
5.698000,-1.243404
5.699000,-1.294317
5.700000,-1.038478
5.701000,-0.930288
5.702000,-1.074117
5.703000,-1.388506
5.704000,-1.704168
5.705000,-1.861999
5.706000,-1.863272
5.707000,-1.771628
5.708000,-1.851817
5.709000,-1.975281
5.710000,-1.878546
5.711000,-1.822541
5.712000,-1.687622
5.713000,-1.529791
5.714000,-1.430510
5.715000,-1.449602
5.716000,-1.457239
5.717000,-1.481423
5.718000,-1.408872
5.719000,-1.361777
5.720000,-1.363050
5.721000,-1.374505
5.722000,-1.427964
5.723000,-1.436874
5.724000,-1.445784
5.725000,-1.482696
5.726000,-1.574340
5.727000,-1.641800
5.728000,-1.634163
5.729000,-1.524699
5.730000,-1.491606
5.731000,-1.411417
5.732000,-1.338866
5.733000,-1.373233
5.734000,-1.374505
5.735000,-1.417782
5.736000,-1.520881
5.737000,-1.580704
5.738000,-1.594705
5.739000,-1.589614
5.740000,-1.534882
5.741000,-1.144123
5.742000,-1.046115
5.743000,-1.085573
5.744000,-1.182308
5.745000,-1.342685
5.746000,-1.447057
5.747000,-1.412690
5.748000,-1.543792
5.749000,-1.697804
5.750000,-1.797085
5.751000,-1.952370
5.752000,-1.925641
5.753000,-1.836543
5.754000,-1.662165
5.755000,-1.578158
5.756000,-1.505607
5.757000,-1.495424
5.758000,-1.514517
5.759000,-1.476332
5.760000,-1.439420
5.761000,-1.463603
5.762000,-1.480150
5.763000,-1.434328
5.764000,-1.415236
5.765000,-1.388506
5.766000,-1.391052
5.767000,-1.436874
5.768000,-1.518335
5.769000,-1.499243
5.770000,-1.490333
5.771000,-1.483969
5.772000,-1.455966
5.773000,-1.430510
5.774000,-1.413963
5.775000,-1.364323
5.776000,-1.331229
5.777000,-1.384688
5.778000,-1.487787
5.779000,-1.439420
5.780000,-1.407599
5.781000,-1.505607
5.782000,-1.662165
5.783000,-1.639254
5.784000,-1.651982
5.785000,-1.587068
5.786000,-1.565430
5.787000,-1.693986
5.788000,-1.678712
5.789000,-1.664711
5.790000,-1.636708
5.791000,-1.579431
5.792000,-1.492879
5.793000,-1.427964
5.794000,-1.421600
5.795000,-1.397416
5.796000,-1.382142
5.797000,-1.324865
5.798000,-1.307045
5.799000,-1.331229
5.800000,-1.391052
5.801000,-1.440693
5.802000,-1.508152
5.803000,-1.590886
5.804000,-1.643072
5.805000,-1.518335
5.806000,-1.458512
5.807000,-1.086846
5.808000,-1.211583
5.809000,-1.359231
5.810000,-1.515789
5.811000,-1.590886
5.812000,-1.576885
5.813000,-1.552702
5.814000,-1.681257
5.815000,-1.804722
5.816000,-1.664711
5.817000,-1.641800
5.818000,-1.594705
5.819000,-1.508152
5.820000,-1.527245
5.821000,-1.468695
5.822000,-1.419054
5.823000,-1.413963
5.824000,-1.394871
5.825000,-1.360504
5.826000,-1.289226
5.827000,-1.298136
5.828000,-1.369414
5.829000,-1.389779
5.830000,-1.394871
5.831000,-1.396143
5.832000,-1.429237
5.833000,-1.466149
5.834000,-1.575612
5.835000,-1.688894
5.836000,-1.678712
5.837000,-1.616343
5.838000,-1.585795
5.839000,-1.510698
5.840000,-1.086846
5.841000,-0.925196
5.842000,-1.021931
5.843000,-1.210310
5.844000,-1.402508
5.845000,-1.587068
5.846000,-1.716897
5.847000,-1.825087
5.848000,-1.934551
5.849000,-1.946006
5.850000,-1.909094
5.851000,-1.827633
5.852000,-1.683803
5.853000,-1.606160
5.854000,-1.489060
5.855000,-1.385961
5.856000,-1.408872
5.857000,-1.445784
5.858000,-1.438147
5.859000,-1.244677
5.860000,-1.153033
5.861000,-1.265042
5.862000,-1.375778
5.863000,-1.462331
5.864000,-1.506880
5.865000,-1.590886
5.866000,-1.608706
5.867000,-1.616343
5.868000,-1.623980
5.869000,-1.584522
5.870000,-1.615070
5.871000,-1.604888
5.872000,-1.565430
5.873000,-1.541246
5.874000,-1.491606
5.875000,-1.477605
5.876000,-1.383415
5.877000,-1.406326
5.878000,-1.473786
5.879000,-1.567976
5.880000,-1.448329
5.881000,-1.349049
5.882000,-1.448329
5.883000,-1.510698
5.884000,-1.499243
5.885000,-1.453421
5.886000,-1.429237
5.887000,-1.422873
5.888000,-1.546337
5.889000,-1.590886
5.890000,-1.567976
5.891000,-1.525972
5.892000,-1.482696
5.893000,-1.407599
5.894000,-1.279043
5.895000,-1.280316
5.896000,-1.309591
5.897000,-1.285407
5.898000,-1.245950
5.899000,-1.299408
5.900000,-1.366868
5.901000,-1.440693
5.902000,-1.458512
5.903000,-1.585795
5.904000,-1.639254
5.905000,-1.635435
5.906000,-1.612525
5.907000,-1.602342
5.908000,-1.542519
5.909000,-1.449602
5.910000,-1.438147
5.911000,-1.439420
5.912000,-1.408872
5.913000,-1.402508
5.914000,-1.468695
5.915000,-1.477605
5.916000,-1.447057
5.917000,-1.449602
5.918000,-1.439420
5.919000,-1.509425
5.920000,-1.663438
5.921000,-1.705441
5.922000,-1.690167
5.923000,-1.686349
5.924000,-1.674893
5.925000,-1.649437
5.926000,-1.583249
5.927000,-1.525972
5.928000,-1.271406
5.929000,-1.020659
5.930000,-1.089391
5.931000,-0.968473
5.932000,-0.834825
5.933000,-1.156851
5.934000,-1.564157
5.935000,-1.951097
5.936000,-2.074562
5.937000,-2.200572
5.938000,-2.135658
5.939000,-2.036377
5.940000,-1.895093
5.941000,-1.757627
5.942000,-1.659619
5.943000,-1.525972
5.944000,-1.427964
5.945000,-1.402508
5.946000,-1.382142
5.947000,-1.441965
5.948000,-1.349049
5.949000,-1.332502
5.950000,-1.410145
5.951000,-1.547610
5.952000,-1.598523
5.953000,-1.603615
5.954000,-1.673620
5.955000,-1.640527
5.956000,-1.651982
5.957000,-1.616343
5.958000,-1.457239
5.959000,-1.392325
5.960000,-1.337593
5.961000,-1.363050
5.962000,-1.357959
5.963000,-1.351594
5.964000,-1.254859
5.965000,-1.356686
5.966000,-1.370687
5.967000,-1.439420
5.968000,-1.564157
5.969000,-1.485242
5.970000,-1.466149
5.971000,-1.475059
5.972000,-1.383415
5.973000,-1.388506
5.974000,-1.419054
5.975000,-1.385961
5.976000,-1.340139
5.977000,-1.356686
5.978000,-1.387234
5.979000,-1.462331
5.980000,-1.528518
5.981000,-1.509425
5.982000,-1.417782
5.983000,-1.327411
5.984000,-1.346503
5.985000,-1.405053
5.986000,-1.450875
5.987000,-1.500516
5.988000,-1.550156
5.989000,-1.594705
5.990000,-1.687622
5.991000,-1.658346
5.992000,-1.517062
5.993000,-1.406326
5.994000,-1.374505
5.995000,-1.538700
5.996000,-1.650709
5.997000,-1.715624
5.998000,-1.674893
5.999000,-1.660892
6.000000,-1.545065
6.001000,-1.457239
6.002000,-1.473786
6.003000,-1.478877
6.004000,-1.412690
6.005000,-1.333775
6.006000,-1.326138
6.007000,-1.276497
6.008000,-1.173398
6.009000,-1.216674
6.010000,-1.268860
6.011000,-1.346503
6.012000,-1.440693
6.013000,-1.559066
6.014000,-1.515789
6.015000,-1.523426
6.016000,-1.608706
6.017000,-1.655801
6.018000,-1.735989
6.019000,-1.775447
6.020000,-1.772901
6.021000,-1.430510
6.022000,-1.164488
6.023000,-1.275225
6.024000,-1.448329
6.025000,-1.621434
6.026000,-1.646891
6.027000,-1.669802
6.028000,-1.630344
6.029000,-1.491606
6.030000,-1.485242
6.031000,-1.528518
6.032000,-1.529791
6.033000,-1.511971
6.034000,-1.478877
6.035000,-1.494151
6.036000,-1.490333
6.037000,-1.542519
6.038000,-1.597251
6.039000,-1.584522
6.040000,-1.569248
6.041000,-1.523426
6.042000,-1.478877
6.043000,-1.426691
6.044000,-1.473786
6.045000,-1.389779
6.046000,-0.828461
6.047000,-0.999020
6.048000,-1.220493
6.049000,-1.486514
6.050000,-1.760173
6.051000,-1.971463
6.052000,-2.042741
6.053000,-1.929459
6.054000,-1.882365
6.055000,-1.702895
6.056000,-1.564157
6.057000,-1.464876
6.058000,-1.401235
6.059000,-1.336320
6.060000,-1.315955
6.061000,-1.375778
6.062000,-1.422873
6.063000,-1.440693
6.064000,-1.527245
6.065000,-1.546337
6.066000,-1.505607
6.067000,-1.536155
6.068000,-1.603615
6.069000,-1.593432
6.070000,-1.579431
6.071000,-1.519608
6.072000,-1.489060
6.073000,-1.385961
6.074000,-1.331229
6.075000,-1.284134
6.076000,-1.248495
6.077000,-1.328683
6.078000,-1.378324
6.079000,-1.364323
6.080000,-1.402508
6.081000,-1.564157
6.082000,-1.542519
6.083000,-1.477605
6.084000,-1.491606
6.085000,-1.468695
6.086000,-1.450875
6.087000,-1.573067
6.088000,-1.609979
6.089000,-1.559066
6.090000,-1.491606
6.091000,-1.495424
6.092000,-1.447057
6.093000,-1.424146
6.094000,-1.425419
6.095000,-1.443238
6.096000,-1.399962
6.097000,-1.415236
6.098000,-1.464876
6.099000,-1.481423
6.100000,-1.520881
6.101000,-1.581977
6.102000,-1.542519
6.103000,-1.524699
6.104000,-1.496697
6.105000,-1.531063
6.106000,-1.529791
6.107000,-1.501788
6.108000,-1.481423
6.109000,-1.445784
6.110000,-1.427964
6.111000,-1.439420
6.112000,-1.429237
6.113000,-1.399962
6.114000,-1.112302
6.115000,-0.817006
6.116000,-0.577714
6.117000,-0.911195
6.118000,-1.355413
6.119000,-1.763991
6.120000,-2.014739
6.121000,-2.066925
6.122000,-2.037650
6.123000,-1.962553
6.124000,-1.907821
6.125000,-1.842907
6.126000,-1.797085
6.127000,-1.799631
6.128000,-1.757627
6.129000,-1.683803
6.130000,-1.660892
6.131000,-1.566703
6.132000,-1.380869
6.133000,-1.389779
6.134000,-1.499243
6.135000,-1.383415
6.136000,-1.326138
6.137000,-1.352867
6.138000,-1.345230
6.139000,-1.319774
6.140000,-1.421600
6.141000,-1.536155
6.142000,-1.551429
6.143000,-1.571794
6.144000,-1.629071
6.145000,-1.593432
6.146000,-1.611252
6.147000,-1.604888
6.148000,-1.561611
6.149000,-1.492879
6.150000,-1.534882
6.151000,-1.504334
6.152000,-1.443238
6.153000,-1.412690
6.154000,-1.373233
6.155000,-1.361777
6.156000,-1.380869
6.157000,-1.405053
6.158000,-1.361777
6.159000,-1.360504
6.160000,-1.392325
6.161000,-1.417782
6.162000,-1.321046
6.163000,-0.859009
6.164000,-0.878102
6.165000,-1.153033
6.166000,-1.550156
6.167000,-1.802176
6.168000,-1.916731
6.169000,-1.853089
6.170000,-1.864545
6.171000,-1.858181
6.172000,-1.755082
6.173000,-1.631617
6.174000,-1.485242
6.175000,-1.398689
6.176000,-1.253586
6.177000,-1.234494
6.178000,-1.394871
6.179000,-1.471240
6.180000,-1.519608
6.181000,-1.555247
6.182000,-1.567976
6.183000,-1.524699
6.184000,-1.483969
6.185000,-1.424146
6.186000,-1.347776
6.187000,-1.340139
6.188000,-1.463603
6.189000,-1.531063
6.190000,-1.641800
6.191000,-1.611252
6.192000,-1.449602
6.193000,-1.469968
6.194000,-1.471240
6.195000,-1.501788
6.196000,-1.556520
6.197000,-1.580704
6.198000,-1.419054
6.199000,-1.449602
6.200000,-1.519608
6.201000,-1.561611
6.202000,-1.542519
6.203000,-1.574340
6.204000,-1.543792
6.205000,-1.597251
6.206000,-1.589614
6.207000,-1.525972
6.208000,-1.529791
6.209000,-1.485242
6.210000,-1.392325
6.211000,-1.430510
6.212000,-1.403780
6.213000,-1.361777
6.214000,-1.377051
6.215000,-1.346503
6.216000,-0.967200
6.217000,-0.953199
6.218000,-1.220493
6.219000,-1.440693
6.220000,-1.695259
6.221000,-1.876000
6.222000,-1.956189
6.223000,-1.878546
6.224000,-1.718169
6.225000,-1.612525
6.226000,-1.545065
6.227000,-1.539973
6.228000,-1.620162
6.229000,-1.565430
6.230000,-1.444511
6.231000,-1.494151
6.232000,-1.534882
6.233000,-1.504334
6.234000,-1.518335
6.235000,-1.529791
6.236000,-1.529791
6.237000,-1.545065
6.238000,-1.570521
6.239000,-1.595978
6.240000,-1.632890
6.241000,-1.611252
6.242000,-1.506880
6.243000,-1.399962
6.244000,-1.429237
6.245000,-1.461058
6.246000,-1.473786
6.247000,-1.444511
6.248000,-1.384688
6.249000,-1.351594
6.250000,-1.382142
6.251000,-1.378324
6.252000,-1.382142
6.253000,-1.438147
6.254000,-1.454694
6.255000,-1.597251
6.256000,-1.581977
6.257000,-1.542519
6.258000,-1.487787
6.259000,-1.422873
6.260000,-1.341412
6.261000,-1.384688
6.262000,-1.360504
6.263000,-1.375778
6.264000,-1.425419
6.265000,-1.452148
6.266000,-1.466149
6.267000,-1.581977
6.268000,-1.637981
6.269000,-1.564157
6.270000,-1.282862
6.271000,-0.869192
6.272000,-0.890830
6.273000,-1.164488
6.274000,-1.472513
6.275000,-1.769083
6.276000,-1.786902
6.277000,-1.819996
6.278000,-1.861999
6.279000,-1.839088
6.280000,-1.639254
6.281000,-1.616343
6.282000,-1.574340
6.283000,-1.471240
6.284000,-1.417782
6.285000,-1.401235
6.286000,-1.413963
6.287000,-1.450875
6.288000,-1.453421
6.289000,-1.473786
6.290000,-1.469968
6.291000,-1.501788
