LabVIEW Measurement,
Writer_Version,2
Reader_Version,2
Separator,Comma
Decimal_Separator,.
Multi_Headings,No
X_Columns,Multi
Time_Pref,Absolute
Operator,Dymnz
Date,2017/08/09
Time,13:19:00.7950635833529592459
***End_of_Header***,
,
Channels,1,
Samples,1000,
Date,2017/08/09,
Time,13:19:00.7950635833529592459,
Y_Unit_Label,Volts,
X_Dimension,Time,
X0,0.0000000000000000E+0,
Delta_X,0.001000,
***End_of_Header***,,
X_Value,Voltage,Comment
0.000000,-1.674893
0.001000,-1.641800
0.002000,-1.784357
0.003000,-1.949824
0.004000,-1.886183
0.005000,-1.752536
0.006000,-1.641800
0.007000,-1.629071
0.008000,-1.602342
0.009000,-1.575612
0.010000,-1.564157
0.011000,-1.403780
0.012000,-1.125031
0.013000,-0.880647
0.014000,-0.552257
0.015000,0.272537
0.016000,0.359089
0.017000,-0.048216
0.018000,-0.642628
0.019000,-1.200128
0.020000,-1.571794
0.021000,-1.898911
0.022000,-2.245121
0.023000,-2.409316
0.024000,-2.307490
0.025000,-2.294761
0.026000,-2.402952
0.027000,-2.556964
0.028000,-2.710977
0.029000,-2.369858
0.030000,-1.440693
0.031000,-0.955744
0.032000,-0.969745
0.033000,-1.130122
0.034000,-1.351594
0.035000,-1.617616
0.036000,-1.807268
0.037000,-2.035104
0.038000,-2.105110
0.039000,-1.985464
0.040000,-2.013466
0.041000,-2.088563
0.042000,-2.198026
0.043000,-2.275669
0.044000,-2.190389
0.045000,-2.177661
0.046000,-1.989282
0.047000,-1.804722
0.048000,-1.468695
0.049000,-1.158124
0.050000,-1.181035
0.051000,-1.275225
0.052000,-1.359231
0.053000,-1.341412
0.054000,-1.055025
0.055000,-0.766093
0.056000,-0.600625
0.057000,-0.708815
0.058000,-0.841190
0.059000,-1.046115
0.060000,-1.197582
0.061000,-1.373233
0.062000,-1.578158
0.063000,-1.663438
0.064000,-1.519608
0.065000,-1.515789
0.066000,-1.327411
0.067000,-1.361777
0.068000,-1.575612
0.069000,-1.631617
0.070000,-1.621434
0.071000,-1.664711
0.072000,-1.753809
0.073000,-1.752536
0.074000,-1.601069
0.075000,-1.683803
0.076000,-1.738535
0.077000,-1.528518
0.078000,-1.424146
0.079000,-1.408872
0.080000,-1.321046
0.081000,-1.280316
0.082000,-1.389779
0.083000,-1.454694
0.084000,-1.434328
0.085000,-1.438147
0.086000,-1.489060
0.087000,-1.433056
0.088000,-1.201400
0.089000,-0.899740
0.090000,-0.806823
0.091000,-0.799186
0.092000,-0.843735
0.093000,-0.642628
0.094000,-0.403336
0.095000,-0.498798
0.096000,-0.768638
0.097000,-0.893376
0.098000,-0.766093
0.099000,0.570379
0.100000,0.866948
0.101000,0.187257
0.102000,-0.806823
0.103000,-2.004556
0.104000,-3.110645
0.105000,-3.829794
0.106000,-4.215462
0.107000,-4.210371
0.108000,-3.710148
0.109000,-3.197198
0.110000,-2.775891
0.111000,-2.756799
0.112000,-2.644790
0.113000,-2.052924
0.114000,-1.356686
0.115000,-1.149214
0.116000,-1.284134
0.117000,-1.522154
0.118000,-1.682530
0.119000,-1.831451
0.120000,-1.909094
0.121000,-1.928186
0.122000,-1.747445
0.123000,-1.576885
0.124000,-1.481423
0.125000,-1.424146
0.126000,-1.601069
0.127000,-1.692713
0.128000,-1.765264
0.129000,-1.743626
0.130000,-1.784357
0.131000,-1.737262
0.132000,-1.683803
0.133000,-1.612525
0.134000,-1.480150
0.135000,-1.433056
0.136000,-1.419054
0.137000,-1.447057
0.138000,-1.271406
0.139000,-0.976110
0.140000,-0.879374
0.141000,-0.720271
0.142000,-0.703724
0.143000,-0.912468
0.144000,-1.035933
0.145000,-1.136486
0.146000,-1.333775
0.147000,-1.626526
0.148000,-1.789448
0.149000,-1.854362
0.150000,-1.580704
0.151000,-1.384688
0.152000,-1.497970
0.153000,-1.429237
0.154000,-1.310864
0.155000,-1.243404
0.156000,-1.111030
0.157000,-0.913741
0.158000,-0.978655
0.159000,-1.111030
0.160000,-1.065208
0.161000,-0.580259
0.162000,-0.062218
0.163000,-0.326966
0.164000,-0.632445
0.165000,-1.055025
0.166000,-1.545065
0.167000,-1.891274
0.168000,-1.900184
0.169000,-1.777992
0.170000,-1.630344
0.171000,-1.789448
0.172000,-1.981645
0.173000,-2.284579
0.174000,-2.452592
0.175000,-2.157296
0.176000,-1.799631
0.177000,-1.751263
0.178000,-1.710532
0.179000,-1.724534
0.180000,-1.850544
0.181000,-1.841634
0.182000,-1.504334
0.183000,-1.263769
0.184000,-1.322319
0.185000,-1.445784
0.186000,-1.308318
0.187000,-0.819551
0.188000,-0.946834
0.189000,-0.584078
0.190000,-0.735545
0.191000,-1.113575
0.192000,-1.257405
0.193000,-1.537428
0.194000,-1.434328
0.195000,-1.331229
0.196000,-1.270133
0.197000,-0.967200
0.198000,-0.395699
0.199000,-0.442794
0.200000,-0.522982
0.201000,-0.664266
0.202000,-1.034660
0.203000,-1.234494
0.204000,-1.713078
0.205000,-2.237484
0.206000,-2.326582
0.207000,-2.690612
0.208000,-3.016456
0.209000,-3.265931
0.210000,-3.125919
0.211000,-2.956633
0.212000,-3.069915
0.213000,-3.057187
0.214000,-2.838260
0.215000,-2.661336
0.216000,-2.259122
0.217000,-1.954916
0.218000,-1.897638
0.219000,-1.715624
0.220000,-1.597251
0.221000,-1.388506
0.222000,-0.974837
0.223000,-0.706270
0.224000,-0.662993
0.225000,-0.710088
0.226000,-0.650265
0.227000,-0.361333
0.228000,0.040882
0.229000,0.098159
0.230000,-0.382971
0.231000,-1.147942
0.232000,-1.878546
0.233000,-2.254031
0.234000,-2.456411
0.235000,-2.292216
0.236000,-2.279487
0.237000,-2.111474
0.238000,-1.980372
0.239000,-1.737262
0.240000,-1.611252
0.241000,-1.429237
0.242000,-1.422873
0.243000,-1.153033
0.244000,-1.261223
0.245000,-0.965927
0.246000,-1.015567
0.247000,-1.191218
0.248000,-1.677439
0.249000,-2.012193
0.250000,-1.612525
0.251000,-1.555247
0.252000,-1.576885
0.253000,-1.338866
0.254000,-1.163216
0.255000,-1.100847
0.256000,-1.132668
0.257000,-0.971018
0.258000,-0.666812
0.259000,-0.477160
0.260000,-0.450431
0.261000,-0.897194
0.262000,-1.332502
0.263000,-1.599796
0.264000,-1.979100
0.265000,-1.967644
0.266000,-2.046560
0.267000,-2.288397
0.268000,-2.115292
0.269000,-2.131839
0.270000,-2.107655
0.271000,-1.966371
0.272000,-1.837815
0.273000,-1.807268
0.274000,-1.733443
0.275000,-1.625253
0.276000,-1.527245
0.277000,-1.198855
0.278000,-0.431338
0.279000,-0.474615
0.280000,-0.634991
0.281000,-0.264598
0.282000,-0.068582
0.283000,-0.179318
0.284000,-0.657902
0.285000,-1.220493
0.286000,-1.511971
0.287000,-1.170853
0.288000,-0.511527
0.289000,-0.753364
0.290000,-1.114848
0.291000,-1.030841
0.292000,-1.566703
0.293000,-2.329128
0.294000,-2.619333
0.295000,-3.099190
0.296000,-3.277386
0.297000,-3.110645
0.298000,-2.786074
0.299000,-2.532781
0.300000,-2.523871
0.301000,-2.691884
0.302000,-2.556964
0.303000,-2.502233
0.304000,-2.196754
0.305000,-1.748717
0.306000,-1.081754
0.307000,0.112160
0.308000,1.581006
0.309000,2.077410
0.310000,1.505909
0.311000,0.320904
0.312000,-1.086846
0.313000,-2.252758
0.314000,-2.956633
0.315000,-3.407215
0.316000,-3.442854
0.317000,-3.362666
0.318000,-3.381758
0.319000,-3.006273
0.320000,-2.577330
0.321000,-2.447501
0.322000,-2.219664
0.323000,-2.033831
0.324000,-1.939642
0.325000,-1.839088
0.326000,-1.802176
0.327000,-1.673620
0.328000,-1.709260
0.329000,-1.895093
0.330000,-2.003283
0.331000,-1.891274
0.332000,-1.687622
0.333000,-1.527245
0.334000,-1.389779
0.335000,-1.406326
0.336000,-1.224311
0.337000,-0.706270
0.338000,-0.325693
0.339000,-0.016396
0.340000,-0.022760
0.341000,-0.186955
0.342000,-0.544620
0.343000,-0.763547
0.344000,-0.968473
0.345000,-1.051207
0.346000,-1.457239
0.347000,-1.756354
0.348000,-1.641800
0.349000,-1.561611
0.350000,-1.597251
0.351000,-1.816177
0.352000,-1.904003
0.353000,-1.870909
0.354000,-1.755082
0.355000,-1.747445
0.356000,-1.738535
0.357000,-1.305773
0.358000,-0.859009
0.359000,-0.300237
0.360000,-0.572622
0.361000,-0.735545
0.362000,-0.459341
0.363000,-0.656629
0.364000,-1.030841
0.365000,-1.453421
0.366000,-1.571794
0.367000,-1.858181
0.368000,-1.921822
0.369000,-1.835270
0.370000,-1.639254
0.371000,-1.767810
0.372000,-1.837815
0.373000,-1.924368
0.374000,-1.966371
0.375000,-2.122929
0.376000,-2.320218
0.377000,-2.245121
0.378000,-1.803449
0.379000,-1.499243
0.380000,-1.077936
0.381000,-0.567531
0.382000,-0.391881
0.383000,-0.640082
0.384000,-0.867919
0.385000,-1.195036
0.386000,-1.617616
0.387000,-1.697804
0.388000,-2.074562
0.389000,-1.965098
0.390000,-0.918832
0.391000,-0.745727
0.392000,-1.212856
0.393000,-1.648164
0.394000,-1.967644
0.395000,-2.232393
0.396000,-2.415680
0.397000,-2.553146
0.398000,-2.713522
0.399000,-1.925641
0.400000,-0.888284
0.401000,-0.531892
0.402000,-0.379152
0.403000,-0.867919
0.404000,-1.158124
0.405000,-1.566703
0.406000,-0.587896
0.407000,0.094340
0.408000,-0.393153
0.409000,-1.014294
0.410000,-1.861999
0.411000,-2.156023
0.412000,-2.059288
0.413000,-2.013466
0.414000,-1.925641
0.415000,-2.232393
0.416000,-2.789892
0.417000,-3.375394
0.418000,-3.441581
0.419000,-3.213745
0.420000,-2.915902
0.421000,-2.689339
0.422000,-2.189117
0.423000,-1.399962
0.424000,-1.254859
0.425000,-1.417782
0.426000,-1.608706
0.427000,-1.709260
0.428000,-1.730898
0.429000,-1.649437
0.430000,-1.499243
0.431000,-1.468695
0.432000,-0.491161
0.433000,-0.208593
0.434000,-0.547166
0.435000,-1.071572
0.436000,-1.537428
0.437000,-1.716897
0.438000,-1.748717
0.439000,-1.542519
0.440000,-1.399962
0.441000,-1.444511
0.442000,-1.581977
0.443000,-1.210310
0.444000,-1.094483
0.445000,-1.052479
0.446000,-1.018113
0.447000,-1.248495
0.448000,-1.310864
0.449000,-1.564157
0.450000,-1.668529
0.451000,-1.615070
0.452000,-1.336320
0.453000,-1.307045
0.454000,-1.145396
0.455000,-1.272679
0.456000,-1.472513
0.457000,-1.443238
0.458000,-1.557793
0.459000,-1.725806
0.460000,-1.601069
0.461000,-1.464876
0.462000,-1.333775
0.463000,-0.039307
0.464000,0.795670
0.465000,1.962855
0.466000,1.713380
0.467000,0.602200
0.468000,-0.892103
0.469000,-2.107655
0.470000,-2.938813
0.471000,-3.589230
0.472000,-3.514133
0.473000,-3.027911
0.474000,-2.294761
0.475000,-1.856908
0.476000,-1.938369
0.477000,-2.292216
0.478000,-2.489504
0.479000,-2.700794
0.480000,-2.507324
0.481000,-2.311308
0.482000,-2.192935
0.483000,-2.021103
0.484000,-2.405498
0.485000,-2.176388
0.486000,-1.986737
0.487000,-1.868363
0.488000,-1.733443
0.489000,-1.637981
0.490000,-1.235767
0.491000,-1.178490
0.492000,-1.408872
0.493000,-1.352867
0.494000,-1.198855
0.495000,-1.023204
0.496000,-0.694814
0.497000,-0.758456
0.498000,-0.502617
0.499000,-0.016396
0.500000,-0.296418
0.501000,-0.911195
0.502000,-1.673620
0.503000,-1.916731
0.504000,-1.794539
0.505000,-1.630344
0.506000,-1.762718
0.507000,-1.338866
0.508000,-1.235767
0.509000,-1.280316
0.510000,-1.168307
0.511000,-1.193763
0.512000,-1.196309
0.513000,-1.070299
0.514000,-1.234494
0.515000,-1.403780
0.516000,-1.313410
0.517000,-1.374505
0.518000,-1.067753
0.519000,-0.713907
0.520000,0.441823
0.521000,0.301812
0.522000,-0.786458
0.523000,-1.281589
0.524000,-2.040195
0.525000,-2.919721
0.526000,-3.832340
0.527000,-3.727968
0.528000,-3.041913
0.529000,-2.161114
0.530000,-1.692713
0.531000,-1.258678
0.532000,-1.373233
0.533000,-1.429237
0.534000,-0.501344
0.535000,0.396001
0.536000,-0.122041
0.537000,-1.202673
0.538000,-2.332946
0.539000,-2.770800
0.540000,-2.946450
0.541000,-3.316844
0.542000,-3.470856
0.543000,-3.145012
0.544000,-3.029184
0.545000,-3.111918
0.546000,-3.041913
0.547000,-2.819167
0.548000,-2.387678
0.549000,-2.046560
0.550000,-1.646891
0.551000,-1.324865
0.552000,-1.341412
0.553000,-1.128849
0.554000,-1.065208
0.555000,-1.328683
0.556000,-1.360504
0.557000,-0.916287
0.558000,-0.631173
0.559000,-0.433884
0.560000,0.073975
0.561000,0.422731
0.562000,0.170710
0.563000,0.044700
0.564000,-0.684631
0.565000,-0.449158
0.566000,-0.647719
0.567000,-0.675722
0.568000,-0.488616
0.569000,-0.529346
0.570000,-1.603615
0.571000,-1.928186
0.572000,-1.953643
0.573000,-2.036377
0.574000,-2.476776
0.575000,-2.601513
0.576000,-2.198026
0.577000,-1.536155
0.578000,-0.404609
0.579000,0.884768
0.580000,0.737120
0.581000,-0.058399
0.582000,-1.079209
0.583000,-1.791994
0.584000,-2.027467
0.585000,-1.988009
0.586000,-2.436046
0.587000,-2.675338
0.588000,-2.843351
0.589000,-2.880263
0.590000,-2.705886
0.591000,-2.019830
0.592000,-2.069471
0.593000,-2.670246
0.594000,-3.197198
0.595000,-3.128465
0.596000,-2.632061
0.597000,-2.103837
0.598000,-1.909094
0.599000,-1.608706
0.600000,-1.499243
0.601000,-1.312137
0.602000,-1.239585
0.603000,-1.287953
0.604000,-1.226857
0.605000,-1.265042
0.606000,-1.280316
0.607000,-1.251041
0.608000,-1.258678
0.609000,-1.429237
0.610000,-1.545065
0.611000,-1.529791
0.612000,-1.090664
0.613000,-0.286236
0.614000,-0.241687
0.615000,-0.407155
0.616000,-0.612080
0.617000,0.362908
0.618000,0.339997
0.619000,-0.251869
0.620000,-0.725362
0.621000,-1.173398
0.622000,-1.966371
0.623000,-2.004556
0.624000,-1.525972
0.625000,-1.175944
0.626000,-0.007486
0.627000,-0.234050
0.628000,-1.069026
0.629000,-1.746172
0.630000,-1.802176
0.631000,-0.722816
0.632000,-0.501344
0.633000,-1.524699
0.634000,-1.707987
0.635000,-2.368586
0.636000,-2.527689
0.637000,-2.833169
0.638000,-3.180651
0.639000,-3.426307
0.640000,-3.421216
0.641000,-3.389395
0.642000,-2.899356
0.643000,-2.494596
0.644000,-2.677883
0.645000,-2.523871
0.646000,-2.619333
0.647000,-2.633334
0.648000,-2.710977
0.649000,-2.472958
0.650000,-2.377495
0.651000,-2.103837
0.652000,-1.461058
0.653000,-0.996475
0.654000,-0.712634
0.655000,-0.609535
0.656000,-0.780094
0.657000,-1.142850
0.658000,-1.388506
0.659000,-1.270133
0.660000,-1.103393
0.661000,-1.144123
0.662000,-1.168307
0.663000,-0.824643
0.664000,-0.395699
0.665000,0.446914
0.666000,0.579289
0.667000,0.220351
0.668000,-0.305328
0.669000,-0.738090
0.670000,-1.245950
0.671000,-1.271406
0.672000,0.070157
0.673000,0.558923
0.674000,-0.475887
0.675000,-1.529791
0.676000,-2.000738
0.677000,-2.335492
0.678000,-2.387678
0.679000,-2.503506
0.680000,-2.614242
0.681000,-2.693157
0.682000,-2.576057
0.683000,-2.386405
0.684000,-2.609150
0.685000,-2.212027
0.686000,-0.292600
0.687000,1.057873
0.688000,0.621292
0.689000,-0.325693
0.690000,-1.332502
0.691000,-2.316400
0.692000,-3.276113
0.693000,-2.404225
0.694000,-1.891274
0.695000,-2.432227
0.696000,-3.075006
0.697000,-3.489949
0.698000,-3.572683
0.699000,-2.745343
0.700000,-2.269305
0.701000,-0.969745
0.702000,-0.354969
0.703000,-0.365151
0.704000,-0.685904
0.705000,-1.139032
0.706000,-1.623980
0.707000,-2.049105
0.708000,-2.045287
0.709000,-2.027467
0.710000,-1.961280
0.711000,-0.542075
0.712000,0.108342
0.713000,-0.137315
0.714000,-0.716452
0.715000,-0.531892
0.716000,-0.301510
0.717000,-0.815733
0.718000,-0.608262
0.719000,-0.365151
0.720000,-0.370242
0.721000,-0.931561
0.722000,-1.141577
0.723000,-0.865373
0.724000,-1.023204
0.725000,-0.511527
0.726000,1.285709
0.727000,1.821571
0.728000,0.771486
0.729000,-1.233221
0.730000,-2.937541
0.731000,-3.713967
0.732000,-4.673681
0.733000,-5.394102
0.734000,-4.940975
0.735000,-4.284195
0.736000,-4.089452
0.737000,-4.421660
0.738000,-3.907437
0.739000,-3.794155
0.740000,-3.495040
0.741000,-3.072461
0.742000,-2.601513
0.743000,-1.858181
0.744000,-1.037205
0.745000,-1.258678
0.746000,-1.580704
0.747000,-1.657074
0.748000,-1.523426
0.749000,-1.328683
0.750000,-0.871737
0.751000,-0.822097
0.752000,-0.761001
0.753000,-1.074117
0.754000,-1.244677
0.755000,-0.731726
0.756000,-0.445339
0.757000,-0.517891
0.758000,-0.717725
0.759000,-0.927742
0.760000,-1.044842
0.761000,-0.908650
0.762000,-0.923924
0.763000,-1.234494
0.764000,-1.359231
0.765000,-1.249768
0.766000,-0.986292
0.767000,-0.777548
0.768000,-0.683359
0.769000,-0.744455
0.770000,-0.633718
0.771000,-0.697360
0.772000,-0.174227
0.773000,0.170710
0.774000,-0.134769
0.775000,-0.348604
0.776000,0.118524
0.777000,0.382000
0.778000,0.560196
0.779000,0.333632
0.780000,0.087976
0.781000,2.371433
0.782000,4.017202
0.783000,2.237786
0.784000,-0.386789
0.785000,-2.456411
0.786000,-4.621495
0.787000,-6.054701
0.788000,-6.453097
0.789000,-6.142526
0.790000,-5.901962
0.791000,-4.304560
0.792000,-3.549772
0.793000,-2.871353
0.794000,-2.732615
0.795000,-2.820440
0.796000,-2.965543
0.797000,-3.404669
0.798000,-3.771244
0.799000,-3.777608
0.800000,-3.349937
0.801000,-2.924812
0.802000,-2.747889
0.803000,-2.801348
0.804000,-2.420772
0.805000,-1.618889
0.806000,-0.656629
0.807000,1.496999
0.808000,3.460976
0.809000,4.773263
0.810000,4.754171
0.811000,2.875474
0.812000,0.840219
0.813000,-1.245950
0.814000,-3.092826
0.815000,-4.198915
0.816000,-4.005445
0.817000,-4.142911
0.818000,-4.266375
0.819000,-4.187460
0.820000,-3.912528
0.821000,-3.013910
0.822000,-2.843351
0.823000,-2.758072
0.824000,-2.268032
0.825000,-2.284579
0.826000,-2.354584
0.827000,-1.794539
0.828000,-1.585795
0.829000,-1.382142
0.830000,-1.231948
0.831000,-1.226857
0.832000,-0.801732
0.833000,0.367999
0.834000,1.145698
0.835000,1.029871
0.836000,0.707845
0.837000,-0.041852
0.838000,-0.480979
0.839000,-0.907377
0.840000,-0.923924
0.841000,-1.524699
0.842000,-2.074562
0.843000,-2.442410
0.844000,-2.316400
0.845000,-2.581148
0.846000,-2.658791
0.847000,-1.970190
0.848000,-1.387234
0.849000,-0.657902
0.850000,-0.528073
0.851000,-0.750819
0.852000,-0.973564
0.853000,-0.675722
0.854000,-0.310419
0.855000,0.436732
0.856000,0.454551
0.857000,0.090522
0.858000,0.959865
0.859000,0.516920
0.860000,-0.114404
0.861000,-0.833553
0.862000,-1.644345
0.863000,-2.313854
0.864000,-2.868808
0.865000,-2.890446
0.866000,-3.133556
0.867000,-2.357130
0.868000,-2.143295
0.869000,-2.339310
0.870000,-2.189117
0.871000,-2.224756
0.872000,-2.341856
0.873000,-2.084744
0.874000,-1.020659
0.875000,-1.279043
0.876000,-2.070743
0.877000,-3.052095
0.878000,-3.119555
0.879000,-2.602786
0.880000,-1.881092
0.881000,-0.245505
0.882000,1.234796
0.883000,1.138061
0.884000,0.551286
0.885000,0.178347
0.886000,-0.544620
0.887000,-2.051651
0.888000,-2.934995
0.889000,-3.217563
0.890000,-3.491222
0.891000,-4.125091
0.892000,-4.498030
0.893000,-4.582037
0.894000,-4.218008
0.895000,-3.935439
0.896000,-3.330845
0.897000,-2.568420
0.898000,-2.516234
0.899000,-2.022376
0.900000,-1.491606
0.901000,-1.328683
0.902000,-1.347776
0.903000,-1.459785
0.904000,-1.069026
0.905000,-0.883193
0.906000,-1.004112
0.907000,-0.293873
0.908000,-0.561167
0.909000,-1.186127
0.910000,-1.588341
0.911000,-2.102564
0.912000,-2.500960
0.913000,-2.531508
0.914000,-1.850544
0.915000,-0.662993
0.916000,-0.452976
0.917000,-0.338422
0.918000,-0.907377
0.919000,-1.197582
0.920000,-1.281589
0.921000,-1.275225
0.922000,-1.042297
0.923000,-0.763547
0.924000,0.118524
0.925000,0.518193
0.926000,0.412548
0.927000,-0.003667
0.928000,-0.394426
0.929000,-0.330785
0.930000,-0.239141
0.931000,0.606018
0.932000,0.683661
0.933000,-0.237868
0.934000,-0.860282
0.935000,-1.153033
0.936000,-0.778821
0.937000,-0.879374
0.938000,-1.206492
0.939000,-0.500071
0.940000,0.323450
0.941000,1.300983
0.942000,0.598381
0.943000,-0.374061
0.944000,-1.379597
0.945000,-3.104281
0.946000,-4.327471
0.947000,-4.654588
0.948000,-4.911700
0.949000,-4.648224
0.950000,-4.428024
0.951000,-4.327471
0.952000,-4.114908
0.953000,-3.758516
0.954000,-3.334664
0.955000,-2.731342
0.956000,-1.439420
0.957000,0.272537
0.958000,1.603917
0.959000,1.830481
0.960000,1.952672
0.961000,1.364625
0.962000,-0.312965
0.963000,-1.294317
0.964000,-1.377051
0.965000,-1.240858
0.966000,-0.479706
0.967000,-1.183581
0.968000,-2.203118
0.969000,-2.750435
0.970000,-3.841250
0.971000,-4.420388
0.972000,-4.293105
0.973000,-4.154366
0.974000,-3.456855
0.975000,-3.306661
0.976000,-3.580320
0.977000,-3.964714
0.978000,-3.805611
0.979000,-3.917620
0.980000,-3.847614
0.981000,-2.119111
0.982000,-0.395699
0.983000,0.281446
0.984000,0.286538
0.985000,0.063793
0.986000,-0.496253
0.987000,-1.168307
0.988000,-1.725806
0.989000,-1.891274
0.990000,-2.115292
0.991000,-2.312581
0.992000,-2.332946
0.993000,-1.870909
0.994000,-1.075390
0.995000,-0.234050
0.996000,-0.144952
0.997000,0.047246
0.998000,-0.338422
0.999000,-0.808096
1.000000,-1.122485
1.001000,-1.327411
1.002000,-1.492879
1.003000,-1.429237
1.004000,-0.862828
1.005000,-0.832280
1.006000,-0.833553
1.007000,-0.679540
1.008000,-0.791549
1.009000,-1.183581
1.010000,-1.214129
1.011000,-1.080482
1.012000,-0.818279
1.013000,-0.936652
1.014000,-1.257405
1.015000,0.301812
1.016000,1.560641
1.017000,1.141880
1.018000,-0.058399
1.019000,-0.641355
1.020000,0.322177
1.021000,0.418912
1.022000,0.325996
1.023000,-0.102948
1.024000,-1.341412
1.025000,-3.395759
1.026000,-4.924428
1.027000,-5.508657
1.028000,-5.637213
1.029000,-5.249000
1.030000,-4.243464
1.031000,-2.395315
1.032000,0.472371
1.033000,1.990857
1.034000,1.271708
1.035000,-0.675722
1.036000,-2.424590
1.037000,-3.123374
1.038000,-3.319390
1.039000,-3.176833
1.040000,-2.862444
1.041000,-2.744070
1.042000,-2.212027
1.043000,-1.984191
1.044000,-1.916731
1.045000,-1.514517
1.046000,-1.402508
1.047000,-0.547166
1.048000,0.374363
1.049000,0.185984
1.050000,-0.436430
1.051000,-1.084300
1.052000,-1.299408
1.053000,-1.569248
1.054000,-1.858181
1.055000,-2.186571
1.056000,-2.306217
1.057000,-2.240030
1.058000,-1.565430
1.059000,-0.139860
1.060000,0.561469
1.061000,0.149072
1.062000,-0.810642
1.063000,-1.323592
1.064000,-1.565430
1.065000,-2.112747
1.066000,-2.719887
1.067000,-3.178105
1.068000,-3.417397
1.069000,-1.779265
1.070000,-1.065208
1.071000,-0.599352
1.072000,-0.927742
1.073000,-1.664711
1.074000,-2.097473
1.075000,-2.835714
1.076000,-2.996091
1.077000,-2.779710
1.078000,-1.882365
1.079000,-0.999020
1.080000,0.730755
1.081000,1.509727
1.082000,0.266173
1.083000,-1.030841
1.084000,-2.311308
1.085000,-2.714795
1.086000,-3.352483
1.087000,-2.889173
1.088000,-2.507324
1.089000,-2.632061
1.090000,-1.377051
1.091000,-0.615899
1.092000,-0.591715
1.093000,-0.860282
1.094000,-0.563713
1.095000,-0.870465
1.096000,-1.006657
1.097000,-1.603615
1.098000,-2.150932
1.099000,-2.378768
1.100000,-2.086017
1.101000,-2.415680
1.102000,-2.251485
1.103000,-0.604443
1.104000,-0.427520
1.105000,-0.778821
1.106000,-1.416509
1.107000,-1.779265
1.108000,-2.134385
1.109000,-2.420772
1.110000,-2.647335
1.111000,-2.250212
1.112000,-1.388506
1.113000,-1.168307
1.114000,-1.383415
1.115000,-1.226857
1.116000,0.020516
1.117000,0.165619
1.118000,-0.231504
1.119000,-1.104665
1.120000,-1.365596
1.121000,-1.886183
1.122000,-1.565430
1.123000,-1.916731
1.124000,-1.860726
1.125000,-1.860726
1.126000,-1.869636
1.127000,-2.129294
1.128000,-2.443683
1.129000,-2.381314
1.130000,-2.148386
1.131000,-2.245121
1.132000,-1.420327
1.133000,-1.041024
1.134000,-0.795368
1.135000,-0.750819
1.136000,-0.859009
1.137000,-1.042297
1.138000,-0.870465
1.139000,-0.786458
1.140000,-0.704997
1.141000,-1.195036
1.142000,-1.861999
1.143000,-2.027467
1.144000,-1.713078
1.145000,-1.457239
1.146000,-1.077936
1.147000,-1.075390
1.148000,-0.850099
1.149000,-1.399962
1.150000,-2.049105
1.151000,-2.353312
1.152000,-2.903174
1.153000,-3.366484
1.154000,-3.188288
1.155000,-2.396588
1.156000,-2.203118
1.157000,-2.175115
1.158000,-2.278215
1.159000,-1.560339
1.160000,-1.192491
1.161000,-0.960836
1.162000,-0.704997
1.163000,-0.603170
1.164000,0.213986
1.165000,1.797387
1.166000,1.911942
1.167000,1.173700
1.168000,-0.259506
1.169000,-1.504334
1.170000,-2.349493
1.171000,-2.247667
1.172000,-1.771628
1.173000,-2.292216
1.174000,-2.644790
1.175000,-2.506051
1.176000,-1.206492
1.177000,-0.595533
1.178000,-0.934106
1.179000,-0.846281
1.180000,0.343815
1.181000,1.701925
1.182000,1.421902
1.183000,-0.136042
1.184000,-1.407599
1.185000,-3.031730
1.186000,-2.301126
1.187000,-0.727908
1.188000,-0.880647
1.189000,-1.914185
1.190000,-2.222210
1.191000,-3.123374
1.192000,-4.169640
1.193000,-4.288013
1.194000,-4.016900
1.195000,-3.188288
1.196000,-1.925641
1.197000,-1.737262
1.198000,-2.439864
1.199000,-2.955360
1.200000,-3.453037
1.201000,-3.542135
1.202000,-3.237928
1.203000,-2.961724
1.204000,-2.710977
1.205000,-1.912912
1.206000,-1.494151
1.207000,-1.137759
1.208000,-0.786458
1.209000,-1.108484
1.210000,-1.496697
1.211000,-2.058015
1.212000,-2.469139
1.213000,-2.446228
1.214000,-2.348220
1.215000,-2.413135
1.216000,-2.284579
1.217000,-1.812359
1.218000,-1.215402
1.219000,-0.688450
1.220000,-0.273507
1.221000,0.215259
1.222000,0.123616
1.223000,-0.366424
1.224000,-0.861555
1.225000,-1.490333
1.226000,-1.742353
1.227000,-1.200128
1.228000,-0.410973
1.229000,0.324723
1.230000,0.436732
1.231000,0.043427
1.232000,-0.659175
1.233000,-1.184854
1.234000,-1.635435
1.235000,-2.108928
1.236000,-2.467866
1.237000,-2.532781
1.238000,-2.649881
1.239000,-2.609150
1.240000,-2.600241
1.241000,-2.553146
1.242000,-2.262941
1.243000,-1.112302
1.244000,1.182610
1.245000,1.906850
1.246000,1.862301
1.247000,1.555549
1.248000,2.550902
1.249000,1.858483
1.250000,0.816035
1.251000,-0.326966
1.252000,-1.006657
1.253000,-1.798358
1.254000,-2.713522
1.255000,-2.901901
1.256000,-3.251930
1.257000,-3.585411
1.258000,-4.165822
1.259000,-3.809429
1.260000,-4.051267
1.261000,-4.058904
1.262000,-3.729241
1.263000,-3.110645
1.264000,-2.490777
1.265000,1.358261
1.266000,4.088481
1.267000,3.230594
1.268000,1.297165
1.269000,-1.035933
1.270000,-1.949824
1.271000,-2.858625
1.272000,-3.645234
1.273000,-4.118727
1.274000,-4.340199
1.275000,-4.612585
1.276000,-4.897699
1.277000,-3.790337
1.278000,-2.046560
1.279000,-1.369414
1.280000,-1.681257
1.281000,-1.365596
1.282000,-1.214129
1.283000,-0.466978
1.284000,-0.594261
1.285000,-1.033387
1.286000,-1.533609
1.287000,-2.119111
1.288000,-1.575612
1.289000,-0.796641
1.290000,-1.336320
1.291000,-1.725806
1.292000,-1.435601
1.293000,-1.573067
1.294000,-1.513244
1.295000,-1.359231
1.296000,-1.277770
1.297000,-1.206492
1.298000,-1.752536
1.299000,-1.905275
1.300000,-1.819996
1.301000,-1.951097
1.302000,-1.952370
1.303000,-0.761001
1.304000,0.547468
1.305000,0.333632
1.306000,0.104523
1.307000,0.110887
1.308000,-0.449158
1.309000,-1.170853
1.310000,-1.550156
1.311000,-2.256577
1.312000,-2.710977
1.313000,-3.111918
1.314000,-3.665599
1.315000,-3.556136
1.316000,-3.150103
1.317000,-2.457684
1.318000,-2.018557
1.319000,-1.739808
1.320000,-1.886183
1.321000,-1.756354
1.322000,-1.363050
1.323000,-1.203946
1.324000,-1.321046
1.325000,-1.357959
1.326000,-1.089391
1.327000,-1.039751
1.328000,-0.634991
1.329000,-0.209866
1.330000,0.026880
1.331000,0.342542
1.332000,1.504636
1.333000,1.751565
1.334000,0.967502
1.335000,-0.564985
1.336000,-1.601069
1.337000,-2.047832
1.338000,-2.957906
1.339000,-3.418670
1.340000,-2.466593
1.341000,-1.904003
1.342000,-1.671075
1.343000,-2.063106
1.344000,-2.150932
1.345000,-1.765264
1.346000,1.055327
1.347000,3.980290
1.348000,2.914932
1.349000,1.052781
1.350000,-1.309591
1.351000,-3.075006
1.352000,-3.768699
1.353000,-3.556136
1.354000,-2.568420
1.355000,-1.725806
1.356000,-0.478433
1.357000,-0.837371
1.358000,-1.527245
1.359000,-2.597695
1.360000,-2.965543
1.361000,-3.043185
1.362000,-3.311753
1.363000,-3.587957
1.364000,-3.869252
1.365000,-4.089452
1.366000,-3.941803
1.367000,-4.177277
1.368000,-4.177277
1.369000,-3.875616
1.370000,-3.921438
1.371000,-3.408488
1.372000,-3.351210
1.373000,-3.111918
1.374000,-2.164933
1.375000,-1.030841
1.376000,-0.757183
1.377000,-0.306601
1.378000,0.084158
1.379000,0.646749
1.380000,1.388809
1.381000,1.749019
1.382000,1.336623
1.383000,0.651840
1.384000,0.187257
1.385000,-0.465705
1.386000,-1.374505
1.387000,-2.097473
1.388000,-2.126748
1.389000,-1.699077
1.390000,-1.636708
1.391000,-1.784357
1.392000,-1.013022
1.393000,-1.033387
1.394000,-1.606160
1.395000,-1.319774
1.396000,-1.601069
1.397000,-1.392325
1.398000,-1.630344
1.399000,-2.484413
1.400000,-3.192107
1.401000,-3.226473
1.402000,-2.845897
1.403000,-1.893820
1.404000,-1.234494
1.405000,-0.712634
1.406000,-0.636264
1.407000,0.280174
1.408000,0.749848
1.409000,0.981503
1.410000,-0.040580
1.411000,-1.307045
1.412000,-2.238757
1.413000,-2.648608
1.414000,-2.368586
1.415000,-1.856908
1.416000,-0.791549
1.417000,-0.516618
1.418000,-0.874283
1.419000,-1.290499
1.420000,-2.119111
1.421000,-2.931176
1.422000,-2.791165
1.423000,-2.224756
1.424000,-0.730453
1.425000,0.539831
1.426000,1.023506
1.427000,0.017971
1.428000,-1.189945
1.429000,-1.735989
1.430000,-2.353312
1.431000,-2.984635
1.432000,-3.151376
1.433000,-3.587957
1.434000,-4.035993
1.435000,-3.968533
1.436000,-3.838704
1.437000,-3.346119
1.438000,-1.687622
1.439000,0.325996
1.440000,0.962411
1.441000,0.733301
1.442000,0.370545
1.443000,-0.506435
1.444000,-1.336320
1.445000,-2.036377
1.446000,-0.094038
1.447000,1.845755
1.448000,3.663356
1.449000,2.820742
1.450000,1.238615
1.451000,0.063793
1.452000,-0.206047
1.453000,-1.298136
1.454000,-2.353312
1.455000,-3.433944
1.456000,-4.135274
1.457000,-4.864605
1.458000,-4.616403
1.459000,-4.466209
1.460000,-4.443298
1.461000,-2.642244
1.462000,-1.112302
1.463000,-0.306601
1.464000,-0.883193
1.465000,-1.401235
1.466000,-2.156023
1.467000,-2.240030
1.468000,-3.022820
1.469000,-3.600685
1.470000,-3.613413
1.471000,-4.136546
1.472000,-4.542579
1.473000,-4.033447
1.474000,-3.458128
1.475000,-2.466593
1.476000,-2.196754
1.477000,-1.831451
1.478000,-1.377051
1.479000,-1.254859
1.480000,-1.478877
1.481000,-1.735989
1.482000,-1.473786
1.483000,-1.678712
1.484000,-1.342685
1.485000,-0.363878
1.486000,0.198713
1.487000,1.004414
1.488000,1.420629
1.489000,1.211885
1.490000,0.743484
1.491000,0.114706
1.492000,-0.328239
1.493000,-0.301510
1.494000,0.351452
1.495000,0.467280
1.496000,-0.417337
1.497000,-0.923924
1.498000,-1.063935
1.499000,-0.865373
1.500000,-1.417782
1.501000,-1.890001
1.502000,-2.532781
1.503000,-3.864161
1.504000,-3.545953
1.505000,-3.398305
1.506000,-3.724149
1.507000,-3.785245
1.508000,-3.649053
1.509000,-3.230291
1.510000,-1.646891
1.511000,-0.006213
1.512000,0.584380
1.513000,0.509283
1.514000,0.762576
1.515000,0.772759
1.516000,1.861028
1.517000,2.740554
1.518000,2.553448
1.519000,1.316257
1.520000,-0.160226
1.521000,-1.139032
1.522000,-2.528962
1.523000,-3.813248
1.524000,-4.625313
1.525000,-4.176004
1.526000,-3.199744
1.527000,-2.892992
1.528000,-3.027911
1.529000,-3.394487
1.530000,-3.945622
1.531000,-4.260011
1.532000,-4.055085
1.533000,-3.268476
1.534000,-0.202229
1.535000,2.825834
1.536000,3.737180
1.537000,2.440166
1.538000,0.599654
1.539000,-1.478877
1.540000,-3.101736
1.541000,-4.454754
1.542000,-5.017345
1.543000,-4.107271
1.544000,-3.459401
1.545000,-3.831067
1.546000,-3.610868
1.547000,-3.337209
1.548000,-3.109373
1.549000,-2.368586
1.550000,-2.297307
1.551000,-2.322764
1.552000,-2.294761
1.553000,-2.133112
1.554000,-1.571794
1.555000,-0.953199
1.556000,0.117251
1.557000,0.382000
1.558000,1.526274
1.559000,1.363352
1.560000,0.215259
1.561000,-0.880647
1.562000,-1.974008
1.563000,-2.362221
1.564000,-1.961280
1.565000,-1.584522
1.566000,-1.182308
1.567000,-0.138587
1.568000,-0.221321
1.569000,-0.606989
1.570000,-0.955744
1.571000,-1.242131
1.572000,-1.368141
1.573000,-1.775447
1.574000,-2.293489
1.575000,-2.759344
1.576000,-3.118282
1.577000,-2.812803
1.578000,-2.294761
1.579000,-0.916287
1.580000,0.058701
1.581000,-0.138587
1.582000,-0.319329
1.583000,-0.815733
1.584000,-0.819551
1.585000,-0.925196
1.586000,-1.142850
1.587000,-0.845008
1.588000,-0.869192
1.589000,-1.347776
1.590000,-0.166590
1.591000,1.275527
1.592000,1.574642
1.593000,0.219078
1.594000,-1.528518
1.595000,-1.468695
1.596000,0.600927
1.597000,1.045144
1.598000,0.589471
1.599000,-0.750819
1.600000,-2.316400
1.601000,-4.331289
1.602000,-5.013526
1.603000,-5.839593
1.604000,-5.837047
1.605000,-5.545569
1.606000,-4.034720
1.607000,-1.963826
1.608000,-2.150932
1.609000,-2.989727
1.610000,-3.603231
1.611000,-4.104726
1.612000,-3.811975
1.613000,-2.744070
1.614000,-0.592988
1.615000,1.173700
1.616000,1.899213
1.617000,1.102422
1.618000,0.012879
1.619000,0.394728
1.620000,1.545367
1.621000,1.460087
1.622000,2.339613
1.623000,3.326056
1.624000,1.581006
1.625000,-0.055853
1.626000,-0.113131
1.627000,-1.117394
1.628000,-3.127192
1.629000,-5.130627
1.630000,-6.512920
1.631000,-7.198975
1.632000,-7.393718
1.633000,-7.122606
1.634000,-5.722493
1.635000,-4.654588
1.636000,-4.007991
1.637000,-3.226473
1.638000,-1.835270
1.639000,-0.820824
1.640000,-0.405882
1.641000,-0.444067
1.642000,-0.876829
1.643000,-0.679540
1.644000,-1.266315
1.645000,-2.143295
1.646000,-2.471685
1.647000,-2.260395
1.648000,-1.851817
1.649000,-1.405053
1.650000,-0.670630
1.651000,-0.440248
1.652000,-0.643901
1.653000,-0.472069
1.654000,-0.643901
1.655000,-0.999020
1.656000,-0.573895
1.657000,0.082885
1.658000,-0.136042
1.659000,-0.194592
1.660000,0.532194
1.661000,1.093512
1.662000,1.041326
1.663000,0.241989
1.664000,0.001424
1.665000,0.150345
1.666000,0.121070
1.667000,-0.701178
1.668000,-1.410145
1.669000,-2.289670
1.670000,-2.848442
1.671000,-3.286296
1.672000,-3.001182
1.673000,-2.878990
1.674000,-1.593432
1.675000,-1.164488
1.676000,-0.099130
1.677000,0.572925
1.678000,0.072702
1.679000,-0.427520
1.680000,-0.907377
1.681000,-1.385961
1.682000,-1.427964
1.683000,-1.221766
1.684000,-1.825087
1.685000,-1.864545
1.686000,-1.954916
1.687000,-1.527245
1.688000,-0.790276
1.689000,-0.507708
1.690000,-0.676995
1.691000,-1.543792
1.692000,-2.438591
1.693000,-2.313854
1.694000,-1.837815
1.695000,-0.080037
1.696000,0.859311
1.697000,0.023062
1.698000,-0.861555
1.699000,-0.550984
1.700000,1.122787
1.701000,-0.432611
1.702000,-2.245121
1.703000,-4.333835
1.704000,-5.605392
1.705000,-6.658023
1.706000,-7.386081
1.707000,-6.780214
1.708000,-5.013526
1.709000,-3.383031
1.710000,-2.672792
1.711000,-1.464876
1.712000,0.525830
1.713000,0.636566
1.714000,0.063793
1.715000,-0.749546
1.716000,-0.814460
1.717000,-1.458512
1.718000,-2.298580
1.719000,-2.923539
1.720000,-3.077552
1.721000,-3.343573
1.722000,-3.477220
1.723000,-2.797529
1.724000,-2.293489
1.725000,-1.840361
1.726000,-1.646891
1.727000,-1.522154
1.728000,-1.468695
1.729000,-1.515789
1.730000,-1.441965
1.731000,-0.556076
1.732000,0.598381
1.733000,2.166508
1.734000,2.684549
1.735000,1.336623
1.736000,-0.804278
1.737000,-2.061834
1.738000,-2.624424
1.739000,-3.021547
1.740000,-3.380485
1.741000,-3.292660
1.742000,-3.425034
1.743000,-3.687237
1.744000,-2.644790
1.745000,-1.304500
1.746000,-0.632445
1.747000,-0.097857
1.748000,-0.321875
1.749000,-0.427520
1.750000,0.076521
1.751000,0.394728
1.752000,0.343815
1.753000,0.454551
1.754000,0.650567
1.755000,1.130424
1.756000,0.859311
1.757000,-0.017669
1.758000,-1.219220
1.759000,-1.958734
1.760000,-1.723261
1.761000,-0.879374
1.762000,-1.214129
1.763000,-0.544620
1.764000,0.730755
1.765000,0.440550
1.766000,-0.876829
1.767000,-1.985464
1.768000,-3.040640
1.769000,-2.135658
1.770000,-1.733443
1.771000,-1.724534
1.772000,-0.684631
1.773000,-0.146224
1.774000,-1.867091
1.775000,-2.842078
1.776000,-3.072461
1.777000,-3.315571
1.778000,-3.425034
1.779000,-3.314298
1.780000,-2.265486
1.781000,-1.415236
1.782000,-0.979928
1.783000,-0.586624
1.784000,-0.855191
1.785000,-0.276053
1.786000,-0.913741
1.787000,-2.436046
1.788000,-3.608322
1.789000,-4.239646
1.790000,-5.425923
1.791000,-5.844684
1.792000,-5.541751
1.793000,-4.452208
1.794000,-2.549327
1.795000,-2.544236
1.796000,-2.702067
1.797000,-3.265931
1.798000,-2.817895
1.799000,-2.205663
1.800000,-2.325309
1.801000,-2.371131
1.802000,-2.005829
1.803000,-1.789448
1.804000,-0.648992
1.805000,0.598381
1.806000,1.096058
1.807000,1.942490
1.808000,2.263243
1.809000,2.324339
1.810000,1.656103
1.811000,0.742211
1.812000,-0.071127
1.813000,-0.724089
1.814000,-1.238313
1.815000,-1.019386
1.816000,-1.010476
1.817000,-1.606160
1.818000,-2.324037
1.819000,-2.658791
1.820000,-3.024093
1.821000,-3.395759
1.822000,-2.980817
1.823000,-2.270578
1.824000,-1.813632
1.825000,-1.545065
1.826000,-0.743182
1.827000,-0.935379
1.828000,-1.324865
1.829000,-1.583249
1.830000,-1.331229
1.831000,-1.135213
1.832000,-0.845008
1.833000,-0.824643
1.834000,-0.292600
1.835000,-0.085129
1.836000,0.056156
1.837000,0.606018
1.838000,0.911497
1.839000,0.696389
1.840000,0.908952
1.841000,0.371817
1.842000,-0.295146
1.843000,-0.706270
1.844000,-2.457684
1.845000,-3.601958
1.846000,-3.889617
1.847000,-4.202734
1.848000,-4.748778
1.849000,-3.332118
1.850000,-2.476776
1.851000,-2.273123
1.852000,-2.124202
1.853000,-2.156023
1.854000,-2.339310
1.855000,-2.446228
1.856000,-2.498414
1.857000,-2.658791
1.858000,-2.814076
1.859000,-2.812803
1.860000,-2.943905
1.861000,-3.081370
1.862000,-2.915902
1.863000,-2.173843
1.864000,-1.172125
1.865000,-0.978655
1.866000,0.696389
1.867000,3.744817
1.868000,5.651516
1.869000,5.964632
1.870000,3.555165
1.871000,0.564015
1.872000,-2.171297
1.873000,-4.072905
1.874000,-5.213361
1.875000,-5.387738
1.876000,-4.946066
1.877000,-4.691500
1.878000,-4.218008
1.879000,-3.897254
1.880000,-3.250657
1.881000,-2.815349
1.882000,-2.593876
1.883000,-1.701623
1.884000,-0.613353
1.885000,-0.519164
1.886000,-0.701178
1.887000,-0.652811
1.888000,-0.144952
1.889000,-0.241687
1.890000,-0.511527
1.891000,-1.548883
1.892000,-2.456411
1.893000,-2.791165
1.894000,-2.474230
1.895000,-2.191662
1.896000,-2.008375
1.897000,-1.874728
1.898000,-1.267588
1.899000,-0.693541
1.900000,-0.519164
1.901000,-0.762274
1.902000,-1.412690
1.903000,-1.839088
1.904000,-1.990555
1.905000,-1.930732
1.906000,-1.938369
1.907000,-1.379597
1.908000,-1.153033
1.909000,-1.462331
1.910000,-1.637981
1.911000,-1.013022
1.912000,-0.885739
1.913000,-1.153033
1.914000,-1.221766
1.915000,-1.286680
1.916000,-1.327411
1.917000,-0.330785
1.918000,-0.274780
1.919000,-0.880647
1.920000,-1.688894
1.921000,-1.835270
1.922000,-1.769083
1.923000,-1.825087
1.924000,-1.735989
1.925000,-0.416064
1.926000,0.982776
1.927000,1.057873
1.928000,0.777850
1.929000,0.654386
1.930000,0.089249
1.931000,0.023062
1.932000,-0.085129
1.933000,-0.511527
1.934000,-1.084300
1.935000,-2.551873
1.936000,-3.529407
1.937000,-3.758516
1.938000,-3.633779
1.939000,-3.276113
1.940000,-3.445400
1.941000,-2.033831
1.942000,-0.985019
1.943000,-1.025750
1.944000,-1.672348
1.945000,-1.015567
1.946000,0.235625
1.947000,0.580562
1.948000,-1.056298
1.949000,-2.956633
1.950000,-4.139092
1.951000,-4.601129
1.952000,-4.422933
1.953000,-4.137819
1.954000,-3.374121
1.955000,-2.980817
1.956000,-2.825532
1.957000,-2.455138
1.958000,-1.887456
1.959000,-2.311308
1.960000,-1.816177
1.961000,-1.450875
1.962000,-0.815733
1.963000,-1.230676
1.964000,-1.657074
1.965000,-1.721988
1.966000,-1.748717
1.967000,-1.975281
1.968000,-2.052924
1.969000,-1.713078
1.970000,-1.058844
1.971000,-0.371515
1.972000,-0.321875
1.973000,-0.274780
1.974000,-0.643901
1.975000,-1.206492
1.976000,-1.494151
1.977000,-0.948107
1.978000,-0.480979
1.979000,-0.730453
1.980000,-0.850099
1.981000,-0.811914
1.982000,-0.640082
1.983000,-0.276053
1.984000,-0.492434
1.985000,-0.066036
1.986000,0.138890
1.987000,-0.519164
1.988000,-1.566703
1.989000,-2.612969
1.990000,-3.273568
1.991000,-3.297751
1.992000,-2.475503
1.993000,-2.069471
1.994000,-1.872182
1.995000,-1.434328
1.996000,-0.147497
1.997000,0.520739
1.998000,1.130424
1.999000,0.831309
2.000000,2.016314
2.001000,1.679014
2.002000,0.967502
2.003000,-0.977382
2.004000,-2.712250
2.005000,-3.305388
2.006000,-3.852705
2.007000,-4.290559
2.008000,-4.218008
2.009000,-3.430126
2.010000,-3.003728
2.011000,-3.183197
2.012000,-3.316844
2.013000,-3.278659
2.014000,-3.455582
2.015000,-3.645234
2.016000,-3.685965
2.017000,-2.746616
2.018000,-2.192935
2.019000,-2.184025
2.020000,-2.311308
2.021000,-2.559510
2.022000,-2.344402
2.023000,-2.122929
2.024000,-2.023649
2.025000,-1.606160
2.026000,-0.936652
2.027000,-0.410973
2.028000,0.567833
2.029000,1.378626
2.030000,1.987039
2.031000,4.442328
2.032000,6.076641
2.033000,5.408406
2.034000,2.738008
2.035000,0.150345
2.036000,-1.385961
2.037000,-2.990999
2.038000,-4.904063
2.039000,-5.896870
2.040000,-5.338098
2.041000,-4.498030
2.042000,-3.865434
2.043000,-1.281589
2.044000,0.406184
2.045000,-0.147497
2.046000,-0.673176
2.047000,-0.561167
2.048000,3.188590
2.049000,3.342603
2.050000,1.774476
2.051000,-1.243404
2.052000,-4.499303
2.053000,-6.834946
2.054000,-7.633010
2.055000,-7.401355
2.056000,-6.935500
2.057000,-6.286356
2.058000,-4.167094
2.059000,-2.856079
2.060000,-1.932005
2.061000,-1.195036
2.062000,-1.517062
2.063000,-2.100018
2.064000,-2.877718
2.065000,-3.414852
2.066000,-3.237928
2.067000,-2.495869
2.068000,-2.175115
2.069000,-1.794539
2.070000,-1.193763
2.071000,-0.343513
2.072000,0.371817
2.073000,0.389637
2.074000,0.094340
2.075000,-0.165317
2.076000,-0.176772
2.077000,0.129980
2.078000,0.858038
2.079000,0.547468
2.080000,0.128707
2.081000,-0.250596
2.082000,-0.744455
2.083000,-0.890830
2.084000,-1.053752
2.085000,-1.108484
2.086000,-1.077936
2.087000,-1.294317
2.088000,-1.688894
2.089000,-1.196309
2.090000,-0.052035
2.091000,-0.116949
2.092000,0.198713
2.093000,0.299266
2.094000,1.283164
2.095000,3.244595
2.096000,2.909840
2.097000,1.083329
2.098000,-1.468695
2.099000,-3.090280
2.100000,-3.428853
2.101000,-3.352483
2.102000,-3.296479
2.103000,-2.196754
2.104000,-2.559510
2.105000,-2.947723
2.106000,-2.402952
2.107000,-2.467866
2.108000,-3.151376
2.109000,-4.019446
2.110000,-5.065712
2.111000,-5.401739
2.112000,-4.671135
2.113000,-3.118282
2.114000,-2.194208
2.115000,-0.668085
2.116000,-0.087674
2.117000,-0.402063
2.118000,-0.209866
2.119000,-0.333330
2.120000,-0.337149
2.121000,-1.317228
2.122000,-2.310035
2.123000,-2.802621
2.124000,-2.658791
2.125000,-2.261668
2.126000,0.448187
2.127000,0.539831
2.128000,-0.245505
2.129000,-0.309147
2.130000,-0.694814
2.131000,-1.780538
2.132000,-2.642244
2.133000,-2.996091
2.134000,-1.422873
2.135000,-1.228130
2.136000,-1.760173
2.137000,-1.243404
2.138000,-1.932005
2.139000,-2.598968
2.140000,-3.194652
2.141000,-3.428853
2.142000,-3.006273
2.143000,-2.628243
2.144000,-1.725806
2.145000,-1.350322
2.146000,-0.754637
2.147000,-0.410973
2.148000,0.020516
2.149000,0.477462
2.150000,0.240716
2.151000,-1.037205
2.152000,-2.380041
2.153000,-3.006273
2.154000,-3.209926
2.155000,-3.155194
2.156000,-3.062278
2.157000,-2.822986
2.158000,-2.024921
2.159000,-1.273952
2.160000,-0.362606
2.161000,0.496555
2.162000,0.011607
2.163000,-0.647719
2.164000,-1.410145
2.165000,-1.860726
2.166000,-1.887456
2.167000,-1.842907
2.168000,-1.644345
2.169000,-1.321046
2.170000,-0.949380
2.171000,-0.717725
2.172000,-1.413963
2.173000,-1.709260
2.174000,-1.697804
2.175000,-1.797085
2.176000,-2.297307
2.177000,-2.255304
2.178000,-2.189117
2.179000,-1.668529
2.180000,-0.859009
2.181000,-0.465705
2.182000,-0.025306
2.183000,0.103250
2.184000,0.856766
2.185000,1.482998
2.186000,1.160972
2.187000,0.235625
2.188000,0.635293
2.189000,0.509283
2.190000,-0.165317
2.191000,-0.417337
2.192000,-0.684631
2.193000,-1.122485
2.194000,-1.385961
2.195000,-1.728352
2.196000,-2.022376
2.197000,-2.190389
2.198000,-2.164933
2.199000,-2.577330
2.200000,-2.702067
2.201000,-1.783084
2.202000,-1.147942
2.203000,-2.005829
2.204000,-1.767810
2.205000,0.620019
2.206000,3.345148
2.207000,2.373979
2.208000,-0.384244
2.209000,-3.333391
2.210000,-5.527750
2.211000,-7.683924
2.212000,-7.997040
2.213000,-7.401355
2.214000,-6.674569
2.215000,-6.400911
2.216000,-5.322824
2.217000,-4.303287
2.218000,-2.591331
2.219000,-1.272679
2.220000,-0.710088
2.221000,-0.286236
2.222000,-0.669358
2.223000,-1.301954
2.224000,-1.721988
2.225000,-1.531063
2.226000,-0.829734
2.227000,-0.754637
2.228000,-0.435157
2.229000,-0.164044
2.230000,-0.421156
2.231000,-0.559894
2.232000,-0.423701
2.233000,-0.151316
2.234000,-0.674449
2.235000,-0.727908
2.236000,-1.131395
2.237000,-1.136486
2.238000,-2.033831
2.239000,-2.252758
2.240000,-1.790721
2.241000,-1.416509
2.242000,-1.006657
2.243000,-0.601898
2.244000,-0.335876
2.245000,-0.220049
2.246000,0.374363
2.247000,0.556378
2.248000,0.140162
2.249000,0.337451
2.250000,-0.105494
2.251000,-0.801732
2.252000,-1.314682
2.253000,-1.234494
2.254000,-1.646891
2.255000,-1.868363
2.256000,-2.339310
2.257000,-2.107655
2.258000,-0.851372
2.259000,-0.753364
2.260000,-1.020659
2.261000,-0.718998
2.262000,-1.472513
2.263000,-1.579431
2.264000,-0.403336
2.265000,0.115979
2.266000,-0.211139
2.267000,-1.552702
2.268000,-2.927358
2.269000,-3.590502
2.270000,-3.346119
2.271000,-2.899356
2.272000,0.023062
2.273000,1.799933
2.274000,1.569550
2.275000,0.313267
2.276000,-1.427964
2.277000,-2.465321
2.278000,-3.655417
2.279000,-4.837876
2.280000,-5.432287
2.281000,-5.599028
2.282000,-5.022436
2.283000,-4.486575
2.284000,-3.962169
2.285000,-3.971079
2.286000,-3.075006
2.287000,-2.420772
2.288000,-1.048661
2.289000,0.049791
2.290000,0.213986
2.291000,-0.318056
2.292000,0.495282
2.293000,0.201258
2.294000,-0.531892
2.295000,-1.279043
2.296000,-1.858181
2.297000,-1.954916
2.298000,-2.138203
2.299000,-2.290943
2.300000,-2.180207
2.301000,-2.289670
2.302000,-2.288397
2.303000,-2.317672
2.304000,-1.585795
2.305000,-1.464876
2.306000,-1.795812
2.307000,-2.059288
2.308000,-1.467422
2.309000,0.915316
2.310000,2.068500
2.311000,2.549630
2.312000,1.981947
2.313000,1.438449
2.314000,1.013324
2.315000,0.075248
2.316000,-1.396143
2.317000,-0.641355
2.318000,1.760475
2.319000,1.540275
2.320000,-0.568804
2.321000,-2.508597
2.322000,-4.085633
2.323000,-5.311368
2.324000,-5.964330
2.325000,-5.604119
2.326000,-5.325370
2.327000,-5.198087
2.328000,-4.939702
2.329000,-4.391112
2.330000,-3.701239
2.331000,-2.891719
2.332000,-2.362221
2.333000,-2.148386
2.334000,-1.926914
2.335000,-1.331229
2.336000,-0.817006
2.337000,-0.683359
2.338000,-0.670630
2.339000,-0.506435
2.340000,0.439277
2.341000,0.603472
2.342000,0.252171
2.343000,-0.166590
2.344000,-1.114848
2.345000,-1.435601
2.346000,-1.357959
2.347000,-0.987565
2.348000,-0.102948
2.349000,0.950955
2.350000,0.576743
2.351000,0.101977
2.352000,-0.660448
2.353000,-0.842462
2.354000,-0.915014
2.355000,-0.808096
2.356000,-0.407155
2.357000,-1.685076
2.358000,-2.518780
2.359000,-3.137375
2.360000,-3.334664
2.361000,-3.381758
2.362000,-2.140749
2.363000,-1.046115
2.364000,-1.118667
2.365000,-1.067753
2.366000,-1.111030
2.367000,-1.667256
2.368000,-1.757627
2.369000,-1.195036
2.370000,0.290356
2.371000,1.775749
2.372000,1.083329
2.373000,0.399820
2.374000,0.725664
2.375000,2.403254
2.376000,0.768940
2.377000,-1.520881
2.378000,-3.601958
2.379000,-3.981261
2.380000,-4.234554
2.381000,-4.725867
2.382000,-4.676226
2.383000,-4.392385
2.384000,-3.845068
2.385000,-3.426307
2.386000,-2.971907
2.387000,-2.511143
2.388000,-2.037650
2.389000,-1.609979
2.390000,-2.133112
2.391000,-2.789892
2.392000,-3.272295
2.393000,-2.330401
2.394000,-2.159841
2.395000,-1.825087
2.396000,-1.487787
2.397000,-1.214129
2.398000,-0.410973
2.399000,0.276355
2.400000,0.682388
2.401000,0.999323
2.402000,1.197884
2.403000,-0.340967
2.404000,-1.503061
2.405000,-2.966816
2.406000,-3.801792
2.407000,-3.715240
2.408000,-3.017729
2.409000,-2.028740
2.410000,-1.822541
2.411000,-1.949824
2.412000,-1.860726
2.413000,-0.332058
2.414000,0.109614
2.415000,-0.004940
2.416000,-0.090220
2.417000,-0.817006
2.418000,-1.173398
2.419000,-1.509425
2.420000,-1.844180
2.421000,-2.142022
2.422000,-1.233221
2.423000,-0.466978
2.424000,-0.575168
2.425000,-1.114848
2.426000,-1.682530
2.427000,-0.531892
2.428000,-1.028296
2.429000,-1.777992
2.430000,-1.215402
2.431000,-1.640527
2.432000,-1.280316
2.433000,-1.519608
2.434000,-2.026194
2.435000,-2.091109
2.436000,-1.575612
2.437000,-1.733443
2.438000,-1.790721
2.439000,-2.301126
2.440000,-2.293489
2.441000,-1.361777
2.442000,-0.040580
2.443000,0.944591
2.444000,0.968775
2.445000,1.055327
2.446000,1.805024
2.447000,1.210612
2.448000,-0.088947
2.449000,-0.531892
2.450000,-0.881920
2.451000,-0.507708
2.452000,-0.379152
2.453000,-1.318501
2.454000,-2.568420
2.455000,-3.351210
2.456000,-3.752152
2.457000,-4.298196
2.458000,-5.442470
2.459000,-6.292720
2.460000,-6.566379
2.461000,-6.269809
2.462000,-3.949440
2.463000,-2.868808
2.464000,-2.573511
2.465000,-3.092826
2.466000,-3.549772
2.467000,-3.655417
2.468000,-2.805166
2.469000,-1.659619
2.470000,-1.081754
2.471000,-0.951926
2.472000,-0.533165
2.473000,1.597553
2.474000,2.734190
2.475000,1.960309
2.476000,0.536012
2.477000,-0.600625
2.478000,-1.476332
2.479000,-0.696087
2.480000,0.071430
2.481000,0.199985
2.482000,-0.655356
2.483000,-1.515789
2.484000,-1.748717
2.485000,-1.457239
2.486000,-1.025750
2.487000,-1.170853
2.488000,-2.371131
2.489000,-2.014739
2.490000,0.038336
2.491000,1.227159
2.492000,1.155881
2.493000,0.023062
2.494000,-0.440248
2.495000,-1.681257
2.496000,-2.976998
2.497000,-4.177277
2.498000,-4.883698
2.499000,-4.744959
2.500000,-4.862060
2.501000,-4.557853
2.502000,-3.960896
2.503000,-3.026639
2.504000,-2.084744
2.505000,-1.867091
2.506000,-1.370687
2.507000,-0.987565
2.508000,-0.650265
2.509000,-0.957017
2.510000,-1.244677
2.511000,-0.957017
2.512000,-0.836098
2.513000,-0.430065
2.514000,-0.466978
2.515000,-0.370242
2.516000,-0.013850
2.517000,-0.505162
2.518000,-1.364323
2.519000,-1.174671
2.520000,-0.562440
2.521000,1.171155
2.522000,1.465178
2.523000,1.680287
2.524000,0.980230
2.525000,-0.202229
2.526000,-1.002839
2.527000,-0.419883
2.528000,-1.399962
2.529000,-2.634607
2.530000,-4.284195
2.531000,-4.607494
2.532000,-3.904891
2.533000,-2.900628
2.534000,-0.694814
2.535000,0.039609
2.536000,-0.428793
2.537000,-0.496253
2.538000,-0.948107
2.539000,-0.618444
2.540000,0.019243
2.541000,1.167336
2.542000,0.318359
2.543000,-1.215402
2.544000,-1.464876
2.545000,-1.224311
2.546000,-1.888729
2.547000,-2.343129
2.548000,-2.724978
2.549000,-3.682146
2.550000,-5.251545
2.551000,-6.309267
2.552000,-6.073794
2.553000,-5.363555
2.554000,-4.599857
2.555000,-3.613413
2.556000,-3.059732
2.557000,-2.292216
2.558000,-0.540802
2.559000,0.047246
2.560000,-1.141577
2.561000,-2.198026
2.562000,-2.506051
2.563000,-2.717341
2.564000,-1.914185
2.565000,-0.898467
2.566000,0.094340
2.567000,1.103695
2.568000,1.069328
2.569000,0.434186
2.570000,0.135071
2.571000,-0.825916
2.572000,-1.802176
2.573000,-1.324865
2.574000,-1.323592
2.575000,-1.700350
2.576000,-1.923095
2.577000,-2.154750
2.578000,-2.262941
2.579000,-2.033831
2.580000,-0.741909
2.581000,-0.721544
2.582000,-1.441965
2.583000,-1.819996
2.584000,-1.501788
2.585000,-1.420327
2.586000,-1.341412
2.587000,-1.240858
2.588000,-0.870465
2.589000,0.623838
2.590000,2.387980
2.591000,2.189419
2.592000,1.330258
2.593000,-0.053308
2.594000,-1.671075
2.595000,-2.661336
2.596000,-2.698249
2.597000,-2.559510
2.598000,-2.385132
2.599000,-2.234938
2.600000,-1.590886
2.601000,-1.509425
2.602000,-1.117394
2.603000,-0.831007
2.604000,0.001424
2.605000,0.779123
2.606000,-0.542075
2.607000,-2.213300
2.608000,-3.446673
2.609000,-4.126364
2.610000,-4.537488
2.611000,-4.246010
2.612000,-4.029629
2.613000,-3.072461
2.614000,-2.635880
2.615000,-1.855635
2.616000,-1.150487
2.617000,-1.201400
2.618000,-1.645618
2.619000,-2.092381
2.620000,-1.276497
2.621000,-0.953199
2.622000,-1.248495
2.623000,-1.688894
2.624000,-1.116121
2.625000,-0.768638
2.626000,0.483826
2.627000,0.715481
2.628000,-0.018941
2.629000,-0.833553
2.630000,-1.188672
2.631000,-1.126303
2.632000,0.623838
2.633000,1.589916
2.634000,0.445642
2.635000,-1.808540
2.636000,-3.520497
2.637000,-5.037710
2.638000,-5.801408
2.639000,-4.681318
2.640000,-3.828522
2.641000,-3.291387
2.642000,-2.959179
2.643000,-2.917175
2.644000,-2.525144
2.645000,-2.157296
2.646000,-1.751263
2.647000,-1.100847
2.648000,0.252171
2.649000,1.583552
2.650000,0.646749
2.651000,-0.685904
2.652000,-1.090664
2.653000,-0.930288
2.654000,-1.625253
2.655000,-2.120384
2.656000,-1.847998
2.657000,-1.508152
2.658000,-1.023204
2.659000,0.048519
2.660000,-0.262052
2.661000,-0.762274
2.662000,-1.379597
2.663000,-1.812359
2.664000,-2.228574
2.665000,-2.159841
2.666000,-2.427136
2.667000,-2.415680
2.668000,-2.269305
2.669000,-2.523871
2.670000,-2.436046
2.671000,-2.308763
2.672000,-2.014739
2.673000,-1.202673
2.674000,-0.381698
2.675000,0.081612
2.676000,0.308176
2.677000,-0.293873
2.678000,-0.525528
2.679000,0.129980
2.680000,-0.124586
2.681000,-1.244677
2.682000,-1.487787
2.683000,-2.283306
2.684000,-2.755526
2.685000,-2.884082
2.686000,-2.853534
2.687000,-2.873899
2.688000,-2.628243
2.689000,-2.316400
2.690000,-2.073289
2.691000,-1.071572
2.692000,-0.741909
2.693000,0.075248
2.694000,0.100705
2.695000,0.445642
2.696000,0.516920
2.697000,-0.302782
2.698000,-1.186127
2.699000,-1.268860
2.700000,-1.508152
2.701000,-1.179762
2.702000,-0.566258
2.703000,-0.734272
2.704000,-0.969745
2.705000,-1.784357
2.706000,-2.471685
2.707000,-2.666428
2.708000,-2.532781
2.709000,-1.756354
2.710000,-0.176772
2.711000,0.525830
2.712000,-0.343513
2.713000,-1.443238
2.714000,-2.199299
2.715000,-3.444127
2.716000,-3.254475
2.717000,-2.416953
2.718000,-2.153477
2.719000,-2.173843
2.720000,-2.182752
2.721000,-2.121657
2.722000,-2.024921
2.723000,-2.209482
2.724000,-2.584967
2.725000,-2.712250
2.726000,-3.363939
2.727000,-3.128465
2.728000,-2.405498
2.729000,-1.621434
2.730000,-1.545065
2.731000,-1.301954
2.732000,-1.336320
2.733000,-0.290054
2.734000,2.792740
2.735000,3.495342
2.736000,2.176690
2.737000,-0.091493
2.738000,-1.617616
2.739000,-2.863716
2.740000,-3.306661
2.741000,-2.242575
2.742000,-1.830178
2.743000,-2.274396
2.744000,-2.643517
2.745000,-2.741525
2.746000,-2.542963
2.747000,-2.530235
2.748000,-2.788619
2.749000,-2.956633
2.750000,-2.983362
2.751000,-2.675338
2.752000,-2.707158
2.753000,-2.331673
2.754000,-1.988009
2.755000,-2.164933
2.756000,-1.932005
2.757000,-1.332502
2.758000,-1.020659
2.759000,-0.971018
2.760000,-1.056298
2.761000,-1.044842
2.762000,-1.192491
2.763000,-0.725362
2.764000,-0.521709
2.765000,-0.941743
2.766000,-0.276053
2.767000,-0.155134
2.768000,-0.409700
2.769000,-0.806823
2.770000,-1.197582
2.771000,-1.345230
2.772000,-1.713078
2.773000,-1.808540
2.774000,-1.771628
2.775000,-1.397416
2.776000,-0.360060
2.777000,-0.673176
2.778000,-1.146669
2.779000,-1.893820
2.780000,-2.408043
2.781000,-2.241303
2.782000,-2.156023
2.783000,-2.120384
2.784000,-1.877273
2.785000,-1.677439
2.786000,-1.377051
2.787000,-0.650265
2.788000,1.661194
2.789000,3.186044
2.790000,3.151678
2.791000,2.064681
2.792000,0.772759
2.793000,-1.268860
2.794000,-2.975725
2.795000,-3.890890
2.796000,-3.782700
2.797000,-2.956633
2.798000,-2.416953
2.799000,-2.140749
2.800000,-2.502233
2.801000,-2.313854
2.802000,-2.730069
2.803000,-2.842078
2.804000,-1.653255
2.805000,-1.293044
2.806000,-1.523426
2.807000,-1.200128
2.808000,-1.536155
2.809000,-2.108928
2.810000,-2.474230
2.811000,-2.976998
2.812000,-3.514133
2.813000,-3.584138
2.814000,-3.216290
2.815000,-2.815349
2.816000,-1.315955
2.817000,-0.190773
2.818000,0.613655
2.819000,0.505465
2.820000,-0.678267
2.821000,-1.872182
2.822000,-2.815349
2.823000,-2.834441
2.824000,-2.616787
2.825000,-2.023649
2.826000,-0.113131
2.827000,-0.185682
2.828000,-0.164044
2.829000,-0.690996
2.830000,-1.242131
2.831000,-1.932005
2.832000,-2.401679
2.833000,-2.486959
2.834000,-2.259122
2.835000,-2.376223
2.836000,-2.415680
2.837000,-2.298580
2.838000,-2.302398
2.839000,-1.772901
2.840000,-0.601898
2.841000,-0.259506
2.842000,-0.766093
2.843000,-1.004112
2.844000,-1.406326
2.845000,-1.966371
2.846000,-1.565430
2.847000,-0.754637
2.848000,-0.595533
2.849000,-0.800459
2.850000,-1.458512
2.851000,-2.107655
2.852000,-1.781811
2.853000,-1.043570
2.854000,-0.782639
2.855000,-0.543347
2.856000,-0.731726
2.857000,-1.062662
2.858000,-0.071127
2.859000,0.068884
2.860000,-0.442794
2.861000,-1.410145
2.862000,-2.633334
2.863000,-3.515405
2.864000,-3.796701
2.865000,-3.960896
2.866000,-3.481039
2.867000,-2.619333
2.868000,-2.336765
2.869000,-2.124202
2.870000,-1.946006
2.871000,-1.573067
2.872000,-0.575168
2.873000,-0.382971
2.874000,-0.534438
2.875000,-0.820824
2.876000,-1.186127
2.877000,-0.862828
2.878000,-0.516618
2.879000,0.450733
2.880000,1.493181
2.881000,1.882667
2.882000,3.001484
2.883000,1.941217
2.884000,0.522011
2.885000,-1.188672
2.886000,-1.579431
2.887000,-2.525144
2.888000,-3.290114
2.889000,-4.344018
2.890000,-4.972796
2.891000,-5.024982
2.892000,-5.004616
2.893000,-3.999081
2.894000,-3.342301
2.895000,-3.293933
2.896000,-2.862444
2.897000,-2.537872
2.898000,-2.052924
2.899000,-1.707987
2.900000,-1.840361
2.901000,-1.855635
2.902000,-1.781811
2.903000,-1.538700
2.904000,-1.220493
2.905000,-1.183581
2.906000,-1.527245
2.907000,-1.452148
2.908000,-1.673620
2.909000,-0.990111
2.910000,-0.264598
2.911000,0.912770
2.912000,3.539891
2.913000,4.630707
2.914000,2.921296
2.915000,0.193621
2.916000,-2.223483
2.917000,-3.936712
2.918000,-4.739868
2.919000,-5.055530
2.920000,-4.682590
2.921000,-3.811975
2.922000,-2.920994
2.923000,-2.327855
2.924000,-1.982918
2.925000,-1.752536
2.926000,-1.732171
2.927000,-1.720715
2.928000,-1.802176
2.929000,-2.254031
2.930000,-2.490777
2.931000,-2.643517
2.932000,-2.304944
2.933000,-1.579431
2.934000,-0.827188
2.935000,-0.493707
2.936000,-0.046944
2.937000,0.124888
2.938000,0.789306
2.939000,1.068055
2.940000,1.272981
2.941000,0.864403
2.942000,0.634020
2.943000,0.996777
2.944000,0.593290
2.945000,-0.491161
2.946000,-1.536155
2.947000,-2.307490
2.948000,-3.328299
2.949000,-4.091997
2.950000,-3.773790
2.951000,-3.103008
2.952000,-2.798802
2.953000,-2.217119
2.954000,-1.588341
2.955000,-1.053752
2.956000,-1.196309
2.957000,-1.351594
2.958000,-1.786902
2.959000,-2.240030
2.960000,-2.868808
2.961000,-3.328299
2.962000,-3.385577
2.963000,-2.621879
2.964000,-2.142022
2.965000,-1.791994
2.966000,-1.632890
2.967000,-0.225140
2.968000,2.487261
2.969000,1.890304
2.970000,1.008232
2.971000,-0.049489
2.972000,-1.695259
2.973000,-3.184470
2.974000,-3.963442
2.975000,-4.326198
2.976000,-3.717785
2.977000,-2.756799
2.978000,-2.354584
2.979000,-2.152204
2.980000,-1.552702
2.981000,-1.371960
2.982000,-0.455522
2.983000,0.297993
2.984000,0.973866
2.985000,0.785487
2.986000,-0.192046
2.987000,-1.193763
2.988000,-1.905275
2.989000,-2.410589
2.990000,-2.713522
2.991000,-2.862444
2.992000,-3.194652
2.993000,-2.998636
2.994000,-2.411862
2.995000,-1.541246
2.996000,-0.507708
2.997000,1.154608
2.998000,1.274254
2.999000,0.631475
3.000000,-0.726635
3.001000,-1.918004
3.002000,-2.933722
3.003000,-3.356302
3.004000,-3.253202
3.005000,-2.952815
3.006000,-2.922267
3.007000,-2.787347
3.008000,-3.003728
3.009000,-2.587512
3.010000,-2.163660
3.011000,-1.724534
3.012000,-0.875556
3.013000,-0.786458
3.014000,-0.992656
3.015000,-1.263769
3.016000,-1.216674
3.017000,-1.510698
3.018000,-1.827633
3.019000,-1.721988
3.020000,-1.328683
3.021000,-0.908650
3.022000,0.261081
3.023000,0.798215
3.024000,0.844037
3.025000,0.448187
3.026000,-0.258233
3.027000,-0.450431
3.028000,-0.380425
3.029000,-0.143679
3.030000,-0.469523
3.031000,-1.219220
3.032000,-1.387234
3.033000,-0.990111
3.034000,-1.490333
3.035000,-2.367313
3.036000,-2.549327
3.037000,-2.802621
3.038000,-3.320662
3.039000,-3.708876
3.040000,-3.534498
3.041000,-2.836987
3.042000,-2.100018
3.043000,-1.514517
3.044000,-1.641800
3.045000,-2.080926
3.046000,-2.144567
3.047000,-2.414407
3.048000,-2.511143
3.049000,-2.488232
3.050000,-2.162387
3.051000,-1.039751
3.052000,0.140162
3.053000,0.733301
3.054000,1.713380
3.055000,1.985766
3.056000,0.864403
3.057000,-0.799186
3.058000,-1.893820
3.059000,-2.420772
3.060000,-2.178934
3.061000,-2.406770
3.062000,-2.527689
3.063000,-2.373677
3.064000,-2.120384
3.065000,-2.129294
3.066000,-2.350766
3.067000,-3.024093
3.068000,-3.454310
3.069000,-3.671963
3.070000,-3.570137
3.071000,-2.919721
3.072000,-2.432227
3.073000,-2.301126
3.074000,-2.201845
3.075000,-2.385132
3.076000,-2.200572
3.077000,-1.817450
3.078000,-0.113131
3.079000,0.922953
3.080000,2.447803
3.081000,3.229321
3.082000,2.484715
3.083000,0.977684
3.084000,-0.239141
3.085000,-0.782639
3.086000,-1.763991
3.087000,-2.476776
3.088000,-2.852261
3.089000,-3.237928
3.090000,-3.491222
3.091000,-3.421216
3.092000,-3.062278
3.093000,-2.677883
3.094000,-2.624424
3.095000,-2.250212
3.096000,-1.441965
3.097000,-0.762274
3.098000,-0.360060
3.099000,-0.470796
3.100000,-0.766093
3.101000,-1.025750
3.102000,-1.174671
3.103000,-1.338866
3.104000,-1.328683
3.105000,-1.626526
3.106000,-1.795812
3.107000,-2.040195
3.108000,-2.322764
3.109000,-2.217119
3.110000,-2.046560
3.111000,-1.145396
3.112000,0.653113
3.113000,0.574197
3.114000,-0.200956
3.115000,-1.486514
3.116000,-2.689339
3.117000,-3.600685
3.118000,-3.696147
3.119000,-3.017729
3.120000,-2.364767
3.121000,-1.797085
3.122000,-1.532336
3.123000,-1.573067
3.124000,-1.421600
3.125000,-1.167034
3.126000,-0.839917
3.127000,-0.321875
3.128000,0.794397
3.129000,1.038780
3.130000,0.855493
3.131000,0.440550
3.132000,1.957764
3.133000,1.462633
3.134000,0.035790
3.135000,-2.082199
3.136000,-3.666872
3.137000,-4.802236
3.138000,-4.168367
3.139000,-2.343129
3.140000,-2.402952
3.141000,-2.353312
3.142000,-2.070743
3.143000,-2.136931
3.144000,-2.307490
3.145000,-2.792438
3.146000,-2.943905
3.147000,-2.516234
3.148000,-0.636264
3.149000,-0.026578
3.150000,-0.144952
3.151000,-0.697360
3.152000,-1.286680
3.153000,-1.504334
3.154000,-1.410145
3.155000,-0.862828
3.156000,-0.836098
3.157000,-1.841634
3.158000,-2.451320
3.159000,-2.670246
3.160000,-2.563329
3.161000,-2.810258
3.162000,-3.013910
3.163000,-2.905720
3.164000,-2.833169
3.165000,-2.503506
3.166000,-2.129294
3.167000,-1.649437
3.168000,-1.142850
3.169000,-1.137759
3.170000,-1.186127
3.171000,-0.996475
3.172000,-1.489060
3.173000,-1.975281
3.174000,-2.145840
3.175000,-2.136931
3.176000,-2.242575
3.177000,-1.518335
3.178000,-0.964654
3.179000,-1.032114
3.180000,-1.070299
3.181000,-0.475887
3.182000,0.160528
3.183000,0.406184
3.184000,0.341269
3.185000,0.073975
3.186000,-1.155579
3.187000,-2.546782
3.188000,-3.279932
3.189000,-2.938813
3.190000,-2.068198
3.191000,-1.912912
3.192000,-1.646891
3.193000,-1.121212
3.194000,0.380727
3.195000,1.041326
3.196000,0.975139
3.197000,0.422731
3.198000,-0.535710
3.199000,-0.930288
3.200000,-1.659619
3.201000,-2.213300
3.202000,-2.735161
3.203000,-3.366484
3.204000,-3.960896
3.205000,-4.154366
3.206000,-3.796701
3.207000,-2.839533
3.208000,-2.153477
3.209000,-1.861999
3.210000,-1.444511
3.211000,-0.945562
3.212000,-0.585351
3.213000,-0.470796
3.214000,-0.200956
3.215000,0.819854
3.216000,1.421902
3.217000,0.607291
3.218000,-0.581532
3.219000,-1.587068
3.220000,-2.240030
3.221000,-1.844180
3.222000,-2.540418
3.223000,-3.286296
3.224000,-3.230291
3.225000,-3.309207
3.226000,-3.269749
3.227000,-3.271022
3.228000,-2.484413
3.229000,-1.776720
3.230000,-1.156851
3.231000,-0.398245
3.232000,0.462188
3.233000,0.119797
3.234000,-0.167863
3.235000,-0.048216
3.236000,0.816035
3.237000,2.920023
3.238000,2.377797
3.239000,0.819854
3.240000,-0.979928
3.241000,-2.819167
3.242000,-3.509041
3.243000,-3.864161
3.244000,-4.247283
3.245000,-4.494212
3.246000,-4.318561
3.247000,-3.817066
3.248000,-1.869636
3.249000,0.691298
3.250000,0.963683
3.251000,0.178347
3.252000,-1.146669
3.253000,-2.327855
3.254000,-3.151376
3.255000,-3.539589
3.256000,-3.351210
3.257000,-3.003728
3.258000,-2.672792
3.259000,-0.591715
3.260000,0.063793
3.261000,-0.762274
3.262000,-0.904831
3.263000,-1.351594
3.264000,-1.966371
3.265000,-2.520052
3.266000,-2.653699
3.267000,-2.973180
3.268000,-3.509041
3.269000,-3.851432
3.270000,-3.033003
3.271000,-2.110201
3.272000,-1.779265
3.273000,-1.963826
3.274000,-1.659619
3.275000,-1.635435
3.276000,-1.797085
3.277000,-1.112302
3.278000,-1.149214
3.279000,-1.183581
3.280000,-0.862828
3.281000,-0.601898
3.282000,-0.440248
3.283000,-0.668085
3.284000,-0.242959
3.285000,-0.517891
3.286000,-0.949380
3.287000,-1.086846
3.288000,-1.099574
3.289000,-1.408872
3.290000,-0.899740
3.291000,-0.548439
3.292000,-0.468250
3.293000,-0.452976
3.294000,-0.811914
3.295000,-0.674449
3.296000,0.397274
3.297000,0.812217
3.298000,0.944591
3.299000,0.637839
3.300000,-0.226413
3.301000,-0.716452
3.302000,-1.338866
3.303000,-2.231120
3.304000,-2.502233
3.305000,-2.531508
3.306000,-2.801348
3.307000,-3.142466
3.308000,-2.928631
3.309000,-1.807268
3.310000,-1.821269
3.311000,-1.632890
3.312000,-1.853089
3.313000,-2.298580
3.314000,-2.596422
3.315000,-2.228574
3.316000,-1.718169
3.317000,-1.655801
3.318000,-2.198026
3.319000,-2.746616
3.320000,-1.015567
3.321000,1.000595
3.322000,2.393071
3.323000,1.280618
3.324000,-0.553530
3.325000,-2.089836
3.326000,-3.017729
3.327000,-3.586684
3.328000,-3.819612
3.329000,-3.745788
3.330000,-3.523042
3.331000,-3.333391
3.332000,-3.629960
3.333000,-3.832340
3.334000,-3.543408
3.335000,-2.894264
3.336000,-1.811086
3.337000,-1.648164
3.338000,-1.458512
3.339000,-1.327411
3.340000,-0.982474
3.341000,-0.823370
3.342000,-0.666812
3.343000,-0.480979
3.344000,-0.346059
3.345000,-0.409700
3.346000,-0.633718
3.347000,-0.946834
3.348000,-0.503890
3.349000,0.039609
3.350000,0.410002
3.351000,0.578016
3.352000,0.392183
3.353000,0.301812
3.354000,-0.827188
3.355000,-0.786458
3.356000,-0.609535
3.357000,1.896668
3.358000,3.128767
3.359000,1.771930
3.360000,-0.237868
3.361000,-1.286680
3.362000,-3.179378
3.363000,-4.603675
3.364000,-5.415741
3.365000,-5.895597
3.366000,-6.124707
3.367000,-6.198531
3.368000,-5.277002
3.369000,-3.967260
3.370000,-3.162831
3.371000,-1.784357
3.372000,-1.173398
3.373000,-0.867919
3.374000,-0.604443
3.375000,-0.904831
3.376000,-1.672348
3.377000,-2.110201
3.378000,-2.252758
3.379000,-2.255304
3.380000,-1.952370
3.381000,-2.162387
3.382000,-2.259122
3.383000,-2.201845
3.384000,-1.882365
3.385000,-1.842907
3.386000,-1.743626
3.387000,-1.496697
3.388000,-0.999020
3.389000,-0.657902
3.390000,-0.256961
3.391000,0.121070
3.392000,0.143981
3.393000,0.210168
3.394000,0.991686
3.395000,1.069328
3.396000,0.795670
3.397000,0.184711
3.398000,-0.598079
3.399000,-0.676995
3.400000,-1.427964
3.401000,-2.004556
3.402000,-2.427136
3.403000,-2.625697
3.404000,-2.301126
3.405000,-2.028740
3.406000,-2.012193
3.407000,-1.495424
3.408000,-0.890830
3.409000,-1.114848
3.410000,-1.276497
3.411000,-1.751263
3.412000,-1.674893
3.413000,-1.779265
3.414000,-1.723261
3.415000,-1.099574
3.416000,-0.572622
3.417000,2.361251
3.418000,4.009565
3.419000,2.320520
3.420000,-0.417337
3.421000,-2.475503
3.422000,-3.791609
3.423000,-3.906164
3.424000,-3.591775
3.425000,-3.355029
3.426000,-2.854807
3.427000,-3.026639
3.428000,-2.882809
3.429000,-1.439420
3.430000,-1.361777
3.431000,-2.283306
3.432000,-3.547226
3.433000,-4.174731
3.434000,-4.174731
3.435000,-3.204835
3.436000,-2.712250
3.437000,-1.753809
3.438000,-1.047388
3.439000,-0.612080
3.440000,-0.662993
3.441000,-1.263769
3.442000,-1.653255
3.443000,-1.830178
3.444000,-1.732171
3.445000,-1.637981
3.446000,-1.104665
3.447000,-1.217947
3.448000,-1.123758
3.449000,-1.489060
3.450000,-1.467422
3.451000,-0.489889
3.452000,-0.160226
3.453000,0.407457
3.454000,1.647193
3.455000,2.395617
3.456000,1.523729
3.457000,-0.680813
3.458000,-2.871353
3.459000,-4.225645
3.460000,-4.324925
3.461000,-3.450491
3.462000,-3.245565
3.463000,-2.788619
3.464000,-1.542519
3.465000,-0.156407
3.466000,0.165619
3.467000,-0.231504
3.468000,-0.675722
3.469000,-1.466149
3.470000,-2.560783
3.471000,-3.161559
3.472000,-3.258294
3.473000,-2.461502
3.474000,-2.035104
3.475000,-2.234938
3.476000,-1.928186
3.477000,-2.116565
3.478000,-2.718614
3.479000,-2.797529
3.480000,-2.614242
3.481000,-2.233666
3.482000,-1.979100
3.483000,-1.555247
3.484000,-0.957017
3.485000,0.001424
3.486000,0.370545
3.487000,0.140162
3.488000,-0.771184
3.489000,-1.242131
3.490000,-1.322319
3.491000,-1.237040
3.492000,-1.258678
3.493000,-1.398689
3.494000,-1.594705
3.495000,-1.944733
3.496000,-1.749990
3.497000,-1.077936
3.498000,-0.806823
3.499000,-0.797913
3.500000,-1.081754
3.501000,-1.088119
3.502000,-1.122485
3.503000,-1.312137
3.504000,-1.612525
3.505000,-1.648164
3.506000,-1.529791
3.507000,-1.677439
3.508000,-2.028740
3.509000,-1.918004
3.510000,-1.285407
3.511000,0.040882
3.512000,0.618746
3.513000,0.579289
3.514000,0.732028
3.515000,0.888586
3.516000,0.407457
3.517000,-0.996475
3.518000,-2.120384
3.519000,-3.096644
3.520000,-3.530679
3.521000,-3.301570
3.522000,-3.024093
3.523000,-3.202289
3.524000,-2.839533
3.525000,-1.766537
3.526000,-0.436430
3.527000,1.112604
3.528000,1.014597
3.529000,-0.277326
3.530000,-1.506880
3.531000,-2.732615
3.532000,-2.713522
3.533000,-1.145396
3.534000,-0.034215
3.535000,-0.498798
3.536000,-2.232393
3.537000,-2.885355
3.538000,-3.148830
3.539000,-3.255748
3.540000,-2.946450
3.541000,-1.906548
3.542000,-1.758900
3.543000,-1.370687
3.544000,-1.794539
3.545000,-2.405498
3.546000,-3.034276
3.547000,-3.113191
3.548000,-3.384304
3.549000,-3.375394
3.550000,-3.097917
3.551000,-2.828077
3.552000,-2.965543
3.553000,-2.681702
3.554000,-2.312581
3.555000,-1.850544
3.556000,-1.100847
3.557000,-0.032943
3.558000,0.583107
3.559000,-0.362606
3.560000,-1.410145
3.561000,-1.886183
3.562000,-2.630789
3.563000,-2.749162
3.564000,-2.548055
3.565000,-2.189117
3.566000,-2.285852
3.567000,-1.721988
3.568000,-0.077492
3.569000,1.057873
3.570000,1.158426
3.571000,0.718027
3.572000,-0.099130
3.573000,-0.589169
3.574000,-0.875556
3.575000,-0.651538
3.576000,-0.281144
3.577000,-0.778821
3.578000,-1.058844
3.579000,-0.996475
3.580000,-0.780094
3.581000,-0.506435
3.582000,0.482554
3.583000,0.303085
3.584000,0.003970
3.585000,-0.424974
3.586000,-0.465705
3.587000,-1.243404
3.588000,-1.979100
3.589000,-2.227301
3.590000,-1.033387
3.591000,0.333632
3.592000,-0.368970
3.593000,-1.441965
3.594000,-1.690167
3.595000,-2.611696
3.596000,-3.498859
3.597000,-4.029629
3.598000,-4.084360
3.599000,-3.809429
3.600000,-3.705057
3.601000,-3.167923
3.602000,-2.975725
3.603000,-2.887900
3.604000,-1.636708
3.605000,-0.148770
3.606000,0.015425
3.607000,-0.195865
3.608000,-0.552257
3.609000,-1.553974
3.610000,-1.719442
3.611000,-1.174671
3.612000,-0.394426
3.613000,-1.121212
3.614000,-2.176388
3.615000,-3.355029
3.616000,-4.190005
3.617000,-3.761062
3.618000,-2.955360
3.619000,-1.468695
3.620000,0.786760
3.621000,1.363352
3.622000,0.543649
3.623000,-0.606989
3.624000,-1.795812
3.625000,-2.811530
3.626000,-2.105110
3.627000,-1.636708
3.628000,-0.874283
3.629000,-0.949380
3.630000,-1.511971
3.631000,-1.890001
3.632000,-2.327855
3.633000,-2.549327
3.634000,-3.024093
3.635000,-3.470856
3.636000,-3.311753
3.637000,-3.111918
3.638000,-3.041913
3.639000,-2.367313
3.640000,-1.360504
3.641000,-0.935379
3.642000,-0.817006
3.643000,-0.645174
3.644000,-0.456795
3.645000,-0.710088
3.646000,-1.181035
3.647000,-1.020659
3.648000,-0.638810
3.649000,-0.516618
3.650000,-0.309147
3.651000,-0.617172
3.652000,-1.229403
3.653000,-1.396143
3.654000,-1.089391
3.655000,0.331087
3.656000,0.357816
3.657000,-0.302782
3.658000,-1.286680
3.659000,-2.213300
3.660000,-2.716068
3.661000,-2.782255
3.662000,-2.293489
3.663000,-1.911640
3.664000,-1.555247
3.665000,-1.514517
3.666000,-2.280760
3.667000,-2.265486
3.668000,-2.036377
3.669000,-1.896366
3.670000,-1.648164
3.671000,-1.258678
3.672000,-0.846281
3.673000,-0.179318
3.674000,0.833855
3.675000,0.474917
3.676000,0.236897
3.677000,1.037507
3.678000,0.707845
3.679000,-0.517891
3.680000,-0.747000
3.681000,-1.962553
3.682000,-2.970634
3.683000,-3.430126
3.684000,-3.192107
3.685000,-2.948996
3.686000,-3.509041
3.687000,-3.901073
3.688000,-3.203562
3.689000,-2.499687
3.690000,-1.846725
3.691000,-1.350322
3.692000,-1.480150
3.693000,-0.893376
3.694000,-0.648992
3.695000,-0.506435
3.696000,-0.781367
3.697000,-1.412690
3.698000,-2.539145
3.699000,-3.136102
3.700000,-2.161114
3.701000,-0.755910
3.702000,-0.519164
3.703000,-0.982474
3.704000,-1.625253
3.705000,-2.293489
3.706000,-2.360949
3.707000,-1.930732
3.708000,-0.785185
3.709000,0.508010
3.710000,-0.183136
3.711000,-1.523426
3.712000,-2.405498
3.713000,-2.961724
3.714000,-3.741969
3.715000,-4.065268
3.716000,-4.256192
3.717000,-3.888345
3.718000,-3.314298
3.719000,-2.457684
3.720000,-1.155579
3.721000,0.468552
3.722000,1.239887
3.723000,1.446086
3.724000,0.771486
3.725000,0.748575
3.726000,1.521183
3.727000,1.370989
3.728000,-0.564985
3.729000,-2.494596
3.730000,-3.617232
3.731000,-4.397477
3.732000,-4.266375
3.733000,-3.226473
3.734000,-2.220937
3.735000,-1.730898
3.736000,-0.965927
3.737000,-0.817006
3.738000,-1.042297
3.739000,-1.015567
3.740000,-1.543792
3.741000,-1.685076
3.742000,-1.290499
3.743000,-1.193763
3.744000,-1.139032
3.745000,-0.787731
3.746000,-0.148770
3.747000,0.514374
3.748000,0.199985
3.749000,-0.444067
3.750000,-1.471240
3.751000,-2.049105
3.752000,-1.847998
3.753000,-1.122485
3.754000,-0.867919
3.755000,-0.908650
3.756000,-0.758456
3.757000,-0.592988
3.758000,-0.670630
3.759000,-1.084300
3.760000,-1.786902
3.761000,-2.597695
3.762000,-3.133556
3.763000,-2.534053
3.764000,-1.988009
3.765000,-0.441521
3.766000,0.422731
3.767000,-0.431338
3.768000,-0.781367
3.769000,-1.252314
3.770000,-2.270578
3.771000,-3.409760
3.772000,-3.907437
3.773000,-3.054641
3.774000,-2.005829
3.775000,-1.158124
3.776000,0.257263
3.777000,-0.312965
3.778000,-2.033831
3.779000,-2.639698
3.780000,-2.940086
3.781000,-2.689339
3.782000,-2.406770
3.783000,-2.392769
3.784000,-2.031286
3.785000,-2.128021
3.786000,-1.865818
3.787000,-1.850544
3.788000,-1.663438
3.789000,-2.189117
3.790000,-2.630789
3.791000,-2.394042
3.792000,-2.033831
3.793000,-1.791994
3.794000,-0.661721
3.795000,-0.351150
3.796000,-0.506435
3.797000,-0.986292
3.798000,-1.377051
3.799000,-1.569248
3.800000,-1.926914
3.801000,-2.694430
3.802000,-2.282033
3.803000,-1.650709
3.804000,-1.383415
3.805000,-1.366868
3.806000,-1.477605
3.807000,-1.463603
3.808000,-1.128849
3.809000,-1.081754
3.810000,-0.880647
3.811000,-0.615899
3.812000,-1.205219
3.813000,-1.943460
3.814000,-2.140749
3.815000,-2.329128
3.816000,-2.124202
3.817000,-1.868363
3.818000,-1.125031
3.819000,-0.404609
3.820000,0.090522
3.821000,0.196167
3.822000,-0.348604
3.823000,-1.014294
3.824000,-1.672348
3.825000,-2.293489
3.826000,-1.972735
3.827000,-1.646891
3.828000,-1.640527
3.829000,-1.453421
3.830000,-1.304500
3.831000,-1.230676
3.832000,-1.396143
3.833000,-1.066480
3.834000,-1.010476
3.835000,-0.703724
3.836000,-0.763547
3.837000,-1.426691
3.838000,-2.080926
3.839000,-2.761890
3.840000,-2.760617
3.841000,-1.966371
3.842000,-1.005385
3.843000,0.527103
3.844000,2.475805
3.845000,2.848745
3.846000,1.480452
3.847000,0.492736
3.848000,1.775749
3.849000,1.414265
3.850000,0.192348
3.851000,-0.484797
3.852000,-1.527245
3.853000,-3.207381
3.854000,-4.860787
3.855000,-5.910871
3.856000,-5.774679
3.857000,-5.975786
3.858000,-5.942692
3.859000,-5.266819
3.860000,-4.475119
3.861000,-4.116181
3.862000,-3.174287
3.863000,-1.733443
3.864000,-0.878102
3.865000,-0.282417
3.866000,0.023062
3.867000,-0.475887
3.868000,-0.702451
3.869000,-0.533165
3.870000,-1.081754
3.871000,-1.214129
3.872000,-1.431783
3.873000,-2.115292
3.874000,-2.817895
3.875000,-3.282477
3.876000,-3.095371
3.877000,-2.934995
3.878000,-2.760617
3.879000,-2.861171
3.880000,-2.499687
3.881000,-0.171681
3.882000,0.599654
3.883000,0.397274
3.884000,0.201258
3.885000,-0.591715
3.886000,-0.917559
3.887000,-1.108484
3.888000,-1.203946
3.889000,-1.228130
3.890000,-0.906104
3.891000,-0.842462
3.892000,-0.053308
3.893000,0.250899
3.894000,-0.557348
3.895000,-1.072845
3.896000,-1.447057
3.897000,-1.301954
3.898000,-1.662165
3.899000,-2.667701
3.900000,-3.103008
3.901000,-0.379152
3.902000,1.722290
3.903000,1.468997
3.904000,-0.104221
3.905000,-1.601069
3.906000,-2.041468
3.907000,-1.869636
3.908000,0.208895
3.909000,0.772759
3.910000,0.243262
3.911000,-0.674449
3.912000,-1.489060
3.913000,-2.359676
3.914000,-2.120384
3.915000,-2.685520
3.916000,-3.537043
3.917000,-4.225645
3.918000,-4.704229
3.919000,-4.219280
3.920000,-3.642688
3.921000,-3.230291
3.922000,-3.339755
3.923000,-3.055914
3.924000,-2.783528
3.925000,-2.914630
3.926000,-2.232393
3.927000,-1.982918
3.928000,-1.930732
3.929000,-1.687622
3.930000,0.107069
3.931000,0.959865
3.932000,0.598381
3.933000,0.224169
3.934000,-0.437702
3.935000,-1.440693
3.936000,-2.367313
3.937000,-2.334219
3.938000,-2.140749
3.939000,-2.635880
3.940000,-2.190389
3.941000,-0.822097
3.942000,-0.683359
3.943000,-0.530619
3.944000,-0.120768
3.945000,0.859311
3.946000,1.448632
3.947000,1.186429
3.948000,1.060418
3.949000,0.482554
3.950000,-0.981201
3.951000,-2.100018
3.952000,-2.834441
3.953000,-3.045731
3.954000,-3.474675
3.955000,-4.035993
3.956000,-3.501404
3.957000,-1.186127
3.958000,0.163073
3.959000,0.278901
3.960000,-0.469523
3.961000,-0.916287
3.962000,-1.262496
3.963000,-1.816177
3.964000,-2.153477
3.965000,-2.283306
3.966000,-1.974008
3.967000,-1.960007
3.968000,-0.789004
3.969000,-0.554803
3.970000,-1.486514
3.971000,-2.651154
3.972000,-3.635051
3.973000,-4.328744
3.974000,-4.103453
3.975000,-2.466593
3.976000,-0.455522
3.977000,-0.712634
3.978000,-1.015567
3.979000,-1.826360
3.980000,-2.442410
3.981000,-2.660064
3.982000,-2.100018
3.983000,-1.243404
3.984000,-1.459785
3.985000,-2.369858
3.986000,-2.470412
3.987000,-2.480595
3.988000,-2.866262
3.989000,-2.620606
3.990000,-1.249768
3.991000,-0.232777
3.992000,-0.052035
3.993000,-0.048216
3.994000,0.098159
3.995000,-0.213684
3.996000,-0.716452
3.997000,-0.786458
3.998000,-0.512799
3.999000,-0.622263
4.000000,-1.158124
4.001000,-0.972291
4.002000,-0.800459
4.003000,-0.940470
4.004000,-1.308318
4.005000,-1.355413
4.006000,0.118524
4.007000,0.933135
4.008000,2.477078
4.009000,2.227604
4.010000,0.420185
4.011000,-1.413963
4.012000,-2.937541
4.013000,-3.440308
4.014000,-3.679600
4.015000,-4.611312
4.016000,-5.461562
4.017000,-5.275729
4.018000,-4.473846
4.019000,-3.220109
4.020000,-2.176388
4.021000,-0.169135
4.022000,0.109614
4.023000,-1.144123
4.024000,-2.517507
4.025000,-3.167923
4.026000,-3.026639
4.027000,-3.008819
4.028000,-2.913357
4.029000,-2.495869
4.030000,-2.334219
4.031000,-1.874728
4.032000,-1.346503
4.033000,-1.205219
4.034000,-1.298136
4.035000,-1.357959
4.036000,-0.801732
4.037000,0.230533
4.038000,0.832582
4.039000,0.915316
4.040000,0.696389
4.041000,0.460915
4.042000,0.343815
4.043000,-0.312965
4.044000,-0.694814
4.045000,-1.415236
4.046000,-2.153477
4.047000,-2.495869
4.048000,-1.436874
4.049000,-0.185682
4.050000,-0.268416
4.051000,-1.095756
4.052000,-1.529791
4.053000,-2.072016
4.054000,-3.015183
4.055000,-3.408488
4.056000,-3.104281
4.057000,-2.840805
4.058000,-2.065652
4.059000,0.216532
4.060000,1.027325
4.061000,0.496555
4.062000,-0.846281
4.063000,-1.472513
4.064000,-1.123758
4.065000,-0.465705
4.066000,-0.423701
4.067000,-0.860282
4.068000,-1.830178
4.069000,-1.932005
4.070000,-1.756354
4.071000,-0.519164
4.072000,-0.716452
4.073000,-2.433500
4.074000,-3.754697
4.075000,-1.380869
4.076000,-1.067753
4.077000,-1.242131
4.078000,-1.682530
4.079000,-3.058459
4.080000,-3.707603
4.081000,-4.428024
4.082000,-4.429297
4.083000,-4.253647
4.084000,-3.762334
4.085000,-3.451764
4.086000,-3.253202
4.087000,-3.053368
4.088000,-2.550600
4.089000,-1.343957
4.090000,-0.133496
4.091000,0.188530
4.092000,0.255990
4.093000,-0.543347
4.094000,-1.445784
4.095000,-2.110201
4.096000,-2.450047
4.097000,-2.228574
4.098000,-1.615070
4.099000,-1.668529
4.100000,-1.631617
4.101000,-1.487787
4.102000,-1.300681
4.103000,-1.424146
4.104000,-1.818723
4.105000,-1.887456
4.106000,-1.002839
4.107000,-0.520436
4.108000,-0.618444
4.109000,-0.409700
4.110000,-0.127132
4.111000,-0.008759
4.112000,-0.287509
4.113000,-0.763547
4.114000,-0.959563
4.115000,-0.890830
4.116000,-0.402063
4.117000,-0.256961
4.118000,-0.278599
4.119000,-0.999020
4.120000,-1.781811
4.121000,-1.830178
4.122000,-2.161114
4.123000,-1.737262
4.124000,0.021789
4.125000,0.392183
4.126000,-0.269689
4.127000,-1.276497
4.128000,-2.038923
4.129000,-2.437318
4.130000,-2.556964
4.131000,-2.688066
4.132000,-2.049105
4.133000,-1.793266
4.134000,-1.981645
4.135000,-1.145396
4.136000,-0.039307
4.137000,1.136788
4.138000,1.887758
4.139000,1.805024
4.140000,0.445642
4.141000,-1.144123
4.142000,-1.429237
4.143000,-2.124202
4.144000,-3.159013
4.145000,-4.536215
4.146000,-5.013526
4.147000,-4.445844
4.148000,-2.633334
4.149000,-1.169580
4.150000,-0.178045
4.151000,0.341269
4.152000,1.013324
4.153000,1.999767
4.154000,2.110503
4.155000,0.712936
4.156000,-1.076663
4.157000,-2.355857
4.158000,-3.431399
4.159000,-3.683419
4.160000,-2.965543
4.161000,-4.242191
4.162000,-5.231180
4.163000,-6.400911
4.164000,-5.791225
4.165000,-3.827249
4.166000,-3.067369
4.167000,-3.043185
4.168000,-3.315571
4.169000,-3.478493
4.170000,-3.226473
4.171000,-2.068198
4.172000,-1.127576
4.173000,-0.846281
4.174000,-1.393598
4.175000,-1.382142
4.176000,-1.206492
4.177000,0.196167
4.178000,1.210612
4.179000,0.914043
4.180000,0.502919
4.181000,0.073975
4.182000,-0.651538
4.183000,-1.548883
4.184000,-1.611252
4.185000,-2.178934
4.186000,-3.171741
4.187000,-4.004172
4.188000,-4.200188
4.189000,-4.027083
4.190000,-3.717785
4.191000,-2.982090
4.192000,-1.707987
4.193000,-0.629900
4.194000,-0.264598
4.195000,-0.010032
4.196000,0.311994
4.197000,0.105796
4.198000,-0.116949
4.199000,-0.390608
4.200000,-0.720271
4.201000,-1.046115
4.202000,-1.237040
4.203000,-0.734272
4.204000,-0.679540
4.205000,-0.264598
4.206000,0.977684
4.207000,1.553004
4.208000,1.519910
4.209000,1.218249
4.210000,0.030699
4.211000,-0.553530
4.212000,-1.411417
4.213000,-2.862444
4.214000,-4.131455
4.215000,-4.332562
4.216000,-3.950713
4.217000,-3.189561
4.218000,-2.324037
4.219000,-1.513244
4.220000,-1.048661
4.221000,-0.893376
4.222000,-1.062662
4.223000,-1.251041
4.224000,-1.399962
4.225000,-1.001566
4.226000,-0.516618
4.227000,-0.212412
4.228000,0.166892
4.229000,1.574642
4.230000,2.822015
4.231000,1.620464
4.232000,0.007788
4.233000,-0.726635
4.234000,-0.839917
4.235000,-0.614626
4.236000,0.025608
4.237000,0.322177
4.238000,-0.218776
4.239000,-1.310864
4.240000,-0.102948
4.241000,0.430368
4.242000,-1.346503
4.243000,-4.316015
4.244000,-6.075066
4.245000,-6.031790
4.246000,-5.851048
4.247000,-6.323268
4.248000,-6.234170
4.249000,-5.931237
4.250000,-5.312641
4.251000,-4.401295
4.252000,-3.875616
4.253000,-3.855251
4.254000,-3.615959
4.255000,-3.250657
4.256000,-2.845897
4.257000,-1.738535
4.258000,-1.585795
4.259000,-0.698633
4.260000,0.443096
4.261000,0.334905
4.262000,-0.633718
4.263000,-1.377051
4.264000,-2.017284
4.265000,-2.368586
4.266000,-1.980372
4.267000,-1.729625
4.268000,-1.752536
4.269000,-1.989282
4.270000,-1.869636
4.271000,-1.161943
4.272000,-0.330785
4.273000,0.241989
4.274000,1.143152
4.275000,1.509727
4.276000,1.448632
4.277000,0.809671
4.278000,-0.096584
4.279000,-0.963381
4.280000,-1.532336
4.281000,-1.749990
4.282000,-2.077107
4.283000,-2.093654
4.284000,-2.252758
4.285000,-2.567147
4.286000,-2.248940
4.287000,-1.637981
4.288000,-1.562884
4.289000,0.551286
4.290000,1.354442
4.291000,0.578016
4.292000,0.616201
4.293000,0.054883
4.294000,-1.103393
4.295000,-2.391497
4.296000,-3.104281
4.297000,-1.785629
4.298000,0.859311
4.299000,1.537730
4.300000,1.317530
4.301000,0.016698
4.302000,-1.760173
4.303000,-3.313025
4.304000,-3.517951
4.305000,-2.810258
4.306000,-2.366040
4.307000,-3.061005
4.308000,-2.922267
4.309000,-1.410145
4.310000,-0.010032
4.311000,-0.794095
4.312000,-1.835270
4.313000,-2.088563
4.314000,-1.611252
4.315000,-2.299853
4.316000,-3.096644
4.317000,-3.472129
4.318000,-3.908710
4.319000,-3.579047
4.320000,-2.815349
4.321000,-2.345675
4.322000,-2.252758
4.323000,-2.119111
4.324000,-1.340139
4.325000,-0.410973
4.326000,-0.409700
4.327000,-0.720271
4.328000,-1.329956
4.329000,-1.921822
4.330000,-2.612969
4.331000,-2.392769
4.332000,-2.080926
4.333000,-1.728352
4.334000,-0.831007
4.335000,0.352725
4.336000,0.332360
4.337000,-0.531892
4.338000,-1.696531
4.339000,-2.301126
4.340000,-2.368586
4.341000,-1.254859
4.342000,-0.608262
4.343000,-1.016840
4.344000,-1.189945
4.345000,-0.870465
4.346000,-0.899740
4.347000,-1.015567
4.348000,-1.307045
4.349000,-1.662165
4.350000,-2.282033
4.351000,-2.637153
4.352000,-2.713522
4.353000,-2.679156
4.354000,-2.672792
4.355000,-2.055469
4.356000,-0.972291
4.357000,-1.298136
4.358000,-2.054197
4.359000,-2.956633
4.360000,-3.327027
4.361000,-3.138648
4.362000,-2.696976
4.363000,-2.397861
4.364000,-1.982918
4.365000,-1.109757
4.366000,-0.729181
4.367000,-0.375334
4.368000,0.887314
4.369000,3.645536
4.370000,3.669720
4.371000,2.451622
4.372000,0.558923
4.373000,0.552559
4.374000,0.880949
4.375000,0.648022
4.376000,0.751121
4.377000,-0.111858
4.378000,-1.149214
4.379000,-2.049105
4.380000,-2.990999
4.381000,-3.231564
4.382000,-2.681702
4.383000,-0.115676
4.384000,2.853836
4.385000,1.281891
4.386000,-1.312137
4.387000,-4.361837
4.388000,-6.498919
4.389000,-7.393718
4.390000,-7.142971
4.391000,-6.784033
4.392000,-6.202349
4.393000,-5.646123
4.394000,-4.565490
4.395000,-3.343573
4.396000,-0.343513
4.397000,2.587814
4.398000,2.955662
4.399000,4.415598
4.400000,2.970936
4.401000,0.369272
4.402000,-2.010920
4.403000,-3.445400
4.404000,-3.781427
4.405000,-3.458128
4.406000,-3.529407
4.407000,-3.892163
4.408000,-3.137375
4.409000,-2.433500
4.410000,-2.341856
4.411000,-2.550600
4.412000,-1.827633
4.413000,-1.179762
4.414000,-0.428793
4.415000,-0.724089
4.416000,-1.720715
4.417000,-2.828077
4.418000,-3.445400
4.419000,-3.100463
4.420000,-2.521325
4.421000,-1.795812
4.422000,-1.967644
4.423000,-1.890001
4.424000,-2.008375
4.425000,-1.985464
4.426000,-1.881092
4.427000,-1.887456
4.428000,-1.779265
4.429000,-1.662165
4.430000,-1.149214
4.431000,-0.554803
4.432000,-0.105494
4.433000,0.123616
4.434000,0.411275
4.435000,0.541104
4.436000,0.263627
4.437000,0.025608
4.438000,-0.184409
4.439000,-0.790276
4.440000,-0.517891
4.441000,1.020961
4.442000,1.799933
4.443000,3.374423
4.444000,3.594623
4.445000,2.963299
4.446000,1.252616
4.447000,-1.258678
4.448000,-3.423762
4.449000,-4.795872
4.450000,-5.882869
4.451000,-5.921054
4.452000,-5.713583
4.453000,-5.297367
4.454000,-4.308378
4.455000,-2.714795
4.456000,-1.809813
4.457000,-0.758456
4.458000,0.155436
4.459000,2.426165
4.460000,2.275971
4.461000,1.132970
4.462000,-0.323148
4.463000,-1.979100
4.464000,-2.759344
4.465000,-2.654972
4.466000,-2.349493
4.467000,-2.593876
4.468000,-0.951926
4.469000,-0.320602
4.470000,-0.218776
4.471000,-0.929015
4.472000,-2.761890
4.473000,-3.225200
4.474000,-2.919721
4.475000,-2.563329
4.476000,-2.098746
4.477000,-2.730069
4.478000,-3.246838
4.479000,-3.637597
4.480000,-4.056358
4.481000,-3.693602
4.482000,-1.911640
4.483000,-0.044398
4.484000,-0.612080
4.485000,-2.256577
4.486000,-2.856079
4.487000,-2.826804
4.488000,-1.949824
4.489000,-2.458956
4.490000,-2.285852
4.491000,-1.827633
4.492000,-2.098746
4.493000,-1.748717
4.494000,-1.147942
4.495000,-0.059672
4.496000,0.947137
4.497000,1.420629
4.498000,1.232250
4.499000,0.612382
4.500000,0.420185
4.501000,0.000151
4.502000,-0.717725
4.503000,-1.499243
4.504000,-2.551873
4.505000,-3.077552
4.506000,-3.095371
4.507000,-3.622323
4.508000,-3.585411
4.509000,-3.061005
4.510000,-2.138203
4.511000,-1.349049
4.512000,-0.913741
4.513000,-1.076663
4.514000,-1.112302
4.515000,-1.280316
4.516000,-1.541246
4.517000,-1.411417
4.518000,0.257263
4.519000,0.536012
4.520000,0.384546
4.521000,0.698935
4.522000,0.954774
4.523000,0.339997
4.524000,-0.491161
4.525000,-1.327411
4.526000,-2.245121
4.527000,-3.041913
4.528000,-3.596867
4.529000,-3.005001
4.530000,-2.792438
4.531000,-2.900628
4.532000,-2.770800
4.533000,-2.969361
4.534000,-2.751707
4.535000,-2.301126
4.536000,-0.244232
4.537000,0.734574
4.538000,0.292902
4.539000,-0.801732
4.540000,-1.305773
4.541000,-1.653255
4.542000,-1.770355
4.543000,-1.777992
4.544000,-1.242131
4.545000,-1.109757
4.546000,-1.860726
4.547000,-1.276497
4.548000,-0.143679
4.549000,-0.694814
4.550000,-0.460613
4.551000,-0.413519
4.552000,0.168165
4.553000,0.071430
4.554000,-1.539973
4.555000,-2.945178
4.556000,-3.660508
4.557000,-3.719058
4.558000,-2.296034
4.559000,0.891132
4.560000,2.738008
4.561000,1.817752
4.562000,0.198713
4.563000,-1.765264
4.564000,-3.043185
4.565000,-3.827249
4.566000,-3.713967
4.567000,-4.184914
4.568000,-4.916791
4.569000,-5.518840
4.570000,-5.800135
4.571000,-5.513748
4.572000,-4.769143
4.573000,-3.561227
4.574000,1.048963
4.575000,4.063024
4.576000,3.630262
4.577000,1.735018
4.578000,0.280174
4.579000,-1.337593
4.580000,-2.507324
4.581000,-3.394487
4.582000,-4.168367
4.583000,-4.967704
4.584000,-4.900244
4.585000,-4.538761
4.586000,-3.799246
4.587000,-3.361393
4.588000,-2.835714
4.589000,-2.567147
4.590000,-1.986737
4.591000,-1.724534
4.592000,-1.287953
4.593000,-0.447885
4.594000,-0.323148
4.595000,-0.027851
4.596000,0.252171
4.597000,0.841492
4.598000,1.111332
4.599000,0.639112
4.600000,0.252171
4.601000,-0.166590
4.602000,-0.699905
4.603000,-0.786458
4.604000,-0.786458
4.605000,-0.469523
4.606000,-0.141133
4.607000,-0.292600
4.608000,-0.044398
4.609000,-0.069855
4.610000,-1.043570
4.611000,-1.525972
4.612000,-1.804722
4.613000,-1.896366
4.614000,-1.560339
4.615000,-0.981201
4.616000,0.231806
4.617000,0.625111
4.618000,1.572096
4.619000,2.337067
4.620000,1.149517
4.621000,-0.926469
4.622000,-2.502233
4.623000,-2.956633
4.624000,-1.967644
4.625000,-2.766981
4.626000,-3.738151
4.627000,-2.092381
4.628000,-1.495424
4.629000,-3.006273
4.630000,-3.688510
4.631000,-4.167094
4.632000,-3.962169
4.633000,-2.037650
4.634000,1.014597
4.635000,2.186873
4.636000,1.597553
4.637000,2.484715
4.638000,0.323450
4.639000,-1.984191
4.640000,-4.720775
4.641000,-6.094159
4.642000,-5.894325
4.643000,-6.104342
4.644000,-6.852766
4.645000,-6.743302
4.646000,-6.052156
4.647000,-4.850604
4.648000,-3.092826
4.649000,-1.466149
4.650000,-0.259506
4.651000,1.029871
4.652000,1.432085
4.653000,1.197884
4.654000,-0.143679
4.655000,-1.307045
4.656000,-2.268032
4.657000,-2.693157
4.658000,-2.480595
4.659000,-2.842078
4.660000,-2.539145
4.661000,-2.220937
4.662000,-2.416953
4.663000,-1.673620
4.664000,-1.401235
4.665000,-1.142850
4.666000,-0.592988
4.667000,-0.661721
4.668000,-0.990111
4.669000,-1.133940
4.670000,-0.595533
4.671000,0.052337
4.672000,0.500373
4.673000,0.401092
4.674000,0.019243
4.675000,-0.516618
4.676000,-0.057126
4.677000,0.452006
4.678000,-0.017669
4.679000,-0.795368
4.680000,-1.660892
4.681000,-1.986737
4.682000,-2.037650
4.683000,-1.974008
4.684000,-1.518335
4.685000,-1.285407
4.686000,-1.483969
4.687000,-0.822097
4.688000,0.934408
4.689000,1.411719
4.690000,1.494453
4.691000,1.387536
4.692000,0.440550
4.693000,-0.221321
4.694000,-0.727908
4.695000,-1.262496
4.696000,-1.756354
4.697000,-2.922267
4.698000,-3.590502
4.699000,-3.080098
4.700000,-2.456411
4.701000,-2.254031
4.702000,-2.359676
4.703000,-1.867091
4.704000,-0.678267
4.705000,1.224613
4.706000,1.122787
4.707000,-0.469523
4.708000,-1.777992
4.709000,-3.290114
4.710000,-2.763163
4.711000,-2.842078
4.712000,-3.884526
4.713000,-4.865878
4.714000,-5.289730
4.715000,-5.198087
4.716000,-3.907437
4.717000,-3.478493
4.718000,-2.815349
4.719000,-2.425863
4.720000,-2.759344
4.721000,-3.008819
4.722000,-3.245565
4.723000,-2.212027
4.724000,-0.772457
4.725000,0.152891
4.726000,0.211441
4.727000,0.655658
4.728000,-0.263325
4.729000,-1.177217
4.730000,-1.763991
4.731000,-2.285852
4.732000,-2.040195
4.733000,-0.441521
4.734000,1.276800
4.735000,1.755384
4.736000,0.280174
4.737000,-1.151760
4.738000,-2.038923
4.739000,-0.902285
4.740000,0.621292
4.741000,-0.571350
4.742000,-2.186571
4.743000,-3.804338
4.744000,-4.947339
4.745000,-5.397921
4.746000,-4.771689
4.747000,-3.993989
4.748000,-2.994818
4.749000,-1.980372
4.750000,-0.829734
4.751000,-0.073673
4.752000,0.175802
4.753000,-0.292600
4.754000,-0.292600
4.755000,-0.747000
4.756000,-1.317228
4.757000,-1.807268
4.758000,-1.744899
4.759000,-0.656629
4.760000,-0.571350
4.761000,-0.869192
4.762000,-1.257405
4.763000,-1.266315
4.764000,-1.319774
4.765000,-1.131395
4.766000,-0.682086
4.767000,-0.118222
4.768000,-0.747000
4.769000,-1.452148
4.770000,-1.383415
4.771000,-0.913741
4.772000,-1.223039
4.773000,-1.525972
4.774000,-1.765264
4.775000,-1.668529
4.776000,-0.480979
4.777000,-0.692268
4.778000,-0.447885
4.779000,0.001424
4.780000,1.448632
4.781000,0.998050
4.782000,0.516920
4.783000,-0.129678
4.784000,-0.727908
4.785000,-1.352867
4.786000,-1.873455
4.787000,-2.259122
4.788000,-2.800075
4.789000,-3.514133
4.790000,-4.001626
4.791000,-3.846341
4.792000,-3.813248
4.793000,-3.128465
4.794000,-1.088119
4.795000,0.086703
4.796000,0.286538
4.797000,-0.785185
4.798000,-1.253586
4.799000,-0.170408
4.800000,-0.214957
4.801000,-1.270133
4.802000,-0.916287
4.803000,0.145254
4.804000,-0.800459
4.805000,-1.285407
4.806000,-2.616787
4.807000,-3.985080
4.808000,-4.533669
4.809000,-5.010981
4.810000,-5.180267
4.811000,-4.771689
4.812000,-4.160730
4.813000,-3.637597
4.814000,-3.402124
4.815000,-3.338482
4.816000,-3.383031
4.817000,-3.589230
4.818000,-3.375394
4.819000,-2.903174
4.820000,-2.803893
4.821000,-2.778437
4.822000,-1.949824
4.823000,-1.319774
4.824000,-0.974837
4.825000,-0.538256
4.826000,-0.329512
4.827000,-0.078764
4.828000,0.910224
4.829000,1.351896
4.830000,1.615372
4.831000,1.146971
4.832000,0.123616
4.833000,-0.792822
4.834000,-1.085573
4.835000,-0.833553
4.836000,-0.642628
4.837000,-0.913741
4.838000,-0.986292
4.839000,-1.142850
4.840000,-0.898467
4.841000,-1.013022
4.842000,-1.084300
4.843000,-0.718998
4.844000,-0.447885
4.845000,-0.249324
4.846000,-0.164044
4.847000,0.096886
4.848000,-0.326966
4.849000,-0.829734
4.850000,-1.492879
4.851000,-1.965098
4.852000,-2.049105
4.853000,-0.651538
4.854000,0.532194
4.855000,0.243262
4.856000,-0.596806
4.857000,-1.420327
4.858000,-1.485242
4.859000,-0.263325
4.860000,-0.181864
4.861000,-1.175944
4.862000,-2.583694
4.863000,-3.614686
4.864000,-3.464492
4.865000,-2.661336
4.866000,-2.007102
4.867000,-1.828906
4.868000,-2.525144
4.869000,-3.363939
4.870000,-2.175115
4.871000,-1.163216
4.872000,-0.990111
4.873000,-0.971018
4.874000,-1.127576
4.875000,-2.012193
4.876000,-2.606605
4.877000,-3.019002
4.878000,-3.223927
4.879000,-2.311308
4.880000,0.658204
4.881000,2.317974
4.882000,1.239887
4.883000,-0.013850
4.884000,-1.844180
4.885000,-2.900628
4.886000,-3.590502
4.887000,-3.794155
4.888000,-4.541306
4.889000,-5.107716
4.890000,-5.263001
4.891000,-5.047893
4.892000,-2.899356
4.893000,-0.716452
4.894000,-0.001122
4.895000,-0.501344
4.896000,-1.517062
4.897000,-2.222210
4.898000,-2.257849
4.899000,-2.690612
4.900000,-2.920994
4.901000,-2.993545
4.902000,-3.332118
4.903000,-2.881536
4.904000,-1.480150
4.905000,-1.070299
4.906000,-1.020659
4.907000,-0.841190
4.908000,-0.011304
4.909000,0.057428
4.910000,0.637839
4.911000,0.914043
4.912000,1.474088
4.913000,1.076965
4.914000,0.718027
4.915000,0.273809
4.916000,-0.246778
4.917000,-1.342685
4.918000,-2.467866
4.919000,-3.108100
4.920000,-3.203562
4.921000,-2.833169
4.922000,-2.624424
4.923000,-1.601069
4.924000,-0.811914
4.925000,-0.666812
4.926000,-0.808096
4.927000,-0.643901
4.928000,0.110887
4.929000,-0.268416
4.930000,-1.034660
4.931000,-1.553974
4.932000,-1.812359
4.933000,-2.087290
4.934000,-1.900184
4.935000,-0.179318
4.936000,2.847472
4.937000,3.028214
4.938000,1.409174
4.939000,-0.192046
4.940000,-1.892547
4.941000,-3.511587
4.942000,-4.219280
4.943000,-3.576501
4.944000,-2.647335
4.945000,-1.529791
4.946000,-1.914185
4.947000,-2.910811
4.948000,-3.346119
4.949000,-3.622323
4.950000,-3.314298
4.951000,-2.792438
4.952000,-2.532781
4.953000,-2.119111
4.954000,-1.468695
4.955000,-0.902285
4.956000,0.795670
4.957000,1.819025
4.958000,1.624282
4.959000,1.069328
4.960000,-0.603170
4.961000,-1.667256
4.962000,-2.186571
4.963000,-3.647780
4.964000,-4.666044
4.965000,-3.255748
4.966000,-3.218836
4.967000,-3.385577
4.968000,-4.104726
4.969000,-3.856524
4.970000,-2.829350
4.971000,-3.073733
4.972000,-2.817895
4.973000,-2.242575
4.974000,-1.953643
4.975000,-1.006657
4.976000,0.595835
4.977000,0.462188
4.978000,0.053610
4.979000,-0.202229
4.980000,-0.707542
4.981000,-1.643072
4.982000,-3.025366
4.983000,-3.416125
4.984000,-3.245565
4.985000,-3.199744
4.986000,-3.049550
4.987000,-2.339310
4.988000,-1.926914
4.989000,-1.144123
4.990000,-0.211139
4.991000,0.137617
4.992000,-0.189501
4.993000,-0.404609
4.994000,-0.380425
4.995000,-0.284963
4.996000,-0.496253
4.997000,-0.927742
4.998000,-0.908650
4.999000,-0.911195
5.000000,-1.425419
5.001000,-1.522154
5.002000,-1.648164
5.003000,-1.938369
5.004000,-2.467866
5.005000,-2.475503
5.006000,-2.111474
5.007000,-1.939642
5.008000,-1.532336
5.009000,-0.178045
5.010000,0.229260
5.011000,-0.004940
5.012000,-0.552257
5.013000,-0.207320
5.014000,-0.142406
5.015000,-0.407155
5.016000,-0.206047
5.017000,0.434186
5.018000,1.766839
5.019000,3.476250
5.020000,2.792740
5.021000,1.258980
5.022000,-0.731726
5.023000,-3.525588
5.024000,-5.535387
5.025000,-5.885415
5.026000,-5.988514
5.027000,-5.313914
5.028000,-4.622767
5.029000,-2.756799
5.030000,-1.645618
5.031000,-1.943460
5.032000,-2.878990
5.033000,-3.174287
5.034000,-3.351210
5.035000,-2.623152
5.036000,2.725280
5.037000,5.066014
5.038000,3.595896
5.039000,1.150789
5.040000,-0.707542
5.041000,-0.727908
5.042000,-0.492434
5.043000,-1.071572
5.044000,-1.744899
5.045000,-3.081370
5.046000,-3.624869
5.047000,-3.123374
5.048000,-3.035548
5.049000,-3.848887
5.050000,-4.187460
5.051000,-1.970190
5.052000,0.930590
5.053000,1.096058
5.054000,-0.253142
5.055000,-1.676166
5.056000,-2.740252
5.057000,-3.937985
5.058000,-5.072076
5.059000,-5.551933
5.060000,-5.653760
5.061000,-5.712310
5.062000,-5.773406
5.063000,-5.606665
5.064000,-4.716957
5.065000,-3.365211
5.066000,-2.396588
5.067000,-1.937096
5.068000,-1.672348
5.069000,-1.305773
5.070000,-0.949380
5.071000,-0.483524
5.072000,-0.278599
5.073000,0.263627
5.074000,0.673478
5.075000,0.775305
5.076000,0.669660
5.077000,0.752394
5.078000,0.836400
5.079000,1.018415
5.080000,0.816035
5.081000,0.599654
5.082000,0.679842
5.083000,0.412548
5.084000,0.528375
5.085000,0.061247
5.086000,-0.572622
5.087000,-1.402508
5.088000,-1.273952
5.089000,-1.301954
5.090000,-1.767810
5.091000,-0.637537
5.092000,1.087148
5.093000,1.502090
5.094000,0.718027
5.095000,-0.804278
5.096000,-1.933278
5.097000,-2.130566
5.098000,-2.534053
5.099000,-3.002455
5.100000,-2.882809
5.101000,-3.047004
5.102000,-2.717341
5.103000,-2.226029
5.104000,-2.363494
5.105000,-2.159841
5.106000,-1.781811
5.107000,-1.399962
5.108000,-0.968473
5.109000,-1.252314
5.110000,-1.819996
5.111000,-2.049105
5.112000,-2.592604
5.113000,-2.346947
5.114000,-1.785629
5.115000,-1.789448
5.116000,-2.189117
5.117000,-2.264214
5.118000,-1.550156
5.119000,1.458814
5.120000,2.617089
5.121000,1.138061
5.122000,-1.067753
5.123000,-3.607049
5.124000,-4.803509
5.125000,-5.105170
5.126000,-4.324925
5.127000,-3.768699
5.128000,-2.536599
5.129000,-0.718998
5.130000,-0.216230
5.131000,-1.237040
5.132000,-2.418226
5.133000,-2.450047
5.134000,-1.960007
5.135000,-1.893820
5.136000,-1.494151
5.137000,-1.632890
5.138000,-2.385132
5.139000,-2.737706
5.140000,-1.828906
5.141000,-1.739808
5.142000,-1.562884
5.143000,-1.408872
5.144000,-1.833997
5.145000,-1.760173
5.146000,-1.481423
5.147000,-0.544620
5.148000,-0.696087
5.149000,-1.175944
5.150000,-1.546337
5.151000,-2.112747
5.152000,-1.466149
5.153000,-0.839917
5.154000,-0.955744
5.155000,-1.088119
5.156000,-1.035933
5.157000,-0.575168
5.158000,0.053610
5.159000,0.201258
5.160000,-0.529346
5.161000,-0.922651
5.162000,-1.132668
5.163000,-1.893820
5.164000,-2.204390
5.165000,-2.279487
5.166000,-2.383860
5.167000,-2.260395
5.168000,-2.242575
5.169000,-2.279487
5.170000,-2.130566
5.171000,-2.004556
5.172000,-1.817450
5.173000,-1.496697
5.174000,-0.183136
5.175000,0.894951
5.176000,1.393900
5.177000,1.550458
5.178000,1.052781
5.179000,0.410002
5.180000,0.536012
5.181000,1.656103
5.182000,1.297165
5.183000,0.149072
5.184000,-0.951926
5.185000,-1.662165
5.186000,-2.045287
5.187000,-2.605332
5.188000,-3.090280
5.189000,-2.819167
5.190000,-3.082643
5.191000,-4.452208
5.192000,-5.298640
5.193000,-6.072521
5.194000,-6.100523
5.195000,-5.495929
5.196000,-4.490393
5.197000,-2.576057
5.198000,-1.329956
5.199000,-0.318056
5.200000,0.017971
5.201000,0.808398
5.202000,1.150789
5.203000,-0.110585
5.204000,-1.237040
5.205000,-2.252758
5.206000,-2.913357
5.207000,-3.232837
5.208000,-3.319390
5.209000,-2.639698
5.210000,-1.938369
5.211000,-0.657902
5.212000,0.140162
5.213000,2.032861
5.214000,6.071550
5.215000,5.958268
5.216000,4.075753
5.217000,0.332360
5.218000,-3.115737
5.219000,-4.979160
5.220000,-6.285083
5.221000,-6.439096
5.222000,-5.691945
5.223000,-4.509486
5.224000,-3.361393
5.225000,-2.108928
5.226000,-1.910367
5.227000,-2.498414
5.228000,-2.346947
5.229000,-2.228574
5.230000,-2.880263
5.231000,-3.412306
5.232000,-3.687237
5.233000,-2.695703
5.234000,-1.853089
5.235000,-1.007930
5.236000,-0.321875
5.237000,-0.094038
5.238000,-0.251869
5.239000,-0.323148
5.240000,-0.824643
5.241000,-0.470796
5.242000,-0.496253
5.243000,-1.037205
5.244000,-1.580704
5.245000,-1.377051
5.246000,-1.293044
5.247000,-1.304500
5.248000,-1.349049
5.249000,-1.305773
5.250000,-1.230676
5.251000,-0.799186
5.252000,0.455824
5.253000,0.383273
5.254000,-0.472069
5.255000,-1.299408
5.256000,-1.424146
5.257000,-1.536155
5.258000,-0.829734
5.259000,0.114706
5.260000,0.663295
5.261000,0.948409
5.262000,0.653113
5.263000,0.295448
5.264000,0.403638
5.265000,0.091795
5.266000,-0.074946
5.267000,-0.684631
5.268000,-0.246778
5.269000,-1.503061
5.270000,-1.981645
5.271000,-2.917175
5.272000,-3.468311
5.273000,-3.897254
5.274000,-4.760233
5.275000,-5.289730
5.276000,-4.704229
5.277000,-3.683419
5.278000,-1.617616
5.279000,0.287811
5.280000,0.943318
5.281000,-0.362606
5.282000,-2.212027
5.283000,-3.375394
5.284000,-3.563773
5.285000,-2.680429
5.286000,-2.750435
5.287000,-2.856079
5.288000,-3.215018
5.289000,-3.934166
5.290000,-4.158185
5.291000,-3.687237
5.292000,-2.360949
5.293000,0.002697
5.294000,3.930650
5.295000,6.127555
5.296000,4.559428
5.297000,1.131697
5.298000,-1.775447
5.299000,-2.770800
5.300000,-2.108928
5.301000,-2.784801
5.302000,-3.509041
5.303000,-4.305833
5.304000,-4.206552
5.305000,-3.767426
5.306000,-3.782700
5.307000,-3.651598
5.308000,-3.688510
5.309000,-3.128465
5.310000,-3.759789
5.311000,-4.305833
5.312000,-4.467482
5.313000,-4.112363
5.314000,-3.451764
5.315000,-2.313854
5.316000,-1.613797
5.317000,-0.711361
5.318000,-0.186955
5.319000,0.155436
5.320000,0.854220
5.321000,1.388809
5.322000,1.250070
5.323000,0.847856
5.324000,0.574197
5.325000,0.353998
5.326000,-0.066036
5.327000,-0.022760
5.328000,-0.026578
5.329000,-0.125859
5.330000,0.184711
5.331000,-0.085129
5.332000,-0.309147
5.333000,-1.089391
5.334000,-0.902285
5.335000,-1.351594
5.336000,-1.840361
5.337000,-2.310035
5.338000,-2.415680
5.339000,-2.106383
5.340000,-1.966371
5.341000,-2.046560
5.342000,-1.452148
5.343000,-0.815733
5.344000,-0.377879
5.345000,0.491463
5.346000,0.515647
5.347000,0.440550
5.348000,0.152891
5.349000,-0.384244
5.350000,-0.696087
5.351000,-0.628627
5.352000,-1.245950
5.353000,-2.554419
5.354000,-3.166650
5.355000,-3.582865
5.356000,-3.355029
5.357000,-3.431399
5.358000,-3.300297
5.359000,-1.534882
5.360000,-1.471240
5.361000,-1.655801
5.362000,-2.068198
5.363000,-0.627354
5.364000,-0.842462
5.365000,-2.159841
5.366000,-2.877718
5.367000,-2.260395
5.368000,-1.948552
5.369000,-1.593432
5.370000,-1.755082
5.371000,-2.059288
5.372000,-1.882365
5.373000,-0.803005
5.374000,0.994231
5.375000,2.575086
5.376000,2.300155
5.377000,0.007788
5.378000,-2.293489
5.379000,-3.979988
5.380000,-3.516678
5.381000,-3.082643
5.382000,-3.027911
5.383000,-3.885799
5.384000,-4.898972
5.385000,-5.974513
5.386000,-6.193440
5.387000,-5.422105
5.388000,-4.864605
5.389000,-4.049994
5.390000,-2.304944
5.391000,-0.211139
5.392000,0.455824
5.393000,0.686206
5.394000,0.747302
5.395000,0.761303
5.396000,1.783386
5.397000,1.185156
5.398000,0.320904
5.399000,-0.521709
5.400000,-0.657902
5.401000,-1.486514
5.402000,-1.765264
5.403000,-2.073289
5.404000,-2.415680
5.405000,-2.391497
5.406000,-2.395315
5.407000,-2.198026
5.408000,-1.728352
5.409000,-1.869636
5.410000,-2.075835
5.411000,-2.024921
5.412000,-1.967644
5.413000,-2.007102
5.414000,-2.050378
5.415000,-0.889557
5.416000,-0.363878
5.417000,-0.589169
5.418000,-1.142850
5.419000,-1.595978
5.420000,-1.733443
5.421000,-1.688894
5.422000,-1.705441
5.423000,-1.235767
5.424000,-0.598079
5.425000,-0.971018
5.426000,-1.133940
5.427000,-1.137759
5.428000,-1.636708
5.429000,-1.831451
5.430000,-1.932005
5.431000,-1.648164
5.432000,-0.748273
5.433000,1.244979
5.434000,2.200874
5.435000,1.872484
5.436000,1.318803
5.437000,0.084158
5.438000,-0.543347
5.439000,-0.912468
5.440000,-1.477605
5.441000,-1.393598
5.442000,-0.906104
5.443000,-1.485242
5.444000,-0.750819
5.445000,0.369272
5.446000,0.920407
5.447000,1.539002
5.448000,1.536457
5.449000,1.158426
5.450000,-1.099574
5.451000,-3.498859
5.452000,-4.384748
5.453000,-4.643133
5.454000,-5.014799
5.455000,-5.966876
5.456000,-6.187076
5.457000,-4.767870
5.458000,-4.784417
5.459000,-5.049166
5.460000,-5.139536
5.461000,-4.046175
5.462000,-2.130566
5.463000,-1.757627
5.464000,-2.147113
5.465000,-2.461502
5.466000,-0.911195
5.467000,0.045973
5.468000,-0.153861
5.469000,-0.491161
5.470000,-0.977382
5.471000,-1.930732
5.472000,-2.596422
5.473000,-2.167478
5.474000,-1.454694
5.475000,-1.721988
5.476000,-0.869192
5.477000,-1.028296
5.478000,-1.956189
5.479000,-2.783528
5.480000,-2.928631
5.481000,-2.558237
5.482000,-2.279487
5.483000,-1.707987
5.484000,-0.833553
5.485000,-0.466978
5.486000,-0.744455
5.487000,-0.968473
5.488000,-1.090664
5.489000,-1.098301
5.490000,-1.042297
5.491000,-1.216674
5.492000,-0.944289
5.493000,-0.572622
5.494000,-0.564985
5.495000,-0.249324
5.496000,0.226715
5.497000,0.359089
5.498000,0.216532
5.499000,0.189803
5.500000,0.210168
5.501000,0.072702
5.502000,0.536012
5.503000,0.700208
5.504000,0.683661
5.505000,0.239443
5.506000,0.585653
5.507000,0.894951
5.508000,0.107069
5.509000,-0.973564
5.510000,-1.890001
5.511000,-1.832724
5.512000,-1.557793
5.513000,-2.139476
5.514000,-1.361777
5.515000,-0.269689
5.516000,-1.024477
5.517000,-2.542963
5.518000,-3.521770
5.519000,-4.218008
5.520000,-4.659680
5.521000,-5.313914
5.522000,-5.436106
5.523000,-4.597311
5.524000,-2.296034
5.525000,-0.418610
5.526000,0.308176
5.527000,-1.357959
5.528000,-3.777608
5.529000,-4.952430
5.530000,-5.303732
5.531000,-4.514577
5.532000,-4.051267
5.533000,-3.626142
5.534000,-3.173014
5.535000,-3.253202
5.536000,-2.625697
5.537000,-2.096200
5.538000,-1.640527
5.539000,-0.911195
5.540000,-0.038034
5.541000,2.067227
5.542000,2.885657
5.543000,2.319247
5.544000,1.415538
5.545000,1.059146
5.546000,0.561469
5.547000,-0.071127
5.548000,-0.843735
5.549000,-1.832724
5.550000,-2.355857
5.551000,-2.112747
5.552000,-1.709260
5.553000,1.376080
5.554000,4.260313
5.555000,3.966289
5.556000,1.644647
5.557000,-1.569248
5.558000,-3.963442
5.559000,-5.301186
5.560000,-5.786134
5.561000,-5.405558
5.562000,-4.932065
5.563000,-4.226917
5.564000,-3.692329
5.565000,-2.852261
5.566000,-3.047004
5.567000,-2.507324
5.568000,-2.754253
5.569000,-2.992272
5.570000,-2.681702
5.571000,-2.397861
5.572000,-2.019830
5.573000,-1.463603
5.574000,-0.363878
5.575000,1.407901
5.576000,2.212330
5.577000,1.578460
5.578000,0.439277
5.579000,-0.627354
5.580000,-1.023204
5.581000,-1.631617
5.582000,-2.128021
5.583000,-2.647335
5.584000,-3.020275
5.585000,-3.263385
5.586000,-2.780982
5.587000,-2.591331
5.588000,-2.475503
5.589000,-1.620162
5.590000,-0.757183
5.591000,1.172427
5.592000,1.404083
5.593000,0.795670
5.594000,-0.081310
5.595000,0.496555
5.596000,0.343815
5.597000,-0.511527
5.598000,-0.958290
5.599000,-0.963381
5.600000,-0.940470
5.601000,-1.653255
5.602000,-2.293489
5.603000,-2.396588
5.604000,-3.029184
5.605000,-3.831067
5.606000,-3.969806
5.607000,-3.825976
5.608000,-3.687237
5.609000,-1.943460
5.610000,0.861857
5.611000,3.668447
5.612000,3.095674
5.613000,1.241160
5.614000,-0.811914
5.615000,-2.385132
5.616000,-2.875172
5.617000,-1.877273
5.618000,-1.873455
5.619000,-2.341856
5.620000,-2.707158
5.621000,-3.321935
5.622000,-3.043185
5.623000,-2.593876
5.624000,-1.056298
5.625000,0.187257
5.626000,-0.343513
5.627000,-1.700350
5.628000,-2.582421
5.629000,-2.302398
5.630000,-1.979100
5.631000,-1.042297
5.632000,0.272537
5.633000,-0.071127
5.634000,-1.159397
5.635000,-3.068642
5.636000,-4.430570
5.637000,-4.946066
5.638000,-4.788235
5.639000,-4.616403
5.640000,-4.046175
5.641000,-3.491222
5.642000,-3.061005
5.643000,-2.654972
5.644000,-2.649881
5.645000,-1.971463
5.646000,-0.311692
5.647000,0.613655
5.648000,0.574197
5.649000,0.527103
5.650000,-0.078764
5.651000,-0.441521
5.652000,-0.652811
5.653000,-0.006213
5.654000,-0.184409
5.655000,-1.061389
5.656000,-2.126748
5.657000,-2.190389
5.658000,-1.888729
5.659000,-1.639254
5.660000,-1.592159
5.661000,-1.597251
5.662000,-1.284134
5.663000,-1.181035
5.664000,-1.109757
5.665000,-1.440693
5.666000,-0.899740
5.667000,-0.957017
5.668000,-1.575612
5.669000,-1.219220
5.670000,-0.570077
5.671000,-0.917559
5.672000,-1.511971
5.673000,-1.107211
5.674000,-0.492434
5.675000,-0.231504
5.676000,0.271264
5.677000,0.313267
5.678000,-0.216230
5.679000,-0.346059
5.680000,0.044700
5.681000,-0.902285
5.682000,-2.252758
5.683000,-2.859898
5.684000,-2.717341
5.685000,-1.935823
5.686000,-1.477605
5.687000,-1.803449
5.688000,-0.584078
5.689000,-1.074117
5.690000,-2.246394
5.691000,-3.193379
5.692000,-3.377940
5.693000,-2.036377
5.694000,-1.424146
5.695000,-1.076663
5.696000,-1.412690
5.697000,-1.839088
5.698000,-1.570521
5.699000,-2.028740
5.700000,-2.318945
5.701000,-1.762718
5.702000,-1.715624
5.703000,-2.238757
5.704000,-1.580704
5.705000,-1.118667
5.706000,-0.862828
5.707000,-1.021931
5.708000,-1.397416
5.709000,-1.541246
5.710000,-1.807268
5.711000,-1.817450
5.712000,-1.144123
5.713000,-1.398689
5.714000,-2.383860
5.715000,-2.212027
5.716000,-0.627354
5.717000,2.897112
5.718000,1.947581
5.719000,-0.190773
5.720000,-1.974008
5.721000,-2.486959
5.722000,-1.751263
5.723000,-1.854362
5.724000,-2.386405
5.725000,-2.262941
5.726000,-3.120828
5.727000,-3.188288
5.728000,-3.423762
5.729000,-4.029629
5.730000,-4.158185
5.731000,-4.141638
5.732000,-4.274012
5.733000,-4.131455
5.734000,-3.698693
5.735000,-3.285023
5.736000,-2.867535
5.737000,-1.896366
5.738000,-1.159397
5.739000,-0.400790
5.740000,-0.155134
5.741000,-0.078764
5.742000,-0.115676
5.743000,0.150345
5.744000,0.017971
5.745000,-0.139860
5.746000,-0.762274
5.747000,-1.457239
5.748000,-1.528518
5.749000,-0.783912
5.750000,-0.110585
5.751000,0.645476
5.752000,0.751121
5.753000,0.723118
5.754000,-0.218776
5.755000,-1.301954
5.756000,-2.634607
5.757000,-3.348665
5.758000,-3.454310
5.759000,-2.765709
5.760000,-2.166206
5.761000,-1.920549
5.762000,-1.481423
5.763000,-0.524255
5.764000,1.013324
5.765000,2.036679
5.766000,2.622181
5.767000,2.421074
5.768000,1.293346
5.769000,-0.248051
5.770000,-0.347332
5.771000,-0.458068
5.772000,-0.890830
5.773000,-1.704168
5.774000,-3.218836
5.775000,-4.156912
5.776000,-4.627859
5.777000,-4.330017
5.778000,-2.876445
5.779000,-1.071572
5.780000,1.560641
5.781000,4.088481
5.782000,3.525890
5.783000,0.718027
5.784000,-2.122929
5.785000,-4.923155
5.786000,-7.001687
5.787000,-7.354261
5.788000,-7.253707
5.789000,-7.019506
5.790000,-6.151436
5.791000,-4.449663
5.792000,-2.066925
5.793000,-1.051207
5.794000,-1.449602
5.795000,-0.991384
5.796000,2.655274
5.797000,3.210228
5.798000,2.948025
5.799000,1.096058
5.800000,-0.945562
5.801000,-2.318945
5.802000,-3.631233
5.803000,-4.489120
5.804000,-4.800964
5.805000,-5.382647
5.806000,-4.836603
5.807000,-3.767426
5.808000,-3.085189
5.809000,-3.022820
5.810000,-2.651154
5.811000,-2.119111
5.812000,-1.660892
5.813000,-1.044842
5.814000,-0.759728
5.815000,-0.590442
5.816000,-0.515345
5.817000,-0.755910
5.818000,-0.556076
5.819000,0.432913
5.820000,0.814762
5.821000,0.705299
5.822000,0.528375
5.823000,0.180893
5.824000,0.471098
5.825000,0.412548
5.826000,-0.114404
5.827000,-0.636264
5.828000,-0.577714
5.829000,-0.631173
5.830000,-0.543347
5.831000,-0.172954
5.832000,-0.629900
5.833000,-0.962108
5.834000,-1.321046
5.835000,-1.075390
5.836000,-1.296863
5.837000,-1.699077
5.838000,-1.739808
5.839000,-1.506880
5.840000,-0.577714
5.841000,-0.619717
5.842000,-1.259951
5.843000,-2.518780
5.844000,-3.437763
5.845000,-3.641416
5.846000,-3.180651
5.847000,-2.794984
5.848000,-2.503506
5.849000,-2.433500
5.850000,-1.963826
5.851000,-0.781367
5.852000,-0.852645
5.853000,-1.567976
5.854000,-2.106383
5.855000,-2.495869
5.856000,-2.311308
5.857000,-1.267588
5.858000,-1.393598
5.859000,-1.024477
5.860000,-0.957017
5.861000,-1.001566
5.862000,-1.396143
5.863000,-1.994374
5.864000,-2.004556
5.865000,-1.294317
5.866000,-0.134769
5.867000,0.453279
5.868000,-0.148770
5.869000,0.716754
5.870000,4.325227
5.871000,4.346865
5.872000,1.345532
5.873000,-2.050378
5.874000,-5.285912
5.875000,-6.791670
5.876000,-7.090785
5.877000,-6.706390
5.878000,-6.110706
5.879000,-5.839593
5.880000,-3.750879
5.881000,-2.460229
5.882000,-2.003283
5.883000,-1.427964
5.884000,-1.123758
5.885000,-0.535710
5.886000,0.588198
5.887000,0.137617
5.888000,-0.911195
5.889000,-2.018557
5.890000,-2.884082
5.891000,-3.271022
5.892000,-3.066096
5.893000,-2.374950
5.894000,-1.998192
5.895000,-1.377051
5.896000,-0.879374
5.897000,-0.796641
5.898000,-0.627354
5.899000,-0.405882
5.900000,0.061247
5.901000,-0.553530
5.902000,-1.391052
5.903000,-1.958734
5.904000,-2.041468
5.905000,-2.451320
5.906000,-2.343129
5.907000,-1.960007
5.908000,-1.721988
5.909000,-1.061389
5.910000,0.145254
5.911000,0.732028
5.912000,0.931863
5.913000,1.665013
5.914000,1.737564
5.915000,1.667558
5.916000,1.121514
5.917000,0.393456
5.918000,-0.454249
5.919000,-1.351594
5.920000,-2.385132
5.921000,-3.137375
5.922000,-2.896810
5.923000,-2.405498
5.924000,-2.554419
5.925000,-2.901901
5.926000,-2.452592
5.927000,-2.130566
5.928000,-1.254859
5.929000,-1.240858
5.930000,-2.074562
5.931000,-2.780982
5.932000,-3.082643
5.933000,-2.021103
5.934000,-1.308318
5.935000,0.267445
5.936000,1.984493
5.937000,2.282335
5.938000,1.182610
5.939000,1.274254
5.940000,3.378242
5.941000,3.151678
5.942000,1.369716
5.943000,-1.163216
5.944000,-3.875616
5.945000,-5.558298
5.946000,-6.094159
5.947000,-6.320723
5.948000,-6.509102
5.949000,-6.344906
5.950000,-5.424650
5.951000,-5.208269
5.952000,-5.270638
5.953000,-5.047893
5.954000,-4.772961
5.955000,-3.003728
5.956000,-2.100018
5.957000,-1.835270
5.958000,-1.902730
5.959000,-2.117838
5.960000,-1.678712
5.961000,-0.888284
5.962000,-0.441521
5.963000,-0.124586
5.964000,-0.381698
5.965000,-0.666812
5.966000,-0.662993
5.967000,-0.954471
5.968000,-0.745727
5.969000,-0.558621
5.970000,-0.534438
5.971000,-0.696087
5.972000,-0.958290
5.973000,-0.996475
5.974000,-1.262496
5.975000,-0.797913
5.976000,0.161800
5.977000,-0.035488
5.978000,-0.372788
5.979000,-0.693541
5.980000,-0.781367
5.981000,-0.855191
5.982000,-1.174671
5.983000,-1.015567
5.984000,-0.749546
5.985000,-1.426691
5.986000,-2.224756
5.987000,-1.980372
5.988000,-0.888284
5.989000,0.716754
5.990000,1.401537
5.991000,0.961138
5.992000,0.028153
5.993000,-1.107211
5.994000,-1.884910
5.995000,-2.158569
5.996000,-2.205663
5.997000,-2.206936
5.998000,-2.110201
5.999000,-2.522598
6.000000,-2.626970
6.001000,-2.223483
6.002000,-2.392769
6.003000,-1.464876
6.004000,0.658204
6.005000,1.496999
6.006000,0.681115
6.007000,-0.778821
6.008000,-2.014739
6.009000,-2.910811
6.010000,-3.347392
6.011000,-2.651154
6.012000,-1.337593
6.013000,-1.042297
6.014000,-1.831451
6.015000,-0.920105
6.016000,1.743928
6.017000,3.856826
6.018000,4.349411
6.019000,1.892849
6.020000,-0.263325
6.021000,-1.844180
6.022000,-3.561227
6.023000,-4.895153
6.024000,-5.555752
6.025000,-6.787851
6.026000,-5.817955
6.027000,-3.237928
6.028000,-3.159013
6.029000,-4.165822
6.030000,-5.343189
6.031000,-5.553206
6.032000,-5.689399
6.033000,-5.261728
6.034000,-4.303287
6.035000,-3.413579
6.036000,-2.741525
6.037000,-1.926914
6.038000,-1.364323
6.039000,-0.349877
6.040000,0.673478
6.041000,1.712107
6.042000,2.283608
6.043000,2.006131
6.044000,1.985766
6.045000,1.717199
6.046000,0.631475
6.047000,-0.235323
6.048000,-1.122485
6.049000,-1.863272
6.050000,-2.582421
6.051000,-3.339755
6.052000,-3.570137
6.053000,-3.273568
6.054000,-2.602786
6.055000,-2.138203
6.056000,-1.616343
6.057000,-1.751263
6.058000,-2.339310
6.059000,-2.307490
6.060000,-1.831451
6.061000,-1.450875
6.062000,-1.206492
6.063000,-1.200128
6.064000,-0.491161
6.065000,0.962411
6.066000,1.079511
6.067000,0.514374
6.068000,-0.550984
6.069000,-0.814460
6.070000,-0.697360
6.071000,-0.676995
6.072000,0.285265
6.073000,0.751121
6.074000,-0.567531
6.075000,-2.231120
6.076000,-2.932449
6.077000,-3.426307
6.078000,-3.473402
6.079000,-3.260839
6.080000,-2.639698
6.081000,-1.630344
6.082000,-0.638810
6.083000,0.718027
6.084000,0.468552
6.085000,-0.465705
6.086000,-1.499243
6.087000,-2.103837
6.088000,-2.007102
6.089000,-2.126748
6.090000,-2.262941
6.091000,-2.205663
6.092000,-2.619333
6.093000,-2.422044
6.094000,-1.960007
6.095000,-1.541246
6.096000,-0.468250
6.097000,0.981503
6.098000,1.774476
6.099000,1.668831
6.100000,0.432913
6.101000,-1.293044
6.102000,-2.784801
6.103000,-3.917620
6.104000,-3.463219
6.105000,-2.443683
6.106000,-1.485242
6.107000,-1.188672
6.108000,-1.677439
6.109000,-1.961280
6.110000,-2.242575
6.111000,-2.559510
6.112000,-1.715624
6.113000,-0.995202
6.114000,-1.072845
6.115000,-1.724534
6.116000,-2.564601
6.117000,-1.895093
6.118000,-1.625253
6.119000,-2.390224
6.120000,-2.628243
6.121000,-3.128465
6.122000,-3.526861
6.123000,-4.375838
6.124000,-3.637597
6.125000,-1.366868
6.126000,0.926771
6.127000,1.970492
6.128000,3.323510
6.129000,2.422347
6.130000,0.506737
6.131000,-1.775447
6.132000,-3.978715
6.133000,-4.532397
6.134000,-4.365656
6.135000,-4.246010
6.136000,-4.350382
6.137000,-3.902346
6.138000,-3.076279
6.139000,-1.845452
6.140000,-0.744455
6.141000,-0.195865
6.142000,-0.404609
6.143000,-1.160670
6.144000,-1.681257
6.145000,-1.960007
6.146000,-1.219220
6.147000,-0.755910
6.148000,-0.850099
6.149000,-0.949380
6.150000,-1.261223
6.151000,-1.509425
6.152000,-1.557793
6.153000,-1.630344
6.154000,-1.635435
6.155000,-1.751263
6.156000,-1.833997
6.157000,-1.445784
6.158000,-1.170853
6.159000,-0.908650
6.160000,-0.483524
6.161000,-0.178045
6.162000,-0.553530
6.163000,-1.001566
6.164000,-1.000293
6.165000,-1.117394
6.166000,-1.104665
6.167000,-1.098301
6.168000,-0.921378
6.169000,-0.668085
6.170000,-0.405882
6.171000,-0.813187
6.172000,-1.477605
6.173000,-2.027467
6.174000,-2.493323
6.175000,-2.190389
6.176000,-1.878546
6.177000,-1.627799
6.178000,-1.056298
6.179000,-0.901013
6.180000,-1.270133
6.181000,-1.164488
6.182000,-1.692713
6.183000,-1.648164
6.184000,0.006515
6.185000,1.308620
6.186000,2.393071
6.187000,1.947581
6.188000,1.456269
6.189000,0.135071
6.190000,-1.030841
6.191000,-1.827633
6.192000,-2.668973
6.193000,-3.292660
6.194000,-2.700794
6.195000,-0.300237
6.196000,1.124060
6.197000,1.509727
6.198000,-0.302782
6.199000,-2.607878
6.200000,-4.790781
6.201000,-6.299085
6.202000,-6.712754
6.203000,-7.039872
6.204000,-6.383091
6.205000,-5.294822
6.206000,-4.436934
6.207000,-4.327471
6.208000,-4.247283
6.209000,-4.490393
6.210000,-4.041084
6.211000,-2.938813
6.212000,-2.052924
6.213000,-1.057571
6.214000,-0.304055
6.215000,0.093068
6.216000,0.252171
6.217000,0.324723
6.218000,0.140162
6.219000,-0.218776
6.220000,-0.878102
6.221000,-0.965927
6.222000,-0.581532
6.223000,-0.326966
6.224000,-0.615899
6.225000,-0.554803
6.226000,-0.704997
6.227000,-0.753364
6.228000,-0.507708
6.229000,-0.491161
6.230000,-0.600625
6.231000,-0.996475
6.232000,-1.137759
6.233000,-0.384244
6.234000,0.007788
6.235000,-0.213684
6.236000,-0.412246
6.237000,-0.959563
6.238000,-1.534882
6.239000,-1.926914
6.240000,-2.265486
6.241000,-2.466593
6.242000,-1.911640
6.243000,-1.816177
6.244000,-1.991828
6.245000,-1.478877
6.246000,-1.413963
6.247000,-1.366868
6.248000,-0.473342
6.249000,0.532194
6.250000,1.382444
6.251000,0.880949
6.252000,-0.011304
6.253000,0.198713
6.254000,0.653113
6.255000,0.221623
6.256000,-1.257405
6.257000,-3.146285
6.258000,-4.408932
6.259000,-4.817510
6.260000,-4.459845
6.261000,-3.391941
6.262000,-3.351210
6.263000,-3.263385
6.264000,-1.841634
6.265000,-1.940915
6.266000,-2.386405
6.267000,-2.681702
6.268000,-2.783528
6.269000,-2.774618
6.270000,-2.049105
6.271000,-1.660892
6.272000,-1.571794
6.273000,-1.954916
6.274000,-1.916731
6.275000,-1.211583
6.276000,-0.342240
6.277000,0.168165
6.278000,0.220351
6.279000,0.099432
6.280000,0.203804
6.281000,-0.493707
6.282000,-1.482696
6.283000,-2.212027
6.284000,-2.744070
6.285000,-3.463219
6.286000,-3.243020
6.287000,-1.034660
6.288000,2.284881
6.289000,2.847472
6.290000,2.231422
6.291000,0.752394
6.292000,-0.855191
6.293000,-1.392325
6.294000,-1.906548
6.295000,-2.629516
6.296000,-2.542963
6.297000,-2.976998
6.298000,-2.695703
6.299000,-2.999909
6.300000,-3.828522
6.301000,-4.416569
6.302000,-5.110261
6.303000,-5.208269
6.304000,-4.730958
6.305000,-3.673236
6.306000,-2.623152
6.307000,-2.089836
6.308000,-1.170853
6.309000,-0.671903
6.310000,-0.549712
6.311000,-0.724089
6.312000,-0.754637
6.313000,-0.688450
6.314000,-0.749546
6.315000,-0.776275
6.316000,-0.881920
6.317000,-0.927742
6.318000,-0.508981
6.319000,0.271264
6.320000,0.528375
6.321000,0.365453
6.322000,-0.099130
6.323000,-0.469523
6.324000,-0.632445
6.325000,-0.633718
6.326000,-1.046115
6.327000,-1.725806
6.328000,-2.282033
6.329000,-3.061005
6.330000,-2.778437
6.331000,-2.707158
6.332000,-2.475503
6.333000,-1.974008
6.334000,-1.816177
6.335000,-1.713078
6.336000,-1.497970
6.337000,-0.920105
6.338000,-0.272235
6.339000,-0.507708
6.340000,-0.685904
6.341000,-0.817006
6.342000,-1.165761
6.343000,-1.107211
6.344000,1.359533
6.345000,1.854664
6.346000,1.197884
