LabVIEW Measurement,
Writer_Version,2
Reader_Version,2
Separator,Comma
Decimal_Separator,.
Multi_Headings,No
X_Columns,Multi
Time_Pref,Absolute
Operator,Dymnz
Date,2017/08/29
Time,14:06:15.6406899833530391796
***End_of_Header***,
,
Channels,1,
Samples,1000,
Date,2017/08/29,
Time,14:06:15.6406899833530391796,
Y_Unit_Label,Volts,
X_Dimension,Time,
X0,0.0000000000000000E+0,
Delta_X,0.001000,
***End_of_Header***,,
X_Value,Voltage,Comment
0.000000,-3.026639
0.001000,-2.745343
0.002000,-2.787347
0.003000,-2.670246
0.004000,-2.180207
0.005000,-1.206492
0.006000,-0.293873
0.007000,0.010334
0.008000,-0.220049
0.009000,-0.878102
0.010000,-1.532336
0.011000,-2.041468
0.012000,-2.316400
0.013000,-2.553146
0.014000,-2.620606
0.015000,-2.223483
0.016000,-1.744899
0.017000,-1.546337
0.018000,-1.211583
0.019000,-0.436430
0.020000,0.313267
0.021000,0.588198
0.022000,0.365453
0.023000,-0.109312
0.024000,-1.266315
0.025000,-2.441137
0.026000,-3.439036
0.027000,-4.111090
0.028000,-3.957077
0.029000,-3.839977
0.030000,-3.353756
0.031000,-2.522598
0.032000,-1.685076
0.033000,-1.333775
0.034000,-1.259951
0.035000,-1.425419
0.036000,-1.612525
0.037000,-1.609979
0.038000,-0.867919
0.039000,-0.496253
0.040000,-0.489889
0.041000,-0.600625
0.042000,-0.600625
0.043000,-0.922651
0.044000,-1.541246
0.045000,-2.232393
0.046000,-2.483140
0.047000,-2.654972
0.048000,-2.647335
0.049000,-2.428409
0.050000,-2.265486
0.051000,-2.391497
0.052000,-2.246394
0.053000,-1.957461
0.054000,-1.665983
0.055000,-1.448329
0.056000,-1.343957
0.057000,-1.272679
0.058000,-1.090664
0.059000,-0.636264
0.060000,-0.409700
0.061000,0.398547
0.062000,0.691298
0.063000,0.515647
0.064000,0.402365
0.065000,-0.086401
0.066000,-0.666812
0.067000,-1.303227
0.068000,-1.817450
0.069000,-1.918004
0.070000,-1.958734
0.071000,-2.033831
0.072000,-1.906548
0.073000,-1.807268
0.074000,-1.879819
0.075000,-2.016012
0.076000,-1.561611
0.077000,-1.066480
0.078000,-0.563713
0.079000,-0.167863
0.080000,-0.064763
0.081000,-0.259506
0.082000,-0.384244
0.083000,-0.787731
0.084000,-1.284134
0.085000,-1.622707
0.086000,-1.954916
0.087000,-2.402952
0.088000,-2.579875
0.089000,-2.282033
0.090000,-1.888729
0.091000,-1.930732
0.092000,-1.906548
0.093000,-1.743626
0.094000,-1.622707
0.095000,-1.804722
0.096000,-2.115292
0.097000,-1.692713
0.098000,-0.976110
0.099000,-0.496253
0.100000,0.087976
0.101000,0.057428
0.102000,-0.292600
0.103000,-0.647719
0.104000,-1.331229
0.105000,-2.159841
0.106000,-2.873899
0.107000,-3.607049
0.108000,-4.016900
0.109000,-4.397477
0.110000,-4.588401
0.111000,-4.389840
0.112000,-4.025810
0.113000,-3.407215
0.114000,-2.045287
0.115000,-0.708815
0.116000,0.967502
0.117000,1.631919
0.118000,1.591189
0.119000,1.132970
0.120000,0.291629
0.121000,-0.570077
0.122000,-1.644345
0.123000,-2.559510
0.124000,-3.145012
0.125000,-3.427580
0.126000,-3.366484
0.127000,-3.105554
0.128000,-2.784801
0.129000,-2.191662
0.130000,-1.668529
0.131000,-1.543792
0.132000,-0.888284
0.133000,0.567833
0.134000,1.491908
0.135000,1.768112
0.136000,1.532638
0.137000,0.939500
0.138000,0.234352
0.139000,-0.578987
0.140000,-1.531063
0.141000,-2.420772
0.142000,-2.890446
0.143000,-3.411033
0.144000,-3.782700
0.145000,-3.974897
0.146000,-3.943076
0.147000,-3.430126
0.148000,-2.635880
0.149000,-1.458512
0.150000,-0.801732
0.151000,-0.284963
0.152000,-0.276053
0.153000,-0.512799
0.154000,-1.060116
0.155000,-1.581977
0.156000,-2.175115
0.157000,-2.591331
0.158000,-2.610423
0.159000,-1.939642
0.160000,-1.402508
0.161000,-1.158124
0.162000,-1.032114
0.163000,-1.189945
0.164000,-1.349049
0.165000,-1.393598
0.166000,-1.497970
0.167000,-1.595978
0.168000,-1.407599
0.169000,-0.351150
0.170000,0.374363
0.171000,0.998050
0.172000,1.331531
0.173000,1.367170
0.174000,1.064237
0.175000,0.561469
0.176000,-0.248051
0.177000,-1.416509
0.178000,-2.619333
0.179000,-3.528134
0.180000,-4.130182
0.181000,-4.540034
0.182000,-4.752596
0.183000,-4.579491
0.184000,-4.104726
0.185000,-3.435217
0.186000,-2.545509
0.187000,-1.693986
0.188000,-0.423701
0.189000,0.859311
0.190000,1.415538
0.191000,1.269163
0.192000,0.846583
0.193000,0.280174
0.194000,-0.591715
0.195000,-1.738535
0.196000,-2.572238
0.197000,-3.100463
0.198000,-3.320662
0.199000,-3.262112
0.200000,-2.798802
0.201000,-2.600241
0.202000,-2.254031
0.203000,-2.228574
0.204000,-2.096200
0.205000,-1.890001
0.206000,-1.819996
0.207000,-1.518335
0.208000,-1.847998
0.209000,-2.250212
0.210000,-2.285852
0.211000,-1.580704
0.212000,-1.328683
0.213000,-1.229403
0.214000,-1.173398
0.215000,-1.135213
0.216000,-0.909922
0.217000,-0.778821
0.218000,-0.587896
0.219000,-0.654084
0.220000,-0.797913
0.221000,-0.935379
0.222000,-0.930288
0.223000,-1.128849
0.224000,-1.492879
0.225000,-1.543792
0.226000,-1.565430
0.227000,-1.616343
0.228000,-1.550156
0.229000,-1.570521
0.230000,-1.713078
0.231000,-1.727079
0.232000,-1.682530
0.233000,-1.503061
0.234000,-1.485242
0.235000,-1.359231
0.236000,-1.331229
0.237000,-1.009203
0.238000,-0.164044
0.239000,0.579289
0.240000,1.368443
0.241000,1.805024
0.242000,1.624282
0.243000,1.041326
0.244000,0.370545
0.245000,-0.424974
0.246000,-1.387234
0.247000,-2.257849
0.248000,-2.478049
0.249000,-2.731342
0.250000,-2.970634
0.251000,-2.951542
0.252000,-2.962997
0.253000,-3.358847
0.254000,-3.652871
0.255000,-3.591775
0.256000,-3.166650
0.257000,-2.901901
0.258000,-2.929904
0.259000,-3.011365
0.260000,-3.044458
0.261000,-2.656245
0.262000,-2.406770
0.263000,-2.203118
0.264000,-2.240030
0.265000,-2.287124
0.266000,-2.058015
0.267000,-1.571794
0.268000,-0.920105
0.269000,-0.461886
0.270000,0.040882
0.271000,0.292902
0.272000,0.439277
0.273000,0.533467
0.274000,-0.058399
0.275000,-0.785185
0.276000,-1.253586
0.277000,-1.394871
0.278000,-1.616343
0.279000,-1.867091
0.280000,-2.150932
0.281000,-2.226029
0.282000,-2.119111
0.283000,-2.288397
0.284000,-2.465321
0.285000,-2.500960
0.286000,-2.516234
0.287000,-2.604059
0.288000,-2.497141
0.289000,-2.317672
0.290000,-2.036377
0.291000,-1.779265
0.292000,-1.389779
0.293000,-1.019386
0.294000,-0.732999
0.295000,-0.628627
0.296000,-0.707542
0.297000,-0.803005
0.298000,-0.792822
0.299000,-0.664266
0.300000,-0.666812
0.301000,-0.424974
0.302000,-0.505162
0.303000,-0.837371
0.304000,-1.091937
0.305000,-1.326138
0.306000,-1.063935
0.307000,-0.628627
0.308000,-0.638810
0.309000,-0.693541
0.310000,-0.916287
0.311000,-1.007930
0.312000,-0.337149
0.313000,0.233079
0.314000,0.802034
0.315000,1.325167
0.316000,0.852947
0.317000,-0.110585
0.318000,-1.276497
0.319000,-2.681702
0.320000,-3.871798
0.321000,-4.659680
0.322000,-4.822602
0.323000,-4.527305
0.324000,-4.141638
0.325000,-3.838704
0.326000,-3.450491
0.327000,-3.314298
0.328000,-2.861171
0.329000,-2.228574
0.330000,-1.536155
0.331000,-1.061389
0.332000,-0.370242
0.333000,-0.055853
0.334000,0.182166
0.335000,-0.138587
0.336000,-0.666812
0.337000,-1.305773
0.338000,-1.532336
0.339000,-1.468695
0.340000,-1.998192
0.341000,-2.464048
0.342000,-2.810258
0.343000,-2.892992
0.344000,-2.691884
0.345000,-2.408043
0.346000,-2.063106
0.347000,-1.457239
0.348000,-1.090664
0.349000,-0.685904
0.350000,-0.404609
0.351000,-0.550984
0.352000,-0.687177
0.353000,-0.814460
0.354000,-0.524255
0.355000,-0.438975
0.356000,0.076521
0.357000,-0.029124
0.358000,-0.604443
0.359000,-1.107211
0.360000,-1.733443
0.361000,-2.374950
0.362000,-2.534053
0.363000,-1.830178
0.364000,-1.434328
0.365000,-1.193763
0.366000,-0.012577
0.367000,0.766395
0.368000,1.356988
0.369000,1.300983
0.370000,0.584380
0.371000,-0.454249
0.372000,-1.570521
0.373000,-2.965543
0.374000,-4.090725
0.375000,-4.725867
0.376000,-5.106443
0.377000,-5.013526
0.378000,-4.682590
0.379000,-4.309651
0.380000,-3.745788
0.381000,-3.470856
0.382000,-3.106827
0.383000,-2.348220
0.384000,-1.239585
0.385000,-0.636264
0.386000,-0.043125
0.387000,0.649294
0.388000,0.628929
0.389000,0.670932
0.390000,0.337451
0.391000,-0.272235
0.392000,-0.697360
0.393000,-1.242131
0.394000,-1.620162
0.395000,-1.952370
0.396000,-2.061834
0.397000,-2.059288
0.398000,-1.976554
0.399000,-1.947279
0.400000,-1.860726
0.401000,-1.728352
0.402000,-1.571794
0.403000,-1.453421
0.404000,-1.356686
0.405000,-0.962108
0.406000,-0.713907
0.407000,-0.343513
0.408000,-0.110585
0.409000,0.707845
0.410000,1.281891
0.411000,1.149517
0.412000,0.812217
0.413000,0.177074
0.414000,-0.871737
0.415000,-1.602342
0.416000,-2.031286
0.417000,-2.108928
0.418000,-2.437318
0.419000,-2.690612
0.420000,-2.703340
0.421000,-3.017729
0.422000,-3.255748
0.423000,-3.636324
0.424000,-3.769971
0.425000,-3.226473
0.426000,-2.583694
0.427000,-1.835270
0.428000,-0.861555
0.429000,-0.153861
0.430000,-0.249324
0.431000,-0.337149
0.432000,-0.697360
0.433000,-0.542075
0.434000,-0.842462
0.435000,-1.111030
0.436000,-1.461058
0.437000,-1.870909
0.438000,-2.248940
0.439000,-2.646063
0.440000,-3.010092
0.441000,-3.110645
0.442000,-3.007546
0.443000,-2.677883
0.444000,-2.245121
0.445000,-1.951097
0.446000,-2.027467
0.447000,-2.161114
0.448000,-1.952370
0.449000,-1.464876
0.450000,-1.169580
0.451000,-1.132668
0.452000,-1.141577
0.453000,-1.013022
0.454000,-1.145396
0.455000,-1.295590
0.456000,-1.349049
0.457000,-1.420327
0.458000,-1.525972
0.459000,-1.202673
0.460000,-0.902285
0.461000,-0.920105
0.462000,-0.936652
0.463000,-0.766093
0.464000,-0.810642
0.465000,-0.398245
0.466000,0.062520
0.467000,0.292902
0.468000,0.043427
0.469000,-0.054581
0.470000,0.262354
0.471000,-0.007486
0.472000,-0.689723
0.473000,-1.219220
0.474000,-1.321046
0.475000,-1.142850
0.476000,-1.473786
0.477000,-1.951097
0.478000,-2.504778
0.479000,-2.649881
0.480000,-2.394042
0.481000,-2.312581
0.482000,-2.446228
0.483000,-2.674065
0.484000,-2.858625
0.485000,-2.863716
0.486000,-2.588785
0.487000,-2.660064
0.488000,-2.709704
0.489000,-2.306217
0.490000,-1.991828
0.491000,-1.492879
0.492000,-1.262496
0.493000,-0.753364
0.494000,-0.348604
0.495000,0.094340
0.496000,0.094340
0.497000,-0.050762
0.498000,-0.143679
0.499000,-0.562440
0.500000,-1.323592
0.501000,-2.117838
0.502000,-2.983362
0.503000,-3.629960
0.504000,-3.911256
0.505000,-3.538316
0.506000,-2.713522
0.507000,-1.548883
0.508000,-0.982474
0.509000,-0.534438
0.510000,-0.342240
0.511000,-0.408427
0.512000,-0.674449
0.513000,-1.139032
0.514000,-1.701623
0.515000,-2.189117
0.516000,-2.429681
0.517000,-2.648608
0.518000,-2.691884
0.519000,-2.634607
0.520000,-2.698249
0.521000,-2.203118
0.522000,-0.773730
0.523000,0.463461
0.524000,0.874585
0.525000,0.903860
0.526000,0.704026
0.527000,0.877131
0.528000,1.491908
0.529000,1.017142
0.530000,-0.048216
0.531000,-1.261223
0.532000,-2.415680
0.533000,-3.199744
0.534000,-3.925257
0.535000,-4.658407
0.536000,-5.249000
0.537000,-5.124262
0.538000,-4.617676
0.539000,-4.118727
0.540000,-3.719058
0.541000,-3.414852
0.542000,-3.039367
0.543000,-2.325309
0.544000,-1.478877
0.545000,-0.845008
0.546000,-0.384244
0.547000,-0.216230
0.548000,-0.206047
0.549000,-0.165317
0.550000,0.048519
0.551000,0.635293
0.552000,0.901315
0.553000,0.953501
0.554000,0.524557
0.555000,-0.097857
0.556000,-0.613353
0.557000,-1.153033
0.558000,-1.620162
0.559000,-1.870909
0.560000,-1.944733
0.561000,-1.957461
0.562000,-1.814905
0.563000,-1.583249
0.564000,-1.405053
0.565000,-1.170853
0.566000,-0.852645
0.567000,-0.380425
0.568000,0.128707
0.569000,0.528375
0.570000,0.490191
0.571000,-0.055853
0.572000,-1.010476
0.573000,-2.033831
0.574000,-3.015183
0.575000,-3.670691
0.576000,-3.870525
0.577000,-3.240474
0.578000,-1.606160
0.579000,-0.725362
0.580000,-0.102948
0.581000,0.374363
0.582000,0.191076
0.583000,-0.389335
0.584000,-1.230676
0.585000,-2.138203
0.586000,-3.119555
0.587000,-3.454310
0.588000,-3.339755
0.589000,-3.062278
0.590000,-2.852261
0.591000,-2.409316
0.592000,-2.065652
0.593000,-1.853089
0.594000,-1.625253
0.595000,-1.321046
0.596000,-0.808096
0.597000,-0.749546
0.598000,-1.009203
0.599000,-1.254859
0.600000,-1.785629
0.601000,-2.486959
0.602000,-2.764436
0.603000,-2.814076
0.604000,-2.871353
0.605000,-2.324037
0.606000,-1.322319
0.607000,-0.977382
0.608000,-1.016840
0.609000,-0.925196
0.610000,-1.007930
0.611000,-1.127576
0.612000,-1.282862
0.613000,-1.434328
0.614000,-1.681257
0.615000,-2.000738
0.616000,-2.073289
0.617000,-2.329128
0.618000,-2.273123
0.619000,-2.129294
0.620000,-2.051651
0.621000,-2.251485
0.622000,-2.125475
0.623000,-1.841634
0.624000,-1.481423
0.625000,-1.275225
0.626000,-0.978655
0.627000,-0.702451
0.628000,0.087976
0.629000,1.103695
0.630000,1.685378
0.631000,2.020132
0.632000,1.989584
0.633000,1.883939
0.634000,0.935681
0.635000,-0.276053
0.636000,-1.944733
0.637000,-3.362666
0.638000,-3.922711
0.639000,-3.833613
0.640000,-3.467038
0.641000,-2.917175
0.642000,-2.905720
0.643000,-2.859898
0.644000,-2.639698
0.645000,-2.288397
0.646000,-2.129294
0.647000,-2.107655
0.648000,-2.299853
0.649000,-2.326582
0.650000,-2.214573
0.651000,-1.760173
0.652000,-1.471240
0.653000,-1.411417
0.654000,-1.267588
0.655000,-1.123758
0.656000,-0.949380
0.657000,-0.668085
0.658000,-0.088947
0.659000,0.628929
0.660000,0.800761
0.661000,0.374363
0.662000,-0.264598
0.663000,-1.044842
0.664000,-1.850544
0.665000,-2.399133
0.666000,-2.658791
0.667000,-2.830623
0.668000,-2.836987
0.669000,-2.803893
0.670000,-2.714795
0.671000,-2.532781
0.672000,-2.420772
0.673000,-1.715624
0.674000,-1.013022
0.675000,-0.404609
0.676000,0.336178
0.677000,0.710390
0.678000,0.620019
0.679000,0.466007
0.680000,0.210168
0.681000,-0.085129
0.682000,-0.609535
0.683000,-0.601898
0.684000,-0.809369
0.685000,-1.291771
0.686000,-1.840361
0.687000,-2.280760
0.688000,-2.567147
0.689000,-2.681702
0.690000,-1.942188
0.691000,-1.573067
0.692000,-0.939197
0.693000,-0.766093
0.694000,-1.093210
0.695000,-1.583249
0.696000,-2.204390
0.697000,-2.778437
0.698000,-3.333391
0.699000,-4.114908
0.700000,-4.680045
0.701000,-4.905336
0.702000,-5.008435
0.703000,-4.781871
0.704000,-4.534942
0.705000,-4.085633
0.706000,-3.293933
0.707000,-2.506051
0.708000,-1.529791
0.709000,-0.796641
0.710000,-0.237868
0.711000,0.151618
0.712000,0.199985
0.713000,0.121070
0.714000,-0.077492
0.715000,0.073975
0.716000,0.077794
0.717000,-0.174227
0.718000,-0.578987
0.719000,-0.932833
0.720000,-1.088119
0.721000,-0.897194
0.722000,-0.287509
0.723000,0.224169
0.724000,0.477462
0.725000,0.455824
0.726000,0.683661
0.727000,0.929317
0.728000,0.817308
0.729000,0.328541
0.730000,-0.389335
0.731000,-1.321046
0.732000,-2.345675
0.733000,-3.263385
0.734000,-4.013082
0.735000,-4.286740
0.736000,-4.141638
0.737000,-3.810702
0.738000,-3.333391
0.739000,-1.967644
0.740000,-1.030841
0.741000,-0.612080
0.742000,0.412548
0.743000,1.232250
0.744000,1.195338
0.745000,0.855493
0.746000,0.323450
0.747000,-0.479706
0.748000,-1.504334
0.749000,-2.680429
0.750000,-3.972351
0.751000,-4.682590
0.752000,-4.781871
0.753000,-4.700410
0.754000,-4.356746
0.755000,-3.530679
0.756000,-2.512415
0.757000,-1.849271
0.758000,-1.455966
0.759000,-1.108484
0.760000,-0.730453
0.761000,-0.405882
0.762000,-0.338422
0.763000,-0.298964
0.764000,-0.307874
0.765000,-0.528073
0.766000,-0.839917
0.767000,-1.276497
0.768000,-1.696531
0.769000,-2.078380
0.770000,-2.259122
0.771000,-2.308763
0.772000,-2.195481
0.773000,-2.054197
0.774000,-1.876000
0.775000,-1.529791
0.776000,-1.322319
0.777000,-1.151760
0.778000,-0.870465
0.779000,-0.732999
0.780000,-0.673176
0.781000,-0.637537
0.782000,-0.664266
0.783000,-0.769911
0.784000,-0.921378
0.785000,-0.995202
0.786000,-0.766093
0.787000,-0.773730
0.788000,-0.930288
0.789000,-1.025750
0.790000,-1.216674
0.791000,-1.431783
0.792000,-1.687622
0.793000,-1.947279
0.794000,-2.103837
0.795000,-1.766537
0.796000,-1.430510
0.797000,-1.210310
0.798000,-0.950653
0.799000,0.193621
0.800000,1.500818
0.801000,1.718472
0.802000,1.206794
0.803000,0.462188
0.804000,-0.445339
0.805000,-1.071572
0.806000,-1.593432
0.807000,-2.661336
0.808000,-3.699966
0.809000,-4.378384
0.810000,-4.711866
0.811000,-4.828966
0.812000,-4.291832
0.813000,-3.501404
0.814000,-3.087735
0.815000,-1.800903
0.816000,0.108342
0.817000,0.942045
0.818000,0.809671
0.819000,0.203804
0.820000,-0.707542
0.821000,-1.522154
0.822000,-2.402952
0.823000,-3.169196
0.824000,-3.814520
0.825000,-4.111090
0.826000,-4.024537
0.827000,-3.782700
0.828000,-3.436490
0.829000,-2.961724
0.830000,-2.621879
0.831000,-2.088563
0.832000,-1.634163
0.833000,-1.149214
0.834000,-1.049934
0.835000,-1.145396
0.836000,-1.280316
0.837000,-1.266315
0.838000,-1.295590
0.839000,-1.331229
0.840000,-1.387234
0.841000,-1.276497
0.842000,-0.974837
0.843000,-0.930288
0.844000,-0.871737
0.845000,-0.794095
0.846000,-0.716452
0.847000,-0.396972
0.848000,0.301812
0.849000,0.450733
0.850000,0.272537
0.851000,-0.046944
0.852000,-0.484797
0.853000,-0.852645
0.854000,-1.094483
0.855000,-1.494151
0.856000,-1.629071
0.857000,-1.957461
0.858000,-2.255304
0.859000,-2.368586
0.860000,-2.073289
0.861000,-1.844180
0.862000,-1.248495
0.863000,-0.651538
0.864000,-0.433884
0.865000,-0.437702
0.866000,-0.295146
0.867000,-0.475887
0.868000,-0.724089
0.869000,-0.726635
0.870000,-0.811914
0.871000,-1.063935
0.872000,-0.968473
0.873000,-0.954471
0.874000,-1.258678
0.875000,-1.473786
0.876000,-1.886183
0.877000,-2.275669
0.878000,-2.661336
0.879000,-2.728796
0.880000,-2.915902
0.881000,-3.286296
0.882000,-3.235383
0.883000,-2.816622
0.884000,-2.408043
0.885000,-2.031286
0.886000,-0.907377
0.887000,-0.041852
0.888000,0.193621
0.889000,0.320904
0.890000,0.091795
0.891000,-0.652811
0.892000,-1.216674
0.893000,-1.911640
0.894000,-2.782255
0.895000,-3.403396
0.896000,-3.722877
0.897000,-3.688510
0.898000,-2.898083
0.899000,-2.436046
0.900000,-2.007102
0.901000,-1.431783
0.902000,-0.641355
0.903000,-0.286236
0.904000,-0.296418
0.905000,-0.678267
0.906000,-1.271406
0.907000,-1.895093
0.908000,-2.201845
0.909000,-2.268032
0.910000,-2.439864
0.911000,-2.307490
0.912000,-1.920549
0.913000,-1.840361
0.914000,-1.805995
0.915000,-1.753809
0.916000,-1.772901
0.917000,-1.730898
0.918000,-1.406326
0.919000,-1.252314
0.920000,-1.224311
0.921000,-0.800459
0.922000,-0.463159
0.923000,-0.200956
0.924000,-0.291327
0.925000,-0.036761
0.926000,0.276355
0.927000,0.295448
0.928000,0.182166
0.929000,-0.437702
0.930000,-1.308318
0.931000,-2.044014
0.932000,-2.490777
0.933000,-2.838260
0.934000,-2.240030
0.935000,-1.322319
0.936000,-0.398245
0.937000,-0.195865
0.938000,-0.330785
0.939000,-0.792822
0.940000,-1.439420
0.941000,-2.254031
0.942000,-3.103008
0.943000,-3.665599
0.944000,-3.790337
0.945000,-3.738151
0.946000,-3.650325
0.947000,-3.713967
0.948000,-3.374121
0.949000,-2.663882
0.950000,-1.739808
0.951000,-0.455522
0.952000,0.406184
0.953000,1.009505
0.954000,1.269163
0.955000,1.532638
0.956000,1.298438
0.957000,0.720573
0.958000,-0.277326
0.959000,-1.415236
0.960000,-2.523871
0.961000,-3.199744
0.962000,-3.860342
0.963000,-3.936712
0.964000,-3.768699
0.965000,-3.264658
0.966000,-2.791165
0.967000,-2.455138
0.968000,-2.186571
0.969000,-1.934551
0.970000,-1.802176
0.971000,-1.285407
0.972000,-0.636264
0.973000,-0.283690
0.974000,0.025608
0.975000,0.168165
0.976000,0.135071
0.977000,-0.237868
0.978000,-0.828461
0.979000,-1.427964
0.980000,-1.977827
0.981000,-1.853089
0.982000,-1.478877
0.983000,-1.315955
0.984000,-1.399962
0.985000,-1.595978
0.986000,-1.844180
0.987000,-1.915458
0.988000,-2.070743
0.989000,-2.255304
0.990000,-2.369858
0.991000,-2.306217
0.992000,-2.091109
0.993000,-2.038923
0.994000,-1.858181
0.995000,-1.636708
0.996000,-1.508152
0.997000,-1.163216
0.998000,-0.738090
0.999000,-0.165317
1.000000,0.543649
1.001000,0.814762
1.002000,0.766395
1.003000,0.964956
1.004000,0.889859
1.005000,0.201258
1.006000,-0.577714
1.007000,-0.776275
1.008000,0.075248
1.009000,0.486372
1.010000,0.059974
1.011000,-0.562440
1.012000,-1.503061
1.013000,-2.737706
1.014000,-4.130182
1.015000,-5.138264
1.016000,-5.749222
1.017000,-5.957966
1.018000,-5.840866
1.019000,-5.201905
1.020000,-4.433116
1.021000,-3.834886
1.022000,-2.971907
1.023000,-2.189117
1.024000,-1.478877
1.025000,-0.753364
1.026000,-0.430065
1.027000,-0.262052
1.028000,-0.464432
1.029000,-0.753364
1.030000,-0.945562
1.031000,-0.832280
1.032000,0.031972
1.033000,0.576743
1.034000,0.539831
1.035000,0.247080
1.036000,0.056156
1.037000,-0.004940
1.038000,-0.318056
1.039000,-0.893376
1.040000,-1.111030
1.041000,-0.817006
1.042000,-0.850099
1.043000,-1.279043
1.044000,-1.449602
1.045000,-1.564157
1.046000,-1.967644
1.047000,-2.363494
1.048000,-2.894264
1.049000,-3.330845
1.050000,-3.664326
1.051000,-3.561227
1.052000,-3.381758
1.053000,-3.274841
1.054000,-2.919721
1.055000,-2.559510
1.056000,-2.154750
1.057000,-2.022376
1.058000,-1.566703
1.059000,-1.021931
1.060000,-0.519164
1.061000,-0.328239
1.062000,-0.335876
1.063000,-0.441521
1.064000,-0.642628
1.065000,-0.743182
1.066000,-0.969745
1.067000,-1.023204
1.068000,-0.430065
1.069000,-0.176772
1.070000,0.048519
1.071000,0.936954
1.072000,1.345532
1.073000,0.821126
1.074000,-0.036761
1.075000,-0.866646
1.076000,-1.758900
1.077000,-2.592604
1.078000,-3.189561
1.079000,-3.537043
1.080000,-3.693602
1.081000,-3.201016
1.082000,-2.423317
1.083000,-1.001566
1.084000,0.277628
1.085000,1.122787
1.086000,1.104967
1.087000,0.392183
1.088000,-0.641355
1.089000,-1.742353
1.090000,-2.917175
1.091000,-3.848887
1.092000,-4.464937
1.093000,-4.668589
1.094000,-4.524760
1.095000,-4.252374
1.096000,-3.907437
1.097000,-3.479766
1.098000,-2.933722
1.099000,-2.047832
1.100000,-1.412690
1.101000,-1.013022
1.102000,-0.337149
1.103000,-0.027851
1.104000,0.306903
1.105000,0.550014
1.106000,0.480008
1.107000,0.133798
1.108000,-0.127132
1.109000,-0.694814
1.110000,-1.331229
1.111000,-1.905275
1.112000,-2.234938
1.113000,-2.172570
1.114000,-2.150932
1.115000,-2.200572
1.116000,-2.199299
1.117000,-1.805995
1.118000,-1.379597
1.119000,-0.592988
1.120000,0.771486
1.121000,2.074864
1.122000,1.975583
1.123000,1.581006
1.124000,0.737120
1.125000,-0.139860
1.126000,-1.028296
1.127000,-1.859454
1.128000,-2.751707
1.129000,-3.554863
1.130000,-4.154366
1.131000,-4.300741
1.132000,-4.340199
1.133000,-4.271466
1.134000,-4.177277
1.135000,-3.460674
1.136000,-2.754253
1.137000,-2.413135
1.138000,-1.904003
1.139000,-1.405053
1.140000,-0.995202
1.141000,-0.837371
1.142000,-0.780094
1.143000,-0.926469
1.144000,-1.261223
1.145000,-1.699077
1.146000,-2.122929
1.147000,-2.388951
1.148000,-2.422044
1.149000,-2.170024
1.150000,-1.817450
1.151000,-1.618889
1.152000,-1.356686
1.153000,-1.090664
1.154000,-0.256961
1.155000,0.724391
1.156000,1.932307
1.157000,2.260697
1.158000,2.081228
1.159000,1.839390
1.160000,1.792296
1.161000,1.400264
1.162000,1.817752
1.163000,1.789750
1.164000,0.925498
1.165000,0.096886
1.166000,-1.357959
1.167000,-3.131011
1.168000,-4.883698
1.169000,-6.167983
1.170000,-6.880768
1.171000,-7.127697
1.172000,-6.717846
1.173000,-6.216351
1.174000,-5.451380
1.175000,-4.574400
1.176000,-3.926529
1.177000,-3.288842
1.178000,-2.587512
1.179000,-1.818723
1.180000,-1.284134
1.181000,-1.117394
1.182000,-0.971018
1.183000,-0.744455
1.184000,-0.759728
1.185000,-0.838644
1.186000,-0.659175
1.187000,-0.421156
1.188000,-0.389335
1.189000,-0.460613
1.190000,-0.372788
1.191000,-0.029124
1.192000,0.303085
1.193000,0.585653
1.194000,0.455824
1.195000,0.220351
1.196000,-0.116949
1.197000,-0.645174
1.198000,-1.313410
1.199000,-1.902730
1.200000,-2.257849
1.201000,-2.534053
1.202000,-2.488232
1.203000,-2.294761
1.204000,-1.826360
1.205000,-1.327411
1.206000,-0.450431
1.207000,0.522011
1.208000,1.038780
1.209000,1.325167
1.210000,0.980230
1.211000,0.156709
1.212000,-0.817006
1.213000,-1.784357
1.214000,-2.545509
1.215000,-2.782255
1.216000,-3.033003
1.217000,-3.122101
1.218000,-3.072461
1.219000,-3.082643
1.220000,-3.096644
1.221000,-2.987181
1.222000,-2.343129
1.223000,-1.974008
1.224000,-1.758900
1.225000,-1.341412
1.226000,-0.715179
1.227000,0.669660
1.228000,1.601371
1.229000,2.193237
1.230000,2.101593
1.231000,1.308620
1.232000,0.072702
1.233000,-1.403780
1.234000,-3.002455
1.235000,-4.204006
1.236000,-4.891335
1.237000,-4.691500
1.238000,-4.037266
1.239000,-3.459401
1.240000,-2.980817
1.241000,-2.737706
1.242000,-2.508597
1.243000,-1.883637
1.244000,-1.730898
1.245000,-1.718169
1.246000,-1.597251
1.247000,-1.842907
1.248000,-1.863272
1.249000,-1.780538
1.250000,-1.993101
1.251000,-2.255304
1.252000,-2.471685
1.253000,-2.569693
1.254000,-2.544236
1.255000,-2.181480
1.256000,-1.826360
1.257000,-0.699905
1.258000,1.348078
1.259000,2.141051
1.260000,2.491079
1.261000,2.314156
1.262000,1.764293
1.263000,1.087148
1.264000,0.085431
1.265000,-1.254859
1.266000,-2.499687
1.267000,-3.385577
1.268000,-3.729241
1.269000,-3.983807
1.270000,-3.716513
1.271000,-3.936712
1.272000,-3.836159
1.273000,-3.413579
1.274000,-2.866262
1.275000,-2.335492
1.276000,-1.963826
1.277000,-1.901457
1.278000,-1.644345
1.279000,-1.356686
1.280000,-1.024477
1.281000,-0.845008
1.282000,-0.670630
1.283000,-0.482252
1.284000,0.020516
1.285000,0.122343
1.286000,-0.180591
1.287000,-0.323148
1.288000,-0.424974
1.289000,-0.757183
1.290000,-1.029568
1.291000,-1.056298
1.292000,-0.708815
1.293000,-0.497525
1.294000,-0.600625
1.295000,-0.852645
1.296000,-1.389779
1.297000,-1.935823
1.298000,-2.330401
1.299000,-2.853534
1.300000,-3.193379
1.301000,-3.381758
1.302000,-3.313025
1.303000,-3.035548
1.304000,-2.843351
1.305000,-2.698249
1.306000,-2.206936
1.307000,-1.762718
1.308000,-1.181035
1.309000,-0.666812
1.310000,-0.291327
1.311000,0.029426
1.312000,0.179620
1.313000,-0.025306
1.314000,-0.487343
1.315000,-0.547166
1.316000,-0.306601
1.317000,-0.498798
1.318000,-0.778821
1.319000,-0.710088
1.320000,-0.759728
1.321000,-0.979928
1.322000,-1.046115
1.323000,-1.122485
1.324000,-1.430510
1.325000,-2.038923
1.326000,-2.756799
1.327000,-3.277386
1.328000,-2.796256
1.329000,-2.229847
1.330000,-1.285407
1.331000,-0.776275
1.332000,-0.507708
1.333000,-0.368970
1.334000,-0.564985
1.335000,-1.145396
1.336000,-1.672348
1.337000,-2.126748
1.338000,-2.500960
1.339000,-2.864989
1.340000,-3.293933
1.341000,-3.451764
1.342000,-3.411033
1.343000,-2.984635
1.344000,-1.780538
1.345000,-1.046115
1.346000,-0.562440
1.347000,-0.419883
1.348000,-0.240414
1.349000,-0.465705
1.350000,-0.908650
1.351000,-1.135213
1.352000,-1.685076
1.353000,-1.898911
1.354000,-2.312581
1.355000,-2.652427
1.356000,-2.942632
1.357000,-3.291387
1.358000,-3.605776
1.359000,-3.590502
1.360000,-3.472129
1.361000,-3.108100
1.362000,-2.238757
1.363000,-1.324865
1.364000,-0.287509
1.365000,1.414265
1.366000,2.305246
1.367000,2.373979
1.368000,2.310337
1.369000,1.642102
1.370000,0.548741
1.371000,-0.703724
1.372000,-2.012193
1.373000,-3.129738
1.374000,-3.838704
1.375000,-4.060177
1.376000,-4.240918
1.377000,-4.139092
1.378000,-3.722877
1.379000,-3.124647
1.380000,-2.433500
1.381000,-2.094927
1.382000,-1.781811
1.383000,-1.433056
1.384000,-0.988838
1.385000,-0.466978
1.386000,-0.109312
1.387000,-0.269689
1.388000,-0.248051
1.389000,-0.059672
1.390000,0.093068
1.391000,0.096886
1.392000,-0.180591
1.393000,-0.426247
1.394000,-0.670630
1.395000,-1.035933
1.396000,-1.331229
1.397000,-1.632890
1.398000,-2.002011
1.399000,-1.970190
1.400000,-1.968917
1.401000,-1.760173
1.402000,-1.721988
1.403000,-1.957461
1.404000,-2.000738
1.405000,-1.730898
1.406000,-1.466149
1.407000,-1.294317
1.408000,-1.421600
1.409000,-1.651982
1.410000,-1.704168
1.411000,-1.588341
1.412000,-1.523426
1.413000,-1.534882
1.414000,-1.300681
1.415000,-1.192491
1.416000,-0.797913
1.417000,0.846583
1.418000,2.510172
1.419000,2.654002
1.420000,2.272153
1.421000,1.298438
1.422000,0.062520
1.423000,-1.007930
1.424000,-2.254031
1.425000,-3.127192
1.426000,-3.973624
1.427000,-4.509486
1.428000,-4.825147
1.429000,-5.203178
1.430000,-5.340644
1.431000,-4.589674
1.432000,-4.308378
1.433000,-3.549772
1.434000,-2.716068
1.435000,-1.907821
1.436000,-1.067753
1.437000,-0.822097
1.438000,-0.824643
1.439000,-0.792822
1.440000,-0.866646
1.441000,-1.173398
1.442000,-1.441965
1.443000,-2.016012
1.444000,-2.601513
1.445000,-2.895537
1.446000,-2.721159
1.447000,-2.471685
1.448000,-1.988009
1.449000,-1.345230
1.450000,-0.734272
1.451000,0.114706
1.452000,0.660750
1.453000,0.823672
1.454000,0.774032
1.455000,0.347634
1.456000,-0.480979
1.457000,-1.360504
1.458000,-2.214573
1.459000,-2.693157
1.460000,-2.984635
1.461000,-2.992272
1.462000,-2.675338
1.463000,-2.514961
1.464000,-2.343129
1.465000,-1.972735
1.466000,-1.706714
1.467000,-1.296863
1.468000,-1.035933
1.469000,-0.944289
1.470000,-0.944289
1.471000,-0.754637
1.472000,-0.254415
1.473000,1.241160
1.474000,2.343431
1.475000,2.480897
1.476000,1.885212
1.477000,0.761303
1.478000,-0.402063
1.479000,-1.259951
1.480000,-2.270578
1.481000,-3.073733
1.482000,-3.601958
1.483000,-3.935439
1.484000,-4.190005
1.485000,-4.251101
1.486000,-3.985080
1.487000,-3.804338
1.488000,-3.437763
1.489000,-2.919721
1.490000,-2.072016
1.491000,-1.566703
1.492000,-1.601069
1.493000,-1.612525
1.494000,-1.450875
1.495000,-1.287953
1.496000,-0.923924
1.497000,-0.907377
1.498000,-0.795368
1.499000,-0.468250
1.500000,0.211441
1.501000,0.328541
1.502000,0.285265
1.503000,0.156709
1.504000,-0.232777
1.505000,-0.850099
1.506000,-1.383415
1.507000,-1.878546
1.508000,-2.064379
1.509000,-2.158569
1.510000,-2.070743
1.511000,-1.948552
1.512000,-1.845452
1.513000,-1.677439
1.514000,-1.416509
1.515000,-1.085573
1.516000,-0.968473
1.517000,-0.929015
1.518000,-1.055025
1.519000,-1.458512
1.520000,-1.794539
1.521000,-1.904003
1.522000,-1.977827
1.523000,-1.999465
1.524000,-2.061834
1.525000,-2.054197
1.526000,-1.662165
1.527000,-1.063935
1.528000,-0.757183
1.529000,-0.676995
1.530000,-0.666812
1.531000,-0.137315
1.532000,0.201258
1.533000,0.051064
1.534000,-0.492434
1.535000,-1.067753
1.536000,-1.576885
1.537000,-2.252758
1.538000,-3.082643
1.539000,-3.762334
1.540000,-4.281649
1.541000,-4.330017
1.542000,-3.992717
1.543000,-3.636324
1.544000,-3.089007
1.545000,-2.187844
1.546000,-1.301954
1.547000,-0.506435
1.548000,-0.226413
1.549000,-0.161498
1.550000,-0.104221
1.551000,-0.324421
1.552000,-0.385516
1.553000,-0.436430
1.554000,-0.563713
1.555000,-0.967200
1.556000,-1.606160
1.557000,-2.094927
1.558000,-2.077107
1.559000,-2.035104
1.560000,-2.143295
1.561000,-2.228574
1.562000,-2.231120
1.563000,-2.260395
1.564000,-2.278215
1.565000,-2.252758
1.566000,-2.271850
1.567000,-2.115292
1.568000,-1.870909
1.569000,-1.566703
1.570000,-1.347776
1.571000,-1.048661
1.572000,-0.789004
1.573000,-0.792822
1.574000,-0.907377
1.575000,-0.986292
1.576000,-0.943016
1.577000,-0.874283
1.578000,-0.982474
1.579000,-1.121212
1.580000,-1.234494
1.581000,-1.455966
1.582000,-1.350322
1.583000,-1.361777
1.584000,-1.494151
1.585000,-1.524699
1.586000,-1.541246
1.587000,-1.611252
1.588000,-1.660892
1.589000,-1.542519
1.590000,-1.506880
1.591000,-1.524699
1.592000,-1.505607
1.593000,-1.083027
1.594000,-0.638810
1.595000,0.003970
1.596000,0.380727
1.597000,1.218249
1.598000,1.672650
1.599000,1.592461
1.600000,1.018415
1.601000,0.007788
1.602000,-1.037205
1.603000,-1.827633
1.604000,-2.693157
1.605000,-2.980817
1.606000,-3.141193
1.607000,-3.421216
1.608000,-3.353756
1.609000,-3.344846
1.610000,-3.521770
1.611000,-3.528134
1.612000,-3.493767
1.613000,-3.525588
1.614000,-3.683419
1.615000,-3.622323
1.616000,-3.220109
1.617000,-2.761890
1.618000,-1.646891
1.619000,-0.436430
1.620000,0.048519
1.621000,0.164346
1.622000,-0.012577
1.623000,-0.417337
1.624000,-0.791549
1.625000,-0.973564
1.626000,-1.233221
1.627000,-1.495424
1.628000,-1.645618
1.629000,-1.896366
1.630000,-1.794539
1.631000,-1.265042
1.632000,-0.572622
1.633000,-0.012577
1.634000,0.327268
1.635000,0.594563
1.636000,0.422731
1.637000,-0.147497
1.638000,-0.979928
1.639000,-1.807268
1.640000,-2.503506
1.641000,-3.012638
1.642000,-3.459401
1.643000,-3.764880
1.644000,-3.892163
1.645000,-3.974897
1.646000,-3.797974
1.647000,-3.332118
1.648000,-2.758072
1.649000,-2.401679
1.650000,-2.007102
1.651000,-1.525972
1.652000,-0.929015
1.653000,-0.497525
1.654000,-0.270962
1.655000,-0.213684
1.656000,-0.399518
1.657000,-0.772457
1.658000,-1.089391
1.659000,-1.212856
1.660000,-1.249768
1.661000,-1.085573
1.662000,-0.901013
1.663000,-0.441521
1.664000,0.331087
1.665000,0.403638
1.666000,0.262354
1.667000,0.009061
1.668000,-0.542075
1.669000,-1.137759
1.670000,-1.752536
1.671000,-2.274396
1.672000,-2.755526
1.673000,-2.980817
1.674000,-2.727524
1.675000,-1.947279
1.676000,-1.117394
1.677000,0.115979
1.678000,1.084602
1.679000,1.668831
1.680000,1.537730
1.681000,0.928044
1.682000,0.137617
1.683000,-0.796641
1.684000,-2.088563
1.685000,-3.209926
1.686000,-3.813248
1.687000,-4.211643
1.688000,-4.373293
1.689000,-4.062722
1.690000,-3.901073
1.691000,-3.680873
1.692000,-3.386850
1.693000,-3.048277
1.694000,-2.770800
1.695000,-2.466593
1.696000,-2.252758
1.697000,-1.823814
1.698000,-0.959563
1.699000,-0.596806
1.700000,-0.604443
1.701000,-0.715179
1.702000,-0.857736
1.703000,-0.983747
1.704000,-0.949380
1.705000,-1.044842
1.706000,-1.133940
1.707000,-1.197582
1.708000,-1.347776
1.709000,-1.522154
1.710000,-1.651982
1.711000,-1.383415
1.712000,-0.893376
1.713000,-0.203502
1.714000,0.295448
1.715000,0.303085
1.716000,-0.216230
1.717000,-1.084300
1.718000,-1.934551
1.719000,-2.444955
1.720000,-2.102564
1.721000,-1.575612
1.722000,-1.564157
1.723000,-1.584522
1.724000,-1.811086
1.725000,-2.105110
1.726000,-2.385132
1.727000,-2.602786
1.728000,-2.647335
1.729000,-2.520052
1.730000,-1.892547
1.731000,-0.855191
1.732000,0.203804
1.733000,0.944591
1.734000,0.994231
1.735000,0.574197
1.736000,0.038336
1.737000,-0.610807
1.738000,-1.532336
1.739000,-2.406770
1.740000,-3.332118
1.741000,-3.963442
1.742000,-4.219280
1.743000,-3.973624
1.744000,-3.607049
1.745000,-3.311753
1.746000,-2.686793
1.747000,-1.841634
1.748000,-1.357959
1.749000,-1.058844
1.750000,-0.986292
1.751000,-1.174671
1.752000,-1.304500
1.753000,-1.623980
1.754000,-1.897638
1.755000,-2.038923
1.756000,-1.946006
1.757000,-1.630344
1.758000,-1.037205
1.759000,-0.435157
1.760000,-0.346059
1.761000,-0.297691
1.762000,-0.160226
1.763000,-0.049489
1.764000,-0.211139
1.765000,-0.620990
1.766000,-1.188672
1.767000,-1.587068
1.768000,-2.008375
1.769000,-2.373677
1.770000,-2.420772
1.771000,-1.473786
1.772000,-0.945562
1.773000,-0.861555
1.774000,-0.901013
1.775000,-0.939197
1.776000,-0.991384
1.777000,-0.981201
1.778000,-1.024477
1.779000,-1.137759
1.780000,-1.338866
1.781000,-1.616343
1.782000,-1.602342
1.783000,-1.749990
1.784000,-1.817450
1.785000,-1.888729
1.786000,-1.914185
1.787000,-1.593432
1.788000,-1.532336
1.789000,-1.617616
1.790000,-1.576885
1.791000,-1.620162
1.792000,-1.257405
1.793000,-1.139032
1.794000,-0.366424
1.795000,1.448632
1.796000,2.092684
1.797000,1.943762
1.798000,1.225886
1.799000,0.294175
1.800000,-0.997748
1.801000,-2.520052
1.802000,-4.057631
1.803000,-5.205724
1.804000,-5.880323
1.805000,-5.989787
1.806000,-5.828137
1.807000,-5.526477
1.808000,-4.668589
1.809000,-3.754697
1.810000,-2.648608
1.811000,-1.133940
1.812000,-0.230231
1.813000,0.337451
1.814000,0.240716
1.815000,0.020516
1.816000,-0.094038
1.817000,-0.197138
1.818000,-0.581532
1.819000,-0.879374
1.820000,-1.238313
1.821000,-1.511971
1.822000,-1.645618
1.823000,-2.014739
1.824000,-2.346947
1.825000,-2.120384
1.826000,-1.239585
1.827000,-0.828461
1.828000,-0.370242
1.829000,-0.150043
1.830000,-0.059672
1.831000,-0.236595
1.832000,-0.596806
1.833000,-1.193763
1.834000,-1.797085
1.835000,-1.928186
1.836000,-1.016840
1.837000,-1.000293
1.838000,-1.075390
1.839000,-1.497970
1.840000,-2.185298
1.841000,-2.443683
1.842000,-2.442410
1.843000,-2.301126
1.844000,-2.306217
1.845000,-2.204390
1.846000,-2.172570
1.847000,-2.162387
1.848000,-2.016012
1.849000,-1.676166
1.850000,-1.482696
1.851000,-1.369414
1.852000,-0.974837
1.853000,-0.859009
1.854000,-0.967200
1.855000,-1.303227
1.856000,-1.590886
1.857000,-1.831451
1.858000,-1.860726
1.859000,-1.851817
1.860000,-1.546337
1.861000,-1.336320
1.862000,-1.203946
1.863000,-1.207765
1.864000,-1.020659
1.865000,-0.640082
1.866000,-0.510254
1.867000,-0.096584
1.868000,0.059974
1.869000,-0.157680
1.870000,-0.375334
1.871000,-0.596806
1.872000,-0.553530
1.873000,-0.528073
1.874000,-0.735545
1.875000,-1.116121
1.876000,-1.542519
1.877000,-1.944733
1.878000,-2.414407
1.879000,-2.747889
1.880000,-3.099190
1.881000,-3.184470
1.882000,-2.707158
1.883000,-2.139476
1.884000,-2.021103
1.885000,-1.567976
1.886000,-1.211583
1.887000,-1.341412
1.888000,-1.158124
1.889000,-0.755910
1.890000,0.603472
1.891000,1.382444
1.892000,1.279345
1.893000,0.598381
1.894000,-0.619717
1.895000,-2.018557
1.896000,-2.791165
1.897000,-3.479766
1.898000,-3.537043
1.899000,-3.514133
1.900000,-3.311753
1.901000,-2.919721
1.902000,-2.922267
1.903000,-2.898083
1.904000,-3.055914
1.905000,-2.723705
1.906000,-2.503506
1.907000,-2.385132
1.908000,-2.257849
1.909000,-2.382587
1.910000,-2.204390
1.911000,-1.932005
1.912000,-1.567976
1.913000,-1.466149
1.914000,-1.438147
1.915000,-1.394871
1.916000,-1.475059
1.917000,-1.336320
1.918000,-0.908650
1.919000,-0.418610
1.920000,0.160528
1.921000,0.420185
1.922000,0.361635
1.923000,0.227988
1.924000,-0.337149
1.925000,-1.217947
1.926000,-1.943460
1.927000,-2.411862
1.928000,-2.726251
1.929000,-2.787347
1.930000,-2.849715
1.931000,-2.583694
1.932000,-2.051651
1.933000,-1.659619
1.934000,-0.949380
1.935000,-0.524255
1.936000,-0.475887
1.937000,-0.669358
1.938000,-0.836098
1.939000,-1.069026
1.940000,-1.438147
1.941000,-1.676166
1.942000,-1.790721
1.943000,-1.758900
1.944000,-1.332502
1.945000,-0.577714
1.946000,0.189803
1.947000,0.373090
1.948000,0.122343
1.949000,-0.172954
1.950000,-0.590442
1.951000,-1.226857
1.952000,-1.896366
1.953000,-2.115292
1.954000,-2.307490
1.955000,-2.303671
1.956000,-2.203118
1.957000,-2.115292
1.958000,-1.900184
1.959000,-2.013466
1.960000,-2.142022
1.961000,-2.254031
1.962000,-2.282033
1.963000,-1.952370
1.964000,-1.616343
1.965000,-1.551429
1.966000,-1.384688
1.967000,-1.168307
1.968000,-1.265042
1.969000,-1.491606
1.970000,-1.459785
1.971000,-1.321046
1.972000,-1.127576
1.973000,-1.066480
1.974000,-1.142850
1.975000,-0.707542
1.976000,-0.006213
1.977000,0.600927
1.978000,1.172427
1.979000,1.364625
1.980000,1.220795
1.981000,0.835128
1.982000,-0.011304
1.983000,-1.476332
1.984000,-2.992272
1.985000,-4.071632
1.986000,-4.719503
1.987000,-5.126808
1.988000,-5.359736
1.989000,-5.186631
1.990000,-4.956249
1.991000,-4.461118
1.992000,-3.661781
1.993000,-2.980817
1.994000,-2.490777
1.995000,-1.604888
1.996000,-0.797913
1.997000,0.441823
1.998000,0.938227
1.999000,0.998050
2.000000,0.763849
2.001000,0.091795
2.002000,-0.474615
2.003000,-1.291771
2.004000,-1.811086
2.005000,-2.257849
2.006000,-2.382587
2.007000,-2.401679
2.008000,-2.397861
2.009000,-2.509870
2.010000,-2.553146
2.011000,-2.481867
2.012000,-2.145840
2.013000,-1.747445
2.014000,-1.468695
2.015000,-1.361777
2.016000,-0.819551
2.017000,-0.136042
2.018000,0.287811
2.019000,0.525830
2.020000,0.733301
2.021000,0.968775
2.022000,0.588198
2.023000,-0.096584
2.024000,-0.915014
2.025000,-1.573067
2.026000,-2.111474
2.027000,-2.522598
2.028000,-2.584967
2.029000,-2.133112
2.030000,-1.825087
2.031000,-1.262496
2.032000,-0.494980
2.033000,-0.082583
2.034000,0.019243
2.035000,-0.225140
2.036000,-0.799186
2.037000,-1.235767
2.038000,-1.373233
2.039000,-1.830178
2.040000,-2.322764
2.041000,-2.670246
2.042000,-2.914630
2.043000,-3.287569
2.044000,-3.780154
2.045000,-3.862888
2.046000,-2.890446
2.047000,-2.265486
2.048000,-1.783084
2.049000,-1.150487
2.050000,-0.993929
2.051000,-1.141577
2.052000,-1.020659
2.053000,-0.925196
2.054000,-1.021931
2.055000,-1.308318
2.056000,-1.660892
2.057000,-2.143295
2.058000,-2.619333
2.059000,-3.058459
2.060000,-3.293933
2.061000,-3.059732
2.062000,-2.481867
2.063000,-2.098746
2.064000,-1.450875
2.065000,-0.626081
2.066000,0.164346
2.067000,0.767668
2.068000,1.048963
2.069000,0.962411
2.070000,0.455824
2.071000,-0.366424
2.072000,-0.684631
2.073000,-1.057571
2.074000,-1.426691
2.075000,-1.458512
2.076000,-1.601069
2.077000,-1.939642
2.078000,-2.231120
2.079000,-2.588785
2.080000,-2.870081
2.081000,-2.695703
2.082000,-2.038923
2.083000,-1.716897
2.084000,-1.606160
2.085000,-1.411417
2.086000,-1.321046
2.087000,-1.321046
2.088000,-1.435601
2.089000,-1.604888
2.090000,-1.277770
2.091000,-1.363050
2.092000,-1.634163
2.093000,-1.965098
2.094000,-2.120384
2.095000,-2.298580
2.096000,-2.107655
2.097000,-1.966371
2.098000,-1.650709
2.099000,-0.926469
2.100000,-0.584078
2.101000,-0.083856
2.102000,0.240716
2.103000,0.201258
2.104000,0.164346
2.105000,-0.078764
2.106000,-0.503890
2.107000,-1.113575
2.108000,-1.769083
2.109000,-2.280760
2.110000,-2.716068
2.111000,-2.801348
2.112000,-3.085189
2.113000,-3.245565
2.114000,-3.212472
2.115000,-3.030457
2.116000,-2.765709
2.117000,-2.532781
2.118000,-2.168751
2.119000,-1.965098
2.120000,-1.741080
2.121000,-1.419054
2.122000,-1.173398
2.123000,-1.094483
2.124000,-0.911195
2.125000,-0.648992
2.126000,-0.652811
2.127000,-0.741909
2.128000,-0.837371
2.129000,-0.897194
2.130000,-0.399518
2.131000,0.555105
2.132000,0.870767
2.133000,1.290801
2.134000,1.224613
2.135000,0.775305
2.136000,0.249626
2.137000,-0.013850
2.138000,-0.506435
2.139000,-1.314682
2.140000,-2.089836
2.141000,-2.886627
2.142000,-3.556136
2.143000,-4.009263
2.144000,-3.836159
2.145000,-2.959179
2.146000,-2.768254
2.147000,-2.616787
2.148000,-2.187844
2.149000,-2.124202
2.150000,-2.364767
2.151000,-2.391497
2.152000,-2.240030
2.153000,-2.273123
2.154000,-2.274396
2.155000,-2.349493
2.156000,-2.677883
2.157000,-3.100463
2.158000,-3.307934
2.159000,-3.279932
2.160000,-2.801348
2.161000,-1.767810
2.162000,-1.067753
2.163000,-0.638810
2.164000,-0.218776
2.165000,-0.102948
2.166000,-0.231504
2.167000,0.007788
2.168000,0.454551
2.169000,0.185984
2.170000,-0.309147
2.171000,-0.841190
2.172000,-1.188672
2.173000,-1.374505
2.174000,-1.830178
2.175000,-2.096200
2.176000,-2.371131
2.177000,-2.523871
2.178000,-2.582421
2.179000,-2.444955
2.180000,-2.374950
2.181000,-2.233666
2.182000,-2.047832
2.183000,-1.715624
2.184000,-1.126303
2.185000,-0.511527
2.186000,-0.259506
2.187000,-0.385516
2.188000,-0.603170
2.189000,-0.929015
2.190000,-1.313410
2.191000,-1.300681
2.192000,-1.343957
2.193000,-1.447057
2.194000,-1.477605
2.195000,-1.305773
2.196000,-1.139032
2.197000,-0.829734
2.198000,-0.498798
2.199000,0.040882
2.200000,-0.029124
2.201000,-0.335876
2.202000,-0.759728
2.203000,-1.075390
2.204000,-1.201400
2.205000,-1.589614
2.206000,-2.003283
2.207000,-2.030013
2.208000,-1.711805
2.209000,-0.945562
2.210000,0.397274
2.211000,0.858038
2.212000,0.572925
2.213000,0.037063
2.214000,-0.568804
2.215000,-0.983747
2.216000,-2.232393
2.217000,-3.649053
2.218000,-4.748778
2.219000,-5.194268
2.220000,-5.154810
2.221000,-4.837876
2.222000,-4.341472
2.223000,-3.554863
2.224000,-2.534053
2.225000,-1.366868
2.226000,-0.166590
2.227000,0.483826
2.228000,0.580562
2.229000,0.239443
2.230000,-0.571350
2.231000,-1.410145
2.232000,-2.140749
2.233000,-2.618060
2.234000,-2.862444
2.235000,-2.909538
2.236000,-2.742798
2.237000,-2.396588
2.238000,-1.864545
2.239000,-1.477605
2.240000,-1.083027
2.241000,-0.827188
2.242000,-0.501344
2.243000,-0.151316
2.244000,0.149072
2.245000,0.066338
2.246000,-0.293873
2.247000,-1.006657
2.248000,-1.681257
2.249000,-2.251485
2.250000,-2.293489
2.251000,-1.888729
2.252000,-1.710532
2.253000,-1.252314
2.254000,-0.971018
2.255000,-1.057571
2.256000,-1.699077
2.257000,-2.425863
2.258000,-2.693157
2.259000,-2.731342
2.260000,-2.665155
2.261000,-2.452592
2.262000,-1.804722
2.263000,-1.455966
2.264000,-1.178490
2.265000,-0.972291
2.266000,-0.754637
2.267000,-0.255688
2.268000,0.202531
2.269000,0.374363
2.270000,0.156709
2.271000,-0.242959
2.272000,-0.747000
2.273000,-0.990111
2.274000,-1.431783
2.275000,-1.832724
2.276000,-2.177661
2.277000,-2.451320
2.278000,-2.549327
2.279000,-2.680429
2.280000,-2.686793
2.281000,-2.660064
2.282000,-2.684247
2.283000,-2.628243
2.284000,-2.238757
2.285000,-2.000738
2.286000,-1.868363
2.287000,-1.597251
2.288000,-1.158124
2.289000,-0.295146
2.290000,0.066338
2.291000,0.352725
2.292000,0.367999
2.293000,0.155436
2.294000,-0.344786
2.295000,-0.785185
2.296000,-1.196309
2.297000,-1.389779
2.298000,-1.625253
2.299000,-1.816177
2.300000,-2.074562
2.301000,-2.070743
2.302000,-1.816177
2.303000,-1.440693
2.304000,-1.215402
2.305000,-1.449602
2.306000,-1.571794
2.307000,-1.668529
2.308000,-1.809813
2.309000,-1.290499
2.310000,-0.245505
2.311000,-0.068582
2.312000,-0.124586
2.313000,-0.698633
2.314000,-0.822097
2.315000,-0.946834
2.316000,-1.205219
2.317000,-1.683803
2.318000,-2.128021
2.319000,-2.122929
2.320000,-2.114020
2.321000,-2.629516
2.322000,-3.398305
2.323000,-3.847614
2.324000,-3.871798
2.325000,-3.360120
2.326000,-2.514961
2.327000,-0.662993
2.328000,0.248353
2.329000,0.402365
2.330000,0.219078
2.331000,-0.263325
2.332000,-0.999020
2.333000,-1.868363
2.334000,-2.805166
2.335000,-3.571410
2.336000,-3.850160
2.337000,-3.893436
2.338000,-3.621050
2.339000,-3.316844
2.340000,-3.058459
2.341000,-2.700794
2.342000,-2.413135
2.343000,-1.550156
2.344000,-0.936652
2.345000,-0.545893
2.346000,-0.223867
2.347000,0.608564
2.348000,1.085875
2.349000,1.328986
2.350000,1.513546
2.351000,0.992958
2.352000,0.196167
2.353000,-0.533165
2.354000,-1.214129
2.355000,-1.915458
2.356000,-2.567147
2.357000,-2.992272
2.358000,-3.230291
2.359000,-3.103008
2.360000,-2.847170
2.361000,-2.712250
2.362000,-2.522598
2.363000,-2.344402
2.364000,-1.892547
2.365000,-1.455966
2.366000,-1.349049
2.367000,-1.328683
2.368000,-1.307045
2.369000,-1.305773
2.370000,-1.378324
2.371000,-1.203946
2.372000,-1.069026
2.373000,-1.038478
2.374000,-0.838644
2.375000,-0.730453
2.376000,-0.366424
2.377000,0.127434
2.378000,0.341269
2.379000,0.450733
2.380000,0.376909
2.381000,0.206349
2.382000,-0.227686
2.383000,-0.741909
2.384000,-1.415236
2.385000,-1.873455
2.386000,-1.643072
2.387000,-1.733443
2.388000,-2.186571
2.389000,-2.726251
2.390000,-3.123374
2.391000,-3.370303
2.392000,-3.248111
2.393000,-3.029184
2.394000,-2.969361
2.395000,-3.076279
2.396000,-2.898083
2.397000,-2.616787
2.398000,-2.201845
2.399000,-1.910367
2.400000,-2.019830
2.401000,-2.021103
2.402000,-1.762718
2.403000,-1.221766
2.404000,-0.017669
2.405000,0.508010
2.406000,0.641657
2.407000,0.753666
2.408000,0.593290
2.409000,0.315813
2.410000,-0.050762
2.411000,-0.620990
2.412000,-1.322319
2.413000,-2.120384
2.414000,-2.959179
2.415000,-3.269749
2.416000,-3.389395
2.417000,-3.082643
2.418000,-2.508597
2.419000,-2.023649
2.420000,-1.252314
2.421000,0.137617
2.422000,0.903860
2.423000,0.985321
2.424000,0.715481
2.425000,0.028153
2.426000,-0.786458
2.427000,-1.660892
2.428000,-2.530235
2.429000,-3.483585
2.430000,-4.228190
2.431000,-4.592220
2.432000,-4.542579
2.433000,-4.374566
2.434000,-4.001626
2.435000,-3.108100
2.436000,-2.392769
2.437000,-1.561611
2.438000,-0.698633
2.439000,-0.076219
2.440000,0.126161
2.441000,0.308176
2.442000,0.379454
2.443000,0.206349
2.444000,-0.034215
2.445000,-0.375334
2.446000,-0.927742
2.447000,-1.506880
2.448000,-1.951097
2.449000,-2.380041
2.450000,-2.652427
2.451000,-2.764436
2.452000,-2.744070
2.453000,-2.495869
2.454000,-1.814905
2.455000,-1.406326
2.456000,-0.954471
2.457000,0.367999
2.458000,1.350624
2.459000,1.732473
2.460000,1.634465
2.461000,0.763849
2.462000,-0.382971
2.463000,-1.473786
2.464000,-2.420772
2.465000,-3.127192
2.466000,-3.563773
2.467000,-3.864161
2.468000,-4.063995
2.469000,-3.965987
2.470000,-3.682146
2.471000,-3.157740
2.472000,-2.567147
2.473000,-1.704168
2.474000,-0.748273
2.475000,-0.237868
2.476000,-0.118222
2.477000,-0.316784
2.478000,-0.545893
2.479000,-0.674449
2.480000,-0.974837
2.481000,-1.091937
2.482000,-0.694814
2.483000,-0.071127
2.484000,0.676024
2.485000,0.788033
2.486000,0.492736
2.487000,0.052337
2.488000,-0.405882
2.489000,-0.995202
2.490000,-1.626526
2.491000,-2.464048
2.492000,-3.120828
2.493000,-3.411033
2.494000,-3.598139
2.495000,-3.670691
2.496000,-3.636324
2.497000,-3.669418
2.498000,-3.455582
2.499000,-2.844624
2.500000,-2.595149
2.501000,-2.260395
2.502000,-1.842907
2.503000,-1.724534
2.504000,-1.733443
2.505000,-1.674893
2.506000,-1.487787
2.507000,-1.430510
2.508000,-1.307045
2.509000,-0.595533
2.510000,0.497828
2.511000,0.842764
2.512000,0.730755
2.513000,0.846583
2.514000,0.477462
2.515000,-0.144952
2.516000,-0.771184
2.517000,-1.476332
2.518000,-2.080926
2.519000,-2.399133
2.520000,-2.592604
2.521000,-2.858625
2.522000,-2.866262
2.523000,-3.095371
2.524000,-3.072461
2.525000,-2.877718
2.526000,-2.539145
2.527000,-1.864545
2.528000,-1.658346
2.529000,-1.494151
2.530000,-1.215402
2.531000,-1.025750
2.532000,-0.875556
2.533000,-1.041024
2.534000,-1.323592
2.535000,-1.545065
2.536000,-1.673620
2.537000,-1.567976
2.538000,-1.029568
2.539000,-0.732999
2.540000,-0.408427
2.541000,-0.096584
2.542000,-0.092766
2.543000,-0.344786
2.544000,-0.837371
2.545000,-1.014294
2.546000,-0.930288
2.547000,-0.771184
2.548000,-0.178045
2.549000,0.748575
2.550000,0.977684
2.551000,0.869494
2.552000,0.631475
2.553000,-0.099130
2.554000,-1.253586
2.555000,-2.171297
2.556000,-2.366040
2.557000,-2.792438
2.558000,-3.265931
2.559000,-3.587957
2.560000,-4.072905
2.561000,-4.347836
2.562000,-4.421660
2.563000,-4.411478
2.564000,-4.246010
2.565000,-3.391941
2.566000,-2.400406
2.567000,-1.758900
2.568000,-1.382142
2.569000,-1.441965
2.570000,-1.775447
2.571000,-1.791994
2.572000,-1.794539
2.573000,-1.590886
2.574000,-1.238313
2.575000,-0.777548
2.576000,-0.445339
2.577000,-0.475887
2.578000,-0.673176
2.579000,-1.084300
2.580000,-1.543792
2.581000,-1.511971
2.582000,-1.431783
2.583000,-1.287953
2.584000,-0.656629
2.585000,-0.083856
2.586000,-0.102948
2.587000,-0.601898
2.588000,-1.044842
2.589000,-1.463603
2.590000,-1.673620
2.591000,-1.949824
2.592000,-2.157296
2.593000,-2.329128
2.594000,-2.447501
2.595000,-2.532781
2.596000,-2.502233
2.597000,-2.381314
2.598000,-2.282033
2.599000,-1.958734
2.600000,-1.319774
2.601000,-0.782639
2.602000,-0.586624
2.603000,-0.553530
2.604000,-0.582805
2.605000,-0.708815
2.606000,-0.969745
2.607000,-1.275225
2.608000,-1.251041
2.609000,-0.814460
2.610000,-0.365151
2.611000,-0.228958
2.612000,-0.118222
2.613000,0.019243
2.614000,-0.153861
2.615000,-0.234050
2.616000,-0.713907
2.617000,-1.314682
2.618000,-1.960007
2.619000,-2.162387
2.620000,-1.962553
2.621000,-1.874728
2.622000,-1.728352
2.623000,-1.994374
2.624000,-1.646891
2.625000,-1.318501
2.626000,-1.231948
2.627000,-1.006657
2.628000,-0.875556
2.629000,-1.329956
2.630000,-1.948552
2.631000,-2.327855
2.632000,-2.665155
2.633000,-3.257021
2.634000,-3.561227
2.635000,-3.467038
2.636000,-3.230291
2.637000,-3.085189
2.638000,-3.129738
2.639000,-3.072461
2.640000,-2.731342
2.641000,-1.940915
2.642000,-1.447057
2.643000,-1.095756
2.644000,-0.656629
2.645000,0.005242
2.646000,0.889859
2.647000,1.342987
2.648000,0.966229
2.649000,0.505465
2.650000,0.177074
2.651000,-0.455522
2.652000,-1.065208
2.653000,-1.881092
2.654000,-2.640971
2.655000,-3.092826
2.656000,-3.409760
2.657000,-3.408488
2.658000,-3.131011
2.659000,-2.941359
2.660000,-2.404225
2.661000,-1.943460
2.662000,-1.519608
2.663000,-1.023204
2.664000,-0.346059
2.665000,0.202531
2.666000,0.542377
2.667000,0.435459
2.668000,0.247080
2.669000,-0.258233
2.670000,-1.103393
2.671000,-1.836543
2.672000,-2.511143
2.673000,-2.969361
2.674000,-3.332118
2.675000,-3.468311
2.676000,-3.332118
2.677000,-2.905720
2.678000,-2.651154
2.679000,-2.508597
2.680000,-2.408043
2.681000,-2.045287
2.682000,-1.449602
2.683000,-0.725362
2.684000,-0.361333
2.685000,0.180893
2.686000,0.514374
2.687000,0.338724
2.688000,-0.195865
2.689000,-0.772457
2.690000,-1.056298
2.691000,-1.335048
2.692000,-1.415236
2.693000,-1.224311
2.694000,-1.037205
2.695000,-0.827188
2.696000,-0.991384
2.697000,-1.090664
2.698000,-1.289226
2.699000,-1.411417
2.700000,-1.825087
2.701000,-2.231120
2.702000,-2.576057
2.703000,-2.559510
2.704000,-2.446228
2.705000,-2.214573
2.706000,-1.654528
2.707000,-1.273952
2.708000,-1.214129
2.709000,-1.245950
2.710000,-1.331229
2.711000,-1.041024
2.712000,-1.154306
2.713000,-1.496697
2.714000,-1.977827
2.715000,-2.302398
2.716000,-2.346947
2.717000,-2.124202
2.718000,-2.074562
2.719000,-2.079653
2.720000,-1.907821
2.721000,-1.317228
2.722000,-0.855191
2.723000,-0.076219
2.724000,0.115979
2.725000,0.378182
2.726000,0.967502
2.727000,0.808398
2.728000,0.422731
2.729000,0.119797
2.730000,-0.114404
2.731000,-0.396972
2.732000,-0.941743
2.733000,-1.408872
2.734000,-1.655801
2.735000,-1.711805
2.736000,-1.948552
2.737000,-2.443683
2.738000,-3.267204
2.739000,-3.815793
2.740000,-4.187460
2.741000,-4.337654
2.742000,-4.476392
2.743000,-4.491666
2.744000,-4.294377
2.745000,-3.665599
2.746000,-2.999909
2.747000,-2.419499
2.748000,-1.747445
2.749000,-1.118667
2.750000,-0.735545
2.751000,-0.654084
2.752000,-0.484797
2.753000,-0.400790
2.754000,-0.318056
2.755000,-0.529346
2.756000,-0.944289
2.757000,-1.189945
2.758000,-1.235767
2.759000,-1.401235
2.760000,-1.534882
2.761000,-1.775447
2.762000,-1.846725
2.763000,-1.303227
2.764000,-0.239141
2.765000,0.528375
2.766000,0.682388
2.767000,0.486372
2.768000,0.020516
2.769000,-0.725362
2.770000,-1.548883
2.771000,-2.355857
2.772000,-2.819167
2.773000,-2.909538
2.774000,-2.727524
2.775000,-2.306217
2.776000,-2.080926
2.777000,-2.066925
2.778000,-2.019830
2.779000,-1.907821
2.780000,-1.248495
2.781000,-0.412246
2.782000,0.154163
2.783000,0.410002
2.784000,0.198713
2.785000,-0.259506
2.786000,-0.606989
2.787000,-1.014294
2.788000,-1.546337
2.789000,-1.944733
2.790000,-2.070743
2.791000,-2.264214
2.792000,-2.480595
2.793000,-2.606605
2.794000,-2.500960
2.795000,-2.308763
2.796000,-1.930732
2.797000,-1.482696
2.798000,-1.111030
2.799000,-0.902285
2.800000,-1.108484
2.801000,-0.852645
2.802000,-1.075390
2.803000,-1.132668
2.804000,-0.810642
2.805000,-0.566258
2.806000,-0.750819
2.807000,-1.197582
2.808000,-1.700350
2.809000,-2.163660
2.810000,-2.520052
2.811000,-2.587512
2.812000,-2.672792
2.813000,-2.959179
2.814000,-3.103008
2.815000,-2.690612
2.816000,-1.814905
2.817000,-1.258678
2.818000,-0.491161
2.819000,-0.026578
2.820000,0.021789
2.821000,-0.078764
2.822000,-0.460613
2.823000,-1.137759
2.824000,-1.874728
2.825000,-2.576057
2.826000,-2.908265
2.827000,-2.494596
2.828000,-2.084744
2.829000,-1.821269
2.830000,-1.644345
2.831000,-1.830178
2.832000,-1.870909
2.833000,-2.005829
2.834000,-1.714351
2.835000,-1.327411
2.836000,-1.029568
2.837000,-0.554803
2.838000,-0.249324
2.839000,-0.099130
2.840000,-0.531892
2.841000,-0.531892
2.842000,-0.795368
2.843000,-1.388506
2.844000,-1.989282
2.845000,-2.549327
2.846000,-2.946450
2.847000,-3.170468
2.848000,-2.996091
2.849000,-2.807712
2.850000,-2.635880
2.851000,-2.438591
2.852000,-2.124202
2.853000,-1.835270
2.854000,-1.545065
2.855000,-1.142850
2.856000,-0.426247
2.857000,-0.088947
2.858000,0.894951
2.859000,1.411719
2.860000,1.230978
2.861000,0.724391
2.862000,0.127434
2.863000,-0.808096
2.864000,-1.728352
2.865000,-2.205663
2.866000,-2.873899
2.867000,-3.477220
2.868000,-3.781427
2.869000,-3.655417
2.870000,-3.409760
2.871000,-2.808985
2.872000,-2.018557
2.873000,-1.280316
2.874000,-0.888284
2.875000,-0.823370
2.876000,-0.791549
2.877000,-0.897194
2.878000,-1.259951
2.879000,-1.611252
2.880000,-1.972735
2.881000,-2.079653
2.882000,-1.858181
2.883000,-1.733443
2.884000,-1.682530
2.885000,-1.335048
2.886000,-0.214957
2.887000,0.229260
2.888000,1.428266
2.889000,1.980675
2.890000,1.614099
2.891000,0.552559
2.892000,-0.586624
2.893000,-1.599796
2.894000,-2.722432
2.895000,-3.517951
2.896000,-4.009263
2.897000,-4.145456
2.898000,-3.959623
2.899000,-3.427580
2.900000,-2.721159
2.901000,-2.126748
2.902000,-1.949824
2.903000,-1.783084
2.904000,-1.622707
2.905000,-1.728352
2.906000,-1.775447
2.907000,-1.757627
2.908000,-1.769083
2.909000,-1.702895
2.910000,-1.444511
2.911000,-1.369414
2.912000,-1.408872
2.913000,-1.293044
2.914000,-0.767365
2.915000,-0.391881
2.916000,-0.220049
2.917000,0.133798
2.918000,0.756212
2.919000,1.115150
2.920000,1.017142
2.921000,0.600927
2.922000,-0.041852
2.923000,-0.529346
2.924000,-0.874283
2.925000,-1.644345
2.926000,-2.502233
2.927000,-3.164104
2.928000,-3.720331
2.929000,-3.951986
2.930000,-4.102180
2.931000,-4.088179
2.932000,-3.780154
2.933000,-3.332118
2.934000,-3.068642
2.935000,-2.852261
2.936000,-2.565874
2.937000,-2.226029
2.938000,-2.051651
2.939000,-1.555247
2.940000,-0.697360
2.941000,-0.372788
2.942000,-0.277326
2.943000,-0.125859
2.944000,0.104523
2.945000,-0.190773
2.946000,-0.624808
2.947000,-1.058844
2.948000,-1.084300
2.949000,-0.581532
2.950000,-0.595533
2.951000,-0.234050
2.952000,-0.342240
2.953000,-0.825916
2.954000,-1.383415
2.955000,-1.637981
2.956000,-1.948552
2.957000,-2.215846
2.958000,-2.159841
2.959000,-2.176388
2.960000,-2.080926
2.961000,-2.066925
2.962000,-1.963826
2.963000,-1.803449
2.964000,-1.762718
2.965000,-1.818723
2.966000,-1.772901
2.967000,-1.716897
2.968000,-1.929459
2.969000,-2.195481
2.970000,-2.355857
2.971000,-2.434773
2.972000,-2.303671
2.973000,-1.886183
2.974000,-1.669802
2.975000,-1.506880
2.976000,-1.351594
2.977000,-1.223039
2.978000,-1.130122
2.979000,-0.930288
2.980000,-0.853918
2.981000,-0.847554
2.982000,0.012879
2.983000,0.886041
2.984000,1.279345
2.985000,1.295892
2.986000,0.804580
2.987000,0.118524
2.988000,-0.348604
2.989000,-0.987565
2.990000,-1.649437
2.991000,-2.195481
2.992000,-2.699521
2.993000,-3.123374
2.994000,-3.367757
2.995000,-2.955360
2.996000,-2.545509
2.997000,-1.916731
2.998000,-1.687622
2.999000,-1.388506
3.000000,-1.338866
3.001000,-1.510698
3.002000,-1.906548
3.003000,-2.378768
3.004000,-2.768254
3.005000,-3.011365
3.006000,-2.964270
3.007000,-2.778437
3.008000,-2.509870
3.009000,-1.739808
3.010000,-1.413963
3.011000,-1.158124
3.012000,-1.145396
3.013000,-1.285407
3.014000,-0.968473
3.015000,-0.992656
3.016000,-0.855191
3.017000,-0.761001
3.018000,-0.824643
3.019000,-0.787731
3.020000,-0.548439
3.021000,-0.236595
3.022000,-0.041852
3.023000,-0.138587
3.024000,-0.151316
3.025000,-0.445339
3.026000,-0.993929
3.027000,-1.802176
3.028000,-2.658791
3.029000,-3.184470
3.030000,-3.637597
3.031000,-3.797974
3.032000,-3.841250
3.033000,-3.655417
3.034000,-3.332118
3.035000,-2.994818
3.036000,-2.196754
3.037000,-0.540802
3.038000,1.001868
3.039000,2.146142
3.040000,2.330703
3.041000,1.835572
3.042000,0.781669
3.043000,-0.618444
3.044000,-1.929459
3.045000,-3.048277
3.046000,-3.524315
3.047000,-3.780154
3.048000,-3.801792
3.049000,-3.792882
3.050000,-3.717785
3.051000,-3.570137
3.052000,-3.143739
3.053000,-2.545509
3.054000,-2.019830
3.055000,-1.127576
3.056000,-0.645174
3.057000,-0.328239
3.058000,0.434186
3.059000,0.989140
3.060000,1.148244
3.061000,0.695116
3.062000,-0.080037
3.063000,-0.817006
3.064000,-1.529791
3.065000,-2.219664
3.066000,-2.703340
3.067000,-2.965543
3.068000,-3.134829
3.069000,-2.996091
3.070000,-2.671519
3.071000,-2.264214
3.072000,-1.841634
3.073000,-1.459785
3.074000,-1.202673
3.075000,-1.010476
3.076000,-0.870465
3.077000,-0.612080
3.078000,-0.428793
3.079000,-0.566258
3.080000,-0.832280
3.081000,-0.978655
3.082000,-0.935379
3.083000,-0.494980
3.084000,-0.267143
3.085000,-0.147497
3.086000,-0.416064
3.087000,-0.762274
3.088000,-0.852645
3.089000,-0.993929
3.090000,-1.457239
3.091000,-1.956189
3.092000,-2.140749
3.093000,-2.243848
3.094000,-2.008375
3.095000,-1.989282
3.096000,-1.840361
3.097000,-1.254859
3.098000,-0.472069
3.099000,0.333632
3.100000,0.889859
3.101000,1.373535
3.102000,0.906406
3.103000,0.015425
3.104000,-0.884466
3.105000,-1.818723
3.106000,-2.905720
3.107000,-3.939258
3.108000,-4.522214
3.109000,-4.915518
3.110000,-5.114080
3.111000,-4.924428
3.112000,-4.546398
3.113000,-4.268921
3.114000,-4.027083
3.115000,-3.148830
3.116000,-2.382587
3.117000,-1.589614
3.118000,-0.722816
3.119000,-0.384244
3.120000,-0.293873
3.121000,-0.433884
3.122000,-0.730453
3.123000,-0.959563
3.124000,-1.089391
3.125000,-1.205219
3.126000,-1.447057
3.127000,-1.527245
3.128000,-1.455966
3.129000,-1.374505
3.130000,-1.331229
3.131000,-1.399962
3.132000,-1.118667
3.133000,-0.907377
3.134000,-0.895921
3.135000,-0.925196
3.136000,-0.806823
3.137000,-0.017669
3.138000,0.614928
3.139000,0.415094
3.140000,0.177074
3.141000,-0.522982
3.142000,-1.261223
3.143000,-1.823814
3.144000,-2.257849
3.145000,-2.614242
3.146000,-2.737706
3.147000,-2.738979
3.148000,-2.625697
3.149000,-2.418226
3.150000,-2.279487
3.151000,-2.270578
3.152000,-2.424590
3.153000,-2.237484
3.154000,-1.137759
3.155000,-0.007486
3.156000,0.542377
3.157000,0.458370
3.158000,0.463461
3.159000,0.286538
3.160000,0.180893
3.161000,-0.015123
3.162000,-0.512799
3.163000,-1.257405
3.164000,-1.967644
3.165000,-2.658791
3.166000,-3.290114
3.167000,-3.988898
3.168000,-4.271466
3.169000,-3.936712
3.170000,-3.273568
3.171000,-2.779710
3.172000,-2.138203
3.173000,-1.690167
3.174000,-1.151760
3.175000,-0.668085
3.176000,-0.086401
3.177000,0.560196
3.178000,0.796943
3.179000,0.907679
3.180000,0.622565
3.181000,-0.202229
3.182000,-1.145396
3.183000,-2.031286
3.184000,-2.598968
3.185000,-3.068642
3.186000,-3.125919
3.187000,-3.133556
3.188000,-3.244293
3.189000,-3.213745
3.190000,-2.934995
3.191000,-2.556964
3.192000,-2.018557
3.193000,-1.543792
3.194000,-1.314682
3.195000,-1.183581
3.196000,-1.000293
3.197000,-0.184409
3.198000,0.238170
3.199000,0.301812
3.200000,0.230533
3.201000,-0.092766
3.202000,-0.357514
3.203000,-0.735545
3.204000,-1.293044
3.205000,-1.906548
3.206000,-2.415680
3.207000,-2.761890
3.208000,-2.395315
3.209000,-2.187844
3.210000,-2.150932
3.211000,-2.094927
3.212000,-2.024921
3.213000,-1.728352
3.214000,-1.272679
3.215000,-1.005385
3.216000,-0.986292
3.217000,-0.792822
3.218000,-0.150043
3.219000,-0.064763
3.220000,-0.166590
3.221000,-0.200956
3.222000,-0.842462
3.223000,-1.573067
3.224000,-2.318945
3.225000,-2.979544
3.226000,-3.068642
3.227000,-2.982090
3.228000,-2.723705
3.229000,-2.462775
3.230000,-2.079653
3.231000,-1.865818
3.232000,-1.864545
3.233000,-1.867091
3.234000,-1.823814
3.235000,-1.452148
3.236000,-1.163216
3.237000,-1.169580
3.238000,-1.047388
3.239000,-0.750819
3.240000,-0.908650
3.241000,-0.962108
3.242000,-1.018113
3.243000,-1.247222
3.244000,-1.646891
3.245000,-2.101291
3.246000,-2.392769
3.247000,-2.578603
3.248000,-2.688066
3.249000,-2.685520
3.250000,-2.548055
3.251000,-2.549327
3.252000,-2.297307
3.253000,-1.828906
3.254000,-1.503061
3.255000,-0.903558
3.256000,-0.404609
3.257000,-0.330785
3.258000,-0.311692
3.259000,-0.519164
3.260000,-0.713907
3.261000,-0.865373
3.262000,-1.116121
3.263000,-1.318501
3.264000,-1.210310
3.265000,-0.833553
3.266000,-0.832280
3.267000,-0.899740
3.268000,-0.845008
3.269000,-0.248051
3.270000,0.408729
3.271000,0.743484
3.272000,0.656931
3.273000,0.415094
3.274000,-0.026578
3.275000,-0.124586
3.276000,-0.576441
3.277000,-1.391052
3.278000,-2.190389
3.279000,-2.586239
3.280000,-2.834441
3.281000,-3.100463
3.282000,-3.425034
3.283000,-3.371576
3.284000,-3.105554
3.285000,-3.063551
3.286000,-2.960452
3.287000,-2.987181
3.288000,-2.950269
3.289000,-2.682975
3.290000,-2.265486
3.291000,-1.365596
3.292000,-0.591715
3.293000,-0.586624
3.294000,-0.953199
3.295000,-1.541246
3.296000,-2.282033
3.297000,-2.648608
3.298000,-2.950269
3.299000,-3.082643
3.300000,-2.891719
3.301000,-2.698249
3.302000,-2.478049
3.303000,-2.481867
3.304000,-2.261668
3.305000,-2.013466
3.306000,-1.455966
3.307000,-1.177217
3.308000,-0.570077
3.309000,0.049791
3.310000,0.143981
3.311000,0.081612
3.312000,-0.141133
3.313000,-0.451704
3.314000,-0.814460
3.315000,-1.006657
3.316000,-1.427964
3.317000,-1.714351
3.318000,-1.817450
3.319000,-1.887456
3.320000,-1.876000
3.321000,-1.682530
3.322000,-1.448329
3.323000,-1.256132
3.324000,-1.023204
3.325000,-0.753364
3.326000,-0.022760
3.327000,0.519466
3.328000,0.520739
3.329000,0.382000
3.330000,0.996777
3.331000,1.248797
3.332000,0.648022
3.333000,-0.150043
3.334000,-1.099574
3.335000,-2.110201
3.336000,-2.974453
3.337000,-3.663054
3.338000,-3.678328
3.339000,-3.304116
3.340000,-2.727524
3.341000,-2.038923
3.342000,-1.646891
3.343000,-1.593432
3.344000,-1.766537
3.345000,-2.116565
3.346000,-2.133112
3.347000,-2.269305
3.348000,-2.269305
3.349000,-2.283306
3.350000,-2.290943
3.351000,-2.285852
3.352000,-1.944733
3.353000,-1.556520
3.354000,-1.044842
3.355000,-0.320602
3.356000,-0.054581
3.357000,-0.050762
3.358000,-0.245505
3.359000,-0.693541
3.360000,-1.383415
3.361000,-1.896366
3.362000,-2.147113
3.363000,-1.882365
3.364000,-1.982918
3.365000,-1.879819
3.366000,-1.406326
3.367000,-1.205219
3.368000,-1.402508
3.369000,-1.513244
3.370000,-1.716897
3.371000,-1.713078
3.372000,-1.793266
3.373000,-2.073289
3.374000,-2.276942
3.375000,-2.416953
3.376000,-2.404225
3.377000,-2.628243
3.378000,-2.847170
3.379000,-2.866262
3.380000,-2.707158
3.381000,-2.331673
3.382000,-1.975281
3.383000,-1.641800
3.384000,-1.270133
3.385000,-0.916287
3.386000,-0.638810
3.387000,-0.086401
3.388000,0.147799
3.389000,0.117251
3.390000,0.104523
3.391000,-0.262052
3.392000,-0.590442
3.393000,-1.128849
3.394000,-1.244677
3.395000,-0.936652
3.396000,-0.309147
3.397000,0.282719
3.398000,0.124888
3.399000,-0.594261
3.400000,-1.181035
3.401000,-1.699077
3.402000,-1.724534
3.403000,-1.780538
3.404000,-1.981645
3.405000,-2.310035
3.406000,-2.755526
3.407000,-3.139921
3.408000,-3.246838
3.409000,-3.249384
3.410000,-3.147558
3.411000,-2.607878
3.412000,-1.998192
3.413000,-1.732171
3.414000,-1.644345
3.415000,-1.592159
3.416000,-1.673620
3.417000,-1.816177
3.418000,-1.991828
3.419000,-2.114020
3.420000,-2.284579
3.421000,-2.240030
3.422000,-2.012193
3.423000,-1.758900
3.424000,-1.705441
3.425000,-1.583249
3.426000,-1.051207
3.427000,-0.338422
3.428000,0.094340
3.429000,0.977684
3.430000,1.736291
3.431000,1.682832
3.432000,1.275527
3.433000,0.809671
3.434000,0.129980
3.435000,-0.818279
3.436000,-1.881092
3.437000,-2.821713
3.438000,-3.131011
3.439000,-3.258294
3.440000,-3.119555
3.441000,-2.548055
3.442000,-2.163660
3.443000,-2.003283
3.444000,-1.799631
3.445000,-1.788175
3.446000,-1.107211
3.447000,-0.619717
3.448000,-0.118222
3.449000,0.015425
3.450000,0.393456
3.451000,-0.120768
3.452000,-0.848827
3.453000,-1.531063
3.454000,-2.126748
3.455000,-2.792438
3.456000,-3.007546
3.457000,-2.822986
3.458000,-2.738979
3.459000,-2.870081
3.460000,-3.114464
3.461000,-2.784801
3.462000,-2.316400
3.463000,-2.079653
3.464000,-1.961280
3.465000,-1.840361
3.466000,-1.659619
3.467000,-1.373233
3.468000,-1.495424
3.469000,-1.676166
3.470000,-2.007102
3.471000,-1.979100
3.472000,-2.036377
3.473000,-2.077107
3.474000,-1.946006
3.475000,-1.805995
3.476000,-1.632890
3.477000,-1.209037
3.478000,-1.086846
3.479000,-1.030841
3.480000,-1.005385
3.481000,-0.941743
3.482000,-0.911195
3.483000,-0.974837
3.484000,-1.041024
3.485000,-1.189945
3.486000,-1.365596
3.487000,-1.536155
3.488000,-1.588341
3.489000,-1.574340
3.490000,-1.415236
3.491000,-0.781367
3.492000,-0.094038
3.493000,0.057428
3.494000,-0.058399
3.495000,0.308176
3.496000,0.250899
3.497000,0.066338
3.498000,-0.164044
3.499000,-0.599352
3.500000,-1.303227
3.501000,-2.115292
3.502000,-2.938813
3.503000,-3.394487
3.504000,-2.793711
3.505000,-1.925641
3.506000,-1.457239
3.507000,-1.332502
3.508000,-1.443238
3.509000,-1.593432
3.510000,-2.035104
3.511000,-2.436046
3.512000,-2.317672
3.513000,-1.891274
3.514000,-1.790721
3.515000,-1.071572
3.516000,-0.764820
3.517000,-0.916287
3.518000,-0.817006
3.519000,-0.479706
3.520000,-0.447885
3.521000,-0.932833
3.522000,-1.664711
3.523000,-2.273123
3.524000,-2.458956
3.525000,-2.933722
3.526000,-3.245565
3.527000,-3.178105
3.528000,-2.891719
3.529000,-2.749162
3.530000,-2.525144
3.531000,-2.502233
3.532000,-2.362221
3.533000,-2.024921
3.534000,-1.654528
3.535000,-1.300681
3.536000,-1.029568
3.537000,-0.834825
3.538000,-0.860282
3.539000,-0.958290
3.540000,-1.098301
3.541000,-1.034660
3.542000,-0.736818
3.543000,-0.525528
3.544000,-0.508981
3.545000,-0.167863
3.546000,0.537285
3.547000,0.348906
3.548000,0.067611
3.549000,-0.273507
3.550000,-0.389335
3.551000,-0.797913
3.552000,-1.426691
3.553000,-2.159841
3.554000,-2.745343
3.555000,-3.123374
3.556000,-3.295206
3.557000,-3.207381
3.558000,-3.080098
3.559000,-2.889173
3.560000,-2.672792
3.561000,-2.634607
3.562000,-2.539145
3.563000,-2.401679
3.564000,-2.318945
3.565000,-2.293489
3.566000,-1.884910
3.567000,-1.487787
3.568000,-1.075390
3.569000,-0.767365
3.570000,-0.109312
3.571000,0.360362
3.572000,0.324723
3.573000,0.014152
3.574000,-0.288781
3.575000,-0.074946
3.576000,0.045973
3.577000,-0.265870
3.578000,-0.480979
3.579000,-1.005385
3.580000,-1.602342
3.581000,-2.206936
3.582000,-2.760617
3.583000,-3.245565
3.584000,-3.372848
3.585000,-3.207381
3.586000,-2.871353
3.587000,-2.657518
3.588000,-2.591331
3.589000,-2.159841
3.590000,-1.975281
3.591000,-1.588341
3.592000,-0.813187
3.593000,-0.099130
3.594000,0.136344
3.595000,0.444369
3.596000,0.585653
3.597000,0.513102
3.598000,0.239443
3.599000,-0.164044
3.600000,-0.641355
3.601000,-1.069026
3.602000,-1.331229
3.603000,-1.809813
3.604000,-2.331673
3.605000,-2.301126
3.606000,-2.413135
3.607000,-1.664711
3.608000,-0.824643
3.609000,-0.606989
3.610000,-0.721544
3.611000,-1.294317
3.612000,-1.770355
3.613000,-1.553974
3.614000,-1.135213
3.615000,-0.951926
3.616000,-0.940470
3.617000,-1.433056
3.618000,-1.674893
3.619000,-1.503061
3.620000,-1.920549
3.621000,-2.380041
3.622000,-2.652427
3.623000,-2.969361
3.624000,-2.825532
3.625000,-3.077552
3.626000,-3.436490
3.627000,-3.348665
3.628000,-3.152649
3.629000,-2.609150
3.630000,-1.379597
3.631000,-0.763547
3.632000,-0.857736
3.633000,-1.291771
3.634000,-1.789448
3.635000,-2.052924
3.636000,-2.490777
3.637000,-2.716068
3.638000,-2.768254
3.639000,-2.600241
3.640000,-2.450047
3.641000,-2.344402
3.642000,-2.215846
3.643000,-2.040195
3.644000,-1.760173
3.645000,-1.322319
3.646000,-0.893376
3.647000,-0.685904
3.648000,-0.515345
3.649000,-0.353696
3.650000,-0.076219
3.651000,0.067611
3.652000,0.140162
3.653000,-0.054581
3.654000,0.020516
3.655000,-0.024033
3.656000,-0.298964
3.657000,-0.680813
3.658000,-0.939197
3.659000,-0.080037
3.660000,0.711663
3.661000,0.756212
3.662000,0.492736
3.663000,-0.216230
3.664000,-0.671903
3.665000,-0.912468
3.666000,-1.346503
3.667000,-1.953643
3.668000,-2.644790
3.669000,-3.325754
3.670000,-3.921438
3.671000,-4.243464
3.672000,-4.366929
3.673000,-4.428024
3.674000,-4.209098
3.675000,-3.727968
3.676000,-3.231564
3.677000,-2.269305
3.678000,-0.992656
3.679000,-0.298964
3.680000,0.033245
3.681000,0.234352
3.682000,0.308176
3.683000,-0.085129
3.684000,-0.614626
3.685000,-1.184854
3.686000,-1.519608
3.687000,-1.793266
3.688000,-1.743626
3.689000,-1.475059
3.690000,-1.541246
3.691000,-1.609979
3.692000,-1.531063
3.693000,-1.639254
3.694000,-1.790721
3.695000,-1.893820
3.696000,-1.893820
3.697000,-1.893820
3.698000,-1.196309
3.699000,-0.841190
3.700000,-0.632445
3.701000,-0.492434
3.702000,-0.512799
3.703000,-0.845008
3.704000,-1.270133
3.705000,-1.439420
3.706000,-0.957017
3.707000,0.584380
3.708000,1.250070
3.709000,1.037507
3.710000,0.396001
3.711000,-0.609535
3.712000,-1.597251
3.713000,-2.555692
3.714000,-3.199744
3.715000,-3.799246
3.716000,-4.242191
3.717000,-4.489120
3.718000,-4.604948
3.719000,-4.584583
3.720000,-4.291832
3.721000,-3.733059
3.722000,-2.629516
3.723000,-1.692713
3.724000,-1.289226
3.725000,-0.920105
3.726000,-0.603170
3.727000,-0.592988
3.728000,-0.771184
3.729000,-1.165761
3.730000,-1.449602
3.731000,-1.509425
3.732000,-1.581977
3.733000,-1.648164
3.734000,-1.293044
3.735000,-0.953199
3.736000,-0.664266
3.737000,-0.363878
3.738000,-0.150043
3.739000,0.107069
3.740000,-0.055853
3.741000,-0.409700
3.742000,-0.884466
3.743000,-1.293044
3.744000,-1.407599
3.745000,-1.602342
3.746000,-1.515789
3.747000,-1.093210
3.748000,-0.547166
3.749000,0.094340
3.750000,0.155436
3.751000,0.056156
3.752000,0.103250
3.753000,0.347634
3.754000,0.201258
3.755000,-0.162771
3.756000,-1.010476
3.757000,-1.763991
3.758000,-2.476776
3.759000,-3.069915
3.760000,-3.526861
3.761000,-3.976170
3.762000,-4.356746
3.763000,-4.518395
3.764000,-4.447117
3.765000,-3.850160
3.766000,-3.514133
3.767000,-3.007546
3.768000,-2.653699
3.769000,-2.016012
3.770000,-1.607433
3.771000,-1.467422
3.772000,-1.616343
3.773000,-1.833997
3.774000,-1.923095
3.775000,-2.018557
3.776000,-1.904003
3.777000,-1.716897
3.778000,-1.570521
3.779000,-1.392325
3.780000,-1.033387
3.781000,-0.762274
3.782000,-0.508981
3.783000,-0.278599
3.784000,-0.179318
3.785000,-0.269689
3.786000,-0.514072
3.787000,-0.834825
3.788000,-0.940470
3.789000,-1.095756
3.790000,-0.808096
3.791000,-0.245505
3.792000,0.150345
3.793000,0.538558
3.794000,1.485544
3.795000,2.844926
3.796000,2.520354
3.797000,1.648466
3.798000,0.753666
3.799000,-0.155134
3.800000,-1.055025
3.801000,-1.158124
3.802000,-1.352867
3.803000,-2.103837
3.804000,-3.089007
3.805000,-3.791609
3.806000,-4.326198
3.807000,-4.630404
3.808000,-5.019890
3.809000,-5.162447
3.810000,-4.747505
3.811000,-3.898527
3.812000,-2.847170
3.813000,-2.158569
3.814000,-2.028740
3.815000,-2.163660
3.816000,-2.450047
3.817000,-2.584967
3.818000,-2.735161
3.819000,-2.975725
3.820000,-2.997364
3.821000,-2.824259
3.822000,-2.404225
3.823000,-1.943460
3.824000,-1.599796
3.825000,-1.379597
3.826000,-1.089391
3.827000,-0.845008
3.828000,-0.660448
3.829000,-0.487343
3.830000,-0.512799
3.831000,-0.600625
3.832000,-0.651538
3.833000,-0.796641
3.834000,-0.898467
3.835000,-0.936652
3.836000,-0.911195
3.837000,-1.015567
3.838000,-0.982474
3.839000,-0.782639
3.840000,-0.472069
3.841000,-0.242959
3.842000,0.634020
3.843000,1.136788
3.844000,0.883495
3.845000,0.374363
3.846000,-0.358787
3.847000,-1.010476
3.848000,-1.192491
3.849000,-0.915014
3.850000,-0.357514
3.851000,0.366726
3.852000,0.878404
3.853000,1.041326
3.854000,0.468552
3.855000,-0.654084
3.856000,-1.780538
3.857000,-2.609150
3.858000,-3.085189
3.859000,-3.366484
3.860000,-3.492494
3.861000,-3.531952
3.862000,-3.619777
3.863000,-3.827249
3.864000,-3.544680
3.865000,-3.185742
3.866000,-2.639698
3.867000,-2.105110
3.868000,-1.695259
3.869000,-1.541246
3.870000,-1.822541
3.871000,-2.376223
3.872000,-3.160286
3.873000,-3.791609
3.874000,-4.004172
3.875000,-3.595594
3.876000,-2.901901
3.877000,-2.240030
3.878000,-1.374505
3.879000,-0.960836
3.880000,-0.488616
3.881000,0.030699
3.882000,0.373090
3.883000,0.252171
3.884000,-0.290054
3.885000,-0.851372
3.886000,-0.915014
3.887000,-1.303227
3.888000,-1.804722
3.889000,-2.297307
3.890000,-2.749162
3.891000,-3.013910
3.892000,-2.984635
3.893000,-2.815349
3.894000,-2.582421
3.895000,-2.252758
3.896000,-1.476332
3.897000,-0.262052
3.898000,2.009950
3.899000,4.028658
3.900000,4.507242
3.901000,3.943378
3.902000,2.769829
3.903000,1.153335
3.904000,-0.600625
3.905000,-2.481867
3.906000,-4.164549
3.907000,-5.168812
3.908000,-5.525204
3.909000,-5.581208
3.910000,-5.385193
3.911000,-4.920610
3.912000,-4.300741
3.913000,-3.305388
3.914000,-2.289670
3.915000,-1.531063
3.916000,-1.225584
3.917000,-1.228130
3.918000,-1.464876
3.919000,-1.663438
3.920000,-1.737262
3.921000,-1.671075
3.922000,-1.559066
3.923000,-1.468695
3.924000,-1.393598
3.925000,-1.382142
3.926000,-1.333775
3.927000,-1.179762
3.928000,-0.804278
3.929000,-0.441521
3.930000,0.002697
3.931000,0.124888
3.932000,0.059974
3.933000,-0.190773
3.934000,-0.502617
3.935000,-0.804278
3.936000,-1.018113
3.937000,-0.965927
3.938000,-0.749546
3.939000,-0.745727
3.940000,-0.591715
3.941000,-0.496253
3.942000,-0.501344
3.943000,-0.470796
3.944000,-0.591715
3.945000,-0.904831
3.946000,-1.281589
3.947000,-1.440693
3.948000,-1.738535
3.949000,-1.836543
3.950000,-2.066925
3.951000,-2.353312
3.952000,-2.344402
3.953000,-1.954916
3.954000,-1.070299
3.955000,-0.156407
3.956000,-0.011304
3.957000,-0.058399
3.958000,-0.237868
3.959000,0.289083
3.960000,0.677297
3.961000,0.028153
3.962000,-0.920105
3.963000,-1.657074
3.964000,-1.996919
3.965000,-2.646063
3.966000,-3.465765
3.967000,-4.580764
3.968000,-5.381374
3.969000,-5.597755
3.970000,-5.652487
3.971000,-5.153538
3.972000,-4.304560
3.973000,-3.449218
3.974000,-2.562056
3.975000,-1.817450
3.976000,-1.175944
3.977000,-0.792822
3.978000,-0.918832
3.979000,-1.270133
3.980000,-1.388506
3.981000,-1.049934
3.982000,-0.894648
3.983000,-0.937925
3.984000,-0.996475
3.985000,-1.175944
3.986000,-1.416509
3.987000,-1.668529
3.988000,-1.850544
3.989000,-1.902730
3.990000,-1.911640
3.991000,-1.766537
3.992000,-1.561611
3.993000,-1.388506
3.994000,-1.272679
3.995000,-1.131395
3.996000,-0.978655
3.997000,-0.860282
3.998000,-0.738090
3.999000,-0.446612
4.000000,-0.204775
4.001000,0.942045
4.002000,1.682832
4.003000,1.822844
4.004000,1.496999
4.005000,1.155881
4.006000,0.761303
4.007000,0.108342
4.008000,-0.022760
4.009000,-0.559894
4.010000,-0.936652
4.011000,-1.407599
4.012000,-1.434328
4.013000,-1.537428
4.014000,-2.194208
4.015000,-2.990999
4.016000,-3.769971
4.017000,-4.025810
4.018000,-4.169640
4.019000,-4.275285
4.020000,-4.402568
4.021000,-4.445844
4.022000,-4.230736
4.023000,-3.722877
4.024000,-2.411862
4.025000,-1.651982
4.026000,-1.295590
4.027000,-0.881920
4.028000,-0.544620
4.029000,-0.198410
4.030000,-0.038034
4.031000,0.160528
4.032000,0.875858
4.033000,0.882222
4.034000,0.602200
4.035000,0.215259
4.036000,-0.390608
4.037000,-1.244677
4.038000,-2.142022
4.039000,-2.896810
4.040000,-3.067369
4.041000,-3.087735
4.042000,-3.091553
4.043000,-2.858625
4.044000,-2.834441
4.045000,-2.859898
4.046000,-2.901901
4.047000,-2.843351
4.048000,-2.802621
4.049000,-2.541690
4.050000,-2.080926
4.051000,-1.608706
4.052000,-1.301954
4.053000,-1.205219
4.054000,-1.077936
4.055000,-1.021931
4.056000,-0.918832
4.057000,-0.613353
4.058000,-0.332058
4.059000,-0.402063
4.060000,-0.654084
4.061000,-0.618444
4.062000,0.235625
4.063000,0.303085
4.064000,0.163073
4.065000,0.151618
4.066000,-0.114404
4.067000,-0.925196
4.068000,-1.954916
4.069000,-2.845897
4.070000,-3.384304
4.071000,-3.160286
4.072000,-2.346947
4.073000,-1.728352
4.074000,-1.196309
4.075000,-0.859009
4.076000,-0.595533
4.077000,-0.622263
4.078000,-0.757183
4.079000,-1.123758
4.080000,-1.799631
4.081000,-2.359676
4.082000,-2.675338
4.083000,-3.110645
4.084000,-3.358847
4.085000,-3.251930
4.086000,-2.741525
4.087000,-1.869636
4.088000,-0.913741
4.089000,-0.536983
4.090000,-0.549712
4.091000,-0.876829
4.092000,-1.140305
4.093000,-1.327411
4.094000,-1.621434
4.095000,-1.855635
4.096000,-2.064379
4.097000,-2.022376
4.098000,-1.966371
4.099000,-1.798358
4.100000,-1.640527
4.101000,-1.467422
4.102000,-1.380869
4.103000,-1.202673
4.104000,-1.098301
4.105000,-0.962108
4.106000,-0.856464
4.107000,-0.880647
4.108000,-0.926469
4.109000,-1.069026
4.110000,-1.229403
4.111000,-1.057571
4.112000,-0.958290
4.113000,-0.988838
4.114000,-1.098301
4.115000,-1.271406
4.116000,-1.472513
4.117000,-1.510698
4.118000,-1.392325
4.119000,-0.832280
4.120000,-0.552257
4.121000,-0.165317
4.122000,0.229260
4.123000,0.411275
4.124000,-0.015123
4.125000,-0.775002
4.126000,-1.620162
4.127000,-2.480595
4.128000,-3.026639
4.129000,-3.273568
4.130000,-2.982090
4.131000,-2.004556
4.132000,-1.063935
4.133000,-0.479706
4.134000,-0.399518
4.135000,-0.627354
4.136000,-1.077936
4.137000,-1.564157
4.138000,-2.032558
4.139000,-2.176388
4.140000,-2.157296
4.141000,-2.268032
4.142000,-2.336765
4.143000,-2.243848
4.144000,-2.293489
4.145000,-2.483140
4.146000,-2.574784
4.147000,-2.812803
4.148000,-2.847170
4.149000,-2.411862
4.150000,-2.273123
4.151000,-2.222210
4.152000,-2.205663
4.153000,-2.306217
4.154000,-1.925641
4.155000,-1.095756
4.156000,-0.759728
4.157000,-0.232777
4.158000,0.047246
4.159000,-0.120768
4.160000,-0.790276
4.161000,-1.492879
4.162000,-2.214573
4.163000,-2.807712
4.164000,-3.068642
4.165000,-2.861171
4.166000,-2.568420
4.167000,-2.447501
4.168000,-2.288397
4.169000,-2.008375
4.170000,-1.602342
4.171000,-0.829734
4.172000,-0.228958
4.173000,0.072702
4.174000,0.183439
4.175000,0.081612
4.176000,-0.324421
4.177000,-0.587896
4.178000,-0.748273
4.179000,-0.701178
4.180000,-0.654084
4.181000,-0.529346
4.182000,0.091795
4.183000,0.459643
4.184000,0.241989
4.185000,-0.370242
4.186000,-0.939197
4.187000,-1.714351
4.188000,-2.520052
4.189000,-3.222654
4.190000,-3.731786
4.191000,-4.089452
4.192000,-4.149275
4.193000,-3.810702
4.194000,-2.918448
4.195000,-1.252314
4.196000,-0.120768
4.197000,0.420185
4.198000,0.729483
4.199000,0.720573
4.200000,0.275082
4.201000,-0.440248
4.202000,-1.279043
4.203000,-2.167478
4.204000,-2.779710
4.205000,-2.973180
4.206000,-3.027911
4.207000,-3.068642
4.208000,-3.017729
4.209000,-3.022820
4.210000,-2.828077
4.211000,-2.430954
4.212000,-1.965098
4.213000,-1.513244
4.214000,-1.182308
4.215000,-0.948107
4.216000,-0.782639
4.217000,-0.814460
4.218000,-0.990111
4.219000,-1.289226
4.220000,-1.299408
4.221000,-1.271406
4.222000,-1.226857
4.223000,-1.071572
4.224000,-0.937925
4.225000,-0.817006
4.226000,-0.955744
4.227000,-1.097028
4.228000,-1.075390
4.229000,-1.145396
4.230000,-1.333775
4.231000,-1.487787
4.232000,-1.589614
4.233000,-1.393598
4.234000,-1.123758
4.235000,-1.052479
4.236000,-1.069026
4.237000,-0.638810
4.238000,-0.577714
4.239000,-0.819551
4.240000,-1.002839
4.241000,-0.893376
4.242000,-0.701178
4.243000,-0.386789
4.244000,-0.582805
4.245000,-0.507708
4.246000,-0.421156
4.247000,-0.488616
4.248000,-0.967200
4.249000,-1.511971
4.250000,-2.276942
4.251000,-2.861171
4.252000,-3.403396
4.253000,-3.791609
4.254000,-4.136546
4.255000,-4.279103
4.256000,-4.013082
4.257000,-3.708876
4.258000,-3.151376
4.259000,-2.270578
4.260000,-1.538700
4.261000,-1.150487
4.262000,-0.990111
4.263000,-0.729181
4.264000,-0.454249
4.265000,-0.461886
4.266000,-0.869192
4.267000,-1.365596
4.268000,-1.636708
4.269000,-1.886183
4.270000,-1.996919
4.271000,-2.097473
4.272000,-2.208209
4.273000,-2.056742
4.274000,-1.429237
4.275000,-1.149214
4.276000,-1.226857
4.277000,-1.377051
4.278000,-1.150487
4.279000,-1.028296
4.280000,-1.163216
4.281000,-1.077936
4.282000,-1.041024
4.283000,-1.146669
4.284000,-1.211583
4.285000,-1.139032
4.286000,-1.097028
4.287000,-1.195036
4.288000,-1.355413
4.289000,-1.555247
4.290000,-1.687622
4.291000,-1.700350
4.292000,-1.799631
4.293000,-1.831451
4.294000,-1.763991
4.295000,-1.615070
4.296000,-1.514517
4.297000,-1.251041
4.298000,-0.972291
4.299000,-0.589169
4.300000,-0.382971
4.301000,-0.556076
4.302000,-0.827188
4.303000,-0.304055
4.304000,0.331087
4.305000,0.800761
4.306000,0.706572
4.307000,0.277628
4.308000,-0.332058
4.309000,-0.767365
4.310000,-1.611252
4.311000,-2.480595
4.312000,-3.094099
4.313000,-3.570137
4.314000,-3.719058
4.315000,-3.437763
4.316000,-3.124647
4.317000,-2.929904
4.318000,-2.228574
4.319000,-1.281589
4.320000,-0.463159
4.321000,-0.273507
4.322000,-0.002395
4.323000,0.071430
4.324000,-0.321875
4.325000,-0.901013
4.326000,-1.678712
4.327000,-2.565874
4.328000,-3.349937
4.329000,-3.669418
4.330000,-3.837431
4.331000,-3.531952
4.332000,-2.814076
4.333000,-2.598968
4.334000,-2.329128
4.335000,-1.937096
4.336000,-1.399962
4.337000,-1.237040
4.338000,-0.913741
4.339000,-0.188228
4.340000,-0.114404
4.341000,-0.330785
4.342000,-0.577714
4.343000,-0.902285
4.344000,-1.287953
4.345000,-1.612525
4.346000,-1.916731
4.347000,-1.999465
4.348000,-1.828906
4.349000,-1.494151
4.350000,-1.425419
4.351000,-1.561611
4.352000,-1.699077
4.353000,-1.803449
4.354000,-1.883637
4.355000,-1.984191
4.356000,-2.161114
4.357000,-2.296034
4.358000,-2.380041
4.359000,-2.176388
4.360000,-1.965098
4.361000,-1.799631
4.362000,-1.632890
4.363000,-0.814460
4.364000,0.170710
4.365000,0.970047
4.366000,1.861028
4.367000,1.917033
4.368000,1.465178
4.369000,0.710390
4.370000,-0.426247
4.371000,-1.626526
4.372000,-2.834441
4.373000,-3.749606
4.374000,-4.220553
4.375000,-4.204006
4.376000,-3.609595
4.377000,-3.069915
4.378000,-2.792438
4.379000,-2.517507
4.380000,-2.260395
4.381000,-1.918004
4.382000,-1.648164
4.383000,-1.486514
4.384000,-1.363050
4.385000,-1.187399
4.386000,-0.968473
4.387000,-0.386789
4.388000,-0.076219
4.389000,0.320904
4.390000,1.083329
4.391000,1.108786
4.392000,0.518193
4.393000,-0.181864
4.394000,-0.963381
4.395000,-1.685076
4.396000,-2.201845
4.397000,-2.567147
4.398000,-2.639698
4.399000,-2.476776
4.400000,-2.619333
4.401000,-2.656245
4.402000,-2.513688
4.403000,-1.947279
4.404000,-1.662165
4.405000,-1.556520
4.406000,-1.520881
4.407000,-1.426691
4.408000,-1.299408
4.409000,-1.103393
4.410000,-0.920105
4.411000,-1.057571
4.412000,-1.284134
4.413000,-1.360504
4.414000,-1.028296
4.415000,-0.827188
4.416000,-0.986292
4.417000,-1.072845
4.418000,-1.364323
4.419000,-1.427964
4.420000,-0.564985
4.421000,-0.096584
4.422000,-0.489889
4.423000,-1.127576
4.424000,-1.622707
4.425000,-2.306217
4.426000,-3.167923
4.427000,-3.889617
4.428000,-4.290559
4.429000,-4.344018
4.430000,-4.035993
4.431000,-3.572683
4.432000,-3.115737
4.433000,-2.744070
4.434000,-2.586239
4.435000,-2.201845
4.436000,-1.758900
4.437000,-0.950653
4.438000,-0.388062
4.439000,0.445642
4.440000,0.964956
4.441000,1.071874
4.442000,0.790578
4.443000,0.417639
4.444000,-0.195865
4.445000,-0.776275
4.446000,-1.265042
4.447000,-1.668529
4.448000,-1.790721
4.449000,-2.007102
4.450000,-2.194208
4.451000,-2.176388
4.452000,-1.789448
4.453000,-1.589614
4.454000,-1.438147
4.455000,-1.267588
4.456000,-1.347776
4.457000,-1.393598
4.458000,-1.267588
4.459000,-1.397416
4.460000,-1.539973
4.461000,-1.421600
4.462000,-1.165761
4.463000,-1.122485
4.464000,-1.303227
4.465000,-1.441965
4.466000,-1.249768
4.467000,-0.814460
4.468000,-0.615899
4.469000,-0.511527
4.470000,-0.279872
4.471000,0.287811
4.472000,0.917861
4.473000,0.716754
4.474000,0.135071
4.475000,-0.800459
4.476000,-1.937096
4.477000,-2.858625
4.478000,-3.174287
4.479000,-3.413579
4.480000,-3.500131
4.481000,-3.343573
4.482000,-3.055914
4.483000,-2.733888
4.484000,-2.462775
4.485000,-2.761890
4.486000,-3.180651
4.487000,-3.433944
4.488000,-3.199744
4.489000,-2.849715
4.490000,-2.490777
4.491000,-2.324037
4.492000,-2.172570
4.493000,-1.966371
4.494000,-1.723261
4.495000,-1.531063
4.496000,-1.385961
4.497000,-1.209037
4.498000,-1.010476
4.499000,-0.684631
4.500000,-0.274780
4.501000,-0.248051
4.502000,-0.371515
4.503000,-0.422429
4.504000,-0.310419
4.505000,-0.455522
4.506000,0.048519
4.507000,0.353998
4.508000,0.383273
4.509000,0.030699
4.510000,-0.511527
4.511000,-1.223039
4.512000,-1.886183
4.513000,-2.446228
4.514000,-2.915902
4.515000,-2.859898
4.516000,-2.512415
4.517000,-2.130566
4.518000,-1.907821
4.519000,-1.974008
4.520000,-1.918004
4.521000,-1.999465
4.522000,-1.746172
4.523000,-1.721988
4.524000,-1.669802
4.525000,-1.205219
4.526000,-0.979928
4.527000,-0.959563
4.528000,-1.057571
4.529000,-0.887011
4.530000,-0.254415
4.531000,0.206349
4.532000,0.297993
4.533000,0.090522
4.534000,-0.521709
4.535000,-1.321046
4.536000,-2.327855
4.537000,-3.012638
4.538000,-3.405942
4.539000,-3.671963
4.540000,-3.652871
4.541000,-3.024093
4.542000,-2.260395
4.543000,-1.738535
4.544000,-1.147942
4.545000,-0.464432
4.546000,-0.108040
4.547000,0.299266
4.548000,0.343815
4.549000,-0.152589
4.550000,-0.934106
4.551000,-1.756354
4.552000,-2.499687
4.553000,-3.003728
4.554000,-3.201016
4.555000,-3.011365
4.556000,-2.573511
4.557000,-2.061834
4.558000,-1.215402
4.559000,-0.142406
4.560000,0.308176
4.561000,0.304357
4.562000,-0.127132
4.563000,-0.754637
4.564000,-1.299408
4.565000,-1.561611
4.566000,-2.185298
4.567000,-2.727524
4.568000,-2.395315
4.569000,-1.467422
4.570000,-1.174671
4.571000,-1.004112
4.572000,-1.074117
4.573000,-1.271406
4.574000,-1.383415
4.575000,-1.643072
4.576000,-1.812359
4.577000,-1.953643
4.578000,-2.117838
4.579000,-2.232393
4.580000,-2.293489
4.581000,-2.563329
4.582000,-2.834441
4.583000,-2.969361
4.584000,-3.019002
4.585000,-3.030457
4.586000,-2.593876
4.587000,-2.254031
4.588000,-2.219664
4.589000,-2.022376
4.590000,-1.784357
4.591000,-1.534882
4.592000,-1.312137
4.593000,-1.091937
4.594000,-0.903558
4.595000,-0.755910
4.596000,-0.743182
4.597000,-0.656629
4.598000,-0.592988
4.599000,-0.559894
4.600000,-0.716452
4.601000,-0.855191
4.602000,-0.876829
4.603000,-0.951926
4.604000,-1.153033
4.605000,-1.291771
4.606000,-1.416509
4.607000,-1.522154
4.608000,-1.589614
4.609000,-1.342685
4.610000,-0.997748
4.611000,-0.632445
4.612000,-0.337149
4.613000,-0.262052
4.614000,-0.279872
4.615000,-0.368970
4.616000,-0.636264
4.617000,-0.982474
4.618000,-1.312137
4.619000,-1.466149
4.620000,-1.504334
4.621000,-1.063935
4.622000,-0.514072
4.623000,-0.333330
4.624000,-0.469523
4.625000,-0.446612
4.626000,-0.134769
4.627000,-0.024033
4.628000,-0.724089
4.629000,-1.024477
4.630000,-1.397416
4.631000,-1.181035
4.632000,-1.296863
4.633000,-1.798358
4.634000,-2.380041
4.635000,-2.873899
4.636000,-3.043185
4.637000,-2.853534
4.638000,-2.918448
4.639000,-3.143739
4.640000,-2.850988
4.641000,-2.578603
4.642000,-2.427136
4.643000,-2.227301
4.644000,-2.486959
4.645000,-2.895537
4.646000,-3.313025
4.647000,-3.539589
4.648000,-3.475948
4.649000,-3.375394
4.650000,-3.230291
4.651000,-2.915902
4.652000,-2.438591
4.653000,-1.542519
4.654000,-0.447885
4.655000,-0.155134
4.656000,-0.195865
4.657000,-0.365151
4.658000,-0.506435
4.659000,-0.638810
4.660000,-1.130122
4.661000,-1.314682
4.662000,-1.461058
4.663000,-1.626526
4.664000,-1.629071
4.665000,-1.401235
4.666000,-1.102120
4.667000,-0.820824
4.668000,-0.741909
4.669000,-0.507708
4.670000,-0.367697
4.671000,-0.384244
4.672000,-0.557348
4.673000,-0.679540
4.674000,-0.833553
4.675000,-1.111030
4.676000,-1.483969
4.677000,-1.802176
4.678000,-1.811086
4.679000,-1.797085
4.680000,-1.673620
4.681000,-1.347776
4.682000,-1.104665
4.683000,-1.119939
4.684000,-1.202673
4.685000,-1.226857
4.686000,-1.103393
4.687000,-0.857736
4.688000,-0.605716
4.689000,-0.604443
4.690000,-0.831007
4.691000,-0.701178
4.692000,-0.829734
4.693000,-1.482696
4.694000,-1.947279
4.695000,-1.893820
4.696000,-1.860726
4.697000,-1.705441
4.698000,-0.974837
4.699000,-0.198410
4.700000,-0.200956
4.701000,-0.556076
4.702000,-1.005385
4.703000,-1.471240
4.704000,-1.713078
4.705000,-2.252758
4.706000,-2.812803
4.707000,-3.077552
4.708000,-3.075006
4.709000,-3.305388
4.710000,-3.754697
4.711000,-4.205279
4.712000,-4.330017
4.713000,-4.013082
4.714000,-3.557409
4.715000,-2.943905
4.716000,-2.283306
4.717000,-1.905275
4.718000,-1.541246
4.719000,-1.214129
4.720000,-0.590442
4.721000,-0.312965
4.722000,-0.272235
4.723000,-0.172954
4.724000,-0.172954
4.725000,-0.178045
4.726000,0.003970
4.727000,-0.030397
4.728000,-0.087674
4.729000,-0.300237
4.730000,-0.694814
4.731000,-0.955744
4.732000,-1.417782
4.733000,-1.948552
4.734000,-2.472958
4.735000,-2.586239
4.736000,-1.497970
4.737000,-0.529346
4.738000,-0.318056
4.739000,-0.155134
4.740000,-0.068582
4.741000,-0.170408
4.742000,-0.366424
4.743000,-0.857736
4.744000,-1.173398
4.745000,-1.198855
4.746000,-0.548439
4.747000,-0.514072
4.748000,-1.114848
4.749000,-1.882365
4.750000,-2.554419
4.751000,-3.103008
4.752000,-3.540862
4.753000,-4.043630
4.754000,-4.452208
4.755000,-4.438207
4.756000,-3.959623
4.757000,-3.134829
4.758000,-2.124202
4.759000,-1.375778
4.760000,-0.825916
4.761000,-0.379152
4.762000,0.156709
4.763000,0.091795
4.764000,-0.208593
4.765000,-0.699905
4.766000,-1.135213
4.767000,-1.284134
4.768000,-1.571794
4.769000,-1.789448
4.770000,-2.060561
4.771000,-2.285852
4.772000,-2.325309
4.773000,-2.329128
4.774000,-2.303671
4.775000,-1.828906
4.776000,-1.127576
4.777000,-0.211139
4.778000,0.056156
4.779000,-0.176772
4.780000,-0.491161
4.781000,-0.717725
4.782000,-0.888284
4.783000,-1.153033
4.784000,-1.574340
4.785000,-1.884910
4.786000,-2.024921
4.787000,-2.131839
4.788000,-2.296034
4.789000,-2.392769
4.790000,-2.294761
4.791000,-2.247667
4.792000,-2.003283
4.793000,-1.664711
4.794000,-0.690996
4.795000,0.241989
4.796000,0.765122
4.797000,1.233523
4.798000,1.266617
4.799000,0.868221
4.800000,0.157982
4.801000,-1.055025
4.802000,-1.863272
4.803000,-2.325309
4.804000,-2.971907
4.805000,-3.159013
4.806000,-3.225200
4.807000,-3.442854
4.808000,-3.087735
4.809000,-2.194208
4.810000,-1.459785
4.811000,-0.971018
4.812000,-0.861555
4.813000,-1.095756
4.814000,-1.539973
4.815000,-2.004556
4.816000,-2.157296
4.817000,-2.250212
4.818000,-2.119111
4.819000,-1.812359
4.820000,-1.567976
4.821000,-1.520881
4.822000,-1.695259
4.823000,-2.143295
4.824000,-2.479322
4.825000,-2.410589
4.826000,-1.884910
4.827000,-1.590886
4.828000,-1.365596
4.829000,-1.357959
4.830000,-1.626526
4.831000,-1.979100
4.832000,-2.231120
4.833000,-2.332946
4.834000,-2.371131
4.835000,-2.023649
4.836000,-1.839088
4.837000,-1.643072
4.838000,-1.251041
4.839000,-0.459341
4.840000,0.536012
4.841000,1.129151
4.842000,1.533911
4.843000,1.382444
4.844000,1.010778
4.845000,0.273809
4.846000,-0.487343
4.847000,-1.249768
4.848000,-2.079653
4.849000,-2.465321
4.850000,-2.572238
4.851000,-2.564601
4.852000,-2.649881
4.853000,-2.884082
4.854000,-2.928631
4.855000,-2.820440
4.856000,-2.828077
4.857000,-2.877718
4.858000,-2.690612
4.859000,-2.350766
4.860000,-2.061834
4.861000,-1.700350
4.862000,-1.406326
4.863000,-1.200128
4.864000,-0.744455
4.865000,0.133798
4.866000,0.402365
4.867000,0.552559
4.868000,0.592017
4.869000,0.217805
4.870000,-0.473342
4.871000,-1.145396
4.872000,-1.748717
4.873000,-2.303671
4.874000,-2.569693
4.875000,-2.518780
4.876000,-2.418226
4.877000,-2.222210
4.878000,-1.839088
4.879000,-1.729625
4.880000,-1.122485
4.881000,-0.651538
4.882000,-0.445339
4.883000,-0.002395
4.884000,0.360362
4.885000,0.299266
4.886000,-0.277326
4.887000,-1.198855
4.888000,-2.256577
4.889000,-2.839533
4.890000,-3.227746
4.891000,-3.302843
4.892000,-3.001182
4.893000,-2.764436
4.894000,-2.718614
4.895000,-2.429681
4.896000,-2.171297
4.897000,-1.947279
4.898000,-1.744899
4.899000,-1.489060
4.900000,-1.011749
4.901000,-0.587896
4.902000,-0.409700
4.903000,-0.619717
4.904000,-0.864101
4.905000,-1.268860
4.906000,-1.763991
4.907000,-2.390224
4.908000,-2.931176
4.909000,-3.293933
4.910000,-3.484857
4.911000,-3.250657
4.912000,-3.008819
4.913000,-2.721159
4.914000,-2.304944
4.915000,-1.504334
4.916000,-1.046115
4.917000,-0.379152
4.918000,0.119797
4.919000,0.347634
4.920000,0.193621
4.921000,-0.165317
4.922000,-0.502617
4.923000,-0.682086
4.924000,-0.395699
4.925000,-0.404609
4.926000,-0.608262
4.927000,-0.712634
4.928000,-0.712634
4.929000,-0.983747
4.930000,-1.492879
4.931000,-2.038923
4.932000,-2.443683
4.933000,-2.563329
4.934000,-2.364767
4.935000,-1.888729
4.936000,-1.401235
4.937000,-1.332502
4.938000,-1.354140
4.939000,-1.301954
4.940000,-1.309591
4.941000,-1.388506
4.942000,-1.657074
4.943000,-1.788175
4.944000,-2.016012
4.945000,-2.260395
4.946000,-2.101291
4.947000,-1.789448
4.948000,-1.780538
4.949000,-1.757627
4.950000,-1.757627
4.951000,-1.763991
4.952000,-1.780538
4.953000,-1.783084
4.954000,-1.760173
4.955000,-1.664711
4.956000,-1.606160
4.957000,-1.276497
4.958000,-1.024477
4.959000,-0.794095
4.960000,-0.664266
4.961000,-0.125859
4.962000,-0.066036
4.963000,-0.141133
4.964000,0.188530
4.965000,0.583107
4.966000,0.434186
4.967000,-0.083856
4.968000,-0.498798
4.969000,-0.627354
4.970000,-0.654084
4.971000,-1.030841
4.972000,-1.505607
4.973000,-2.101291
4.974000,-2.873899
4.975000,-3.551045
4.976000,-4.021992
4.977000,-4.140365
4.978000,-4.155639
4.979000,-4.070359
4.980000,-3.647780
4.981000,-3.136102
4.982000,-2.817895
4.983000,-2.634607
4.984000,-2.414407
4.985000,-2.084744
4.986000,-1.728352
4.987000,-1.291771
4.988000,-0.338422
4.989000,0.338724
4.990000,0.985321
4.991000,1.000595
4.992000,0.623838
4.993000,-0.044398
4.994000,-0.893376
4.995000,-1.630344
4.996000,-2.248940
4.997000,-2.674065
4.998000,-2.816622
4.999000,-2.658791
5.000000,-2.401679
5.001000,-2.150932
5.002000,-2.086017
5.003000,-2.013466
5.004000,-1.874728
5.005000,-1.440693
5.006000,-1.221766
5.007000,-0.995202
5.008000,-0.848827
5.009000,-0.902285
5.010000,-1.065208
5.011000,-1.192491
5.012000,-1.399962
5.013000,-1.205219
5.014000,-0.856464
5.015000,-0.277326
5.016000,-0.258233
5.017000,-0.255688
5.018000,-0.315511
5.019000,-0.572622
5.020000,-1.047388
5.021000,-1.455966
5.022000,-1.966371
5.023000,-2.388951
5.024000,-2.626970
5.025000,-2.550600
5.026000,-2.344402
5.027000,-2.080926
5.028000,-1.844180
5.029000,-1.520881
5.030000,-1.284134
5.031000,-1.221766
5.032000,-1.340139
5.033000,-1.490333
5.034000,-1.612525
5.035000,-1.859454
5.036000,-1.663438
5.037000,-1.336320
5.038000,-1.188672
5.039000,-1.231948
5.040000,-1.366868
5.041000,-1.547610
5.042000,-1.585795
5.043000,-1.570521
5.044000,-1.653255
5.045000,-1.713078
5.046000,-1.601069
5.047000,-1.349049
5.048000,-1.289226
5.049000,-1.159397
5.050000,-1.083027
5.051000,-0.684631
5.052000,-0.262052
5.053000,-0.396972
5.054000,-0.791549
5.055000,-0.965927
5.056000,-0.776275
5.057000,-0.683359
5.058000,-0.950653
5.059000,-1.259951
5.060000,-1.607433
5.061000,-1.425419
5.062000,-0.941743
5.063000,-0.764820
5.064000,-0.846281
5.065000,-1.019386
5.066000,-1.637981
5.067000,-2.357130
5.068000,-3.319390
5.069000,-4.077996
5.070000,-4.449663
5.071000,-4.571854
5.072000,-4.272739
5.073000,-3.222654
5.074000,-1.552702
5.075000,-0.055853
5.076000,0.595835
5.077000,0.583107
5.078000,0.392183
5.079000,-0.088947
5.080000,-0.834825
5.081000,-1.662165
5.082000,-2.500960
5.083000,-3.115737
5.084000,-3.432671
5.085000,-3.446673
5.086000,-3.343573
5.087000,-3.263385
5.088000,-2.635880
5.089000,-2.114020
5.090000,-1.678712
5.091000,-1.145396
5.092000,-0.827188
5.093000,-0.841190
5.094000,-0.889557
5.095000,-0.943016
5.096000,-1.182308
5.097000,-1.324865
5.098000,-1.169580
5.099000,-1.102120
5.100000,-0.845008
5.101000,-0.552257
5.102000,-0.110585
5.103000,0.355271
5.104000,0.676024
5.105000,0.441823
5.106000,0.542377
5.107000,0.588198
5.108000,0.616201
5.109000,0.057428
5.110000,-0.759728
5.111000,-1.461058
5.112000,-1.911640
5.113000,-2.283306
5.114000,-2.763163
5.115000,-3.148830
5.116000,-3.506496
5.117000,-3.540862
5.118000,-3.548499
5.119000,-3.271022
5.120000,-2.736433
5.121000,-2.213300
5.122000,-1.921822
5.123000,-1.930732
5.124000,-1.846725
5.125000,-1.755082
5.126000,-1.817450
5.127000,-1.937096
5.128000,-1.993101
5.129000,-1.827633
5.130000,-1.511971
5.131000,-1.053752
5.132000,-0.730453
5.133000,-0.531892
5.134000,-0.161498
5.135000,-0.119495
5.136000,-0.207320
5.137000,-0.419883
5.138000,-0.712634
5.139000,-1.175944
5.140000,-1.616343
5.141000,-2.119111
5.142000,-2.315127
5.143000,-2.102564
5.144000,-1.775447
5.145000,-1.118667
5.146000,-0.717725
5.147000,-0.687177
5.148000,-0.666812
5.149000,-0.470796
5.150000,-0.594261
5.151000,-0.909922
5.152000,-1.497970
5.153000,-2.150932
5.154000,-2.490777
5.155000,-2.801348
5.156000,-2.848442
5.157000,-2.486959
5.158000,-2.196754
5.159000,-2.036377
5.160000,-1.867091
5.161000,-1.804722
5.162000,-1.696531
5.163000,-1.729625
5.164000,-1.728352
5.165000,-1.765264
5.166000,-1.845452
5.167000,-1.811086
5.168000,-1.240858
5.169000,-0.682086
5.170000,-0.262052
5.171000,0.943318
5.172000,1.456269
5.173000,1.265344
5.174000,0.821126
5.175000,-0.067309
5.176000,-1.197582
5.177000,-2.234938
5.178000,-3.053368
5.179000,-3.573956
5.180000,-3.791609
5.181000,-3.842523
5.182000,-3.741969
5.183000,-3.567591
5.184000,-2.892992
5.185000,-2.087290
5.186000,-1.449602
5.187000,-0.925196
5.188000,-0.757183
5.189000,-0.519164
5.190000,-0.561167
5.191000,-1.035933
5.192000,-1.627799
5.193000,-2.198026
5.194000,-1.925641
5.195000,-1.407599
5.196000,-1.196309
5.197000,-1.132668
5.198000,-1.158124
5.199000,-1.371960
5.200000,-1.678712
5.201000,-2.009648
5.202000,-2.213300
5.203000,-2.335492
5.204000,-2.372404
5.205000,-2.284579
5.206000,-2.138203
5.207000,-1.914185
5.208000,-1.355413
5.209000,-0.916287
5.210000,-0.828461
5.211000,-0.732999
5.212000,-0.796641
5.213000,-0.936652
5.214000,-0.902285
5.215000,-0.734272
5.216000,-0.055853
5.217000,0.496555
5.218000,1.472815
5.219000,2.727826
5.220000,2.979846
5.221000,3.836461
5.222000,3.348967
5.223000,1.752838
5.224000,-0.404609
5.225000,-2.532781
5.226000,-4.557853
5.227000,-5.977059
5.228000,-6.689843
5.229000,-7.000414
5.230000,-6.899860
5.231000,-6.534558
5.232000,-6.078885
5.233000,-5.164993
5.234000,-4.179823
5.235000,-3.295206
5.236000,-2.509870
5.237000,-1.631617
5.238000,-0.874283
5.239000,-0.335876
5.240000,-0.018941
5.241000,0.108342
5.242000,0.173256
5.243000,0.113433
5.244000,-0.305328
5.245000,-0.806823
5.246000,-1.256132
5.247000,-1.553974
5.248000,-1.641800
5.249000,-1.758900
5.250000,-1.888729
5.251000,-1.811086
5.252000,-1.520881
5.253000,-1.298136
5.254000,-1.126303
5.255000,-1.056298
5.256000,-1.130122
5.257000,-1.150487
5.258000,-1.104665
5.259000,-1.091937
5.260000,-0.832280
5.261000,-0.366424
5.262000,-0.277326
5.263000,-0.277326
5.264000,-0.333330
5.265000,-0.475887
5.266000,-0.785185
5.267000,-1.074117
5.268000,-1.438147
5.269000,-1.646891
5.270000,-1.497970
5.271000,-1.177217
5.272000,-1.032114
5.273000,-1.209037
5.274000,-1.438147
5.275000,-1.631617
5.276000,-1.752536
5.277000,-1.799631
5.278000,-1.364323
5.279000,-0.805550
5.280000,-0.673176
5.281000,-0.735545
5.282000,-1.069026
5.283000,-1.463603
5.284000,-1.809813
5.285000,-2.173843
5.286000,-2.274396
5.287000,-2.173843
5.288000,-2.181480
5.289000,-2.206936
5.290000,-2.215846
5.291000,-2.079653
5.292000,-1.976554
5.293000,-1.783084
5.294000,-1.799631
5.295000,-1.406326
5.296000,-0.346059
5.297000,0.970047
5.298000,1.648466
5.299000,2.230149
5.300000,1.835572
5.301000,1.272981
5.302000,0.324723
5.303000,-0.778821
5.304000,-2.003283
5.305000,-3.463219
5.306000,-4.681318
5.307000,-5.285912
5.308000,-5.470472
5.309000,-5.310096
5.310000,-4.219280
5.311000,-3.103008
5.312000,-2.066925
5.313000,-1.032114
5.314000,-0.945562
5.315000,-1.276497
5.316000,-1.884910
5.317000,-2.502233
5.318000,-2.994818
5.319000,-3.264658
5.320000,-3.138648
5.321000,-2.721159
5.322000,-2.534053
5.323000,-2.415680
5.324000,-2.041468
5.325000,-1.622707
5.326000,-1.231948
5.327000,-0.817006
5.328000,-0.564985
5.329000,-0.543347
5.330000,-0.689723
5.331000,-0.950653
5.332000,-1.122485
5.333000,-1.221766
5.334000,-1.016840
5.335000,-1.053752
5.336000,-0.990111
5.337000,-0.847554
5.338000,-0.416064
5.339000,-0.220049
5.340000,-0.370242
5.341000,-0.421156
5.342000,-0.706270
5.343000,-0.999020
5.344000,-1.340139
5.345000,-1.571794
5.346000,-1.433056
5.347000,-1.203946
5.348000,-1.198855
5.349000,-1.071572
5.350000,-0.904831
5.351000,-0.623536
5.352000,-0.384244
5.353000,-0.469523
5.354000,-0.567531
5.355000,-0.916287
5.356000,-1.196309
5.357000,-1.327411
5.358000,-1.020659
5.359000,-1.005385
5.360000,-1.167034
5.361000,-1.219220
5.362000,-1.387234
5.363000,-1.776720
5.364000,-2.156023
5.365000,-2.660064
5.366000,-2.988454
5.367000,-3.016456
5.368000,-3.096644
5.369000,-3.229019
5.370000,-3.361393
5.371000,-3.267204
5.372000,-2.569693
5.373000,-2.185298
5.374000,-1.814905
5.375000,-1.528518
5.376000,-0.508981
5.377000,0.480008
5.378000,0.962411
5.379000,1.083329
5.380000,0.742211
5.381000,0.222896
5.382000,-0.511527
5.383000,-1.242131
5.384000,-1.990555
5.385000,-2.595149
5.386000,-3.143739
5.387000,-3.428853
5.388000,-3.402124
5.389000,-3.245565
5.390000,-3.192107
5.391000,-2.918448
5.392000,-2.396588
5.393000,-1.907821
5.394000,-1.654528
5.395000,-1.280316
5.396000,-1.009203
5.397000,-0.887011
5.398000,-0.772457
5.399000,-0.837371
5.400000,-0.915014
5.401000,-0.968473
5.402000,-0.972291
5.403000,-1.153033
5.404000,-1.327411
5.405000,-1.380869
5.406000,-1.135213
5.407000,-1.057571
5.408000,-0.892103
5.409000,-1.032114
5.410000,-1.090664
5.411000,-0.641355
5.412000,-0.288781
5.413000,-0.231504
5.414000,-0.601898
5.415000,-0.842462
5.416000,-0.988838
5.417000,-1.195036
5.418000,-1.495424
5.419000,-1.202673
5.420000,-0.781367
5.421000,-0.748273
5.422000,-0.124586
5.423000,0.401092
5.424000,0.220351
5.425000,-0.594261
5.426000,-2.005829
5.427000,-3.222654
5.428000,-3.626142
5.429000,-3.972351
5.430000,-4.294377
5.431000,-4.192551
5.432000,-4.043630
5.433000,-4.049994
5.434000,-4.000354
5.435000,-3.829794
5.436000,-3.278659
5.437000,-2.870081
5.438000,-2.546782
5.439000,-2.196754
5.440000,-1.901457
5.441000,-1.755082
5.442000,-1.429237
5.443000,-1.172125
5.444000,-0.715179
5.445000,-0.256961
5.446000,-0.078764
5.447000,-0.091493
5.448000,0.025608
5.449000,0.009061
5.450000,-0.180591
5.451000,-0.381698
5.452000,-0.502617
5.453000,-0.629900
5.454000,-0.796641
5.455000,-0.839917
5.456000,-0.898467
5.457000,-1.000293
5.458000,-1.217947
5.459000,-1.356686
5.460000,-1.459785
5.461000,-1.503061
5.462000,-1.496697
5.463000,-1.407599
5.464000,-1.447057
5.465000,-1.480150
5.466000,-1.545065
5.467000,-1.621434
5.468000,-1.697804
5.469000,-1.641800
5.470000,-1.354140
5.471000,-1.072845
5.472000,-0.735545
5.473000,-0.099130
5.474000,1.181337
5.475000,1.919579
5.476000,1.990857
5.477000,1.407901
5.478000,0.290356
5.479000,-0.797913
5.480000,-1.817450
5.481000,-2.708431
5.482000,-3.483585
5.483000,-4.070359
5.484000,-4.462391
5.485000,-4.462391
5.486000,-4.341472
5.487000,-4.169640
5.488000,-3.847614
5.489000,-3.405942
5.490000,-2.322764
5.491000,-0.365151
5.492000,0.281446
5.493000,0.038336
5.494000,-0.180591
5.495000,-0.713907
5.496000,-1.356686
5.497000,-1.644345
5.498000,-1.909094
5.499000,-2.252758
5.500000,-2.633334
5.501000,-3.031730
5.502000,-3.179378
5.503000,-3.175560
5.504000,-2.899356
5.505000,-2.750435
5.506000,-2.638426
5.507000,-2.367313
5.508000,-2.093654
5.509000,-1.900184
5.510000,-1.617616
5.511000,-1.205219
5.512000,-1.004112
5.513000,-0.921378
5.514000,-0.823370
5.515000,-0.473342
5.516000,-0.388062
5.517000,-0.064763
5.518000,-0.058399
5.519000,-0.242959
5.520000,-0.006213
5.521000,0.271264
5.522000,0.135071
5.523000,-0.073673
5.524000,-0.595533
5.525000,-1.137759
5.526000,-1.436874
5.527000,-1.618889
5.528000,-1.769083
5.529000,-2.086017
5.530000,-2.210755
5.531000,-1.928186
5.532000,-1.888729
5.533000,-1.823814
5.534000,-1.673620
5.535000,-1.489060
5.536000,-1.473786
5.537000,-1.158124
5.538000,-1.186127
5.539000,-1.226857
5.540000,-1.300681
5.541000,-1.333775
5.542000,-1.669802
5.543000,-2.126748
5.544000,-2.537872
5.545000,-2.693157
5.546000,-2.784801
5.547000,-2.531508
5.548000,-1.669802
5.549000,-0.777548
5.550000,-0.353696
5.551000,-0.239141
5.552000,-0.368970
5.553000,-0.556076
5.554000,-0.575168
5.555000,-0.916287
5.556000,-1.477605
5.557000,-1.949824
5.558000,-2.294761
5.559000,-2.537872
5.560000,-2.619333
5.561000,-2.871353
5.562000,-3.105554
5.563000,-3.118282
5.564000,-2.703340
5.565000,-2.346947
5.566000,-2.044014
5.567000,-1.766537
5.568000,-1.529791
5.569000,-1.177217
5.570000,-0.729181
5.571000,-0.464432
5.572000,-0.414792
5.573000,-0.417337
5.574000,-0.538256
5.575000,-0.794095
5.576000,-0.452976
5.577000,0.243262
5.578000,0.681115
5.579000,1.065510
5.580000,1.155881
5.581000,0.887314
5.582000,0.133798
5.583000,-0.782639
5.584000,-1.874728
5.585000,-2.542963
5.586000,-2.707158
5.587000,-3.171741
5.588000,-3.529407
5.589000,-3.601958
5.590000,-3.334664
5.591000,-2.334219
5.592000,-1.982918
5.593000,-2.092381
5.594000,-2.401679
5.595000,-2.567147
5.596000,-2.353312
5.597000,-2.229847
5.598000,-2.138203
5.599000,-1.952370
5.600000,-1.794539
5.601000,-0.991384
5.602000,-0.753364
5.603000,-1.005385
5.604000,-0.629900
5.605000,-0.722816
5.606000,-0.543347
5.607000,-0.138587
5.608000,-0.260779
5.609000,-0.634991
5.610000,-1.163216
5.611000,-1.735989
5.612000,-2.456411
5.613000,-3.201016
5.614000,-3.803065
5.615000,-4.112363
5.616000,-4.019446
5.617000,-3.647780
5.618000,-3.391941
5.619000,-3.092826
5.620000,-2.629516
5.621000,-2.130566
5.622000,-1.505607
5.623000,-1.051207
5.624000,-0.601898
5.625000,-0.375334
5.626000,-0.172954
5.627000,0.080339
5.628000,-0.010032
5.629000,-0.178045
5.630000,-0.287509
5.631000,-0.475887
5.632000,-0.604443
5.633000,-0.745727
5.634000,-0.867919
5.635000,-1.042297
5.636000,-1.145396
5.637000,-1.178490
5.638000,-1.308318
5.639000,-1.476332
5.640000,-1.511971
5.641000,-1.364323
5.642000,-0.783912
5.643000,-0.323148
5.644000,-0.086401
5.645000,0.160528
5.646000,0.119797
5.647000,0.096886
5.648000,-0.088947
5.649000,-0.461886
5.650000,-0.866646
5.651000,-1.321046
5.652000,-1.785629
5.653000,-1.396143
5.654000,-1.160670
5.655000,-1.313410
5.656000,-1.533609
5.657000,-1.814905
5.658000,-2.206936
5.659000,-2.089836
5.660000,-2.136931
5.661000,-2.644790
5.662000,-3.036821
5.663000,-3.268476
5.664000,-3.432671
5.665000,-3.565046
5.666000,-3.651598
5.667000,-3.660508
5.668000,-3.474675
5.669000,-2.974453
5.670000,-2.456411
5.671000,-2.114020
5.672000,-1.505607
5.673000,-0.758456
5.674000,0.072702
5.675000,0.474917
5.676000,0.711663
5.677000,0.739665
5.678000,0.431640
5.679000,-0.351150
5.680000,-0.661721
5.681000,-0.811914
5.682000,-1.155579
5.683000,-1.449602
5.684000,-1.822541
5.685000,-2.405498
5.686000,-2.912084
5.687000,-3.222654
5.688000,-3.321935
5.689000,-3.139921
5.690000,-2.830623
5.691000,-2.772073
5.692000,-2.658791
5.693000,-2.469139
5.694000,-2.306217
5.695000,-2.046560
5.696000,-1.681257
5.697000,-1.315955
5.698000,-1.060116
5.699000,-0.592988
5.700000,-0.050762
5.701000,0.084158
5.702000,0.005242
5.703000,-0.050762
5.704000,-0.239141
5.705000,-0.410973
5.706000,-0.613353
5.707000,-1.103393
5.708000,-1.581977
5.709000,-1.926914
5.710000,-2.115292
5.711000,-2.185298
5.712000,-1.999465
5.713000,-1.363050
5.714000,-0.081310
5.715000,1.238615
5.716000,2.043043
5.717000,2.212330
5.718000,1.542821
5.719000,1.034962
5.720000,0.277628
5.721000,-0.870465
5.722000,-1.976554
5.723000,-3.047004
5.724000,-3.829794
5.725000,-4.337654
5.726000,-4.685136
5.727000,-4.724594
5.728000,-4.601129
5.729000,-4.220553
5.730000,-3.865434
5.731000,-3.511587
5.732000,-3.120828
5.733000,-2.392769
5.734000,-1.741080
5.735000,-1.326138
5.736000,-1.210310
5.737000,-1.203946
5.738000,-1.282862
5.739000,-1.253586
5.740000,-1.481423
5.741000,-1.681257
5.742000,-1.739808
5.743000,-1.529791
5.744000,-1.361777
5.745000,-1.132668
5.746000,-0.999020
5.747000,-0.999020
5.748000,-1.043570
5.749000,-0.524255
5.750000,-0.087674
5.751000,0.049791
5.752000,0.152891
5.753000,0.076521
5.754000,-0.223867
5.755000,-0.363878
5.756000,-0.524255
5.757000,-1.079209
5.758000,-1.748717
5.759000,-2.308763
5.760000,-2.632061
5.761000,-2.828077
5.762000,-2.696976
5.763000,-2.484413
5.764000,-2.310035
5.765000,-2.173843
5.766000,-2.017284
5.767000,-1.856908
5.768000,-1.774174
5.769000,-1.702895
5.770000,-1.711805
5.771000,-1.713078
5.772000,-1.531063
5.773000,-1.244677
5.774000,-0.937925
5.775000,-0.899740
5.776000,-0.898467
5.777000,-0.587896
5.778000,-0.324421
5.779000,-0.484797
5.780000,-0.343513
5.781000,-0.080037
5.782000,-0.040580
5.783000,-0.060945
5.784000,-0.189501
5.785000,-0.668085
5.786000,-1.413963
5.787000,-2.075835
5.788000,-2.708431
5.789000,-3.087735
5.790000,-3.181924
5.791000,-3.111918
5.792000,-3.090280
5.793000,-1.974008
5.794000,-0.757183
5.795000,0.373090
5.796000,0.925498
5.797000,1.665013
5.798000,1.855937
5.799000,1.236069
5.800000,0.140162
5.801000,-1.343957
5.802000,-2.873899
5.803000,-3.898527
5.804000,-4.612585
5.805000,-5.074622
5.806000,-5.223543
5.807000,-5.098806
5.808000,-4.938429
5.809000,-4.616403
5.810000,-3.941803
5.811000,-2.970634
5.812000,-2.021103
5.813000,-1.248495
5.814000,-0.664266
5.815000,-0.241687
5.816000,-0.312965
5.817000,-0.585351
5.818000,-0.782639
5.819000,-0.911195
5.820000,-1.016840
5.821000,-1.074117
5.822000,-1.270133
5.823000,-1.531063
5.824000,-1.651982
5.825000,-1.690167
5.826000,-1.636708
5.827000,-1.590886
5.828000,-1.495424
5.829000,-1.214129
5.830000,-0.873010
5.831000,-0.580259
5.832000,-0.460613
5.833000,-0.358787
5.834000,-0.414792
5.835000,-0.591715
5.836000,-0.904831
5.837000,-1.169580
5.838000,-1.307045
5.839000,-1.002839
5.840000,-0.862828
5.841000,-0.930288
5.842000,-0.917559
5.843000,-1.047388
5.844000,-1.254859
5.845000,-1.389779
5.846000,-1.590886
5.847000,-1.336320
5.848000,-1.117394
5.849000,-1.010476
5.850000,-1.091937
5.851000,-1.052479
5.852000,-1.174671
5.853000,-1.546337
5.854000,-1.859454
5.855000,-1.981645
5.856000,-1.756354
5.857000,-1.454694
5.858000,-1.416509
5.859000,-1.472513
5.860000,-1.524699
5.861000,-1.392325
5.862000,-1.450875
5.863000,-1.618889
5.864000,-1.679985
5.865000,-1.627799
5.866000,-1.454694
5.867000,-1.268860
5.868000,-1.004112
5.869000,-0.935379
5.870000,-0.915014
5.871000,0.028153
5.872000,0.486372
5.873000,0.305630
5.874000,-0.435157
5.875000,-1.345230
5.876000,-2.270578
5.877000,-2.936268
5.878000,-3.379213
5.879000,-3.875616
5.880000,-4.053812
5.881000,-3.814520
5.882000,-3.539589
5.883000,-3.397032
5.884000,-3.243020
5.885000,-3.095371
5.886000,-2.900628
5.887000,-2.682975
5.888000,-2.187844
5.889000,-1.369414
5.890000,-0.852645
5.891000,-0.445339
5.892000,-0.239141
5.893000,-0.272235
5.894000,-0.489889
5.895000,-0.433884
5.896000,0.196167
5.897000,0.738392
5.898000,0.636566
5.899000,0.194894
5.900000,-0.454249
5.901000,-1.230676
5.902000,-2.045287
5.903000,-2.634607
5.904000,-2.849715
5.905000,-3.010092
5.906000,-3.178105
5.907000,-3.141193
5.908000,-3.083916
5.909000,-3.012638
5.910000,-2.708431
5.911000,-2.262941
5.912000,-1.783084
5.913000,-1.295590
5.914000,-0.897194
5.915000,-0.645174
5.916000,-0.572622
5.917000,-0.596806
5.918000,-0.659175
5.919000,-0.818279
5.920000,-0.986292
5.921000,-1.094483
5.922000,-1.184854
5.923000,-1.351594
5.924000,-1.466149
5.925000,-1.452148
5.926000,-0.965927
5.927000,-0.660448
5.928000,-0.530619
5.929000,-0.449158
5.930000,-0.325693
5.931000,-0.147497
5.932000,-0.254415
5.933000,-0.679540
5.934000,-0.988838
5.935000,-0.887011
5.936000,-0.804278
5.937000,-0.904831
5.938000,-0.920105
5.939000,-1.285407
5.940000,-1.226857
5.941000,-1.209037
5.942000,-1.258678
5.943000,-1.514517
5.944000,-2.047832
5.945000,-2.609150
5.946000,-3.071188
5.947000,-3.222654
5.948000,-3.122101
5.949000,-2.649881
5.950000,-2.247667
5.951000,-2.191662
5.952000,-1.816177
5.953000,-0.547166
5.954000,0.622565
5.955000,1.113877
5.956000,0.939500
5.957000,0.870767
5.958000,0.171983
5.959000,-0.747000
5.960000,-1.837815
5.961000,-2.966816
5.962000,-3.759789
5.963000,-4.430570
5.964000,-4.686409
5.965000,-4.666044
5.966000,-4.442026
5.967000,-4.020719
5.968000,-3.775063
5.969000,-3.173014
5.970000,-2.713522
5.971000,-2.271850
5.972000,-1.721988
5.973000,-1.319774
5.974000,-1.201400
5.975000,-1.033387
5.976000,-0.873010
5.977000,-0.251869
5.978000,-0.097857
5.979000,0.029426
5.980000,0.107069
5.981000,-0.209866
5.982000,-0.660448
5.983000,-0.944289
5.984000,-1.221766
5.985000,-1.032114
5.986000,-1.243404
5.987000,-1.494151
5.988000,-1.742353
5.989000,-1.989282
5.990000,-2.058015
5.991000,-1.514517
5.992000,-1.060116
5.993000,-0.553530
5.994000,-0.139860
5.995000,-0.148770
5.996000,-0.601898
5.997000,-1.058844
5.998000,-1.383415
5.999000,-1.626526
6.000000,-1.818723
6.001000,-1.956189
6.002000,-2.052924
6.003000,-2.186571
6.004000,-2.326582
6.005000,-2.371131
6.006000,-2.388951
6.007000,-1.981645
6.008000,-1.393598
6.009000,-0.805550
6.010000,-0.547166
6.011000,-0.528073
6.012000,-0.827188
6.013000,-0.833553
6.014000,-0.380425
6.015000,-0.343513
6.016000,-0.561167
6.017000,-0.620990
6.018000,-0.473342
6.019000,-0.111858
6.020000,-0.105494
6.021000,-0.283690
6.022000,-1.055025
6.023000,-1.616343
6.024000,-1.254859
6.025000,-1.634163
6.026000,-2.033831
6.027000,-1.884910
6.028000,-2.206936
6.029000,-2.441137
6.030000,-2.747889
6.031000,-3.133556
6.032000,-3.412306
6.033000,-3.601958
6.034000,-3.691056
6.035000,-3.768699
6.036000,-3.566319
6.037000,-3.318117
6.038000,-3.052095
6.039000,-2.838260
6.040000,-2.750435
6.041000,-2.472958
6.042000,-2.150932
6.043000,-1.744899
6.044000,-1.500516
6.045000,-0.949380
6.046000,-0.127132
6.047000,0.431640
6.048000,0.863130
6.049000,0.972593
6.050000,1.043872
6.051000,0.842764
6.052000,0.416366
6.053000,-0.006213
6.054000,-0.707542
6.055000,-1.153033
6.056000,-1.303227
6.057000,-1.592159
6.058000,-1.836543
6.059000,-2.120384
6.060000,-2.327855
6.061000,-2.493323
6.062000,-2.276942
6.063000,-2.250212
6.064000,-2.092381
6.065000,-1.835270
6.066000,-1.799631
6.067000,-1.807268
6.068000,-1.755082
6.069000,-1.742353
6.070000,-1.811086
6.071000,-1.821269
6.072000,-1.742353
6.073000,-1.696531
6.074000,-1.672348
6.075000,-1.509425
6.076000,-1.182308
6.077000,-0.720271
6.078000,-0.586624
6.079000,-0.488616
6.080000,-0.552257
6.081000,-0.351150
6.082000,-0.147497
6.083000,-0.217503
6.084000,-0.269689
6.085000,-0.505162
6.086000,-0.627354
6.087000,-0.918832
6.088000,-1.046115
6.089000,-1.427964
6.090000,-0.946834
6.091000,-0.534438
6.092000,-0.174227
6.093000,-0.368970
6.094000,-1.055025
6.095000,-1.932005
6.096000,-2.922267
6.097000,-3.633779
6.098000,-4.067814
6.099000,-4.337654
6.100000,-4.248555
6.101000,-3.881980
6.102000,-3.482312
6.103000,-3.078825
6.104000,-2.971907
6.105000,-2.737706
6.106000,-2.576057
6.107000,-2.352039
6.108000,-2.026194
6.109000,-1.659619
6.110000,-0.988838
6.111000,-0.522982
6.112000,-0.427520
6.113000,-0.296418
6.114000,-0.276053
6.115000,-0.263325
6.116000,0.075248
6.117000,0.205077
6.118000,-0.114404
6.119000,-0.301510
6.120000,-0.604443
6.121000,-0.996475
6.122000,-1.459785
6.123000,-2.112747
6.124000,-2.396588
6.125000,-2.241303
6.126000,-2.166206
6.127000,-1.923095
6.128000,-0.906104
6.129000,0.217805
6.130000,1.732473
6.131000,2.175417
6.132000,1.489362
6.133000,0.552559
6.134000,-0.533165
6.135000,-1.727079
6.136000,-2.929904
6.137000,-3.810702
6.138000,-4.257465
6.139000,-4.466209
6.140000,-4.500576
6.141000,-4.350382
6.142000,-3.845068
6.143000,-3.271022
6.144000,-3.047004
6.145000,-2.236211
6.146000,-1.537428
6.147000,-0.791549
6.148000,-0.371515
6.149000,-0.100403
6.150000,-0.282417
6.151000,-0.744455
6.152000,-1.202673
6.153000,-1.621434
6.154000,-1.718169
6.155000,-1.893820
6.156000,-2.051651
6.157000,-2.033831
6.158000,-2.027467
6.159000,-2.047832
6.160000,-2.094927
6.161000,-2.140749
6.162000,-1.853089
6.163000,-1.555247
6.164000,-1.285407
6.165000,-1.197582
6.166000,-1.114848
6.167000,-0.866646
6.168000,-0.477160
6.169000,0.206349
6.170000,0.693843
6.171000,0.659477
6.172000,0.301812
6.173000,-0.179318
6.174000,-0.673176
6.175000,-1.155579
6.176000,-1.607433
6.177000,-1.951097
6.178000,-2.097473
6.179000,-2.041468
6.180000,-1.961280
6.181000,-1.702895
6.182000,-1.560339
6.183000,-1.518335
6.184000,-1.585795
6.185000,-1.673620
6.186000,-1.772901
6.187000,-1.892547
6.188000,-1.706714
6.189000,-1.632890
6.190000,-1.083027
6.191000,-0.711361
6.192000,-0.650265
6.193000,-0.752091
6.194000,-1.081754
6.195000,-1.006657
6.196000,-1.136486
6.197000,-1.038478
6.198000,-1.159397
6.199000,-1.439420
6.200000,-1.760173
6.201000,-1.944733
6.202000,-2.035104
6.203000,-2.234938
6.204000,-2.279487
6.205000,-1.998192
6.206000,-1.452148
6.207000,-0.851372
6.208000,0.315813
6.209000,0.403638
6.210000,0.325996
6.211000,-0.029124
6.212000,-0.584078
6.213000,-1.081754
6.214000,-1.830178
6.215000,-2.666428
6.216000,-3.419943
6.217000,-3.855251
6.218000,-4.238373
6.219000,-4.351655
6.220000,-4.447117
6.221000,-4.035993
6.222000,-3.208653
6.223000,-2.674065
6.224000,-1.897638
6.225000,-1.445784
6.226000,-1.259951
6.227000,-1.351594
6.228000,-1.557793
6.229000,-1.699077
6.230000,-1.739808
6.231000,-1.706714
6.232000,-1.705441
6.233000,-1.617616
6.234000,-1.467422
6.235000,-1.300681
6.236000,-1.230676
6.237000,-1.196309
6.238000,-1.184854
6.239000,-1.119939
6.240000,-0.972291
6.241000,-0.890830
6.242000,-0.493707
6.243000,-0.318056
6.244000,-0.277326
6.245000,-0.315511
6.246000,-0.222594
6.247000,-0.340967
6.248000,-0.450431
6.249000,-0.363878
6.250000,0.211441
6.251000,0.978957
6.252000,0.808398
6.253000,0.617474
6.254000,0.177074
6.255000,-0.458068
6.256000,-1.438147
6.257000,-2.448774
6.258000,-3.036821
6.259000,-3.463219
6.260000,-3.654144
6.261000,-3.754697
6.262000,-3.915074
6.263000,-3.876889
6.264000,-3.507768
6.265000,-3.006273
6.266000,-2.354584
6.267000,-1.925641
6.268000,-1.746172
6.269000,-1.588341
6.270000,-1.485242
6.271000,-1.420327
6.272000,-0.972291
6.273000,-0.755910
6.274000,-0.643901
6.275000,-0.696087
6.276000,-0.796641
6.277000,-0.974837
6.278000,-1.158124
6.279000,-1.492879
6.280000,-1.803449
6.281000,-1.925641
6.282000,-1.804722
6.283000,-1.707987
6.284000,-1.757627
6.285000,-1.793266
6.286000,-1.779265
6.287000,-1.639254
6.288000,-0.885739
6.289000,0.506737
6.290000,1.817752
6.291000,2.881838
6.292000,3.560257
6.293000,3.396061
6.294000,2.911113
6.295000,2.391799
6.296000,1.214431
6.297000,-0.259506
6.298000,-1.819996
6.299000,-3.365211
6.300000,-4.472574
6.301000,-5.368646
6.302000,-6.181984
6.303000,-6.641476
6.304000,-6.612201
6.305000,-6.253263
6.306000,-5.828137
6.307000,-5.483201
6.308000,-5.023709
6.309000,-4.310924
6.310000,-3.278659
6.311000,-2.535326
6.312000,-2.164933
6.313000,-1.854362
6.314000,-1.555247
6.315000,-1.314682
6.316000,-1.159397
6.317000,-0.986292
6.318000,-0.745727
6.319000,-0.531892
6.320000,-0.394426
6.321000,-0.244232
6.322000,0.124888
6.323000,0.295448
6.324000,0.659477
6.325000,1.125333
6.326000,1.458814
6.327000,1.365898
6.328000,1.000595
6.329000,0.564015
6.330000,0.007788
6.331000,-0.758456
6.332000,-1.771628
6.333000,-2.698249
