LabVIEW Measurement,
Writer_Version,2
Reader_Version,2
Separator,Comma
Decimal_Separator,.
Multi_Headings,No
X_Columns,Multi
Time_Pref,Absolute
Operator,Dymnz
Date,2017/08/08
Time,15:03:18.8940825833529079744
***End_of_Header***,
,
Channels,1,
Samples,1000,
Date,2017/08/08,
Time,15:03:18.8940825833529079744,
Y_Unit_Label,Volts,
X_Dimension,Time,
X0,0.0000000000000000E+0,
Delta_X,0.001000,
***End_of_Header***,,
X_Value,Voltage,Comment
0.000000,-2.290943
0.001000,-1.435601
0.002000,-0.767365
0.003000,0.066338
0.004000,0.620019
0.005000,0.583107
0.006000,0.215259
0.007000,-0.120768
0.008000,-0.729181
0.009000,-1.074117
0.010000,-1.548883
0.011000,-2.457684
0.012000,-3.276113
0.013000,-3.553590
0.014000,-3.540862
0.015000,-3.436490
0.016000,-3.465765
0.017000,-3.075006
0.018000,-2.382587
0.019000,-2.394042
0.020000,-2.632061
0.021000,-2.662609
0.022000,-2.038923
0.023000,-1.468695
0.024000,-1.099574
0.025000,-0.945562
0.026000,-0.870465
0.027000,-0.747000
0.028000,-0.272235
0.029000,-0.062218
0.030000,-0.101675
0.031000,-0.559894
0.032000,-1.397416
0.033000,-2.044014
0.034000,-2.324037
0.035000,-1.960007
0.036000,-1.791994
0.037000,-1.769083
0.038000,-1.692713
0.039000,-1.352867
0.040000,-1.089391
0.041000,-0.842462
0.042000,-0.748273
0.043000,-0.339695
0.044000,0.049791
0.045000,0.227988
0.046000,0.221623
0.047000,-0.106767
0.048000,-0.436430
0.049000,-1.066480
0.050000,-2.060561
0.051000,-2.483140
0.052000,-2.269305
0.053000,-2.185298
0.054000,-2.825532
0.055000,-3.352483
0.056000,-3.309207
0.057000,-3.192107
0.058000,-2.805166
0.059000,-2.564601
0.060000,-2.058015
0.061000,-1.307045
0.062000,-1.205219
0.063000,-0.832280
0.064000,-0.036761
0.065000,0.243262
0.066000,0.188530
0.067000,-0.398245
0.068000,-1.117394
0.069000,-1.631617
0.070000,-2.152204
0.071000,-2.763163
0.072000,-3.066096
0.073000,-3.082643
0.074000,-2.779710
0.075000,-2.671519
0.076000,-2.633334
0.077000,-2.150932
0.078000,-1.121212
0.079000,-0.206047
0.080000,0.269991
0.081000,0.410002
0.082000,0.225442
0.083000,-0.278599
0.084000,-0.949380
0.085000,-1.963826
0.086000,-3.012638
0.087000,-3.036821
0.088000,-3.159013
0.089000,-3.104281
0.090000,-3.039367
0.091000,-2.811530
0.092000,-2.345675
0.093000,-1.780538
0.094000,-1.098301
0.095000,-0.584078
0.096000,-0.312965
0.097000,-0.036761
0.098000,0.099432
0.099000,-0.115676
0.100000,-0.152589
0.101000,-0.538256
0.102000,-1.051207
0.103000,-1.631617
0.104000,-2.475503
0.105000,-2.210755
0.106000,-1.709260
0.107000,-1.207765
0.108000,-0.502617
0.109000,-0.152589
0.110000,0.199985
0.111000,0.157982
0.112000,-0.116949
0.113000,-0.530619
0.114000,-0.931561
0.115000,-1.611252
0.116000,-2.358403
0.117000,-3.264658
0.118000,-3.100463
0.119000,-2.294761
0.120000,-2.176388
0.121000,-2.214573
0.122000,-2.064379
0.123000,-2.000738
0.124000,-2.110201
0.125000,-2.173843
0.126000,-1.966371
0.127000,-2.106383
0.128000,-2.144567
0.129000,-2.142022
0.130000,-2.343129
0.131000,-2.416953
0.132000,-2.074562
0.133000,-1.744899
0.134000,-1.412690
0.135000,-1.046115
0.136000,-0.851372
0.137000,-0.594261
0.138000,-0.366424
0.139000,0.085431
0.140000,0.449460
0.141000,0.460915
0.142000,0.396001
0.143000,0.337451
0.144000,-0.455522
0.145000,-1.047388
0.146000,-0.654084
0.147000,-0.665539
0.148000,-0.634991
0.149000,-1.084300
0.150000,-2.590058
0.151000,-3.142466
0.152000,-3.024093
0.153000,-2.588785
0.154000,-2.068198
0.155000,-1.482696
0.156000,-0.979928
0.157000,-0.409700
0.158000,-0.069855
0.159000,-0.395699
0.160000,-1.391052
0.161000,-2.845897
0.162000,-3.932894
0.163000,-5.003344
0.164000,-5.438651
0.165000,-4.556580
0.166000,-3.301570
0.167000,-2.508597
0.168000,-2.036377
0.169000,-2.066925
0.170000,-1.634163
0.171000,-1.341412
0.172000,-1.724534
0.173000,-2.270578
0.174000,-2.665155
0.175000,-2.789892
0.176000,-2.587512
0.177000,-2.301126
0.178000,-2.013466
0.179000,-1.396143
0.180000,-0.803005
0.181000,-0.634991
0.182000,-0.530619
0.183000,-0.460613
0.184000,-0.424974
0.185000,-0.272235
0.186000,0.236897
0.187000,0.578016
0.188000,0.715481
0.189000,0.737120
0.190000,0.333632
0.191000,-0.297691
0.192000,-0.404609
0.193000,-0.554803
0.194000,-1.028296
0.195000,-1.912912
0.196000,-2.383860
0.197000,-2.773345
0.198000,-2.940086
0.199000,-3.178105
0.200000,-2.539145
0.201000,-1.679985
0.202000,-1.116121
0.203000,-0.488616
0.204000,-0.116949
0.205000,0.095613
0.206000,0.028153
0.207000,-0.181864
0.208000,-0.167863
0.209000,-0.156407
0.210000,-0.302782
0.211000,-0.870465
0.212000,-1.599796
0.213000,-2.312581
0.214000,-3.005001
0.215000,-3.250657
0.216000,-3.156467
0.217000,-3.389395
0.218000,-3.306661
0.219000,-3.230291
0.220000,-3.017729
0.221000,-2.746616
0.222000,-2.516234
0.223000,-2.130566
0.224000,-1.654528
0.225000,-0.887011
0.226000,-0.176772
0.227000,0.272537
0.228000,0.623838
0.229000,0.807125
0.230000,0.490191
0.231000,-0.012577
0.232000,-0.595533
0.233000,-0.899740
0.234000,-1.233221
0.235000,-1.920549
0.236000,-1.909094
0.237000,-1.392325
0.238000,-1.702895
0.239000,-2.133112
0.240000,-1.957461
0.241000,-1.763991
0.242000,-2.139476
0.243000,-2.218392
0.244000,-2.248940
0.245000,-2.268032
0.246000,-2.419499
0.247000,-2.283306
0.248000,-1.548883
0.249000,-1.341412
0.250000,-1.234494
0.251000,-0.847554
0.252000,-0.533165
0.253000,-0.592988
0.254000,-0.857736
0.255000,-1.317228
0.256000,-1.594705
0.257000,-1.876000
0.258000,-2.275669
0.259000,-2.458956
0.260000,-2.609150
0.261000,-2.413135
0.262000,-2.294761
0.263000,-2.606605
0.264000,-3.016456
0.265000,-3.012638
0.266000,-2.870081
0.267000,-2.176388
0.268000,-1.606160
0.269000,-1.169580
0.270000,-0.501344
0.271000,0.063793
0.272000,0.408729
0.273000,0.282719
0.274000,-0.008759
0.275000,-0.363878
0.276000,-1.005385
0.277000,-1.606160
0.278000,-1.770355
0.279000,-2.270578
0.280000,-2.028740
0.281000,-1.870909
0.282000,-2.041468
0.283000,-2.135658
0.284000,-2.219664
0.285000,-1.814905
0.286000,-1.727079
0.287000,-2.061834
0.288000,-2.007102
0.289000,-1.668529
0.290000,-1.294317
0.291000,-0.549712
0.292000,0.029426
0.293000,0.303085
0.294000,0.873312
0.295000,1.435903
0.296000,1.260253
0.297000,0.962411
0.298000,0.196167
0.299000,-0.634991
0.300000,-1.809813
0.301000,-3.342301
0.302000,-4.088179
0.303000,-4.411478
0.304000,-4.747505
0.305000,-5.150992
0.306000,-5.068258
0.307000,-4.117454
0.308000,-2.924812
0.309000,-2.255304
0.310000,-1.478877
0.311000,-0.614626
0.312000,-0.194592
0.313000,-0.102948
0.314000,-0.088947
0.315000,-0.085129
0.316000,-0.241687
0.317000,-0.604443
0.318000,-0.925196
0.319000,-1.693986
0.320000,-2.298580
0.321000,-2.872626
0.322000,-2.768254
0.323000,-2.171297
0.324000,-1.523426
0.325000,-1.223039
0.326000,-1.035933
0.327000,-0.757183
0.328000,-0.358787
0.329000,0.019243
0.330000,0.384546
0.331000,0.457097
0.332000,0.079067
0.333000,-0.422429
0.334000,-1.235767
0.335000,-1.699077
0.336000,-2.031286
0.337000,-2.903174
0.338000,-3.209926
0.339000,-2.559510
0.340000,-2.401679
0.341000,-2.168751
0.342000,-1.468695
0.343000,-0.960836
0.344000,-0.772457
0.345000,-0.469523
0.346000,-0.587896
0.347000,-0.624808
0.348000,-0.715179
0.349000,-0.794095
0.350000,-1.077936
0.351000,-0.808096
0.352000,-0.199683
0.353000,-0.351150
0.354000,-0.741909
0.355000,-1.158124
0.356000,-1.654528
0.357000,-2.343129
0.358000,-2.662609
0.359000,-2.691884
0.360000,-2.271850
0.361000,-1.832724
0.362000,-1.784357
0.363000,-2.392769
0.364000,-2.247667
0.365000,-2.206936
0.366000,-2.325309
0.367000,-2.765709
0.368000,-2.987181
0.369000,-3.342301
0.370000,-3.741969
0.371000,-3.946895
0.372000,-3.542135
0.373000,-2.824259
0.374000,-1.957461
0.375000,-1.489060
0.376000,-1.207765
0.377000,-0.799186
0.378000,-0.684631
0.379000,-0.694814
0.380000,-0.330785
0.381000,0.151618
0.382000,0.403638
0.383000,0.938227
0.384000,1.274254
0.385000,1.505909
0.386000,1.607735
0.387000,1.018415
0.388000,0.180893
0.389000,-0.277326
0.390000,-1.252314
0.391000,-2.910811
0.392000,-3.618505
0.393000,-3.789064
0.394000,-4.440753
0.395000,-4.742413
0.396000,-4.612585
0.397000,-4.249828
0.398000,-3.394487
0.399000,-2.821713
0.400000,-2.089836
0.401000,-1.371960
0.402000,-0.898467
0.403000,-0.741909
0.404000,-0.575168
0.405000,-0.115676
0.406000,0.194894
0.407000,0.407457
0.408000,0.490191
0.409000,0.267445
0.410000,-0.130950
0.411000,-0.864101
0.412000,-1.230676
0.413000,-2.154750
0.414000,-2.731342
0.415000,-2.794984
0.416000,-2.254031
0.417000,-1.958734
0.418000,-1.898911
0.419000,-1.861999
0.420000,-1.916731
0.421000,-1.793266
0.422000,-1.257405
0.423000,-1.281589
0.424000,-1.175944
0.425000,-0.953199
0.426000,-0.795368
0.427000,-0.814460
0.428000,-1.114848
0.429000,-1.300681
0.430000,-1.350322
0.431000,-1.539973
0.432000,-1.514517
0.433000,-1.581977
0.434000,-1.375778
0.435000,-1.430510
0.436000,-1.873455
0.437000,-1.781811
0.438000,-1.491606
0.439000,-0.986292
0.440000,-0.743182
0.441000,-0.706270
0.442000,-0.673176
0.443000,-0.632445
0.444000,-0.759728
0.445000,-1.853089
0.446000,-2.349493
0.447000,-1.960007
0.448000,-1.571794
0.449000,-1.581977
0.450000,-1.445784
0.451000,-1.258678
0.452000,-1.168307
0.453000,-0.931561
0.454000,-1.011749
0.455000,-1.361777
0.456000,-1.599796
0.457000,-2.131839
0.458000,-2.422044
0.459000,-2.763163
0.460000,-3.146285
0.461000,-3.333391
0.462000,-2.990999
0.463000,-2.744070
0.464000,-2.433500
0.465000,-2.175115
0.466000,-1.919277
0.467000,-1.854362
0.468000,-1.985464
0.469000,-1.761446
0.470000,-1.262496
0.471000,-1.132668
0.472000,-1.276497
0.473000,-0.913741
0.474000,-0.418610
0.475000,-0.422429
0.476000,-0.656629
0.477000,-0.366424
0.478000,-0.610807
0.479000,-0.875556
0.480000,-1.104665
0.481000,-1.295590
0.482000,-1.662165
0.483000,-2.148386
0.484000,-2.492050
0.485000,-2.712250
0.486000,-2.777164
0.487000,-2.755526
0.488000,-2.120384
0.489000,-1.249768
0.490000,-0.068582
0.491000,0.762576
0.492000,1.236069
0.493000,1.579733
0.494000,1.682832
0.495000,1.396446
0.496000,0.756212
0.497000,-0.146224
0.498000,-1.116121
0.499000,-2.770800
0.500000,-3.978715
0.501000,-5.194268
0.502000,-5.671579
0.503000,-4.727140
0.504000,-3.637597
0.505000,-2.932449
0.506000,-2.341856
0.507000,-1.681257
0.508000,-1.298136
0.509000,-1.015567
0.510000,-0.606989
0.511000,-0.206047
0.512000,0.185984
0.513000,0.908952
0.514000,1.132970
0.515000,0.998050
0.516000,0.564015
0.517000,-0.540802
0.518000,-1.146669
0.519000,-1.422873
0.520000,-1.556520
0.521000,-1.921822
0.522000,-2.760617
0.523000,-3.800519
0.524000,-4.431843
0.525000,-4.112363
0.526000,-3.551045
0.527000,-2.960452
0.528000,-2.793711
0.529000,-2.973180
0.530000,-2.868808
0.531000,-2.560783
0.532000,-1.991828
0.533000,-1.163216
0.534000,-0.464432
0.535000,0.141435
0.536000,0.617474
0.537000,0.782941
0.538000,0.654386
0.539000,0.494009
0.540000,0.043427
0.541000,-0.732999
0.542000,-1.823814
0.543000,-2.334219
0.544000,-2.690612
0.545000,-3.332118
0.546000,-3.885799
0.547000,-4.272739
0.548000,-3.725422
0.549000,-2.878990
0.550000,-2.425863
0.551000,-1.979100
0.552000,-1.500516
0.553000,-0.839917
0.554000,-0.155134
0.555000,0.171983
0.556000,0.365453
0.557000,0.334905
0.558000,0.272537
0.559000,-0.017669
0.560000,-0.330785
0.561000,-0.608262
0.562000,-0.862828
0.563000,-1.067753
0.564000,-1.291771
0.565000,-1.958734
0.566000,-2.514961
0.567000,-2.363494
0.568000,-2.110201
0.569000,-1.772901
0.570000,-1.742353
0.571000,-1.730898
0.572000,-0.862828
0.573000,-0.242959
0.574000,0.138890
0.575000,0.075248
0.576000,0.115979
0.577000,0.089249
0.578000,-0.533165
0.579000,-0.738090
0.580000,-0.811914
0.581000,-1.256132
0.582000,-2.014739
0.583000,-2.890446
0.584000,-3.985080
0.585000,-3.922711
0.586000,-3.544680
0.587000,-3.108100
0.588000,-2.746616
0.589000,-2.303671
0.590000,-1.587068
0.591000,-1.537428
0.592000,-1.478877
0.593000,-1.612525
0.594000,-1.029568
0.595000,-0.300237
0.596000,-0.004940
0.597000,0.015425
0.598000,-0.167863
0.599000,-0.488616
0.600000,-1.463603
0.601000,-2.975725
0.602000,-3.969806
0.603000,-3.748333
0.604000,-3.260839
0.605000,-2.690612
0.606000,-2.607878
0.607000,-2.484413
0.608000,-2.383860
0.609000,-2.218392
0.610000,-1.920549
0.611000,-2.069471
0.612000,-1.993101
0.613000,-1.640527
0.614000,-1.427964
0.615000,-1.343957
0.616000,-1.183581
0.617000,-1.168307
0.618000,-1.410145
0.619000,-1.206492
0.620000,-0.904831
0.621000,-0.757183
0.622000,-0.312965
0.623000,0.063793
0.624000,0.081612
0.625000,0.115979
0.626000,0.478735
0.627000,0.403638
0.628000,0.390910
0.629000,0.266173
0.630000,0.094340
0.631000,0.080339
0.632000,-0.363878
0.633000,-0.703724
0.634000,-1.002839
0.635000,-1.207765
0.636000,-1.511971
0.637000,-2.033831
0.638000,-3.295206
0.639000,-4.258738
0.640000,-4.993161
0.641000,-4.793327
0.642000,-4.123818
0.643000,-3.545953
0.644000,-3.020275
0.645000,-2.373677
0.646000,-1.784357
0.647000,-0.883193
0.648000,-0.321875
0.649000,-0.045671
0.650000,0.039609
0.651000,-0.024033
0.652000,-0.269689
0.653000,-0.595533
0.654000,-1.179762
0.655000,-1.301954
0.656000,-1.216674
0.657000,-1.175944
0.658000,-1.272679
0.659000,-1.816177
0.660000,-2.693157
0.661000,-3.803065
0.662000,-3.902346
0.663000,-3.580320
0.664000,-3.041913
0.665000,-2.586239
0.666000,-2.070743
0.667000,-1.377051
0.668000,-0.629900
0.669000,-0.189501
0.670000,0.217805
0.671000,0.466007
0.672000,0.427822
0.673000,0.352725
0.674000,0.208895
0.675000,0.091795
0.676000,-0.242959
0.677000,-0.850099
0.678000,-1.117394
0.679000,-1.336320
0.680000,-1.658346
0.681000,-2.198026
0.682000,-2.028740
0.683000,-1.823814
0.684000,-1.611252
0.685000,-1.872182
0.686000,-1.826360
0.687000,-1.494151
0.688000,-1.140305
0.689000,-1.258678
0.690000,-1.408872
0.691000,-1.331229
0.692000,-1.472513
0.693000,-1.851817
0.694000,-2.364767
0.695000,-2.548055
0.696000,-2.845897
0.697000,-3.297751
0.698000,-3.612140
0.699000,-3.108100
0.700000,-2.812803
0.701000,-2.112747
0.702000,-0.965927
0.703000,-0.234050
0.704000,0.082885
0.705000,-0.080037
0.706000,-0.480979
0.707000,-0.666812
0.708000,-1.186127
0.709000,-1.533609
0.710000,-1.870909
0.711000,-1.911640
0.712000,-1.870909
0.713000,-2.164933
0.714000,-2.672792
0.715000,-2.886627
0.716000,-2.556964
0.717000,-1.949824
0.718000,-1.720715
0.719000,-1.714351
0.720000,-1.615070
0.721000,-1.626526
0.722000,-1.131395
0.723000,-0.769911
0.724000,-0.596806
0.725000,-0.442794
0.726000,-0.416064
0.727000,-0.531892
0.728000,-0.820824
0.729000,-1.305773
0.730000,-1.612525
0.731000,-1.868363
0.732000,-1.443238
0.733000,-0.832280
0.734000,-0.647719
0.735000,-0.578987
0.736000,-0.465705
0.737000,-0.492434
0.738000,-0.974837
0.739000,-0.712634
0.740000,-0.792822
0.741000,-1.168307
0.742000,-1.494151
0.743000,-1.842907
0.744000,-1.828906
0.745000,-1.995646
0.746000,-2.227301
0.747000,-2.414407
0.748000,-2.493323
0.749000,-2.201845
0.750000,-2.255304
0.751000,-2.222210
0.752000,-1.765264
0.753000,-1.429237
0.754000,-1.153033
0.755000,-0.568804
0.756000,-0.035488
0.757000,0.318359
0.758000,0.109614
0.759000,-0.486070
0.760000,-1.482696
0.761000,-2.705886
0.762000,-3.647780
0.763000,-3.581593
0.764000,-3.613413
0.765000,-3.445400
0.766000,-2.735161
0.767000,-1.898911
0.768000,-1.790721
0.769000,-1.392325
0.770000,-1.047388
0.771000,-0.950653
0.772000,-0.911195
0.773000,-0.713907
0.774000,-0.955744
0.775000,-1.085573
0.776000,-1.239585
0.777000,-1.865818
0.778000,-2.685520
0.779000,-2.858625
0.780000,-2.208209
0.781000,-1.818723
0.782000,-1.798358
0.783000,-1.780538
0.784000,-1.786902
0.785000,-1.238313
0.786000,-0.664266
0.787000,-0.204775
0.788000,-0.202229
0.789000,-0.010032
0.790000,0.029426
0.791000,-0.225140
0.792000,0.107069
0.793000,0.506737
0.794000,0.575470
0.795000,0.119797
0.796000,-0.339695
0.797000,-0.693541
0.798000,-0.819551
0.799000,-1.396143
0.800000,-1.674893
0.801000,-1.627799
0.802000,-1.867091
0.803000,-2.987181
0.804000,-3.992717
0.805000,-4.154366
0.806000,-3.623596
0.807000,-2.997364
0.808000,-2.970634
0.809000,-2.654972
0.810000,-2.772073
0.811000,-3.108100
0.812000,-3.169196
0.813000,-3.239201
0.814000,-2.390224
0.815000,-1.839088
0.816000,-1.718169
0.817000,-1.346503
0.818000,-0.809369
0.819000,-0.614626
0.820000,-0.668085
0.821000,-0.366424
0.822000,-0.543347
0.823000,-0.968473
0.824000,-1.023204
0.825000,-1.534882
0.826000,-1.958734
0.827000,-2.273123
0.828000,-2.881536
0.829000,-2.707158
0.830000,-2.335492
0.831000,-1.758900
0.832000,-1.322319
0.833000,-1.004112
0.834000,-0.664266
0.835000,-0.419883
0.836000,-0.151316
0.837000,0.084158
0.838000,0.346361
0.839000,0.751121
0.840000,1.098603
0.841000,1.172427
0.842000,0.739665
0.843000,-0.297691
0.844000,-1.757627
0.845000,-2.442410
0.846000,-2.691884
0.847000,-2.989727
0.848000,-3.153922
0.849000,-3.068642
0.850000,-2.898083
0.851000,-2.471685
0.852000,-1.529791
0.853000,-0.497525
0.854000,0.347634
0.855000,0.651840
0.856000,0.429095
0.857000,0.310722
0.858000,-0.058399
0.859000,-0.417337
0.860000,-0.964654
0.861000,-1.522154
0.862000,-2.868808
0.863000,-3.847614
0.864000,-4.504394
0.865000,-5.334279
0.866000,-4.536215
0.867000,-3.220109
0.868000,-2.378768
0.869000,-2.038923
0.870000,-1.627799
0.871000,-1.189945
0.872000,-0.985019
0.873000,-0.963381
0.874000,-0.846281
0.875000,-0.501344
0.876000,-0.412246
0.877000,-0.466978
0.878000,-0.282417
0.879000,-0.386789
0.880000,-0.776275
0.881000,-1.506880
0.882000,-2.231120
0.883000,-2.826804
0.884000,-3.097917
0.885000,-2.831896
0.886000,-2.990999
0.887000,-3.136102
0.888000,-2.111474
0.889000,-0.929015
0.890000,-0.185682
0.891000,0.394728
0.892000,0.812217
0.893000,0.562742
0.894000,0.133798
0.895000,-0.501344
0.896000,-1.189945
0.897000,-2.270578
0.898000,-3.081370
0.899000,-3.761062
0.900000,-4.368201
0.901000,-4.439480
0.902000,-3.888345
0.903000,-3.264658
0.904000,-2.574784
0.905000,-2.176388
0.906000,-1.886183
0.907000,-1.509425
0.908000,-1.114848
0.909000,-0.791549
0.910000,-0.571350
0.911000,-0.375334
0.912000,-0.245505
0.913000,-0.227686
0.914000,-0.246778
0.915000,-0.144952
0.916000,-0.234050
0.917000,-0.236595
0.918000,-0.409700
0.919000,-0.803005
0.920000,-0.753364
0.921000,-0.556076
0.922000,-0.628627
0.923000,-0.662993
0.924000,-0.754637
0.925000,-0.670630
0.926000,-0.694814
0.927000,-0.906104
0.928000,-1.287953
0.929000,-1.968917
0.930000,-2.544236
0.931000,-3.055914
0.932000,-3.179378
0.933000,-2.481867
0.934000,-1.845452
0.935000,-1.454694
0.936000,-0.841190
0.937000,-0.615899
0.938000,-0.828461
0.939000,-1.198855
0.940000,-1.776720
0.941000,-2.344402
0.942000,-2.708431
0.943000,-2.707158
0.944000,-2.346947
0.945000,-1.991828
0.946000,-1.699077
0.947000,-1.352867
0.948000,-0.508981
0.949000,0.086703
0.950000,0.328541
0.951000,0.280174
0.952000,0.098159
0.953000,0.085431
0.954000,-0.318056
0.955000,-1.234494
0.956000,-2.502233
0.957000,-3.712694
0.958000,-4.125091
0.959000,-4.274012
0.960000,-4.303287
0.961000,-3.671963
0.962000,-3.071188
0.963000,-2.567147
0.964000,-2.259122
0.965000,-1.766537
0.966000,-1.280316
0.967000,-1.056298
0.968000,-0.837371
0.969000,-0.657902
0.970000,-0.166590
0.971000,0.151618
0.972000,0.357816
0.973000,0.581834
0.974000,0.850401
0.975000,0.838946
0.976000,1.037507
0.977000,0.998050
0.978000,0.757485
0.979000,-0.144952
0.980000,-1.842907
0.981000,-2.858625
0.982000,-3.509041
0.983000,-4.212916
0.984000,-4.914246
0.985000,-4.597311
0.986000,-4.094543
0.987000,-3.603231
0.988000,-2.287124
0.989000,-1.352867
0.990000,-0.922651
0.991000,-0.556076
0.992000,-0.741909
0.993000,-1.203946
0.994000,-1.625253
0.995000,-1.939642
0.996000,-2.178934
0.997000,-2.447501
0.998000,-2.719887
0.999000,-2.914630
1.000000,-3.043185
1.001000,-2.835714
1.002000,-2.476776
1.003000,-2.008375
1.004000,-1.715624
1.005000,-1.542519
1.006000,-1.244677
1.007000,-0.873010
1.008000,-0.293873
1.009000,0.129980
1.010000,0.445642
1.011000,0.832582
1.012000,0.723118
1.013000,0.314540
1.014000,-0.170408
1.015000,-0.803005
1.016000,-1.461058
1.017000,-1.434328
1.018000,-1.612525
1.019000,-2.064379
1.020000,-2.534053
1.021000,-2.960452
1.022000,-2.856079
1.023000,-2.208209
1.024000,-1.589614
1.025000,-1.163216
1.026000,-0.540802
1.027000,-0.190773
1.028000,-0.109312
1.029000,0.118524
1.030000,0.474917
1.031000,0.504192
1.032000,-0.119495
1.033000,-1.057571
1.034000,-1.772901
1.035000,-2.763163
1.036000,-3.862888
1.037000,-3.544680
1.038000,-3.285023
1.039000,-3.006273
1.040000,-2.399133
1.041000,-1.711805
1.042000,-1.027023
1.043000,-0.409700
1.044000,0.439277
1.045000,1.082057
1.046000,1.721017
1.047000,1.882667
1.048000,1.703198
1.049000,1.363352
1.050000,0.350179
1.051000,-1.065208
1.052000,-2.102564
1.053000,-4.193824
1.054000,-6.501465
1.055000,-6.304176
1.056000,-5.913417
1.057000,-5.222270
1.058000,-4.445844
1.059000,-3.822157
1.060000,-3.339755
1.061000,-3.184470
1.062000,-2.299853
1.063000,-1.548883
1.064000,-0.692268
1.065000,0.402365
1.066000,1.272981
1.067000,1.204248
1.068000,0.999323
1.069000,0.795670
1.070000,0.522011
1.071000,-0.190773
1.072000,-1.290499
1.073000,-2.190389
1.074000,-3.296479
1.075000,-4.542579
1.076000,-4.839149
1.077000,-5.205724
1.078000,-4.573127
1.079000,-3.117010
1.080000,-2.255304
1.081000,-1.774174
1.082000,-1.322319
1.083000,-0.990111
1.084000,-0.968473
1.085000,-0.739363
1.086000,-0.354969
1.087000,-0.139860
1.088000,0.089249
1.089000,0.080339
1.090000,0.096886
1.091000,-0.119495
1.092000,-0.773730
1.093000,-1.716897
1.094000,-2.096200
1.095000,-1.890001
1.096000,-1.970190
1.097000,-1.667256
1.098000,-1.429237
1.099000,-1.172125
1.100000,-0.920105
1.101000,-0.856464
1.102000,-0.697360
1.103000,-0.170408
1.104000,0.575470
1.105000,0.972593
1.106000,1.290801
1.107000,1.396446
1.108000,1.010778
1.109000,0.394728
1.110000,-0.641355
1.111000,-1.811086
1.112000,-2.492050
1.113000,-3.307934
1.114000,-4.499303
1.115000,-4.640587
1.116000,-3.747060
1.117000,-2.446228
1.118000,-0.925196
1.119000,0.165619
1.120000,0.669660
1.121000,0.884768
1.122000,0.813489
1.123000,0.296720
1.124000,-0.683359
1.125000,-2.014739
1.126000,-3.563773
1.127000,-5.100079
1.128000,-5.959239
1.129000,-5.596482
1.130000,-5.432287
1.131000,-4.215462
1.132000,-3.190834
1.133000,-2.707158
1.134000,-2.044014
1.135000,-1.515789
1.136000,-0.918832
1.137000,-0.464432
1.138000,-0.166590
1.139000,0.061247
1.140000,0.070157
1.141000,-0.040580
1.142000,-0.306601
1.143000,-0.568804
1.144000,-0.761001
1.145000,-0.983747
1.146000,-1.313410
1.147000,-1.728352
1.148000,-1.934551
1.149000,-1.775447
1.150000,-1.784357
1.151000,-1.774174
1.152000,-1.177217
1.153000,-0.627354
1.154000,-0.507708
1.155000,-0.584078
1.156000,-0.620990
1.157000,-0.757183
1.158000,-0.852645
1.159000,-1.192491
1.160000,-1.626526
1.161000,-1.727079
1.162000,-1.761446
1.163000,-1.934551
1.164000,-2.223483
1.165000,-2.490777
1.166000,-2.820440
1.167000,-2.847170
1.168000,-2.397861
1.169000,-2.000738
1.170000,-1.361777
1.171000,-1.169580
1.172000,-1.056298
1.173000,-0.738090
1.174000,-1.019386
1.175000,-1.338866
1.176000,-1.830178
1.177000,-2.549327
1.178000,-2.710977
1.179000,-2.933722
1.180000,-2.918448
1.181000,-2.699521
1.182000,-2.229847
1.183000,-1.808540
1.184000,-1.360504
1.185000,-0.965927
1.186000,-0.679540
1.187000,-0.422429
1.188000,-0.379152
1.189000,-0.783912
1.190000,-1.371960
1.191000,-1.147942
1.192000,-0.817006
1.193000,-0.300237
1.194000,-0.045671
1.195000,0.031972
1.196000,0.085431
1.197000,-0.066036
1.198000,-0.236595
1.199000,-0.273507
1.200000,-0.629900
1.201000,-1.196309
1.202000,-1.974008
1.203000,-2.623152
1.204000,-2.934995
1.205000,-2.908265
1.206000,-2.556964
1.207000,-2.674065
1.208000,-2.736433
1.209000,-2.578603
1.210000,-2.303671
1.211000,-2.032558
1.212000,-1.645618
1.213000,-1.265042
1.214000,-1.131395
1.215000,-1.091937
1.216000,-1.188672
1.217000,-0.967200
1.218000,-1.112302
1.219000,-1.580704
1.220000,-1.075390
1.221000,-0.491161
1.222000,-0.240414
1.223000,-0.357514
1.224000,-0.571350
1.225000,-0.907377
1.226000,-1.094483
1.227000,-1.550156
1.228000,-1.921822
1.229000,-1.935823
1.230000,-1.879819
1.231000,-1.916731
1.232000,-2.262941
1.233000,-2.453865
1.234000,-2.156023
1.235000,-2.231120
1.236000,-1.956189
1.237000,-1.751263
1.238000,-1.819996
1.239000,-1.814905
1.240000,-1.808540
1.241000,-2.326582
1.242000,-3.007546
1.243000,-2.787347
1.244000,-2.269305
1.245000,-2.042741
1.246000,-1.893820
1.247000,-1.849271
1.248000,-1.566703
1.249000,-1.315955
1.250000,-1.517062
1.251000,-1.639254
1.252000,-1.448329
1.253000,-1.402508
1.254000,-1.245950
1.255000,-1.060116
1.256000,-0.982474
1.257000,-0.815733
1.258000,-0.431338
1.259000,-0.176772
1.260000,-0.002395
1.261000,0.160528
1.262000,0.079067
1.263000,0.161800
1.264000,0.113433
1.265000,0.003970
1.266000,-0.202229
1.267000,-0.799186
1.268000,-1.580704
1.269000,-1.902730
1.270000,-1.963826
1.271000,-2.478049
1.272000,-2.877718
1.273000,-2.751707
1.274000,-2.750435
1.275000,-2.567147
1.276000,-2.508597
1.277000,-2.332946
1.278000,-2.311308
1.279000,-2.271850
1.280000,-1.553974
1.281000,-0.995202
1.282000,-0.927742
1.283000,-1.025750
1.284000,-0.817006
1.285000,-0.712634
1.286000,-0.898467
1.287000,-0.783912
1.288000,-0.372788
1.289000,-0.525528
1.290000,-0.764820
1.291000,-1.219220
1.292000,-1.349049
1.293000,-1.827633
1.294000,-2.059288
1.295000,-2.173843
1.296000,-2.208209
1.297000,-1.803449
1.298000,-1.748717
1.299000,-1.930732
1.300000,-1.601069
1.301000,-1.422873
1.302000,-1.701623
1.303000,-2.175115
1.304000,-3.100463
1.305000,-3.309207
1.306000,-2.863716
1.307000,-2.242575
1.308000,-1.960007
1.309000,-2.466593
1.310000,-2.372404
1.311000,-2.143295
1.312000,-1.463603
1.313000,-0.903558
1.314000,-0.890830
1.315000,-1.290499
1.316000,-1.480150
1.317000,-1.583249
1.318000,-1.611252
1.319000,-1.581977
1.320000,-1.307045
1.321000,-1.284134
1.322000,-1.623980
1.323000,-2.404225
1.324000,-2.582421
1.325000,-1.993101
1.326000,-1.439420
1.327000,-0.735545
1.328000,-0.349877
1.329000,-0.055853
1.330000,0.482554
1.331000,1.167336
1.332000,1.721017
1.333000,2.035406
1.334000,1.749019
1.335000,0.907679
1.336000,-0.343513
1.337000,-1.769083
1.338000,-3.315571
1.339000,-4.380930
1.340000,-5.204451
1.341000,-4.845513
1.342000,-3.610868
1.343000,-2.927358
1.344000,-2.727524
1.345000,-2.545509
1.346000,-1.933278
1.347000,-1.392325
1.348000,-1.179762
1.349000,-1.018113
1.350000,-1.212856
1.351000,-1.492879
1.352000,-1.005385
1.353000,-0.407155
1.354000,0.058701
1.355000,-0.118222
1.356000,-0.242959
1.357000,-0.253142
1.358000,-0.679540
1.359000,-1.118667
1.360000,-1.265042
1.361000,-1.648164
1.362000,-2.231120
1.363000,-2.466593
1.364000,-2.456411
1.365000,-2.203118
1.366000,-1.704168
1.367000,-1.088119
1.368000,-0.909922
1.369000,-1.004112
1.370000,-1.431783
1.371000,-2.089836
1.372000,-2.528962
1.373000,-2.724978
1.374000,-2.754253
1.375000,-2.114020
1.376000,-1.458512
1.377000,-1.393598
1.378000,-1.639254
1.379000,-1.268860
1.380000,-0.673176
1.381000,-0.344786
1.382000,-0.484797
1.383000,-0.604443
1.384000,-0.810642
1.385000,-1.832724
1.386000,-2.148386
1.387000,-1.780538
1.388000,-1.383415
1.389000,-1.013022
1.390000,-0.566258
1.391000,-0.473342
1.392000,-0.865373
1.393000,-0.995202
1.394000,-1.338866
1.395000,-1.780538
1.396000,-2.226029
1.397000,-3.015183
1.398000,-3.450491
1.399000,-3.058459
1.400000,-2.988454
1.401000,-3.122101
1.402000,-2.694430
1.403000,-1.804722
1.404000,-0.633718
1.405000,0.156709
1.406000,0.693843
1.407000,0.852947
1.408000,0.761303
1.409000,0.637839
1.410000,-0.058399
1.411000,-0.930288
1.412000,-1.842907
1.413000,-2.452592
1.414000,-2.800075
1.415000,-3.024093
1.416000,-2.915902
1.417000,-2.735161
1.418000,-2.223483
1.419000,-2.058015
1.420000,-1.865818
1.421000,-1.557793
1.422000,-1.538700
1.423000,-1.477605
1.424000,-1.830178
1.425000,-2.854807
1.426000,-3.421216
1.427000,-3.365211
1.428000,-2.727524
1.429000,-2.164933
1.430000,-1.876000
1.431000,-1.686349
1.432000,-1.713078
1.433000,-1.608706
1.434000,-1.195036
1.435000,-0.743182
1.436000,-0.226413
1.437000,0.410002
1.438000,0.688752
1.439000,1.113877
1.440000,1.635738
1.441000,1.695561
1.442000,1.909396
1.443000,1.642102
1.444000,0.964956
1.445000,0.114706
1.446000,-1.245950
1.447000,-3.124647
1.448000,-4.454754
1.449000,-5.061894
1.450000,-5.623212
1.451000,-5.375010
1.452000,-5.077168
1.453000,-3.991444
1.454000,-3.036821
1.455000,-2.340583
1.456000,-1.988009
1.457000,-1.469968
1.458000,-0.927742
1.459000,-0.694814
1.460000,-0.502617
1.461000,-0.416064
1.462000,-0.139860
1.463000,-0.254415
1.464000,-0.469523
1.465000,-0.682086
1.466000,-0.953199
1.467000,-1.197582
1.468000,-1.061389
1.469000,-1.114848
1.470000,-1.091937
1.471000,-0.972291
1.472000,-1.559066
1.473000,-2.432227
1.474000,-2.156023
1.475000,-1.826360
1.476000,-1.998192
1.477000,-2.003283
1.478000,-2.060561
1.479000,-1.858181
1.480000,-1.923095
1.481000,-2.363494
1.482000,-2.522598
1.483000,-2.135658
1.484000,-1.827633
1.485000,-1.315955
1.486000,-0.945562
1.487000,-0.796641
1.488000,-0.790276
1.489000,-0.884466
1.490000,-1.221766
1.491000,-1.295590
1.492000,-1.122485
1.493000,-0.853918
1.494000,-0.631173
1.495000,-0.880647
1.496000,-1.300681
1.497000,-1.692713
1.498000,-2.293489
1.499000,-2.931176
1.500000,-2.548055
1.501000,-1.939642
1.502000,-1.785629
1.503000,-1.546337
1.504000,-1.312137
1.505000,-0.967200
1.506000,-0.838644
1.507000,-0.501344
1.508000,-0.263325
1.509000,-0.223867
1.510000,-0.002395
1.511000,-0.062218
1.512000,0.258536
1.513000,0.716754
1.514000,0.537285
1.515000,0.080339
1.516000,-0.419883
1.517000,-0.879374
1.518000,-1.651982
1.519000,-2.372404
1.520000,-2.670246
1.521000,-2.915902
1.522000,-2.668973
1.523000,-2.481867
1.524000,-2.695703
1.525000,-2.507324
1.526000,-2.568420
1.527000,-3.274841
1.528000,-3.713967
1.529000,-4.193824
1.530000,-3.880708
1.531000,-2.843351
1.532000,-1.663438
1.533000,-0.999020
1.534000,-0.851372
1.535000,-0.814460
1.536000,-0.781367
1.537000,-0.801732
1.538000,-1.074117
1.539000,-1.438147
1.540000,-1.533609
1.541000,-1.956189
1.542000,-2.437318
1.543000,-2.745343
1.544000,-2.167478
1.545000,-1.431783
1.546000,-1.441965
1.547000,-1.637981
1.548000,-1.262496
1.549000,-1.075390
1.550000,-1.397416
1.551000,-1.528518
1.552000,-1.170853
1.553000,-0.818279
1.554000,-0.615899
1.555000,-0.440248
1.556000,-0.344786
1.557000,-0.612080
1.558000,-0.683359
1.559000,-0.422429
1.560000,-0.409700
1.561000,-0.344786
1.562000,-0.267143
1.563000,-0.018941
1.564000,-0.206047
1.565000,-1.063935
1.566000,-1.775447
1.567000,-2.111474
1.568000,-2.554419
1.569000,-3.036821
1.570000,-3.073733
1.571000,-2.710977
1.572000,-2.374950
1.573000,-2.023649
1.574000,-2.292216
1.575000,-2.219664
1.576000,-1.657074
1.577000,-1.234494
1.578000,-1.234494
1.579000,-1.249768
1.580000,-1.566703
1.581000,-1.823814
1.582000,-2.135658
1.583000,-2.073289
1.584000,-2.359676
1.585000,-3.097917
1.586000,-2.838260
1.587000,-1.369414
1.588000,0.000151
1.589000,0.598381
1.590000,0.721846
1.591000,0.931863
1.592000,1.154608
1.593000,1.288255
1.594000,0.838946
1.595000,0.240716
1.596000,-0.456795
1.597000,-1.048661
1.598000,-1.613797
1.599000,-2.368586
1.600000,-3.332118
1.601000,-3.330845
1.602000,-3.647780
1.603000,-3.990171
1.604000,-3.579047
1.605000,-2.815349
1.606000,-2.918448
1.607000,-3.077552
1.608000,-3.342301
1.609000,-3.738151
1.610000,-3.319390
1.611000,-2.812803
1.612000,-2.527689
1.613000,-2.161114
1.614000,-1.593432
1.615000,-1.080482
1.616000,-0.399518
1.617000,-0.025306
1.618000,0.199985
1.619000,0.347634
1.620000,0.426549
1.621000,0.454551
1.622000,-0.101675
1.623000,-0.595533
1.624000,-1.191218
1.625000,-1.990555
1.626000,-2.442410
1.627000,-2.284579
1.628000,-2.178934
1.629000,-2.096200
1.630000,-1.532336
1.631000,-0.943016
1.632000,-0.290054
1.633000,0.124888
1.634000,0.450733
1.635000,0.271264
1.636000,-0.175499
1.637000,-0.856464
1.638000,-1.682530
1.639000,-2.408043
1.640000,-3.019002
1.641000,-3.511587
1.642000,-4.159457
1.643000,-4.747505
1.644000,-3.356302
1.645000,-1.967644
1.646000,-1.178490
1.647000,-0.791549
1.648000,-0.629900
1.649000,-0.475887
1.650000,-0.064763
1.651000,0.127434
1.652000,0.193621
1.653000,0.073975
1.654000,-0.035488
1.655000,-0.477160
1.656000,-0.939197
1.657000,-1.231948
1.658000,-1.060116
1.659000,-1.565430
1.660000,-1.774174
1.661000,-2.050378
1.662000,-3.022820
1.663000,-2.747889
1.664000,-1.876000
1.665000,-1.651982
1.666000,-1.682530
1.667000,-1.702895
1.668000,-1.556520
1.669000,-1.995646
1.670000,-3.045731
1.671000,-3.744515
1.672000,-3.670691
1.673000,-3.299024
1.674000,-3.007546
1.675000,-2.483140
1.676000,-2.059288
1.677000,-1.611252
1.678000,-1.361777
1.679000,-1.238313
1.680000,-0.990111
1.681000,-0.773730
1.682000,-0.640082
1.683000,-0.637537
1.684000,-0.701178
1.685000,-0.803005
1.686000,-0.817006
1.687000,-0.829734
1.688000,-0.552257
1.689000,-0.340967
1.690000,0.075248
1.691000,0.221623
1.692000,-0.050762
1.693000,-0.337149
1.694000,-0.563713
1.695000,-0.791549
1.696000,-0.735545
1.697000,-0.804278
1.698000,-1.217947
1.699000,-1.542519
1.700000,-1.938369
1.701000,-2.433500
1.702000,-2.653699
1.703000,-2.551873
1.704000,-1.705441
1.705000,-0.531892
1.706000,0.234352
1.707000,0.711663
1.708000,0.989140
1.709000,1.060418
1.710000,0.884768
1.711000,0.396001
1.712000,-0.766093
1.713000,-2.671519
1.714000,-4.403841
1.715000,-6.199804
1.716000,-6.842583
1.717000,-6.335997
1.718000,-6.159073
1.719000,-5.427196
1.720000,-3.633779
1.721000,-2.149659
1.722000,-1.254859
1.723000,-0.544620
1.724000,0.048519
1.725000,0.350179
1.726000,0.253444
1.727000,0.076521
1.728000,-0.277326
1.729000,-0.731726
1.730000,-1.742353
1.731000,-2.120384
1.732000,-1.850544
1.733000,-1.538700
1.734000,-1.153033
1.735000,-1.234494
1.736000,-1.543792
1.737000,-1.818723
1.738000,-1.874728
1.739000,-1.464876
1.740000,-1.319774
1.741000,-1.555247
1.742000,-1.501788
1.743000,-1.449602
1.744000,-1.851817
1.745000,-1.753809
1.746000,-1.579431
1.747000,-1.410145
1.748000,-1.188672
1.749000,-0.851372
1.750000,-0.750819
1.751000,-0.930288
1.752000,-0.917559
1.753000,-0.969745
1.754000,-1.084300
1.755000,-1.419054
1.756000,-1.886183
1.757000,-1.394871
1.758000,-1.052479
1.759000,-1.006657
1.760000,-1.239585
1.761000,-1.242131
1.762000,-1.201400
1.763000,-1.109757
1.764000,-1.098301
1.765000,-1.368141
1.766000,-1.347776
1.767000,-1.580704
1.768000,-1.621434
1.769000,-1.158124
1.770000,-1.048661
1.771000,-1.052479
1.772000,-1.393598
1.773000,-1.798358
1.774000,-2.086017
1.775000,-2.092381
1.776000,-2.596422
1.777000,-2.299853
1.778000,-1.762718
1.779000,-1.791994
1.780000,-1.617616
1.781000,-1.975281
1.782000,-1.876000
1.783000,-1.407599
1.784000,-1.093210
1.785000,-1.075390
1.786000,-1.504334
1.787000,-1.886183
1.788000,-2.265486
1.789000,-2.686793
1.790000,-2.577330
1.791000,-2.198026
1.792000,-2.128021
1.793000,-1.760173
1.794000,-1.701623
1.795000,-1.403780
1.796000,-0.638810
1.797000,-0.290054
1.798000,-0.256961
1.799000,-0.380425
1.800000,-0.321875
1.801000,-0.614626
1.802000,-0.991384
1.803000,-1.206492
1.804000,-1.906548
1.805000,-1.696531
1.806000,-1.472513
1.807000,-1.809813
1.808000,-2.157296
1.809000,-2.058015
1.810000,-1.921822
1.811000,-1.965098
1.812000,-1.499243
1.813000,-1.097028
1.814000,-0.995202
1.815000,-0.943016
1.816000,-0.814460
1.817000,-0.876829
1.818000,-0.623536
1.819000,0.085431
1.820000,0.782941
1.821000,1.145698
1.822000,1.236069
1.823000,1.457541
1.824000,1.446086
1.825000,1.181337
1.826000,0.300539
1.827000,-1.147942
1.828000,-2.990999
1.829000,-5.007162
1.830000,-6.673297
1.831000,-6.623656
1.832000,-6.215078
1.833000,-5.447561
1.834000,-4.233281
1.835000,-3.080098
1.836000,-2.684247
1.837000,-1.925641
1.838000,-1.146669
1.839000,-0.791549
1.840000,-0.720271
1.841000,-1.067753
1.842000,-1.430510
1.843000,-1.473786
1.844000,-1.939642
1.845000,-1.985464
1.846000,-1.634163
1.847000,-1.237040
1.848000,-1.182308
1.849000,-1.489060
1.850000,-1.900184
1.851000,-1.775447
1.852000,-1.359231
1.853000,-0.969745
1.854000,0.020516
1.855000,0.980230
1.856000,1.402810
1.857000,1.457541
1.858000,1.535184
1.859000,1.344260
1.860000,0.538558
1.861000,-0.562440
1.862000,-1.478877
1.863000,-2.604059
1.864000,-3.226473
1.865000,-4.984251
1.866000,-5.932510
1.867000,-5.979604
1.868000,-4.839149
1.869000,-3.736878
1.870000,-3.104281
1.871000,-2.385132
1.872000,-1.844180
1.873000,-1.431783
1.874000,-1.093210
1.875000,-0.889557
1.876000,-0.591715
1.877000,-0.207320
1.878000,0.267445
1.879000,0.687479
1.880000,0.742211
1.881000,1.101149
1.882000,1.420629
1.883000,1.182610
1.884000,-0.035488
1.885000,-0.916287
1.886000,-1.646891
1.887000,-2.425863
1.888000,-3.283750
1.889000,-3.484857
1.890000,-3.310480
1.891000,-3.145012
1.892000,-2.824259
1.893000,-2.509870
1.894000,-2.387678
1.895000,-1.967644
1.896000,-2.033831
1.897000,-1.779265
1.898000,-1.575612
1.899000,-1.270133
1.900000,-0.721544
1.901000,-0.381698
1.902000,-0.148770
1.903000,-0.218776
1.904000,-0.572622
1.905000,-0.459341
1.906000,-0.726635
1.907000,-1.035933
1.908000,-1.595978
1.909000,-1.738535
1.910000,-1.808540
1.911000,-2.466593
1.912000,-2.979544
1.913000,-3.091553
1.914000,-2.670246
1.915000,-2.222210
1.916000,-2.140749
1.917000,-1.804722
1.918000,-1.335048
1.919000,-0.829734
1.920000,-0.357514
1.921000,-0.356241
1.922000,-0.493707
1.923000,-0.424974
1.924000,-0.228958
1.925000,-0.222594
1.926000,-0.035488
1.927000,0.455824
1.928000,0.464734
1.929000,0.038336
1.930000,-0.729181
1.931000,-1.301954
1.932000,-1.298136
1.933000,-1.438147
1.934000,-1.850544
1.935000,-3.156467
1.936000,-3.571410
1.937000,-3.638870
1.938000,-3.769971
1.939000,-3.370303
1.940000,-2.075835
1.941000,-1.427964
1.942000,-1.034660
1.943000,-0.738090
1.944000,-1.033387
1.945000,-1.317228
1.946000,-1.415236
1.947000,-1.814905
1.948000,-2.478049
1.949000,-3.498859
1.950000,-3.725422
1.951000,-3.421216
1.952000,-3.025366
1.953000,-2.476776
1.954000,-2.019830
1.955000,-1.836543
1.956000,-1.504334
1.957000,-1.111030
1.958000,-0.404609
1.959000,-0.024033
1.960000,-0.206047
1.961000,-0.090220
1.962000,-0.228958
1.963000,-0.570077
1.964000,-1.163216
1.965000,-1.942188
1.966000,-2.590058
1.967000,-2.551873
1.968000,-2.530235
1.969000,-2.604059
1.970000,-2.514961
1.971000,-2.236211
1.972000,-1.906548
1.973000,-1.728352
1.974000,-1.203946
1.975000,-0.721544
1.976000,-0.488616
1.977000,-0.220049
1.978000,-0.035488
1.979000,0.339997
1.980000,0.291629
1.981000,0.026880
1.982000,-0.170408
1.983000,-0.157680
1.984000,-0.185682
1.985000,-0.946834
1.986000,-1.797085
1.987000,-2.364767
1.988000,-2.573511
1.989000,-2.737706
1.990000,-2.037650
1.991000,-1.284134
1.992000,-0.738090
1.993000,-0.474615
1.994000,-0.553530
1.995000,-0.766093
1.996000,-1.625253
1.997000,-2.514961
1.998000,-3.157740
1.999000,-3.316844
2.000000,-3.054641
2.001000,-2.766981
2.002000,-2.628243
2.003000,-2.467866
2.004000,-1.982918
2.005000,-1.079209
2.006000,-0.598079
2.007000,-0.469523
2.008000,-0.796641
2.009000,-0.749546
2.010000,-0.615899
2.011000,-0.749546
2.012000,-0.423701
2.013000,-0.148770
2.014000,-0.024033
2.015000,-0.348604
2.016000,-0.820824
2.017000,-1.074117
2.018000,-1.531063
2.019000,-2.264214
2.020000,-2.492050
2.021000,-2.791165
2.022000,-3.566319
2.023000,-3.576501
2.024000,-3.283750
2.025000,-2.887900
2.026000,-2.382587
2.027000,-2.135658
2.028000,-2.096200
2.029000,-1.822541
2.030000,-1.597251
2.031000,-1.300681
2.032000,-1.341412
2.033000,-1.333775
2.034000,-0.892103
2.035000,-0.580259
2.036000,-0.656629
2.037000,-0.775002
2.038000,-0.768638
2.039000,-0.670630
2.040000,-0.792822
2.041000,-1.123758
2.042000,-0.955744
2.043000,-0.368970
2.044000,-0.729181
2.045000,-1.025750
2.046000,-0.860282
2.047000,-0.671903
2.048000,-0.717725
2.049000,-1.380869
2.050000,-1.957461
2.051000,-2.395315
2.052000,-3.039367
2.053000,-3.801792
2.054000,-4.498030
2.055000,-3.652871
2.056000,-2.245121
2.057000,-1.251041
2.058000,-0.937925
2.059000,-0.945562
2.060000,-0.410973
2.061000,-0.045671
2.062000,-0.063490
2.063000,-0.493707
2.064000,-1.411417
2.065000,-2.055469
2.066000,-2.490777
2.067000,-2.793711
2.068000,-3.207381
2.069000,-3.248111
2.070000,-2.573511
2.071000,-1.847998
2.072000,-1.438147
2.073000,-1.175944
2.074000,-0.983747
2.075000,-0.740636
2.076000,-0.234050
2.077000,0.361635
2.078000,0.970047
2.079000,1.283164
2.080000,1.383717
2.081000,1.241160
2.082000,0.827491
2.083000,-0.036761
2.084000,-1.286680
2.085000,-2.456411
2.086000,-4.041084
2.087000,-5.142082
2.088000,-5.567207
2.089000,-4.989343
2.090000,-3.795428
2.091000,-3.235383
2.092000,-3.053368
2.093000,-2.629516
2.094000,-2.245121
2.095000,-1.763991
2.096000,-1.360504
2.097000,-1.245950
2.098000,-1.473786
2.099000,-1.140305
2.100000,-0.696087
2.101000,-0.052035
2.102000,0.630202
2.103000,0.976412
2.104000,1.006960
2.105000,0.593290
2.106000,0.010334
2.107000,-0.464432
2.108000,-1.217947
2.109000,-1.239585
2.110000,-0.950653
2.111000,-1.742353
2.112000,-2.360949
2.113000,-1.916731
2.114000,-1.193763
2.115000,-0.747000
2.116000,-0.167863
2.117000,-0.091493
2.118000,-0.530619
2.119000,-1.080482
2.120000,-1.904003
2.121000,-3.291387
2.122000,-4.044903
2.123000,-3.982534
2.124000,-3.941803
2.125000,-4.528578
2.126000,-4.552762
2.127000,-3.539589
2.128000,-2.400406
2.129000,-1.751263
2.130000,-1.275225
2.131000,-0.521709
2.132000,0.131253
2.133000,0.674751
2.134000,0.827491
2.135000,0.599654
2.136000,0.282719
2.137000,-0.188228
2.138000,-0.207320
2.139000,-0.613353
2.140000,-1.438147
2.141000,-2.420772
2.142000,-3.352483
2.143000,-3.315571
2.144000,-2.868808
2.145000,-2.110201
2.146000,-1.980372
2.147000,-1.651982
2.148000,-1.074117
2.149000,-0.982474
2.150000,-0.959563
2.151000,-1.108484
2.152000,-1.575612
2.153000,-2.415680
2.154000,-2.822986
2.155000,-3.129738
2.156000,-2.484413
2.157000,-1.719442
2.158000,-1.589614
2.159000,-1.067753
2.160000,-0.573895
2.161000,-0.643901
2.162000,-0.780094
2.163000,-0.598079
2.164000,-0.330785
2.165000,-0.058399
2.166000,-0.536983
2.167000,-1.091937
2.168000,-1.206492
2.169000,-1.620162
2.170000,-2.033831
2.171000,-2.257849
2.172000,-2.578603
2.173000,-2.763163
2.174000,-2.308763
2.175000,-1.364323
2.176000,-1.083027
2.177000,-1.122485
2.178000,-0.809369
2.179000,-1.177217
2.180000,-0.860282
2.181000,-0.174227
2.182000,-0.413519
2.183000,-0.827188
2.184000,-1.434328
2.185000,-2.131839
2.186000,-2.843351
2.187000,-3.016456
2.188000,-3.441581
2.189000,-2.448774
2.190000,-1.279043
2.191000,-0.321875
2.192000,0.384546
2.193000,0.518193
2.194000,0.282719
2.195000,-0.321875
2.196000,-0.838644
2.197000,-0.967200
2.198000,-1.957461
2.199000,-2.877718
2.200000,-2.372404
2.201000,-2.322764
2.202000,-2.577330
2.203000,-2.316400
2.204000,-1.970190
2.205000,-1.660892
2.206000,-1.687622
2.207000,-1.673620
2.208000,-1.581977
2.209000,-1.657074
2.210000,-2.046560
2.211000,-2.133112
2.212000,-2.022376
2.213000,-1.957461
2.214000,-1.725806
2.215000,-1.229403
2.216000,-0.487343
2.217000,-0.179318
2.218000,0.058701
2.219000,-0.041852
2.220000,-0.301510
2.221000,-0.636264
2.222000,-1.182308
2.223000,-1.646891
2.224000,-2.368586
2.225000,-3.474675
2.226000,-3.948168
2.227000,-3.610868
2.228000,-2.961724
2.229000,-2.619333
2.230000,-2.397861
2.231000,-2.139476
2.232000,-1.879819
2.233000,-2.012193
2.234000,-1.972735
2.235000,-2.056742
2.236000,-2.322764
2.237000,-1.845452
2.238000,-1.271406
2.239000,-0.506435
2.240000,0.079067
2.241000,0.431640
2.242000,0.538558
2.243000,0.593290
2.244000,0.528375
2.245000,0.225442
2.246000,-0.483524
2.247000,-1.100847
2.248000,-1.775447
2.249000,-2.017284
2.250000,-2.254031
2.251000,-2.432227
2.252000,-2.787347
2.253000,-2.663882
2.254000,-2.261668
2.255000,-1.904003
2.256000,-1.839088
2.257000,-1.687622
2.258000,-1.602342
2.259000,-1.504334
2.260000,-1.874728
2.261000,-2.261668
2.262000,-1.911640
2.263000,-0.870465
2.264000,-0.394426
2.265000,-0.287509
2.266000,-0.059672
2.267000,0.430368
2.268000,0.524557
2.269000,0.290356
2.270000,-0.069855
2.271000,-0.304055
2.272000,-0.624808
2.273000,-1.602342
2.274000,-2.460229
2.275000,-2.549327
2.276000,-2.256577
2.277000,-1.695259
2.278000,-1.350322
2.279000,-1.122485
2.280000,-0.633718
2.281000,-0.469523
2.282000,-1.209037
2.283000,-1.499243
2.284000,-1.817450
2.285000,-2.777164
2.286000,-3.926529
2.287000,-5.009708
2.288000,-5.261728
2.289000,-4.336381
2.290000,-3.632506
2.291000,-3.277386
2.292000,-2.959179
2.293000,-2.400406
2.294000,-1.699077
2.295000,-1.074117
2.296000,-0.964654
2.297000,-0.757183
2.298000,0.107069
2.299000,0.838946
2.300000,0.956046
2.301000,1.097330
2.302000,1.349351
2.303000,1.206794
2.304000,0.704026
2.305000,0.649294
2.306000,0.523284
2.307000,-0.323148
2.308000,-1.300681
2.309000,-2.385132
2.310000,-3.001182
2.311000,-2.984635
2.312000,-2.980817
2.313000,-3.123374
2.314000,-3.328299
2.315000,-3.772517
2.316000,-4.176004
2.317000,-4.190005
2.318000,-3.239201
2.319000,-2.605332
2.320000,-2.012193
2.321000,-1.529791
2.322000,-1.150487
2.323000,-0.944289
2.324000,-0.867919
2.325000,-1.145396
2.326000,-0.917559
2.327000,-0.870465
2.328000,-0.903558
2.329000,-1.137759
2.330000,-0.981201
2.331000,-0.859009
2.332000,-0.390608
2.333000,-0.110585
2.334000,-0.474615
2.335000,-0.703724
2.336000,-0.949380
2.337000,-0.861555
2.338000,-0.675722
2.339000,-1.117394
2.340000,-1.724534
2.341000,-2.248940
2.342000,-3.313025
2.343000,-4.382203
2.344000,-4.083088
2.345000,-3.169196
2.346000,-2.512415
2.347000,-1.683803
2.348000,-0.754637
2.349000,0.133798
2.350000,0.949682
2.351000,1.587370
2.352000,1.680287
2.353000,1.593734
2.354000,1.042599
2.355000,-0.236595
2.356000,-1.827633
2.357000,-2.914630
2.358000,-3.515405
2.359000,-3.738151
2.360000,-4.671135
2.361000,-4.728412
2.362000,-3.997808
2.363000,-3.790337
2.364000,-3.505223
2.365000,-2.506051
2.366000,-1.595978
2.367000,-1.175944
2.368000,-0.908650
2.369000,-0.856464
2.370000,-1.126303
2.371000,-1.156851
2.372000,-1.197582
2.373000,-1.147942
2.374000,-0.669358
2.375000,-0.282417
2.376000,0.005242
2.377000,0.150345
2.378000,0.393456
2.379000,0.378182
2.380000,0.150345
2.381000,-0.486070
2.382000,-0.982474
2.383000,-1.555247
2.384000,-2.413135
2.385000,-2.666428
2.386000,-2.775891
2.387000,-2.395315
2.388000,-2.027467
2.389000,-1.561611
2.390000,-1.265042
2.391000,-1.005385
2.392000,-0.549712
2.393000,-0.535710
2.394000,-0.643901
2.395000,-0.553530
2.396000,-0.654084
2.397000,-0.857736
2.398000,-1.401235
2.399000,-1.284134
2.400000,-0.678267
2.401000,-0.270962
2.402000,-0.567531
2.403000,-0.953199
2.404000,-1.382142
2.405000,-1.244677
2.406000,-1.037205
2.407000,-0.899740
2.408000,-1.331229
2.409000,-1.924368
2.410000,-2.801348
2.411000,-3.430126
2.412000,-3.444127
2.413000,-3.019002
2.414000,-3.132284
2.415000,-2.791165
2.416000,-3.072461
2.417000,-3.495040
2.418000,-3.374121
2.419000,-2.755526
2.420000,-2.517507
2.421000,-2.312581
2.422000,-1.901457
2.423000,-1.667256
2.424000,-1.905275
2.425000,-2.094927
2.426000,-2.087290
2.427000,-1.906548
2.428000,-1.641800
2.429000,-1.271406
2.430000,-1.286680
2.431000,-1.419054
2.432000,-1.382142
2.433000,-1.112302
2.434000,-0.985019
2.435000,-0.632445
2.436000,-0.335876
2.437000,-0.470796
2.438000,-0.671903
2.439000,-0.851372
2.440000,-1.140305
2.441000,-1.457239
2.442000,-1.595978
2.443000,-1.276497
2.444000,-0.921378
2.445000,-0.856464
2.446000,-0.799186
2.447000,-0.964654
2.448000,-0.911195
2.449000,-0.811914
2.450000,-0.883193
2.451000,-0.995202
2.452000,-0.887011
2.453000,-0.732999
2.454000,-0.389335
2.455000,-0.198410
2.456000,-0.669358
2.457000,-1.331229
2.458000,-1.783084
2.459000,-1.995646
2.460000,-1.671075
2.461000,-1.398689
2.462000,-1.559066
2.463000,-1.760173
2.464000,-1.626526
2.465000,-1.592159
2.466000,-2.178934
2.467000,-2.628243
2.468000,-1.985464
2.469000,-1.562884
2.470000,-1.767810
2.471000,-1.616343
2.472000,-1.481423
2.473000,-1.467422
2.474000,-1.202673
2.475000,-1.201400
2.476000,-1.738535
2.477000,-1.986737
2.478000,-2.363494
2.479000,-3.180651
2.480000,-3.586684
2.481000,-2.742798
2.482000,-2.096200
2.483000,-1.466149
2.484000,-1.393598
2.485000,-0.869192
2.486000,-0.416064
2.487000,0.007788
2.488000,0.033245
2.489000,-0.043125
2.490000,0.197440
2.491000,-0.136042
2.492000,-0.613353
2.493000,-0.964654
2.494000,-1.811086
2.495000,-2.507324
2.496000,-2.150932
2.497000,-2.017284
2.498000,-1.989282
2.499000,-1.471240
2.500000,-1.099574
2.501000,-0.666812
2.502000,-0.642628
2.503000,-0.825916
2.504000,-1.145396
2.505000,-1.697804
2.506000,-3.017729
2.507000,-3.510314
2.508000,-3.464492
2.509000,-3.297751
2.510000,-3.097917
2.511000,-2.534053
2.512000,-1.963826
2.513000,-2.161114
2.514000,-2.304944
2.515000,-2.474230
2.516000,-3.055914
2.517000,-2.573511
2.518000,-1.509425
2.519000,-0.777548
2.520000,-0.077492
2.521000,0.501646
2.522000,0.761303
2.523000,0.548741
2.524000,0.201258
2.525000,0.030699
2.526000,-0.325693
2.527000,-1.044842
2.528000,-1.504334
2.529000,-2.308763
2.530000,-2.595149
2.531000,-2.591331
2.532000,-2.825532
2.533000,-3.073733
2.534000,-2.752980
2.535000,-2.364767
2.536000,-1.733443
2.537000,-1.069026
2.538000,-0.836098
2.539000,-0.407155
2.540000,-0.194592
2.541000,-0.368970
2.542000,-0.249324
2.543000,-0.381698
2.544000,-0.923924
2.545000,-1.058844
2.546000,-1.385961
2.547000,-2.111474
2.548000,-2.115292
2.549000,-2.192935
2.550000,-2.285852
2.551000,-2.486959
2.552000,-3.006273
2.553000,-3.104281
2.554000,-2.727524
2.555000,-2.145840
2.556000,-1.960007
2.557000,-1.779265
2.558000,-1.202673
2.559000,-1.015567
2.560000,-0.959563
2.561000,-0.847554
2.562000,-0.578987
2.563000,-0.048216
2.564000,0.205077
2.565000,0.305630
2.566000,0.247080
2.567000,0.360362
2.568000,-0.053308
2.569000,-0.631173
2.570000,-1.035933
2.571000,-1.177217
2.572000,-1.060116
2.573000,-1.275225
2.574000,-1.775447
2.575000,-1.800903
2.576000,-1.855635
2.577000,-2.214573
2.578000,-2.976998
2.579000,-3.379213
2.580000,-2.820440
2.581000,-1.618889
2.582000,-0.901013
2.583000,-0.753364
2.584000,-0.814460
2.585000,-1.039751
2.586000,-1.590886
2.587000,-1.299408
2.588000,-1.069026
2.589000,-1.179762
2.590000,-1.602342
2.591000,-2.283306
2.592000,-2.906993
2.593000,-2.527689
2.594000,-2.170024
2.595000,-2.054197
2.596000,-2.769527
2.597000,-2.885355
2.598000,-1.631617
2.599000,-0.862828
2.600000,-0.214957
2.601000,0.095613
2.602000,0.333632
2.603000,0.171983
2.604000,-0.805550
2.605000,-1.977827
2.606000,-2.793711
2.607000,-2.950269
2.608000,-3.091553
2.609000,-2.665155
2.610000,-2.296034
2.611000,-2.420772
2.612000,-2.584967
2.613000,-2.077107
2.614000,-1.422873
2.615000,-0.637537
2.616000,0.179620
2.617000,0.645476
2.618000,0.269991
2.619000,-0.226413
2.620000,-1.105938
2.621000,-2.064379
2.622000,-3.078825
2.623000,-3.823430
2.624000,-3.890890
2.625000,-3.950713
2.626000,-3.750879
2.627000,-3.357574
2.628000,-2.962997
2.629000,-2.797529
2.630000,-2.572238
2.631000,-2.069471
2.632000,-1.536155
2.633000,-1.223039
2.634000,-1.119939
2.635000,-1.030841
2.636000,-0.931561
2.637000,-0.879374
2.638000,-0.492434
2.639000,-0.152589
2.640000,0.292902
2.641000,0.905133
2.642000,1.330258
2.643000,1.696833
2.644000,1.728654
2.645000,1.337895
2.646000,0.896223
2.647000,0.455824
2.648000,-0.568804
2.649000,-1.265042
2.650000,-1.233221
2.651000,-1.989282
2.652000,-2.616787
2.653000,-3.561227
2.654000,-4.239646
2.655000,-4.500576
2.656000,-3.925257
2.657000,-3.495040
2.658000,-2.965543
2.659000,-2.506051
2.660000,-1.657074
2.661000,-0.920105
2.662000,-0.389335
2.663000,0.138890
2.664000,0.464734
2.665000,0.645476
2.666000,0.430368
2.667000,0.151618
2.668000,-0.169135
2.669000,-0.767365
2.670000,-1.738535
2.671000,-3.078825
2.672000,-4.139092
2.673000,-4.204006
2.674000,-3.657962
2.675000,-2.713522
2.676000,-1.863272
2.677000,-1.005385
2.678000,-0.262052
2.679000,0.314540
2.680000,0.394728
2.681000,-0.367697
2.682000,-0.829734
2.683000,-1.163216
2.684000,-1.912912
2.685000,-3.075006
2.686000,-3.755970
2.687000,-4.085633
2.688000,-4.330017
2.689000,-4.134001
2.690000,-3.246838
2.691000,-2.195481
2.692000,-1.748717
2.693000,-1.281589
2.694000,-0.474615
2.695000,0.206349
2.696000,0.705299
2.697000,0.959865
2.698000,1.224613
2.699000,1.180064
2.700000,0.845310
2.701000,0.448187
2.702000,-0.231504
2.703000,-1.310864
2.704000,-2.355857
2.705000,-3.411033
2.706000,-4.340199
2.707000,-4.111090
2.708000,-3.369030
2.709000,-2.934995
2.710000,-2.506051
2.711000,-2.427136
2.712000,-2.303671
2.713000,-2.003283
2.714000,-1.758900
2.715000,-1.492879
2.716000,-1.121212
2.717000,-0.990111
2.718000,-1.486514
2.719000,-1.833997
2.720000,-1.751263
2.721000,-2.055469
2.722000,-2.284579
2.723000,-1.999465
2.724000,-1.426691
2.725000,-0.932833
2.726000,-0.567531
2.727000,-0.335876
2.728000,-0.447885
2.729000,-0.589169
2.730000,-0.594261
2.731000,-0.472069
2.732000,-0.433884
2.733000,-0.129678
2.734000,-0.213684
2.735000,-0.609535
2.736000,-0.610807
2.737000,-0.823370
2.738000,-0.892103
2.739000,-0.796641
2.740000,-1.212856
2.741000,-1.135213
2.742000,-0.880647
2.743000,-1.135213
2.744000,-1.240858
2.745000,-1.840361
2.746000,-2.035104
2.747000,-2.271850
2.748000,-2.181480
2.749000,-2.330401
2.750000,-2.845897
2.751000,-3.025366
2.752000,-2.621879
2.753000,-2.177661
2.754000,-2.243848
2.755000,-2.676610
2.756000,-2.811530
2.757000,-2.046560
2.758000,-1.402508
2.759000,-1.256132
2.760000,-0.907377
2.761000,-0.244232
2.762000,-0.045671
2.763000,0.177074
2.764000,-0.178045
2.765000,-0.651538
2.766000,-1.163216
2.767000,-1.860726
2.768000,-2.908265
2.769000,-3.691056
2.770000,-4.060177
2.771000,-3.887072
2.772000,-3.567591
2.773000,-2.705886
2.774000,-1.946006
2.775000,-1.265042
2.776000,-0.939197
2.777000,-0.629900
2.778000,-0.293873
2.779000,-0.333330
2.780000,-0.530619
2.781000,-0.685904
2.782000,-1.019386
2.783000,-1.178490
2.784000,-1.433056
2.785000,-1.630344
2.786000,-1.758900
2.787000,-1.566703
2.788000,-0.940470
2.789000,-0.459341
2.790000,-0.414792
2.791000,-0.249324
2.792000,-0.265870
2.793000,-0.463159
2.794000,-0.226413
2.795000,-0.377879
2.796000,-1.065208
2.797000,-1.876000
2.798000,-2.539145
2.799000,-2.503506
2.800000,-2.920994
2.801000,-2.610423
2.802000,-1.975281
2.803000,-1.261223
2.804000,-0.960836
2.805000,-0.927742
2.806000,-1.044842
2.807000,-1.196309
2.808000,-1.402508
2.809000,-1.906548
2.810000,-2.261668
2.811000,-2.485686
2.812000,-2.797529
2.813000,-3.357574
2.814000,-3.407215
2.815000,-2.878990
2.816000,-2.276942
2.817000,-1.934551
2.818000,-1.719442
2.819000,-1.674893
2.820000,-1.352867
2.821000,-0.964654
2.822000,-0.783912
2.823000,-0.715179
2.824000,-1.021931
2.825000,-1.123758
2.826000,-0.999020
2.827000,-1.221766
2.828000,-1.469968
2.829000,-1.384688
2.830000,-1.076663
2.831000,-1.133940
2.832000,-1.478877
2.833000,-2.105110
2.834000,-2.402952
2.835000,-2.265486
2.836000,-2.086017
2.837000,-1.719442
2.838000,-1.314682
2.839000,-0.654084
2.840000,0.124888
2.841000,0.739665
2.842000,1.269163
2.843000,1.404083
2.844000,1.180064
2.845000,0.819854
2.846000,-0.062218
2.847000,-1.506880
2.848000,-2.294761
2.849000,-2.364767
2.850000,-3.025366
2.851000,-3.801792
2.852000,-4.141638
2.853000,-3.179378
2.854000,-2.268032
2.855000,-2.073289
2.856000,-2.091109
2.857000,-1.751263
2.858000,-1.567976
2.859000,-1.618889
2.860000,-1.816177
2.861000,-2.028740
2.862000,-2.198026
2.863000,-2.112747
2.864000,-2.511143
2.865000,-2.598968
2.866000,-2.058015
2.867000,-1.020659
2.868000,0.191076
2.869000,0.841492
2.870000,1.374807
2.871000,1.411719
2.872000,1.073147
2.873000,0.353998
2.874000,-0.866646
2.875000,-2.009648
2.876000,-2.577330
2.877000,-3.310480
2.878000,-3.782700
2.879000,-4.412751
2.880000,-4.009263
2.881000,-3.506496
2.882000,-3.556136
2.883000,-3.749606
2.884000,-3.022820
2.885000,-2.033831
2.886000,-1.285407
2.887000,-0.738090
2.888000,-0.584078
2.889000,-0.772457
2.890000,-0.791549
2.891000,-0.758456
2.892000,-0.758456
2.893000,-0.842462
2.894000,-1.419054
2.895000,-2.073289
2.896000,-2.185298
2.897000,-1.924368
2.898000,-1.641800
2.899000,-1.607433
2.900000,-1.646891
2.901000,-1.301954
2.902000,-0.902285
2.903000,-0.664266
2.904000,-0.731726
2.905000,-0.797913
2.906000,-1.044842
2.907000,-1.244677
2.908000,-1.671075
2.909000,-1.874728
2.910000,-1.254859
2.911000,-0.503890
2.912000,0.128707
2.913000,0.704026
2.914000,1.180064
2.915000,1.433358
2.916000,1.340441
2.917000,0.730755
2.918000,0.010334
2.919000,-0.855191
2.920000,-2.222210
2.921000,-2.917175
2.922000,-3.501404
2.923000,-3.621050
2.924000,-3.482312
2.925000,-3.306661
2.926000,-2.724978
2.927000,-2.461502
2.928000,-1.445784
2.929000,0.011607
2.930000,0.967502
2.931000,1.260253
2.932000,1.381172
2.933000,1.136788
2.934000,0.180893
2.935000,-1.604888
2.936000,-2.950269
2.937000,-4.021992
2.938000,-4.939702
2.939000,-6.332178
2.940000,-7.387354
2.941000,-6.747121
2.942000,-5.585027
2.943000,-4.014355
2.944000,-2.894264
2.945000,-2.212027
2.946000,-1.644345
2.947000,-1.080482
2.948000,-0.480979
2.949000,-0.204775
2.950000,-0.016396
2.951000,0.357816
2.952000,0.822399
2.953000,1.036235
2.954000,0.884768
2.955000,0.558923
2.956000,0.161800
2.957000,-0.676995
2.958000,-1.631617
2.959000,-2.508597
2.960000,-2.731342
2.961000,-2.741525
2.962000,-2.726251
2.963000,-2.924812
2.964000,-3.337209
2.965000,-3.161559
2.966000,-2.404225
2.967000,-1.338866
2.968000,-0.251869
2.969000,0.564015
2.970000,1.401537
2.971000,1.621736
2.972000,1.339168
2.973000,0.502919
2.974000,-0.273507
2.975000,-0.724089
2.976000,-1.039751
2.977000,-1.753809
2.978000,-2.534053
2.979000,-3.139921
2.980000,-3.258294
2.981000,-3.146285
2.982000,-2.800075
2.983000,-1.976554
2.984000,-1.599796
2.985000,-1.635435
2.986000,-1.733443
2.987000,-1.557793
2.988000,-0.974837
2.989000,-0.528073
2.990000,-0.348604
2.991000,-0.438975
2.992000,-1.002839
2.993000,-1.245950
2.994000,-1.503061
2.995000,-1.963826
2.996000,-2.352039
2.997000,-2.755526
2.998000,-2.929904
2.999000,-3.272295
3.000000,-3.619777
3.001000,-3.869252
3.002000,-3.325754
3.003000,-2.366040
3.004000,-1.660892
3.005000,-1.352867
3.006000,-1.259951
3.007000,-0.894648
3.008000,-0.553530
3.009000,-0.338422
3.010000,-0.119495
3.011000,-0.176772
3.012000,-0.328239
3.013000,-0.255688
3.014000,-0.446612
3.015000,-0.556076
3.016000,-0.482252
3.017000,-0.813187
3.018000,-1.492879
3.019000,-1.921822
3.020000,-1.814905
3.021000,-1.266315
3.022000,-0.769911
3.023000,-0.423701
3.024000,-0.436430
3.025000,-1.254859
3.026000,-1.564157
3.027000,-1.653255
3.028000,-1.854362
3.029000,-1.490333
3.030000,-1.066480
3.031000,-0.773730
3.032000,-0.547166
3.033000,-0.738090
3.034000,-1.191218
3.035000,-2.007102
3.036000,-2.490777
3.037000,-2.970634
3.038000,-3.096644
3.039000,-3.131011
3.040000,-3.036821
3.041000,-3.337209
3.042000,-3.383031
3.043000,-2.924812
3.044000,-1.923095
3.045000,-1.244677
3.046000,-0.825916
3.047000,-0.357514
3.048000,0.061247
3.049000,0.173256
3.050000,0.309449
3.051000,0.367999
3.052000,-0.384244
3.053000,-1.113575
3.054000,-1.369414
3.055000,-1.648164
3.056000,-2.000738
3.057000,-2.092381
3.058000,-2.164933
3.059000,-1.551429
3.060000,-1.338866
3.061000,-1.240858
3.062000,-0.456795
3.063000,-0.175499
3.064000,0.040882
3.065000,0.029426
3.066000,-0.106767
3.067000,-1.102120
3.068000,-1.181035
3.069000,-1.307045
3.070000,-1.603615
3.071000,-2.157296
3.072000,-3.432671
3.073000,-4.402568
3.074000,-5.333007
3.075000,-4.554035
3.076000,-3.217563
3.077000,-2.587512
3.078000,-2.339310
3.079000,-2.395315
3.080000,-3.012638
3.081000,-3.167923
3.082000,-2.766981
3.083000,-2.345675
3.084000,-1.579431
3.085000,-1.081754
3.086000,-0.762274
3.087000,-0.514072
3.088000,-0.536983
3.089000,-0.508981
3.090000,-0.670630
3.091000,-0.640082
3.092000,-0.525528
3.093000,-0.632445
3.094000,-1.253586
3.095000,-1.760173
3.096000,-1.617616
3.097000,-1.668529
3.098000,-2.023649
3.099000,-2.181480
3.100000,-1.946006
3.101000,-1.406326
3.102000,-1.018113
3.103000,-0.795368
3.104000,-0.845008
3.105000,-0.699905
3.106000,-0.771184
3.107000,-1.083027
3.108000,-1.075390
3.109000,-0.985019
3.110000,-1.011749
3.111000,-0.761001
3.112000,0.028153
3.113000,0.882222
3.114000,1.512273
3.115000,1.876302
3.116000,1.826662
3.117000,1.527547
3.118000,0.957319
3.119000,0.199985
3.120000,-1.019386
3.121000,-2.094927
3.122000,-3.183197
3.123000,-3.352483
3.124000,-3.762334
3.125000,-3.637597
3.126000,-3.067369
3.127000,-2.756799
3.128000,-2.964270
3.129000,-3.153922
3.130000,-3.674509
3.131000,-3.986352
3.132000,-4.062722
3.133000,-3.306661
3.134000,-2.772073
3.135000,-2.618060
3.136000,-2.145840
3.137000,-1.461058
3.138000,-0.606989
3.139000,-0.344786
3.140000,-0.283690
3.141000,-0.365151
3.142000,-0.679540
3.143000,-1.205219
3.144000,-1.518335
3.145000,-1.737262
3.146000,-2.237484
3.147000,-2.604059
3.148000,-3.077552
3.149000,-3.125919
3.150000,-2.834441
3.151000,-2.139476
3.152000,-1.469968
3.153000,-1.139032
3.154000,-0.661721
3.155000,-0.342240
3.156000,-0.189501
3.157000,0.015425
3.158000,-0.319329
3.159000,-0.030397
3.160000,0.653113
3.161000,0.986594
3.162000,1.335350
3.163000,1.004414
3.164000,0.392183
3.165000,0.105796
3.166000,-0.423701
3.167000,-1.636708
3.168000,-1.957461
3.169000,-2.494596
3.170000,-3.241747
3.171000,-4.238373
3.172000,-5.269365
3.173000,-5.546842
3.174000,-5.175176
3.175000,-4.285468
3.176000,-3.725422
3.177000,-3.363939
3.178000,-2.962997
3.179000,-2.466593
3.180000,-1.896366
3.181000,-1.473786
3.182000,-1.244677
3.183000,-0.986292
3.184000,-0.455522
3.185000,-0.146224
3.186000,0.108342
3.187000,0.143981
3.188000,0.011607
3.189000,-0.160226
3.190000,0.037063
3.191000,-0.026578
3.192000,-0.592988
3.193000,-0.887011
3.194000,-1.328683
3.195000,-1.298136
3.196000,-0.612080
3.197000,0.135071
3.198000,0.090522
3.199000,-0.393153
3.200000,-0.822097
3.201000,-1.266315
3.202000,-1.595978
3.203000,-2.061834
3.204000,-2.772073
3.205000,-3.122101
3.206000,-3.694874
3.207000,-3.697420
3.208000,-3.520497
3.209000,-2.699521
3.210000,-2.069471
3.211000,-1.753809
3.212000,-1.287953
3.213000,-0.920105
3.214000,-0.791549
3.215000,-0.435157
3.216000,-0.095311
3.217000,-0.031670
3.218000,-0.100403
3.219000,-0.110585
3.220000,-0.419883
3.221000,-1.267588
3.222000,-2.058015
3.223000,-2.562056
3.224000,-2.786074
3.225000,-2.667701
3.226000,-2.325309
3.227000,-1.517062
3.228000,-0.986292
3.229000,-0.514072
3.230000,0.117251
3.231000,0.431640
3.232000,0.283992
3.233000,-0.099130
3.234000,-0.801732
3.235000,-1.447057
3.236000,-1.765264
3.237000,-2.694430
3.238000,-3.250657
3.239000,-3.030457
3.240000,-2.929904
3.241000,-2.709704
3.242000,-2.158569
3.243000,-1.595978
3.244000,-0.899740
3.245000,-0.618444
3.246000,-0.449158
3.247000,-0.450431
3.248000,-0.918832
3.249000,-1.335048
3.250000,-1.779265
3.251000,-2.213300
3.252000,-2.517507
3.253000,-2.938813
3.254000,-2.976998
3.255000,-2.825532
3.256000,-2.481867
3.257000,-2.262941
3.258000,-2.429681
3.259000,-1.926914
3.260000,-1.780538
3.261000,-1.662165
3.262000,-1.424146
3.263000,-1.117394
3.264000,-0.923924
3.265000,-1.041024
3.266000,-1.047388
3.267000,-0.874283
3.268000,-0.710088
3.269000,-0.436430
3.270000,-0.503890
3.271000,-0.581532
3.272000,-0.572622
3.273000,-1.056298
3.274000,-1.529791
3.275000,-1.902730
3.276000,-2.212027
3.277000,-2.203118
3.278000,-2.419499
3.279000,-2.941359
3.280000,-2.556964
3.281000,-1.527245
3.282000,-0.585351
3.283000,-0.221321
3.284000,-0.052035
3.285000,-0.082583
3.286000,-0.315511
3.287000,-0.745727
3.288000,-1.319774
3.289000,-1.872182
3.290000,-2.554419
3.291000,-2.602786
3.292000,-2.209482
3.293000,-1.904003
3.294000,-0.959563
3.295000,-0.016396
3.296000,0.114706
3.297000,0.179620
3.298000,-0.151316
3.299000,-0.724089
3.300000,-1.234494
3.301000,-1.963826
3.302000,-2.546782
3.303000,-3.069915
3.304000,-3.481039
3.305000,-3.003728
3.306000,-2.915902
3.307000,-3.047004
3.308000,-2.751707
3.309000,-2.807712
3.310000,-2.703340
3.311000,-2.383860
3.312000,-1.641800
3.313000,-1.318501
3.314000,-1.368141
3.315000,-1.060116
3.316000,-0.638810
3.317000,-0.348604
3.318000,-0.251869
3.319000,-0.353696
3.320000,-0.414792
3.321000,-0.556076
3.322000,-0.959563
3.323000,-1.588341
3.324000,-2.173843
3.325000,-2.311308
3.326000,-2.200572
3.327000,-2.203118
3.328000,-1.954916
3.329000,-1.467422
3.330000,-1.487787
3.331000,-1.692713
3.332000,-1.714351
3.333000,-1.706714
3.334000,-1.594705
3.335000,-1.341412
3.336000,-0.949380
3.337000,-0.690996
3.338000,-0.463159
3.339000,-0.647719
3.340000,-0.856464
3.341000,-1.489060
3.342000,-2.024921
3.343000,-2.433500
3.344000,-1.953643
3.345000,-1.399962
3.346000,-1.183581
3.347000,-0.745727
3.348000,-0.259506
3.349000,0.017971
3.350000,0.189803
3.351000,-0.133496
3.352000,-0.664266
3.353000,-1.203946
3.354000,-1.602342
3.355000,-1.833997
3.356000,-1.996919
3.357000,-2.158569
3.358000,-2.716068
3.359000,-2.769527
3.360000,-2.383860
3.361000,-1.650709
3.362000,-1.084300
3.363000,-0.553530
3.364000,-0.058399
3.365000,0.070157
3.366000,-0.234050
3.367000,-0.754637
3.368000,-1.253586
3.369000,-2.238757
3.370000,-3.002455
3.371000,-3.374121
3.372000,-3.418670
3.373000,-3.612140
3.374000,-4.111090
3.375000,-4.168367
3.376000,-3.993989
3.377000,-3.101736
3.378000,-1.897638
3.379000,-1.209037
3.380000,-0.543347
3.381000,-0.123313
3.382000,0.441823
3.383000,0.737120
3.384000,0.833855
3.385000,1.009505
3.386000,0.709117
3.387000,-0.003667
3.388000,-0.479706
3.389000,-1.123758
3.390000,-1.748717
3.391000,-2.167478
3.392000,-2.671519
3.393000,-3.068642
3.394000,-3.488676
3.395000,-3.661781
3.396000,-3.283750
3.397000,-2.850988
3.398000,-2.360949
3.399000,-1.489060
3.400000,-1.201400
3.401000,-1.491606
3.402000,-1.847998
3.403000,-2.367313
3.404000,-2.633334
3.405000,-2.144567
3.406000,-1.776720
3.407000,-1.858181
3.408000,-1.447057
3.409000,-0.522982
3.410000,0.365453
3.411000,1.017142
3.412000,1.334077
3.413000,0.887314
3.414000,0.128707
3.415000,-0.510254
3.416000,-0.836098
3.417000,-0.860282
3.418000,-0.927742
3.419000,-1.312137
3.420000,-2.012193
3.421000,-3.109373
3.422000,-4.254920
3.423000,-4.317288
3.424000,-3.834886
3.425000,-3.240474
3.426000,-2.619333
3.427000,-2.175115
3.428000,-2.432227
3.429000,-2.338038
3.430000,-1.989282
3.431000,-1.458512
3.432000,-1.043570
3.433000,-0.996475
3.434000,-0.887011
3.435000,-0.833553
3.436000,-0.656629
3.437000,-0.277326
3.438000,0.059974
3.439000,0.048519
3.440000,-0.501344
3.441000,-0.689723
3.442000,-0.598079
3.443000,-0.703724
3.444000,-0.968473
3.445000,-1.007930
3.446000,-0.957017
3.447000,-1.397416
3.448000,-1.555247
3.449000,-1.368141
3.450000,-1.263769
3.451000,-1.466149
3.452000,-1.882365
3.453000,-2.145840
3.454000,-2.142022
3.455000,-2.130566
3.456000,-2.021103
3.457000,-1.705441
3.458000,-1.716897
3.459000,-1.809813
3.460000,-1.844180
3.461000,-1.912912
3.462000,-1.974008
3.463000,-1.617616
3.464000,-1.122485
3.465000,-1.024477
3.466000,-0.880647
3.467000,-0.637537
3.468000,-0.468250
3.469000,-0.451704
3.470000,-0.204775
3.471000,-0.488616
3.472000,-0.591715
3.473000,-0.750819
3.474000,-1.230676
3.475000,-1.853089
3.476000,-2.679156
3.477000,-3.034276
3.478000,-2.633334
3.479000,-2.070743
3.480000,-1.971463
3.481000,-2.313854
3.482000,-2.579875
3.483000,-2.891719
3.484000,-3.253202
3.485000,-3.250657
3.486000,-2.526416
3.487000,-1.984191
3.488000,-1.780538
3.489000,-1.636708
3.490000,-1.645618
3.491000,-1.177217
3.492000,-0.255688
3.493000,0.556378
3.494000,0.720573
3.495000,0.772759
3.496000,0.650567
3.497000,0.544922
3.498000,0.252171
3.499000,-0.225140
3.500000,-0.794095
3.501000,-1.410145
3.502000,-2.439864
3.503000,-2.931176
3.504000,-2.974453
3.505000,-2.609150
3.506000,-2.489504
3.507000,-2.591331
3.508000,-2.768254
3.509000,-3.221382
3.510000,-3.376667
3.511000,-3.086462
3.512000,-2.229847
3.513000,-2.031286
3.514000,-2.008375
3.515000,-1.751263
3.516000,-1.658346
3.517000,-1.607433
3.518000,-1.529791
3.519000,-1.492879
3.520000,-1.515789
3.521000,-1.439420
3.522000,-0.432611
3.523000,0.809671
3.524000,1.136788
3.525000,1.412992
3.526000,1.717199
3.527000,1.675195
3.528000,1.229705
3.529000,0.143981
3.530000,-1.011749
3.531000,-2.148386
3.532000,-3.353756
3.533000,-4.835330
3.534000,-5.447561
3.535000,-4.701683
3.536000,-4.042357
3.537000,-3.739423
3.538000,-3.548499
3.539000,-3.174287
3.540000,-2.747889
3.541000,-2.257849
3.542000,-1.791994
3.543000,-1.475059
3.544000,-1.243404
3.545000,-0.936652
3.546000,-0.718998
3.547000,-0.479706
3.548000,-0.391881
3.549000,-0.288781
3.550000,-0.066036
3.551000,0.128707
3.552000,0.119797
3.553000,-0.036761
3.554000,-0.473342
3.555000,-0.549712
3.556000,-0.690996
3.557000,-0.643901
3.558000,-0.226413
3.559000,-0.153861
3.560000,-0.242959
3.561000,-0.684631
3.562000,-1.909094
3.563000,-2.548055
3.564000,-2.954087
3.565000,-3.416125
3.566000,-3.103008
3.567000,-2.772073
3.568000,-3.034276
3.569000,-3.260839
3.570000,-2.817895
3.571000,-2.112747
3.572000,-1.270133
3.573000,-0.391881
3.574000,-0.067309
3.575000,0.096886
3.576000,0.128707
3.577000,0.323450
3.578000,0.524557
3.579000,0.449460
3.580000,-0.034215
3.581000,-0.600625
3.582000,-1.369414
3.583000,-2.548055
3.584000,-3.824703
3.585000,-4.380930
3.586000,-3.785245
3.587000,-2.998636
3.588000,-2.079653
3.589000,-1.693986
3.590000,-1.786902
3.591000,-1.374505
3.592000,-1.034660
3.593000,-0.531892
3.594000,0.087976
3.595000,0.432913
3.596000,0.331087
3.597000,-0.081310
3.598000,-0.875556
3.599000,-1.715624
3.600000,-2.839533
3.601000,-3.474675
3.602000,-3.544680
3.603000,-3.596867
3.604000,-3.351210
3.605000,-3.128465
3.606000,-2.341856
3.607000,-1.645618
3.608000,-0.906104
3.609000,-0.580259
3.610000,-0.250596
3.611000,-0.087674
3.612000,-0.363878
3.613000,-1.198855
3.614000,-1.954916
3.615000,-2.464048
3.616000,-3.069915
3.617000,-3.516678
3.618000,-3.943076
3.619000,-4.080542
3.620000,-3.148830
3.621000,-1.800903
3.622000,-1.184854
3.623000,-1.030841
3.624000,-0.354969
3.625000,0.527103
3.626000,1.060418
3.627000,1.621736
3.628000,1.740110
3.629000,1.188974
3.630000,0.510556
3.631000,-0.516618
3.632000,-1.663438
3.633000,-2.409316
3.634000,-3.380485
3.635000,-3.333391
3.636000,-2.900628
3.637000,-2.868808
3.638000,-2.894264
3.639000,-3.063551
3.640000,-2.626970
3.641000,-2.027467
3.642000,-1.424146
3.643000,-1.347776
3.644000,-1.495424
3.645000,-1.293044
3.646000,-1.027023
3.647000,-0.600625
3.648000,-0.391881
3.649000,-0.277326
3.650000,-0.381698
3.651000,-0.314238
3.652000,-0.318056
3.653000,-0.614626
3.654000,-1.047388
3.655000,-1.534882
3.656000,-2.028740
3.657000,-2.339310
3.658000,-2.170024
3.659000,-1.991828
3.660000,-1.929459
3.661000,-2.190389
3.662000,-2.143295
3.663000,-2.170024
3.664000,-1.963826
3.665000,-1.883637
3.666000,-1.784357
3.667000,-1.800903
3.668000,-1.701623
3.669000,-1.485242
3.670000,-1.206492
3.671000,-1.155579
3.672000,-1.280316
3.673000,-1.352867
3.674000,-1.472513
3.675000,-1.256132
3.676000,-0.958290
3.677000,-0.526801
3.678000,-0.002395
3.679000,0.883495
3.680000,1.805024
3.681000,2.731644
3.682000,3.397334
3.683000,3.079127
3.684000,2.704915
3.685000,1.559368
3.686000,-0.007486
3.687000,-2.143295
3.688000,-4.352928
3.689000,-5.863777
3.690000,-7.330077
3.691000,-8.447622
3.692000,-8.871474
3.693000,-7.299529
3.694000,-5.837047
3.695000,-4.800964
3.696000,-4.084360
3.697000,-3.229019
3.698000,-2.600241
3.699000,-2.307490
3.700000,-1.912912
3.701000,-1.445784
3.702000,-1.107211
3.703000,-0.626081
3.704000,-0.263325
3.705000,0.017971
3.706000,0.379454
3.707000,0.506737
3.708000,0.448187
3.709000,0.247080
3.710000,-0.292600
3.711000,-0.796641
3.712000,-0.937925
3.713000,-1.221766
3.714000,-1.098301
3.715000,-1.065208
3.716000,-1.261223
3.717000,-1.477605
3.718000,-1.359231
3.719000,-1.356686
3.720000,-1.514517
3.721000,-1.494151
3.722000,-1.281589
3.723000,-1.062662
3.724000,-0.937925
3.725000,-0.978655
3.726000,-0.862828
3.727000,-0.362606
3.728000,-0.081310
3.729000,0.187257
3.730000,0.642930
3.731000,1.601371
3.732000,2.245423
3.733000,2.562358
3.734000,2.865291
3.735000,2.796559
3.736000,2.519082
3.737000,1.799933
3.738000,0.366726
3.739000,-1.147942
3.740000,-2.730069
3.741000,-3.974897
3.742000,-5.649941
3.743000,-7.649557
3.744000,-7.587189
3.745000,-6.957138
3.746000,-6.043246
3.747000,-5.382647
3.748000,-4.713138
3.749000,-4.543852
3.750000,-4.187460
3.751000,-4.377111
3.752000,-4.120000
3.753000,-3.417397
3.754000,-3.166650
3.755000,-2.525144
3.756000,-1.611252
3.757000,-1.402508
3.758000,-1.425419
3.759000,-1.697804
3.760000,-1.757627
3.761000,-1.191218
3.762000,-0.727908
3.763000,-0.671903
3.764000,-0.585351
3.765000,-0.435157
3.766000,-0.631173
3.767000,-0.494980
3.768000,-0.302782
3.769000,-0.147497
3.770000,-0.167863
3.771000,-0.371515
3.772000,-0.608262
3.773000,-0.678267
3.774000,-0.633718
3.775000,-0.674449
3.776000,-0.697360
3.777000,-0.856464
3.778000,-1.052479
3.779000,-1.175944
3.780000,-1.048661
3.781000,-0.716452
3.782000,-0.245505
3.783000,0.184711
3.784000,0.795670
3.785000,1.764293
3.786000,2.320520
3.787000,2.372706
3.788000,2.209784
3.789000,1.886485
3.790000,1.233523
3.791000,0.192348
3.792000,-1.021931
3.793000,-2.259122
3.794000,-3.305388
3.795000,-4.246010
3.796000,-5.094987
3.797000,-5.509930
3.798000,-5.114080
3.799000,-4.515850
3.800000,-3.593048
3.801000,-2.667701
3.802000,-2.438591
3.803000,-2.422044
3.804000,-2.516234
3.805000,-2.996091
3.806000,-3.581593
3.807000,-3.139921
3.808000,-2.583694
3.809000,-2.475503
3.810000,-2.461502
3.811000,-2.396588
3.812000,-2.233666
3.813000,-2.226029
3.814000,-1.800903
3.815000,-1.519608
3.816000,-1.413963
3.817000,-1.060116
3.818000,-0.674449
3.819000,-0.592988
3.820000,-0.768638
3.821000,-1.149214
3.822000,-1.550156
3.823000,-1.858181
3.824000,-2.276942
3.825000,-1.943460
3.826000,-1.431783
3.827000,-1.060116
3.828000,-0.908650
3.829000,-0.730453
3.830000,-0.638810
3.831000,-0.497525
3.832000,-0.447885
3.833000,-0.213684
3.834000,-0.123313
3.835000,-0.090220
3.836000,0.119797
3.837000,0.300539
3.838000,0.424003
3.839000,0.822399
3.840000,0.905133
3.841000,0.936954
3.842000,1.657376
3.843000,1.607735
3.844000,1.466451
3.845000,0.891132
3.846000,-0.432611
3.847000,-1.336320
3.848000,-2.094927
3.849000,-3.524315
3.850000,-4.668589
3.851000,-4.844240
3.852000,-5.187904
3.853000,-5.671579
3.854000,-6.143799
3.855000,-5.982150
3.856000,-5.613029
3.857000,-4.753869
3.858000,-3.530679
3.859000,-2.693157
3.860000,-2.415680
3.861000,-2.476776
3.862000,-2.106383
3.863000,-1.574340
3.864000,-1.300681
3.865000,-1.485242
3.866000,-1.821269
3.867000,-1.518335
3.868000,-1.049934
3.869000,-0.803005
3.870000,-0.631173
3.871000,-0.491161
3.872000,-0.675722
3.873000,-0.684631
3.874000,-0.379152
3.875000,-0.183136
3.876000,0.171983
3.877000,0.505465
3.878000,0.579289
3.879000,0.516920
3.880000,0.444369
3.881000,0.660750
3.882000,1.040053
3.883000,1.242433
3.884000,0.886041
3.885000,1.078238
3.886000,1.181337
3.887000,0.642930
3.888000,-0.086401
3.889000,-0.869192
3.890000,-1.648164
3.891000,-2.590058
3.892000,-3.442854
3.893000,-4.657134
3.894000,-5.189177
3.895000,-5.215906
3.896000,-5.214633
3.897000,-4.993161
3.898000,-4.911700
3.899000,-4.495484
3.900000,-4.406386
3.901000,-4.247283
3.902000,-3.534498
3.903000,-2.653699
3.904000,-2.129294
3.905000,-1.671075
3.906000,-1.043570
3.907000,-0.651538
3.908000,-0.464432
3.909000,-0.470796
3.910000,-0.389335
3.911000,-0.654084
3.912000,-1.140305
3.913000,-0.864101
3.914000,-0.612080
3.915000,-0.780094
3.916000,-0.934106
3.917000,-1.522154
3.918000,-1.380869
3.919000,-0.871737
3.920000,-0.619717
3.921000,-0.454249
3.922000,-0.400790
3.923000,-0.384244
3.924000,-0.482252
3.925000,-0.741909
3.926000,-1.170853
3.927000,-1.310864
3.928000,-1.405053
3.929000,-1.187399
3.930000,-0.829734
3.931000,-0.343513
3.932000,0.474917
3.933000,1.037507
3.934000,0.900042
3.935000,0.210168
3.936000,-0.895921
3.937000,-1.828906
3.938000,-2.724978
3.939000,-4.067814
3.940000,-3.903619
3.941000,-3.052095
3.942000,-2.556964
3.943000,-2.014739
3.944000,-1.863272
3.945000,-1.942188
3.946000,-1.818723
3.947000,-1.676166
3.948000,-1.587068
3.949000,-1.646891
3.950000,-1.655801
3.951000,-1.935823
3.952000,-2.036377
3.953000,-1.814905
3.954000,-1.447057
3.955000,-1.523426
3.956000,-1.240858
3.957000,-0.559894
3.958000,0.056156
3.959000,0.241989
3.960000,0.411275
3.961000,0.850401
3.962000,0.961138
3.963000,0.743484
3.964000,-0.326966
3.965000,-1.104665
3.966000,-1.183581
3.967000,-1.912912
3.968000,-2.927358
3.969000,-3.702511
3.970000,-4.028356
3.971000,-3.623596
3.972000,-3.147558
3.973000,-3.101736
3.974000,-3.038094
3.975000,-2.492050
3.976000,-2.228574
3.977000,-2.344402
3.978000,-2.564601
3.979000,-2.520052
3.980000,-2.502233
3.981000,-2.730069
3.982000,-3.001182
3.983000,-2.806439
3.984000,-2.565874
3.985000,-2.139476
3.986000,-2.374950
3.987000,-1.976554
3.988000,-1.453421
3.989000,-1.119939
3.990000,-0.945562
3.991000,-0.612080
3.992000,-0.339695
3.993000,-0.203502
3.994000,-0.309147
3.995000,-0.102948
3.996000,0.369272
3.997000,0.435459
3.998000,0.039609
3.999000,-0.514072
4.000000,-1.429237
4.001000,-2.233666
4.002000,-2.194208
4.003000,-2.256577
4.004000,-1.914185
4.005000,-1.730898
4.006000,-1.426691
4.007000,-0.857736
4.008000,-0.542075
4.009000,-0.110585
4.010000,0.375636
4.011000,0.269991
4.012000,0.054883
4.013000,-0.217503
4.014000,-0.731726
4.015000,-1.357959
4.016000,-1.849271
4.017000,-1.904003
4.018000,-1.847998
4.019000,-1.702895
4.020000,-2.240030
4.021000,-2.556964
4.022000,-2.553146
4.023000,-2.544236
4.024000,-2.423317
4.025000,-2.293489
4.026000,-1.805995
4.027000,-1.637981
4.028000,-1.551429
4.029000,-1.132668
4.030000,-0.857736
4.031000,-0.366424
4.032000,0.500373
4.033000,1.187701
4.034000,0.970047
4.035000,0.291629
4.036000,-0.473342
4.037000,-1.280316
4.038000,-1.928186
4.039000,-2.414407
4.040000,-2.886627
4.041000,-4.041084
4.042000,-4.669862
4.043000,-5.358463
4.044000,-5.296095
4.045000,-4.803509
4.046000,-3.772517
4.047000,-2.763163
4.048000,-1.785629
4.049000,-1.184854
4.050000,-0.647719
4.051000,-0.284963
4.052000,-0.181864
4.053000,-0.506435
4.054000,-0.822097
4.055000,-0.827188
4.056000,-0.684631
4.057000,-0.438975
4.058000,-0.408427
4.059000,-0.633718
4.060000,-0.934106
4.061000,-1.373233
4.062000,-1.616343
4.063000,-1.729625
4.064000,-1.878546
4.065000,-1.855635
4.066000,-1.953643
4.067000,-2.004556
4.068000,-1.709260
4.069000,-0.930288
4.070000,-0.384244
4.071000,-0.330785
4.072000,-0.572622
4.073000,-1.314682
4.074000,-2.092381
4.075000,-2.968088
4.076000,-4.162003
4.077000,-3.978715
4.078000,-3.369030
4.079000,-2.862444
4.080000,-2.542963
4.081000,-2.111474
4.082000,-1.560339
4.083000,-1.167034
4.084000,-1.023204
4.085000,-1.104665
4.086000,-0.846281
4.087000,-0.136042
4.088000,0.432913
4.089000,0.986594
4.090000,1.288255
4.091000,1.353169
4.092000,1.421902
4.093000,1.196611
4.094000,0.740938
4.095000,0.308176
4.096000,-0.538256
4.097000,-1.405053
4.098000,-2.437318
4.099000,-3.237928
4.100000,-2.909538
4.101000,-2.730069
4.102000,-2.517507
4.103000,-2.470412
4.104000,-2.693157
4.105000,-3.286296
4.106000,-3.380485
4.107000,-2.843351
4.108000,-2.157296
4.109000,-1.592159
4.110000,-1.107211
4.111000,-1.052479
4.112000,-0.941743
4.113000,-1.051207
4.114000,-1.420327
4.115000,-2.101291
4.116000,-2.940086
4.117000,-3.165377
4.118000,-2.987181
4.119000,-2.373677
4.120000,-2.061834
4.121000,-2.110201
4.122000,-2.074562
4.123000,-1.860726
4.124000,-1.595978
4.125000,-1.615070
4.126000,-1.336320
4.127000,-0.999020
4.128000,-0.833553
4.129000,-0.572622
4.130000,0.071430
4.131000,1.042599
4.132000,1.528820
4.133000,2.023951
4.134000,1.987039
4.135000,1.486816
4.136000,1.111332
4.137000,0.611109
4.138000,-0.125859
4.139000,-0.843735
4.140000,-2.226029
4.141000,-3.790337
4.142000,-5.596482
4.143000,-6.576561
4.144000,-6.462007
4.145000,-6.080158
4.146000,-4.881152
4.147000,-3.534498
4.148000,-2.163660
4.149000,-1.279043
4.150000,-0.690996
4.151000,-0.427520
4.152000,-0.297691
4.153000,-0.246778
4.154000,-0.473342
4.155000,-0.724089
4.156000,-0.971018
4.157000,-1.585795
4.158000,-1.760173
4.159000,-1.856908
4.160000,-2.392769
4.161000,-2.443683
4.162000,-2.340583
4.163000,-2.438591
4.164000,-2.352039
4.165000,-1.807268
4.166000,-1.088119
4.167000,-0.391881
4.168000,0.030699
4.169000,0.364180
4.170000,0.636566
4.171000,0.530921
4.172000,0.113433
4.173000,-0.193319
4.174000,-0.449158
4.175000,-1.004112
4.176000,-1.388506
4.177000,-1.836543
4.178000,-2.209482
4.179000,-2.675338
4.180000,-2.532781
4.181000,-1.436874
4.182000,0.044700
4.183000,0.894951
4.184000,1.144425
4.185000,1.054054
4.186000,0.375636
4.187000,-0.503890
4.188000,-1.503061
4.189000,-2.469139
4.190000,-3.339755
4.191000,-4.568036
4.192000,-5.712310
4.193000,-6.005061
4.194000,-5.638486
4.195000,-5.116626
4.196000,-4.070359
4.197000,-2.872626
4.198000,-2.204390
4.199000,-1.767810
4.200000,-1.287953
4.201000,-0.839917
4.202000,-0.659175
4.203000,-0.547166
4.204000,-0.295146
4.205000,-0.024033
4.206000,0.039609
4.207000,0.408729
4.208000,0.403638
4.209000,0.336178
4.210000,0.178347
4.211000,-0.222594
4.212000,-0.701178
4.213000,-1.445784
4.214000,-2.089836
4.215000,-2.548055
4.216000,-2.229847
4.217000,-1.914185
4.218000,-1.439420
4.219000,-0.979928
4.220000,-0.806823
4.221000,-0.643901
4.222000,-1.100847
4.223000,-1.174671
4.224000,-0.800459
4.225000,-0.613353
4.226000,0.001424
4.227000,0.784214
4.228000,0.978957
4.229000,0.485099
4.230000,-0.295146
4.231000,-1.422873
4.232000,-2.761890
4.233000,-3.792882
4.234000,-4.361837
4.235000,-4.680045
4.236000,-3.988898
4.237000,-3.444127
4.238000,-3.204835
4.239000,-3.481039
4.240000,-3.327027
4.241000,-2.190389
4.242000,-1.361777
4.243000,-0.944289
4.244000,-0.610807
4.245000,-0.516618
4.246000,-0.951926
4.247000,-1.329956
4.248000,-1.696531
4.249000,-2.153477
4.250000,-1.961280
4.251000,-1.954916
4.252000,-1.846725
4.253000,-1.263769
4.254000,-0.897194
4.255000,-0.707542
4.256000,-0.171681
4.257000,0.067611
4.258000,-0.048216
4.259000,0.121070
4.260000,0.234352
4.261000,0.093068
4.262000,0.241989
4.263000,0.283992
4.264000,0.136344
4.265000,0.160528
4.266000,-0.167863
4.267000,-1.270133
4.268000,-2.346947
4.269000,-3.058459
4.270000,-3.207381
4.271000,-3.150103
4.272000,-4.192551
4.273000,-5.164993
4.274000,-4.816238
4.275000,-4.324925
4.276000,-3.806883
4.277000,-3.347392
4.278000,-2.789892
4.279000,-2.069471
4.280000,-1.598523
4.281000,-0.878102
4.282000,0.080339
4.283000,0.748575
4.284000,0.915316
4.285000,0.743484
4.286000,0.341269
4.287000,0.030699
4.288000,-0.738090
4.289000,-1.136486
4.290000,-1.155579
4.291000,-1.518335
4.292000,-2.588785
4.293000,-3.993989
4.294000,-4.342745
4.295000,-3.439036
4.296000,-2.201845
4.297000,-1.319774
4.298000,-0.969745
4.299000,-0.925196
4.300000,-1.056298
4.301000,-1.178490
4.302000,-0.983747
4.303000,-0.773730
4.304000,-0.422429
4.305000,-0.041852
4.306000,0.103250
4.307000,0.086703
4.308000,-0.150043
4.309000,-1.245950
4.310000,-1.433056
4.311000,-1.263769
4.312000,-1.240858
4.313000,-1.766537
4.314000,-1.657074
4.315000,-1.281589
4.316000,-1.104665
4.317000,-1.136486
4.318000,-0.993929
4.319000,-1.239585
4.320000,-1.949824
4.321000,-2.452592
4.322000,-2.619333
4.323000,-2.816622
4.324000,-2.901901
4.325000,-2.483140
4.326000,-1.644345
4.327000,-1.490333
4.328000,-1.921822
4.329000,-1.814905
4.330000,-1.893820
4.331000,-2.149659
4.332000,-2.444955
4.333000,-3.068642
4.334000,-3.073733
4.335000,-2.346947
4.336000,-2.084744
4.337000,-2.149659
4.338000,-1.993101
4.339000,-1.654528
4.340000,-1.391052
4.341000,-1.100847
4.342000,-0.463159
4.343000,-0.125859
4.344000,0.037063
4.345000,0.188530
4.346000,0.203804
4.347000,0.085431
4.348000,-0.127132
4.349000,-0.454249
4.350000,-1.018113
4.351000,-1.672348
4.352000,-2.158569
4.353000,-2.138203
4.354000,-1.991828
4.355000,-1.994374
4.356000,-1.874728
4.357000,-1.533609
4.358000,-1.621434
4.359000,-1.761446
4.360000,-1.709260
4.361000,-1.730898
4.362000,-2.310035
4.363000,-2.488232
4.364000,-2.088563
4.365000,-1.203946
4.366000,-0.459341
4.367000,0.222896
4.368000,0.744757
4.369000,1.253889
4.370000,1.004414
4.371000,0.654386
4.372000,0.434186
4.373000,-0.087674
4.374000,-0.776275
4.375000,-1.429237
4.376000,-2.052924
4.377000,-2.666428
4.378000,-3.344846
4.379000,-4.178550
4.380000,-3.832340
4.381000,-2.312581
4.382000,-0.725362
4.383000,-0.039307
4.384000,-0.106767
4.385000,-0.805550
4.386000,-2.101291
4.387000,-3.647780
4.388000,-4.396204
4.389000,-5.135718
4.390000,-4.756415
4.391000,-3.986352
4.392000,-3.649053
4.393000,-3.505223
4.394000,-3.229019
4.395000,-2.910811
4.396000,-2.437318
4.397000,-1.900184
4.398000,-1.444511
4.399000,-1.117394
4.400000,-0.745727
4.401000,-0.556076
4.402000,-0.547166
4.403000,-0.217503
4.404000,0.066338
4.405000,0.287811
4.406000,0.255990
4.407000,0.073975
4.408000,-0.530619
4.409000,-0.987565
4.410000,-0.964654
4.411000,-0.562440
4.412000,-0.302782
4.413000,-0.545893
4.414000,-0.951926
4.415000,-1.239585
4.416000,-1.781811
4.417000,-2.144567
4.418000,-2.442410
4.419000,-2.327855
4.420000,-2.184025
4.421000,-2.037650
4.422000,-2.096200
4.423000,-1.890001
4.424000,-1.305773
4.425000,-0.979928
4.426000,-0.909922
4.427000,-0.932833
4.428000,-0.794095
4.429000,-0.633718
4.430000,-0.535710
4.431000,-0.363878
4.432000,-0.073673
4.433000,-0.026578
4.434000,-0.125859
4.435000,-0.088947
4.436000,-0.184409
4.437000,-0.007486
4.438000,0.541104
4.439000,0.715481
4.440000,0.241989
4.441000,-0.068582
4.442000,-0.288781
4.443000,-1.028296
4.444000,-1.907821
4.445000,-2.947723
4.446000,-3.136102
4.447000,-3.542135
4.448000,-4.200188
4.449000,-4.243464
4.450000,-4.282922
4.451000,-4.531124
4.452000,-4.351655
4.453000,-3.464492
4.454000,-2.714795
4.455000,-2.754253
4.456000,-2.691884
4.457000,-2.369858
4.458000,-2.358403
4.459000,-2.625697
4.460000,-2.704613
4.461000,-2.819167
4.462000,-2.430954
4.463000,-1.933278
4.464000,-1.770355
4.465000,-1.658346
4.466000,-1.499243
4.467000,-1.443238
4.468000,-1.051207
4.469000,-0.962108
4.470000,-0.743182
4.471000,-0.444067
4.472000,-0.409700
4.473000,-0.665539
4.474000,-0.297691
4.475000,-0.008759
4.476000,0.122343
4.477000,0.047246
4.478000,-0.325693
4.479000,-0.571350
4.480000,-0.379152
4.481000,-0.678267
4.482000,-1.318501
4.483000,-2.082199
4.484000,-1.803449
4.485000,-1.393598
4.486000,-1.443238
4.487000,-1.547610
4.488000,-1.696531
4.489000,-1.449602
4.490000,-1.371960
4.491000,-1.281589
4.492000,-1.333775
4.493000,-1.492879
4.494000,-1.749990
4.495000,-2.147113
4.496000,-2.548055
4.497000,-2.191662
4.498000,-1.643072
4.499000,-1.319774
4.500000,-0.732999
4.501000,-0.017669
4.502000,0.325996
4.503000,0.858038
4.504000,1.199157
4.505000,1.251343
4.506000,0.804580
4.507000,-0.060945
4.508000,-1.464876
4.509000,-2.745343
4.510000,-4.536215
4.511000,-5.075895
4.512000,-4.468755
4.513000,-4.407659
4.514000,-3.851432
4.515000,-3.431399
4.516000,-2.946450
4.517000,-2.396588
4.518000,-1.808540
4.519000,-1.388506
4.520000,-1.091937
4.521000,-0.870465
4.522000,-0.750819
4.523000,-0.679540
4.524000,-0.605716
4.525000,-0.391881
4.526000,-0.659175
4.527000,-1.006657
4.528000,-1.398689
4.529000,-1.441965
4.530000,-1.284134
4.531000,-1.132668
4.532000,-1.229403
4.533000,-1.509425
4.534000,-1.827633
4.535000,-2.275669
4.536000,-1.818723
4.537000,-0.748273
4.538000,0.287811
4.539000,1.068055
4.540000,1.010778
4.541000,0.883495
4.542000,0.529648
4.543000,-0.234050
4.544000,-0.725362
4.545000,-1.748717
4.546000,-3.231564
4.547000,-4.412751
4.548000,-4.784417
4.549000,-4.659680
4.550000,-4.336381
4.551000,-4.200188
4.552000,-4.105998
4.553000,-4.097089
4.554000,-3.486130
4.555000,-2.633334
4.556000,-2.074562
4.557000,-1.522154
4.558000,-1.024477
4.559000,-0.617172
4.560000,0.033245
4.561000,0.522011
4.562000,0.982776
4.563000,1.278072
4.564000,1.424448
4.565000,1.677741
4.566000,1.979402
4.567000,1.775749
4.568000,1.353169
4.569000,0.197440
4.570000,-1.239585
4.571000,-2.514961
4.572000,-3.665599
4.573000,-4.123818
4.574000,-3.852705
4.575000,-3.047004
4.576000,-2.427136
4.577000,-2.368586
4.578000,-2.814076
4.579000,-2.905720
4.580000,-2.961724
4.581000,-3.114464
4.582000,-2.746616
4.583000,-2.364767
4.584000,-1.753809
4.585000,-1.916731
4.586000,-2.096200
4.587000,-2.220937
4.588000,-2.355857
4.589000,-2.200572
4.590000,-1.970190
4.591000,-1.822541
4.592000,-1.872182
4.593000,-1.571794
4.594000,-1.331229
4.595000,-1.300681
4.596000,-1.238313
4.597000,-1.042297
4.598000,-0.694814
4.599000,-0.449158
4.600000,-0.577714
4.601000,-0.231504
4.602000,0.127434
4.603000,0.426549
4.604000,0.682388
4.605000,0.565288
4.606000,0.082885
4.607000,-0.356241
4.608000,-0.501344
4.609000,-0.889557
4.610000,-1.104665
4.611000,-1.436874
4.612000,-1.783084
4.613000,-1.859454
4.614000,-2.512415
4.615000,-2.704613
4.616000,-2.688066
4.617000,-2.232393
4.618000,-1.175944
4.619000,-0.333330
4.620000,0.129980
4.621000,-0.041852
4.622000,-0.660448
4.623000,-1.727079
4.624000,-3.286296
4.625000,-4.416569
4.626000,-4.149275
4.627000,-3.464492
4.628000,-3.342301
4.629000,-3.473402
4.630000,-3.110645
4.631000,-2.570966
4.632000,-2.145840
4.633000,-1.957461
4.634000,-1.623980
4.635000,-1.203946
4.636000,-0.619717
4.637000,-0.136042
4.638000,0.010334
4.639000,0.070157
4.640000,0.094340
4.641000,0.183439
4.642000,0.430368
4.643000,0.529648
4.644000,0.217805
4.645000,-0.497525
4.646000,-1.111030
4.647000,-1.556520
4.648000,-2.311308
4.649000,-3.362666
4.650000,-3.922711
4.651000,-3.755970
4.652000,-4.083088
4.653000,-3.677055
4.654000,-2.792438
4.655000,-2.003283
4.656000,-1.396143
4.657000,-0.678267
4.658000,-0.151316
4.659000,0.133798
4.660000,0.338724
4.661000,0.325996
4.662000,0.154163
4.663000,-0.174227
4.664000,-0.444067
4.665000,-0.479706
4.666000,-0.427520
4.667000,-0.707542
4.668000,-1.102120
4.669000,-1.496697
4.670000,-2.116565
4.671000,-2.894264
4.672000,-3.243020
4.673000,-3.475948
4.674000,-3.337209
4.675000,-2.850988
4.676000,-2.318945
4.677000,-2.578603
4.678000,-2.829350
4.679000,-2.646063
4.680000,-2.416953
4.681000,-2.018557
4.682000,-1.868363
4.683000,-1.415236
4.684000,-1.041024
4.685000,-0.648992
4.686000,-0.749546
4.687000,-0.744455
4.688000,-0.380425
4.689000,-0.325693
4.690000,-0.334603
4.691000,-0.276053
4.692000,-0.367697
4.693000,-0.682086
4.694000,-1.079209
4.695000,-1.438147
4.696000,-1.307045
4.697000,-1.272679
4.698000,-0.762274
4.699000,-0.228958
4.700000,0.121070
4.701000,0.163073
4.702000,-0.248051
4.703000,-0.789004
4.704000,-1.164488
4.705000,-1.621434
4.706000,-2.418226
4.707000,-3.162831
4.708000,-3.894709
4.709000,-4.545125
4.710000,-4.991888
4.711000,-4.233281
4.712000,-3.881980
4.713000,-3.152649
4.714000,-2.550600
4.715000,-1.984191
4.716000,-1.438147
4.717000,-1.234494
4.718000,-1.225584
4.719000,-1.145396
4.720000,-1.075390
4.721000,-1.231948
4.722000,-1.075390
4.723000,-0.666812
4.724000,-0.516618
4.725000,-0.475887
4.726000,-0.544620
4.727000,-0.348604
4.728000,-0.265870
4.729000,-0.382971
4.730000,-0.282417
4.731000,0.104523
4.732000,0.634020
4.733000,0.859311
4.734000,0.243262
4.735000,-1.009203
4.736000,-2.107655
4.737000,-3.141193
4.738000,-3.595594
4.739000,-3.293933
4.740000,-3.301570
4.741000,-3.488676
4.742000,-3.618505
4.743000,-3.231564
4.744000,-2.853534
4.745000,-2.661336
4.746000,-2.124202
4.747000,-1.910367
4.748000,-1.743626
4.749000,-1.455966
4.750000,-1.042297
4.751000,-0.339695
4.752000,0.420185
4.753000,1.236069
4.754000,1.892849
4.755000,2.149961
4.756000,2.072318
4.757000,1.615372
4.758000,0.830036
4.759000,-0.160226
4.760000,-1.247222
4.761000,-2.033831
4.762000,-2.452592
4.763000,-2.886627
4.764000,-3.278659
4.765000,-3.355029
4.766000,-2.987181
4.767000,-2.316400
4.768000,-1.826360
4.769000,-2.066925
4.770000,-2.822986
4.771000,-4.024537
4.772000,-3.988898
4.773000,-3.201016
4.774000,-2.640971
4.775000,-2.215846
4.776000,-2.086017
4.777000,-2.186571
4.778000,-2.408043
4.779000,-2.247667
4.780000,-1.859454
4.781000,-1.841634
4.782000,-1.924368
4.783000,-1.884910
4.784000,-1.646891
4.785000,-1.365596
4.786000,-1.076663
4.787000,-0.836098
4.788000,-0.671903
4.789000,-0.823370
4.790000,-0.640082
4.791000,-0.455522
4.792000,-0.315511
4.793000,-0.127132
4.794000,-0.208593
4.795000,-0.174227
4.796000,-0.362606
4.797000,-0.734272
4.798000,-1.065208
4.799000,-1.328683
4.800000,-1.534882
4.801000,-1.183581
4.802000,-0.790276
4.803000,-0.787731
4.804000,-0.883193
4.805000,-1.331229
4.806000,-1.910367
4.807000,-1.982918
4.808000,-2.395315
4.809000,-2.632061
4.810000,-2.731342
4.811000,-2.479322
4.812000,-2.332946
4.813000,-2.027467
4.814000,-1.645618
4.815000,-1.369414
4.816000,-1.262496
4.817000,-1.357959
4.818000,-1.645618
4.819000,-1.756354
4.820000,-1.560339
4.821000,-1.452148
4.822000,-1.585795
4.823000,-1.135213
4.824000,-0.311692
4.825000,0.201258
4.826000,0.184711
4.827000,0.077794
4.828000,0.179620
4.829000,0.107069
4.830000,-0.128405
4.831000,-0.707542
4.832000,-1.167034
4.833000,-1.912912
4.834000,-3.022820
4.835000,-4.436934
4.836000,-5.954148
4.837000,-5.527750
4.838000,-3.880708
4.839000,-2.540418
4.840000,-1.743626
4.841000,-1.746172
4.842000,-1.352867
4.843000,-0.847554
4.844000,-0.488616
4.845000,-0.582805
4.846000,-0.628627
4.847000,-0.977382
4.848000,-1.061389
4.849000,-0.673176
4.850000,-0.505162
4.851000,-0.656629
4.852000,-1.117394
4.853000,-1.827633
4.854000,-2.451320
4.855000,-3.058459
4.856000,-3.465765
4.857000,-2.679156
4.858000,-1.865818
4.859000,-1.133940
4.860000,-0.435157
4.861000,-0.132223
4.862000,-0.071127
4.863000,-0.273507
4.864000,-0.977382
4.865000,-1.979100
4.866000,-2.559510
4.867000,-3.227746
4.868000,-3.047004
4.869000,-2.721159
4.870000,-2.130566
4.871000,-1.015567
4.872000,-0.197138
4.873000,0.343815
4.874000,0.495282
4.875000,0.444369
4.876000,0.276355
4.877000,-0.138587
4.878000,-0.736818
4.879000,-1.478877
4.880000,-1.926914
4.881000,-2.710977
4.882000,-3.366484
4.883000,-3.432671
4.884000,-3.029184
4.885000,-2.419499
4.886000,-1.915458
4.887000,-1.368141
4.888000,-0.878102
4.889000,-0.722816
4.890000,-0.988838
4.891000,-1.391052
4.892000,-1.074117
4.893000,-0.384244
4.894000,0.253444
4.895000,0.733301
4.896000,0.530921
4.897000,0.217805
4.898000,0.040882
4.899000,-0.608262
4.900000,-0.815733
4.901000,-0.789004
4.902000,-0.755910
4.903000,-1.613797
4.904000,-2.396588
4.905000,-2.069471
4.906000,-2.626970
4.907000,-2.577330
4.908000,-1.938369
4.909000,-1.403780
4.910000,-1.556520
4.911000,-2.397861
4.912000,-3.618505
4.913000,-4.659680
4.914000,-4.900244
4.915000,-4.456027
4.916000,-4.088179
4.917000,-3.990171
4.918000,-3.547226
4.919000,-2.853534
4.920000,-2.180207
4.921000,-1.413963
4.922000,-0.752091
4.923000,-0.100403
4.924000,0.528375
4.925000,0.827491
4.926000,0.780396
4.927000,0.438005
4.928000,0.094340
4.929000,-0.248051
4.930000,-0.708815
4.931000,-1.477605
4.932000,-1.422873
4.933000,-1.067753
4.934000,-1.170853
4.935000,-1.345230
4.936000,-1.179762
4.937000,-1.039751
4.938000,-1.172125
4.939000,-1.301954
4.940000,-1.573067
4.941000,-2.120384
4.942000,-2.721159
4.943000,-3.474675
4.944000,-4.041084
4.945000,-2.980817
4.946000,-2.289670
4.947000,-1.842907
4.948000,-1.578158
4.949000,-1.748717
4.950000,-1.603615
4.951000,-1.161943
4.952000,-0.605716
4.953000,-0.358787
4.954000,-0.125859
4.955000,-0.053308
4.956000,-0.594261
4.957000,-0.909922
4.958000,-1.154306
4.959000,-1.125031
4.960000,-0.927742
4.961000,-0.808096
4.962000,-0.972291
4.963000,-1.455966
4.964000,-1.962553
4.965000,-1.846725
4.966000,-1.309591
4.967000,-0.419883
4.968000,-0.120768
4.969000,-0.321875
4.970000,-0.536983
4.971000,-0.384244
4.972000,-0.954471
4.973000,-1.520881
4.974000,-1.546337
4.975000,-1.450875
4.976000,-1.564157
4.977000,-1.664711
4.978000,-1.921822
4.979000,-2.252758
4.980000,-2.163660
4.981000,-2.530235
4.982000,-3.197198
4.983000,-3.726695
4.984000,-3.906164
4.985000,-3.409760
4.986000,-3.167923
4.987000,-3.053368
4.988000,-2.906993
4.989000,-2.966816
4.990000,-2.206936
4.991000,-1.172125
4.992000,-0.684631
4.993000,-0.548439
4.994000,-0.398245
4.995000,-0.287509
4.996000,-0.211139
4.997000,0.249626
4.998000,0.604745
4.999000,0.468552
5.000000,-0.071127
5.001000,-0.390608
5.002000,-0.978655
5.003000,-1.949824
5.004000,-2.667701
5.005000,-2.513688
5.006000,-2.171297
5.007000,-2.446228
5.008000,-2.783528
5.009000,-2.145840
5.010000,-1.310864
5.011000,-0.814460
5.012000,-0.479706
5.013000,-0.827188
5.014000,-1.009203
5.015000,-1.043570
5.016000,-1.489060
5.017000,-2.274396
5.018000,-2.558237
5.019000,-2.763163
5.020000,-2.649881
5.021000,-2.316400
5.022000,-1.702895
5.023000,-0.937925
5.024000,-0.918832
5.025000,-0.818279
5.026000,-0.773730
5.027000,-0.263325
5.028000,0.187257
5.029000,-0.088947
5.030000,-0.522982
5.031000,-0.113131
5.032000,-0.174227
5.033000,-0.645174
5.034000,-1.531063
5.035000,-2.344402
5.036000,-2.542963
5.037000,-2.731342
5.038000,-3.535771
5.039000,-4.498030
5.040000,-4.783144
5.041000,-4.057631
5.042000,-2.964270
5.043000,-2.481867
5.044000,-2.156023
5.045000,-1.625253
5.046000,-1.085573
5.047000,-0.519164
5.048000,-0.241687
5.049000,-0.147497
5.050000,0.122343
5.051000,0.371817
5.052000,0.353998
5.053000,-0.096584
5.054000,-0.450431
5.055000,-0.585351
5.056000,-0.708815
5.057000,-0.682086
5.058000,-0.699905
5.059000,-0.758456
5.060000,-0.825916
5.061000,-1.248495
5.062000,-2.203118
5.063000,-2.738979
5.064000,-2.635880
5.065000,-2.582421
5.066000,-2.548055
5.067000,-2.639698
5.068000,-2.126748
5.069000,-1.312137
5.070000,-1.277770
5.071000,-1.593432
5.072000,-1.454694
5.073000,-0.925196
5.074000,-0.912468
5.075000,-1.067753
5.076000,-1.000293
5.077000,-1.066480
5.078000,-1.436874
5.079000,-1.912912
5.080000,-1.991828
5.081000,-1.564157
5.082000,-1.413963
5.083000,-1.450875
5.084000,-1.430510
5.085000,-1.225584
5.086000,-1.252314
5.087000,-1.345230
5.088000,-1.123758
5.089000,-0.576441
5.090000,-0.395699
5.091000,-0.540802
5.092000,-0.847554
5.093000,-1.065208
5.094000,-1.192491
5.095000,-1.930732
5.096000,-2.405498
5.097000,-2.833169
5.098000,-2.985908
5.099000,-2.469139
5.100000,-1.996919
5.101000,-2.003283
5.102000,-2.494596
5.103000,-2.788619
5.104000,-2.676610
5.105000,-2.635880
5.106000,-2.584967
5.107000,-2.008375
5.108000,-1.354140
5.109000,-0.906104
5.110000,-0.516618
5.111000,-0.176772
5.112000,-0.200956
5.113000,-0.358787
5.114000,-0.766093
5.115000,-1.203946
5.116000,-1.595978
5.117000,-2.060561
5.118000,-1.528518
5.119000,-0.993929
5.120000,-0.819551
5.121000,-1.361777
5.122000,-1.410145
5.123000,-1.071572
5.124000,-1.243404
5.125000,-1.878546
5.126000,-2.746616
5.127000,-3.020275
5.128000,-2.835714
5.129000,-3.006273
5.130000,-2.900628
5.131000,-2.632061
5.132000,-2.654972
5.133000,-2.228574
5.134000,-1.827633
5.135000,-1.188672
5.136000,-0.909922
5.137000,-0.827188
5.138000,-0.715179
5.139000,-0.645174
5.140000,-0.684631
5.141000,-0.787731
5.142000,-1.067753
5.143000,-0.983747
5.144000,-0.990111
5.145000,-1.184854
5.146000,-0.197138
5.147000,0.468552
5.148000,0.656931
5.149000,0.650567
5.150000,0.294175
5.151000,-0.249324
5.152000,-0.769911
5.153000,-1.760173
5.154000,-2.414407
5.155000,-2.740252
5.156000,-3.226473
5.157000,-3.689783
5.158000,-3.374121
5.159000,-2.882809
5.160000,-2.453865
5.161000,-1.508152
5.162000,-0.762274
5.163000,-0.633718
5.164000,-0.647719
5.165000,-1.149214
5.166000,-1.503061
5.167000,-1.681257
5.168000,-2.093654
5.169000,-2.111474
5.170000,-2.203118
5.171000,-1.932005
5.172000,-1.183581
5.173000,-0.960836
5.174000,-0.828461
5.175000,-0.699905
5.176000,-0.335876
5.177000,-0.281144
5.178000,-0.475887
5.179000,-0.873010
5.180000,-1.147942
5.181000,-1.673620
5.182000,-2.540418
5.183000,-3.328299
5.184000,-3.992717
5.185000,-4.136546
5.186000,-3.234110
5.187000,-2.732615
5.188000,-2.190389
5.189000,-1.478877
5.190000,-0.903558
5.191000,-0.678267
5.192000,-0.680813
5.193000,-0.720271
5.194000,-1.010476
5.195000,-0.923924
5.196000,-0.577714
5.197000,-0.585351
5.198000,-0.792822
5.199000,-0.944289
5.200000,-0.652811
5.201000,-0.488616
5.202000,-0.710088
5.203000,-0.857736
5.204000,-1.047388
5.205000,-1.886183
5.206000,-2.167478
5.207000,-2.522598
5.208000,-2.736433
5.209000,-2.987181
5.210000,-2.917175
5.211000,-1.972735
5.212000,-1.095756
5.213000,-0.573895
5.214000,-0.540802
5.215000,-0.887011
5.216000,-1.131395
5.217000,-1.016840
5.218000,-0.983747
5.219000,-1.291771
5.220000,-1.949824
5.221000,-2.644790
5.222000,-2.853534
5.223000,-2.750435
5.224000,-2.563329
5.225000,-3.085189
5.226000,-2.735161
5.227000,-2.019830
5.228000,-1.811086
5.229000,-1.849271
5.230000,-1.534882
5.231000,-0.832280
5.232000,-0.410973
5.233000,-0.124586
5.234000,0.146526
5.235000,0.464734
5.236000,0.606018
5.237000,0.445642
5.238000,-0.119495
5.239000,-0.563713
5.240000,-0.651538
5.241000,-1.033387
5.242000,-1.475059
5.243000,-1.622707
5.244000,-1.895093
5.245000,-1.916731
5.246000,-1.075390
5.247000,-0.296418
5.248000,-0.113131
5.249000,-0.264598
5.250000,0.058701
5.251000,0.099432
5.252000,-0.200956
5.253000,-0.825916
5.254000,-1.592159
5.255000,-2.760617
5.256000,-4.433116
5.257000,-5.406831
5.258000,-5.591391
5.259000,-5.063167
5.260000,-4.243464
5.261000,-3.515405
5.262000,-3.334664
5.263000,-2.752980
5.264000,-1.836543
5.265000,-1.153033
5.266000,-0.634991
5.267000,-0.043125
5.268000,0.108342
5.269000,-0.071127
5.270000,-0.517891
5.271000,-0.633718
5.272000,-1.168307
5.273000,-1.933278
5.274000,-2.607878
5.275000,-3.189561
5.276000,-3.764880
5.277000,-3.371576
5.278000,-3.314298
5.279000,-2.597695
5.280000,-2.009648
5.281000,-1.467422
5.282000,-1.113575
5.283000,-1.056298
5.284000,-1.099574
5.285000,-0.748273
5.286000,-0.281144
5.287000,0.121070
5.288000,0.510556
5.289000,0.779123
5.290000,0.785487
5.291000,0.444369
5.292000,0.353998
5.293000,-0.007486
5.294000,-0.604443
5.295000,-0.963381
5.296000,-1.416509
5.297000,-2.026194
5.298000,-2.717341
5.299000,-3.221382
5.300000,-3.151376
5.301000,-2.760617
5.302000,-1.953643
5.303000,-1.589614
5.304000,-1.566703
5.305000,-1.394871
5.306000,-1.118667
5.307000,-0.732999
5.308000,-0.514072
5.309000,-0.399518
5.310000,-0.577714
5.311000,-0.536983
5.312000,-0.310419
5.313000,-0.048216
5.314000,-0.253142
5.315000,-0.605716
5.316000,-1.294317
5.317000,-2.072016
5.318000,-2.504778
5.319000,-3.356302
5.320000,-3.530679
5.321000,-3.101736
5.322000,-2.568420
5.323000,-2.700794
5.324000,-2.884082
5.325000,-2.134385
5.326000,-1.402508
5.327000,-1.384688
5.328000,-1.561611
5.329000,-1.173398
5.330000,-1.053752
5.331000,-1.094483
5.332000,-1.373233
5.333000,-1.749990
5.334000,-2.159841
5.335000,-2.957906
5.336000,-2.990999
5.337000,-2.951542
5.338000,-2.873899
5.339000,-2.854807
5.340000,-2.371131
5.341000,-0.935379
5.342000,0.325996
5.343000,0.952228
5.344000,1.390081
5.345000,1.676468
5.346000,1.704470
5.347000,1.424448
5.348000,1.000595
5.349000,0.406184
5.350000,-0.598079
5.351000,-1.713078
5.352000,-3.828522
5.353000,-5.182813
5.354000,-5.466654
5.355000,-4.295650
5.356000,-2.770800
5.357000,-1.961280
5.358000,-1.048661
5.359000,-0.041852
5.360000,0.357816
5.361000,0.317086
5.362000,0.174529
5.363000,0.058701
5.364000,-0.110585
5.365000,-0.155134
5.366000,-0.368970
5.367000,-0.734272
5.368000,-1.266315
5.369000,-2.186571
5.370000,-3.570137
5.371000,-4.785690
5.372000,-4.947339
5.373000,-4.673681
5.374000,-4.354200
5.375000,-4.780598
5.376000,-4.289286
5.377000,-3.596867
5.378000,-2.112747
5.379000,-1.081754
5.380000,-0.519164
5.381000,-0.260779
5.382000,-0.039307
5.383000,0.091795
5.384000,0.089249
5.385000,-0.259506
5.386000,-0.782639
5.387000,-1.144123
5.388000,-1.902730
5.389000,-2.509870
5.390000,-2.593876
5.391000,-1.937096
5.392000,-1.071572
5.393000,-0.692268
5.394000,-0.325693
5.395000,-0.146224
5.396000,-0.022760
5.397000,-0.269689
5.398000,-0.743182
5.399000,-1.005385
5.400000,-0.983747
5.401000,-1.234494
5.402000,-2.022376
5.403000,-2.462775
5.404000,-2.318945
5.405000,-1.886183
5.406000,-1.686349
5.407000,-1.752536
5.408000,-1.845452
5.409000,-1.785629
5.410000,-1.724534
5.411000,-1.439420
5.412000,-1.140305
5.413000,-0.913741
5.414000,-0.409700
5.415000,-0.026578
5.416000,0.191076
5.417000,0.444369
5.418000,0.651840
5.419000,0.466007
5.420000,-0.100403
5.421000,-0.328239
5.422000,-0.044398
5.423000,0.259808
5.424000,-0.227686
5.425000,-1.377051
5.426000,-2.269305
5.427000,-2.885355
5.428000,-3.879435
5.429000,-4.070359
5.430000,-3.642688
5.431000,-2.821713
5.432000,-1.900184
5.433000,-1.692713
5.434000,-1.560339
5.435000,-1.570521
5.436000,-1.883637
5.437000,-1.686349
5.438000,-1.641800
5.439000,-2.074562
5.440000,-3.097917
5.441000,-4.281649
5.442000,-4.929519
5.443000,-4.905336
5.444000,-4.160730
5.445000,-3.017729
5.446000,-1.937096
5.447000,-0.866646
5.448000,-0.343513
5.449000,-0.106767
5.450000,-0.044398
5.451000,-0.226413
5.452000,-0.637537
5.453000,-0.503890
5.454000,-0.283690
5.455000,-0.213684
5.456000,-0.645174
5.457000,-1.318501
5.458000,-1.993101
5.459000,-2.293489
5.460000,-2.411862
5.461000,-2.354584
5.462000,-2.061834
5.463000,-1.719442
5.464000,-1.398689
5.465000,-1.648164
5.466000,-1.604888
5.467000,-0.971018
5.468000,-0.362606
5.469000,0.593290
5.470000,0.942045
5.471000,0.648022
5.472000,0.123616
5.473000,-0.707542
5.474000,-1.882365
5.475000,-3.110645
5.476000,-3.768699
5.477000,-4.454754
5.478000,-3.837431
5.479000,-3.006273
5.480000,-2.406770
5.481000,-1.986737
5.482000,-1.643072
5.483000,-1.111030
5.484000,-0.927742
5.485000,-0.740636
5.486000,-0.437702
5.487000,-0.011304
5.488000,-0.245505
5.489000,-0.651538
5.490000,-0.213684
5.491000,-0.459341
5.492000,-0.265870
5.493000,0.427822
5.494000,0.718027
5.495000,0.742211
5.496000,0.261081
5.497000,-0.575168
5.498000,-1.523426
5.499000,-2.148386
5.500000,-2.036377
5.501000,-2.250212
5.502000,-2.546782
5.503000,-2.889173
5.504000,-3.581593
5.505000,-3.866706
5.506000,-3.185742
5.507000,-2.579875
5.508000,-1.972735
5.509000,-1.389779
5.510000,-1.186127
5.511000,-1.388506
5.512000,-1.407599
5.513000,-1.463603
5.514000,-1.514517
5.515000,-1.590886
5.516000,-1.195036
5.517000,-1.281589
5.518000,-1.412690
5.519000,-1.916731
5.520000,-2.200572
5.521000,-2.153477
5.522000,-2.428409
5.523000,-2.831896
5.524000,-3.087735
5.525000,-2.750435
5.526000,-1.744899
5.527000,-0.915014
5.528000,-0.311692
5.529000,-0.250596
5.530000,-0.664266
5.531000,-1.074117
5.532000,-1.739808
5.533000,-2.064379
5.534000,-1.576885
5.535000,-1.397416
5.536000,-1.613797
5.537000,-0.837371
5.538000,-0.013850
5.539000,0.254717
5.540000,0.208895
5.541000,-0.217503
5.542000,-0.451704
5.543000,-0.682086
5.544000,-1.076663
5.545000,-1.814905
5.546000,-2.143295
5.547000,-1.854362
5.548000,-1.727079
5.549000,-2.068198
5.550000,-1.916731
5.551000,-2.114020
5.552000,-2.254031
5.553000,-2.395315
5.554000,-2.877718
5.555000,-3.190834
5.556000,-3.143739
5.557000,-2.698249
5.558000,-2.444955
5.559000,-2.126748
5.560000,-1.650709
5.561000,-1.273952
5.562000,-1.159397
5.563000,-0.772457
5.564000,-0.407155
5.565000,-0.137315
5.566000,0.137617
5.567000,0.308176
5.568000,0.384546
5.569000,0.101977
5.570000,-0.634991
5.571000,-0.704997
5.572000,-1.305773
5.573000,-1.342685
5.574000,-1.200128
5.575000,-1.350322
5.576000,-1.933278
5.577000,-2.719887
5.578000,-2.794984
5.579000,-2.848442
5.580000,-2.630789
5.581000,-2.504778
5.582000,-2.250212
5.583000,-1.790721
5.584000,-1.499243
5.585000,-1.438147
5.586000,-1.510698
5.587000,-1.682530
5.588000,-2.292216
5.589000,-2.334219
5.590000,-2.219664
5.591000,-2.217119
5.592000,-2.178934
5.593000,-1.172125
5.594000,-0.357514
5.595000,-0.053308
5.596000,-0.029124
5.597000,0.536012
5.598000,1.070601
5.599000,1.186429
5.600000,0.546195
5.601000,-0.198410
5.602000,-0.679540
5.603000,-1.657074
5.604000,-2.548055
5.605000,-2.779710
5.606000,-2.774618
5.607000,-2.296034
5.608000,-2.004556
5.609000,-2.181480
5.610000,-1.962553
5.611000,-1.730898
5.612000,-1.467422
5.613000,-1.256132
5.614000,-1.271406
5.615000,-1.760173
5.616000,-2.105110
5.617000,-2.894264
5.618000,-3.381758
5.619000,-2.970634
5.620000,-2.750435
5.621000,-2.514961
5.622000,-2.073289
5.623000,-1.772901
5.624000,-1.888729
5.625000,-2.268032
5.626000,-2.372404
5.627000,-2.133112
5.628000,-1.942188
5.629000,-1.667256
5.630000,-1.482696
5.631000,-1.186127
5.632000,-0.786458
5.633000,-0.291327
5.634000,-0.197138
5.635000,-0.545893
5.636000,-0.343513
5.637000,-0.338422
5.638000,-0.256961
5.639000,-0.396972
5.640000,-0.954471
5.641000,-1.394871
5.642000,-1.795812
5.643000,-2.278215
5.644000,-2.735161
5.645000,-3.371576
5.646000,-3.458128
5.647000,-3.090280
5.648000,-2.934995
5.649000,-2.360949
5.650000,-1.622707
5.651000,-1.242131
5.652000,-0.727908
5.653000,-0.376607
5.654000,-0.043125
5.655000,0.396001
5.656000,0.893678
5.657000,1.158426
5.658000,1.222068
5.659000,0.790578
5.660000,0.583107
5.661000,0.502919
5.662000,0.454551
5.663000,0.309449
5.664000,-0.175499
5.665000,-1.113575
5.666000,-2.395315
5.667000,-4.029629
5.668000,-5.411922
5.669000,-6.139981
5.670000,-5.503566
5.671000,-4.930792
5.672000,-4.195097
5.673000,-3.810702
5.674000,-3.543408
5.675000,-2.927358
5.676000,-2.541690
5.677000,-2.218392
5.678000,-1.842907
5.679000,-1.478877
5.680000,-1.196309
5.681000,-0.726635
5.682000,-0.358787
5.683000,-0.200956
5.684000,-0.199683
5.685000,-0.132223
5.686000,-0.209866
5.687000,-0.478433
5.688000,-0.535710
5.689000,-0.214957
5.690000,-0.241687
5.691000,-0.610807
5.692000,-0.843735
5.693000,-0.990111
5.694000,-1.081754
5.695000,-0.867919
5.696000,-1.147942
5.697000,-1.212856
5.698000,-1.084300
5.699000,-0.687177
5.700000,-0.102948
5.701000,0.174529
5.702000,-0.025306
5.703000,-0.365151
5.704000,-0.548439
5.705000,-0.349877
5.706000,-0.316784
5.707000,-0.803005
5.708000,-1.441965
5.709000,-1.918004
5.710000,-2.278215
5.711000,-2.890446
5.712000,-2.429681
5.713000,-1.645618
5.714000,-1.599796
5.715000,-2.018557
5.716000,-2.245121
5.717000,-2.114020
5.718000,-2.003283
5.719000,-2.112747
5.720000,-2.415680
5.721000,-2.191662
5.722000,-2.334219
5.723000,-3.380485
5.724000,-4.433116
5.725000,-4.470028
5.726000,-4.370747
5.727000,-4.251101
5.728000,-3.635051
5.729000,-3.299024
5.730000,-2.581148
5.731000,-1.819996
5.732000,-1.158124
5.733000,-0.704997
5.734000,-0.160226
5.735000,0.049791
5.736000,-0.094038
5.737000,-0.696087
5.738000,-0.954471
5.739000,-0.879374
5.740000,-1.025750
5.741000,-1.323592
5.742000,-1.252314
5.743000,-0.931561
5.744000,-0.683359
5.745000,-0.716452
5.746000,-0.986292
5.747000,-0.969745
5.748000,-1.111030
5.749000,-0.912468
5.750000,-0.908650
5.751000,-1.137759
5.752000,-0.446612
5.753000,-0.008759
5.754000,0.126161
5.755000,0.276355
5.756000,0.362908
5.757000,0.123616
5.758000,-0.521709
5.759000,-1.155579
5.760000,-1.896366
5.761000,-3.035548
5.762000,-3.717785
5.763000,-3.039367
5.764000,-2.238757
5.765000,-1.948552
5.766000,-1.625253
5.767000,-1.328683
5.768000,-0.599352
5.769000,-0.081310
5.770000,0.296720
5.771000,-0.058399
5.772000,-0.568804
5.773000,-0.951926
5.774000,-1.804722
5.775000,-2.783528
5.776000,-3.974897
5.777000,-4.130182
5.778000,-3.719058
5.779000,-3.212472
5.780000,-2.527689
5.781000,-2.038923
5.782000,-1.513244
5.783000,-1.021931
5.784000,-0.675722
5.785000,-0.577714
5.786000,-0.725362
5.787000,-1.212856
5.788000,-1.350322
5.789000,-1.968917
5.790000,-2.878990
5.791000,-3.072461
5.792000,-2.835714
5.793000,-2.420772
5.794000,-2.023649
5.795000,-1.847998
5.796000,-1.130122
5.797000,-0.701178
5.798000,-0.254415
5.799000,0.009061
5.800000,-0.124586
5.801000,-0.096584
5.802000,-0.486070
5.803000,-0.707542
5.804000,-0.929015
5.805000,-1.541246
5.806000,-1.793266
5.807000,-1.972735
5.808000,-2.257849
5.809000,-2.318945
5.810000,-2.829350
5.811000,-2.611696
5.812000,-1.958734
5.813000,-1.221766
5.814000,-0.825916
5.815000,-0.716452
5.816000,-0.713907
5.817000,-1.004112
5.818000,-1.216674
5.819000,-1.397416
5.820000,-1.216674
5.821000,-1.210310
5.822000,-1.256132
5.823000,-1.375778
5.824000,-1.398689
5.825000,-1.374505
5.826000,-1.295590
5.827000,-1.023204
5.828000,-0.973564
5.829000,-0.805550
5.830000,-0.997748
5.831000,-1.118667
5.832000,-1.262496
5.833000,-1.555247
5.834000,-2.008375
5.835000,-2.134385
5.836000,-2.293489
5.837000,-2.726251
5.838000,-2.773345
5.839000,-2.969361
5.840000,-2.919721
5.841000,-2.844624
5.842000,-2.764436
5.843000,-2.144567
5.844000,-1.340139
5.845000,-0.955744
5.846000,-0.688450
5.847000,-0.340967
5.848000,0.179620
5.849000,0.556378
5.850000,0.408729
5.851000,-0.144952
5.852000,-0.887011
5.853000,-1.758900
5.854000,-2.448774
5.855000,-3.156467
5.856000,-3.498859
5.857000,-2.735161
5.858000,-2.639698
5.859000,-2.517507
5.860000,-2.060561
5.861000,-1.861999
5.862000,-1.425419
5.863000,-1.336320
5.864000,-1.454694
5.865000,-1.536155
5.866000,-1.727079
5.867000,-1.555247
5.868000,-1.173398
5.869000,-1.021931
5.870000,-0.934106
5.871000,-0.752091
5.872000,-0.543347
5.873000,-0.516618
5.874000,-0.596806
5.875000,-0.776275
5.876000,-0.940470
5.877000,-1.132668
5.878000,-1.892547
5.879000,-1.951097
5.880000,-1.411417
5.881000,-1.076663
5.882000,-0.822097
5.883000,-0.254415
5.884000,-0.267143
5.885000,-0.062218
5.886000,-0.348604
5.887000,-1.318501
5.888000,-2.298580
5.889000,-2.130566
5.890000,-1.575612
5.891000,-1.111030
5.892000,-0.951926
5.893000,-1.155579
5.894000,-1.324865
5.895000,-1.270133
5.896000,-1.756354
5.897000,-1.920549
5.898000,-1.888729
5.899000,-1.621434
5.900000,-1.406326
5.901000,-1.014294
5.902000,-0.945562
5.903000,-0.761001
5.904000,-1.223039
5.905000,-1.825087
5.906000,-2.926085
5.907000,-3.519224
5.908000,-3.960896
5.909000,-3.385577
5.910000,-3.137375
5.911000,-2.783528
5.912000,-2.091109
5.913000,-1.631617
5.914000,-1.573067
5.915000,-1.741080
5.916000,-2.008375
5.917000,-2.044014
5.918000,-2.452592
5.919000,-3.108100
5.920000,-2.934995
5.921000,-2.079653
5.922000,-1.088119
5.923000,-0.514072
5.924000,-0.082583
5.925000,0.031972
5.926000,0.250899
5.927000,0.175802
5.928000,-0.132223
5.929000,-0.298964
5.930000,-0.711361
5.931000,-1.594705
5.932000,-1.957461
5.933000,-2.072016
5.934000,-2.364767
5.935000,-1.819996
5.936000,-1.091937
5.937000,-0.866646
5.938000,-0.937925
5.939000,-1.356686
5.940000,-1.625253
5.941000,-2.027467
5.942000,-2.301126
5.943000,-2.498414
5.944000,-2.204390
5.945000,-1.682530
5.946000,-1.021931
5.947000,-0.622263
5.948000,-0.409700
5.949000,-0.316784
5.950000,-0.568804
5.951000,-0.634991
5.952000,-0.605716
5.953000,-0.889557
5.954000,-1.257405
5.955000,-1.515789
5.956000,-1.651982
5.957000,-1.761446
5.958000,-1.986737
5.959000,-1.896366
5.960000,-1.632890
5.961000,-1.968917
5.962000,-2.385132
5.963000,-3.307934
5.964000,-3.523042
5.965000,-3.268476
5.966000,-3.341028
5.967000,-3.225200
5.968000,-2.830623
5.969000,-2.097473
5.970000,-1.556520
5.971000,-1.345230
5.972000,-1.011749
5.973000,-0.670630
5.974000,-0.507708
5.975000,-0.335876
5.976000,0.173256
5.977000,0.584380
5.978000,0.831309
5.979000,1.139334
5.980000,0.802034
5.981000,0.234352
5.982000,-0.348604
5.983000,-0.875556
5.984000,-1.637981
5.985000,-2.214573
5.986000,-2.283306
5.987000,-2.717341
5.988000,-2.892992
5.989000,-3.080098
5.990000,-3.236656
5.991000,-2.975725
5.992000,-2.052924
5.993000,-1.338866
5.994000,-0.903558
5.995000,-0.718998
5.996000,-0.792822
5.997000,-0.573895
5.998000,-0.516618
5.999000,-0.508981
6.000000,-0.721544
6.001000,-0.729181
6.002000,-0.683359
6.003000,-0.960836
6.004000,-1.214129
6.005000,-0.641355
6.006000,0.254717
6.007000,1.085875
6.008000,1.447359
6.009000,1.335350
6.010000,0.812217
6.011000,-0.433884
6.012000,-2.074562
6.013000,-4.356746
6.014000,-6.152709
6.015000,-7.286801
6.016000,-7.393718
6.017000,-6.683479
6.018000,-5.992333
6.019000,-5.022436
6.020000,-4.167094
6.021000,-3.377940
6.022000,-2.554419
6.023000,-2.134385
6.024000,-1.811086
6.025000,-1.286680
6.026000,-0.716452
6.027000,-0.367697
6.028000,-0.298964
6.029000,-0.228958
6.030000,-0.309147
6.031000,-0.612080
6.032000,-0.596806
6.033000,-0.623536
6.034000,-0.729181
6.035000,-0.973564
6.036000,-1.144123
6.037000,-0.786458
6.038000,-0.535710
6.039000,-0.704997
6.040000,-0.596806
6.041000,-0.554803
6.042000,-0.440248
6.043000,-0.281144
6.044000,-0.468250
6.045000,-0.521709
6.046000,-0.968473
6.047000,-0.878102
6.048000,-0.475887
6.049000,-0.348604
6.050000,-0.088947
6.051000,0.453279
6.052000,0.656931
6.053000,0.847856
6.054000,1.234796
6.055000,1.200430
6.056000,1.079511
6.057000,0.514374
6.058000,-0.073673
6.059000,-0.831007
6.060000,-1.864545
6.061000,-3.530679
6.062000,-5.228635
6.063000,-6.075066
6.064000,-6.706390
6.065000,-6.873131
6.066000,-6.273628
6.067000,-5.293549
6.068000,-4.204006
6.069000,-2.973180
6.070000,-1.999465
6.071000,-0.729181
6.072000,0.506737
6.073000,1.519910
6.074000,2.309065
6.075000,2.505080
6.076000,2.275971
6.077000,1.670104
6.078000,0.589471
6.079000,-0.664266
6.080000,-1.542519
6.081000,-2.931176
6.082000,-4.508213
6.083000,-5.143355
6.084000,-5.796317
6.085000,-5.275729
6.086000,-4.375838
6.087000,-2.947723
6.088000,-2.150932
6.089000,-1.770355
6.090000,-1.636708
6.091000,-1.445784
6.092000,-0.960836
6.093000,-0.603170
6.094000,-0.193319
6.095000,0.068884
6.096000,-0.186955
6.097000,0.005242
6.098000,-0.026578
6.099000,-0.334603
6.100000,-0.491161
6.101000,-0.398245
6.102000,-0.375334
6.103000,0.084158
6.104000,0.346361
6.105000,0.888586
6.106000,1.532638
6.107000,1.251343
6.108000,0.869494
6.109000,0.467280
6.110000,-0.622263
6.111000,-1.615070
6.112000,-3.105554
6.113000,-4.842967
6.114000,-6.245626
6.115000,-7.134061
6.116000,-7.871030
6.117000,-6.953319
6.118000,-5.837047
6.119000,-4.308378
6.120000,-3.180651
6.121000,-2.383860
6.122000,-1.886183
6.123000,-1.673620
6.124000,-1.735989
6.125000,-1.733443
6.126000,-1.406326
6.127000,-1.273952
6.128000,-1.119939
6.129000,-0.781367
6.130000,-0.516618
6.131000,-0.232777
6.132000,-0.054581
6.133000,0.033245
6.134000,0.210168
6.135000,0.271264
6.136000,0.289083
6.137000,0.137617
6.138000,0.247080
6.139000,0.212714
6.140000,-0.124586
6.141000,-0.342240
6.142000,-0.104221
6.143000,-0.342240
6.144000,-0.384244
6.145000,-0.245505
6.146000,-0.318056
6.147000,-0.892103
6.148000,-1.849271
6.149000,-2.152204
6.150000,-2.492050
6.151000,-2.805166
6.152000,-2.369858
6.153000,-1.938369
6.154000,-2.065652
6.155000,-1.995646
6.156000,-2.359676
6.157000,-2.382587
6.158000,-2.077107
6.159000,-1.587068
6.160000,-0.329512
6.161000,1.056600
6.162000,1.989584
6.163000,2.189419
6.164000,1.933580
6.165000,1.521183
6.166000,0.970047
6.167000,-0.101675
6.168000,-1.178490
6.169000,-2.448774
6.170000,-3.822157
6.171000,-5.389011
6.172000,-6.511647
6.173000,-6.529467
6.174000,-5.796317
6.175000,-4.443298
6.176000,-2.609150
6.177000,-1.408872
6.178000,-0.468250
6.179000,0.163073
6.180000,0.888586
6.181000,1.208067
6.182000,0.896223
6.183000,0.206349
6.184000,-0.562440
6.185000,-1.389779
6.186000,-2.278215
6.187000,-3.161559
6.188000,-3.162831
6.189000,-2.587512
6.190000,-2.564601
6.191000,-3.021547
6.192000,-3.201016
6.193000,-2.777164
6.194000,-2.264214
6.195000,-2.086017
6.196000,-2.126748
6.197000,-2.107655
6.198000,-2.228574
6.199000,-2.019830
6.200000,-1.458512
6.201000,-1.370687
6.202000,-1.420327
6.203000,-1.833997
6.204000,-2.369858
6.205000,-2.480595
6.206000,-2.625697
6.207000,-2.205663
6.208000,-1.858181
6.209000,-1.968917
6.210000,-1.878546
6.211000,-1.350322
6.212000,-0.987565
6.213000,-0.762274
6.214000,-0.436430
6.215000,-0.503890
6.216000,-0.577714
6.217000,-0.608262
6.218000,-0.662993
6.219000,-0.693541
6.220000,-0.665539
6.221000,-0.418610
6.222000,-0.615899
6.223000,-0.925196
6.224000,-1.354140
6.225000,-1.265042
6.226000,-1.720715
6.227000,-1.943460
6.228000,-1.340139
6.229000,-0.864101
6.230000,-0.651538
6.231000,-0.710088
6.232000,-1.014294
6.233000,-1.167034
6.234000,-0.881920
6.235000,-0.811914
6.236000,-1.131395
6.237000,-1.528518
6.238000,-1.315955
6.239000,-0.846281
6.240000,0.140162
6.241000,0.631475
6.242000,0.478735
6.243000,0.460915
6.244000,1.166063
6.245000,0.877131
6.246000,-0.012577
6.247000,-1.037205
6.248000,-2.363494
6.249000,-3.769971
6.250000,-4.644406
6.251000,-4.765324
6.252000,-4.552762
6.253000,-4.006718
6.254000,-3.585411
6.255000,-3.015183
6.256000,-3.103008
6.257000,-3.073733
6.258000,-2.652427
6.259000,-2.060561
6.260000,-1.952370
6.261000,-1.543792
6.262000,-1.146669
6.263000,-0.766093
6.264000,-0.657902
6.265000,-1.107211
6.266000,-1.653255
6.267000,-1.846725
6.268000,-1.856908
6.269000,-1.980372
6.270000,-1.665983
6.271000,-1.021931
6.272000,-0.552257
6.273000,-0.405882
6.274000,-0.394426
6.275000,-0.767365
6.276000,-1.347776
6.277000,-1.990555
6.278000,-2.082199
6.279000,-1.776720
6.280000,-2.125475
6.281000,-2.302398
6.282000,-2.218392
6.283000,-2.278215
6.284000,-2.016012
6.285000,-1.336320
6.286000,-0.920105
6.287000,-1.102120
6.288000,-1.230676
6.289000,-1.107211
6.290000,-1.259951
6.291000,-1.651982
6.292000,-1.988009
6.293000,-2.035104
6.294000,-2.112747
6.295000,-2.004556
6.296000,-1.730898
6.297000,-1.313410
6.298000,-1.090664
6.299000,-0.847554
6.300000,-0.446612
6.301000,-0.671903
6.302000,-0.543347
6.303000,-0.050762
6.304000,0.546195
6.305000,0.628929
6.306000,0.690025
6.307000,0.886041
6.308000,0.786760
6.309000,0.795670
6.310000,0.536012
6.311000,0.343815
6.312000,0.003970
6.313000,-0.619717
6.314000,-1.864545
6.315000,-2.864989
6.316000,-2.931176
6.317000,-2.938813
6.318000,-3.330845
6.319000,-3.089007
6.320000,-3.607049
6.321000,-3.516678
6.322000,-2.863716
6.323000,-2.229847
6.324000,-2.433500
6.325000,-2.182752
6.326000,-2.114020
6.327000,-2.334219
6.328000,-2.350766
6.329000,-2.638426
6.330000,-3.069915
6.331000,-3.731786
6.332000,-3.853978
6.333000,-3.960896
6.334000,-3.423762
6.335000,-2.698249
