2131.0,2107.0,0.119385,-29.0,
2102.0,2066.0,0.119015,-29.0,
2115.0,2096.0,0,-29.0,
2124.0,2118.0,0,-29.0,
2134.0,2147.0,0,-29.0,
2103.0,2119.0,0,-29.0,
2074.0,2110.0,0,-29.0,
2067.0,2099.0,0,-29.0,
2112.0,2097.0,0,-29.0,
2094.0,2041.0,0,-29.0,
2085.0,2097.0,0,-29.0,
2160.0,2103.0,0,-29.0,
2155.0,2131.0,0.119345,-29.0,
2131.0,2149.0,0.11908,-29.0,
2149.0,2115.0,0.1191,-29.0,
2133.0,2126.0,0.119,-29.0,
2232.0,2136.0,0.118225,-29.0,
2206.0,2076.0,0.11803,-29.0,
2147.0,2031.0,0.11832,-29.0,
2158.0,2068.0,0.11872,-29.0,
2154.0,2122.0,0.118765,-29.0,
2057.0,2099.0,0.11848,-29.0,
2058.0,2115.0,0.11833,-29.0,
2089.0,2105.0,0.118685,-29.0,
2024.0,2102.0,0,-29.0,
1995.0,2093.0,0,-29.0,
2083.0,2080.0,0,-29.0,
2176.0,2076.0,0,-29.0,
2144.0,2083.0,0,-30.0,
2193.0,2116.0,0,-30.0,
2135.0,2116.0,0,-30.0,
2102.0,2108.0,0,-30.0,
2072.0,2111.0,0,-30.0,
2115.0,2079.0,0,-30.0,
2165.0,2085.0,0,-30.0,
2172.0,2061.0,0,-30.0,
2131.0,2099.0,0,-30.0,
2161.0,2105.0,0,-30.0,
2155.0,2118.0,0,-30.0,
2098.0,2088.0,0,-30.0,
2043.0,2116.0,0,-30.0,
2059.0,2122.0,0,-30.0,
2114.0,2086.0,0,-30.0,
2062.0,2079.0,0,-30.0,
2032.0,2074.0,0,-30.0,
2006.0,2080.0,0,-30.0,
2208.0,2094.0,0,-30.0,
2226.0,2126.0,0,-29.0,
2229.0,2083.0,0,-29.0,
2176.0,2158.0,0,-29.0,
2151.0,2098.0,0,-29.0,
2101.0,2104.0,0,-29.0,
2059.0,2094.0,0,-29.0,
2044.0,2093.0,0,-29.0,
2050.0,2090.0,0,-29.0,
2140.0,2127.0,0,-29.0,
2121.0,2145.0,0,-29.0,
2120.0,2125.0,0,-29.0,
2110.0,2128.0,0,-29.0,
2117.0,2127.0,0,-29.0,
2147.0,2088.0,0,-29.0,
2081.0,2065.0,0,-29.0,
2010.0,2111.0,0,-29.0,
2058.0,2115.0,0,-29.0,
2243.0,2139.0,0,-29.0,
2189.0,2144.0,0,-29.0,
2137.0,2123.0,0,-29.0,
2180.0,2113.0,0,-29.0,
2189.0,2096.0,0,-29.0,
2186.0,2033.0,0,-29.0,
2122.0,2076.0,0,-29.0,
2085.0,2127.0,0,-29.0,
2043.0,2120.0,0,-29.0,
2030.0,2088.0,0,-29.0,
2124.0,2122.0,0,-29.0,
2056.0,2112.0,0,-29.0,
2140.0,2088.0,0,-29.0,
2171.0,2083.0,0,-29.0,
2130.0,2080.0,0,-29.0,
2094.0,2074.0,0,-29.0,
2130.0,2069.0,0.11877,-29.0,
2172.0,2117.0,0,-29.0,
2202.0,2099.0,0,-29.0,
2071.0,2101.0,0,-29.0,
2028.0,2110.0,0,-29.0,
2080.0,2132.0,0.118725,-29.0,
2134.0,2072.0,0.11859,-29.0,
2135.0,2097.0,0.11874,-29.0,
2143.0,2101.0,0,-29.0,
2147.0,2112.0,0,-29.0,
2167.0,2132.0,0,-29.0,
2148.0,2121.0,0,-29.0,
2146.0,2126.0,0,-29.0,
2146.0,2110.0,0,-29.0,
2112.0,2090.0,0,-29.0,
2040.0,2085.0,0,-29.0,
2057.0,2089.0,0,-29.0,
2086.0,2108.0,0,-29.0,
2094.0,2099.0,0,-29.0,
2031.0,2125.0,0,-30.0,
2116.0,2108.0,0,-30.0,
2162.0,2105.0,0.119085,-30.0,
2173.0,2097.0,0.117985,-30.0,
2226.0,2099.0,0.11844,-29.0,
2133.0,2057.0,0.118455,-29.0,
2125.0,2073.0,0,-29.0,
2135.0,2067.0,0,-29.0,
2139.0,2099.0,0,-29.0,
2116.0,2111.0,0,-29.0,
2106.0,2115.0,0,-29.0,
2093.0,2114.0,0,-29.0,
2133.0,2077.0,0,-29.0,
2119.0,2063.0,0,-29.0,
2110.0,2045.0,0,-29.0,
2160.0,2097.0,0,-29.0,
2112.0,2146.0,0,-29.0,
2061.0,2130.0,0,-29.0,
2111.0,2107.0,0,-29.0,
2277.0,2109.0,0,-29.0,
2104.0,2113.0,0,-29.0,
2098.0,2085.0,0,-29.0,
2117.0,2114.0,0,-29.0,
2153.0,2101.0,0,-29.0,
2153.0,2056.0,0,-29.0,
2104.0,2102.0,0,-29.0,
2053.0,2125.0,0,-29.0,
2096.0,2140.0,0,-29.0,
2111.0,2132.0,0,-29.0,
2109.0,2103.0,0,-29.0,
2119.0,2089.0,0.118685,-29.0,
2133.0,2069.0,0.11802,-29.0,
2168.0,2089.0,0,-29.0,
2146.0,2078.0,0,-29.0,
2105.0,2097.0,0,-29.0,
2124.0,2161.0,0,-29.0,
2205.0,2122.0,0,-29.0,
2130.0,2123.0,0.117895,-29.0,
2112.0,2109.0,0,-29.0,
1971.0,2110.0,0,-29.0,
2097.0,2092.0,0,-29.0,
2095.0,2077.0,0,-29.0,
2109.0,2103.0,0,-29.0,
2126.0,2109.0,0,-29.0,
2088.0,2113.0,0.118295,-29.0,
2069.0,2091.0,0,-29.0,
2084.0,2105.0,0,-29.0,
2117.0,2106.0,0,-29.0,
2154.0,2115.0,0,-29.0,
2148.0,2127.0,0,-29.0,
2147.0,2081.0,0,-29.0,
2087.0,2076.0,0.1186,-29.0,
2142.0,2136.0,0,-29.0,
2073.0,2107.0,0,-29.0,
2067.0,2101.0,0,-29.0,
2118.0,2101.0,0,-29.0,
2263.0,2062.0,0,-29.0,
2162.0,2083.0,0.11827,-29.0,
2211.0,2101.0,0,-29.0,
2163.0,2124.0,0,-29.0,
2112.0,2123.0,0,-29.0,
2090.0,2156.0,0,-29.0,
2156.0,2118.0,0.118385,-29.0,
2152.0,2098.0,0,-29.0,
2089.0,2077.0,0,-29.0,
2047.0,2060.0,0,-29.0,
2116.0,2102.0,0,-29.0,
2106.0,2092.0,0,-29.0,
2098.0,2125.0,0.11822,-29.0,
1982.0,2148.0,0,-29.0,
2064.0,2120.0,0,-29.0,
2100.0,2110.0,0,-29.0,
2183.0,2127.0,0,-29.0,
2238.0,2130.0,0.117825,-29.0,
2223.0,2104.0,0,-29.0,
2167.0,2096.0,0,-29.0,
2113.0,2097.0,0,-29.0,
2099.0,2131.0,0,-29.0,
2096.0,2124.0,0,-29.0,
2113.0,2094.0,0.118,-29.0,
2106.0,2133.0,0,-29.0,
2126.0,2101.0,0,-29.0,
2107.0,2080.0,0,-29.0,
2110.0,2063.0,0,-29.0,
2119.0,2110.0,0.117695,-29.0,
2117.0,2127.0,0,-29.0,
2096.0,2117.0,0,-29.0,
2142.0,2135.0,0,-29.0,
2101.0,2102.0,0,-29.0,
2115.0,2114.0,0.117405,-29.0,
2192.0,2099.0,0,-29.0,
2237.0,2073.0,0,-29.0,
2143.0,2094.0,0,-29.0,
2039.0,2105.0,0,-29.0,
2103.0,2131.0,0.11726,-29.0,
2105.0,2133.0,0,-29.0,
2159.0,2139.0,0,-29.0,
2025.0,2103.0,0,-29.0,
2042.0,2084.0,0,-29.0,
2072.0,2043.0,0,-29.0,
2088.0,2058.0,0,-29.0,
2144.0,2071.0,0,-29.0,
2094.0,2083.0,0,-29.0,
2054.0,2116.0,0,-29.0,
2046.0,2124.0,0.11748,-29.0,
2112.0,2094.0,0,-29.0,
2335.0,2094.0,0,-29.0,
2258.0,2064.0,0,-29.0,
2086.0,2065.0,0,-29.0,
2092.0,2067.0,0,-29.0,
2137.0,2080.0,0.11739,-29.0,
2232.0,2099.0,0,-29.0,
2162.0,2111.0,0,-29.0,
2116.0,2123.0,0,-29.0,
2069.0,2117.0,0,-29.0,
2068.0,2102.0,0.117055,-29.0,
2048.0,2101.0,0,-29.0,
2060.0,2107.0,0,-29.0,
2130.0,2090.0,0,-29.0,
2199.0,2065.0,0.11732,-29.0,
2204.0,2116.0,0,-29.0,
2127.0,2145.0,0,-29.0,
2028.0,2149.0,0,-29.0,
2013.0,2134.0,0.117115,-29.0,
2072.0,2118.0,0,-29.0,
2118.0,2069.0,0,-29.0,
2085.0,2013.0,0,-29.0,
2170.0,2035.0,0,-29.0,
2146.0,2098.0,0,-29.0,
2112.0,2118.0,0,-29.0,
2161.0,2141.0,0,-29.0,
2232.0,2115.0,0,-29.0,
2226.0,2107.0,0.117005,-29.0,
2147.0,2114.0,0,-29.0,
2080.0,2116.0,0,-29.0,
2093.0,2106.0,0,-29.0,
2116.0,2127.0,0,-29.0,
2160.0,2126.0,0,-29.0,
2230.0,2107.0,0.11726,-29.0,
2153.0,2097.0,0,-29.0,
2083.0,2097.0,0,-29.0,
2070.0,2128.0,0,-29.0,
2061.0,2085.0,0,-29.0,
2090.0,2107.0,0,-29.0,
2094.0,2114.0,0.11787,-29.0,
2118.0,2113.0,0,-29.0,
2147.0,2130.0,0,-29.0,
2153.0,2122.0,0,-29.0,
2171.0,2128.0,0.118095,-30.0,
2154.0,2073.0,0,-29.0,
2070.0,2077.0,0,-30.0,
2040.0,2130.0,0,-29.0,
2053.0,2108.0,0,-30.0,
2127.0,2142.0,0.117425,-30.0,
2217.0,2130.0,0,-30.0,
2132.0,2089.0,0,-29.0,
2107.0,2098.0,0,-29.0,
2035.0,2100.0,0,-29.0,
2094.0,2118.0,0,-29.0,
2116.0,2090.0,0,-29.0,
2039.0,2113.0,0,-29.0,
2071.0,2088.0,0,-29.0,
2160.0,2061.0,0.117165,-29.0,
2210.0,2114.0,0,-29.0,
2111.0,2115.0,0,-29.0,
2029.0,2140.0,0,-29.0,
2200.0,2124.0,0,-30.0,
2312.0,2120.0,0,-29.0,
2329.0,2098.0,0.11741,-29.0,
2138.0,2096.0,0,-29.0,
2018.0,2088.0,0,-29.0,
2052.0,2075.0,0,-29.0,
2106.0,2115.0,0.11754,-29.0,
2115.0,2094.0,0,-29.0,
2130.0,2067.0,0,-29.0,
2154.0,2072.0,0.117515,-29.0,
2159.0,2115.0,0,-29.0,
2078.0,2102.0,0,-29.0,
2078.0,2119.0,0,-29.0,
2074.0,2126.0,0,-29.0,
2019.0,2093.0,0,-29.0,
2092.0,2063.0,0,-29.0,
2101.0,2125.0,0,-29.0,
2113.0,2119.0,0,-29.0,
2097.0,2102.0,0.11742,-29.0,
2105.0,2078.0,0,-29.0,
2142.0,2098.0,0,-29.0,
2205.0,2101.0,0,-29.0,
2164.0,2121.0,0,-29.0,
2144.0,2116.0,0,-29.0,
2169.0,2118.0,0.11783,-29.0,
2100.0,2129.0,0,-29.0,
2076.0,2107.0,0,-29.0,
2149.0,2117.0,0,-29.0,
2138.0,2092.0,0,-29.0,
2100.0,2069.0,0.117945,-29.0,
2108.0,2111.0,0,-29.0,
2061.0,2125.0,0,-29.0,
2072.0,2120.0,0,-29.0,
2116.0,2122.0,0.118005,-29.0,
2105.0,2141.0,0,-29.0,
2093.0,2119.0,0,-29.0,
2100.0,2109.0,0,-29.0,
2060.0,2088.0,0,-29.0,
2206.0,2098.0,0,-29.0,
2245.0,2036.0,0,-29.0,
2145.0,2106.0,0,-29.0,
2171.0,2114.0,0,-29.0,
2227.0,2075.0,0,-29.0,
2189.0,2056.0,0.11848,-29.0,
2057.0,2077.0,0,-29.0,
2107.0,2069.0,0,-29.0,
2120.0,2095.0,0,-29.0,
2254.0,2133.0,0.118755,-29.0,
2272.0,2130.0,0,-29.0,
2156.0,2088.0,0,-29.0,
2060.0,2177.0,0,-29.0,
1998.0,2142.0,0,-29.0,
2030.0,2132.0,0.11929,-29.0,
2101.0,2164.0,0,-29.0,
2069.0,2047.0,0,-29.0,
2101.0,2031.0,0,-29.0,
2013.0,2118.0,0,-29.0,
1972.0,2090.0,0.11892,-29.0,
1931.0,2095.0,0,-29.0,
2007.0,2089.0,0,-29.0,
2035.0,2095.0,0,-29.0,
2119.0,1976.0,0,-29.0,
2120.0,2053.0,0,-29.0,
2202.0,2062.0,0,-29.0,
2251.0,2086.0,0,-29.0,
2263.0,2061.0,0,-29.0,
2214.0,2128.0,0.118495,-29.0,
2130.0,2121.0,0,-29.0,
2127.0,2118.0,0,-29.0,
2146.0,2124.0,0,-29.0,
2129.0,2116.0,0.118595,-29.0,
2139.0,2098.0,0,-29.0,
2145.0,2136.0,0,-29.0,
2159.0,2142.0,0,-29.0,
2149.0,2143.0,0,-29.0,
2108.0,2119.0,0,0,
2090.0,2110.0,0.11931,-29.0,
2140.0,2153.0,0,-29.0,
2179.0,2119.0,0,-29.0,
2254.0,2079.0,0,-29.0,
2206.0,2094.0,0.11944,-29.0,
2017.0,2099.0,0,-29.0,
2079.0,2120.0,0,-29.0,
2088.0,2152.0,0,-29.0,
2056.0,2117.0,0,-29.0,
2143.0,2129.0,0.12012,-29.0,
2109.0,2129.0,0,-29.0,
2007.0,2108.0,0,-29.0,
1984.0,2123.0,0,-29.0,
1991.0,2088.0,0,-29.0,
2066.0,2076.0,0,-29.0,
2230.0,2019.0,0,-29.0,
2250.0,2058.0,0,-29.0,
2218.0,2098.0,0,-29.0,
2264.0,2145.0,0,0,
2201.0,2190.0,0.120675,-29.0,
2163.0,2187.0,0,-29.0,
2026.0,2137.0,0,-29.0,
1842.0,2071.0,0,-29.0,
2004.0,2103.0,0.12129,-29.0,
2317.0,1975.0,0,-29.0,
2208.0,2068.0,0,-29.0,
2294.0,2031.0,0,-29.0,
2092.0,2038.0,0,-29.0,
2044.0,1993.0,0.12239,-29.0,
2073.0,2031.0,0,-29.0,
2149.0,2066.0,0,-29.0,
2094.0,2092.0,0,-29.0,
2198.0,2128.0,0,-29.0,
2203.0,2192.0,0,-30.0,
2022.0,2206.0,0,-30.0,
1986.0,2194.0,0,-30.0,
1975.0,2128.0,0.123095,-30.0,
1966.0,2073.0,0,-30.0,
2139.0,2078.0,0,-30.0,
2082.0,2053.0,0,-30.0,
2059.0,2057.0,0,-30.0,
2067.0,2069.0,0,-30.0,
2217.0,2100.0,0.1239,-30.0,
2308.0,2089.0,0,-30.0,
2293.0,2094.0,0,-30.0,
2191.0,2095.0,0,-30.0,
2123.0,2107.0,0.12532,-30.0,
2120.0,2103.0,0,-30.0,
2214.0,2120.0,0,-30.0,
2208.0,2148.0,0,-30.0,
2170.0,2133.0,0,-30.0,
2096.0,2112.0,0,-30.0,
2036.0,2135.0,0,-30.0,
2088.0,2105.0,0.127285,-30.0,
2106.0,2099.0,0,-30.0,
2106.0,2099.0,0,-30.0,
2162.0,2102.0,0.130115,-30.0,
2057.0,2124.0,0,-30.0,
2052.0,2122.0,0,-29.0,
2129.0,2126.0,0,-29.0,
2222.0,2094.0,0,-29.0,
2294.0,2120.0,0,-29.0,
2204.0,2118.0,0,-29.0,
2099.0,2103.0,0,-29.0,
2039.0,2113.0,0,-29.0,
2076.0,2105.0,0.133745,-29.0,
2123.0,2135.0,0,-29.0,
2065.0,2135.0,0,-29.0,
1966.0,2109.0,0,-29.0,
1906.0,2106.0,0,-29.0,
2002.0,2101.0,0.136705,-29.0,
2055.0,2125.0,0,-29.0,
2051.0,1904.0,0,-29.0,
2153.0,2005.0,0,-29.0,
2183.0,2035.0,0,-29.0,
2390.0,2038.0,0.138915,-29.0,
2327.0,2126.0,0,-29.0,
2146.0,2114.0,0,-29.0,
2016.0,2118.0,0,-29.0,
1941.0,2089.0,0.14167,-29.0,
2076.0,2094.0,0,-29.0,
2106.0,2118.0,0,-29.0,
2058.0,2113.0,0,-29.0,
2033.0,2160.0,0,0,
2137.0,2168.0,0,-29.0,
2256.0,2111.0,0,-29.0,
2257.0,2039.0,0,-29.0,
2277.0,2086.0,0,-29.0,
2083.0,2079.0,0.14418,-29.0,
2184.0,2111.0,0,-29.0,
2210.0,2178.0,0,-29.0,
2272.0,2136.0,0,-29.0,
2269.0,2104.0,0,-29.0,
2043.0,2047.0,0.14776,-29.0,
2054.0,1985.0,0,-29.0,
2020.0,2136.0,0,-29.0,
2049.0,2165.0,0,-29.0,
1984.0,2189.0,0.156235,-29.0,
2040.0,2228.0,0,-29.0,
2127.0,1944.0,0,-29.0,
2233.0,2059.0,0,-29.0,
2351.0,2219.0,0,-29.0,
1995.0,2142.0,0.168255,-29.0,
1962.0,2099.0,0,-29.0,
2167.0,2147.0,0,-29.0,
2110.0,2119.0,0,-30.0,
2019.0,2037.0,0,-30.0,
1983.0,2013.0,0,-30.0,
1976.0,2059.0,0,-30.0,
2183.0,2011.0,0,-30.0,
2127.0,2055.0,0,-30.0,
2002.0,2082.0,0.181705,-30.0,
2170.0,2107.0,0,-30.0,
2224.0,2123.0,0,-30.0,
2139.0,2083.0,0,-30.0,
1976.0,2123.0,0,-30.0,
2008.0,2124.0,0,-30.0,
2166.0,2105.0,0.193365,-30.0,
2346.0,2135.0,0,-30.0,
2231.0,2105.0,0,-30.0,
2110.0,2092.0,0,0,
2104.0,2080.0,0.200425,-30.0,
2167.0,2114.0,0,-30.0,
2162.0,2142.0,0,-30.0,
1878.0,2157.0,0,-30.0,
1939.0,2174.0,0,-29.0,
2117.0,2136.0,0.203695,-29.0,
2366.0,2068.0,0,-29.0,
2255.0,1989.0,0,-29.0,
2180.0,2106.0,0,-28.0,
2091.0,2178.0,0,-28.0,
2116.0,2107.0,0,-27.0,
2147.0,2116.0,0,-27.0,
2179.0,2096.0,0,-26.0,
2088.0,2071.0,0,-26.0,
2063.0,2061.0,0.203755,-26.0,
1992.0,2130.0,0,-25.0,
1985.0,2149.0,0,-25.0,
2142.0,2184.0,0,-25.0,
2218.0,2133.0,0.20464,-25.0,
2225.0,2099.0,0,-25.0,
2153.0,2029.0,0,-25.0,
2285.0,2073.0,0,-25.0,
2190.0,2066.0,0,-26.0,
2152.0,2056.0,0,-26.0,
2113.0,2129.0,0.208705,-26.0,
2012.0,2205.0,0,-27.0,
2046.0,2140.0,0,-27.0,
2125.0,2083.0,0.215135,-28.0,
2138.0,2092.0,0,-28.0,
2181.0,2213.0,0,-29.0,
2254.0,2259.0,0,-29.0,
2077.0,2011.0,0,-29.0,
1836.0,2032.0,0,-29.0,
1925.0,1954.0,0,-29.0,
1946.0,2040.0,0,-30.0,
1947.0,2074.0,0,-30.0,
2076.0,2148.0,0,-30.0,
2070.0,2114.0,0.224305,-31.0,
2114.0,2075.0,0,-31.0,
2179.0,2136.0,0,-31.0,
2215.0,1975.0,0,-31.0,
2261.0,2042.0,0,-31.0,
2228.0,2092.0,0.23621,-31.0,
2060.0,2096.0,0,-31.0,
2004.0,2132.0,0,-31.0,
2065.0,2106.0,0,-31.0,
2149.0,2129.0,0,-32.0,
2060.0,1970.0,0,-32.0,
2093.0,2046.0,0.25167,-32.0,
2233.0,2197.0,0,-32.0,
2260.0,2155.0,0,-32.0,
2331.0,2193.0,0,-33.0,
2252.0,2130.0,0,-33.0,
2139.0,2101.0,0.26744,-33.0,
2129.0,2130.0,0,-33.0,
2018.0,2125.0,0,-33.0,
2119.0,2136.0,0,-33.0,
2239.0,2158.0,0.281995,-32.0,
2131.0,2104.0,0,-32.0,
2075.0,2078.0,0,-32.0,
2030.0,2145.0,0,-32.0,
2151.0,2071.0,0,-31.0,
2160.0,2081.0,0,-31.0,
2210.0,2066.0,0,-31.0,
2163.0,2046.0,0.295035,-31.0,
2163.0,2077.0,0,-32.0,
2142.0,2100.0,0,-32.0,
2165.0,2149.0,0,-32.0,
2145.0,2139.0,0.304495,-32.0,
1982.0,2136.0,0,-33.0,
1903.0,2151.0,0,-33.0,
1948.0,2191.0,0,-33.0,
2191.0,2129.0,0,-34.0,
2196.0,2043.0,0,-34.0,
2182.0,2001.0,0.310005,-34.0,
2020.0,1964.0,0,-34.0,
1998.0,2015.0,0,-34.0,
2016.0,2077.0,0,-34.0,
1929.0,2095.0,0,-34.0,
2066.0,2148.0,0,-33.0,
2056.0,2111.0,0,-33.0,
2241.0,2094.0,0,-33.0,
2395.0,2078.0,0,-33.0,
2295.0,2100.0,0.312585,-33.0,
2112.0,2117.0,0,-32.0,
2054.0,2181.0,0,-32.0,
2105.0,2183.0,0,-32.0,
2128.0,2166.0,0.31414,-32.0,
2044.0,2135.0,0,-32.0,
2091.0,2054.0,0,-32.0,
2041.0,2091.0,0,-31.0,
1965.0,2106.0,0,-31.0,
2064.0,2160.0,0,-31.0,
2119.0,2226.0,0.315405,-31.0,
2207.0,2191.0,0,-31.0,
2258.0,2184.0,0,-31.0,
2341.0,2066.0,0,-31.0,
2190.0,2006.0,0,-31.0,
2091.0,2060.0,0,-31.0,
2154.0,2142.0,0.315435,-31.0,
1976.0,2055.0,0,-31.0,
2061.0,1969.0,0,-31.0,
2009.0,2064.0,0.31412,-31.0,
2035.0,2128.0,0,-31.0,
1903.0,2202.0,0,-31.0,
2076.0,2015.0,0,-31.0,
2111.0,1919.0,0,-31.0,
2189.0,2011.0,0,-31.0,
2378.0,2049.0,0,-31.0,
2360.0,2152.0,0,-31.0,
2200.0,2155.0,0,-32.0,
2128.0,2149.0,0,-32.0,
2083.0,2164.0,0.31412,-32.0,
2158.0,2143.0,0,-32.0,
2168.0,2156.0,0,-33.0,
2173.0,2108.0,0,-33.0,
2102.0,2082.0,0,-33.0,
2096.0,2124.0,0.316545,-33.0,
2083.0,2134.0,0,-33.0,
2103.0,2187.0,0,-33.0,
2070.0,2146.0,0,-32.0,
2095.0,2130.0,0.32348,-32.0,
2104.0,2099.0,0,-32.0,
2115.0,2072.0,0,-32.0,
2123.0,2062.0,0,-31.0,
2131.0,2052.0,0,-31.0,
2143.0,2069.0,0,-31.0,
2154.0,2067.0,0.331465,-30.0,
2149.0,2068.0,0,-30.0,
2154.0,2121.0,0,-30.0,
2051.0,2151.0,0.33746,-30.0,
1893.0,2163.0,0,-30.0,
1868.0,2099.0,0,-30.0,
2024.0,2181.0,0,-30.0,
2072.0,2103.0,0,-30.0,
2280.0,1960.0,0,-30.0,
2271.0,2127.0,0,-30.0,
2307.0,2140.0,0,-30.0,
2177.0,2078.0,0,-30.0,
2025.0,2073.0,0,-30.0,
2040.0,2014.0,0,-30.0,
2054.0,2077.0,0.341415,-30.0,
2157.0,2063.0,0.34143,-30.0,
2029.0,2056.0,0.3401,-30.0,
2104.0,2140.0,0.338655,-30.0,
2196.0,2180.0,0,-30.0,
1888.0,2051.0,0,-30.0,
2092.0,2205.0,0,-29.0,
2034.0,2139.0,0,-29.0,
2107.0,1976.0,0,-29.0,
2205.0,2062.0,0,-29.0,
2218.0,2047.0,0,-29.0,
2262.0,2086.0,0,-29.0,
2137.0,2138.0,0,-29.0,
2199.0,2131.0,0,-30.0,
2160.0,2137.0,0,-30.0,
2136.0,2091.0,0,-30.0,
2146.0,2100.0,0,-30.0,
2160.0,2122.0,0,-30.0,
2111.0,2119.0,0,-31.0,
2124.0,2181.0,0,-31.0,
2160.0,2160.0,0,-31.0,
2115.0,2119.0,0,-31.0,
2067.0,2093.0,0.335965,-32.0,
2085.0,2150.0,0,-32.0,
2074.0,2145.0,0,-32.0,
2119.0,2139.0,0.332835,-32.0,
2143.0,2139.0,0,-32.0,
2130.0,2167.0,0,-32.0,
2105.0,2157.0,0,-32.0,
2144.0,2137.0,0,-32.0,
2141.0,2082.0,0.329365,-32.0,
2079.0,2076.0,0,-32.0,
2067.0,2083.0,0,-32.0,
2147.0,2102.0,0,-32.0,
2163.0,2122.0,0,-32.0,
2214.0,2108.0,0,-32.0,
2214.0,2102.0,0.325735,-32.0,
2132.0,2043.0,0,-32.0,
2145.0,2090.0,0,-32.0,
2107.0,2031.0,0,-32.0,
1973.0,2061.0,0,-32.0,
2027.0,2033.0,0,-31.0,
2089.0,2062.0,0,-31.0,
2080.0,2191.0,0,-31.0,
2036.0,2169.0,0,-31.0,
2046.0,2150.0,0,-31.0,
2100.0,2166.0,0.321195,-31.0,
2134.0,2181.0,0,-31.0,
2128.0,2122.0,0,-31.0,
2144.0,2094.0,0,-31.0,
2147.0,1999.0,0.31718,-32.0,
2120.0,1980.0,0,-32.0,
2080.0,2049.0,0,-32.0,
2117.0,2077.0,0,-32.0,
2205.0,2100.0,0,-32.0,
2178.0,2081.0,0,-32.0,
2173.0,2094.0,0.315105,-32.0,
2162.0,2119.0,0,-32.0,
2199.0,2134.0,0,-32.0,
2140.0,2127.0,0,-32.0,
2131.0,2087.0,0,-32.0,
2109.0,2090.0,0,-32.0,
2139.0,2128.0,0.31512,-32.0,
2085.0,2093.0,0,-32.0,
2087.0,2094.0,0,-32.0,
2150.0,2103.0,0,-31.0,
2224.0,2102.0,0.31535,-31.0,
2149.0,2102.0,0,-31.0,
2112.0,2119.0,0,-31.0,
2103.0,2144.0,0,-31.0,
2070.0,2104.0,0,-31.0,
2019.0,2073.0,0,-31.0,
2022.0,2054.0,0,-31.0,
2076.0,2084.0,0,-31.0,
2117.0,2091.0,0,-31.0,
2121.0,2132.0,0.314575,-31.0,
2030.0,2094.0,0,-31.0,
2103.0,2126.0,0,-31.0,
2167.0,2051.0,0,-31.0,
2216.0,2033.0,0,-30.0,
2352.0,2109.0,0.31293,-30.0,
2336.0,2140.0,0,-30.0,
2167.0,2196.0,0,-30.0,
2119.0,2158.0,0,-29.0,
2115.0,2152.0,0.31118,-29.0,
2001.0,2154.0,0,-29.0,
1980.0,2058.0,0,-29.0,
1991.0,2093.0,0,-28.0,
1953.0,1933.0,0,-28.0,
2086.0,2023.0,0,-28.0,
2141.0,2120.0,0,-28.0,
2121.0,2130.0,0,-28.0,
2083.0,2141.0,0.310755,-29.0,
2130.0,2116.0,0,-29.0,
2187.0,2100.0,0,-29.0,
2201.0,2122.0,0,-29.0,
2171.0,2112.0,0,-30.0,
2080.0,2137.0,0,-30.0,
2052.0,2084.0,0.31063,-30.0,
2224.0,2091.0,0,-30.0,
2141.0,2094.0,0,-30.0,
2132.0,2110.0,0.310565,-30.0,
2139.0,2148.0,0,-31.0,
2127.0,2117.0,0,-31.0,
2112.0,2087.0,0,-31.0,
2156.0,2087.0,0,-31.0,
2192.0,2117.0,0,-31.0,
2171.0,2118.0,0.309895,-31.0,
2156.0,2130.0,0,-30.0,
2106.0,2104.0,0,-31.0,
2074.0,2069.0,0,-30.0,
2061.0,2089.0,0,-30.0,
1989.0,2067.0,0,-30.0,
2080.0,2111.0,0.310065,-30.0,
2163.0,2120.0,0,-31.0,
2213.0,2155.0,0,-31.0,
2223.0,2085.0,0,-31.0,
1957.0,2067.0,0,-31.0,
2007.0,2021.0,0,-31.0,
2127.0,2077.0,0,-30.0,
2168.0,2149.0,0,-30.0,
2165.0,2222.0,0,-30.0,
2061.0,2231.0,0.310705,-30.0,
1927.0,2187.0,0,-30.0,
1990.0,2114.0,0,-29.0,
2145.0,2029.0,0,-29.0,
2438.0,1979.0,0,-29.0,
2276.0,2031.0,0.31057,-28.0,
2218.0,2128.0,0,-28.0,
2223.0,2134.0,0,-28.0,
2074.0,1974.0,0,-28.0,
2017.0,2042.0,0.309885,-28.0,
2069.0,2120.0,0,-28.0,
2127.0,2215.0,0,-28.0,
2185.0,2122.0,0,-28.0,
2220.0,2055.0,0,-28.0,
2049.0,2048.0,0,-28.0,
2100.0,2078.0,0,-28.0,
2122.0,2136.0,0,-28.0,
2104.0,2138.0,0.30955,-29.0,
2122.0,2093.0,0,-29.0,
2137.0,2113.0,0,-29.0,
2077.0,2139.0,0,-29.0,
2004.0,2078.0,0,-29.0,
2085.0,2168.0,0.31018,-30.0,
2148.0,2122.0,0,-30.0,
2086.0,2117.0,0,-30.0,
2096.0,2091.0,0,-30.0,
2138.0,2113.0,0,-30.0,
2104.0,2114.0,0.311455,-30.0,
2161.0,2133.0,0,-30.0,
2186.0,2119.0,0,-30.0,
2136.0,2131.0,0.312345,-30.0,
2117.0,2094.0,0,-30.0,
2085.0,2079.0,0,-30.0,
2028.0,2078.0,0,-30.0,
2141.0,2040.0,0,-30.0,
2263.0,2122.0,0,-30.0,
2234.0,2151.0,0,-30.0,
2126.0,2115.0,0,-29.0,
2024.0,2082.0,0,-29.0,
1996.0,2133.0,0,-29.0,
2105.0,2155.0,0.31239,-29.0,
2115.0,2188.0,0,-29.0,
1981.0,2172.0,0,-29.0,
2106.0,2093.0,0,-29.0,
2149.0,2059.0,0,-28.0,
2100.0,2001.0,0.311375,-28.0,
2151.0,2014.0,0,-28.0,
2042.0,2087.0,0,-28.0,
2152.0,2190.0,0,-27.0,
2117.0,2145.0,0,-27.0,
1951.0,2104.0,0.3101,-27.0,
2047.0,2051.0,0,-27.0,
2127.0,2069.0,0,-27.0,
2467.0,2051.0,0,-27.0,
2541.0,2036.0,0.310235,-27.0,
2074.0,2033.0,0,-27.0,
2037.0,2110.0,0,-27.0,
2101.0,2121.0,0,-28.0,
2041.0,2072.0,0,-28.0,
2077.0,2125.0,0,-28.0,
2122.0,2116.0,0,-28.0,
2145.0,2117.0,0,-28.0,
2123.0,2136.0,0,-28.0,
2109.0,2154.0,0.31331,-29.0,
2093.0,2153.0,0,-29.0,
1990.0,2184.0,0,-29.0,
2071.0,2145.0,0,-29.0,
2180.0,2018.0,0,-29.0,
2250.0,2108.0,0.31893,-29.0,
2216.0,2133.0,0,-29.0,
2060.0,2121.0,0,-30.0,
1975.0,2157.0,0,-30.0,
2074.0,2022.0,0,-30.0,
2203.0,1981.0,0.325065,-29.0,
2221.0,2009.0,0,-29.0,
2183.0,2053.0,0,-29.0,
2073.0,2177.0,0,-29.0,
2069.0,2119.0,0,-29.0,
1987.0,2182.0,0.33017,-29.0,
1973.0,2183.0,0,-29.0,
2028.0,2204.0,0,-28.0,
2186.0,2203.0,0,-28.0,
2285.0,2154.0,0,-28.0,
2375.0,2093.0,0,-28.0,
2269.0,2072.0,0,-28.0,
2141.0,2081.0,0,-28.0,
1871.0,2079.0,0,-28.0,
1896.0,2064.0,0.336515,-28.0,
2049.0,2083.0,0,-27.0,
2052.0,2118.0,0,-27.0,
2218.0,2051.0,0,-27.0,
2097.0,1995.0,0.343105,-27.0,
2262.0,2036.0,0,-27.0,
2144.0,2057.0,0,-28.0,
2083.0,2041.0,0,-28.0,
2059.0,2006.0,0,-28.0,
2043.0,2090.0,0,-28.0,
2180.0,2089.0,0.34792,-28.0,
2192.0,2158.0,0,-28.0,
2201.0,2138.0,0,-28.0,
2145.0,2204.0,0,-28.0,
2098.0,2170.0,0,-28.0,
2037.0,2173.0,0.35334,-28.0,
2072.0,2097.0,0,-29.0,
2091.0,2059.0,0,-29.0,
2147.0,2078.0,0,-29.0,
2114.0,2129.0,0,-29.0,
2107.0,2138.0,0.359845,-29.0,
2135.0,2088.0,0,-29.0,
2124.0,2052.0,0,-29.0,
2140.0,2093.0,0,-28.0,
2114.0,2110.0,0,-28.0,
2126.0,2137.0,0,-28.0,
2142.0,2119.0,0,-28.0,
2147.0,2094.0,0,-28.0,
2131.0,2099.0,0,-28.0,
2149.0,2088.0,0.36629,-28.0,
2149.0,2065.0,0,-28.0,
2126.0,2121.0,0,-28.0,
2158.0,2256.0,0,-28.0,
2081.0,2161.0,0,-28.0,
2041.0,2210.0,0.37282,-28.0,
2161.0,2135.0,0,-28.0,
2089.0,2048.0,0,-28.0,
2167.0,2059.0,0,-29.0,
2275.0,2069.0,0.379175,-29.0,
2272.0,2037.0,0,-29.0,
2128.0,2018.0,0,-29.0,
1931.0,2040.0,0,-29.0,
1855.0,2120.0,0,-29.0,
1949.0,2087.0,0.38527,-29.0,
2002.0,2058.0,0,-29.0,
2009.0,2031.0,0,-29.0,
1995.0,2078.0,0,-29.0,
2206.0,2041.0,0,-29.0,
2432.0,2113.0,0,-29.0,
2505.0,2170.0,0,-29.0,
2270.0,2180.0,0,-29.0,
2068.0,2176.0,0,-29.0,
2176.0,2169.0,0.38995,-29.0,
2112.0,2179.0,0,-28.0,
2156.0,2070.0,0,-28.0,
2168.0,2017.0,0,-28.0,
2073.0,1983.0,0,-28.0,
2075.0,2044.0,0.396295,-28.0,
2144.0,2092.0,0,-29.0,
2066.0,2071.0,0,-29.0,
2018.0,2166.0,0,-29.0,
2078.0,2211.0,0.405975,-29.0,
2046.0,2141.0,0,-29.0,
2064.0,2101.0,0,-29.0,
2070.0,2098.0,0,-29.0,
2134.0,2146.0,0,-29.0,
2161.0,2088.0,0,-29.0,
2118.0,2222.0,0.41679,-29.0,
2141.0,2301.0,0,-29.0,
2144.0,2207.0,0,-29.0,
2078.0,2002.0,0,-29.0,
2025.0,2090.0,0,-29.0,
1892.0,1976.0,0,-29.0,
1984.0,1976.0,0,-29.0,
2337.0,2090.0,0,-29.0,
2321.0,1957.0,0.428235,-29.0,
2254.0,2052.0,0,-29.0,
2153.0,2100.0,0,-29.0,
2057.0,2159.0,0,-29.0,
2042.0,2083.0,0.439975,-29.0,
2066.0,2108.0,0,-28.0,
2230.0,2180.0,0,-28.0,
2189.0,2182.0,0,-28.0,
2140.0,2233.0,0,-28.0,
2087.0,2089.0,0.455565,-28.0,
1950.0,1928.0,0,-28.0,
2114.0,1997.0,0,-28.0,
2254.0,2089.0,0,-28.0,
2501.0,2047.0,0,-28.0,
2300.0,2045.0,0.47751,-28.0,
2039.0,2030.0,0,-28.0,
1968.0,2207.0,0,-28.0,
1916.0,2200.0,0,-28.0,
1893.0,2219.0,0,-28.0,
1989.0,2055.0,0,-28.0,
1997.0,2044.0,0,-28.0,
1994.0,2268.0,0,-28.0,
2185.0,2265.0,0,-28.0,
2212.0,2120.0,0.50174,-28.0,
2294.0,2137.0,0,-28.0,
2083.0,2021.0,0,-28.0,
1941.0,1954.0,0,-27.0,
2100.0,1967.0,0,-27.0,
2463.0,2068.0,0.526025,-27.0,
2470.0,2221.0,0,-27.0,
2215.0,2290.0,0,-27.0,
1984.0,2140.0,0,-27.0,
1961.0,2115.0,0.54775,-28.0,
2011.0,2124.0,0,-28.0,
2092.0,2281.0,0,-28.0,
1963.0,2282.0,0,-28.0,
1955.0,2181.0,0,-28.0,
2162.0,2323.0,0,-29.0,
2189.0,2215.0,0,-29.0,
2274.0,2023.0,0,-29.0,
2028.0,1981.0,0,-29.0,
2164.0,1831.0,0.57153,-29.0,
2402.0,1817.0,0,-29.0,
2263.0,1684.0,0,-29.0,
2384.0,1764.0,0,-29.0,
2334.0,1828.0,0,-29.0,
1870.0,2021.0,0.60323,-29.0,
1833.0,2204.0,0,-29.0,
2106.0,2291.0,0,-29.0,
2217.0,2076.0,0,-29.0,
2314.0,2031.0,0,-29.0,
2282.0,2159.0,0.65365,-28.0,
2243.0,2098.0,0,-28.0,
2007.0,2181.0,0,-28.0,
1932.0,2249.0,0,-28.0,
1871.0,2344.0,0.73059,-28.0,
1679.0,2395.0,0,-28.0,
1630.0,2443.0,0,-28.0,
1850.0,2255.0,0,-28.0,
2168.0,2070.0,0,0,
2436.0,2031.0,0,-27.0,
2303.0,1949.0,0,-27.0,
2178.0,1908.0,0,-27.0,
2212.0,2135.0,0,-27.0,
2267.0,2238.0,0.82556,-26.0,
2395.0,2188.0,0,-26.0,
2352.0,2234.0,0,-26.0,
2316.0,2014.0,0,-25.0,
2075.0,1957.0,0,-25.0,
2080.0,2001.0,0.91935,-25.0,
2071.0,2112.0,0,-25.0,
1970.0,2249.0,0,-24.0,
1981.0,2329.0,0,-25.0,
2098.0,2120.0,0,-25.0,
2092.0,2157.0,0.99952,-25.0,
2155.0,2114.0,0,-25.0,
2167.0,2064.0,0,-25.0,
2103.0,1989.0,0,-26.0,
2160.0,1983.0,1.0684,-26.0,
2061.0,1878.0,0,-27.0,
2054.0,1958.0,0,-27.0,
2165.0,2031.0,0,-28.0,
2258.0,2013.0,0,-28.0,
2292.0,2039.0,0,-28.0,
2131.0,2160.0,0,-28.0,
2146.0,2210.0,0,-29.0,
2147.0,2179.0,0,-29.0,
2082.0,2120.0,1.124675,-29.0,
2022.0,2076.0,0,-29.0,
2116.0,2255.0,0,-28.0,
1937.0,2199.0,0,-28.0,
1725.0,2128.0,1.1768,-28.0,
1980.0,2123.0,0,-27.0,
2324.0,2074.0,0,-27.0,
2344.0,1956.0,0,-26.0,
2260.0,2079.0,0,-25.0,
2067.0,2278.0,1.228435,-25.0,
2081.0,2157.0,0,-25.0,
1977.0,2158.0,0,-25.0,
1954.0,1938.0,0,0,
2174.0,2183.0,1.28541,-25.0,
2230.0,2215.0,0,-25.0,
2325.0,2235.0,0,-26.0,
2381.0,2248.0,0,-26.0,
2077.0,2080.0,0,-27.0,
2071.0,1896.0,0,-27.0,
2223.0,2047.0,0,-28.0,
2206.0,2105.0,0,-28.0,
2037.0,1874.0,0,-28.0,
1875.0,1873.0,1.348805,-28.0,
2258.0,1955.0,0,-28.0,
2279.0,2179.0,0,-28.0,
2075.0,2210.0,0,-28.0,
2077.0,2390.0,0,-28.0,
2089.0,2340.0,0,-28.0,
2067.0,2264.0,1.41374,-28.0,
2107.0,2110.0,0,-28.0,
2113.0,2131.0,0,-28.0,
2033.0,2158.0,0,-28.0,
2046.0,2128.0,0,-28.0,
2022.0,1898.0,0,-28.0,
2074.0,1906.0,1.478715,-28.0,
2226.0,2008.0,0,-27.0,
2169.0,2171.0,0,-27.0,
2102.0,2225.0,0,-27.0,
2146.0,2204.0,1.537355,-27.0,
2148.0,2073.0,0,-27.0,
2108.0,1966.0,0,-26.0,
2210.0,2113.0,0,-26.0,
2110.0,1945.0,1.585185,-26.0,
2385.0,2242.0,0,-26.0,
2049.0,2240.0,0,-26.0,
2028.0,2323.0,0,-26.0,
2095.0,2417.0,0,0,
2132.0,2120.0,1.628295,-27.0,
2337.0,2115.0,0,-27.0,
2306.0,1964.0,0,-27.0,
1785.0,1786.0,0,-27.0,
1637.0,1982.0,0,-27.0,
1601.0,2250.0,0,-27.0,
2022.0,2234.0,0,-27.0,
2498.0,2045.0,0,-27.0,
2314.0,2043.0,0,-27.0,
2506.0,2171.0,1.669895,-27.0,
2293.0,2086.0,0,-27.0,
2072.0,2186.0,0,-27.0,
2040.0,2059.0,0,-27.0,
2066.0,2175.0,0,-27.0,
2301.0,2080.0,1.71325,-26.0,
2067.0,2009.0,0,-26.0,
2112.0,2121.0,0,-26.0,
2221.0,2118.0,0,-26.0,
2290.0,2225.0,0,-26.0,
1984.0,2198.0,0,-26.0,
1913.0,2037.0,0,-26.0,
2127.0,1915.0,0,-27.0,
2239.0,2104.0,0,-27.0,
2355.0,2226.0,1.75972,-27.0,
2108.0,2107.0,0,-27.0,
2085.0,1769.0,0,-27.0,
2113.0,2030.0,0,-27.0,
2034.0,2147.0,1.805905,-27.0,
2063.0,2224.0,0,-27.0,
2168.0,2153.0,0,-27.0,
2186.0,2119.0,0,-27.0,
2020.0,2239.0,0,-27.0,
1947.0,2178.0,1.847155,-27.0,
1952.0,2251.0,0,-27.0,
2105.0,2062.0,0,-27.0,
1953.0,2061.0,0,-27.0,
2201.0,1772.0,0,-27.0,
2227.0,1819.0,1.88712,-28.0,
2329.0,2274.0,0,-28.0,
2171.0,2349.0,0,-28.0,
1974.0,2341.0,0,-28.0,
2273.0,2225.0,0,-28.0,
2304.0,2068.0,0,-28.0,
2186.0,2230.0,0,-28.0,
1961.0,2269.0,0,-28.0,
1986.0,2369.0,0,-28.0,
1867.0,1974.0,1.929075,-28.0,
2090.0,2153.0,0,-28.0,
2007.0,1794.0,0,-28.0,
2343.0,2034.0,0,-28.0,
2395.0,2230.0,1.975205,-28.0,
2346.0,2049.0,0,-27.0,
2088.0,1875.0,0,-27.0,
2201.0,1995.0,0,-27.0,
2248.0,2105.0,0,-27.0,
1771.0,2012.0,2.026145,-27.0,
1814.0,2078.0,0,-27.0,
2080.0,2351.0,0,-26.0,
2106.0,2243.0,0,-26.0,
2120.0,2223.0,2.081325,-26.0,
2282.0,2205.0,0,-26.0,
2266.0,2000.0,0,-26.0,
2409.0,2178.0,0,-26.0,
2298.0,2023.0,0,-26.0,
1976.0,1976.0,0,-26.0,
1952.0,1855.0,0,-27.0,
2019.0,2057.0,0,-27.0,
1964.0,2246.0,0,-27.0,
1700.0,2147.0,0,-27.0,
1813.0,2263.0,2.13474,-27.0,
2238.0,1988.0,0,-27.0,
2740.0,1941.0,0,-27.0,
2678.0,2253.0,0,-27.0,
2358.0,2052.0,2.182895,-27.0,
1965.0,2136.0,0,-28.0,
1933.0,2206.0,0,-28.0,
1903.0,1976.0,0,-28.0,
2071.0,2362.0,0,-28.0,
2185.0,2194.0,2.22273,-28.0,
2170.0,1896.0,0,-28.0,
2076.0,1871.0,0,-28.0,
2057.0,2029.0,0,-28.0,
1730.0,2240.0,0,-29.0,
1719.0,2488.0,0,-29.0,
2106.0,2649.0,0,-29.0,
2273.0,2338.0,0,-29.0,
2383.0,1749.0,2.256115,-29.0,
2558.0,1952.0,0,-29.0,
2359.0,1908.0,0,-29.0,
1849.0,1965.0,0,-28.0,
1807.0,1892.0,0,-28.0,
2035.0,1994.0,0,-28.0,
2208.0,2022.0,2.291595,-28.0,
2336.0,2225.0,0,-28.0,
1886.0,2328.0,0,-28.0,
2409.0,2576.0,2.3327,-28.0,
2507.0,2109.0,0,-28.0,
2208.0,1919.0,0,-28.0,
2188.0,1945.0,0,-28.0,
2038.0,2058.0,0,-28.0,
2048.0,1999.0,0,-28.0,
2167.0,2132.0,0,-28.0,
1995.0,2030.0,0,-28.0,
2004.0,2059.0,0,-28.0,
1906.0,2248.0,2.379295,-28.0,
1879.0,2300.0,2.42635,-28.0,
2054.0,2018.0,0,-28.0,
2173.0,2138.0,0,-28.0,
2189.0,2124.0,0,-28.0,
2192.0,2387.0,0,-28.0,
2310.0,2000.0,0,-28.0,
2243.0,2161.0,0,-28.0,
2029.0,1890.0,0,-28.0,
1853.0,1830.0,0,-28.0,
1778.0,1952.0,0,-28.0,
2275.0,2192.0,2.467225,-28.0,
2377.0,2437.0,0,-28.0,
2341.0,2260.0,0,-28.0,
2317.0,2298.0,0,-28.0,
2096.0,2116.0,2.50234,-28.0,
2135.0,1991.0,0,-29.0,
2220.0,2045.0,0,-29.0,
2071.0,2037.0,0,-29.0,
2171.0,1777.0,0,-29.0,
2038.0,2214.0,2.54052,-29.0,
2019.0,2136.0,0,-29.0,
2120.0,1991.0,0,-29.0,
2129.0,1953.0,0,-29.0,
2086.0,1986.0,0,-29.0,
2053.0,2230.0,2.58649,-29.0,
1960.0,2356.0,0,-29.0,
1986.0,2174.0,0,-29.0,
2184.0,2215.0,0,-29.0,
2189.0,2091.0,0,-29.0,
2133.0,2241.0,0,-29.0,
2165.0,2327.0,0,-29.0,
2037.0,2053.0,0,-29.0,
2153.0,1896.0,0,-29.0,
2067.0,2070.0,0,-29.0,
2106.0,1838.0,0,-29.0,
2123.0,1911.0,0,-29.0,
2234.0,1872.0,0,-28.0,
2384.0,2099.0,0,-28.0,
2278.0,1997.0,0,-28.0,
2097.0,2290.0,2.68432,-28.0,
2187.0,2341.0,0,-28.0,
2212.0,2228.0,0,-28.0,
2350.0,2241.0,0,-28.0,
2094.0,2189.0,0,-28.0,
1707.0,2035.0,0,-28.0,
1865.0,2018.0,2.72121,-28.0,
1912.0,1942.0,0,-28.0,
2274.0,2275.0,0,-28.0,
2238.0,2161.0,0,-28.0,
1915.0,2203.0,2.751565,-28.0,
2168.0,2139.0,0,-28.0,
2062.0,1981.0,0,-28.0,
2053.0,2076.0,0,-28.0,
2147.0,2146.0,0,-28.0,
2138.0,2241.0,2.77745,-28.0,
2126.0,2120.0,0,-28.0,
2197.0,2016.0,0,-28.0,
1921.0,2052.0,0,-29.0,
1990.0,2287.0,0,0,
2086.0,2541.0,2.79226,-29.0,
2466.0,2042.0,0,-29.0,
2469.0,1939.0,0,-29.0,
2334.0,1930.0,0,-29.0,
2166.0,1918.0,0,-29.0,
2137.0,2091.0,2.79257,-29.0,
2131.0,2288.0,0,-29.0,
2122.0,2144.0,0,-29.0,
2042.0,2085.0,0,-29.0,
2088.0,2127.0,0,-29.0,
2124.0,2114.0,0,-29.0,
2142.0,2164.0,0,-29.0,
1995.0,2110.0,0,-29.0,
1999.0,2144.0,0,-29.0,
1960.0,2144.0,0,-29.0,
2247.0,2207.0,2.77876,-29.0,
2300.0,2195.0,0,-29.0,
2049.0,2052.0,0,-29.0,
1986.0,2048.0,0,-29.0,
2009.0,1996.0,0,-29.0,
2127.0,2109.0,0,-29.0,
2108.0,2121.0,2.75158,-29.0,
2195.0,2131.0,0,-29.0,
2139.0,2126.0,0,-29.0,
2071.0,2191.0,0,-29.0,
1924.0,2259.0,2.711945,-29.0,
2090.0,2271.0,0,-29.0,
2257.0,2140.0,0,-29.0,
2286.0,2109.0,0,-29.0,
2264.0,1886.0,0,-29.0,
2110.0,2024.0,2.660985,-29.0,
1974.0,1985.0,0,-28.0,
2100.0,1858.0,0,-28.0,
2363.0,2094.0,0,-28.0,
2349.0,2136.0,0,-28.0,
1979.0,2194.0,2.600075,-28.0,
1892.0,2083.0,0,-28.0,
1754.0,2074.0,0,-28.0,
1916.0,2000.0,0,-28.0,
1968.0,1949.0,0,-28.0,
2087.0,2150.0,0,-28.0,
2179.0,2159.0,0,-28.0,
2208.0,2142.0,0,0,
2143.0,2026.0,2.526845,-28.0,
2144.0,2114.0,0,-28.0,
2198.0,2082.0,0,-28.0,
2338.0,2204.0,0,-28.0,
2280.0,2232.0,0,-28.0,
2284.0,2164.0,2.438695,-29.0,
2089.0,2292.0,0,-29.0,
2093.0,2241.0,0,-29.0,
2184.0,2199.0,0,-29.0,
2171.0,2220.0,2.33422,-29.0,
2083.0,2097.0,0,-29.0,
2019.0,1971.0,0,-29.0,
2049.0,1822.0,0,-29.0,
2151.0,1958.0,0,-29.0,
2152.0,1950.0,0,-29.0,
2145.0,2191.0,2.20616,-28.0,
2180.0,2294.0,0,-28.0,
2197.0,2214.0,0,-28.0,
2232.0,2305.0,0,-28.0,
2090.0,2205.0,0,-28.0,
1886.0,1935.0,0,-28.0,
1823.0,1997.0,0,-28.0,
2002.0,2070.0,0,-28.0,
2290.0,2030.0,0,-28.0,
2413.0,2090.0,2.05348,-28.0,
2236.0,2106.0,0,-28.0,
2264.0,2084.0,0,-28.0,
2278.0,2102.0,0,-28.0,
2214.0,2133.0,0,-28.0,
2016.0,2143.0,1.88368,-28.0,
1843.0,2128.0,0,-28.0,
2011.0,2246.0,0,-28.0,
2121.0,2143.0,0,-28.0,
2157.0,1988.0,0,-27.0,
2128.0,1898.0,1.703905,-27.0,
2179.0,2121.0,0,-27.0,
2240.0,2149.0,0,-27.0,
2008.0,2205.0,0,-27.0,
2059.0,2444.0,0,-27.0,
2162.0,2188.0,1.522245,-27.0,
2114.0,2064.0,0,-27.0,
2181.0,1955.0,0,-28.0,
1989.0,1993.0,0,-28.0,
1819.0,2031.0,1.357435,-28.0,
2030.0,1973.0,0,-28.0,
2268.0,1883.0,0,-28.0,
2142.0,2201.0,0,-28.0,
2128.0,2199.0,0,-28.0,
2186.0,2092.0,0,-28.0,
2250.0,2136.0,0,-28.0,
2152.0,2311.0,1.221555,-28.0,
2056.0,2110.0,0,-28.0,
2040.0,2347.0,0,-28.0,
2162.0,2492.0,0,-28.0,
2148.0,1830.0,0,-28.0,
2110.0,1750.0,0,-28.0,
2121.0,1583.0,0,-28.0,
2145.0,1911.0,1.11291,-28.0,
2182.0,2040.0,0,-28.0,
2134.0,2064.0,0,-28.0,
2092.0,2133.0,0,-27.0,
2086.0,2095.0,0,-27.0,
2150.0,2035.0,1.024945,-27.0,
2120.0,2158.0,0,-27.0,
2092.0,2151.0,0,-27.0,
2186.0,2210.0,0,-27.0,
2138.0,2176.0,0,-27.0,
2151.0,2172.0,0,-27.0,
2116.0,2159.0,0,-27.0,
2149.0,2112.0,0,-27.0,
2126.0,2025.0,0.948845,-26.0,
2152.0,2127.0,0,-26.0,
2145.0,2242.0,0.882735,-26.0,
2057.0,2149.0,0,-26.0,
2089.0,2137.0,0,-26.0,
2125.0,2147.0,0,-26.0,
2100.0,2224.0,0,-26.0,
2094.0,2169.0,0,-26.0,
2068.0,2160.0,0,-26.0,
2202.0,2066.0,0,-26.0,
2214.0,2035.0,0,-26.0,
2286.0,2040.0,0,-26.0,
2283.0,2064.0,0.82795,-26.0,
2100.0,2027.0,0,-27.0,
2140.0,2034.0,0,-27.0,
2088.0,1986.0,0,-27.0,
1836.0,2085.0,0,-27.0,
1836.0,2108.0,0.78551,-27.0,
1935.0,2114.0,0,-27.0,
2025.0,2035.0,0,-27.0,
2108.0,2068.0,0,-27.0,
2179.0,2110.0,0.74885,-27.0,
2221.0,2167.0,0,-27.0,
2150.0,2235.0,0,-27.0,
2118.0,2169.0,0,-27.0,
2078.0,2116.0,0.712635,-27.0,
2226.0,1998.0,0,-27.0,
2177.0,2082.0,0,-27.0,
2182.0,2095.0,0,-27.0,
2094.0,2167.0,0,-27.0,
2156.0,2249.0,0,-27.0,
2099.0,2325.0,0.673895,-27.0,
2073.0,2196.0,0,-27.0,
2099.0,1924.0,0,-28.0,
2169.0,2003.0,0,-28.0,
2195.0,1934.0,0,-28.0,
2128.0,1928.0,0,-28.0,
2165.0,1867.0,0,-28.0,
2111.0,2097.0,0,-28.0,
2203.0,2154.0,0,-28.0,
2177.0,2194.0,0.632295,-28.0,
2108.0,2113.0,0,-28.0,
2092.0,2052.0,0,-28.0,
2116.0,2215.0,0,-28.0,
2167.0,2180.0,0,-28.0,
2195.0,2223.0,0.589885,-28.0,
2149.0,1998.0,0,-28.0,
2118.0,2157.0,0,-28.0,
2084.0,2159.0,0,-28.0,
2101.0,2254.0,0,-28.0,
2071.0,2175.0,0.55227,-28.0,
2019.0,2009.0,0,-28.0,
2033.0,1881.0,0,-28.0,
2076.0,1919.0,0,-27.0,
1986.0,2118.0,0,-27.0,
2105.0,2142.0,0,-27.0,
2240.0,2166.0,0,-27.0,
2319.0,2167.0,0,-27.0,
2311.0,2113.0,0,-27.0,
2201.0,2042.0,0.52368,-27.0,
2110.0,1971.0,0,-27.0,
1861.0,2160.0,0,-27.0,
1881.0,2162.0,0,-27.0,
2089.0,2155.0,0,-27.0,
2155.0,2123.0,0.502945,-27.0,
2300.0,2158.0,0,-27.0,
2279.0,2062.0,0,-27.0,
2064.0,1957.0,0.488765,-27.0,
2047.0,2069.0,0,-27.0,
2044.0,2117.0,0,-27.0,
2105.0,2107.0,0,-27.0,
2242.0,2187.0,0,-27.0,
2213.0,2276.0,0,-27.0,
2065.0,2244.0,0,-27.0,
2032.0,2106.0,0,-27.0,
2066.0,2117.0,0,-27.0,
2153.0,1939.0,0.47794,-27.0,
2238.0,2047.0,0,-27.0,
2142.0,2081.0,0,-27.0,
2107.0,2048.0,0,-27.0,
2166.0,2175.0,0,-27.0,
2143.0,2198.0,0,-27.0,
2185.0,2144.0,0.467535,-27.0,
2114.0,1958.0,0,-28.0,
2113.0,2100.0,0,-28.0,
2130.0,2109.0,0,-28.0,
2091.0,2122.0,0,-27.0,
2073.0,2107.0,0,-27.0,
2079.0,2049.0,0.457405,-27.0,
2055.0,2130.0,0,-27.0,
2079.0,2299.0,0,-27.0,
2067.0,2266.0,0,-27.0,
2105.0,1992.0,0.44643,-27.0,
2057.0,1930.0,0,-27.0,
2143.0,1997.0,0,-27.0,
2258.0,2044.0,0,-27.0,
2164.0,2056.0,0,-27.0,
2134.0,2120.0,0,-27.0,
2105.0,2149.0,0.4339,-27.0,
2057.0,2234.0,0,-27.0,
2094.0,2250.0,0,-27.0,
2085.0,2110.0,0,-27.0,
2115.0,2150.0,0.419455,-27.0,
2133.0,2163.0,0,-27.0,
2203.0,2106.0,0,-27.0,
2193.0,2058.0,0,-27.0,
2179.0,1904.0,0,-27.0,
2127.0,2040.0,0,-27.0,
2096.0,2226.0,0,-27.0,
2009.0,2158.0,0,-27.0,
2043.0,2111.0,0.40527,-28.0,
2203.0,2083.0,0,-28.0,
2148.0,2100.0,0.39537,-28.0,
2132.0,2154.0,0,-28.0,
2110.0,2068.0,0,-28.0,
2130.0,1947.0,0,-28.0,
2259.0,2079.0,0,-28.0,
2133.0,2047.0,0,-28.0,
2130.0,2115.0,0.38979,-28.0,
2118.0,2178.0,0,-28.0,
2040.0,2099.0,0,-28.0,
2187.0,2113.0,0,-28.0,
2154.0,2141.0,0,-28.0,
2115.0,2127.0,0,-28.0,
2120.0,2057.0,0,-28.0,
2097.0,2120.0,0,-28.0,
2099.0,2183.0,0,-28.0,
2147.0,2150.0,0,-28.0,
2123.0,2095.0,0.38581,-28.0,
2136.0,2129.0,0,-27.0,
2016.0,1946.0,0,-27.0,
2074.0,2024.0,0,-27.0,
2051.0,2147.0,0,-27.0,
2133.0,2151.0,0.381475,-27.0,
2212.0,2089.0,0,-27.0,
2041.0,2119.0,0,-27.0,
2056.0,2072.0,0,-27.0,
2149.0,2131.0,0.375365,-28.0,
2292.0,2112.0,0,-28.0,
2152.0,2050.0,0,-28.0,
2151.0,2065.0,0,-28.0,
2189.0,2138.0,0,-28.0,
2122.0,2123.0,0,-28.0,
2065.0,2111.0,0.36903,-28.0,
2051.0,2140.0,0,-28.0,
2049.0,2017.0,0,-28.0,
2137.0,2045.0,0,-28.0,
2121.0,2130.0,0,-28.0,
2120.0,2352.0,0,-28.0,
2172.0,2248.0,0.36265,-28.0,
2145.0,1964.0,0,-28.0,
2160.0,2062.0,0,-28.0,
2157.0,2042.0,0,-27.0,
2178.0,2214.0,0.35715,-27.0,
2114.0,2131.0,0,-27.0,
2151.0,2292.0,0,-27.0,
2112.0,2312.0,0,-27.0,
2134.0,2194.0,0,-27.0,
2107.0,1829.0,0,-27.0,
2043.0,1782.0,0,-27.0,
1951.0,2183.0,0,-27.0,
2074.0,2283.0,0,-27.0,
2199.0,2177.0,0,-27.0,
2208.0,1971.0,0.351335,-27.0,
2200.0,1858.0,0,-27.0,
2092.0,1906.0,0,-27.0,
1944.0,2101.0,0,-27.0,
2164.0,2136.0,0,-27.0,
2212.0,2215.0,0.34407,-28.0,
2163.0,2213.0,0,-28.0,
2163.0,2179.0,0,-28.0,
2199.0,2194.0,0,-28.0,
2271.0,2057.0,0,-28.0,
2090.0,2110.0,0.33501,-28.0,
2019.0,2042.0,0,-28.0,
2047.0,2029.0,0,-28.0,
2056.0,2096.0,0,-28.0,
2038.0,2037.0,0,0,
2035.0,2141.0,0.32661,-28.0,
2083.0,2203.0,0,-28.0,
1977.0,2161.0,0,-28.0,
2032.0,2084.0,0,-28.0,
2090.0,2154.0,0,-28.0,
2004.0,2122.0,0.319905,-28.0,
2078.0,2002.0,0,-28.0,
2184.0,2027.0,0,-28.0,
2438.0,2125.0,0,-28.0,
2373.0,2141.0,0,-28.0,
2225.0,2207.0,0.3151,-28.0,
2193.0,2170.0,0,-28.0,
2252.0,2093.0,0,-28.0,
2272.0,2100.0,0,-28.0,
2146.0,2170.0,0,-28.0,
2024.0,2433.0,0,-28.0,
1873.0,2220.0,0,-28.0,
1925.0,2043.0,0,-28.0,
1969.0,1797.0,0,-28.0,
2046.0,2128.0,0.31186,-28.0,
2109.0,1934.0,0,-28.0,
2101.0,2020.0,0,-28.0,
2207.0,2001.0,0,-28.0,
2295.0,2027.0,0,-28.0,
2210.0,2032.0,0.30899,-28.0,
2126.0,2118.0,0,-28.0,
2113.0,2201.0,0,-28.0,
2272.0,2133.0,0,-28.0,
2153.0,2079.0,0,-28.0,
2168.0,2104.0,0,-28.0,
2149.0,2067.0,0,-28.0,
2046.0,2111.0,0.30647,-28.0,
1947.0,2127.0,0,-28.0,
1893.0,2184.0,0,-28.0,
2148.0,2169.0,0,-28.0,
2221.0,2202.0,0.304245,-28.0,
2236.0,2178.0,0,-28.0,
2195.0,2163.0,0,-28.0,
2095.0,2058.0,0,-28.0,
1939.0,2062.0,0,-28.0,
1949.0,1975.0,0,0,
2106.0,2049.0,0.303495,-28.0,
2267.0,2214.0,0,-28.0,
2173.0,2201.0,0,-28.0,
2188.0,2126.0,0,-28.0,
2273.0,2114.0,0.302775,-28.0,
2114.0,1973.0,0,-28.0,
2076.0,2052.0,0,-28.0,
2081.0,2116.0,0,-28.0,
2068.0,2164.0,0,-28.0,
2030.0,2103.0,0,-28.0,
2093.0,2128.0,0.30212,-28.0,
2131.0,2127.0,0,-27.0,
2195.0,2171.0,0,-27.0,
2144.0,2133.0,0,-27.0,
2243.0,2152.0,0,-27.0,
2129.0,2054.0,0,-27.0,
2101.0,2034.0,0.301955,-27.0,
2169.0,2071.0,0,-28.0,
2132.0,2104.0,0,-28.0,
2095.0,2173.0,0,-28.0,
2055.0,2152.0,0.300715,-28.0,
2101.0,2170.0,0,-28.0,
2093.0,2068.0,0,-28.0,
2108.0,2046.0,0,-28.0,
2129.0,2031.0,0,-28.0,
2121.0,2091.0,0,-28.0,
2067.0,2108.0,0,-28.0,
2081.0,2048.0,0,-28.0,
2164.0,2099.0,0,-28.0,
2165.0,2176.0,0,-28.0,
2272.0,2074.0,0.299155,-28.0,
2229.0,2107.0,0,-28.0,
2239.0,2128.0,0,-28.0,
2155.0,2133.0,0,-28.0,
2014.0,2131.0,0,-28.0,
1941.0,2102.0,0.296865,-28.0,
1858.0,2143.0,0,-28.0,
1980.0,2116.0,0,-28.0,
2184.0,2017.0,0,-28.0,
2316.0,2104.0,0,-28.0,
2350.0,2136.0,0.294385,-28.0,
2132.0,2158.0,0,-28.0,
2077.0,2140.0,0,-28.0,
2133.0,2117.0,0,-28.0,
2203.0,2063.0,0,-28.0,
2169.0,2090.0,0.29124,-28.0,
1988.0,2185.0,0,-28.0,
1970.0,2116.0,0,-28.0,
2083.0,2011.0,0,-28.0,
2258.0,2091.0,0,-28.0,
2200.0,2104.0,0.287445,-28.0,
2219.0,2149.0,0,-28.0,
2091.0,2105.0,0,-28.0,
2141.0,2056.0,0,-28.0,
2041.0,2077.0,0,-28.0,
2058.0,2203.0,0,-28.0,
2129.0,2112.0,0,-28.0,
2148.0,2115.0,0,-28.0,
2133.0,2104.0,0,-28.0,
2053.0,1984.0,0.28401,-28.0,
2070.0,2175.0,0,-28.0,
2115.0,2007.0,0,-28.0,
2109.0,2306.0,0,-28.0,
2081.0,2465.0,0,-28.0,
2089.0,2275.0,0.282645,-29.0,
2199.0,1889.0,0,-29.0,
2189.0,1631.0,0,-28.0,
2126.0,1924.0,0,-28.0,
2053.0,2024.0,0,-28.0,
2093.0,2106.0,0,-28.0,
2083.0,2076.0,0,-28.0,
2140.0,2144.0,0,-28.0,
2192.0,2109.0,0,-28.0,
2164.0,2114.0,0.28107,-28.0,
2208.0,2097.0,0,-28.0,
2352.0,2170.0,0,-28.0,
2228.0,2161.0,0,-28.0,
2144.0,2227.0,0.27933,-28.0,
1999.0,2173.0,0,-28.0,
1971.0,2103.0,0,-28.0,
2053.0,2075.0,0,-28.0,
2006.0,2106.0,0.277,-28.0,
2073.0,2064.0,0,-28.0,
2091.0,2123.0,0,-28.0,
2090.0,2128.0,0,-28.0,
2098.0,2029.0,0,-28.0,
2114.0,2113.0,0,-28.0,
2181.0,2157.0,0.275695,-28.0,
2128.0,2187.0,0,-28.0,
2115.0,2158.0,0,-28.0,
2156.0,2147.0,0.275685,-28.0,
2042.0,2080.0,0,-28.0,
1977.0,2072.0,0,-28.0,
2063.0,2124.0,0,-28.0,
2070.0,2137.0,0,-28.0,
2247.0,2102.0,0,-28.0,
2299.0,2044.0,0,-28.0,
2348.0,2019.0,0,-28.0,
2221.0,2097.0,0,-28.0,
2205.0,2057.0,0,-28.0,
2159.0,2067.0,0,-28.0,
2153.0,2078.0,0.27529,-28.0,
2108.0,2133.0,0,-28.0,
2016.0,2164.0,0,-28.0,
2078.0,2141.0,0,-28.0,
2038.0,2152.0,0.275295,-28.0,
2033.0,2167.0,0,-28.0,
2108.0,2113.0,0,-29.0,
2060.0,2142.0,0,-29.0,
2130.0,2061.0,0,-29.0,
2171.0,2044.0,0.27468,-29.0,
2150.0,2102.0,0,-29.0,
2091.0,2085.0,0,-29.0,
2084.0,2073.0,0,-29.0,
2188.0,2118.0,0.273515,-29.0,
2197.0,2090.0,0,-29.0,
2128.0,2128.0,0,-29.0,
2105.0,2135.0,0,-28.0,
2037.0,2194.0,0,-28.0,
1943.0,2084.0,0,-28.0,
2073.0,2035.0,0,-28.0,
2175.0,2109.0,0,-28.0,
2150.0,2061.0,0,-28.0,
2124.0,2169.0,0,-28.0,
2066.0,2097.0,0.27238,-28.0,
2165.0,2046.0,0,-28.0,
2196.0,2098.0,0,-28.0,
2212.0,2122.0,0,-28.0,
2116.0,2122.0,0.271615,-28.0,
2164.0,2074.0,0,-28.0,
2106.0,2050.0,0,-28.0,
2090.0,2099.0,0,-28.0,
2094.0,2148.0,0.271425,-29.0,
2129.0,2188.0,0,-29.0,
2090.0,2091.0,0,-29.0,
2101.0,2146.0,0,-29.0,
2140.0,2107.0,0,-29.0,
2113.0,2011.0,0,-29.0,
2172.0,2099.0,0,-29.0,
2168.0,2148.0,0,-29.0,
2158.0,2138.0,0,-29.0,
2227.0,2010.0,0.271125,-29.0,
2107.0,1885.0,0,-28.0,
2052.0,2095.0,0,-28.0,
2056.0,2012.0,0,-28.0,
2046.0,2246.0,0,-28.0,
1995.0,2201.0,0.27049,-28.0,
2062.0,2155.0,0,-28.0,
2194.0,2068.0,0,-28.0,
2278.0,2178.0,0,-28.0,
2302.0,2116.0,0.269515,-28.0,
2171.0,2178.0,0,-28.0,
2121.0,2161.0,0,-28.0,
2041.0,2050.0,0,-28.0,
2018.0,2099.0,0,-28.0,
2067.0,2073.0,0,-28.0,
2031.0,2115.0,0,-28.0,
2094.0,2148.0,0,-28.0,
2129.0,2128.0,0,-28.0,
2058.0,2061.0,0.267945,-28.0,
2171.0,2083.0,0.26712,-28.0,
2098.0,2096.0,0,-28.0,
2104.0,2086.0,0,-28.0,
2168.0,2078.0,0,-28.0,
2209.0,2065.0,0,-28.0,
2153.0,2062.0,0,-28.0,
2109.0,2121.0,0,-28.0,
2155.0,2150.0,0,-28.0,
2163.0,2221.0,0,-28.0,
2159.0,2225.0,0,-28.0,
2116.0,2053.0,0.267135,-28.0,
2154.0,2032.0,0,-29.0,
2122.0,2029.0,0,-29.0,
2083.0,2148.0,0,-29.0,
2092.0,2161.0,0.26735,-29.0,
2139.0,2169.0,0,-29.0,
2124.0,2141.0,0,-29.0,
2086.0,2095.0,0,-29.0,
2091.0,2088.0,0,-29.0,
2054.0,2143.0,0.26714,-29.0,
2135.0,2172.0,0,-28.0,
2183.0,2055.0,0,-28.0,
2208.0,2116.0,0,-28.0,
2112.0,1999.0,0.267035,-28.0,
2054.0,2076.0,0,-28.0,
2030.0,1985.0,0,-28.0,
2162.0,2068.0,0,-28.0,
2226.0,2163.0,0,-28.0,
2286.0,2111.0,0,-28.0,
2129.0,2258.0,0,-28.0,
2051.0,2215.0,0,-28.0,
2129.0,1924.0,0,-28.0,
2132.0,2040.0,0,-28.0,
2108.0,2051.0,0,-28.0,
2005.0,2052.0,0.26778,-28.0,
2019.0,2103.0,0,-28.0,
2130.0,2157.0,0,-28.0,
2077.0,2079.0,0,-28.0,
2007.0,2141.0,0,-28.0,
2066.0,2112.0,0.26917,-28.0,
2116.0,2100.0,0,-28.0,
2136.0,2158.0,0,-28.0,
2165.0,2073.0,0.27064,-28.0,
2212.0,2100.0,0,-28.0,
2244.0,2148.0,0,-28.0,
2230.0,2139.0,0,-28.0,
2118.0,2164.0,0,-28.0,
2142.0,2146.0,0,-28.0,
1921.0,2054.0,0.2725,-29.0,
2160.0,2091.0,0.27511,-28.0,
2127.0,2185.0,0,-28.0,
2115.0,2165.0,0,-29.0,
2241.0,2159.0,0,-29.0,
2132.0,1869.0,0,-28.0,
2051.0,1884.0,0,-28.0,
2057.0,2051.0,0,-28.0,
2130.0,2152.0,0,-28.0,
2216.0,2165.0,0,-28.0,
2117.0,2163.0,0,-28.0,
2165.0,2109.0,0,-28.0,
2101.0,2061.0,0.27892,-28.0,
2061.0,2095.0,0,-28.0,
2101.0,2139.0,0,-28.0,
2256.0,2316.0,0,-28.0,
2186.0,2132.0,0,-28.0,
2175.0,2098.0,0,-28.0,
2130.0,2065.0,0,-28.0,
2066.0,2085.0,0,-28.0,
2121.0,2139.0,0.285275,-28.0,
2088.0,2069.0,0,-28.0,
2149.0,2047.0,0,-28.0,
2117.0,2078.0,0,-28.0,
2176.0,2084.0,0,-28.0,
2138.0,2137.0,0,-28.0,
2145.0,2147.0,0.29338,-28.0,
2071.0,2125.0,0,-28.0,
2022.0,2084.0,0,-28.0,
2006.0,2146.0,0,-28.0,
1914.0,2245.0,0,-28.0,
1903.0,2139.0,0.301995,-28.0,
2110.0,2124.0,0,-28.0,
2351.0,2090.0,0,-28.0,
2311.0,2012.0,0,-28.0,
2241.0,2023.0,0,-28.0,
2189.0,2046.0,0.311635,-28.0,
2028.0,2079.0,0,-28.0,
2046.0,2036.0,0,-28.0,
2119.0,2038.0,0,-28.0,
2206.0,2123.0,0,-28.0,
2204.0,2237.0,0.32508,-28.0,
2151.0,2288.0,0,-28.0,
1976.0,2224.0,0,-28.0,
2052.0,2163.0,0,-28.0,
2159.0,2030.0,0.34315,-28.0,
2301.0,2036.0,0,-28.0,
1965.0,2173.0,0,-28.0,
1898.0,2080.0,0,-28.0,
1991.0,2074.0,0,-28.0,
2145.0,2071.0,0,-28.0,
2227.0,2033.0,0,-28.0,
2217.0,2013.0,0,-28.0,
2106.0,2144.0,0,-28.0,
2114.0,2281.0,0.365135,-28.0,
2046.0,2308.0,0,-28.0,
2021.0,2222.0,0,-28.0,
2218.0,2157.0,0,-28.0,
2216.0,2052.0,0,-28.0,
2234.0,1844.0,0,-28.0,
2152.0,1835.0,0.39109,-28.0,
2193.0,1882.0,0,-28.0,
2051.0,1877.0,0,-28.0,
2068.0,1932.0,0,-28.0,
2074.0,2128.0,0,-28.0,
2059.0,2275.0,0.42082,-28.0,
2219.0,2230.0,0,-28.0,
2228.0,2284.0,0,-28.0,
2143.0,2061.0,0,-28.0,
1994.0,2155.0,0,-28.0,
2015.0,2191.0,0.455585,-28.0,
2158.0,2159.0,0,-28.0,
2294.0,2125.0,0,-28.0,
2108.0,2087.0,0,-28.0,
2159.0,2084.0,0,-28.0,
2060.0,2078.0,0.49163,-27.0,
2067.0,2096.0,0,-27.0,
2192.0,2234.0,0,-27.0,
1981.0,2218.0,0,-27.0,
1974.0,2202.0,0,-27.0,
2076.0,2244.0,0,-27.0,
2156.0,2189.0,0,-28.0,
2094.0,2057.0,0,-28.0,
2150.0,2097.0,0,-28.0,
2388.0,2086.0,0.524165,-28.0,
2347.0,2016.0,0,-28.0,
2194.0,1967.0,0,-28.0,
2035.0,2034.0,0,-28.0,
2095.0,1890.0,0,-28.0,
2178.0,2085.0,0.55183,-28.0,
2027.0,2039.0,0,-28.0,
1905.0,2166.0,0,-28.0,
1822.0,1999.0,0,-28.0,
1956.0,2008.0,0,-28.0,
2156.0,2173.0,0.57818,-28.0,
2279.0,2331.0,0,-28.0,
2378.0,2276.0,0,-28.0,
2179.0,2196.0,0,-28.0,
2150.0,2188.0,0,-28.0,
2067.0,2141.0,0,-28.0,
1964.0,1983.0,0.60943,-28.0,
2060.0,1932.0,0,-28.0,
2221.0,1989.0,0,-28.0,
2307.0,2164.0,0,-28.0,
2201.0,2151.0,0,-28.0,
2108.0,2114.0,0.64414,-28.0,
2038.0,2043.0,0,-28.0,
2191.0,2131.0,0,-28.0,
2171.0,2050.0,0,-28.0,
2009.0,2101.0,0.67846,-28.0,
1824.0,2242.0,0,-28.0,
1896.0,2226.0,0,-28.0,
1886.0,2116.0,0,-28.0,
2093.0,1893.0,0,-28.0,
2397.0,1652.0,0,-28.0,
2518.0,1970.0,0,-28.0,
2332.0,2275.0,0,-28.0,
2246.0,2494.0,0,-28.0,
2046.0,2274.0,0,-28.0,
2214.0,2159.0,0.71241,-28.0,
2180.0,2097.0,0,-28.0,
2064.0,2013.0,0,-28.0,
2115.0,2056.0,0,-28.0,
1803.0,1936.0,0.74608,-28.0,
1837.0,1930.0,0,-28.0,
1970.0,2015.0,0,-28.0,
2121.0,2118.0,0,-28.0,
2231.0,2104.0,0,-28.0,
2219.0,2118.0,0,-28.0,
2118.0,2166.0,0.779555,-28.0,
2108.0,2280.0,0,-28.0,
2246.0,2156.0,0,-28.0,
2318.0,2183.0,0,-28.0,
2311.0,2116.0,0,-28.0,
2130.0,2060.0,0.815175,-28.0,
2068.0,2098.0,0,-29.0,
2024.0,2164.0,0,-29.0,
2004.0,1984.0,0,-29.0,
2006.0,2224.0,0.848955,-29.0,
2064.0,2162.0,0,-28.0,
2134.0,2182.0,0,-28.0,
1943.0,2114.0,0,-28.0,
1935.0,1967.0,0,-28.0,
2165.0,2092.0,0,-28.0,
2261.0,1975.0,0,-28.0,
2383.0,2039.0,0,-28.0,
2327.0,2232.0,0,-28.0,
2216.0,2256.0,0,-28.0,
2076.0,2133.0,0.87648,-28.0,
2015.0,2187.0,0,-28.0,
1990.0,2122.0,0,-28.0,
2139.0,2057.0,0,-28.0,
2091.0,2040.0,0,-28.0,
1947.0,2129.0,0.899835,-28.0,
2048.0,2074.0,0,-28.0,
2127.0,2036.0,0,-28.0,
2358.0,2080.0,0,-28.0,
2338.0,1986.0,0,-28.0,
2088.0,2031.0,0.925235,-28.0,
2128.0,2125.0,0,-28.0,
2054.0,1952.0,0,-28.0,
2178.0,2026.0,0,-28.0,
2314.0,2213.0,0,-28.0,
2201.0,2312.0,0.952315,-28.0,
2045.0,2318.0,0,-28.0,
2005.0,1994.0,0,-28.0,
1962.0,1931.0,0.98038,-28.0,
1956.0,2164.0,0,-28.0,
2053.0,2179.0,0,-28.0,
2153.0,2069.0,0,-28.0,
2196.0,2079.0,0,-28.0,
2174.0,1974.0,0,-28.0,
2060.0,2037.0,1.010075,-28.0,
2055.0,2056.0,0,-28.0,
2039.0,2075.0,0,-28.0,
2100.0,2132.0,0,-28.0,
2225.0,2236.0,0,-28.0,
2229.0,2343.0,0,-28.0,
2128.0,2305.0,0,-28.0,
2101.0,2182.0,0,-28.0,
2102.0,2080.0,0,-28.0,
1927.0,1937.0,0,-28.0,
2153.0,2052.0,1.039025,-28.0,
2080.0,2208.0,0,-28.0,
2092.0,2185.0,0,-28.0,
2189.0,2034.0,0,-28.0,
2124.0,1900.0,0,-28.0,
2214.0,1837.0,0,-28.0,
2261.0,2042.0,1.068515,-28.0,
2215.0,1999.0,0,-28.0,
2305.0,2193.0,0,-28.0,
2234.0,2288.0,0,-28.0,
2160.0,2361.0,1.09888,-28.0,
2179.0,2293.0,0,-28.0,
2101.0,2218.0,0,-28.0,
2018.0,2145.0,0,-28.0,
1921.0,2061.0,0,-28.0,
2127.0,2135.0,0,-28.0,
2167.0,1980.0,0,-28.0,
2094.0,1989.0,0,-28.0,
2127.0,1913.0,1.129815,-28.0,
1992.0,1904.0,0,-28.0,
1875.0,2152.0,0,-28.0,
2064.0,2143.0,0,-28.0,
2180.0,2306.0,0,-28.0,
2245.0,2294.0,0,-28.0,
2123.0,2294.0,1.16355,-28.0,
2069.0,1919.0,0,-28.0,
2005.0,1805.0,0,-28.0,
1964.0,1947.0,0,-28.0,
1866.0,2177.0,1.199335,-28.0,
1982.0,2153.0,0,-28.0,
2212.0,2184.0,0,-28.0,
2337.0,2035.0,0,-28.0,
2418.0,1986.0,0,-28.0,
2119.0,2017.0,0,-28.0,
2015.0,2148.0,1.234435,-28.0,
2099.0,2212.0,0,-28.0,
2248.0,2171.0,0,-28.0,
2428.0,2036.0,0,-28.0,
2315.0,2201.0,0,-28.0,
2136.0,2032.0,1.2673,-28.0,
2151.0,2094.0,0,-28.0,
2045.0,2236.0,0,-28.0,
1980.0,2171.0,0,-28.0,
2073.0,2259.0,0,-29.0,
2105.0,2415.0,1.29547,-29.0,
2088.0,2313.0,0,-29.0,
2054.0,1847.0,0,-29.0,
2191.0,1724.0,0,-29.0,
2135.0,1968.0,0,-29.0,
2063.0,2173.0,0,-29.0,
2049.0,2373.0,0,-29.0,
2063.0,2084.0,0,-29.0,
2007.0,2052.0,1.32014,-29.0,
2143.0,2080.0,0,-29.0,
2197.0,2019.0,0,-28.0,
2229.0,2061.0,0,-28.0,
1987.0,2057.0,0,-28.0,
1879.0,1923.0,1.346055,-28.0,
1989.0,1998.0,0,-28.0,
2166.0,2114.0,0,-28.0,
2303.0,2172.0,0,-28.0,
2179.0,2187.0,1.376435,-28.0,
2088.0,2216.0,0,-28.0,
2165.0,2170.0,0,-28.0,
2029.0,2255.0,0,-28.0,
2065.0,2106.0,0,-28.0,
2122.0,2083.0,0,-28.0,
2276.0,2133.0,0,-28.0,
2106.0,1952.0,0,-28.0,
2165.0,1961.0,0,-28.0,
2316.0,2079.0,1.408045,-28.0,
2190.0,2020.0,0,-28.0,
2284.0,2034.0,0,-28.0,
2255.0,2149.0,0,-28.0,
2016.0,2213.0,0,-29.0,
1972.0,2267.0,1.4364,-29.0,
1995.0,2284.0,0,-29.0,
2124.0,2104.0,0,-29.0,
2274.0,1957.0,1.45975,-29.0,
2156.0,1953.0,0,-29.0,
2099.0,2070.0,0,-29.0,
2142.0,2110.0,0,-29.0,
2064.0,2077.0,0,-29.0,
1876.0,2023.0,0,-29.0,
1831.0,2111.0,0,-29.0,
2019.0,2136.0,0,-29.0,
2193.0,2189.0,0,-28.0,
2401.0,2256.0,0,-28.0,
2361.0,2074.0,1.47717,-28.0,
2265.0,2041.0,0,-28.0,
2105.0,1972.0,0,-28.0,
1966.0,2147.0,0,-28.0,
2077.0,2280.0,0,-28.0,
2013.0,2170.0,1.49052,-28.0,
1724.0,2096.0,0,-28.0,
1957.0,2203.0,0,-28.0,
2322.0,2278.0,0,-28.0,
2394.0,2046.0,0,-28.0,
2085.0,2036.0,1.506575,-28.0,
2083.0,1866.0,0,-28.0,
2050.0,2044.0,0,-28.0,
2041.0,2197.0,0,-29.0,
2319.0,2052.0,1.526845,-29.0,
2223.0,2006.0,0,-29.0,
2079.0,2004.0,0,-29.0,
2103.0,2021.0,0,-29.0,
2346.0,2079.0,0,-29.0,
2289.0,2199.0,0,-29.0,
2212.0,2226.0,1.549975,-29.0,
2082.0,2223.0,0,-29.0,
2099.0,2210.0,0,-29.0,
1953.0,2130.0,0,-28.0,
1984.0,1985.0,0,-28.0,
2084.0,2016.0,0,-28.0,
2194.0,1998.0,0,-28.0,
2192.0,2193.0,0,-28.0,
2127.0,2182.0,0,-28.0,
2132.0,2151.0,1.57629,-28.0,
2210.0,1998.0,0,-28.0,
2330.0,2103.0,0,-28.0,
2037.0,2098.0,0,-28.0,
1961.0,2008.0,1.602475,-28.0,
1937.0,2142.0,0,-28.0,
2148.0,2144.0,0,-28.0,
2299.0,2322.0,0,-28.0,
2128.0,2213.0,0,-28.0,
2091.0,2257.0,1.626275,-28.0,
1885.0,2143.0,0,-28.0,
1779.0,1949.0,0,-28.0,
1963.0,1973.0,0,-28.0,
2171.0,2079.0,1.64523,-28.0,
2240.0,2129.0,0,-28.0,
2239.0,2348.0,0,-28.0,
2276.0,2133.0,0,-28.0,
2254.0,1816.0,0,-28.0,
2193.0,1968.0,0,-28.0,
1974.0,2046.0,0,-28.0,
2029.0,2045.0,0,-28.0,
2192.0,2079.0,0,-28.0,
2278.0,1991.0,1.66182,-28.0,
2055.0,2065.0,0,-28.0,
1993.0,2333.0,0,-28.0,
2108.0,2152.0,0,-28.0,
2323.0,1954.0,0,-28.0,
2272.0,2107.0,0,-28.0,
2112.0,2378.0,1.677365,-28.0,
1925.0,2393.0,0,-28.0,
1749.0,2008.0,0,-29.0,
1966.0,2026.0,0,-29.0,
2369.0,1818.0,0,-29.0,
2503.0,1773.0,1.692125,-29.0,
2335.0,2014.0,0,-29.0,
2015.0,2179.0,0,-29.0,
2031.0,2109.0,0,-28.0,
2097.0,2204.0,0,-28.0,
2333.0,2140.0,1.70667,-28.0,
2311.0,2125.0,0,-28.0,
2134.0,2185.0,0,-28.0,
2106.0,2166.0,0,-28.0,
2016.0,2264.0,0,-28.0,
1950.0,2131.0,1.72583,-28.0,
2043.0,2092.0,0,-28.0,
2131.0,2073.0,0,-28.0,
2202.0,2147.0,0,-28.0,
2122.0,2021.0,0,-28.0,
2066.0,1897.0,0,-28.0,
2087.0,2133.0,0,-28.0,
2029.0,2137.0,0,-28.0,
2041.0,2194.0,0,-28.0,
2139.0,2195.0,0,-28.0,
2249.0,2130.0,0,-28.0,
2178.0,2159.0,0,-28.0,
2034.0,2182.0,0,-28.0,
2023.0,2128.0,1.7633,-28.0,
2146.0,2158.0,0,-28.0,
2210.0,2187.0,0,-28.0,
2334.0,1939.0,0,-28.0,
2093.0,1936.0,0,-28.0,
1946.0,2060.0,0,-28.0,
2042.0,2089.0,1.7736,-28.0,
2054.0,1859.0,1.78076,-28.0,
2162.0,2080.0,1.789355,-28.0,
1978.0,2322.0,1.79648,-28.0,
1711.0,2259.0,0,-28.0,
1889.0,2122.0,0,-28.0,
2373.0,2223.0,0,-28.0,
2498.0,2173.0,0,-28.0,
2122.0,2070.0,0,-28.0,
2225.0,2122.0,0,-28.0,
2268.0,2036.0,0,-28.0,
2206.0,1955.0,0,-28.0,
2159.0,1910.0,0,-28.0,
2097.0,1967.0,0,-28.0,
2056.0,2097.0,0,-28.0,
2082.0,2344.0,0,-28.0,
2214.0,2212.0,0,-28.0,
2103.0,2012.0,0,-28.0,
2136.0,2004.0,0,-28.0,
2288.0,2080.0,0,-28.0,
2307.0,1983.0,0,-28.0,
2078.0,2286.0,0,-28.0,
1834.0,2108.0,1.80136,-28.0,
1975.0,2220.0,0,-28.0,
2132.0,2288.0,0,-28.0,
2166.0,2035.0,0,-28.0,
2173.0,2016.0,0,-28.0,
2102.0,2039.0,0,-28.0,
2128.0,2039.0,1.80464,-28.0,
2150.0,2066.0,0,-28.0,
2075.0,1978.0,0,-28.0,
2008.0,2106.0,0,-28.0,
2044.0,2105.0,0,-28.0,
1976.0,2060.0,0,-28.0,
2075.0,2349.0,0,-28.0,
2224.0,2252.0,0,-28.0,
2091.0,2134.0,1.80649,-28.0,
2211.0,2091.0,0,-28.0,
2103.0,1953.0,0,-28.0,
2153.0,2255.0,0,-28.0,
2035.0,2254.0,0,-28.0,
2056.0,2088.0,0,0,
2291.0,2068.0,1.808805,-28.0,
2382.0,1847.0,0,-28.0,
2223.0,2109.0,0,-28.0,
2191.0,2222.0,0,-28.0,
2186.0,2204.0,1.809035,-28.0,
2075.0,2158.0,0,-28.0,
2014.0,1893.0,0,-28.0,
2056.0,1979.0,0,-28.0,
2127.0,2047.0,0,-28.0,
2070.0,2103.0,1.810745,-28.0,
1986.0,2091.0,0,-28.0,
2095.0,2228.0,0,-28.0,
2205.0,2121.0,0,-28.0,
2196.0,2080.0,0,-28.0,
2192.0,2075.0,0,-28.0,
2179.0,2255.0,0,-28.0,
2108.0,2004.0,0,-28.0,
2045.0,2116.0,0,-28.0,
1792.0,2230.0,1.81612,-28.0,
1792.0,2282.0,1.82328,-28.0,
2173.0,2178.0,0,-28.0,
2163.0,2040.0,0,-28.0,
2290.0,1925.0,0,-28.0,
2564.0,2081.0,0,-28.0,
2211.0,2166.0,0,-28.0,
2087.0,2073.0,0,-28.0,
1948.0,1949.0,0,-28.0,
1983.0,2097.0,1.829635,-28.0,
2148.0,2082.0,0,-28.0,
2321.0,2063.0,0,-28.0,
2291.0,2178.0,0,-28.0,
2085.0,2214.0,0,-28.0,
2065.0,2135.0,1.834475,-28.0,
2098.0,2033.0,0,-28.0,
2140.0,2010.0,0,-28.0,
2028.0,2125.0,0,-28.0,
2018.0,2048.0,0,0,
2141.0,2056.0,0,-28.0,
2071.0,2079.0,0,-28.0,
1923.0,2123.0,0,-28.0,
2118.0,2069.0,0,-28.0,
2087.0,1877.0,1.841375,-28.0,
2263.0,2019.0,0,-28.0,
2172.0,1935.0,0,-28.0,
2172.0,2015.0,0,-28.0,
2158.0,2265.0,1.848325,-28.0,
2082.0,2377.0,0,-28.0,
2096.0,2331.0,0,-28.0,
1902.0,2232.0,0,-28.0,
2001.0,2201.0,0,-28.0,
2184.0,2141.0,1.854585,-28.0,
2236.0,2146.0,0,-28.0,
2253.0,1993.0,0,-28.0,
2142.0,2236.0,0,-28.0,
2218.0,2156.0,1.858885,-28.0,
2260.0,1995.0,0,-28.0,
2218.0,2044.0,0,-28.0,
2194.0,2138.0,0,-28.0,
2123.0,2072.0,0,-28.0,
2089.0,2099.0,0,-28.0,
1985.0,2194.0,0,-28.0,
2036.0,2136.0,0,-28.0,
2166.0,2086.0,0,-28.0,
2188.0,1889.0,0,-28.0,
2113.0,1810.0,1.85756,-28.0,
1955.0,2091.0,0,-28.0,
1900.0,2269.0,0,-28.0,
2092.0,2274.0,0,-28.0,
2342.0,2183.0,0,-28.0,
2081.0,2072.0,1.852525,-28.0,
1782.0,1908.0,0,-28.0,
1981.0,2004.0,0,-28.0,
2358.0,1864.0,1.848565,-28.0,
2413.0,2064.0,0,-28.0,
2251.0,2121.0,0,-28.0,
2114.0,2209.0,0,-28.0,
2094.0,2260.0,0,-28.0,
2043.0,2364.0,0,-28.0,
2222.0,2377.0,0,-28.0,
2075.0,2213.0,0,-28.0,
1985.0,1945.0,0,-28.0,
2037.0,1779.0,1.851605,-28.0,
2249.0,1839.0,0,-28.0,
2281.0,1948.0,0,-28.0,
2182.0,1970.0,0,-28.0,
2238.0,1975.0,0,-28.0,
2244.0,2072.0,0,-28.0,
2296.0,2362.0,1.862215,-28.0,
2133.0,2225.0,0,-28.0,
1968.0,2118.0,0,-28.0,
1851.0,2140.0,0,-28.0,
1742.0,2005.0,0,-28.0,
2009.0,2094.0,1.876155,-28.0,
2186.0,2088.0,0,-28.0,
2241.0,2086.0,0,-28.0,
2149.0,2190.0,0,-28.0,
2133.0,2223.0,1.88936,-28.0,
2139.0,2255.0,0,-28.0,
2212.0,2048.0,0,-28.0,
2034.0,2097.0,0,-28.0,
2040.0,2112.0,0,-28.0,
2142.0,2133.0,0,-28.0,
2248.0,2174.0,0,-28.0,
1976.0,2122.0,0,-28.0,
1863.0,2117.0,0,-28.0,
1974.0,1997.0,1.897535,-28.0,
2309.0,2155.0,0,-28.0,
2500.0,1974.0,0,-28.0,
2342.0,2004.0,0,-28.0,
2049.0,2177.0,0,-28.0,
2104.0,2209.0,1.89908,-28.0,
2164.0,2155.0,0,-28.0,
2097.0,2321.0,0,-28.0,
2180.0,2423.0,0,-28.0,
2069.0,2285.0,1.894025,-28.0,
2059.0,2013.0,0,-28.0,
2108.0,1794.0,0,-28.0,
2219.0,2010.0,0,-28.0,
2124.0,1928.0,0,-28.0,
2128.0,1780.0,1.885025,-28.0,
2136.0,1818.0,0,-28.0,
2057.0,2090.0,0,-28.0,
1916.0,2218.0,0,-28.0,
1905.0,2132.0,0,-28.0,
2184.0,2286.0,0,-28.0,
2259.0,2455.0,0,-28.0,
2051.0,2006.0,0,-28.0,
2150.0,1913.0,0,-28.0,
2145.0,1891.0,1.88123,-28.0,
2301.0,1693.0,0,-28.0,
2019.0,1907.0,0,-28.0,
2026.0,2301.0,0,-28.0,
2025.0,2131.0,0,-28.0,
2099.0,1824.0,1.89049,-28.0,
2283.0,2082.0,0,-28.0,
2286.0,2096.0,0,-28.0,
2080.0,2130.0,0,-28.0,
2027.0,2325.0,0,-28.0,
1927.0,2341.0,1.912325,-28.0,
2119.0,2139.0,0,-28.0,
2036.0,2023.0,0,-28.0,
1984.0,2121.0,0,-28.0,
2223.0,2275.0,1.939415,-28.0,
2286.0,2179.0,0,-28.0,
2204.0,2193.0,0,-28.0,
2125.0,2089.0,0,-28.0,
2144.0,2074.0,0,-28.0,
2153.0,2148.0,0,-28.0,
2167.0,2023.0,0,-28.0,
2094.0,1934.0,0,-28.0,
2137.0,2145.0,1.96283,-29.0,
2058.0,2208.0,0,-29.0,
2080.0,2244.0,0,-29.0,
1893.0,2013.0,0,-29.0,
1936.0,1975.0,0,-29.0,
2142.0,2123.0,0,-29.0,
2194.0,2365.0,1.97849,-29.0,
2337.0,2345.0,0,-29.0,
2196.0,2230.0,0,-29.0,
2526.0,1794.0,0,-28.0,
2330.0,1845.0,0,-28.0,
1986.0,1969.0,0,-28.0,
2030.0,2100.0,1.98468,-28.0,
2166.0,2180.0,0,-28.0,
2358.0,2028.0,0,-28.0,
2254.0,2049.0,1.98701,-28.0,
1840.0,1971.0,0,-28.0,
1974.0,2031.0,0,-28.0,
2071.0,2108.0,0,-28.0,
1957.0,2004.0,0,-28.0,
2090.0,2007.0,0,0,
2196.0,2119.0,1.99404,-28.0,
2221.0,2117.0,0,-28.0,
1956.0,2064.0,0,-28.0,
1738.0,2036.0,0,-28.0,
1860.0,1888.0,0,-28.0,
1867.0,2017.0,0,-28.0,
2018.0,2412.0,0,-28.0,
2230.0,2360.0,0,-29.0,
2229.0,2212.0,0,-29.0,
2126.0,1981.0,2.00563,-29.0,
2301.0,2238.0,0,-29.0,
2414.0,2023.0,0,-29.0,
2351.0,2160.0,0,-29.0,
2392.0,2207.0,2.024035,-29.0,
2324.0,2080.0,0,-29.0,
2134.0,1947.0,0,-29.0,
2067.0,1977.0,0,-29.0,
2104.0,1961.0,0,-28.0,
2042.0,2001.0,2.046515,-28.0,
2086.0,2085.0,0,-28.0,
2041.0,2261.0,0,-28.0,
2113.0,2235.0,0,-28.0,
2192.0,2285.0,2.068645,-28.0,
2005.0,2122.0,0,-28.0,
2227.0,2165.0,0,-28.0,
2324.0,2057.0,0,-28.0,
2062.0,2219.0,0,-28.0,
2080.0,1978.0,0,-28.0,
1950.0,1838.0,0,-28.0,
1983.0,1941.0,0,-28.0,
1983.0,1921.0,0,-28.0,
1890.0,2099.0,2.09019,-28.0,
1779.0,2216.0,0,-28.0,
2021.0,2153.0,0,-28.0,
2134.0,2129.0,0,-28.0,
2424.0,2065.0,0,-28.0,
2324.0,2034.0,2.106485,-28.0,
2296.0,2039.0,0,-28.0,
2333.0,2062.0,0,-28.0,
2128.0,2266.0,0,-28.0,
2087.0,2192.0,2.11828,-28.0,
2101.0,2130.0,0,-28.0,
2266.0,2169.0,0,-28.0,
2163.0,2048.0,0,-28.0,
2029.0,2151.0,0,-28.0,
2239.0,2141.0,0,-28.0,
2249.0,1961.0,0,-28.0,
1957.0,2089.0,2.1254,-28.0,
2099.0,2170.0,0,-28.0,
2201.0,2108.0,0,-28.0,
2080.0,2104.0,0,-28.0,
2127.0,2066.0,2.126075,-28.0,
2100.0,2079.0,0,-28.0,
2035.0,2086.0,0,-28.0,
2074.0,2141.0,0,-28.0,
1937.0,2167.0,0,-28.0,
2010.0,2075.0,0,-28.0,
2140.0,2070.0,0,-28.0,
2144.0,2130.0,0,-28.0,
2081.0,2069.0,0,-28.0,
2174.0,2067.0,2.118345,-28.0,
2278.0,2109.0,0,-28.0,
2220.0,2206.0,0,-28.0,
2214.0,2204.0,0,-28.0,
2174.0,2153.0,0,-28.0,
2089.0,1962.0,2.10117,-28.0,
2106.0,2202.0,0,-28.0,
2118.0,2420.0,0,-28.0,
1913.0,2423.0,0,-28.0,
1946.0,2370.0,0,-28.0,
1963.0,2013.0,0,-28.0,
2160.0,1962.0,0,-28.0,
2201.0,1680.0,0,-28.0,
2153.0,1743.0,0,-28.0,
2273.0,1897.0,2.077455,-28.0,
2265.0,2047.0,2.05355,-28.0,
2262.0,2143.0,0,-28.0,
2071.0,2224.0,0,-28.0,
2074.0,1914.0,0,-28.0,
2085.0,2118.0,0,-28.0,
2023.0,1966.0,2.035325,-28.0,
2221.0,2012.0,0,-28.0,
2320.0,2026.0,0,-28.0,
2134.0,2073.0,0,-28.0,
2056.0,2172.0,0,-28.0,
2104.0,2171.0,0,-28.0,
2170.0,2254.0,0,-28.0,
2038.0,2356.0,0,-28.0,
1984.0,2279.0,0,-28.0,
2128.0,2229.0,2.025685,-28.0,
2003.0,2153.0,0,-28.0,
2200.0,2030.0,0,-28.0,
2257.0,2167.0,0,-28.0,
2044.0,1963.0,0,-28.0,
2102.0,2016.0,2.02424,-28.0,
2033.0,2089.0,0,-28.0,
1991.0,2122.0,0,-28.0,
1932.0,2311.0,0,-28.0,
1957.0,2005.0,0,-28.0,
2119.0,2063.0,2.02445,-28.0,
2268.0,2195.0,0,-28.0,
2274.0,2043.0,0,-28.0,
2287.0,1952.0,0,-28.0,
2209.0,1976.0,0,-28.0,
2246.0,2052.0,0,-28.0,
2264.0,2269.0,0,-28.0,
2061.0,2040.0,0,-28.0,
2083.0,2156.0,0,-28.0,
2114.0,2127.0,2.02293,-28.0,
2158.0,1852.0,2.01899,-28.0,
2118.0,1934.0,0,-28.0,
2081.0,2101.0,0,-28.0,
2047.0,2319.0,0,-28.0,
2120.0,2311.0,0,-28.0,
2287.0,2204.0,0,-28.0,
2139.0,2374.0,0,-28.0,
2197.0,2157.0,0,-28.0,
2009.0,2077.0,0,-28.0,
2018.0,1860.0,2.015935,-28.0,
2086.0,1895.0,0,-28.0,
2135.0,2028.0,0,-28.0,
1994.0,2136.0,0,-28.0,
1952.0,2161.0,0,-28.0,
2109.0,2122.0,2.0154,-28.0,
2241.0,2058.0,0,-28.0,
2196.0,2012.0,0,-28.0,
2118.0,2051.0,0,-28.0,
2088.0,1990.0,0,-28.0,
2036.0,2161.0,0,-28.0,
2131.0,2230.0,2.015925,-28.0,
2159.0,2175.0,0,-28.0,
2112.0,2208.0,0,-28.0,
2042.0,2240.0,0,-28.0,
1922.0,2067.0,0,-28.0,
2071.0,2120.0,2.015375,-28.0,
2216.0,2001.0,0,-28.0,
2396.0,2027.0,0,-28.0,
2229.0,1964.0,0,-28.0,
2180.0,2149.0,0,-27.0,
2002.0,2167.0,2.013365,-27.0,
2002.0,2243.0,0,-27.0,
2245.0,2171.0,0,-27.0,
2294.0,2044.0,0,-27.0,
2255.0,2191.0,0,-28.0,
2252.0,2100.0,0,-28.0,
2079.0,1965.0,0,-28.0,
2034.0,2222.0,0,-28.0,
2028.0,1946.0,0,-28.0,
2118.0,1759.0,2.00841,-28.0,
2231.0,1872.0,0,-28.0,
2045.0,2247.0,0,-28.0,
1971.0,2259.0,0,-28.0,
1976.0,2181.0,2.00683,-28.0,
2104.0,2251.0,0,-28.0,
2124.0,2145.0,0,-28.0,
2120.0,2182.0,0,-28.0,
2038.0,2151.0,0,-28.0,
2115.0,2076.0,2.010265,-28.0,
2118.0,2170.0,0,-28.0,
2095.0,2090.0,0,-28.0,
2124.0,2025.0,0,-28.0,
2046.0,1979.0,0,-28.0,
2247.0,2010.0,0,-28.0,
2288.0,1996.0,2.012875,-28.0,
2159.0,1995.0,0,-28.0,
2112.0,2115.0,0,-28.0,
2065.0,2157.0,0,-28.0,
2099.0,2129.0,2.011265,-28.0,
1941.0,2227.0,0,-28.0,
1862.0,2132.0,0,-28.0,
2030.0,2276.0,0,-28.0,
2336.0,2343.0,0,-28.0,
2665.0,2119.0,0,-28.0,
2251.0,2121.0,0,-28.0,
1880.0,1870.0,0,-28.0,
2163.0,1679.0,0,-28.0,
2224.0,1826.0,0,-28.0,
2148.0,2149.0,2.006615,-28.0,
2026.0,2197.0,0,-28.0,
1961.0,2004.0,0,-28.0,
2026.0,2072.0,0,-28.0,
2180.0,2121.0,2.000495,-28.0,
2157.0,2114.0,0,-28.0,
2131.0,2258.0,0,-28.0,
2092.0,2310.0,0,-28.0,
2077.0,2305.0,1.99714,-28.0,
2024.0,2233.0,0,-28.0,
2271.0,2009.0,0,-28.0,
2251.0,1793.0,0,-28.0,
2167.0,2065.0,0,-28.0,
2215.0,2063.0,0,-28.0,
2075.0,2306.0,0,-28.0,
2024.0,2472.0,0,-28.0,
1943.0,2173.0,0,-28.0,
1948.0,2085.0,1.99693,-28.0,
1961.0,2031.0,0,-28.0,
2087.0,1923.0,0,-28.0,
2373.0,1953.0,0,-28.0,
2513.0,1888.0,0,-28.0,
2238.0,1876.0,0,-28.0,
2161.0,1993.0,1.99675,-28.0,
2124.0,2047.0,0,-28.0,
2257.0,2136.0,0,-28.0,
2110.0,2107.0,1.997615,-28.0,
2092.0,2339.0,0,-28.0,
2003.0,2335.0,0,-28.0,
2119.0,2282.0,0,-28.0,
2170.0,2045.0,0,-28.0,
1902.0,1905.0,0,-28.0,
2038.0,1895.0,1.999115,-28.0,
2145.0,2179.0,0,-28.0,
2099.0,2146.0,0,-28.0,
2095.0,2067.0,0,-28.0,
1988.0,1880.0,0,-28.0,
2079.0,1896.0,0,-28.0,
2106.0,2193.0,0,-28.0,
2153.0,2162.0,0,-28.0,
2314.0,2098.0,0,-28.0,
2176.0,2225.0,1.99748,-28.0,
2237.0,2175.0,0,-28.0,
2133.0,2162.0,0,-28.0,
1885.0,2378.0,0,-28.0,
1894.0,2239.0,0,-28.0,
2065.0,2172.0,0,-28.0,
2223.0,2099.0,1.99855,-28.0,
2239.0,1866.0,0,-28.0,
2274.0,2026.0,0,-28.0,
2093.0,1751.0,0,-28.0,
2222.0,1855.0,2.004815,-28.0,
2169.0,2081.0,0,-28.0,
2044.0,2116.0,0,-28.0,
1995.0,2206.0,0,-28.0,
2096.0,2383.0,0,-28.0,
2292.0,2282.0,2.01034,-28.0,
2378.0,2262.0,0,-28.0,
2450.0,2187.0,0,-28.0,
2279.0,2251.0,0,-28.0,
2161.0,2045.0,0,-28.0,
1852.0,1833.0,2.013135,-28.0,
1956.0,1739.0,0,-28.0,
2166.0,1919.0,0,-28.0,
2132.0,2141.0,0,-28.0,
1904.0,2036.0,0,-28.0,
1932.0,2101.0,0,-28.0,
2005.0,1956.0,0,-28.0,
2270.0,2294.0,0,-28.0,
2284.0,2427.0,2.01325,-28.0,
2034.0,2305.0,0,-28.0,
1846.0,1866.0,0,-28.0,
1692.0,1890.0,0,-28.0,
1778.0,1999.0,0,-28.0,
2030.0,2117.0,2.014505,-28.0,
2561.0,2011.0,2.019185,-28.0,
2528.0,1832.0,2.029825,-28.0,
2459.0,1940.0,0,-28.0,
2217.0,2144.0,0,-28.0,
2013.0,2333.0,0,-28.0,
1939.0,2206.0,0,-28.0,
2071.0,2157.0,0,-28.0,
2460.0,2183.0,0,-28.0,
2440.0,2143.0,0,-28.0,
2142.0,2171.0,0,-28.0,
2080.0,2074.0,0,-28.0,
2004.0,2051.0,0,-28.0,
1843.0,1974.0,0,-28.0,
2128.0,1970.0,0,-28.0,
2080.0,2136.0,2.04158,-28.0,
2098.0,2322.0,0,-28.0,
2084.0,2242.0,0,-28.0,
2067.0,2228.0,0,-28.0,
2134.0,2022.0,0,-28.0,
2097.0,2200.0,0,-28.0,
2108.0,2134.0,0,-28.0,
2055.0,2110.0,0,-28.0,
2013.0,2221.0,2.04846,-28.0,
2011.0,1905.0,0,-28.0,
2193.0,2007.0,0,-28.0,
2242.0,2070.0,0,-28.0,
2138.0,2099.0,0,-28.0,
2163.0,2079.0,0,-28.0,
1789.0,2001.0,2.05016,-28.0,
1780.0,2003.0,0,-28.0,
2060.0,2050.0,0,-28.0,
2466.0,2105.0,0,-28.0,
2406.0,2119.0,0,-28.0,
2160.0,2334.0,0,-28.0,
2262.0,2402.0,2.04902,-28.0,
2231.0,2357.0,0,-28.0,
2406.0,1972.0,0,-28.0,
2155.0,2005.0,0,-28.0,
2246.0,1618.0,0,-28.0,
2044.0,1591.0,0,-28.0,
2004.0,1931.0,2.04864,-28.0,
2035.0,2038.0,0,-28.0,
1929.0,2001.0,0,-28.0,
2065.0,2073.0,0,-28.0,
2073.0,2168.0,2.05174,-28.0,
2012.0,2414.0,0,-28.0,
2129.0,2390.0,0,-28.0,
2105.0,2262.0,0,-28.0,
2023.0,2255.0,0,-28.0,
2180.0,2246.0,0,-28.0,
2217.0,2186.0,2.06483,-28.0,
2116.0,2074.0,0,-28.0,
2101.0,1935.0,0,-28.0,
2046.0,1980.0,0,-28.0,
1872.0,2110.0,2.084645,-28.0,
2014.0,2030.0,2.10026,-28.0,
2183.0,1996.0,2.107835,-28.0,
2412.0,2101.0,0,-28.0,
2380.0,2089.0,0,-28.0,
2262.0,2093.0,0,-28.0,
2168.0,2138.0,0,-28.0,
1993.0,2162.0,0,-28.0,
2099.0,2063.0,0,-28.0,
2193.0,2056.0,0,-28.0,
1997.0,2276.0,0,-28.0,
2294.0,2251.0,0,-28.0,
2256.0,2192.0,0,-28.0,
2102.0,2146.0,0,-28.0,
2201.0,2118.0,0,-28.0,
2087.0,2122.0,0,-28.0,
1904.0,2030.0,0,-28.0,
2004.0,2079.0,0,-28.0,
1970.0,1848.0,0,-28.0,
2088.0,1931.0,0,-28.0,
2018.0,2032.0,0,-28.0,
2063.0,2108.0,0,-28.0,
2160.0,2200.0,2.106055,-28.0,
2026.0,2212.0,0,-28.0,
2238.0,2026.0,0,-28.0,
2216.0,1969.0,0,-28.0,
2044.0,2021.0,2.098405,-28.0,
2058.0,2204.0,0,-28.0,
2054.0,2030.0,0,-28.0,
1952.0,2096.0,0,-28.0,
2065.0,2039.0,0,-28.0,
2289.0,2246.0,0,-28.0,
2185.0,2111.0,2.0927,-28.0,
2343.0,2242.0,0,-28.0,
2239.0,1957.0,0,-28.0,
2335.0,1745.0,0,-28.0,
2312.0,1907.0,0,-28.0,
2122.0,2159.0,0,-28.0,
2125.0,2369.0,2.091965,-28.0,
2104.0,2183.0,0,-28.0,
2012.0,2088.0,0,-28.0,
2001.0,2163.0,0,-28.0,
2026.0,2192.0,0,-28.0,
2040.0,2100.0,2.0981,-28.0,
2076.0,2213.0,0,-28.0,
2151.0,2107.0,0,-28.0,
2225.0,2078.0,0,-28.0,
2162.0,2045.0,0,-28.0,
2099.0,2107.0,0,-28.0,
1949.0,1949.0,0,-28.0,
2021.0,1772.0,0,-28.0,
2053.0,2024.0,2.10974,-28.0,
2023.0,2187.0,0,-28.0,
1972.0,2180.0,0,-28.0,
2262.0,2099.0,0,-28.0,
2219.0,2199.0,0,-28.0,
2093.0,2078.0,0,0,
2054.0,2228.0,2.12191,-28.0,
1947.0,2189.0,0,-28.0,
2211.0,2074.0,0,-28.0,
2322.0,2088.0,2.131375,-28.0,
2284.0,2057.0,0,-28.0,
2206.0,2360.0,0,-28.0,
2250.0,2199.0,0,-28.0,
2134.0,1969.0,0,-28.0,
1952.0,1919.0,0,-28.0,
2042.0,1930.0,2.136495,-28.0,
2036.0,2038.0,0,-28.0,
2256.0,2119.0,0,-28.0,
2013.0,2165.0,0,-28.0,
2152.0,2111.0,0,-28.0,
2401.0,2109.0,2.13638,-28.0,
2289.0,2118.0,0,-28.0,
2259.0,2228.0,0,-28.0,
2216.0,2275.0,0,-28.0,
1797.0,2024.0,0,-28.0,
2009.0,1993.0,0,-28.0,
2077.0,1962.0,0,-28.0,
2093.0,2192.0,0,-28.0,
2050.0,2373.0,0,-28.0,
2201.0,2144.0,2.13264,-28.0,
2117.0,1952.0,0,-28.0,
2076.0,1690.0,0,-28.0,
1914.0,2076.0,0,-28.0,
2004.0,2164.0,2.128355,-28.0,
2093.0,2538.0,0,-28.0,
1723.0,2228.0,0,-28.0,
1965.0,2071.0,0,-28.0,
2398.0,1869.0,0,-28.0,
2353.0,1940.0,2.124615,-28.0,
2085.0,1964.0,0,-28.0,
2283.0,1949.0,0,-28.0,
2395.0,1917.0,0,-28.0,
2482.0,2051.0,2.123715,-28.0,
2214.0,2102.0,0,-28.0,
1913.0,2141.0,0,-28.0,
1852.0,2333.0,0,-28.0,
1900.0,2230.0,0,-28.0,
2073.0,2074.0,0,-28.0,
2381.0,2068.0,0,-28.0,
2330.0,2024.0,0,-28.0,
2212.0,2298.0,0,-28.0,
2283.0,2166.0,0,-28.0,
2108.0,2119.0,2.12708,-28.0,
2040.0,1978.0,0,-28.0,
2033.0,1951.0,0,-28.0,
2103.0,2008.0,0,-28.0,
2096.0,2142.0,2.131915,-28.0,
2123.0,2226.0,0,-28.0,
2015.0,2185.0,0,-28.0,
2104.0,2015.0,0,-28.0,
2052.0,1935.0,0,-28.0,
2044.0,2051.0,2.136905,-28.0,
2098.0,2198.0,0,-28.0,
2299.0,2349.0,0,-28.0,
2407.0,2191.0,0,-28.0,
2003.0,2037.0,0,-28.0,
1668.0,1788.0,0,-28.0,
1594.0,1895.0,0,-28.0,
1963.0,2153.0,0,-28.0,
2539.0,2243.0,0,-28.0,
2501.0,2232.0,2.139995,-28.0,
2296.0,2220.0,2.139125,-28.0,
2169.0,2086.0,0,-28.0,
2080.0,1924.0,0,-28.0,
2041.0,2108.0,0,-28.0,
2043.0,2177.0,0,-28.0,
2031.0,1968.0,0,-28.0,
2095.0,2070.0,0,-28.0,
2149.0,2226.0,0,-28.0,
2208.0,1971.0,0,-28.0,
2310.0,2005.0,0,-28.0,
2347.0,2044.0,2.135365,-28.0,
2195.0,2219.0,0,-28.0,
2072.0,2240.0,0,-28.0,
2042.0,2296.0,0,-28.0,
2229.0,2145.0,0,-28.0,
2111.0,1941.0,2.131425,-28.0,
2080.0,2012.0,0,-28.0,
1978.0,2278.0,0,-28.0,
2084.0,2144.0,0,-28.0,
1958.0,1980.0,0,-28.0,
2045.0,2160.0,2.12971,-28.0,
2090.0,2096.0,0,-28.0,
2299.0,1969.0,0,-28.0,
2088.0,1987.0,0,-28.0,
1968.0,2027.0,2.1327,-28.0,
2166.0,2276.0,0,-28.0,
2386.0,2063.0,0,-28.0,
2273.0,1985.0,0,-28.0,
2187.0,2123.0,0,-28.0,
1916.0,2203.0,0,-28.0,
1994.0,1966.0,0,-28.0,
2002.0,2037.0,0,-28.0,
1986.0,2135.0,0,-28.0,
2046.0,2146.0,2.13769,-28.0,
2120.0,2200.0,0,-28.0,
2242.0,2147.0,0,-28.0,
2133.0,2363.0,0,-28.0,
2002.0,2305.0,0,-28.0,
2001.0,2043.0,0,-28.0,
2066.0,2057.0,2.14057,-28.0,
2180.0,2127.0,0,-28.0,
2137.0,2098.0,0,-28.0,
2093.0,2151.0,0,-28.0,
2256.0,2242.0,0,-28.0,
2331.0,2034.0,2.140045,-28.0,
2342.0,1883.0,0,-28.0,
2281.0,2002.0,0,-28.0,
2300.0,1949.0,0,-28.0,
2092.0,1902.0,0,-28.0,
2023.0,1902.0,2.13899,-28.0,
2050.0,2011.0,0,-28.0,
2117.0,2198.0,0,-28.0,
2080.0,2158.0,0,-28.0,
2047.0,2207.0,0,-28.0,
2189.0,2274.0,2.13727,-28.0,
2117.0,2044.0,0,-28.0,
2004.0,1908.0,0,-28.0,
1918.0,2155.0,0,-28.0,
1806.0,2149.0,0,-28.0,
2147.0,2134.0,2.13271,-28.0,
2578.0,2207.0,0,-28.0,
2437.0,2080.0,0,-28.0,
2328.0,2102.0,0,-28.0,
2151.0,2197.0,0,-28.0,
1962.0,2066.0,2.12924,-28.0,
1804.0,1981.0,0,-28.0,
1924.0,1992.0,0,-28.0,
2116.0,1975.0,0,-28.0,
2092.0,2057.0,0,-28.0,
1986.0,2169.0,2.128925,-28.0,
2067.0,2152.0,0,-28.0,
2035.0,2065.0,0,-28.0,
2007.0,2114.0,0,-28.0,
2089.0,2274.0,0,-28.0,
2206.0,2297.0,0,-28.0,
2432.0,2438.0,2.128995,-28.0,
2220.0,2210.0,0,-28.0,
2142.0,2091.0,0,-28.0,
2178.0,1917.0,0,-28.0,
2022.0,1925.0,0,-28.0,
2090.0,2006.0,0,-28.0,
2106.0,2121.0,0,-28.0,
2222.0,2071.0,0,-28.0,
2320.0,2110.0,0,-28.0,
2130.0,2191.0,0,-28.0,
2026.0,2185.0,0,-28.0,
2018.0,2381.0,2.12614,-28.0,
2263.0,1985.0,0,-28.0,
2292.0,1967.0,0,-28.0,
2067.0,2009.0,0,-28.0,
1953.0,1993.0,0,-28.0,
2058.0,1868.0,2.1225,-28.0,
2051.0,1983.0,0,-28.0,
2117.0,2072.0,0,-28.0,
2131.0,2129.0,0,-28.0,
1976.0,2148.0,0,-28.0,
2014.0,2067.0,2.117085,-28.0,
2214.0,2045.0,0,-28.0,
2386.0,2090.0,0,-28.0,
2491.0,2147.0,0,-28.0,
2142.0,2087.0,2.10664,-28.0,
2149.0,2209.0,0,-28.0,
1976.0,2148.0,0,-28.0,
1838.0,2141.0,0,-28.0,
1823.0,2103.0,0,-28.0,
2112.0,2075.0,2.092505,-28.0,
2255.0,2084.0,0,-28.0,
2251.0,2110.0,0,-28.0,
2105.0,2134.0,0,-28.0,
1924.0,2179.0,0,-28.0,
2039.0,2236.0,0,-28.0,
2179.0,2189.0,0,-28.0,
2244.0,2060.0,0,-28.0,
2219.0,2098.0,0,-28.0,
2214.0,2141.0,0,-28.0,
2157.0,2066.0,2.07426,-28.0,
2067.0,2030.0,0,-28.0,
2137.0,2156.0,0,-28.0,
2134.0,2278.0,0,-28.0,
2117.0,2150.0,2.051745,-28.0,
2096.0,2067.0,0,-28.0,
2092.0,1927.0,0,-28.0,
2103.0,2111.0,0,-28.0,
2116.0,2051.0,0,-28.0,
2102.0,2262.0,0,-28.0,
2126.0,2267.0,2.02522,-28.0,
2180.0,2114.0,0,-28.0,
2203.0,1996.0,0,-28.0,
2060.0,2015.0,0,-28.0,
2029.0,2021.0,1.993505,-28.0,
2114.0,2061.0,0,-28.0,
2132.0,2004.0,0,-28.0,
2150.0,2093.0,0,-28.0,
2151.0,2147.0,0,-28.0,
2139.0,2135.0,1.95825,-28.0,
2130.0,2114.0,0,-28.0,
2094.0,2033.0,0,-28.0,
2069.0,1965.0,0,-28.0,
2164.0,2227.0,0,-28.0,
2129.0,2271.0,1.917915,-28.0,
2051.0,2129.0,0,-28.0,
2196.0,1909.0,0,-28.0,
2185.0,2103.0,0,-28.0,
2122.0,1974.0,0,-28.0,
2084.0,2068.0,0,-28.0,
2106.0,2170.0,0,-28.0,
2128.0,2159.0,0,-28.0,
2078.0,2164.0,0,-28.0,
2062.0,2089.0,0,-28.0,
2141.0,2065.0,1.870205,-28.0,
2162.0,2077.0,0,-28.0,
2188.0,2109.0,0,-28.0,
2230.0,2140.0,0,-28.0,
2153.0,2084.0,0,-28.0,
2056.0,2099.0,1.813175,-28.0,
2073.0,2195.0,0,-28.0,
2051.0,2110.0,0,-28.0,
2082.0,2015.0,0,-28.0,
2187.0,2081.0,0,-28.0,
2093.0,2110.0,1.74337,-28.0,
2082.0,2230.0,0,-28.0,
2106.0,2186.0,0,-28.0,
2084.0,2061.0,0,-28.0,
2122.0,2035.0,1.66,-28.0,
2147.0,2025.0,0,-28.0,
2153.0,2012.0,0,-28.0,
2116.0,2003.0,0,-28.0,
2149.0,2153.0,0,-28.0,
2089.0,2260.0,1.56657,-28.0,
2167.0,2016.0,0,-28.0,
2225.0,2144.0,0,-28.0,
2129.0,2177.0,0,-28.0,
2180.0,2105.0,0,-28.0,
2175.0,2092.0,0,-28.0,
2128.0,2163.0,0,-28.0,
2055.0,2255.0,0,-28.0,
2096.0,2301.0,0,-28.0,
2091.0,2192.0,0,-28.0,
2057.0,2098.0,0,-28.0,
2100.0,2103.0,1.47595,-28.0,
2114.0,2056.0,0,-28.0,
2179.0,1978.0,0,-28.0,
2169.0,2089.0,0,-28.0,
2137.0,2051.0,0,-28.0,
2214.0,1793.0,1.398475,-28.0,
2244.0,2141.0,0,-28.0,
2208.0,2053.0,0,-28.0,
2190.0,2098.0,0,-28.0,
1997.0,2019.0,1.332875,-28.0,
1727.0,2012.0,0,-28.0,
1760.0,2029.0,0,-28.0,
1933.0,2004.0,0,-27.0,
2165.0,2080.0,0,-27.0,
2235.0,2024.0,1.27162,-27.0,
2465.0,2117.0,0,-27.0,
2419.0,2160.0,0,-27.0,
2293.0,1975.0,0,-27.0,
2165.0,1984.0,1.21158,-27.0,
2068.0,2147.0,0,-27.0,
2020.0,2154.0,0,-27.0,
2050.0,2136.0,0,-27.0,
2126.0,2056.0,0,-27.0,
2107.0,2127.0,0,-27.0,
2038.0,2196.0,1.15278,-27.0,
2023.0,2220.0,0,-27.0,
2078.0,2202.0,0,-27.0,
2140.0,2124.0,0,-27.0,
2206.0,2267.0,0,-27.0,
2153.0,2262.0,0,-27.0,
2157.0,2190.0,0,-28.0,
2138.0,2090.0,0,-28.0,
2104.0,1848.0,0,-28.0,
2151.0,2093.0,1.094065,-28.0,
2118.0,2098.0,0,-28.0,
2092.0,2085.0,0,-28.0,
2138.0,2091.0,0,-28.0,
2100.0,2082.0,0,-28.0,
2126.0,2164.0,0,-28.0,
2135.0,2172.0,1.029055,-28.0,
2126.0,2144.0,0,-28.0,
2140.0,2044.0,0,-28.0,
2095.0,1885.0,0,-28.0,
2154.0,1930.0,0,-28.0,
2099.0,1945.0,0.95511,-27.0,
2104.0,2057.0,0,-28.0,
2116.0,2247.0,0,-28.0,
2123.0,2272.0,0,-28.0,
2116.0,2336.0,0,-28.0,
2156.0,2174.0,0,-28.0,
2151.0,2021.0,0,-28.0,
2096.0,1833.0,0,-28.0,
2130.0,1955.0,0.87764,-28.0,
2134.0,2040.0,0,-28.0,
2122.0,2180.0,0,-28.0,
2113.0,2332.0,0,-28.0,
2075.0,2281.0,0,-28.0,
2043.0,2180.0,0.804365,-28.0,
2123.0,2200.0,0,-28.0,
2202.0,2168.0,0,-28.0,
2287.0,2030.0,0,-28.0,
2139.0,2042.0,0,-28.0,
2108.0,1877.0,0.7462,-28.0,
2079.0,1993.0,0,-28.0,
2008.0,2146.0,0,-28.0,
2000.0,2056.0,0,-28.0,
2110.0,2055.0,0.707935,-28.0,
2046.0,2116.0,0,-28.0,
2123.0,2140.0,0,-28.0,
2153.0,2141.0,0,-28.0,
2180.0,2048.0,0,-28.0,
2134.0,2076.0,0,-28.0,
2114.0,2206.0,0.682585,-28.0,
2081.0,2119.0,0,-28.0,
1982.0,2120.0,0,-28.0,
2051.0,2099.0,0,-28.0,
2194.0,1953.0,0,-28.0,
2216.0,2046.0,0,-28.0,
2409.0,2071.0,0,-28.0,
2141.0,2159.0,0,-28.0,
2106.0,2138.0,0,-28.0,
2225.0,2214.0,0.66247,-28.0,
2145.0,2139.0,0,-28.0,
2087.0,2181.0,0,-28.0,
2032.0,2169.0,0,-28.0,
2058.0,2049.0,0.643935,-28.0,
2111.0,1987.0,0,-28.0,
2181.0,2102.0,0,-28.0,
2136.0,2126.0,0,-28.0,
2079.0,1996.0,0,-28.0,
2020.0,1942.0,0.62559,-28.0,
2016.0,2085.0,0,-28.0,
2107.0,2148.0,0,-28.0,
2132.0,2149.0,0,-28.0,
2203.0,2164.0,0.60652,-28.0,
2240.0,2137.0,0,-28.0,
2127.0,2105.0,0,-28.0,
2088.0,2088.0,0,-28.0,
2112.0,2105.0,0,-28.0,
2146.0,2138.0,0,-28.0,
2029.0,2144.0,0,-28.0,
2146.0,2184.0,0,-28.0,
2181.0,2127.0,0,-28.0,
2085.0,2075.0,0.58469,-28.0,
1982.0,2113.0,0,-28.0,
2021.0,2093.0,0,-28.0,
2167.0,2051.0,0,-28.0,
2259.0,2042.0,0,-28.0,
2175.0,2123.0,0.56011,-28.0,
2121.0,2154.0,0,-27.0,
2118.0,2136.0,0,-27.0,
2081.0,2075.0,0,-27.0,
2068.0,2066.0,0.53173,-27.0,
2183.0,2028.0,0,-27.0,
2189.0,2070.0,0,-27.0,
2226.0,2065.0,0,-27.0,
2252.0,2087.0,0,-27.0,
2313.0,2144.0,0,-27.0,
2168.0,2164.0,0,-27.0,
1955.0,2218.0,0,-27.0,
1852.0,2203.0,0,-27.0,
1989.0,2000.0,0.501215,-28.0,
2004.0,2001.0,0,-28.0,
2184.0,2014.0,0,-28.0,
2110.0,1899.0,0,-28.0,
2077.0,2079.0,0,-28.0,
2048.0,2119.0,0.47157,-28.0,
2093.0,2132.0,0,-28.0,
2243.0,2111.0,0,-28.0,
2264.0,2201.0,0,-28.0,
2293.0,2333.0,0.4451,-28.0,
2192.0,2269.0,0,-28.0,
2106.0,2054.0,0,-28.0,
2071.0,1844.0,0,-28.0,
2067.0,1988.0,0,-28.0,
2010.0,2135.0,0.423265,-28.0,
1995.0,2213.0,0,-28.0,
2042.0,2207.0,0,-28.0,
2033.0,1982.0,0,-28.0,
2173.0,2108.0,0,-28.0,
2158.0,2011.0,0,-28.0,
2129.0,2060.0,0.40678,-28.0,
2273.0,1992.0,0,-28.0,
2286.0,2107.0,0,-28.0,
2136.0,2124.0,0,-28.0,
2190.0,2127.0,0,-28.0,
2168.0,2136.0,0,-28.0,
2169.0,2132.0,0,-28.0,
2117.0,2161.0,0,-28.0,
2150.0,2170.0,0,-28.0,
2086.0,2087.0,0.39519,-28.0,
2059.0,2078.0,0,-28.0,
2104.0,2008.0,0,-28.0,
2110.0,2088.0,0,-28.0,
2060.0,2091.0,0,-28.0,
2063.0,2109.0,0.383255,-28.0,
2074.0,2186.0,0,-28.0,
2063.0,2126.0,0,-28.0,
2095.0,2125.0,0,-28.0,
2151.0,2152.0,0,-28.0,
2263.0,2158.0,0.37128,-28.0,
2261.0,2124.0,0,-28.0,
2089.0,2036.0,0,-28.0,
1994.0,2050.0,0,-28.0,
2054.0,2101.0,0.35978,-28.0,
2147.0,2051.0,0,-28.0,
2216.0,2107.0,0,-28.0,
2141.0,2047.0,0,-28.0,
2143.0,2074.0,0,-28.0,
2058.0,2114.0,0,-28.0,
2128.0,2129.0,0,-28.0,
2241.0,2153.0,0,-28.0,
2285.0,2090.0,0,-28.0,
2221.0,2054.0,0.3484,-28.0,
2056.0,2103.0,0,-28.0,
2051.0,2144.0,0,-28.0,
1963.0,2170.0,0,-28.0,
1991.0,2116.0,0,-28.0,
2009.0,2149.0,0,-28.0,
2100.0,2084.0,0.337465,-28.0,
2186.0,2098.0,0,-28.0,
2140.0,2048.0,0,-28.0,
2170.0,2006.0,0,-28.0,
2112.0,2016.0,0,-28.0,
2109.0,2152.0,0,-28.0,
2136.0,2119.0,0.32738,-28.0,
2062.0,2081.0,0,-28.0,
2082.0,2005.0,0,-28.0,
2142.0,2096.0,0,-28.0,
2047.0,2147.0,0,-28.0,
2162.0,2233.0,0.31753,-28.0,
2272.0,2137.0,0,-28.0,
2172.0,2170.0,0,-28.0,
2144.0,2147.0,0,-28.0,
2166.0,2125.0,0,-28.0,
2062.0,2119.0,0.30848,-28.0,
2043.0,2059.0,0,-28.0,
2056.0,2073.0,0,-28.0,
2184.0,2076.0,0,-28.0,
2208.0,2067.0,0.301305,-28.0,
2210.0,2057.0,0,-28.0,
2166.0,2096.0,0,-28.0,
2128.0,2102.0,0,-28.0,
1964.0,2090.0,0,-28.0,
1982.0,2133.0,0,-28.0,
2059.0,2128.0,0.29477,-28.0,
2223.0,2145.0,0,-28.0,
2244.0,2131.0,0,-28.0,
2181.0,2126.0,0,-28.0,
2098.0,2100.0,0,-28.0,
2093.0,2103.0,0,-29.0,
2057.0,2068.0,0.28943,-29.0,
2085.0,2033.0,0,-29.0,
2145.0,2104.0,0,-29.0,
2253.0,2112.0,0,-29.0,
2197.0,2024.0,0.284995,-29.0,
2102.0,2021.0,0,-29.0,
1998.0,2101.0,0,-29.0,
1969.0,2135.0,0,-29.0,
2029.0,2130.0,0,-29.0,
2129.0,2095.0,0,-29.0,
2090.0,2143.0,0,-29.0,
2137.0,2155.0,0,-29.0,
2108.0,2160.0,0,-29.0,
2095.0,2140.0,0,-29.0,
2223.0,1950.0,0.279745,-29.0,
2271.0,2088.0,0,-29.0,
2340.0,2071.0,0,-29.0,
2279.0,2034.0,0,-29.0,
2115.0,2049.0,0,-29.0,
2023.0,2109.0,0.27438,-28.0,
2005.0,2100.0,0,-28.0,
1913.0,2121.0,0,-28.0,
2029.0,2091.0,0,-28.0,
2043.0,2072.0,0,-28.0,
2079.0,2126.0,0,-28.0,
2135.0,2157.0,0.270435,-28.0,
2106.0,2172.0,0,-28.0,
2152.0,2197.0,0,-28.0,
2170.0,2247.0,0,-28.0,
2427.0,2162.0,0.26664,-28.0,
2245.0,1896.0,0,-28.0,
2118.0,1920.0,0,-28.0,
2011.0,1986.0,0,-28.0,
2003.0,2078.0,0,-28.0,
2115.0,2117.0,0,-28.0,
2105.0,2084.0,0.2631,-28.0,
2168.0,2079.0,0,-28.0,
2130.0,2064.0,0,-28.0,
2130.0,2056.0,0,-28.0,
2127.0,2125.0,0.26064,-28.0,
2116.0,2105.0,0,-28.0,
2133.0,2129.0,0,-28.0,
2057.0,2113.0,0,-28.0,
2071.0,2170.0,0,-29.0,
2138.0,2125.0,0,-29.0,
2184.0,2143.0,0.258685,-29.0,
2168.0,2149.0,0,-29.0,
2095.0,2119.0,0,-29.0,
2095.0,2125.0,0,-29.0,
2075.0,2104.0,0,-29.0,
2053.0,2071.0,0,-29.0,
2133.0,2135.0,0,-29.0,
2156.0,2095.0,0,-29.0,
2134.0,2089.0,0,-29.0,
2163.0,2115.0,0,-29.0,
2129.0,2077.0,0.25588,-29.0,
2124.0,2070.0,0,-29.0,
2041.0,2027.0,0,-29.0,
2073.0,2102.0,0,-29.0,
2159.0,2111.0,0,-29.0,
2178.0,2107.0,0,-29.0,
2191.0,2121.0,0.25297,-29.0,
2136.0,2118.0,0,-29.0,
2135.0,2103.0,0,-29.0,
2086.0,2081.0,0,-29.0,
2021.0,2080.0,0.249655,-29.0,
2154.0,2105.0,0,-29.0,
2189.0,2082.0,0,-29.0,
2202.0,2096.0,0,-28.0,
2154.0,2087.0,0,-28.0,
2065.0,2124.0,0,-28.0,
1993.0,2143.0,0.24681,-28.0,
2084.0,2094.0,0,-28.0,
2145.0,2106.0,0,-28.0,
2241.0,2082.0,0,-28.0,
2200.0,2102.0,0,-28.0,
2112.0,2095.0,0,-28.0,
2157.0,2097.0,0,-28.0,
2194.0,2117.0,0.24476,-28.0,
2199.0,2101.0,0.24275,-28.0,
2119.0,2087.0,0,-28.0,
2074.0,2106.0,0,-28.0,
2120.0,2104.0,0,-28.0,
2197.0,2112.0,0,-28.0,
2114.0,2148.0,0,-28.0,
2080.0,2104.0,0,-28.0,
1940.0,2152.0,0.24069,-28.0,
1814.0,2040.0,0,-28.0,
1913.0,2016.0,0,-28.0,
2058.0,2021.0,0,-28.0,
2166.0,2070.0,0,-28.0,
2308.0,2100.0,0,-28.0,
2229.0,2113.0,0,-28.0,
2146.0,2095.0,0.23927,-28.0,
2127.0,2123.0,0.237945,-28.0,
2119.0,2098.0,0.23601,-28.0,
2245.0,2109.0,0.23358,-28.0,
2040.0,2083.0,0.231285,-28.0,
2082.0,2090.0,0,-28.0,
2222.0,2024.0,0,-28.0,
2061.0,2077.0,0,-28.0,
2059.0,2076.0,0,-28.0,
2122.0,2135.0,0,-28.0,
2158.0,2147.0,0,-28.0,
2071.0,2169.0,0,-28.0,
2168.0,2215.0,0,-28.0,
2213.0,2161.0,0,-28.0,
2186.0,2087.0,0,-28.0,
2229.0,2005.0,0,-28.0,
2230.0,1979.0,0,-28.0,
2051.0,2061.0,0,-28.0,
2094.0,2075.0,0,-28.0,
2093.0,2106.0,0,-28.0,
2052.0,2097.0,0,-29.0,
2093.0,2112.0,0,-29.0,
2148.0,2168.0,0,-29.0,
2099.0,2114.0,0,-29.0,
2105.0,2107.0,0,-28.0,
2140.0,2129.0,0,-28.0,
2095.0,2122.0,0,-28.0,
2036.0,2100.0,0,-28.0,
2075.0,2070.0,0.22906,-28.0,
2103.0,2095.0,0,-28.0,
2094.0,2117.0,0,-28.0,
2182.0,2105.0,0,-28.0,
2235.0,2121.0,0,-28.0,
2097.0,2117.0,0,-28.0,
2117.0,2108.0,0,-28.0,
2045.0,2122.0,0,-28.0,
2042.0,2116.0,0,-28.0,
2054.0,2135.0,0.227375,-28.0,
2137.0,2188.0,0,-28.0,
2222.0,2137.0,0,-28.0,
2230.0,2127.0,0,-28.0,
2237.0,2080.0,0.22553,-28.0,
2204.0,1977.0,0,-28.0,
2174.0,1985.0,0,-28.0,
2115.0,2066.0,0,-28.0,
1978.0,2114.0,0,-28.0,
1940.0,2097.0,0,-28.0,
2080.0,2094.0,0,-28.0,
2102.0,2096.0,0,-28.0,
2108.0,2155.0,0.224135,-28.0,
2156.0,2115.0,0,-28.0,
2191.0,2104.0,0,-28.0,
2215.0,2107.0,0,-28.0,
2238.0,2103.0,0,-28.0,
2037.0,2063.0,0.22287,-28.0,
2076.0,2157.0,0,-28.0,
2009.0,2105.0,0,-28.0,
2040.0,2073.0,0,-28.0,
2175.0,2163.0,0,-28.0,
2182.0,2161.0,0,-28.0,
2203.0,2083.0,0.22126,-28.0,
2117.0,2024.0,0,-28.0,
2067.0,2063.0,0,-28.0,
2104.0,1979.0,0,-28.0,
2191.0,2069.0,0.219855,-28.0,
2058.0,2103.0,0,-28.0,
2116.0,2094.0,0,-28.0,
2069.0,2151.0,0,-28.0,
2042.0,2086.0,0,-28.0,
2165.0,2138.0,0.217935,-28.0,
2200.0,2127.0,0,-28.0,
2184.0,2048.0,0,-28.0,
2015.0,2092.0,0,-28.0,
2085.0,2143.0,0,-28.0,
2091.0,2099.0,0.21644,-28.0,
2108.0,2091.0,0,-29.0,
2143.0,2098.0,0,-29.0,
2175.0,2117.0,0,-29.0,
2180.0,2110.0,0,-29.0,
2107.0,2124.0,0,-29.0,
2057.0,2105.0,0,-29.0,
2142.0,2111.0,0,-29.0,
2100.0,2100.0,0,-29.0,
2018.0,2130.0,0,-29.0,
2027.0,2133.0,0.21611,-29.0,
2194.0,2119.0,0,-28.0,
2249.0,2100.0,0,-28.0,
2156.0,2089.0,0,-28.0,
2089.0,2073.0,0.21602,-28.0,
2090.0,2057.0,0,-28.0,
2115.0,2056.0,0,-28.0,
2101.0,2121.0,0,-28.0,
2078.0,2128.0,0.21574,-28.0,
2053.0,2104.0,0,-28.0,
2118.0,2128.0,0,-28.0,
2112.0,2112.0,0,-28.0,
2100.0,2129.0,0,-28.0,
2079.0,2069.0,0,-28.0,
2149.0,2108.0,0,-28.0,
2136.0,2115.0,0,-28.0,
2168.0,2111.0,0,-28.0,
2191.0,2131.0,0.214575,-28.0,
2156.0,2112.0,0,-28.0,
2174.0,2110.0,0,-28.0,
2250.0,2060.0,0,-28.0,
2309.0,2037.0,0,-28.0,
2185.0,2114.0,0.213085,-28.0,
2144.0,2152.0,0,-28.0,
2012.0,2096.0,0,-28.0,
1869.0,2048.0,0,-28.0,
1980.0,2060.0,0,-28.0,
2121.0,2138.0,0.211455,-28.0,
2120.0,2218.0,0,-28.0,
2170.0,2195.0,0,-28.0,
2003.0,2197.0,0,-28.0,
1961.0,2054.0,0.210175,-28.0,
2069.0,1992.0,0,-28.0,
2065.0,1997.0,0,-28.0,
2161.0,1999.0,0,-28.0,
2229.0,2019.0,0,-28.0,
2132.0,2095.0,0,-28.0,
2124.0,2104.0,0,-28.0,
2299.0,2124.0,0,-28.0,
2273.0,2140.0,0,-28.0,
2191.0,2118.0,0,0,
2145.0,2122.0,0.209145,-28.0,
2150.0,2129.0,0,-28.0,
2104.0,2076.0,0,-28.0,
2107.0,2089.0,0,-28.0,
2050.0,2100.0,0.20835,-28.0,
2070.0,2158.0,0,-28.0,
2074.0,2122.0,0,-28.0,
2094.0,2119.0,0,-28.0,
2132.0,2101.0,0.20717,-28.0,
2179.0,2094.0,0,-28.0,
2161.0,2070.0,0,-28.0,
2142.0,2123.0,0,-28.0,
2106.0,2115.0,0,-28.0,
2074.0,2109.0,0.206575,-28.0,
2131.0,2075.0,0,-28.0,
2092.0,2043.0,0,-28.0,
1985.0,2045.0,0,-28.0,
2058.0,2119.0,0,0,
2169.0,2146.0,0,-28.0,
2180.0,2115.0,0,-28.0,
2213.0,2067.0,0,-28.0,
2142.0,2091.0,0,-28.0,
2074.0,2084.0,0.20572,-28.0,
2105.0,2138.0,0,-28.0,
2171.0,2106.0,0,-28.0,
2159.0,2100.0,0,-28.0,
2122.0,2089.0,0,0,
2126.0,2114.0,0.203835,-28.0,
2087.0,2129.0,0,-28.0,
2104.0,2124.0,0,-28.0,
2096.0,2127.0,0,-28.0,
2048.0,2142.0,0,-28.0,
2031.0,2134.0,0.202545,-29.0,
2111.0,2120.0,0,-29.0,
2165.0,2075.0,0,-29.0,
2145.0,2098.0,0,-29.0,
2162.0,2136.0,0.20186,-29.0,
2122.0,2143.0,0,-29.0,
2120.0,2117.0,0,-28.0,
2101.0,2062.0,0,-28.0,
2134.0,1960.0,0,-28.0,
2138.0,2056.0,0.201655,-28.0,
2127.0,2073.0,0,-28.0,
2177.0,2164.0,0,-28.0,
2143.0,2152.0,0,-28.0,
2100.0,2180.0,0,-28.0,
2074.0,2133.0,0,-28.0,
2007.0,2004.0,0,-28.0,
2105.0,1927.0,0,-28.0,
2195.0,2068.0,0,-28.0,
2170.0,2103.0,0,-28.0,
2063.0,2164.0,0,-28.0,
2074.0,2168.0,0,-28.0,
2080.0,2183.0,0.201935,-28.0,
2091.0,2110.0,0,-28.0,
2146.0,2066.0,0,-28.0,
2111.0,2090.0,0.203035,-28.0,
2131.0,2096.0,0,-28.0,
2136.0,2114.0,0,-28.0,
2146.0,2114.0,0,-28.0,
2143.0,2128.0,0.20345,-28.0,
2025.0,2106.0,0,-28.0,
2147.0,2067.0,0,-28.0,
2160.0,2148.0,0,-28.0,
2171.0,2100.0,0,-28.0,
2220.0,2106.0,0,-28.0,
2130.0,2029.0,0.20405,-28.0,
2135.0,2062.0,0,-28.0,
2192.0,2052.0,0,-28.0,
2198.0,2088.0,0,-28.0,
2159.0,2082.0,0,-28.0,
2066.0,2114.0,0,-28.0,
1968.0,2110.0,0,-28.0,
1965.0,2146.0,0,-28.0,
2045.0,2100.0,0,-28.0,
2164.0,2098.0,0.20451,-28.0,
2289.0,2110.0,0,-28.0,
2164.0,2128.0,0,-28.0,
2145.0,2119.0,0,-28.0,
2129.0,2096.0,0.205065,-28.0,
2098.0,2081.0,0,-28.0,
2008.0,2081.0,0,-28.0,
2088.0,2096.0,0,-28.0,
2048.0,2126.0,0,-28.0,
2131.0,2101.0,0,-28.0,
2222.0,2086.0,0.204635,-28.0,
2192.0,2097.0,0,-28.0,
2200.0,2111.0,0,-28.0,
2174.0,2025.0,0,-28.0,
2229.0,2073.0,0,-28.0,
2213.0,2045.0,0.20532,-28.0,
2116.0,2057.0,0,-28.0,
2083.0,2095.0,0,-28.0,
2047.0,2114.0,0,-28.0,
2028.0,2063.0,0.206355,-28.0,
2082.0,2100.0,0,-28.0,
2106.0,2126.0,0,-28.0,
2110.0,2095.0,0,-28.0,
2118.0,2109.0,0,-28.0,
2108.0,2137.0,0.2065,-28.0,
2123.0,2113.0,0,-28.0,
2021.0,2121.0,0,-28.0,
2109.0,2116.0,0,-28.0,
2162.0,2145.0,0,-28.0,
2203.0,2182.0,0,-28.0,
1999.0,2153.0,0,-28.0,
1980.0,2153.0,0,-28.0,
1972.0,2106.0,0,-28.0,
2093.0,2063.0,0,-28.0,
2099.0,2023.0,0.206785,-28.0,
2182.0,2053.0,0,-28.0,
2195.0,2041.0,0,-28.0,
2163.0,2097.0,0,-28.0,
2209.0,2097.0,0.207025,-28.0,
2194.0,2046.0,0,-28.0,
2182.0,2090.0,0,-28.0,
2095.0,2088.0,0,-28.0,
2160.0,2139.0,0,-28.0,
2172.0,2134.0,0,-28.0,
2083.0,2128.0,0.20704,-28.0,
2038.0,2153.0,0,-28.0,
2095.0,2111.0,0,-28.0,
2146.0,2080.0,0,-28.0,
2133.0,2093.0,0,-28.0,
2123.0,2099.0,0.207735,-28.0,
2136.0,2125.0,0,-28.0,
2099.0,2159.0,0,-28.0,
2174.0,2189.0,0,-28.0,
2139.0,2128.0,0.20779,-28.0,
2112.0,2111.0,0,-28.0,
2076.0,2023.0,0,-28.0,
2095.0,2068.0,0,-28.0,
2095.0,2081.0,0,-28.0,
2241.0,2071.0,0,-28.0,
2122.0,1947.0,0,-28.0,
2084.0,2028.0,0,-28.0,
2116.0,2112.0,0,-28.0,
2205.0,2079.0,0,-28.0,
2095.0,2145.0,0.20744,-28.0,
2050.0,2120.0,0,-28.0,
2113.0,2115.0,0,-28.0,
2225.0,2126.0,0,-28.0,
2266.0,2079.0,0,-28.0,
2233.0,2069.0,0.207635,-28.0,
2061.0,2150.0,0,-28.0,
2060.0,2132.0,0,-28.0,
2009.0,2230.0,0,-28.0,
1943.0,2151.0,0.207265,-28.0,
2026.0,2125.0,0,-28.0,
2162.0,2114.0,0,-28.0,
2324.0,2112.0,0,-28.0,
2134.0,2086.0,0,-28.0,
2069.0,2042.0,0,-28.0,
2089.0,2057.0,0,-28.0,
2089.0,2115.0,0,-28.0,
2051.0,2096.0,0,-28.0,
2118.0,2127.0,0.207835,-28.0,
2149.0,2127.0,0,-28.0,
2091.0,2155.0,0,-28.0,
2054.0,2085.0,0,-28.0,
1989.0,2127.0,0,-28.0,
2245.0,2090.0,0,-28.0,
2221.0,2000.0,0.20963,-28.0,
2104.0,2121.0,0,-28.0,
2081.0,2163.0,0,-28.0,
2201.0,2105.0,0,-28.0,
2242.0,2054.0,0,-28.0,
2132.0,2065.0,0,-28.0,
2089.0,2104.0,0.21207,-28.0,
2128.0,2012.0,0,-28.0,
2164.0,2041.0,0,-28.0,
2186.0,2033.0,0,-28.0,
2179.0,1993.0,0.21414,-28.0,
2159.0,2075.0,0,-28.0,
2114.0,2160.0,0,-28.0,
2009.0,2178.0,0,-28.0,
1962.0,2178.0,0,-28.0,
2072.0,2212.0,0.216165,-28.0,
2103.0,2152.0,0,-28.0,
2241.0,2063.0,0,-28.0,
2208.0,2070.0,0,-28.0,
2061.0,2104.0,0,-28.0,
2096.0,2145.0,0.218205,-28.0,
2068.0,2053.0,0,-28.0,
2193.0,2073.0,0,-28.0,
2251.0,2045.0,0,-28.0,
2157.0,2098.0,0,-28.0,
2142.0,2094.0,0,-28.0,
2130.0,2150.0,0,-28.0,
2050.0,2170.0,0,-28.0,
2022.0,2170.0,0,-28.0,
2025.0,2182.0,0.22007,-28.0,
2123.0,2027.0,0,-28.0,
2118.0,2091.0,0,-28.0,
2096.0,2073.0,0,-28.0,
2107.0,2113.0,0,-28.0,
2045.0,2087.0,0.2229,-28.0,
2127.0,2129.0,0,-28.0,
2037.0,2244.0,0,-28.0,
2052.0,2112.0,0,-28.0,
2071.0,2096.0,0,-28.0,
2183.0,2169.0,0.227125,-28.0,
2221.0,2001.0,0,-28.0,
2160.0,2054.0,0,-28.0,
2153.0,2075.0,0,-28.0,
2207.0,2053.0,0.235165,-28.0,
2266.0,2041.0,0,-28.0,
2254.0,2110.0,0,-28.0,
2170.0,2200.0,0,-28.0,
2015.0,2244.0,0,-28.0,
2028.0,2099.0,0,0,
2117.0,2002.0,0.249355,-28.0,
2057.0,2095.0,0,-28.0,
2074.0,2081.0,0,-28.0,
2266.0,2105.0,0,-28.0,
2234.0,2095.0,0,-28.0,
1955.0,2003.0,0,-28.0,
1929.0,2148.0,0,-28.0,
1949.0,2169.0,0,-28.0,
2157.0,2130.0,0,-28.0,
2362.0,2113.0,0.26862,-28.0,
2243.0,2108.0,0,-28.0,
2200.0,2122.0,0,-28.0,
2262.0,2236.0,0,-28.0,
2189.0,2143.0,0.29535,-28.0,
2183.0,1935.0,0,-28.0,
2070.0,1948.0,0,-28.0,
1965.0,1883.0,0,-28.0,
1782.0,1862.0,0,-28.0,
1835.0,2069.0,0.327355,-28.0,
2071.0,2132.0,0,-28.0,
2092.0,2087.0,0,-28.0,
2327.0,2070.0,0,-28.0,
2214.0,2190.0,0.36163,-28.0,
2253.0,2196.0,0,-28.0,
2293.0,2306.0,0,-28.0,
2187.0,2318.0,0,-28.0,
2123.0,2159.0,0,-28.0,
1889.0,2105.0,0,-28.0,
2131.0,1954.0,0,-28.0,
2027.0,1921.0,0,-28.0,
2099.0,2070.0,0.39978,-28.0,
2041.0,2062.0,0,-28.0,
1888.0,2212.0,0,-28.0,
1820.0,2271.0,0,-28.0,
2031.0,2221.0,0,-28.0,
2404.0,1953.0,0,0,
2499.0,1899.0,0.43905,-28.0,
2430.0,1930.0,0,-28.0,
2382.0,2035.0,0,-29.0,
2140.0,2031.0,0,-29.0,
2147.0,2224.0,0.47678,-29.0,
2031.0,2221.0,0,-29.0,
1947.0,2416.0,0,-29.0,
1974.0,2266.0,0,-29.0,
2089.0,2203.0,0,-29.0,
2143.0,2029.0,0,-29.0,
2164.0,2058.0,0,-29.0,
2011.0,1955.0,0,-29.0,
2096.0,2141.0,0,-29.0,
2163.0,2210.0,0.51275,-29.0,
2258.0,2110.0,0,-29.0,
2089.0,2012.0,0,-29.0,
1929.0,2096.0,0,-29.0,
2037.0,2199.0,0,-29.0,
2063.0,2185.0,0.550945,-29.0,
2209.0,2092.0,0,-29.0,
2281.0,1819.0,0,-29.0,
2223.0,1913.0,0,-29.0,
2081.0,2164.0,0,-29.0,
2115.0,2057.0,0.597775,-29.0,
2205.0,1997.0,0,-29.0,
2156.0,2032.0,0,-29.0,
2051.0,2099.0,0,-29.0,
2109.0,2139.0,0.65339,-29.0,
2268.0,2052.0,0,-29.0,
2428.0,2005.0,0,-29.0,
2198.0,2215.0,0,-29.0,
1906.0,2318.0,0,-29.0,
1875.0,2171.0,0,-29.0,
1730.0,2057.0,0,-29.0,
2057.0,2246.0,0,-29.0,
1974.0,2188.0,0,-29.0,
2216.0,2076.0,0,-29.0,
2474.0,2081.0,0.711715,-29.0,
2165.0,2124.0,0,-29.0,
2166.0,2043.0,0,-29.0,
2188.0,2085.0,0,-28.0,
2186.0,1956.0,0,-28.0,
2024.0,2019.0,0.7674,-28.0,
1964.0,2198.0,0,-28.0,
1975.0,2184.0,0,-28.0,
2013.0,2140.0,0,-28.0,
2019.0,2195.0,0.819435,-28.0,
2100.0,2202.0,0,-28.0,
2293.0,2292.0,0,-28.0,
2389.0,1946.0,0,-28.0,
2456.0,1935.0,0,-28.0,
2138.0,1946.0,0.866425,-28.0,
2021.0,2076.0,0,-28.0,
2134.0,2304.0,0,-28.0,
2047.0,2146.0,0,0,
2001.0,1990.0,0.909415,-28.0,
2012.0,1916.0,0,-28.0,
2085.0,2018.0,0,-28.0,
2056.0,2056.0,0,-28.0,
2098.0,2127.0,0,-28.0,
2179.0,2199.0,0,-28.0,
2208.0,2206.0,0,-28.0,
2266.0,2146.0,0,-28.0,
2149.0,2094.0,0,-28.0,
1995.0,2283.0,0,-28.0,
1970.0,2313.0,0,-28.0,
2035.0,2197.0,0.952785,-28.0,
2391.0,2024.0,0,-28.0,
2365.0,1970.0,0,-29.0,
2161.0,2002.0,0,0,
2051.0,2087.0,0.999225,-29.0,
1891.0,2090.0,0,-29.0,
2009.0,2011.0,0,-29.0,
2035.0,1947.0,0,-29.0,
2253.0,1740.0,0,-29.0,
2218.0,1870.0,0,-29.0,
2046.0,1993.0,1.046795,-29.0,
2065.0,2039.0,0,-29.0,
2087.0,2158.0,0,-29.0,
2218.0,2274.0,0,-29.0,
2286.0,2263.0,1.096925,-29.0,
2242.0,2185.0,0,-29.0,
2190.0,2213.0,0,-29.0,
2190.0,2250.0,0,-29.0,
1857.0,2190.0,0,0,
1886.0,2189.0,1.150845,-29.0,
2043.0,2268.0,0,-29.0,
2282.0,2186.0,0,-29.0,
2086.0,2208.0,0,-29.0,
2090.0,2273.0,0,-29.0,
2116.0,2244.0,1.20439,-28.0,
2079.0,2122.0,0,-28.0,
2234.0,2094.0,0,-28.0,
2047.0,2275.0,0,-28.0,
2159.0,2054.0,0,-28.0,
2161.0,2039.0,0,-28.0,
2036.0,1946.0,0,-28.0,
1699.0,1971.0,0,-28.0,
1879.0,1791.0,0,-28.0,
2346.0,1902.0,1.2579,-28.0,
2711.0,1736.0,0,-28.0,
2628.0,1890.0,0,-28.0,
2094.0,2194.0,0,-28.0,
2144.0,2169.0,0,-28.0,
2013.0,2074.0,0,-28.0,
1982.0,2172.0,1.30722,-28.0,
1984.0,2259.0,0,-28.0,
2009.0,2267.0,0,-28.0,
2225.0,2355.0,0,-28.0,
2130.0,2276.0,0,-28.0,
2065.0,2140.0,1.35284,-28.0,
1926.0,1991.0,0,-28.0,
1853.0,1969.0,0,-28.0,
2102.0,1987.0,0,-28.0,
2094.0,2018.0,1.39532,-28.0,
2229.0,2065.0,0,-28.0,
2205.0,2060.0,0,-28.0,
2168.0,1893.0,0,-28.0,
2153.0,1950.0,0,-28.0,
2161.0,2226.0,1.437135,-28.0,
2186.0,2191.0,0,-28.0,
2185.0,2079.0,0,-28.0,
2083.0,1849.0,0,-28.0,
2066.0,2052.0,0,-29.0,
2118.0,2180.0,0,-28.0,
2205.0,2265.0,0,-29.0,
1991.0,2366.0,0,-29.0,
1945.0,2312.0,0,-29.0,
2099.0,2156.0,0,-29.0,
2404.0,1894.0,1.48124,-29.0,
2225.0,2118.0,0,-29.0,
2203.0,2247.0,0,-29.0,
2203.0,1929.0,1.520565,-29.0,
2024.0,1918.0,0,-29.0,
2030.0,2155.0,0,-29.0,
2322.0,2240.0,0,-29.0,
2135.0,2191.0,0,-29.0,
2072.0,2197.0,0,-28.0,
1812.0,2248.0,1.5526,-28.0,
2015.0,2187.0,0,-28.0,
2164.0,1972.0,0,-28.0,
2230.0,2007.0,0,-28.0,
1680.0,2170.0,0,-28.0,
1489.0,2131.0,0,-28.0,
1905.0,2086.0,0,-28.0,
2437.0,2017.0,0,-28.0,
2608.0,1926.0,0,-28.0,
2133.0,2085.0,0,-28.0,
2219.0,2267.0,1.583665,-28.0,
2442.0,2127.0,1.618775,-27.0,
2597.0,2159.0,0,-27.0,
2231.0,2179.0,0,-27.0,
1799.0,2057.0,0,-27.0,
1996.0,1755.0,0,-27.0,
2261.0,1895.0,0,-27.0,
2236.0,1992.0,0,-27.0,
2222.0,2057.0,0,-27.0,
2121.0,2138.0,1.65644,-28.0,
1990.0,2102.0,0,-28.0,
1937.0,1918.0,0,-28.0,
2018.0,2048.0,0,-28.0,
2129.0,2239.0,0,-28.0,
2187.0,2347.0,1.69368,-28.0,
2162.0,2137.0,0,-28.0,
1955.0,2116.0,0,-28.0,
2129.0,2004.0,0,-28.0,
1995.0,2098.0,0,-28.0,
2022.0,2289.0,1.736635,-28.0,
2121.0,2221.0,0,-28.0,
2106.0,2062.0,0,-28.0,
2178.0,2078.0,0,-28.0,
2252.0,2191.0,0,-29.0,
2148.0,1893.0,0,-29.0,
1841.0,2101.0,0,-29.0,
1872.0,2196.0,0,-29.0,
1943.0,2127.0,0,-29.0,
2359.0,2350.0,1.78376,-29.0,
2436.0,2270.0,0,-29.0,
2452.0,2160.0,0,-29.0,
1963.0,1955.0,0,-29.0,
2056.0,1893.0,0,-29.0,
1987.0,1716.0,1.823185,-29.0,
2029.0,2212.0,0,-29.0,
2105.0,2281.0,0,-29.0,
1950.0,2041.0,1.854125,-29.0,
1997.0,1970.0,0,-29.0,
2259.0,1991.0,0,-29.0,
2577.0,2043.0,0,-29.0,
2647.0,1969.0,0,-28.0,
2325.0,2154.0,0,-28.0,
2064.0,2202.0,1.88162,-28.0,
1871.0,2121.0,0,-28.0,
1860.0,1988.0,0,-28.0,
2002.0,1989.0,0,-28.0,
1934.0,1900.0,0,-28.0,
2080.0,2123.0,0,-28.0,
2035.0,2119.0,0,-28.0,
2310.0,2130.0,0,-28.0,
2304.0,2164.0,0,-28.0,
1975.0,2509.0,1.90929,-28.0,
2159.0,2248.0,0,-28.0,
2401.0,2172.0,0,-28.0,
2107.0,2118.0,0,-29.0,
1761.0,2120.0,0,-29.0,
1922.0,2119.0,1.938155,-29.0,
2150.0,2002.0,0,-29.0,
2363.0,1952.0,0,-29.0,
2109.0,1886.0,0,-28.0,
2145.0,2011.0,1.968715,-28.0,
2109.0,2139.0,0,-28.0,
1928.0,2085.0,0,-28.0,
2006.0,2163.0,0,-28.0,
1959.0,2249.0,0,-28.0,
2115.0,2283.0,2.001275,-28.0,
2373.0,2273.0,0,-28.0,
2157.0,2073.0,0,-28.0,
2136.0,2284.0,0,-28.0,
2483.0,2050.0,0,-28.0,
2417.0,1913.0,0,-28.0,
2095.0,2011.0,0,-28.0,
1990.0,1906.0,0,-28.0,
2030.0,1852.0,0,-28.0,
2062.0,2049.0,2.03546,-28.0,
2203.0,2019.0,0,-29.0,
2024.0,2079.0,0,-29.0,
1793.0,2177.0,0,-29.0,
1709.0,2068.0,0,-29.0,
1925.0,2150.0,2.06428,-29.0,
2138.0,2116.0,0,-29.0,
2073.0,2295.0,0,-29.0,
2118.0,2326.0,0,-29.0,
2318.0,2285.0,2.08697,-29.0,
2611.0,2144.0,0,-29.0,
2441.0,1945.0,0,-29.0,
2324.0,2054.0,0,-29.0,
2254.0,2084.0,0,-29.0,
2190.0,2128.0,2.105355,-29.0,
1966.0,2177.0,0,-28.0,
1856.0,2120.0,0,-28.0,
1995.0,2036.0,0,-28.0,
2098.0,1834.0,0,-28.0,
2213.0,1686.0,0,-28.0,
2370.0,2111.0,0,-28.0,
2277.0,2214.0,0,-28.0,
2003.0,2089.0,0,-28.0,
1893.0,2125.0,2.12119,-28.0,
1970.0,2288.0,0,-28.0,
2169.0,2298.0,0,-28.0,
2119.0,2293.0,0,-28.0,
1996.0,2260.0,0,-28.0,
1863.0,2211.0,2.136715,-28.0,
2000.0,2180.0,0,-28.0,
1801.0,2107.0,0,-28.0,
2135.0,2080.0,0,-28.0,
2456.0,1947.0,0,-28.0,
2195.0,1852.0,0,-28.0,
2160.0,2076.0,2.15495,-28.0,
2111.0,2277.0,0,-28.0,
2300.0,1881.0,0,-28.0,
2441.0,2023.0,0,-28.0,
2177.0,2136.0,2.173945,-28.0,
1912.0,2200.0,0,-28.0,
2109.0,2097.0,0,-28.0,
2233.0,2218.0,0,-28.0,
2159.0,2112.0,0,-28.0,
2205.0,2061.0,2.195835,-28.0,
2179.0,2067.0,0,-28.0,
2169.0,2011.0,0,-28.0,
2031.0,2150.0,0,-28.0,
1947.0,2178.0,0,-28.0,
2009.0,2171.0,2.21953,-28.0,
2139.0,2074.0,0,-28.0,
2187.0,2012.0,0,-28.0,
2085.0,1967.0,0,-28.0,
2129.0,2152.0,0,-28.0,
2128.0,2122.0,0,-28.0,
2058.0,2058.0,0,-28.0,
2125.0,2250.0,0,-28.0,
2270.0,2300.0,0,-29.0,
2204.0,2276.0,2.2369,-29.0,
1924.0,2263.0,0,-29.0,
1575.0,2227.0,0,-29.0,
1739.0,2011.0,0,-29.0,
2425.0,2047.0,0,-29.0,
2467.0,1934.0,2.246555,-29.0,
2373.0,2000.0,0,-29.0,
2304.0,2059.0,0,-29.0,
2286.0,1903.0,0,-28.0,
2050.0,1971.0,2.2467,-28.0,
2013.0,1956.0,0,-28.0,
2077.0,2002.0,0,-28.0,
2154.0,2212.0,0,-28.0,
2111.0,2313.0,0,-28.0,
2167.0,2048.0,2.242965,-28.0,
1948.0,2114.0,0,-28.0,
2074.0,2188.0,0,-28.0,
2303.0,2399.0,0,-28.0,
2086.0,2449.0,0,-28.0,
2020.0,2226.0,0,-28.0,
1937.0,2053.0,0,-28.0,
1934.0,2054.0,0,-28.0,
2067.0,1944.0,0,-28.0,
2340.0,1977.0,0,-28.0,
1964.0,2179.0,2.23784,-29.0,
1925.0,2074.0,0,-29.0,
2106.0,2265.0,0,-28.0,
2439.0,2230.0,0,-28.0,
2323.0,2116.0,0,0,
2359.0,1865.0,2.23178,-28.0,
2058.0,1983.0,0,-28.0,
2050.0,1889.0,0,-28.0,
2082.0,1879.0,0,-28.0,
2011.0,2029.0,2.22991,-28.0,
2230.0,2047.0,0,-28.0,
2339.0,2124.0,0,-28.0,
2410.0,2125.0,0,-28.0,
2142.0,2362.0,0,-28.0,
1841.0,2310.0,2.234225,-28.0,
2215.0,1998.0,0,-28.0,
2183.0,1862.0,0,-28.0,
2124.0,1734.0,0,-28.0,
2004.0,1820.0,2.245815,-28.0,
2159.0,2223.0,0,-28.0,
2170.0,2385.0,0,-28.0,
2090.0,2338.0,0,-28.0,
2036.0,2286.0,0,-28.0,
2089.0,2144.0,0,-29.0,
2104.0,2109.0,0,-29.0,
2055.0,2078.0,0,-29.0,
2015.0,2059.0,0,-29.0,
1966.0,2213.0,0,-29.0,
2080.0,2410.0,0,-29.0,
2102.0,2375.0,2.262665,-29.0,
2240.0,2182.0,0,-29.0,
2149.0,2137.0,0,-29.0,
2013.0,2145.0,0,-29.0,
2199.0,2137.0,2.279175,-29.0,
2366.0,2072.0,0,-29.0,
2273.0,1927.0,0,-29.0,
2036.0,1790.0,0,-28.0,
2002.0,2010.0,0,-28.0,
2036.0,2187.0,0,-28.0,
2108.0,2089.0,2.28606,-28.0,
1734.0,2127.0,0,-28.0,
1999.0,2241.0,0,-28.0,
2408.0,2000.0,0,-28.0,
2147.0,2083.0,2.285455,-28.0,
2082.0,2003.0,0,-28.0,
2262.0,2034.0,0,-28.0,
2150.0,2032.0,0,-28.0,
2202.0,2083.0,0,-28.0,
2204.0,2142.0,0,-28.0,
2386.0,1996.0,0,-28.0,
2302.0,2000.0,0,-28.0,
2146.0,1888.0,0,-28.0,
2114.0,2202.0,2.27919,-28.0,
2115.0,2061.0,0,-28.0,
2074.0,2037.0,0,-28.0,
2019.0,2042.0,0,-28.0,
1811.0,2228.0,0,-28.0,
1809.0,2216.0,2.27169,-28.0,
2097.0,2318.0,0,-28.0,
2204.0,2526.0,0,-28.0,
2199.0,2142.0,0,-28.0,
2121.0,1953.0,2.266945,-28.0,
2182.0,1734.0,0,-28.0,
2203.0,1945.0,0,-28.0,
2047.0,2126.0,0,-28.0,
2046.0,1941.0,0,-28.0,
2084.0,1938.0,0,-28.0,
2327.0,2200.0,2.264655,-28.0,
2099.0,2256.0,0,-28.0,
2099.0,2179.0,0,-28.0,
1787.0,2030.0,0,-28.0,
2007.0,2278.0,0,-28.0,
2170.0,2255.0,2.268895,-28.0,
2368.0,2083.0,0,-28.0,
2205.0,2099.0,0,-28.0,
2148.0,2055.0,0,-28.0,
2053.0,2097.0,0,-28.0,
1971.0,2095.0,0,-28.0,
1971.0,2179.0,0,-28.0,
2186.0,2277.0,0,-28.0,
2319.0,2089.0,0,-28.0,
2277.0,1988.0,2.278895,-28.0,
2156.0,2117.0,0,-28.0,
2030.0,2097.0,0,-28.0,
1937.0,2071.0,0,-28.0,
1938.0,2176.0,2.28868,-28.0,
1964.0,2157.0,0,-28.0,
2252.0,2064.0,0,-28.0,
2307.0,1730.0,0,-28.0,
2381.0,1774.0,0,-28.0,
2320.0,2053.0,0,0,
2179.0,2082.0,2.29164,-28.0,
2089.0,2173.0,0,-28.0,
2042.0,2127.0,0,-28.0,
2038.0,2085.0,0,-28.0,
2051.0,2236.0,0,-28.0,
2177.0,2300.0,2.284565,-28.0,
2160.0,2086.0,0,-28.0,
1966.0,2125.0,0,-28.0,
1795.0,2256.0,0,-28.0,
1987.0,2078.0,2.26773,-28.0,
2108.0,2192.0,0,-28.0,
2337.0,2042.0,0,-28.0,
2084.0,1999.0,0,-28.0,
2121.0,2229.0,0,-28.0,
2398.0,2525.0,0,-28.0,
2206.0,2332.0,0,-28.0,
2135.0,2177.0,0,-28.0,
2184.0,2181.0,0,-28.0,
2123.0,1987.0,0,-28.0,
2063.0,1808.0,2.24706,-28.0,
1948.0,1793.0,0,-28.0,
2010.0,1709.0,0,-28.0,
2102.0,1816.0,0,-28.0,
2134.0,1920.0,0,-28.0,
2086.0,2015.0,2.22967,-28.0,
2198.0,2247.0,0,-28.0,
2289.0,2274.0,0,-28.0,
2215.0,2313.0,0,-28.0,
2024.0,2320.0,2.222305,-28.0,
2015.0,2287.0,0,-28.0,
2070.0,2035.0,0,-28.0,
2238.0,1833.0,0,-28.0,
2206.0,1726.0,0,-28.0,
2245.0,2017.0,2.22383,-28.0,
1984.0,2116.0,0,-28.0,
1979.0,2061.0,0,-28.0,
2047.0,2134.0,0,-28.0,
2078.0,2198.0,0,-28.0,
2096.0,2223.0,0,-28.0,
1953.0,2323.0,0,-28.0,
2027.0,2037.0,0,-28.0,
2215.0,2120.0,0,-28.0,
2226.0,2068.0,2.230215,-28.0,
1835.0,2277.0,0,-28.0,
1958.0,2422.0,0,-28.0,
2596.0,2146.0,0,-28.0,
2487.0,2230.0,2.236125,-28.0,
2467.0,2142.0,0,-28.0,
2261.0,1897.0,0,-28.0,
2130.0,2082.0,0,-28.0,
2034.0,2016.0,0,-28.0,
1955.0,1870.0,2.234455,-28.0,
1868.0,1895.0,0,-28.0,
2049.0,2042.0,0,-28.0,
1940.0,2064.0,0,-28.0,
2097.0,2183.0,0,-28.0,
2069.0,2277.0,2.224435,-28.0,
1935.0,2208.0,0,-28.0,
1848.0,2282.0,0,-28.0,
2193.0,2233.0,0,-28.0,
2594.0,2009.0,0,-28.0,
2299.0,2133.0,0,-28.0,
2047.0,1885.0,0,-28.0,
2038.0,1899.0,0,-28.0,
2014.0,2036.0,0,-28.0,
2260.0,2166.0,2.20974,-28.0,
2241.0,2096.0,0,-28.0,
1994.0,2076.0,0,-28.0,
2029.0,2117.0,0,-28.0,
2066.0,2248.0,0,-28.0,
2300.0,2203.0,2.193215,-28.0,
2270.0,2035.0,0,-28.0,
2264.0,2051.0,0,-28.0,
2168.0,2089.0,0,-28.0,
2200.0,2094.0,2.18094,-28.0,
2159.0,2209.0,0,-28.0,
1954.0,2221.0,0,-28.0,
1758.0,2279.0,0,-28.0,
2185.0,2075.0,0,-28.0,
2415.0,1972.0,0,-28.0,
2293.0,1872.0,2.17259,-28.0,
1988.0,1941.0,0,-28.0,
2114.0,1990.0,0,-28.0,
2097.0,1970.0,0,-28.0,
1984.0,2325.0,0,-28.0,
1858.0,2380.0,2.16491,-28.0,
2035.0,2312.0,0,-28.0,
2126.0,1948.0,0,-28.0,
1967.0,2026.0,0,-28.0,
2058.0,1831.0,0,-28.0,
2309.0,1990.0,0,-28.0,
2178.0,2063.0,0,-28.0,
2173.0,2144.0,0,-28.0,
2120.0,2153.0,0,-28.0,
2209.0,2221.0,2.157495,-28.0,
2242.0,2234.0,0,-28.0,
1990.0,2176.0,0,-28.0,
1928.0,1966.0,0,-28.0,
2163.0,2124.0,0,-28.0,
2399.0,2145.0,2.14784,-28.0,
2269.0,2154.0,0,-28.0,
2129.0,2028.0,0,-28.0,
1984.0,2215.0,0,-28.0,
1919.0,2117.0,0,-28.0,
2123.0,2085.0,2.13518,-28.0,
2204.0,2117.0,0,-28.0,
2112.0,2097.0,0,-28.0,
2048.0,2182.0,0,-28.0,
2234.0,2347.0,2.116575,-28.0,
2186.0,2204.0,0,-28.0,
2111.0,2361.0,0,-28.0,
2250.0,2046.0,0,-28.0,
2197.0,2020.0,0,-28.0,
2051.0,1812.0,0,-28.0,
1884.0,1820.0,2.09517,-28.0,
2167.0,1633.0,0,-28.0,
2237.0,1559.0,0,-28.0,
2119.0,1988.0,0,-28.0,
2147.0,2280.0,0,-28.0,
2150.0,2171.0,0,-28.0,
2131.0,2082.0,0,-28.0,
2073.0,2048.0,0,-28.0,
1994.0,2301.0,0,-28.0,
2099.0,2433.0,2.07774,-28.0,
2266.0,2422.0,0,-28.0,
2184.0,2272.0,0,-28.0,
1984.0,2272.0,0,-28.0,
2064.0,2086.0,0,-28.0,
2254.0,2089.0,2.07204,-28.0,
2228.0,1923.0,0,-28.0,
2010.0,1927.0,0,-28.0,
1962.0,1994.0,0,-28.0,
1961.0,2143.0,0,-28.0,
2224.0,2203.0,2.07567,-28.0,
2418.0,2043.0,0,-28.0,
2344.0,2069.0,0,-28.0,
1958.0,2017.0,0,-28.0,
2010.0,2128.0,0,-28.0,
2056.0,2108.0,2.08417,-28.0,
1996.0,2232.0,0,-28.0,
1924.0,2251.0,0,-28.0,
1947.0,2093.0,0,-28.0,
1966.0,2117.0,2.091905,-28.0,
2262.0,2158.0,0,-28.0,
2585.0,1959.0,0,-28.0,
2299.0,2041.0,0,-28.0,
2187.0,2097.0,0,-28.0,
2216.0,2101.0,0,-28.0,
2032.0,2116.0,0,-28.0,
2038.0,2216.0,0,-28.0,
2079.0,1944.0,0,-28.0,
2156.0,2167.0,2.09379,-28.0,
2131.0,2221.0,0,-28.0,
2180.0,2355.0,0,-28.0,
2064.0,2196.0,0,-28.0,
1884.0,1839.0,0,-28.0,
1990.0,1826.0,2.08788,-28.0,
2251.0,2007.0,0,-28.0,
2203.0,1895.0,0,-28.0,
2076.0,1933.0,0,-28.0,
1996.0,2042.0,0,-28.0,
2094.0,2192.0,0,-28.0,
2017.0,2288.0,2.077575,-28.0,
2024.0,2161.0,0,-28.0,
2173.0,1979.0,0,-28.0,
2263.0,2045.0,0,-28.0,
2160.0,2262.0,2.06717,-28.0,
2192.0,2172.0,0,-28.0,
2045.0,2174.0,0,-28.0,
2339.0,2202.0,0,-28.0,
2268.0,2185.0,0,-28.0,
2110.0,2224.0,0,-28.0,
2065.0,2101.0,2.059895,-28.0,
2062.0,1957.0,0,-28.0,
2021.0,2000.0,0,-28.0,
2262.0,2193.0,0,-28.0,
1925.0,2123.0,0,-28.0,
2172.0,2046.0,0,-28.0,
2107.0,1973.0,0,-28.0,
2365.0,2055.0,0,-28.0,
2078.0,2071.0,0,-28.0,
2057.0,2183.0,2.0534,-28.0,
2116.0,2503.0,0,-28.0,
2265.0,2160.0,0,-28.0,
2214.0,2029.0,0,-28.0,
2121.0,2087.0,2.04978,-28.0,
2066.0,2100.0,0,-28.0,
1922.0,1960.0,0,-28.0,
1815.0,1917.0,0,-28.0,
2050.0,1985.0,0,-28.0,
2300.0,2008.0,2.04786,-28.0,
2213.0,2162.0,0,-28.0,
2167.0,2035.0,0,-28.0,
2137.0,2088.0,0,-28.0,
2254.0,2153.0,2.049185,-28.0,
2202.0,2142.0,0,-28.0,
1992.0,2321.0,0,-28.0,
1943.0,2318.0,0,-28.0,
2081.0,2272.0,0,-28.0,
2205.0,2127.0,0,-28.0,
2174.0,2037.0,2.05384,-28.0,
2103.0,1924.0,0,-28.0,
2140.0,1899.0,0,-28.0,
2149.0,2076.0,0,-28.0,
2307.0,2154.0,0,-28.0,
2241.0,2262.0,0,-28.0,
2111.0,2089.0,0,-28.0,
2103.0,2106.0,0,-28.0,
2173.0,2024.0,0,-28.0,
2052.0,2143.0,2.05975,-28.0,
2037.0,2253.0,0,-28.0,
1891.0,2107.0,0,-28.0,
1948.0,1988.0,0,-28.0,
2254.0,1906.0,0,-28.0,
2402.0,1931.0,0,-28.0,
2203.0,1989.0,2.065405,-28.0,
1939.0,2050.0,0,-28.0,
1942.0,1996.0,0,-28.0,
1887.0,2165.0,0,-28.0,
1843.0,2218.0,2.07084,-28.0,
2023.0,2093.0,0,-28.0,
2193.0,2213.0,0,-28.0,
2416.0,2357.0,0,-28.0,
2182.0,2417.0,0,-28.0,
2436.0,2229.0,2.078165,-28.0,
2519.0,1756.0,0,-28.0,
2051.0,1901.0,0,-28.0,
1882.0,1864.0,0,-28.0,
1989.0,2196.0,0,-28.0,
2259.0,1858.0,0,-28.0,
2384.0,2004.0,0,-28.0,
2257.0,2165.0,0,-28.0,
2213.0,2124.0,0,-28.0,
2193.0,2076.0,0,0,
2044.0,2210.0,2.085915,-28.0,
1997.0,2410.0,0,-28.0,
1779.0,2390.0,0,-28.0,
1923.0,2132.0,0,-28.0,
2058.0,2316.0,2.09229,-28.0,
1955.0,2274.0,0,-28.0,
2004.0,1846.0,0,-28.0,
2251.0,1797.0,0,-28.0,
2346.0,1923.0,0,-28.0,
2331.0,1742.0,2.09969,-28.0,
1921.0,1955.0,0,-28.0,
1844.0,2202.0,0,-28.0,
2068.0,2281.0,0,-28.0,
2491.0,2255.0,0,-28.0,
2339.0,2139.0,2.112485,-28.0,
2245.0,1954.0,0,-28.0,
2154.0,2176.0,0,-28.0,
2067.0,1936.0,0,-28.0,
1984.0,1796.0,2.133415,-28.0,
2003.0,1967.0,0,-28.0,
2291.0,2273.0,0,-28.0,
2268.0,2438.0,0,-28.0,
2153.0,2332.0,0,-28.0,
2048.0,2434.0,0,-28.0,
1916.0,2146.0,0,-28.0,
1891.0,2295.0,0,-28.0,
2171.0,2404.0,0,-28.0,
2375.0,2389.0,0,-28.0,
2132.0,2016.0,2.153315,-28.0,
2076.0,1899.0,0,-28.0,
2064.0,1809.0,0,-28.0,
2016.0,1742.0,0,-28.0,
1966.0,1716.0,0,-28.0,
2248.0,1869.0,2.16706,-28.0,
2387.0,1932.0,0,-28.0,
2226.0,2232.0,0,-28.0,
2132.0,2020.0,0,-28.0,
2007.0,2038.0,2.175335,-28.0,
2106.0,2149.0,0,-28.0,
1959.0,2306.0,0,-28.0,
1863.0,2323.0,0,-28.0,
1900.0,2206.0,0,-28.0,
2072.0,2067.0,0,-28.0,
2336.0,2156.0,2.18406,-28.0,
2377.0,2296.0,0,-28.0,
2486.0,2125.0,0,-28.0,
2215.0,1929.0,0,-28.0,
2154.0,2111.0,0,-28.0,
1919.0,1972.0,2.191105,-28.0,
1935.0,2069.0,0,-28.0,
2102.0,2072.0,0,-28.0,
2160.0,2083.0,0,-28.0,
2122.0,1995.0,2.192485,-28.0,
2296.0,1987.0,0,-28.0,
2086.0,2219.0,0,-28.0,
2086.0,2310.0,0,-28.0,
2156.0,2332.0,0,-28.0,
1922.0,2297.0,0,-28.0,
2053.0,2279.0,0,-28.0,
2080.0,1982.0,0,-28.0,
2423.0,1977.0,0,-28.0,
2275.0,2160.0,0,-28.0,
2079.0,2199.0,2.18825,-28.0,
2157.0,2287.0,0,-28.0,
1944.0,2062.0,0,-28.0,
1853.0,2057.0,0,-28.0,
1806.0,2197.0,0,-28.0,
2169.0,2065.0,2.179,-28.0,
2285.0,2033.0,0,-28.0,
2220.0,1820.0,0,-28.0,
2091.0,2007.0,0,-28.0,
1946.0,2023.0,2.16902,-28.0,
2037.0,1819.0,0,-28.0,
2243.0,2016.0,0,-28.0,
2431.0,2004.0,0,-28.0,
2430.0,2002.0,0,-28.0,
2230.0,1905.0,0,-28.0,
2188.0,1965.0,2.159705,-28.0,
2015.0,2138.0,0,-28.0,
1881.0,2193.0,0,-28.0,
1908.0,2287.0,0,-28.0,
2028.0,2167.0,0,-28.0,
2072.0,2282.0,2.15496,-28.0,
2066.0,2398.0,0,-28.0,
1901.0,2177.0,0,-28.0,
2255.0,2225.0,0,-28.0,
2500.0,2085.0,0,-28.0,
2566.0,2246.0,0,-28.0,
2235.0,2175.0,0,-28.0,
2203.0,2066.0,0,-28.0,
2087.0,2145.0,0,-28.0,
1864.0,1908.0,0,-28.0,
2090.0,1972.0,2.15962,-28.0,
2168.0,1935.0,0,-28.0,
2066.0,1955.0,0,-28.0,
2036.0,2086.0,0,-28.0,
1916.0,2210.0,0,-28.0,
1893.0,2175.0,2.170195,-28.0,
2141.0,2336.0,0,-28.0,
2268.0,2199.0,0,-28.0,
2288.0,2003.0,0,-28.0,
2240.0,2142.0,0,-28.0,
2142.0,2066.0,2.18299,-28.0,
1990.0,2158.0,0,-28.0,
1827.0,1816.0,0,-28.0,
1889.0,1984.0,2.193015,-28.0,
2007.0,1927.0,0,-28.0,
2247.0,2106.0,0,-28.0,
2267.0,2241.0,0,-28.0,
2239.0,2114.0,0,-28.0,
2286.0,2115.0,0,-28.0,
2199.0,2230.0,0,-28.0,
1929.0,2224.0,0,-28.0,
1885.0,2150.0,0,-28.0,
1867.0,2234.0,0,-28.0,
2005.0,2097.0,2.19843,-28.0,
2406.0,1978.0,0,-28.0,
2273.0,1990.0,0,-28.0,
2406.0,2106.0,0,-28.0,
2435.0,2124.0,0,-28.0,
2223.0,2243.0,2.19934,-28.0,
2095.0,2119.0,0,-28.0,
2208.0,2106.0,0,-28.0,
2138.0,2182.0,0,-28.0,
1927.0,1936.0,0,-28.0,
1953.0,1587.0,0,-28.0,
1878.0,2048.0,2.196245,-28.0,
1945.0,2393.0,0,-28.0,
1995.0,2152.0,0,-28.0,
2070.0,1931.0,0,-28.0,
2267.0,2131.0,2.19377,-28.0,
2264.0,2157.0,0,-28.0,
2211.0,2119.0,0,-28.0,
1998.0,2221.0,0,-28.0,
2125.0,2236.0,0,-28.0,
2241.0,2355.0,0,-28.0,
2355.0,2208.0,2.191075,-28.0,
2049.0,2081.0,0,-28.0,
1868.0,1910.0,0,-28.0,
2052.0,2132.0,0,-28.0,
1979.0,1950.0,2.190205,-28.0,
2108.0,1941.0,0,-28.0,
2056.0,1976.0,0,-28.0,
1965.0,2078.0,0,-28.0,
1808.0,2072.0,0,-28.0,
2155.0,2006.0,0,-28.0,
2328.0,2066.0,0,-28.0,
2599.0,2131.0,0,-28.0,
2219.0,2067.0,0,-28.0,
2192.0,2079.0,2.192815,-28.0,
2102.0,2192.0,0,-28.0,
2049.0,2487.0,0,-28.0,
2228.0,2512.0,0,-28.0,
2298.0,2269.0,0,-28.0,
2414.0,2185.0,2.19735,-28.0,
2165.0,1955.0,0,-28.0,
1670.0,1555.0,0,-28.0,
1955.0,1881.0,0,-28.0,
2215.0,1929.0,0,-28.0,
2401.0,2118.0,0,-28.0,
2119.0,2125.0,2.19896,-28.0,
1945.0,1970.0,0,-28.0,
1981.0,2111.0,0,-28.0,
2079.0,2194.0,0,-28.0,
2327.0,2195.0,0,-28.0,
2416.0,2272.0,2.197,-28.0,
2157.0,2430.0,0,-28.0,
1849.0,2060.0,0,-28.0,
1863.0,2089.0,0,-28.0,
2018.0,2071.0,0,-28.0,
2096.0,1905.0,2.19593,-28.0,
2150.0,1865.0,0,-28.0,
2135.0,2025.0,0,-28.0,
2086.0,2167.0,0,-28.0,
2142.0,2176.0,0,-28.0,
2210.0,2226.0,0,-28.0,
1982.0,2200.0,0,-28.0,
1772.0,2204.0,0,-28.0,
1933.0,2264.0,0,-28.0,
2265.0,2252.0,2.19557,-28.0,
2251.0,2246.0,0,-28.0,
2342.0,2272.0,0,-28.0,
2173.0,1861.0,0,-28.0,
2351.0,1534.0,2.1963,-28.0,
2255.0,1597.0,0,-28.0,
2288.0,1793.0,0,-28.0,
2332.0,1945.0,0,-28.0,
2129.0,2009.0,0,-28.0,
2143.0,2247.0,0,-28.0,
2019.0,2306.0,2.196575,-28.0,
1972.0,2064.0,0,-28.0,
2028.0,2134.0,0,-28.0,
1957.0,2094.0,0,-28.0,
1953.0,2098.0,0,-28.0,
2132.0,2456.0,0,-28.0,
2340.0,2650.0,2.19919,-28.0,
2286.0,2429.0,0,-28.0,
2034.0,2063.0,0,-28.0,
1894.0,1880.0,0,-28.0,
2103.0,1737.0,2.20702,-28.0,
2275.0,2069.0,0,-28.0,
2224.0,2132.0,0,-28.0,
1981.0,2119.0,0,-28.0,
2060.0,2122.0,0,-28.0,
2174.0,2085.0,0,-28.0,
2102.0,2122.0,2.212875,-28.0,
2027.0,2041.0,0,-28.0,
2106.0,2153.0,0,-28.0,
2180.0,2029.0,0,-28.0,
2034.0,2109.0,0,-28.0,
2171.0,2310.0,0,-28.0,
1970.0,2277.0,0,-28.0,
1848.0,2234.0,0,-28.0,
2072.0,2582.0,0,-28.0,
2272.0,1959.0,2.215345,-28.0,
2353.0,1766.0,0,-28.0,
2203.0,1708.0,0,-28.0,
2079.0,1518.0,0,-28.0,
2114.0,1932.0,0,-28.0,
2179.0,2063.0,2.213895,-28.0,
2189.0,1972.0,0,-28.0,
2216.0,1989.0,0,-28.0,
2201.0,1960.0,0,-28.0,
2240.0,2088.0,0,-28.0,
2175.0,2260.0,2.210985,-28.0,
2111.0,2396.0,0,-28.0,
2109.0,2348.0,0,-28.0,
2057.0,2295.0,0,-28.0,
2228.0,2315.0,0,-28.0,
2236.0,2173.0,0,-28.0,
1966.0,1977.0,2.20928,-28.0,
1914.0,1928.0,0,-28.0,
1902.0,1900.0,0,-28.0,
1826.0,2058.0,2.20788,-28.0,
2151.0,2065.0,0,-28.0,
2422.0,2241.0,0,-28.0,
2508.0,1984.0,0,-28.0,
2134.0,2143.0,0,-28.0,
2187.0,2156.0,0,-28.0,
2096.0,2096.0,2.20877,-28.0,
1950.0,2214.0,0,-28.0,
1927.0,2334.0,0,-28.0,
1880.0,2029.0,0,-28.0,
2148.0,2110.0,0,-28.0,
2069.0,2197.0,0,-28.0,
2084.0,2256.0,0,-28.0,
2177.0,1883.0,0,-28.0,
2176.0,2008.0,0,-28.0,
2113.0,2160.0,0,-28.0,
2101.0,1969.0,2.213285,-28.0,
2223.0,1915.0,0,-28.0,
2377.0,1852.0,0,-28.0,
2213.0,1971.0,0,-28.0,
2073.0,2170.0,2.2167,-28.0,
2146.0,2269.0,0,-28.0,
2107.0,2292.0,0,-28.0,
2256.0,2101.0,0,-28.0,
2103.0,1988.0,0,-28.0,
2196.0,2140.0,2.21897,-28.0,
2118.0,2270.0,0,-28.0,
1974.0,2225.0,0,-28.0,
2036.0,2068.0,0,-28.0,
2084.0,1904.0,0,-28.0,
2079.0,1829.0,0,-28.0,
2090.0,1956.0,2.217595,-28.0,
2133.0,2120.0,0,-28.0,
2119.0,2034.0,0,-28.0,
2126.0,2178.0,0,-28.0,
2149.0,2243.0,2.214235,-28.0,
2160.0,2162.0,0,-28.0,
2165.0,2154.0,0,-28.0,
2095.0,2063.0,0,-28.0,
2139.0,2243.0,0,-28.0,
1958.0,2504.0,0,-28.0,
2086.0,2429.0,0,-28.0,
2153.0,2119.0,0,-28.0,
2291.0,1797.0,0,-28.0,
2195.0,1605.0,0,-28.0,
2019.0,1827.0,2.21075,-28.0,
2181.0,2048.0,0,-28.0,
2190.0,2083.0,0,-28.0,
2034.0,1959.0,0,-28.0,
1838.0,2117.0,0,-28.0,
1868.0,2193.0,2.205105,-28.0,
2133.0,2316.0,0,-28.0,
2336.0,2323.0,0,-28.0,
2301.0,2284.0,0,-28.0,
2312.0,2375.0,2.198215,-28.0,
2115.0,2301.0,0,-28.0,
2058.0,2212.0,0,-28.0,
2272.0,1967.0,0,-28.0,
2333.0,1798.0,0,-28.0,
2099.0,1763.0,2.193645,-28.0,
1844.0,1838.0,0,-28.0,
1989.0,1833.0,0,-28.0,
2232.0,1897.0,0,-28.0,
2346.0,2037.0,2.192135,-28.0,
2336.0,2153.0,0,-28.0,
2168.0,2226.0,0,-28.0,
2158.0,2306.0,0,-28.0,
1982.0,1882.0,0,-28.0,
1825.0,1846.0,0,-28.0,
1855.0,2028.0,0,-28.0,
2019.0,2229.0,0,-28.0,
2115.0,2282.0,0,-28.0,
2178.0,2320.0,0,-28.0,
1914.0,2323.0,0,-28.0,
2163.0,2045.0,2.194915,-28.0,
2141.0,1977.0,0,-28.0,
2282.0,1798.0,0,-28.0,
2115.0,1996.0,0,-28.0,
2036.0,2385.0,0,-28.0,
2295.0,2306.0,2.200925,-28.0,
2230.0,2093.0,0,-28.0,
2106.0,2167.0,0,-28.0,
2081.0,2198.0,0,-28.0,
2176.0,2104.0,0,-28.0,
2280.0,2109.0,2.20432,-28.0,
2162.0,2205.0,0,-28.0,
2105.0,2473.0,0,-28.0,
2048.0,2251.0,0,-28.0,
2122.0,2159.0,2.20556,-28.0,
2256.0,2204.0,0,-28.0,
2054.0,2030.0,0,-28.0,
2080.0,1824.0,0,-28.0,
2077.0,1652.0,0,-28.0,
2041.0,1812.0,2.2053,-28.0,
2044.0,1950.0,0,-28.0,
2035.0,2020.0,0,-28.0,
2077.0,1965.0,0,-28.0,
2073.0,2156.0,0,-28.0,
2013.0,2011.0,0,-28.0,
2095.0,2173.0,0,-28.0,
2146.0,2007.0,0,-28.0,
2273.0,1900.0,0,-28.0,
2136.0,2072.0,0,-28.0,
2135.0,2446.0,2.20336,-28.0,
2069.0,2323.0,0,-28.0,
2331.0,2049.0,0,-28.0,
1941.0,2091.0,0,-28.0,
2185.0,2261.0,0,-28.0,
2277.0,2175.0,2.20176,-28.0,
2302.0,2089.0,0,-28.0,
2095.0,1968.0,0,-28.0,
1806.0,2061.0,0,-28.0,
1884.0,2081.0,2.2001,-28.0,
2077.0,1960.0,0,-28.0,
2299.0,1927.0,0,-28.0,
2191.0,2196.0,0,-28.0,
2277.0,2271.0,0,-28.0,
2360.0,2285.0,0,-28.0,
2239.0,2152.0,2.197875,-28.0,
2310.0,2065.0,0,-28.0,
2097.0,2138.0,0,-28.0,
1928.0,2232.0,0,-28.0,
1963.0,2223.0,2.19645,-28.0,
2083.0,2083.0,0,-28.0,
2142.0,2061.0,0,-28.0,
2101.0,2008.0,0,-28.0,
2124.0,2024.0,0,-28.0,
2092.0,2165.0,0,-28.0,
1987.0,2234.0,0,-28.0,
2125.0,2205.0,0,-28.0,
2162.0,1963.0,0,-28.0,
2135.0,2044.0,0,-28.0,
2126.0,2067.0,2.19148,-28.0,
2048.0,2123.0,0,-28.0,
2215.0,1994.0,0,-28.0,
2205.0,2210.0,0,-28.0,
1832.0,2115.0,0,-28.0,
2207.0,1936.0,2.18278,-28.0,
2221.0,1999.0,0,-28.0,
2039.0,1963.0,0,-28.0,
1830.0,1985.0,0,-28.0,
1763.0,1907.0,0,-28.0,
2027.0,2056.0,0,-28.0,
2556.0,2165.0,2.17601,-28.0,
2463.0,2189.0,0,-28.0,
2270.0,2283.0,0,-28.0,
2177.0,2258.0,0,-28.0,
1985.0,2238.0,0,-28.0,
1959.0,2290.0,2.17568,-28.0,
1982.0,2348.0,0,-28.0,
2233.0,2302.0,0,-28.0,
2386.0,1965.0,0,-28.0,
2255.0,1687.0,0,-28.0,
2001.0,1869.0,2.17761,-28.0,
1971.0,1888.0,0,-28.0,
2264.0,1979.0,0,-28.0,
2417.0,2278.0,0,-28.0,
2214.0,2220.0,2.17606,-28.0,
2164.0,2143.0,0,-28.0,
2234.0,2053.0,0,-28.0,
2115.0,1966.0,0,-28.0,
1849.0,2289.0,0,-28.0,
1652.0,2441.0,0,-28.0,
1764.0,2194.0,0,-28.0,
1936.0,1933.0,0,-28.0,
2165.0,1937.0,0,-28.0,
2406.0,1950.0,2.1723,-28.0,
2293.0,2001.0,0,-28.0,
2166.0,2053.0,0,-28.0,
2136.0,2056.0,0,-28.0,
2203.0,2012.0,0,-28.0,
2249.0,2116.0,0,-28.0,
2185.0,2145.0,2.16585,-28.0,
2096.0,2255.0,0,-28.0,
1935.0,2312.0,0,-28.0,
2106.0,2308.0,0,-28.0,
2106.0,2044.0,0,-28.0,
1971.0,2056.0,2.162675,-28.0,
2241.0,2294.0,0,-28.0,
2173.0,2036.0,0,-28.0,
2197.0,1840.0,0,-28.0,
2124.0,1923.0,2.164495,-28.0,
2240.0,1945.0,0,-28.0,
2148.0,2118.0,0,-28.0,
1860.0,2183.0,0,-28.0,
1957.0,2199.0,0,-28.0,
2125.0,2225.0,0,-28.0,
2369.0,2065.0,2.171275,-28.0,
2328.0,2099.0,0,-28.0,
2258.0,2170.0,0,-28.0,
2330.0,2260.0,0,-28.0,
2349.0,2287.0,0,-28.0,
2122.0,2044.0,0,-28.0,
1805.0,1976.0,0,-28.0,
1810.0,1992.0,0,-28.0,
1929.0,1962.0,0,-28.0,
1978.0,1998.0,2.180525,-28.0,
2019.0,1921.0,0,-28.0,
2094.0,2104.0,0,-28.0,
2210.0,2123.0,0,-28.0,
2303.0,2063.0,0,-28.0,
2235.0,2200.0,2.182855,-28.0,
2116.0,2185.0,0,-28.0,
1987.0,2092.0,0,-28.0,
1984.0,2114.0,0,-28.0,
2203.0,2251.0,0,-28.0,
2352.0,2150.0,2.176175,-28.0,
2212.0,2093.0,0,-28.0,
2202.0,2073.0,0,-28.0,
2059.0,2035.0,0,-28.0,
2006.0,2298.0,0,-28.0,
2075.0,2336.0,0,-28.0,
2159.0,2189.0,2.16082,-28.0,
2244.0,2035.0,0,-28.0,
2273.0,2141.0,0,-28.0,
2078.0,2026.0,0,-28.0,
2142.0,2054.0,2.14598,-28.0,
2010.0,2180.0,2.13808,-28.0,
1931.0,1943.0,2.13856,-28.0,
1873.0,1718.0,0,-28.0,
2168.0,1908.0,0,-28.0,
2141.0,2065.0,0,-29.0,
2036.0,2181.0,0,-29.0,
2202.0,1940.0,0,-28.0,
2173.0,1957.0,0,-28.0,
2262.0,2084.0,0,-28.0,
2240.0,2298.0,0,-28.0,
2301.0,2243.0,0,-28.0,
2250.0,2258.0,0,-28.0,
2183.0,2184.0,0,-28.0,
1863.0,1902.0,0,-28.0,
2023.0,2088.0,0,-28.0,
2096.0,2280.0,0,-28.0,
2160.0,2059.0,0,-28.0,
2190.0,2060.0,2.14288,-28.0,
2015.0,2136.0,0,-28.0,
2039.0,2403.0,0,-28.0,
2098.0,2312.0,0,-28.0,
2188.0,2194.0,0,-28.0,
2148.0,2037.0,0,-28.0,
2033.0,2009.0,2.147575,-28.0,
1928.0,2119.0,0,-28.0,
2065.0,2156.0,0,-28.0,
2264.0,2133.0,0,-28.0,
2332.0,2103.0,0,-28.0,
2095.0,2079.0,0,-28.0,
2026.0,2139.0,0,-28.0,
2099.0,2108.0,0,-28.0,
2400.0,2041.0,2.14797,-28.0,
2256.0,1957.0,0,-28.0,
2156.0,1925.0,0,-28.0,
2103.0,2162.0,0,-28.0,
2020.0,2255.0,2.14449,-28.0,
2104.0,2126.0,0,-28.0,
1890.0,1862.0,0,-28.0,
2115.0,1899.0,0,-28.0,
2177.0,2131.0,0,-28.0,
2133.0,2299.0,2.13798,-28.0,
2100.0,2217.0,0,-28.0,
2077.0,2017.0,0,-28.0,
2217.0,1938.0,0,-28.0,
2084.0,1933.0,0,-28.0,
2048.0,1807.0,0,-28.0,
2109.0,2002.0,2.13122,-28.0,
2234.0,2339.0,0,-28.0,
2080.0,2331.0,0,-28.0,
2143.0,2071.0,0,-28.0,
2133.0,1995.0,0,-28.0,
2214.0,2046.0,0,-28.0,
2203.0,2178.0,0,-28.0,
2158.0,2238.0,0,-28.0,
2247.0,2374.0,2.127505,-28.0,
2063.0,2357.0,0,-28.0,
2016.0,2108.0,0,-28.0,
2068.0,2216.0,0,0,
2022.0,2144.0,2.129275,-28.0,
2080.0,1958.0,0,-28.0,
2111.0,2030.0,0,-28.0,
2164.0,1822.0,0,-28.0,
2177.0,1993.0,0,-28.0,
2184.0,1875.0,0,-28.0,
2154.0,1834.0,2.135365,-28.0,
2092.0,2086.0,0,-28.0,
2006.0,2195.0,0,-28.0,
2099.0,2265.0,0,-28.0,
2105.0,2166.0,0,-28.0,
1945.0,2143.0,2.143875,-28.0,
1794.0,2189.0,0,-28.0,
2108.0,2292.0,0,-28.0,
2479.0,2317.0,0,-28.0,
2400.0,1970.0,2.151075,-28.0,
2216.0,1932.0,0,-28.0,
2140.0,2061.0,0,-28.0,
1966.0,2142.0,0,-28.0,
1971.0,2193.0,0,-28.0,
2172.0,2043.0,0,-28.0,
2209.0,2041.0,0,-28.0,
2191.0,2012.0,0,-28.0,
2130.0,1988.0,0,-28.0,
2089.0,2169.0,2.15439,-28.0,
1882.0,2272.0,0,-28.0,
2095.0,2099.0,0,-28.0,
2207.0,2083.0,0,0,
2429.0,2074.0,2.153145,-28.0,
2289.0,1942.0,0,-28.0,
2069.0,2274.0,0,-28.0,
1934.0,2438.0,0,-28.0,
1776.0,2242.0,0,-28.0,
1987.0,2087.0,0,-28.0,
2191.0,1956.0,0,-28.0,
2308.0,2138.0,0,-28.0,
2403.0,1854.0,0,-28.0,
2099.0,1990.0,2.148665,-28.0,
2127.0,2057.0,2.144075,-28.0,
2162.0,2062.0,0,-28.0,
2111.0,1865.0,0,-28.0,
1917.0,1905.0,0,-28.0,
1959.0,2050.0,0,-28.0,
2157.0,2234.0,0,-28.0,
2150.0,2244.0,0,-28.0,
2099.0,2209.0,0,-28.0,
1923.0,2154.0,0,-28.0,
2155.0,2162.0,0,-28.0,
2332.0,2077.0,2.14165,-28.0,
2467.0,1987.0,0,-28.0,
2367.0,2094.0,0,-28.0,
2229.0,2122.0,0,-28.0,
2062.0,2097.0,2.14081,-28.0,
2042.0,2102.0,0,-28.0,
2068.0,2131.0,0,-28.0,
1933.0,2162.0,0,-28.0,
2062.0,2080.0,0,-28.0,
2136.0,2147.0,2.1413,-28.0,
2169.0,2075.0,0,-28.0,
2071.0,2060.0,0,-28.0,
2106.0,1960.0,0,-28.0,
2134.0,1934.0,2.14059,-28.0,
1979.0,2162.0,0,-28.0,
1997.0,2243.0,0,-28.0,
2027.0,2182.0,0,-28.0,
2106.0,2200.0,0,-28.0,
2345.0,2186.0,0,-28.0,
2257.0,2138.0,0,-28.0,
1981.0,2038.0,0,-28.0,
1985.0,2332.0,0,-28.0,
2132.0,2309.0,0,-28.0,
2261.0,1987.0,2.136145,-28.0,
2185.0,2093.0,0,-28.0,
1957.0,1990.0,0,-28.0,
2045.0,2006.0,0,-28.0,
2076.0,1993.0,0,-28.0,
2338.0,1906.0,2.125395,-28.0,
2344.0,1877.0,0,-28.0,
1949.0,2109.0,0,-28.0,
2071.0,2275.0,0,-28.0,
2275.0,2303.0,2.11094,-28.0,
2386.0,2296.0,0,-28.0,
2226.0,2015.0,0,-28.0,
2000.0,1921.0,0,-28.0,
1821.0,1899.0,0,-28.0,
2002.0,1989.0,0,-28.0,
2186.0,2069.0,0,-28.0,
2263.0,2226.0,0,-28.0,
2286.0,2242.0,0,-28.0,
1950.0,2134.0,2.09557,-28.0,
1962.0,2042.0,2.080585,-28.0,
2131.0,2099.0,0,-28.0,
2221.0,2019.0,0,-28.0,
2269.0,2050.0,0,-28.0,
2195.0,2085.0,0,-28.0,
2166.0,2109.0,0,-28.0,
2071.0,2128.0,0,-28.0,
2100.0,2163.0,0,-29.0,
2114.0,2155.0,0,-28.0,
2102.0,2135.0,0,-29.0,
2098.0,2153.0,2.071215,-28.0,
2071.0,2119.0,0,-28.0,
2094.0,2137.0,0,-28.0,
2081.0,2100.0,0,-28.0,
2165.0,2090.0,2.066925,-28.0,
2187.0,2078.0,0,-28.0,
2152.0,2199.0,0,-28.0,
2079.0,2267.0,0,-28.0,
2130.0,2177.0,0,-28.0,
2034.0,2008.0,0,-28.0,
2091.0,2000.0,2.05987,-28.0,
2144.0,2018.0,0,-28.0,
2108.0,2077.0,0,-28.0,
2150.0,2070.0,0,-28.0,
2157.0,2047.0,2.046935,-28.0,
2117.0,2015.0,0,-28.0,
2027.0,2102.0,0,-28.0,
2045.0,2282.0,0,-28.0,
2234.0,2385.0,0,-28.0,
2164.0,2755.0,0,-28.0,
1980.0,2470.0,0,-28.0,
2014.0,2205.0,0,-28.0,
2096.0,1913.0,0,-28.0,
2314.0,1706.0,2.02473,-28.0,
2357.0,1480.0,0,-28.0,
2309.0,1647.0,0,-28.0,
2059.0,1764.0,0,-28.0,
1923.0,1971.0,0,-28.0,
1973.0,2114.0,1.991835,-28.0,
2032.0,2018.0,0,-28.0,
2280.0,2078.0,0,-28.0,
2189.0,2002.0,0,-28.0,
2199.0,2091.0,0,-28.0,
2167.0,2152.0,0,-28.0,
2122.0,2180.0,1.94941,-28.0,
2061.0,2179.0,0,-28.0,
1995.0,2108.0,0,-28.0,
2159.0,2125.0,0,-28.0,
2257.0,2160.0,1.89573,-28.0,
2214.0,2182.0,0,-28.0,
2054.0,2187.0,0,-28.0,
1968.0,2234.0,0,-28.0,
2050.0,2245.0,0,-28.0,
1889.0,2194.0,1.831195,-28.0,
1825.0,2215.0,0,-28.0,
2085.0,2232.0,0,-28.0,
2287.0,2212.0,0,-28.0,
2481.0,2053.0,1.755885,-29.0,
2279.0,1960.0,0,-29.0,
2168.0,1862.0,0,-29.0,
2122.0,2019.0,0,-29.0,
2161.0,2098.0,0,-29.0,
2165.0,2230.0,0,-29.0,
2100.0,2721.0,0,-29.0,
2102.0,2508.0,0,-29.0,
2106.0,2092.0,0,-29.0,
2142.0,1175.0,0,-29.0,
2142.0,1892.0,1.672805,-29.0,
2163.0,2056.0,0,-28.0,
2101.0,2050.0,0,-28.0,
2111.0,2251.0,0,-28.0,
2059.0,2234.0,0,-28.0,
2029.0,1994.0,1.584525,-28.0,
2107.0,2017.0,0,-28.0,
2186.0,1913.0,0,-28.0,
2214.0,2055.0,0,-28.0,
2289.0,2102.0,1.492145,-28.0,
2206.0,1967.0,0,-28.0,
2143.0,2129.0,0,-28.0,
2033.0,2137.0,0,-28.0,
1993.0,2234.0,0,-28.0,
1962.0,2109.0,0,-28.0,
2066.0,2042.0,1.40037,-28.0,
1963.0,2224.0,0,-28.0,
1749.0,2206.0,0,-28.0,
1826.0,2216.0,0,-28.0,
2183.0,2172.0,0,-28.0,
2470.0,2004.0,0,-28.0,
2334.0,2126.0,0,-28.0,
2319.0,2133.0,0,-28.0,
2339.0,1945.0,0,-28.0,
2306.0,2057.0,1.3124,-28.0,
2145.0,2053.0,0,-28.0,
1965.0,2023.0,0,-28.0,
2023.0,2146.0,0,-28.0,
2150.0,2079.0,0,-28.0,
2087.0,2178.0,0,-28.0,
2050.0,2219.0,1.227295,-28.0,
2087.0,2299.0,0,-28.0,
2249.0,2367.0,0,-28.0,
2247.0,2210.0,0,-28.0,
2201.0,2144.0,1.147525,-28.0,
2120.0,1846.0,0,-28.0,
2111.0,1985.0,0,-28.0,
2071.0,2068.0,0,-28.0,
2078.0,2178.0,0,-28.0,
2110.0,2414.0,1.07723,-28.0,
2059.0,2345.0,0,-28.0,
2060.0,1813.0,0,-28.0,
2106.0,1769.0,0,-28.0,
2093.0,1540.0,1.012495,-28.0,
2150.0,1983.0,0,-28.0,
2178.0,2023.0,0,-28.0,
2103.0,1893.0,0,-28.0,
2129.0,2151.0,0,-28.0,
2162.0,2526.0,0,-28.0,
2145.0,2621.0,0.94741,-28.0,
2158.0,2470.0,0,-28.0,
2075.0,2009.0,0,-28.0,
2093.0,1734.0,0,-28.0,
2020.0,1599.0,0,-28.0,
1944.0,2002.0,0,-28.0,
2158.0,2164.0,0,-28.0,
2307.0,2189.0,0,-28.0,
2307.0,2121.0,0,-28.0,
1883.0,1990.0,0.88145,-28.0,
1740.0,1942.0,0,-28.0,
2106.0,1932.0,0,-28.0,
2306.0,2027.0,0,-28.0,
2254.0,2111.0,0,-28.0,
2198.0,2209.0,0.814785,-28.0,
2130.0,2235.0,0,-28.0,
2136.0,2237.0,0,-28.0,
2127.0,2201.0,0,-28.0,
2067.0,2139.0,0,0,
2163.0,2174.0,0.74982,-28.0,
2292.0,2067.0,0,-28.0,
2322.0,2073.0,0,-28.0,
2198.0,2114.0,0,-28.0,
2058.0,2183.0,0,-28.0,
2026.0,2180.0,0.689975,-28.0,
2139.0,2214.0,0,-28.0,
2132.0,2029.0,0,-28.0,
2026.0,2051.0,0,-28.0,
1954.0,2111.0,0,-28.0,
2077.0,2097.0,0,-28.0,
2260.0,2073.0,0,-28.0,
2240.0,2128.0,0,-28.0,
2106.0,2243.0,0,-28.0,
2107.0,2278.0,0.63819,-28.0,
2106.0,2033.0,0,-28.0,
2115.0,2124.0,0,-28.0,
2104.0,2011.0,0,-28.0,
2085.0,2013.0,0.592215,-28.0,
2133.0,2052.0,0,-28.0,
2165.0,1826.0,0,-28.0,
2141.0,1945.0,0,-28.0,
2155.0,2142.0,0,-28.0,
2097.0,2105.0,0,-28.0,
2051.0,2106.0,0.55042,-28.0,
2068.0,1985.0,0,-28.0,
2016.0,2125.0,0,-28.0,
2151.0,2274.0,0,-28.0,
2131.0,2168.0,0,-28.0,
2123.0,2176.0,0.510665,-28.0,
2130.0,2081.0,0,-28.0,
2189.0,2053.0,0,-28.0,
2193.0,1986.0,0,-28.0,
2162.0,2032.0,0.47481,-28.0,
2095.0,2112.0,0,-28.0,
2067.0,2185.0,0,-28.0,
2025.0,2117.0,0,-28.0,
2045.0,2101.0,0,-28.0,
2094.0,2106.0,0,-28.0,
