LabVIEW Measurement,
Writer_Version,2
Reader_Version,2
Separator,Comma
Decimal_Separator,.
Multi_Headings,No
X_Columns,Multi
Time_Pref,Absolute
Operator,Dymnz
Date,2017/09/16
Time,11:19:50.7973255833529580746
***End_of_Header***,
,
Channels,1,
Samples,1000,
Date,2017/09/16,
Time,11:19:50.7973255833529580746,
Y_Unit_Label,Volts,
X_Dimension,Time,
X0,0.0000000000000000E+0,
Delta_X,0.001000,
***End_of_Header***,,
X_Value,Voltage,Comment
0.000000,-0.806823
0.001000,-1.286680
0.002000,-1.982918
0.003000,-2.606605
0.004000,-3.179378
0.005000,-3.492494
0.006000,-3.519224
0.007000,-3.202289
0.008000,-2.724978
0.009000,-2.282033
0.010000,-1.923095
0.011000,-0.643901
0.012000,-0.463159
0.013000,-0.855191
0.014000,-1.240858
0.015000,-1.542519
0.016000,-1.883637
0.017000,-1.906548
0.018000,-1.709260
0.019000,-0.731726
0.020000,-0.388062
0.021000,-1.001566
0.022000,-1.728352
0.023000,-2.330401
0.024000,-2.494596
0.025000,-2.345675
0.026000,-2.178934
0.027000,-2.044014
0.028000,-1.808540
0.029000,-1.676166
0.030000,-1.651982
0.031000,-1.188672
0.032000,-0.993929
0.033000,-0.870465
0.034000,-0.818279
0.035000,-0.985019
0.036000,-1.006657
0.037000,-1.118667
0.038000,-1.184854
0.039000,-1.196309
0.040000,-1.071572
0.041000,-1.004112
0.042000,-1.109757
0.043000,-1.435601
0.044000,-1.429237
0.045000,-0.950653
0.046000,-0.995202
0.047000,0.198713
0.048000,0.557651
0.049000,0.249626
0.050000,-0.172954
0.051000,-0.197138
0.052000,-0.819551
0.053000,-1.667256
0.054000,-2.854807
0.055000,-3.557409
0.056000,-3.867979
0.057000,-3.918892
0.058000,-3.614686
0.059000,-3.246838
0.060000,-3.021547
0.061000,-2.696976
0.062000,-2.341856
0.063000,-1.943460
0.064000,-1.668529
0.065000,-1.370687
0.066000,-1.181035
0.067000,-1.039751
0.068000,-0.965927
0.069000,-1.093210
0.070000,-1.191218
0.071000,-1.282862
0.072000,-1.279043
0.073000,-0.368970
0.074000,-0.283690
0.075000,-0.750819
0.076000,-1.448329
0.077000,-1.651982
0.078000,-1.808540
0.079000,-1.881092
0.080000,-1.789448
0.081000,-1.898911
0.082000,-1.988009
0.083000,-1.876000
0.084000,-1.634163
0.085000,-1.142850
0.086000,-1.066480
0.087000,-1.086846
0.088000,-0.827188
0.089000,-0.421156
0.090000,-0.828461
0.091000,-1.504334
0.092000,-2.106383
0.093000,-2.415680
0.094000,-1.827633
0.095000,-1.510698
0.096000,-1.533609
0.097000,-1.774174
0.098000,-1.855635
0.099000,-2.014739
0.100000,-2.156023
0.101000,-2.133112
0.102000,-1.826360
0.103000,-0.475887
0.104000,0.430368
0.105000,1.453723
0.106000,1.113877
0.107000,0.124888
0.108000,-0.505162
0.109000,-0.684631
0.110000,-0.741909
0.111000,-1.613797
0.112000,-2.415680
0.113000,-3.099190
0.114000,-3.486130
0.115000,-3.505223
0.116000,-3.339755
0.117000,-3.187015
0.118000,-2.985908
0.119000,-2.542963
0.120000,-2.142022
0.121000,-1.907821
0.122000,-1.744899
0.123000,-1.525972
0.124000,-1.475059
0.125000,-1.458512
0.126000,-1.383415
0.127000,-1.211583
0.128000,-1.088119
0.129000,-1.178490
0.130000,-1.203946
0.131000,-1.295590
0.132000,-1.589614
0.133000,-1.566703
0.134000,-1.518335
0.135000,-1.406326
0.136000,-0.452976
0.137000,0.131253
0.138000,-0.486070
0.139000,-1.239585
0.140000,-2.021103
0.141000,-2.604059
0.142000,-2.632061
0.143000,-2.264214
0.144000,-1.905275
0.145000,-1.461058
0.146000,-0.587896
0.147000,-0.358787
0.148000,-0.747000
0.149000,-1.229403
0.150000,-1.453421
0.151000,-1.713078
0.152000,-1.784357
0.153000,-1.598523
0.154000,-1.383415
0.155000,-1.144123
0.156000,-1.142850
0.157000,-1.251041
0.158000,-1.393598
0.159000,-0.155134
0.160000,0.620019
0.161000,0.054883
0.162000,-0.803005
0.163000,-1.598523
0.164000,-2.282033
0.165000,-2.616787
0.166000,-2.657518
0.167000,-2.528962
0.168000,-2.444955
0.169000,-2.394042
0.170000,-2.489504
0.171000,-2.450047
0.172000,-2.329128
0.173000,-1.566703
0.174000,0.019243
0.175000,-0.020214
0.176000,-0.629900
0.177000,-1.300681
0.178000,-1.668529
0.179000,-0.795368
0.180000,-0.662993
0.181000,0.054883
0.182000,-0.626081
0.183000,-1.667256
0.184000,-2.788619
0.185000,-3.337209
0.186000,-3.495040
0.187000,-3.351210
0.188000,-3.031730
0.189000,-2.471685
0.190000,-2.055469
0.191000,-1.833997
0.192000,-1.867091
0.193000,-1.916731
0.194000,-1.597251
0.195000,-1.248495
0.196000,-1.070299
0.197000,-1.098301
0.198000,-0.899740
0.199000,-0.880647
0.200000,-1.062662
0.201000,-1.186127
0.202000,-1.332502
0.203000,-1.354140
0.204000,-1.327411
0.205000,-1.195036
0.206000,-1.010476
0.207000,-0.898467
0.208000,-1.019386
0.209000,-1.202673
0.210000,-1.261223
0.211000,-1.210310
0.212000,-1.321046
0.213000,-1.284134
0.214000,-1.189945
0.215000,-1.262496
0.216000,-1.480150
0.217000,-1.634163
0.218000,-1.599796
0.219000,-1.589614
0.220000,-1.592159
0.221000,-0.381698
0.222000,0.168165
0.223000,1.150789
0.224000,0.580562
0.225000,-0.708815
0.226000,-1.863272
0.227000,-2.590058
0.228000,-2.847170
0.229000,-3.044458
0.230000,-3.036821
0.231000,-2.852261
0.232000,-2.558237
0.233000,-2.382587
0.234000,-2.400406
0.235000,-2.415680
0.236000,-2.181480
0.237000,-1.925641
0.238000,-1.109757
0.239000,-0.139860
0.240000,1.979402
0.241000,2.726553
0.242000,1.222068
0.243000,-0.806823
0.244000,-2.478049
0.245000,-3.782700
0.246000,-4.337654
0.247000,-4.226917
0.248000,-3.866706
0.249000,-3.419943
0.250000,-2.803893
0.251000,-2.439864
0.252000,-2.139476
0.253000,-1.939642
0.254000,-1.756354
0.255000,-1.688894
0.256000,-1.543792
0.257000,-1.356686
0.258000,-1.230676
0.259000,-1.052479
0.260000,-0.829734
0.261000,-0.902285
0.262000,-1.133940
0.263000,-1.151760
0.264000,-0.787731
0.265000,-0.570077
0.266000,0.109614
0.267000,-0.109312
0.268000,-0.934106
0.269000,-2.030013
0.270000,-1.678712
0.271000,-1.463603
0.272000,-1.804722
0.273000,-2.074562
0.274000,-2.094927
0.275000,-1.982918
0.276000,-1.825087
0.277000,-1.793266
0.278000,-1.407599
0.279000,-0.769911
0.280000,0.360362
0.281000,0.306903
0.282000,-0.377879
0.283000,-1.044842
0.284000,-1.639254
0.285000,-1.898911
0.286000,-2.026194
0.287000,-2.023649
0.288000,-1.948552
0.289000,-1.938369
0.290000,-1.229403
0.291000,0.029426
0.292000,0.276355
0.293000,-0.673176
0.294000,-1.475059
0.295000,-1.440693
0.296000,-1.909094
0.297000,-2.293489
0.298000,-2.458956
0.299000,-2.764436
0.300000,-2.898083
0.301000,-2.702067
0.302000,-2.424590
0.303000,-2.367313
0.304000,-2.044014
0.305000,-1.891274
0.306000,-1.972735
0.307000,-1.865818
0.308000,-1.632890
0.309000,-1.476332
0.310000,-1.399962
0.311000,-1.291771
0.312000,-1.245950
0.313000,-1.192491
0.314000,-1.033387
0.315000,-0.897194
0.316000,-0.797913
0.317000,-0.817006
0.318000,-1.133940
0.319000,-1.510698
0.320000,-0.797913
0.321000,-0.743182
0.322000,-1.077936
0.323000,-1.435601
0.324000,-1.214129
0.325000,-1.057571
0.326000,-1.214129
0.327000,-1.621434
0.328000,-2.061834
0.329000,-1.807268
0.330000,-1.481423
0.331000,-1.732171
0.332000,-2.242575
0.333000,-2.425863
0.334000,-2.410589
0.335000,-2.350766
0.336000,-2.278215
0.337000,-1.868363
0.338000,-1.583249
0.339000,-1.335048
0.340000,-0.374061
0.341000,0.315813
0.342000,0.306903
0.343000,-0.436430
0.344000,-1.314682
0.345000,-1.993101
0.346000,-2.058015
0.347000,0.150345
0.348000,0.763849
0.349000,-0.002395
0.350000,-1.142850
0.351000,-2.395315
0.352000,-3.236656
0.353000,-3.622323
0.354000,-3.689783
0.355000,-3.209926
0.356000,-2.637153
0.357000,-1.758900
0.358000,-1.399962
0.359000,-1.459785
0.360000,-1.856908
0.361000,-1.518335
0.362000,-1.336320
0.363000,-1.357959
0.364000,-1.361777
0.365000,-1.580704
0.366000,-1.746172
0.367000,-1.830178
0.368000,-1.979100
0.369000,-1.960007
0.370000,-1.849271
0.371000,-1.732171
0.372000,-1.728352
0.373000,-1.097028
0.374000,-0.230231
0.375000,-0.306601
0.376000,-0.689723
0.377000,-0.986292
0.378000,-1.340139
0.379000,-1.551429
0.380000,-0.318056
0.381000,0.241989
0.382000,0.087976
0.383000,0.126161
0.384000,-0.794095
0.385000,-1.776720
0.386000,-2.409316
0.387000,-2.843351
0.388000,-3.005001
0.389000,-2.741525
0.390000,-2.400406
0.391000,-2.142022
0.392000,-1.916731
0.393000,-1.774174
0.394000,-1.921822
0.395000,-1.916731
0.396000,-1.671075
0.397000,-1.564157
0.398000,-1.405053
0.399000,-1.379597
0.400000,-1.394871
0.401000,-1.401235
0.402000,-1.513244
0.403000,-1.216674
0.404000,-1.118667
0.405000,-1.293044
0.406000,-1.560339
0.407000,-1.766537
0.408000,-1.902730
0.409000,-1.926914
0.410000,-0.892103
0.411000,-0.698633
0.412000,-0.939197
0.413000,-1.214129
0.414000,-1.567976
0.415000,-1.728352
0.416000,-1.575612
0.417000,-0.675722
0.418000,0.154163
0.419000,-0.242959
0.420000,-0.976110
0.421000,-1.537428
0.422000,-0.920105
0.423000,-1.206492
0.424000,-1.886183
0.425000,-2.402952
0.426000,-2.733888
0.427000,-2.894264
0.428000,-2.914630
0.429000,-2.738979
0.430000,-2.661336
0.431000,-2.265486
0.432000,-1.644345
0.433000,-0.631173
0.434000,-0.255688
0.435000,0.318359
0.436000,-0.067309
0.437000,-0.407155
0.438000,-0.740636
0.439000,-1.349049
0.440000,-1.751263
0.441000,-2.058015
0.442000,-2.352039
0.443000,-2.313854
0.444000,-2.294761
0.445000,-2.346947
0.446000,-1.669802
0.447000,-1.233221
0.448000,-1.193763
0.449000,-1.500516
0.450000,-1.844180
0.451000,-1.735989
0.452000,-1.634163
0.453000,-1.711805
0.454000,-1.879819
0.455000,-1.887456
0.456000,-1.909094
0.457000,-1.923095
0.458000,-1.830178
0.459000,-1.696531
0.460000,-1.514517
0.461000,-1.383415
0.462000,-1.261223
0.463000,-1.136486
0.464000,-1.091937
0.465000,-1.336320
0.466000,-1.480150
0.467000,-0.682086
0.468000,-0.484797
0.469000,-0.996475
0.470000,-1.324865
0.471000,-0.968473
0.472000,-0.055853
0.473000,-0.310419
0.474000,-0.862828
0.475000,-1.542519
0.476000,-1.251041
0.477000,-1.468695
0.478000,-2.010920
0.479000,-2.418226
0.480000,-2.392769
0.481000,-2.035104
0.482000,-2.208209
0.483000,-2.177661
0.484000,-2.232393
0.485000,-2.201845
0.486000,-2.102564
0.487000,0.328541
0.488000,1.774476
0.489000,1.032416
0.490000,-0.567531
0.491000,-2.116565
0.492000,-3.146285
0.493000,-3.534498
0.494000,-3.635051
0.495000,-3.426307
0.496000,-3.008819
0.497000,-2.433500
0.498000,-1.953643
0.499000,-1.835270
0.500000,-1.438147
0.501000,-1.158124
0.502000,-0.995202
0.503000,-0.926469
0.504000,-0.626081
0.505000,-0.623536
0.506000,-0.852645
0.507000,-1.088119
0.508000,-1.425419
0.509000,-1.648164
0.510000,-1.616343
0.511000,-1.640527
0.512000,-1.695259
0.513000,-1.629071
0.514000,-1.593432
0.515000,-1.447057
0.516000,-1.368141
0.517000,-1.468695
0.518000,-1.592159
0.519000,-1.627799
0.520000,-1.704168
0.521000,-1.747445
0.522000,-1.691440
0.523000,-1.541246
0.524000,-1.025750
0.525000,-1.449602
0.526000,-1.202673
0.527000,-1.191218
0.528000,-0.736818
0.529000,-0.873010
0.530000,-1.343957
0.531000,-1.125031
0.532000,-0.399518
0.533000,-0.876829
0.534000,-0.870465
0.535000,-0.595533
0.536000,-1.226857
0.537000,-1.228130
0.538000,-1.380869
0.539000,-1.650709
0.540000,-1.906548
0.541000,-2.167478
0.542000,-2.373677
0.543000,-2.520052
0.544000,-2.439864
0.545000,-2.064379
0.546000,-1.637981
0.547000,-1.552702
0.548000,-1.537428
0.549000,-1.640527
0.550000,-1.743626
0.551000,-1.788175
0.552000,-1.780538
0.553000,-1.785629
0.554000,-1.844180
0.555000,-1.850544
0.556000,-1.732171
0.557000,-1.564157
0.558000,-1.471240
0.559000,-1.254859
0.560000,-1.140305
0.561000,-1.286680
0.562000,-0.995202
0.563000,0.087976
0.564000,0.048519
0.565000,-0.687177
0.566000,-1.410145
0.567000,-2.050378
0.568000,-2.409316
0.569000,-2.680429
0.570000,-2.665155
0.571000,-2.480595
0.572000,-2.324037
0.573000,-2.353312
0.574000,-2.021103
0.575000,-1.032114
0.576000,-0.619717
0.577000,-0.813187
0.578000,-1.191218
0.579000,-1.618889
0.580000,-1.098301
0.581000,-0.852645
0.582000,-1.164488
0.583000,-1.553974
0.584000,-1.855635
0.585000,-2.005829
0.586000,-1.900184
0.587000,-0.841190
0.588000,-0.442794
0.589000,-0.680813
0.590000,-1.015567
0.591000,-1.169580
0.592000,-0.399518
0.593000,1.295892
0.594000,0.695116
0.595000,-0.539529
0.596000,-1.644345
0.597000,-2.598968
0.598000,-3.170468
0.599000,-3.031730
0.600000,-3.008819
0.601000,-2.871353
0.602000,-2.784801
0.603000,-2.632061
0.604000,-2.255304
0.605000,-2.191662
0.606000,-2.022376
0.607000,-1.925641
0.608000,-1.771628
0.609000,-1.643072
0.610000,-1.541246
0.611000,-1.548883
0.612000,-1.503061
0.613000,-1.426691
0.614000,-1.182308
0.615000,-1.051207
0.616000,-0.996475
0.617000,-0.842462
0.618000,-0.568804
0.619000,-0.796641
0.620000,-0.624808
0.621000,-1.240858
0.622000,-0.934106
0.623000,-1.173398
0.624000,-1.924368
0.625000,-2.844624
0.626000,-3.271022
0.627000,-3.259567
0.628000,-1.868363
0.629000,-0.604443
0.630000,-0.629900
0.631000,-0.929015
0.632000,-1.308318
0.633000,-1.741080
0.634000,-1.539973
0.635000,-1.322319
0.636000,-1.364323
0.637000,-1.321046
0.638000,-1.245950
0.639000,-1.294317
0.640000,-1.268860
0.641000,-1.314682
0.642000,-1.205219
0.643000,-1.184854
0.644000,-1.388506
0.645000,-1.538700
0.646000,-1.547610
0.647000,-1.490333
0.648000,-1.452148
0.649000,-1.422873
0.650000,-1.382142
0.651000,-1.384688
0.652000,-1.389779
0.653000,-1.441965
0.654000,-1.524699
0.655000,-1.648164
0.656000,-1.711805
0.657000,-1.662165
0.658000,-1.570521
0.659000,-1.435601
0.660000,-0.540802
0.661000,-0.081310
0.662000,-0.493707
0.663000,-1.095756
0.664000,-1.630344
0.665000,-1.929459
0.666000,-2.176388
0.667000,-2.392769
0.668000,-2.481867
0.669000,-2.456411
0.670000,-2.284579
0.671000,-1.224311
0.672000,0.406184
0.673000,0.297993
0.674000,-0.656629
0.675000,-1.839088
0.676000,-1.918004
0.677000,-0.664266
0.678000,-1.182308
0.679000,-2.130566
0.680000,-2.952815
0.681000,-3.342301
0.682000,-3.432671
0.683000,-3.277386
0.684000,-2.890446
0.685000,-2.704613
0.686000,-2.079653
0.687000,-1.612525
0.688000,-1.141577
0.689000,-0.750819
0.690000,-0.520436
0.691000,-0.648992
0.692000,-0.851372
0.693000,-0.883193
0.694000,-0.648992
0.695000,-0.734272
0.696000,-0.939197
0.697000,-1.145396
0.698000,-1.285407
0.699000,-1.294317
0.700000,-1.382142
0.701000,-1.522154
0.702000,-1.552702
0.703000,-1.429237
0.704000,-1.419054
0.705000,-1.489060
0.706000,-1.529791
0.707000,-1.617616
0.708000,-1.744899
0.709000,-1.714351
0.710000,-1.592159
0.711000,-1.240858
0.712000,-0.441521
0.713000,-0.674449
0.714000,-0.503890
0.715000,-0.398245
0.716000,-0.945562
0.717000,-1.570521
0.718000,-2.148386
0.719000,-2.462775
0.720000,-2.460229
0.721000,-2.448774
0.722000,-2.387678
0.723000,-2.233666
0.724000,-2.178934
0.725000,-1.837815
0.726000,-1.802176
0.727000,-2.103837
0.728000,-1.827633
0.729000,-1.312137
0.730000,-1.445784
0.731000,-1.876000
0.732000,-2.360949
0.733000,-0.979928
0.734000,-0.867919
0.735000,-1.137759
0.736000,-0.683359
0.737000,-0.971018
0.738000,-1.687622
0.739000,-2.028740
0.740000,-2.110201
0.741000,-1.892547
0.742000,-1.667256
0.743000,-1.374505
0.744000,-1.041024
0.745000,-0.915014
0.746000,-0.752091
0.747000,-0.913741
0.748000,-1.177217
0.749000,-1.230676
0.750000,-0.078764
0.751000,0.434186
0.752000,0.118524
0.753000,-0.685904
0.754000,-1.522154
0.755000,-2.215846
0.756000,-2.550600
0.757000,-2.700794
0.758000,-2.657518
0.759000,-2.353312
0.760000,-2.061834
0.761000,-1.863272
0.762000,-1.891274
0.763000,-1.869636
0.764000,-1.900184
0.765000,-1.864545
0.766000,-1.147942
0.767000,-0.507708
0.768000,-0.729181
0.769000,-1.116121
0.770000,-0.650265
0.771000,-0.626081
0.772000,-1.159397
0.773000,-1.727079
0.774000,-2.135658
0.775000,-2.405498
0.776000,-2.367313
0.777000,-2.304944
0.778000,-2.130566
0.779000,-1.982918
0.780000,-1.517062
0.781000,-0.949380
0.782000,-0.850099
0.783000,-1.205219
0.784000,-1.811086
0.785000,-2.046560
0.786000,-2.469139
0.787000,-2.630789
0.788000,-2.540418
0.789000,-2.500960
0.790000,-2.392769
0.791000,-2.094927
0.792000,-1.589614
0.793000,-0.545893
0.794000,0.392183
0.795000,0.584380
0.796000,0.033245
0.797000,-0.606989
0.798000,-0.482252
0.799000,-0.111858
0.800000,-0.497525
0.801000,-1.001566
0.802000,-1.481423
0.803000,-1.798358
0.804000,-2.157296
0.805000,-2.344402
0.806000,-2.450047
0.807000,-2.240030
0.808000,-1.707987
0.809000,-1.065208
0.810000,-0.912468
0.811000,-0.595533
0.812000,-0.398245
0.813000,-1.077936
0.814000,-1.940915
0.815000,-2.422044
0.816000,-2.531508
0.817000,-2.434773
0.818000,-2.201845
0.819000,-2.060561
0.820000,-1.877273
0.821000,-1.786902
0.822000,-1.776720
0.823000,-1.664711
0.824000,-1.454694
0.825000,-1.220493
0.826000,-1.114848
0.827000,-1.114848
0.828000,-1.149214
0.829000,-1.207765
0.830000,-1.248495
0.831000,-1.266315
0.832000,-1.277770
0.833000,-1.356686
0.834000,-1.452148
0.835000,-1.546337
0.836000,-1.100847
0.837000,-0.875556
0.838000,-1.025750
0.839000,-0.762274
0.840000,-1.463603
0.841000,-1.480150
0.842000,-1.335048
0.843000,-1.906548
0.844000,-2.402952
0.845000,-2.822986
0.846000,-3.041913
0.847000,-2.894264
0.848000,-2.564601
0.849000,-2.134385
0.850000,-1.723261
0.851000,-1.323592
0.852000,-0.931561
0.853000,-0.964654
0.854000,-1.287953
0.855000,-1.455966
0.856000,-1.177217
0.857000,-0.542075
0.858000,-0.608262
0.859000,-0.885739
0.860000,-1.102120
0.861000,-1.341412
0.862000,-1.478877
0.863000,-1.696531
0.864000,-1.761446
0.865000,-1.772901
0.866000,-1.695259
0.867000,-1.777992
0.868000,-1.788175
0.869000,-1.770355
0.870000,-1.606160
0.871000,-1.433056
0.872000,-1.239585
0.873000,-1.234494
0.874000,-1.284134
0.875000,-1.359231
0.876000,-1.669802
0.877000,-1.366868
0.878000,-0.969745
0.879000,-1.009203
0.880000,-1.235767
0.881000,-1.425419
0.882000,-1.739808
0.883000,-1.993101
0.884000,-1.932005
0.885000,-1.895093
0.886000,0.873312
0.887000,2.415982
0.888000,1.421902
0.889000,-0.241687
0.890000,-1.905275
0.891000,-3.179378
0.892000,-3.659235
0.893000,-3.608322
0.894000,-3.342301
0.895000,-2.998636
0.896000,-2.217119
0.897000,-1.832724
0.898000,-2.000738
0.899000,-2.345675
0.900000,-1.882365
0.901000,-1.575612
0.902000,-1.575612
0.903000,-1.105938
0.904000,-1.085573
0.905000,-1.570521
0.906000,-1.940915
0.907000,-2.198026
0.908000,-2.348220
0.909000,-2.143295
0.910000,-1.918004
0.911000,-1.593432
0.912000,-1.310864
0.913000,-1.186127
0.914000,-1.051207
0.915000,-1.057571
0.916000,-1.025750
0.917000,-0.791549
0.918000,-0.809369
0.919000,-0.862828
0.920000,-0.987565
0.921000,-1.057571
0.922000,-1.161943
0.923000,-1.301954
0.924000,-1.427964
0.925000,-1.492879
0.926000,-1.573067
0.927000,-1.845452
0.928000,-1.943460
0.929000,-2.153477
0.930000,-1.425419
0.931000,-0.775002
0.932000,-1.151760
0.933000,-1.583249
0.934000,-1.842907
0.935000,-0.543347
0.936000,-0.273507
0.937000,-0.825916
0.938000,-1.687622
0.939000,-0.654084
0.940000,-0.661721
0.941000,-0.506435
0.942000,-0.256961
0.943000,-1.091937
0.944000,-2.168751
0.945000,-2.269305
0.946000,-1.714351
0.947000,-1.769083
0.948000,-2.154750
0.949000,-2.512415
0.950000,-2.726251
0.951000,-2.637153
0.952000,-2.457684
0.953000,-2.275669
0.954000,-2.366040
0.955000,-2.261668
0.956000,-2.111474
0.957000,-1.980372
0.958000,-1.604888
0.959000,-1.377051
0.960000,-1.335048
0.961000,-1.192491
0.962000,-1.144123
0.963000,-1.102120
0.964000,-1.153033
0.965000,-1.212856
0.966000,-1.151760
0.967000,-1.132668
0.968000,-1.066480
0.969000,-1.074117
0.970000,-1.216674
0.971000,-1.403780
0.972000,-1.491606
0.973000,-1.543792
0.974000,-1.570521
0.975000,-1.571794
0.976000,-1.366868
0.977000,-0.820824
0.978000,-0.841190
0.979000,-1.089391
0.980000,-1.374505
0.981000,-1.700350
0.982000,-1.859454
0.983000,-1.888729
0.984000,-1.881092
0.985000,-1.833997
0.986000,-1.808540
0.987000,-1.752536
0.988000,-1.716897
0.989000,-1.714351
0.990000,-1.721988
0.991000,-1.363050
0.992000,-0.764820
0.993000,-1.001566
0.994000,-1.489060
0.995000,-1.803449
0.996000,-1.189945
0.997000,-1.075390
0.998000,-1.234494
0.999000,-0.875556
1.000000,-1.509425
1.001000,-1.835270
1.002000,-1.667256
1.003000,-1.864545
1.004000,-2.315127
1.005000,-2.446228
1.006000,-2.457684
1.007000,-2.274396
1.008000,-2.087290
1.009000,-1.785629
1.010000,-1.537428
1.011000,-0.911195
1.012000,-0.608262
1.013000,-0.530619
1.014000,-0.492434
1.015000,-0.829734
1.016000,-1.324865
1.017000,-1.489060
1.018000,-1.732171
1.019000,-1.597251
1.020000,-1.360504
1.021000,-1.525972
1.022000,-1.629071
1.023000,-1.763991
1.024000,-1.807268
1.025000,-1.195036
1.026000,-1.085573
1.027000,-1.229403
1.028000,-1.387234
1.029000,-1.649437
1.030000,-1.615070
1.031000,-0.925196
1.032000,-0.991384
1.033000,-1.462331
1.034000,-1.748717
1.035000,-1.942188
1.036000,-2.073289
1.037000,-2.147113
1.038000,-2.033831
1.039000,-1.692713
1.040000,-1.466149
1.041000,-0.622263
1.042000,-0.791549
1.043000,-1.327411
1.044000,-2.060561
1.045000,-1.630344
1.046000,-0.926469
1.047000,0.670932
1.048000,0.241989
1.049000,-0.953199
1.050000,-1.946006
1.051000,-2.574784
1.052000,-3.206108
1.053000,-3.426307
1.054000,-3.187015
1.055000,-2.736433
1.056000,-2.380041
1.057000,-2.334219
1.058000,-1.688894
1.059000,-1.010476
1.060000,-0.846281
1.061000,-1.076663
1.062000,-1.369414
1.063000,-1.575612
1.064000,-1.695259
1.065000,-1.682530
1.066000,-1.505607
1.067000,-1.273952
1.068000,-1.262496
1.069000,-1.332502
1.070000,-1.398689
1.071000,-1.309591
1.072000,-1.028296
1.073000,-0.959563
1.074000,-1.035933
1.075000,-0.553530
1.076000,-0.368970
1.077000,-0.353696
1.078000,-0.790276
1.079000,-1.391052
1.080000,-1.995646
1.081000,-2.480595
1.082000,-1.794539
1.083000,-1.189945
1.084000,-1.256132
1.085000,-1.576885
1.086000,-1.921822
1.087000,-1.957461
1.088000,-1.928186
1.089000,-1.830178
1.090000,-1.560339
1.091000,-1.275225
1.092000,-1.291771
1.093000,-1.427964
1.094000,-1.539973
1.095000,-1.583249
1.096000,-1.604888
1.097000,-1.486514
1.098000,-1.457239
1.099000,-1.565430
1.100000,-1.609979
1.101000,-0.880647
1.102000,-0.594261
1.103000,-0.909922
1.104000,-1.307045
1.105000,-1.415236
1.106000,0.086703
1.107000,-0.024033
1.108000,-0.701178
1.109000,-0.333330
1.110000,-1.445784
1.111000,-2.358403
1.112000,-2.792438
1.113000,-3.047004
1.114000,-3.166650
1.115000,-3.089007
1.116000,-3.179378
1.117000,-3.151376
1.118000,-3.024093
1.119000,-2.745343
1.120000,-1.946006
1.121000,-0.996475
1.122000,-0.706270
1.123000,-0.993929
1.124000,-1.293044
1.125000,-1.519608
1.126000,-1.503061
1.127000,-1.237040
1.128000,-1.013022
1.129000,-1.093210
1.130000,-1.188672
1.131000,-1.491606
1.132000,-1.967644
1.133000,-2.131839
1.134000,-1.601069
1.135000,-0.960836
1.136000,-1.030841
1.137000,-1.331229
1.138000,-1.412690
1.139000,-1.612525
1.140000,-1.693986
1.141000,-1.733443
1.142000,-1.645618
1.143000,-1.331229
1.144000,-0.983747
1.145000,-0.951926
1.146000,-1.280316
1.147000,-1.430510
1.148000,-1.249768
1.149000,-1.142850
1.150000,-1.251041
1.151000,-1.173398
1.152000,-1.198855
1.153000,-1.261223
1.154000,-1.191218
1.155000,0.179620
1.156000,1.280618
1.157000,0.623838
1.158000,-0.461886
1.159000,-1.590886
1.160000,-2.545509
1.161000,-3.045731
1.162000,-2.245121
1.163000,-2.171297
1.164000,-2.392769
1.165000,-2.498414
1.166000,-2.576057
1.167000,-2.721159
1.168000,-2.814076
1.169000,-2.653699
1.170000,-2.470412
1.171000,-2.136931
1.172000,-1.888729
1.173000,-1.534882
1.174000,-1.373233
1.175000,-1.368141
1.176000,-1.266315
1.177000,-1.117394
1.178000,-0.670630
1.179000,-0.340967
1.180000,-0.544620
1.181000,-0.969745
1.182000,-1.471240
1.183000,-1.608706
1.184000,-1.561611
1.185000,-1.427964
1.186000,-1.559066
1.187000,-1.762718
1.188000,-1.839088
1.189000,-1.466149
1.190000,-0.053308
1.191000,-0.236595
1.192000,-0.483524
1.193000,-0.540802
1.194000,-0.973564
1.195000,-1.318501
1.196000,-1.758900
1.197000,-2.241303
1.198000,-1.988009
1.199000,-1.644345
1.200000,-1.790721
1.201000,-1.803449
1.202000,-1.976554
1.203000,-2.332946
1.204000,-2.576057
1.205000,-2.682975
1.206000,-2.511143
1.207000,-1.821269
1.208000,-0.958290
1.209000,-0.687177
1.210000,-0.281144
1.211000,0.914043
1.212000,1.188974
1.213000,0.029426
1.214000,-1.453421
1.215000,-2.782255
1.216000,-3.767426
1.217000,-4.011809
1.218000,-3.688510
1.219000,-3.227746
1.220000,-2.892992
1.221000,-2.243848
1.222000,-1.861999
1.223000,-1.663438
1.224000,-1.501788
1.225000,-1.147942
1.226000,-0.951926
1.227000,-0.898467
1.228000,-0.885739
1.229000,-0.862828
1.230000,-0.856464
1.231000,-1.071572
1.232000,-1.128849
1.233000,-0.864101
1.234000,0.691298
1.235000,1.101149
1.236000,0.412548
1.237000,-0.559894
1.238000,-1.602342
1.239000,-2.273123
1.240000,-2.643517
1.241000,-2.835714
1.242000,-2.833169
1.243000,-2.611696
1.244000,-2.400406
1.245000,-2.121657
1.246000,-1.440693
1.247000,-1.329956
1.248000,-1.441965
1.249000,-1.452148
1.250000,-1.593432
1.251000,-1.706714
1.252000,-1.609979
1.253000,-1.679985
1.254000,-1.604888
1.255000,-1.588341
1.256000,-1.711805
1.257000,-1.739808
1.258000,-1.687622
1.259000,-1.382142
1.260000,-1.318501
1.261000,-0.988838
1.262000,0.370545
1.263000,0.011607
1.264000,-0.718998
1.265000,-1.485242
1.266000,-1.538700
1.267000,-1.490333
1.268000,-1.412690
1.269000,-0.935379
1.270000,-1.284134
1.271000,-1.882365
1.272000,-2.313854
1.273000,-2.694430
1.274000,-2.864989
1.275000,-2.782255
1.276000,-2.465321
1.277000,-2.408043
1.278000,-1.608706
1.279000,-1.371960
1.280000,-1.434328
1.281000,-1.644345
1.282000,-1.961280
1.283000,-2.012193
1.284000,-1.819996
1.285000,-1.604888
1.286000,-1.449602
1.287000,-1.365596
1.288000,-1.249768
1.289000,-0.893376
1.290000,-0.580259
1.291000,0.910224
1.292000,1.667558
1.293000,1.345532
1.294000,0.309449
1.295000,-0.557348
1.296000,-1.158124
1.297000,-1.873455
1.298000,-2.520052
1.299000,-2.857352
1.300000,-2.733888
1.301000,-2.554419
1.302000,-2.516234
1.303000,-2.537872
1.304000,-2.623152
1.305000,-2.472958
1.306000,-2.299853
1.307000,-2.000738
1.308000,-1.733443
1.309000,-1.593432
1.310000,-1.497970
1.311000,-1.359231
1.312000,-1.567976
1.313000,-1.709260
1.314000,-1.439420
1.315000,-0.623536
1.316000,-0.939197
1.317000,-0.850099
1.318000,0.157982
1.319000,0.061247
1.320000,-0.749546
1.321000,-1.687622
1.322000,-2.354584
1.323000,-2.718614
1.324000,-2.783528
1.325000,-2.772073
1.326000,-2.534053
1.327000,-2.293489
1.328000,-2.036377
1.329000,-1.247222
1.330000,-1.052479
1.331000,-1.161943
1.332000,-1.128849
1.333000,-0.591715
1.334000,-1.100847
1.335000,-1.524699
1.336000,-1.780538
1.337000,-2.042741
1.338000,-1.807268
1.339000,-1.212856
1.340000,-0.796641
1.341000,-0.866646
1.342000,-1.132668
1.343000,-1.539973
1.344000,-1.725806
1.345000,-1.780538
1.346000,-1.648164
1.347000,-1.461058
1.348000,-1.421600
1.349000,-1.608706
1.350000,-1.574340
1.351000,-1.520881
1.352000,-1.415236
1.353000,-1.368141
1.354000,-1.555247
1.355000,-1.687622
1.356000,-1.214129
1.357000,-1.299408
1.358000,-1.559066
1.359000,-1.662165
1.360000,-1.721988
1.361000,-1.733443
1.362000,-1.639254
1.363000,-1.676166
1.364000,-1.690167
1.365000,-1.555247
1.366000,-1.496697
1.367000,-1.336320
1.368000,-1.150487
1.369000,-1.192491
1.370000,-1.256132
1.371000,-0.455522
1.372000,0.042154
1.373000,-0.391881
1.374000,-1.039751
1.375000,-1.668529
1.376000,-1.455966
1.377000,-0.671903
1.378000,-0.977382
1.379000,-1.417782
1.380000,-1.911640
1.381000,-2.433500
1.382000,-2.830623
1.383000,-2.780982
1.384000,-2.691884
1.385000,-2.128021
1.386000,-0.729181
1.387000,-0.155134
1.388000,-0.623536
1.389000,-1.646891
1.390000,-2.189117
1.391000,-2.728796
1.392000,-3.048277
1.393000,-2.824259
1.394000,-2.250212
1.395000,0.309449
1.396000,1.554276
1.397000,1.116423
1.398000,-0.260779
1.399000,-1.804722
1.400000,-2.775891
1.401000,-3.099190
1.402000,-3.213745
1.403000,-2.923539
1.404000,-2.446228
1.405000,-2.093654
1.406000,-1.952370
1.407000,-1.776720
1.408000,-1.509425
1.409000,-1.397416
1.410000,-1.253586
1.411000,-1.088119
1.412000,-1.029568
1.413000,-1.144123
1.414000,-1.198855
1.415000,-1.253586
1.416000,-1.323592
1.417000,-1.441965
1.418000,-1.429237
1.419000,-1.505607
1.420000,-1.562884
1.421000,-1.588341
1.422000,-1.489060
1.423000,-1.477605
1.424000,-1.494151
1.425000,-1.585795
1.426000,-1.580704
1.427000,-1.636708
1.428000,-1.667256
1.429000,-1.439420
1.430000,-0.489889
1.431000,-0.357514
1.432000,-0.664266
1.433000,-1.188672
1.434000,-1.742353
1.435000,-2.265486
1.436000,-2.405498
1.437000,-1.503061
1.438000,-1.066480
1.439000,-0.689723
1.440000,0.488918
1.441000,0.093068
1.442000,-0.726635
1.443000,-1.592159
1.444000,-2.251485
1.445000,-2.634607
1.446000,-2.474230
1.447000,-2.544236
1.448000,-2.427136
1.449000,-2.254031
1.450000,-2.164933
1.451000,-2.055469
1.452000,-2.304944
1.453000,-2.437318
1.454000,-1.654528
1.455000,-1.214129
1.456000,-1.103393
1.457000,-0.095311
1.458000,0.077794
1.459000,-0.598079
1.460000,-1.328683
1.461000,-1.828906
1.462000,-2.161114
1.463000,-2.173843
1.464000,-2.162387
1.465000,-1.912912
1.466000,-1.723261
1.467000,-1.772901
1.468000,-1.002839
1.469000,-0.324421
1.470000,-0.643901
1.471000,-1.065208
1.472000,-1.650709
1.473000,-2.232393
1.474000,-2.324037
1.475000,-2.185298
1.476000,-1.785629
1.477000,-1.786902
1.478000,-1.459785
1.479000,-0.791549
1.480000,-1.069026
1.481000,-1.604888
1.482000,-1.665983
1.483000,-1.897638
1.484000,-2.091109
1.485000,-2.013466
1.486000,-1.868363
1.487000,-1.485242
1.488000,-0.338422
1.489000,-0.297691
1.490000,-0.825916
1.491000,-1.177217
1.492000,-1.436874
1.493000,-1.425419
1.494000,-1.658346
1.495000,-1.615070
1.496000,-1.406326
1.497000,-1.189945
1.498000,-1.145396
1.499000,-1.136486
1.500000,-1.259951
1.501000,-1.494151
1.502000,-1.601069
1.503000,-1.668529
1.504000,-1.742353
1.505000,-1.752536
1.506000,-1.715624
1.507000,-1.651982
1.508000,-1.699077
1.509000,-1.737262
1.510000,-1.701623
1.511000,-1.696531
1.512000,-1.634163
1.513000,-1.565430
1.514000,-1.473786
1.515000,-1.300681
1.516000,-1.149214
1.517000,-1.137759
1.518000,-1.261223
1.519000,-1.405053
1.520000,-1.522154
1.521000,-1.482696
1.522000,-1.434328
1.523000,-1.459785
1.524000,-1.509425
1.525000,-1.429237
1.526000,-1.383415
1.527000,-1.412690
1.528000,-0.460613
1.529000,-0.431338
1.530000,-1.029568
1.531000,0.751121
1.532000,1.266617
1.533000,-0.134769
1.534000,-1.342685
1.535000,-1.641800
1.536000,-2.302398
1.537000,-3.315571
1.538000,-4.090725
1.539000,-4.380930
1.540000,-4.174731
1.541000,-3.749606
1.542000,-3.086462
1.543000,-2.306217
1.544000,-2.016012
1.545000,-1.588341
1.546000,-1.490333
1.547000,-1.337593
1.548000,-1.196309
1.549000,-0.931561
1.550000,-0.866646
1.551000,-0.762274
1.552000,-0.930288
1.553000,-1.286680
1.554000,-1.412690
1.555000,-1.438147
1.556000,-1.487787
1.557000,-1.413963
1.558000,-1.173398
1.559000,-1.079209
1.560000,-1.063935
1.561000,-1.074117
1.562000,-1.051207
1.563000,-1.184854
1.564000,-1.248495
1.565000,-1.202673
1.566000,-1.314682
1.567000,-1.356686
1.568000,-1.447057
1.569000,-1.536155
1.570000,-1.625253
1.571000,-1.668529
1.572000,-1.651982
1.573000,-1.597251
1.574000,-1.581977
1.575000,-1.523426
1.576000,-1.406326
1.577000,-1.294317
1.578000,-1.209037
1.579000,-1.287953
1.580000,-1.405053
1.581000,-1.403780
1.582000,-1.378324
1.583000,-1.397416
1.584000,-1.461058
1.585000,-1.569248
1.586000,-1.658346
1.587000,-1.713078
1.588000,-1.697804
1.589000,-1.671075
1.590000,-1.657074
1.591000,-1.631617
1.592000,-1.641800
1.593000,-1.630344
1.594000,-1.584522
1.595000,-1.079209
1.596000,-0.861555
1.597000,-0.997748
1.598000,-1.231948
1.599000,-1.532336
1.600000,-1.849271
1.601000,-2.091109
1.602000,-2.210755
1.603000,-2.283306
1.604000,-1.276497
1.605000,0.259808
1.606000,0.160528
1.607000,0.634020
1.608000,-0.225140
1.609000,-0.884466
1.610000,-1.207765
1.611000,-0.408427
1.612000,-0.564985
1.613000,-1.383415
1.614000,-2.381314
1.615000,-3.295206
1.616000,-4.034720
1.617000,-4.023265
1.618000,-3.623596
1.619000,-3.332118
1.620000,-3.068642
1.621000,-2.677883
1.622000,-2.052924
1.623000,-1.542519
1.624000,-1.543792
1.625000,-1.500516
1.626000,-1.538700
1.627000,-1.187399
1.628000,-1.001566
1.629000,-1.002839
1.630000,-0.988838
1.631000,-1.116121
1.632000,-1.048661
1.633000,-0.797913
1.634000,-0.913741
1.635000,-1.079209
1.636000,-1.271406
1.637000,-1.450875
1.638000,-1.595978
1.639000,-1.611252
1.640000,-1.565430
1.641000,-1.517062
1.642000,-1.546337
1.643000,-1.612525
1.644000,-1.506880
1.645000,-1.455966
1.646000,-1.350322
1.647000,-1.265042
1.648000,-1.443238
1.649000,-1.383415
1.650000,-1.357959
1.651000,-1.416509
1.652000,-1.326138
1.653000,-1.215402
1.654000,-1.173398
1.655000,-1.170853
1.656000,-1.184854
1.657000,-1.130122
1.658000,-1.128849
1.659000,-0.106767
1.660000,0.280174
1.661000,-0.311692
1.662000,-1.108484
1.663000,-0.857736
1.664000,-0.057126
1.665000,1.112604
1.666000,1.570823
1.667000,-0.379152
1.668000,-2.436046
1.669000,-3.862888
1.670000,-4.729685
1.671000,-5.154810
1.672000,-4.876061
1.673000,-4.355473
1.674000,-3.837431
1.675000,-3.301570
1.676000,-2.872626
1.677000,-2.270578
1.678000,-1.583249
1.679000,-1.270133
1.680000,-1.268860
1.681000,-1.086846
1.682000,-0.771184
1.683000,-0.790276
1.684000,-0.839917
1.685000,-0.724089
1.686000,-0.861555
1.687000,-0.946834
1.688000,-0.878102
1.689000,-0.803005
1.690000,-0.945562
1.691000,-1.228130
1.692000,-1.382142
1.693000,-1.313410
1.694000,-1.127576
1.695000,-0.615899
1.696000,-0.692268
1.697000,-1.205219
1.698000,-1.580704
1.699000,-1.999465
1.700000,-2.308763
1.701000,-2.462775
1.702000,-2.390224
1.703000,-2.101291
1.704000,-1.244677
1.705000,1.242433
1.706000,1.410447
1.707000,0.334905
1.708000,-0.939197
1.709000,-1.937096
1.710000,-2.610423
1.711000,-2.635880
1.712000,-2.721159
1.713000,-2.331673
1.714000,-1.886183
1.715000,-1.742353
1.716000,-1.874728
1.717000,-2.195481
1.718000,-2.232393
1.719000,-2.008375
1.720000,-1.650709
1.721000,-1.356686
1.722000,-0.356241
1.723000,0.728210
1.724000,0.182166
1.725000,-0.832280
1.726000,-1.620162
1.727000,-2.348220
1.728000,-2.079653
1.729000,-0.580259
1.730000,-0.623536
1.731000,-1.375778
1.732000,-1.996919
1.733000,-2.532781
1.734000,-3.118282
1.735000,-3.391941
1.736000,-3.170468
1.737000,-2.763163
1.738000,-2.238757
1.739000,-1.901457
1.740000,-1.668529
1.741000,-1.685076
1.742000,-1.697804
1.743000,-1.682530
1.744000,-1.590886
1.745000,-1.256132
1.746000,-1.001566
1.747000,-0.909922
1.748000,-1.039751
1.749000,-1.128849
1.750000,-1.225584
1.751000,-1.349049
1.752000,-1.417782
1.753000,-1.097028
1.754000,-0.847554
1.755000,-0.958290
1.756000,-0.255688
1.757000,-0.629900
1.758000,-1.436874
1.759000,-2.280760
1.760000,-2.759344
1.761000,-2.766981
1.762000,-2.424590
1.763000,-2.171297
1.764000,-1.636708
1.765000,-1.273952
1.766000,-0.890830
1.767000,-0.619717
1.768000,-0.654084
1.769000,-0.722816
1.770000,-0.572622
1.771000,0.224169
1.772000,0.893678
1.773000,0.422731
1.774000,-0.505162
1.775000,-1.248495
1.776000,-1.786902
1.777000,-2.089836
1.778000,-2.282033
1.779000,-2.415680
1.780000,-2.325309
1.781000,-2.204390
1.782000,-2.173843
1.783000,-2.190389
1.784000,-2.103837
1.785000,-2.040195
1.786000,-1.900184
1.787000,-1.809813
1.788000,-1.660892
1.789000,-1.597251
1.790000,-1.672348
1.791000,-1.828906
1.792000,-1.831451
1.793000,-1.032114
1.794000,-0.831007
1.795000,-0.416064
1.796000,-0.483524
1.797000,-0.930288
1.798000,-1.500516
1.799000,-2.046560
1.800000,-2.452592
1.801000,-2.578603
1.802000,-2.556964
1.803000,-2.457684
1.804000,-2.288397
1.805000,-1.999465
1.806000,0.234352
1.807000,0.985321
1.808000,0.184711
1.809000,-0.753364
1.810000,-1.772901
1.811000,-2.522598
1.812000,-2.812803
1.813000,-2.746616
1.814000,-2.447501
1.815000,-2.367313
1.816000,-2.273123
1.817000,-1.998192
1.818000,-0.646447
1.819000,-0.343513
1.820000,0.592017
1.821000,0.768940
1.822000,-0.012577
1.823000,-1.159397
1.824000,-2.171297
1.825000,-2.917175
1.826000,-3.138648
1.827000,-3.043185
1.828000,-2.724978
1.829000,-2.234938
1.830000,-1.995646
1.831000,-1.833997
1.832000,-1.653255
1.833000,-1.594705
1.834000,-1.481423
1.835000,-1.485242
1.836000,-1.434328
1.837000,-1.398689
1.838000,-1.365596
1.839000,-1.452148
1.840000,-1.359231
1.841000,-1.343957
1.842000,-1.345230
1.843000,-1.165761
1.844000,-1.114848
1.845000,-1.084300
1.846000,-0.427520
1.847000,-0.610807
1.848000,-1.275225
1.849000,-1.595978
1.850000,-2.016012
1.851000,-2.091109
1.852000,-1.416509
1.853000,-1.444511
1.854000,-1.623980
1.855000,-1.811086
1.856000,-2.051651
1.857000,-2.262941
1.858000,-2.153477
1.859000,-1.957461
1.860000,-1.525972
1.861000,-1.039751
1.862000,-0.614626
1.863000,-0.570077
1.864000,-0.917559
1.865000,-1.305773
1.866000,-1.333775
1.867000,-1.254859
1.868000,-1.159397
1.869000,-1.086846
1.870000,-1.160670
1.871000,-1.287953
1.872000,-1.436874
1.873000,-1.147942
1.874000,-0.366424
1.875000,-0.488616
1.876000,-1.103393
1.877000,-1.393598
1.878000,0.136344
1.879000,1.023506
1.880000,0.789306
1.881000,-0.482252
1.882000,-1.981645
1.883000,-3.286296
1.884000,-3.311753
1.885000,-2.976998
1.886000,-3.162831
1.887000,-3.189561
1.888000,-2.956633
1.889000,-2.871353
1.890000,-2.899356
1.891000,-2.745343
1.892000,-2.432227
1.893000,-2.275669
1.894000,-1.991828
1.895000,-1.637981
1.896000,-1.482696
1.897000,-1.448329
1.898000,-1.421600
1.899000,-1.547610
1.900000,-1.632890
1.901000,-1.747445
1.902000,-1.830178
1.903000,-1.808540
1.904000,-1.735989
1.905000,-1.478877
1.906000,-1.235767
1.907000,-1.202673
1.908000,-1.163216
1.909000,-1.058844
1.910000,-0.992656
1.911000,-0.987565
1.912000,-0.670630
1.913000,-0.082583
1.914000,-0.092766
1.915000,0.154163
1.916000,0.483826
1.917000,-0.092766
1.918000,-0.806823
1.919000,-1.587068
1.920000,-2.329128
1.921000,-2.662609
1.922000,-2.786074
1.923000,-2.637153
1.924000,-2.401679
1.925000,-2.167478
1.926000,-1.972735
1.927000,-1.777992
1.928000,-1.685076
1.929000,-1.411417
1.930000,-1.291771
1.931000,-1.323592
1.932000,-1.229403
1.933000,-1.033387
1.934000,-1.010476
1.935000,-1.147942
1.936000,-0.846281
1.937000,-0.360060
1.938000,-0.241687
1.939000,-0.571350
1.940000,-1.389779
1.941000,-1.099574
1.942000,-1.523426
1.943000,-2.273123
1.944000,-2.942632
1.945000,-3.362666
1.946000,-3.384304
1.947000,-3.103008
1.948000,-2.791165
1.949000,-1.825087
1.950000,-0.234050
1.951000,-0.155134
1.952000,-0.524255
1.953000,-1.053752
1.954000,-1.700350
1.955000,-2.122929
1.956000,-2.055469
1.957000,-1.930732
1.958000,-1.933278
1.959000,-1.870909
1.960000,-1.743626
1.961000,-1.615070
1.962000,-1.480150
1.963000,-1.314682
1.964000,-1.277770
1.965000,-0.850099
1.966000,-0.324421
1.967000,-0.311692
1.968000,-0.623536
1.969000,-0.913741
1.970000,-1.289226
1.971000,-1.616343
1.972000,-1.635435
1.973000,-1.074117
1.974000,-1.057571
1.975000,-1.501788
1.976000,-1.918004
1.977000,-2.424590
1.978000,-2.008375
1.979000,-1.243404
1.980000,-1.441965
1.981000,-1.753809
1.982000,-0.959563
1.983000,-0.054581
1.984000,-0.352423
1.985000,-1.024477
1.986000,-1.906548
1.987000,-2.466593
1.988000,-2.601513
1.989000,-1.555247
1.990000,-1.193763
1.991000,-1.239585
1.992000,-1.482696
1.993000,-2.077107
1.994000,-2.531508
1.995000,-2.420772
1.996000,-1.713078
1.997000,-1.662165
1.998000,-1.569248
1.999000,-1.630344
2.000000,-1.779265
2.001000,-1.925641
2.002000,-2.087290
2.003000,-2.147113
2.004000,-2.007102
2.005000,-1.817450
2.006000,-1.617616
2.007000,-1.481423
2.008000,-1.500516
2.009000,-1.504334
2.010000,-1.207765
2.011000,-1.090664
2.012000,-1.065208
2.013000,-1.108484
2.014000,-1.229403
2.015000,-1.279043
2.016000,-1.305773
2.017000,-1.299408
2.018000,-1.169580
2.019000,-1.056298
2.020000,-1.077936
2.021000,-0.945562
2.022000,-1.063935
2.023000,-1.249768
2.024000,-1.536155
2.025000,-1.853089
2.026000,-1.884910
2.027000,-1.781811
2.028000,-1.729625
2.029000,-1.910367
2.030000,-2.098746
2.031000,-1.202673
2.032000,-0.515345
2.033000,0.819854
2.034000,0.224169
2.035000,-1.249768
2.036000,-2.549327
2.037000,-3.250657
2.038000,-3.232837
2.039000,-2.215846
2.040000,-1.956189
2.041000,-1.918004
2.042000,-2.014739
2.043000,-2.055469
2.044000,-2.112747
2.045000,-1.930732
2.046000,-1.881092
2.047000,-1.345230
2.048000,-0.875556
2.049000,-0.754637
2.050000,-0.628627
2.051000,-0.767365
2.052000,-0.506435
2.053000,0.065065
2.054000,-0.053308
2.055000,-0.142406
2.056000,-0.558621
2.057000,-0.587896
2.058000,-1.186127
2.059000,-1.916731
2.060000,-2.484413
2.061000,-2.778437
2.062000,-2.922267
2.063000,-2.875172
2.064000,-2.917175
2.065000,-2.401679
2.066000,-2.022376
2.067000,-1.960007
2.068000,-1.841634
2.069000,-1.537428
2.070000,-1.356686
2.071000,-1.158124
2.072000,-1.154306
2.073000,-1.066480
2.074000,-0.698633
2.075000,-0.730453
2.076000,-0.833553
2.077000,-1.193763
2.078000,-1.497970
2.079000,-1.611252
2.080000,-1.713078
2.081000,-1.855635
2.082000,-1.893820
2.083000,-1.905275
2.084000,-1.732171
2.085000,-0.528073
2.086000,-0.239141
2.087000,-0.608262
2.088000,-1.159397
2.089000,-1.828906
2.090000,-1.366868
2.091000,-1.020659
2.092000,-1.202673
2.093000,-1.560339
2.094000,-2.008375
2.095000,-2.424590
2.096000,-2.492050
2.097000,-2.279487
2.098000,-0.782639
2.099000,-0.111858
2.100000,-0.386789
2.101000,-0.035488
2.102000,-0.684631
2.103000,-1.701623
2.104000,-2.490777
2.105000,-3.039367
2.106000,-3.134829
2.107000,-2.884082
2.108000,-2.670246
2.109000,-2.413135
2.110000,-2.199299
2.111000,-2.217119
2.112000,-2.023649
2.113000,-1.975281
2.114000,-1.940915
2.115000,-1.739808
2.116000,-1.557793
2.117000,-1.453421
2.118000,-1.440693
2.119000,-0.750819
2.120000,-0.423701
2.121000,0.141435
2.122000,-0.281144
2.123000,-1.127576
2.124000,-2.486959
2.125000,-2.184025
2.126000,-1.167034
2.127000,-1.212856
2.128000,-0.522982
2.129000,0.966229
2.130000,0.490191
2.131000,-0.874283
2.132000,-2.154750
2.133000,-3.356302
2.134000,-3.995262
2.135000,-3.795428
2.136000,-2.913357
2.137000,-1.904003
2.138000,-1.006657
2.139000,-0.731726
2.140000,-0.899740
2.141000,-1.084300
2.142000,-1.192491
2.143000,-1.019386
2.144000,-0.969745
2.145000,-0.398245
2.146000,-0.452976
2.147000,-0.899740
2.148000,-1.270133
2.149000,-1.643072
2.150000,-1.915458
2.151000,-1.886183
2.152000,-1.855635
2.153000,-1.791994
2.154000,-1.683803
2.155000,-1.576885
2.156000,-1.551429
2.157000,-1.635435
2.158000,-1.655801
2.159000,-1.589614
2.160000,-1.594705
2.161000,-1.609979
2.162000,-1.578158
2.163000,-1.335048
2.164000,-1.169580
2.165000,-1.394871
2.166000,-1.564157
2.167000,-1.751263
2.168000,-1.920549
2.169000,-1.942188
2.170000,-1.828906
2.171000,-0.576441
2.172000,0.107069
2.173000,-0.227686
2.174000,-0.832280
2.175000,-1.517062
2.176000,-2.111474
2.177000,-2.516234
2.178000,-2.584967
2.179000,-2.441137
2.180000,-2.285852
2.181000,-2.111474
2.182000,-1.812359
2.183000,-1.770355
2.184000,-1.758900
2.185000,-1.626526
2.186000,-1.542519
2.187000,-1.430510
2.188000,-1.112302
2.189000,-0.129678
2.190000,0.628929
2.191000,1.735018
2.192000,0.940772
2.193000,-0.638810
2.194000,-2.033831
2.195000,-2.773345
2.196000,-3.083916
2.197000,-3.147558
2.198000,-2.816622
2.199000,-2.545509
2.200000,-2.265486
2.201000,-2.033831
2.202000,-1.710532
2.203000,-1.831451
2.204000,-1.949824
2.205000,-1.835270
2.206000,-1.622707
2.207000,-1.520881
2.208000,-1.426691
2.209000,-1.433056
2.210000,-1.419054
2.211000,-1.426691
2.212000,-1.132668
2.213000,-0.848827
2.214000,-0.524255
2.215000,-0.312965
2.216000,-0.916287
2.217000,-1.606160
2.218000,-1.571794
2.219000,-0.776275
2.220000,-1.053752
2.221000,-1.781811
2.222000,-2.283306
2.223000,-2.789892
2.224000,-2.450047
2.225000,-1.929459
2.226000,-1.832724
2.227000,-1.487787
2.228000,-1.443238
2.229000,-1.541246
2.230000,-1.627799
2.231000,-1.711805
2.232000,-1.830178
2.233000,-1.733443
2.234000,-1.592159
2.235000,-1.156851
2.236000,-1.109757
2.237000,-1.184854
2.238000,-1.058844
2.239000,-0.775002
2.240000,-0.939197
2.241000,-0.656629
2.242000,-0.483524
2.243000,-0.916287
2.244000,-1.477605
2.245000,-2.122929
2.246000,-2.535326
2.247000,-2.714795
2.248000,-2.653699
2.249000,-2.401679
2.250000,-1.850544
2.251000,-0.410973
2.252000,0.034517
2.253000,-0.315511
2.254000,-0.997748
2.255000,-1.570521
2.256000,-1.872182
2.257000,-1.702895
2.258000,-0.948107
2.259000,-0.862828
2.260000,-1.075390
2.261000,-1.560339
2.262000,-1.909094
2.263000,-2.204390
2.264000,-2.204390
2.265000,-2.201845
2.266000,-2.100018
2.267000,-1.988009
2.268000,-1.942188
2.269000,-1.738535
2.270000,-0.665539
2.271000,0.271264
2.272000,0.364180
2.273000,-0.276053
2.274000,-1.256132
2.275000,-2.208209
2.276000,-2.983362
2.277000,-2.430954
2.278000,-1.932005
2.279000,-1.907821
2.280000,-2.107655
2.281000,-2.224756
2.282000,-2.078380
2.283000,-1.988009
2.284000,-1.918004
2.285000,-1.896366
2.286000,-1.718169
2.287000,-1.588341
2.288000,-1.286680
2.289000,-0.875556
2.290000,-0.389335
2.291000,-0.698633
2.292000,-0.655356
2.293000,-0.540802
2.294000,-0.804278
2.295000,-1.251041
2.296000,-1.695259
2.297000,-1.981645
2.298000,-2.080926
2.299000,-0.995202
2.300000,-0.745727
2.301000,-1.063935
2.302000,-1.617616
2.303000,-2.077107
2.304000,-2.453865
2.305000,-2.401679
2.306000,-2.476776
2.307000,-2.320218
2.308000,-1.304500
2.309000,-1.094483
2.310000,-1.420327
2.311000,-1.858181
2.312000,-2.074562
2.313000,-2.126748
2.314000,-2.044014
2.315000,-1.988009
2.316000,-1.823814
2.317000,-1.588341
2.318000,-1.452148
2.319000,-1.030841
2.320000,-0.726635
2.321000,-1.108484
2.322000,-1.412690
2.323000,-1.622707
2.324000,-0.972291
2.325000,-0.685904
2.326000,-1.025750
2.327000,-1.270133
2.328000,-1.043570
2.329000,0.084158
2.330000,-0.085129
2.331000,-0.432611
2.332000,-0.057126
2.333000,-0.326966
2.334000,-1.174671
2.335000,-1.881092
2.336000,-2.513688
2.337000,-2.905720
2.338000,-2.868808
2.339000,-2.716068
2.340000,-2.467866
2.341000,-2.418226
2.342000,-2.271850
2.343000,-2.152204
2.344000,-2.288397
2.345000,-2.261668
2.346000,-1.654528
2.347000,-0.407155
2.348000,0.931863
2.349000,0.478735
2.350000,-0.493707
2.351000,-1.419054
2.352000,-2.303671
2.353000,-2.878990
2.354000,-2.998636
2.355000,-2.564601
2.356000,-2.176388
2.357000,-1.835270
2.358000,-1.531063
2.359000,-1.480150
2.360000,-1.490333
2.361000,-1.639254
2.362000,-1.632890
2.363000,-0.823370
2.364000,-0.256961
2.365000,-0.426247
2.366000,-0.789004
2.367000,-1.296863
2.368000,-1.630344
2.369000,-1.789448
2.370000,-1.915458
2.371000,-1.996919
2.372000,-2.032558
2.373000,-1.965098
2.374000,-1.957461
2.375000,-1.984191
2.376000,-1.993101
2.377000,-1.809813
2.378000,-1.503061
2.379000,-1.327411
2.380000,-1.357959
2.381000,-1.363050
2.382000,-1.391052
2.383000,-1.439420
2.384000,-1.467422
2.385000,-1.416509
2.386000,-0.856464
2.387000,-0.198410
2.388000,-0.111858
2.389000,-0.212412
2.390000,-0.859009
2.391000,-1.338866
2.392000,-1.667256
2.393000,-2.136931
2.394000,-2.134385
2.395000,-2.107655
2.396000,-2.042741
2.397000,-2.075835
2.398000,-2.065652
2.399000,-2.052924
2.400000,-1.797085
2.401000,-1.732171
2.402000,-1.760173
2.403000,-1.840361
2.404000,-1.205219
2.405000,-0.482252
2.406000,-0.409700
2.407000,-0.675722
2.408000,-0.906104
2.409000,-0.529346
2.410000,-0.955744
2.411000,-1.486514
2.412000,-1.707987
2.413000,-1.089391
2.414000,0.269991
2.415000,0.287811
2.416000,-0.590442
2.417000,-1.808540
2.418000,-2.876445
2.419000,-2.960452
2.420000,-2.483140
2.421000,-2.637153
2.422000,-2.722432
2.423000,-2.695703
2.424000,-2.499687
2.425000,-2.461502
2.426000,-2.439864
2.427000,-2.304944
2.428000,-1.948552
2.429000,-1.892547
2.430000,-1.776720
2.431000,-1.702895
2.432000,-1.679985
2.433000,-1.429237
2.434000,-1.439420
2.435000,-1.440693
2.436000,-1.253586
2.437000,-1.000293
2.438000,-0.179318
2.439000,0.333632
2.440000,0.005242
2.441000,-0.377879
2.442000,-0.917559
2.443000,-1.506880
2.444000,-1.902730
2.445000,-1.929459
2.446000,-1.888729
2.447000,-1.879819
2.448000,-1.864545
2.449000,-1.942188
2.450000,-1.925641
2.451000,-1.982918
2.452000,-1.954916
2.453000,-1.816177
2.454000,-1.239585
2.455000,-0.929015
2.456000,-0.899740
2.457000,-1.066480
2.458000,-1.212856
2.459000,-1.324865
2.460000,-1.420327
2.461000,-1.489060
2.462000,-1.561611
2.463000,-1.165761
2.464000,0.795670
2.465000,0.896223
2.466000,-0.115676
2.467000,-1.121212
2.468000,-2.195481
2.469000,-3.057187
2.470000,-3.020275
2.471000,-3.026639
2.472000,-2.985908
2.473000,-2.857352
2.474000,-2.723705
2.475000,-2.500960
2.476000,-2.242575
2.477000,-2.002011
2.478000,-1.732171
2.479000,-1.403780
2.480000,-1.140305
2.481000,-0.931561
2.482000,-1.060116
2.483000,-1.154306
2.484000,-1.049934
2.485000,-1.015567
2.486000,-1.118667
2.487000,-1.323592
2.488000,-1.286680
2.489000,-1.253586
2.490000,-1.392325
2.491000,-1.337593
2.492000,-1.303227
2.493000,-1.160670
2.494000,-1.261223
2.495000,-1.337593
2.496000,-1.319774
2.497000,-1.315955
2.498000,0.977684
2.499000,1.349351
2.500000,0.575470
2.501000,0.444369
2.502000,-0.811914
2.503000,-2.231120
2.504000,-3.203562
2.505000,-3.736878
2.506000,-3.954532
2.507000,-3.838704
2.508000,-3.680873
2.509000,-3.352483
2.510000,-2.560783
2.511000,-2.054197
2.512000,-1.746172
2.513000,-1.678712
2.514000,-1.679985
2.515000,-1.552702
2.516000,-1.415236
2.517000,-1.347776
2.518000,-1.156851
2.519000,-1.043570
2.520000,-1.062662
2.521000,-1.108484
2.522000,-1.089391
2.523000,-1.070299
2.524000,-0.449158
2.525000,0.947137
2.526000,0.930590
2.527000,0.177074
2.528000,-0.820824
2.529000,-1.802176
2.530000,-2.222210
2.531000,-2.248940
2.532000,-2.462775
2.533000,-2.554419
2.534000,-1.835270
2.535000,-1.837815
2.536000,-2.164933
2.537000,-2.420772
2.538000,-2.670246
2.539000,-2.456411
2.540000,-2.044014
2.541000,-1.728352
2.542000,-1.499243
2.543000,-1.263769
2.544000,-1.005385
2.545000,-0.939197
2.546000,-1.005385
2.547000,-1.094483
2.548000,-1.200128
2.549000,-1.333775
2.550000,-1.545065
2.551000,-1.408872
2.552000,-1.368141
2.553000,-0.697360
2.554000,-0.424974
2.555000,-0.589169
2.556000,-0.234050
2.557000,-0.592988
2.558000,-1.234494
2.559000,-0.706270
2.560000,-0.251869
2.561000,-0.870465
2.562000,-1.574340
2.563000,-2.442410
2.564000,-3.212472
2.565000,-3.489949
2.566000,-3.454310
2.567000,-3.239201
2.568000,-3.064824
2.569000,-2.707158
2.570000,-2.273123
2.571000,-2.012193
2.572000,-1.837815
2.573000,-1.771628
2.574000,-1.724534
2.575000,-1.158124
2.576000,-0.232777
2.577000,-0.083856
2.578000,-0.137315
2.579000,0.650567
2.580000,0.154163
2.581000,-0.008759
2.582000,-0.137315
2.583000,-1.049934
2.584000,-2.080926
2.585000,-2.732615
2.586000,-3.156467
2.587000,-3.365211
2.588000,-3.412306
2.589000,-3.114464
2.590000,-2.250212
2.591000,-1.803449
2.592000,-1.603615
2.593000,-1.564157
2.594000,-1.439420
2.595000,-1.478877
2.596000,-0.435157
2.597000,-0.153861
2.598000,-0.494980
2.599000,-0.878102
2.600000,-1.387234
2.601000,-1.953643
2.602000,-2.124202
2.603000,-1.821269
2.604000,-1.704168
2.605000,-1.566703
2.606000,-1.415236
2.607000,-1.364323
2.608000,-1.366868
2.609000,-1.478877
2.610000,-1.504334
2.611000,-1.427964
2.612000,-1.233221
2.613000,-1.089391
2.614000,-1.169580
2.615000,-1.137759
2.616000,-1.245950
2.617000,-1.277770
2.618000,-1.369414
2.619000,-1.357959
2.620000,-0.771184
2.621000,-0.265870
2.622000,-0.403336
2.623000,-0.305328
2.624000,-0.883193
2.625000,-1.597251
2.626000,-0.189501
2.627000,-0.309147
2.628000,-1.159397
2.629000,-2.054197
2.630000,-1.649437
2.631000,-1.758900
2.632000,-2.227301
2.633000,-2.761890
2.634000,-2.791165
2.635000,-2.905720
2.636000,-2.815349
2.637000,-2.634607
2.638000,-2.610423
2.639000,-2.472958
2.640000,-2.024921
2.641000,-2.073289
2.642000,-1.994374
2.643000,-1.490333
2.644000,-0.895921
2.645000,-0.892103
2.646000,-1.156851
2.647000,-1.436874
2.648000,-1.851817
2.649000,-1.977827
2.650000,-1.762718
2.651000,-1.579431
2.652000,-1.543792
2.653000,-1.564157
2.654000,-1.486514
2.655000,-1.223039
2.656000,-1.061389
2.657000,-0.477160
2.658000,-0.552257
2.659000,-0.885739
2.660000,-1.193763
2.661000,-1.458512
2.662000,-1.765264
2.663000,-2.150932
2.664000,-2.176388
2.665000,-1.210310
2.666000,-1.018113
2.667000,-1.290499
2.668000,-1.657074
2.669000,-2.003283
2.670000,-2.195481
2.671000,-1.095756
2.672000,-0.603170
2.673000,-0.945562
2.674000,-1.298136
2.675000,-1.546337
2.676000,-1.822541
2.677000,-2.014739
2.678000,-1.958734
2.679000,-1.751263
2.680000,-1.529791
2.681000,-1.308318
2.682000,-1.153033
2.683000,-1.111030
2.684000,-1.299408
2.685000,-0.465705
2.686000,0.045973
2.687000,-0.410973
2.688000,-1.093210
2.689000,-0.809369
2.690000,-0.918832
2.691000,-1.458512
2.692000,-2.171297
2.693000,-1.491606
2.694000,-1.259951
2.695000,-1.753809
2.696000,-2.336765
2.697000,-2.807712
2.698000,-2.969361
2.699000,-2.927358
2.700000,-2.740252
2.701000,-2.483140
2.702000,-2.320218
2.703000,-1.986737
2.704000,-1.448329
2.705000,-1.298136
2.706000,-1.458512
2.707000,-1.405053
2.708000,-1.324865
2.709000,-1.253586
2.710000,-1.112302
2.711000,-1.051207
2.712000,-1.126303
2.713000,-1.206492
2.714000,-1.305773
2.715000,-1.354140
2.716000,-0.932833
2.717000,-0.564985
2.718000,-0.740636
2.719000,-1.141577
2.720000,-1.685076
2.721000,-2.242575
2.722000,-2.759344
2.723000,-3.016456
2.724000,-2.363494
2.725000,-1.762718
2.726000,-0.715179
2.727000,-0.684631
2.728000,-1.158124
2.729000,-1.623980
2.730000,-1.193763
2.731000,-0.772457
2.732000,-0.878102
2.733000,-0.999020
2.734000,-1.071572
2.735000,-1.426691
2.736000,-1.581977
2.737000,-1.438147
2.738000,-1.504334
2.739000,-1.579431
2.740000,-1.174671
2.741000,-0.790276
2.742000,-0.659175
2.743000,-0.436430
2.744000,-0.340967
2.745000,-0.951926
2.746000,-1.025750
2.747000,-0.841190
2.748000,-1.369414
2.749000,-2.028740
2.750000,-2.371131
2.751000,-2.702067
2.752000,-2.934995
2.753000,-2.792438
2.754000,-2.513688
2.755000,-2.265486
2.756000,-1.944733
2.757000,-1.846725
2.758000,-1.714351
2.759000,-1.705441
2.760000,-1.630344
2.761000,-1.389779
2.762000,-1.172125
2.763000,-1.188672
2.764000,-1.286680
2.765000,-1.503061
2.766000,-1.564157
2.767000,-1.766537
2.768000,-1.909094
2.769000,-1.802176
2.770000,-1.757627
2.771000,-1.749990
2.772000,-1.603615
2.773000,-1.598523
2.774000,-1.489060
2.775000,-1.333775
2.776000,-1.186127
2.777000,-1.145396
2.778000,-1.156851
2.779000,-1.153033
2.780000,-1.221766
2.781000,-1.321046
2.782000,-1.347776
2.783000,-1.240858
2.784000,-1.382142
2.785000,-1.533609
2.786000,-1.590886
2.787000,-1.611252
2.788000,-1.629071
2.789000,-1.623980
2.790000,-1.520881
2.791000,-0.859009
2.792000,-0.619717
2.793000,-0.859009
2.794000,-1.335048
2.795000,-1.821269
2.796000,-2.097473
2.797000,-0.348604
2.798000,0.788033
2.799000,0.964956
2.800000,0.033245
2.801000,-1.478877
2.802000,-2.843351
2.803000,-3.187015
2.804000,-2.142022
2.805000,-0.953199
2.806000,-0.983747
2.807000,-1.921822
2.808000,-2.455138
2.809000,-2.816622
2.810000,-3.540862
2.811000,-3.361393
2.812000,-3.041913
2.813000,-2.941359
2.814000,-2.429681
2.815000,-1.705441
2.816000,-1.397416
2.817000,-1.234494
2.818000,-1.184854
2.819000,-1.154306
2.820000,-1.136486
2.821000,-1.158124
2.822000,-1.102120
2.823000,-1.104665
2.824000,-1.251041
2.825000,-1.340139
2.826000,-1.403780
2.827000,-1.412690
2.828000,-1.284134
2.829000,-0.753364
2.830000,-0.296418
2.831000,-0.524255
2.832000,-1.077936
2.833000,-1.575612
2.834000,-1.999465
2.835000,-2.147113
2.836000,-2.161114
2.837000,-2.036377
2.838000,-1.853089
2.839000,-1.641800
2.840000,-1.385961
2.841000,-1.356686
2.842000,-1.378324
2.843000,-1.370687
2.844000,-0.549712
2.845000,-0.310419
2.846000,-0.545893
2.847000,-0.885739
2.848000,-1.284134
2.849000,-1.594705
2.850000,-1.873455
2.851000,-2.007102
2.852000,-1.989282
2.853000,-1.799631
2.854000,-1.718169
2.855000,0.098159
2.856000,1.001868
2.857000,1.620464
2.858000,1.298438
2.859000,-0.209866
2.860000,-1.307045
2.861000,-2.730069
2.862000,-3.884526
2.863000,-4.336381
2.864000,-4.538761
2.865000,-4.391112
2.866000,-4.033447
2.867000,-3.412306
2.868000,-2.773345
2.869000,-2.177661
2.870000,-1.972735
2.871000,-1.632890
2.872000,-1.417782
2.873000,-1.160670
2.874000,-0.908650
2.875000,-0.717725
2.876000,-0.921378
2.877000,-1.247222
2.878000,-1.391052
2.879000,-1.259951
2.880000,-1.146669
2.881000,-1.279043
2.882000,-1.145396
2.883000,-1.231948
2.884000,-1.137759
2.885000,-1.005385
2.886000,-0.595533
2.887000,-0.390608
2.888000,-0.777548
2.889000,-1.163216
2.890000,-1.532336
2.891000,-1.503061
2.892000,-0.655356
2.893000,-0.682086
2.894000,-1.077936
2.895000,-1.384688
2.896000,-1.583249
2.897000,-1.501788
2.898000,-1.752536
2.899000,-1.963826
2.900000,-1.985464
2.901000,-1.949824
2.902000,-1.771628
2.903000,-1.767810
2.904000,-1.876000
2.905000,-1.929459
2.906000,-1.800903
2.907000,-1.685076
2.908000,-1.494151
2.909000,-1.371960
2.910000,-1.289226
2.911000,-1.520881
2.912000,-1.615070
2.913000,-1.730898
2.914000,-1.641800
2.915000,-0.795368
2.916000,0.681115
2.917000,0.774032
2.918000,0.438005
2.919000,-0.591715
2.920000,-1.725806
2.921000,-2.724978
2.922000,-3.314298
2.923000,-3.384304
2.924000,-2.681702
2.925000,-1.052479
2.926000,-0.231504
2.927000,-0.687177
2.928000,-1.434328
2.929000,-2.360949
2.930000,-3.114464
2.931000,-3.342301
2.932000,-3.291387
2.933000,-2.983362
2.934000,-2.546782
2.935000,-2.182752
2.936000,-1.985464
2.937000,-1.965098
2.938000,-1.952370
2.939000,-1.520881
2.940000,-1.001566
2.941000,0.132525
2.942000,0.142708
2.943000,-0.333330
2.944000,-0.819551
2.945000,-1.083027
2.946000,-1.412690
2.947000,-1.225584
2.948000,-1.326138
2.949000,-1.509425
2.950000,-1.301954
2.951000,-1.284134
2.952000,-1.617616
2.953000,-2.030013
2.954000,-2.242575
2.955000,-2.425863
2.956000,-2.147113
2.957000,-1.621434
2.958000,-1.261223
2.959000,-1.067753
2.960000,-0.962108
2.961000,-0.916287
2.962000,-0.857736
2.963000,-0.878102
2.964000,-1.139032
2.965000,-1.282862
2.966000,-1.245950
2.967000,-1.215402
2.968000,-1.343957
2.969000,-1.371960
2.970000,-1.375778
2.971000,-1.266315
2.972000,-1.314682
2.973000,-1.468695
2.974000,0.051064
2.975000,1.153335
2.976000,0.348906
2.977000,-0.842462
2.978000,-1.980372
2.979000,-2.816622
2.980000,-3.111918
2.981000,-3.007546
2.982000,-1.774174
2.983000,-0.155134
2.984000,0.667114
2.985000,-0.076219
2.986000,-1.467422
2.987000,-2.755526
2.988000,-3.575228
2.989000,-3.963442
2.990000,-3.871798
2.991000,-3.605776
2.992000,-3.175560
2.993000,-2.783528
2.994000,-2.660064
2.995000,-2.285852
2.996000,-1.251041
2.997000,-0.829734
2.998000,-0.967200
2.999000,-1.181035
3.000000,-1.469968
3.001000,-1.786902
3.002000,-1.639254
3.003000,-1.098301
3.004000,-1.094483
3.005000,-1.136486
3.006000,-1.397416
3.007000,-1.513244
3.008000,-1.352867
3.009000,-0.941743
3.010000,-0.727908
3.011000,-0.693541
3.012000,-0.647719
3.013000,-0.732999
3.014000,-0.741909
3.015000,-0.920105
3.016000,-1.393598
3.017000,-1.784357
3.018000,-1.905275
3.019000,-1.758900
3.020000,-1.584522
3.021000,-1.598523
3.022000,-1.603615
3.023000,-0.889557
3.024000,-0.124586
3.025000,1.260253
3.026000,1.751565
3.027000,0.704026
3.028000,-0.657902
3.029000,-1.916731
3.030000,-2.866262
3.031000,-3.273568
3.032000,-3.374121
3.033000,-3.259567
3.034000,-2.861171
3.035000,-2.574784
3.036000,-2.432227
3.037000,-2.432227
3.038000,-2.479322
3.039000,-2.299853
3.040000,-1.925641
3.041000,-1.592159
3.042000,-1.531063
3.043000,-1.412690
3.044000,-1.268860
3.045000,-1.100847
3.046000,-0.755910
3.047000,-1.071572
3.048000,-1.266315
3.049000,-1.625253
3.050000,-2.156023
3.051000,-0.130950
3.052000,0.300539
3.053000,-0.301510
3.054000,-1.074117
3.055000,-1.914185
3.056000,-2.457684
3.057000,-2.866262
3.058000,-2.924812
3.059000,-2.528962
3.060000,-2.041468
3.061000,-1.946006
3.062000,-1.005385
3.063000,-0.284963
3.064000,-0.395699
3.065000,-0.782639
3.066000,-1.312137
3.067000,-1.458512
3.068000,-1.734716
3.069000,-1.988009
3.070000,-1.932005
3.071000,-1.814905
3.072000,-1.839088
3.073000,-1.794539
3.074000,-1.616343
3.075000,-1.133940
3.076000,-1.231948
3.077000,-1.317228
3.078000,-1.387234
3.079000,-1.509425
3.080000,-1.711805
3.081000,-1.645618
3.082000,-0.720271
3.083000,-0.766093
3.084000,-1.027023
3.085000,-1.393598
3.086000,-1.732171
3.087000,-2.021103
3.088000,-0.427520
3.089000,-0.278599
3.090000,-1.093210
3.091000,-1.827633
3.092000,-2.386405
3.093000,-2.495869
3.094000,-2.465321
3.095000,-2.416953
3.096000,-2.280760
3.097000,-1.953643
3.098000,-1.730898
3.099000,-1.557793
3.100000,-1.625253
3.101000,-1.655801
3.102000,-1.444511
3.103000,-1.015567
3.104000,-0.493707
3.105000,-0.534438
3.106000,-0.731726
3.107000,-1.051207
3.108000,-1.453421
3.109000,-1.715624
3.110000,-1.914185
3.111000,-1.974008
3.112000,-1.890001
3.113000,-1.602342
3.114000,-1.387234
3.115000,-0.953199
3.116000,-0.213684
3.117000,-0.444067
3.118000,-0.982474
3.119000,-1.384688
3.120000,-0.115676
3.121000,-0.298964
3.122000,-0.901013
3.123000,-1.519608
3.124000,-2.106383
3.125000,-2.554419
3.126000,-2.758072
3.127000,-2.961724
3.128000,-2.877718
3.129000,-2.084744
3.130000,-1.468695
3.131000,-0.902285
3.132000,-0.837371
3.133000,-1.150487
3.134000,-1.625253
3.135000,-2.175115
3.136000,-2.447501
3.137000,-2.362221
3.138000,-2.255304
3.139000,-2.087290
3.140000,-1.929459
3.141000,-1.798358
3.142000,-0.722816
3.143000,-0.269689
3.144000,-0.643901
3.145000,-0.976110
3.146000,-1.263769
3.147000,-1.532336
3.148000,-1.758900
3.149000,-2.014739
3.150000,-2.111474
3.151000,-1.368141
3.152000,-0.954471
3.153000,-0.393153
3.154000,-0.898467
3.155000,-1.602342
3.156000,-2.116565
3.157000,-2.153477
3.158000,-2.220937
3.159000,-2.023649
3.160000,-1.784357
3.161000,-1.417782
3.162000,-1.090664
3.163000,-1.332502
3.164000,-1.869636
3.165000,-2.032558
3.166000,-1.914185
3.167000,-1.746172
3.168000,-1.584522
3.169000,-1.469968
3.170000,-1.235767
3.171000,-1.295590
3.172000,-1.137759
3.173000,-1.159397
3.174000,-1.234494
3.175000,-1.265042
3.176000,-1.122485
3.177000,-0.428793
3.178000,-0.281144
3.179000,1.220795
3.180000,1.362079
3.181000,-0.155134
3.182000,-1.489060
3.183000,-2.108928
3.184000,-2.432227
3.185000,-2.852261
3.186000,-2.940086
3.187000,-3.047004
3.188000,-3.002455
3.189000,-2.836987
3.190000,-2.704613
3.191000,-2.489504
3.192000,-2.376223
3.193000,-1.914185
3.194000,-1.672348
3.195000,-1.537428
3.196000,-1.373233
3.197000,-0.416064
3.198000,0.118524
3.199000,-0.157680
3.200000,-0.596806
3.201000,-1.144123
3.202000,-1.775447
3.203000,-2.079653
3.204000,-2.245121
3.205000,-2.236211
3.206000,-2.080926
3.207000,-1.957461
3.208000,-1.783084
3.209000,-1.739808
3.210000,-1.198855
3.211000,-0.591715
3.212000,-0.704997
3.213000,-0.668085
3.214000,-0.851372
3.215000,-1.349049
3.216000,-1.777992
3.217000,-2.082199
3.218000,-2.149659
3.219000,-1.846725
3.220000,-1.774174
3.221000,-1.155579
3.222000,-0.647719
3.223000,-0.643901
3.224000,-0.960836
3.225000,-1.667256
3.226000,-2.143295
3.227000,-2.136931
3.228000,-2.144567
3.229000,-2.102564
3.230000,-1.850544
3.231000,-1.398689
3.232000,-1.169580
3.233000,-1.193763
3.234000,-1.303227
3.235000,-1.235767
3.236000,-1.296863
3.237000,-1.354140
3.238000,-1.335048
3.239000,-1.434328
3.240000,-1.812359
3.241000,-0.147497
3.242000,1.104967
3.243000,0.958592
3.244000,0.182166
3.245000,-1.234494
3.246000,-2.397861
3.247000,-3.062278
3.248000,-3.489949
3.249000,-2.797529
3.250000,-1.821269
3.251000,-1.872182
3.252000,-2.100018
3.253000,-2.271850
3.254000,-2.903174
3.255000,-2.933722
3.256000,-2.784801
3.257000,-2.282033
3.258000,-1.811086
3.259000,-1.550156
3.260000,-1.333775
3.261000,-1.359231
3.262000,-1.468695
3.263000,-1.384688
3.264000,-1.191218
3.265000,-0.996475
3.266000,-0.993929
3.267000,-1.088119
3.268000,-1.378324
3.269000,-1.402508
3.270000,0.155436
3.271000,0.388364
3.272000,-0.237868
3.273000,-0.963381
3.274000,-1.732171
3.275000,-2.172570
3.276000,-2.240030
3.277000,-2.149659
3.278000,-1.920549
3.279000,-1.556520
3.280000,-1.346503
3.281000,-1.219220
3.282000,-1.161943
3.283000,-1.403780
3.284000,-1.448329
3.285000,-0.578987
3.286000,-0.567531
3.287000,-0.990111
3.288000,-1.550156
3.289000,-1.846725
3.290000,-2.105110
3.291000,-2.228574
3.292000,-2.248940
3.293000,-2.266759
3.294000,-2.234938
3.295000,-2.273123
3.296000,-2.273123
3.297000,-1.630344
3.298000,-0.986292
3.299000,-0.945562
3.300000,0.556378
3.301000,2.039225
3.302000,0.999323
3.303000,-0.344786
3.304000,-1.333775
3.305000,-2.021103
3.306000,-2.833169
3.307000,-3.315571
3.308000,-3.327027
3.309000,-2.835714
3.310000,-2.665155
3.311000,-2.598968
3.312000,-2.779710
3.313000,-2.988454
3.314000,-2.542963
3.315000,-1.902730
3.316000,-1.566703
3.317000,-1.475059
3.318000,-1.290499
3.319000,-1.088119
3.320000,-1.046115
3.321000,-1.182308
3.322000,-1.244677
3.323000,-1.228130
3.324000,-1.244677
3.325000,-1.240858
3.326000,-1.268860
3.327000,-1.259951
3.328000,-1.324865
3.329000,-1.303227
3.330000,-1.322319
3.331000,-1.408872
3.332000,-1.444511
3.333000,-1.458512
3.334000,-1.531063
3.335000,-1.552702
3.336000,-1.411417
3.337000,-1.333775
3.338000,-1.249768
3.339000,-1.179762
3.340000,-1.173398
3.341000,-1.230676
3.342000,-1.226857
3.343000,-1.196309
3.344000,-1.104665
3.345000,-1.169580
3.346000,-1.216674
3.347000,-1.299408
3.348000,-1.313410
3.349000,-1.379597
3.350000,-1.445784
3.351000,-1.457239
3.352000,-1.338866
3.353000,-1.233221
3.354000,-1.403780
3.355000,-1.545065
3.356000,-1.626526
3.357000,-1.668529
3.358000,-1.772901
3.359000,-1.125031
3.360000,-0.845008
3.361000,-0.755910
3.362000,0.096886
3.363000,-0.087674
3.364000,-1.053752
3.365000,-1.988009
3.366000,-2.914630
3.367000,-3.446673
3.368000,-1.996919
3.369000,-0.338422
3.370000,-0.595533
3.371000,-1.301954
3.372000,-2.273123
3.373000,-3.092826
3.374000,-3.400851
3.375000,-3.258294
3.376000,-3.058459
3.377000,-2.579875
3.378000,-2.167478
3.379000,-1.777992
3.380000,-1.592159
3.381000,-1.580704
3.382000,-1.654528
3.383000,-1.654528
3.384000,-1.597251
3.385000,-1.491606
3.386000,-1.137759
3.387000,-1.063935
3.388000,-1.125031
3.389000,-1.333775
3.390000,-1.337593
3.391000,-0.934106
3.392000,-0.731726
3.393000,-0.775002
3.394000,-0.846281
3.395000,-1.074117
3.396000,-1.153033
3.397000,-1.266315
3.398000,-1.289226
3.399000,-1.321046
3.400000,-1.191218
3.401000,-0.354969
3.402000,-0.006213
3.403000,1.409174
3.404000,1.306075
3.405000,-0.073673
3.406000,-1.679985
3.407000,-3.026639
3.408000,-3.712694
3.409000,-3.963442
3.410000,-3.843796
3.411000,-3.517951
3.412000,-1.971463
3.413000,-0.867919
3.414000,-0.111858
3.415000,-0.085129
3.416000,-0.692268
3.417000,-1.662165
3.418000,-2.302398
3.419000,-2.864989
3.420000,-3.071188
3.421000,-2.863716
3.422000,-2.460229
3.423000,-2.153477
3.424000,-1.774174
3.425000,-1.589614
3.426000,-1.556520
3.427000,-1.469968
3.428000,-1.210310
3.429000,-1.057571
3.430000,-1.125031
3.431000,-1.175944
3.432000,-1.146669
3.433000,-1.436874
3.434000,-1.630344
3.435000,-1.720715
3.436000,-1.655801
3.437000,-1.618889
3.438000,-1.534882
3.439000,-1.191218
3.440000,-0.715179
3.441000,-0.782639
3.442000,-1.137759
3.443000,-1.483969
3.444000,-1.797085
3.445000,-1.906548
3.446000,-1.942188
3.447000,-2.009648
3.448000,-1.476332
3.449000,-0.521709
3.450000,-0.456795
3.451000,-0.916287
3.452000,-1.407599
3.453000,-1.882365
3.454000,-2.037650
3.455000,-1.996919
3.456000,-1.821269
3.457000,-1.489060
3.458000,-1.226857
3.459000,-1.158124
3.460000,-1.219220
3.461000,-1.189945
3.462000,-1.271406
3.463000,-1.287953
3.464000,0.058701
3.465000,1.237342
3.466000,0.781669
3.467000,-0.382971
3.468000,-1.500516
3.469000,-2.634607
3.470000,-3.272295
3.471000,-3.333391
3.472000,-3.316844
3.473000,-1.597251
3.474000,-1.109757
3.475000,-0.680813
3.476000,-0.375334
3.477000,-1.118667
3.478000,-1.654528
3.479000,-1.947279
3.480000,-2.485686
3.481000,-2.792438
3.482000,-2.811530
3.483000,-2.763163
3.484000,-2.476776
3.485000,-2.469139
3.486000,-2.416953
3.487000,-2.481867
3.488000,-2.324037
3.489000,-1.888729
3.490000,-1.399962
3.491000,-0.860282
3.492000,-0.484797
3.493000,-0.407155
3.494000,-0.697360
3.495000,-1.028296
3.496000,-1.188672
3.497000,-1.111030
3.498000,-1.095756
3.499000,-1.215402
3.500000,-1.193763
3.501000,-1.225584
3.502000,-1.380869
3.503000,-1.364323
3.504000,-0.907377
3.505000,-0.783912
3.506000,-0.982474
3.507000,-1.382142
3.508000,-1.009203
3.509000,-1.116121
3.510000,-1.621434
3.511000,-2.233666
3.512000,-1.797085
3.513000,-0.109312
3.514000,0.297993
3.515000,-0.024033
3.516000,-0.897194
3.517000,-1.795812
3.518000,-2.611696
3.519000,-2.719887
3.520000,-1.940915
3.521000,-1.970190
3.522000,-2.083472
3.523000,-2.285852
3.524000,-2.395315
3.525000,-2.485686
3.526000,-2.418226
3.527000,-1.835270
3.528000,-1.574340
3.529000,-1.671075
3.530000,-1.508152
3.531000,-1.186127
3.532000,-1.233221
3.533000,-1.461058
3.534000,-1.495424
3.535000,-1.410145
3.536000,-1.417782
3.537000,-1.527245
3.538000,-1.621434
3.539000,-1.649437
3.540000,-0.137315
3.541000,-0.062218
3.542000,-0.366424
3.543000,-0.780094
3.544000,-1.365596
3.545000,-1.993101
3.546000,-2.352039
3.547000,-2.523871
3.548000,-2.466593
3.549000,-2.270578
3.550000,-2.047832
3.551000,-1.816177
3.552000,-1.781811
3.553000,-1.751263
3.554000,-1.539973
3.555000,-1.685076
3.556000,-1.765264
3.557000,-1.609979
3.558000,-1.375778
3.559000,-1.349049
3.560000,-1.413963
3.561000,-1.354140
3.562000,-1.345230
3.563000,-1.478877
3.564000,-1.542519
3.565000,-1.566703
3.566000,-1.475059
3.567000,-1.359231
3.568000,-1.371960
3.569000,-1.294317
3.570000,-0.906104
3.571000,-0.557348
3.572000,-0.486070
3.573000,0.213986
3.574000,0.043427
3.575000,-0.697360
3.576000,-1.271406
3.577000,-1.503061
3.578000,-1.809813
3.579000,-1.571794
3.580000,-0.814460
3.581000,-1.060116
3.582000,-1.702895
3.583000,-2.436046
3.584000,-3.080098
3.585000,-2.955360
3.586000,-2.264214
3.587000,-2.234938
3.588000,-2.343129
3.589000,-2.266759
3.590000,-2.301126
3.591000,-2.353312
3.592000,-1.578158
3.593000,-1.024477
3.594000,-1.118667
3.595000,-1.514517
3.596000,-2.115292
3.597000,-2.534053
3.598000,-2.532781
3.599000,-2.488232
3.600000,-0.865373
3.601000,-0.125859
3.602000,-0.213684
3.603000,-0.510254
3.604000,-1.053752
3.605000,-1.466149
3.606000,-1.636708
3.607000,-1.616343
3.608000,-1.387234
3.609000,-1.170853
3.610000,-1.053752
3.611000,-1.203946
3.612000,-1.248495
3.613000,-1.350322
3.614000,-1.527245
3.615000,-1.667256
3.616000,-1.645618
3.617000,-1.506880
3.618000,-1.518335
3.619000,-1.457239
3.620000,-1.471240
3.621000,-0.670630
3.622000,-0.596806
3.623000,-0.366424
3.624000,-0.582805
3.625000,-1.248495
3.626000,-1.410145
3.627000,-1.775447
3.628000,-2.273123
3.629000,-1.877273
3.630000,-2.173843
3.631000,-2.548055
3.632000,-1.952370
3.633000,-1.315955
3.634000,-1.266315
3.635000,-0.558621
3.636000,-0.843735
3.637000,-1.424146
3.638000,-1.907821
3.639000,-2.363494
3.640000,-2.545509
3.641000,-2.455138
3.642000,-1.660892
3.643000,-1.265042
3.644000,-1.224311
3.645000,-1.603615
3.646000,-1.812359
3.647000,-1.942188
3.648000,-1.948552
3.649000,-1.804722
3.650000,-1.795812
3.651000,-1.691440
3.652000,-1.719442
3.653000,-1.755082
3.654000,-1.804722
3.655000,-1.634163
3.656000,-1.407599
3.657000,-1.266315
3.658000,-1.193763
3.659000,-1.259951
3.660000,-1.187399
3.661000,-1.000293
3.662000,-1.077936
3.663000,-1.284134
3.664000,-1.298136
3.665000,-1.385961
3.666000,-1.583249
3.667000,-1.719442
3.668000,-1.671075
3.669000,-1.719442
3.670000,-1.607433
3.671000,-1.557793
3.672000,-1.462331
3.673000,-1.369414
3.674000,-0.648992
3.675000,-0.099130
3.676000,-0.268416
3.677000,0.440550
3.678000,0.438005
3.679000,-0.559894
3.680000,-1.491606
3.681000,-1.896366
3.682000,-2.270578
3.683000,-2.329128
3.684000,-2.100018
3.685000,-2.233666
3.686000,-2.550600
3.687000,-2.861171
3.688000,-2.801348
3.689000,-1.259951
3.690000,-0.899740
3.691000,-1.230676
3.692000,-1.733443
3.693000,-2.288397
3.694000,-2.652427
3.695000,-2.629516
3.696000,-1.821269
3.697000,-1.427964
3.698000,-1.051207
3.699000,-0.940470
3.700000,-1.127576
3.701000,-1.463603
3.702000,-1.117394
3.703000,-1.271406
3.704000,-1.636708
3.705000,-2.164933
3.706000,-2.536599
3.707000,-2.494596
3.708000,-2.206936
3.709000,-2.069471
3.710000,-1.550156
3.711000,-1.293044
3.712000,-1.169580
3.713000,-0.986292
3.714000,-1.005385
3.715000,-1.079209
3.716000,-1.224311
3.717000,-1.239585
3.718000,-1.189945
3.719000,-1.117394
3.720000,-1.074117
3.721000,-0.925196
3.722000,-0.829734
3.723000,-0.990111
3.724000,-0.982474
3.725000,-1.103393
3.726000,-1.273952
3.727000,-1.434328
3.728000,-1.496697
3.729000,-1.473786
3.730000,-1.548883
3.731000,-1.637981
3.732000,-0.870465
3.733000,-0.581532
3.734000,-0.825916
3.735000,-1.155579
3.736000,-1.546337
3.737000,-1.926914
3.738000,-2.172570
3.739000,-2.180207
3.740000,-2.128021
3.741000,-2.066925
3.742000,-2.055469
3.743000,-1.730898
3.744000,-1.742353
3.745000,-1.571794
3.746000,-0.636264
3.747000,-1.001566
3.748000,-1.415236
3.749000,-1.760173
3.750000,-2.101291
3.751000,-0.627354
3.752000,0.052337
3.753000,-0.455522
3.754000,-0.995202
3.755000,-1.713078
3.756000,-2.546782
3.757000,-1.968917
3.758000,-1.422873
3.759000,-1.234494
3.760000,-1.604888
3.761000,-2.271850
3.762000,-2.927358
3.763000,-3.181924
3.764000,-3.215018
3.765000,-3.099190
3.766000,-2.461502
3.767000,-1.911640
3.768000,-1.598523
3.769000,-1.263769
3.770000,-1.337593
3.771000,-1.477605
3.772000,-1.739808
3.773000,-1.626526
3.774000,-1.617616
3.775000,-1.559066
3.776000,-1.351594
3.777000,-1.225584
3.778000,-1.314682
3.779000,-1.177217
3.780000,-0.789004
3.781000,-0.480979
3.782000,-0.188228
3.783000,-0.259506
3.784000,-0.640082
3.785000,-0.116949
3.786000,-0.488616
3.787000,-1.030841
3.788000,-1.611252
3.789000,-1.811086
3.790000,-1.696531
3.791000,-1.758900
3.792000,-1.653255
3.793000,-0.880647
3.794000,-1.028296
3.795000,-1.510698
3.796000,-2.102564
3.797000,-2.321491
3.798000,-2.479322
3.799000,-2.325309
3.800000,-1.924368
3.801000,-1.602342
3.802000,-1.399962
3.803000,-1.393598
3.804000,-1.676166
3.805000,-1.976554
3.806000,-1.816177
3.807000,-1.503061
3.808000,-1.346503
3.809000,-1.396143
3.810000,-1.500516
3.811000,-1.477605
3.812000,-1.509425
3.813000,-1.510698
3.814000,-1.413963
3.815000,-1.309591
3.816000,-1.263769
3.817000,-0.990111
3.818000,-0.282417
3.819000,0.692571
3.820000,1.983220
3.821000,1.988311
3.822000,0.824945
3.823000,-0.870465
3.824000,-2.532781
3.825000,-3.828522
3.826000,-4.524760
3.827000,-4.604948
3.828000,-4.267648
3.829000,-3.594321
3.830000,-2.899356
3.831000,-2.518780
3.832000,-2.130566
3.833000,-2.022376
3.834000,-1.912912
3.835000,-1.980372
3.836000,-1.921822
3.837000,-1.704168
3.838000,-1.538700
3.839000,-1.183581
3.840000,-0.108040
3.841000,-0.087674
3.842000,-0.404609
3.843000,-0.869192
3.844000,-1.186127
3.845000,-0.926469
3.846000,-1.056298
3.847000,-1.405053
3.848000,-1.645618
3.849000,-0.853918
3.850000,-0.776275
3.851000,-1.201400
3.852000,-1.803449
3.853000,-2.387678
3.854000,-2.709704
3.855000,-2.548055
3.856000,-2.201845
3.857000,-1.897638
3.858000,-1.509425
3.859000,-1.121212
3.860000,-1.049934
3.861000,-1.161943
3.862000,-1.313410
3.863000,-1.354140
3.864000,-1.310864
3.865000,-1.121212
3.866000,-1.203946
3.867000,-1.286680
3.868000,-1.336320
3.869000,-1.398689
3.870000,-1.401235
3.871000,-1.308318
3.872000,-1.262496
3.873000,-1.244677
3.874000,-1.174671
3.875000,-1.149214
3.876000,-1.215402
3.877000,-1.403780
3.878000,-1.519608
3.879000,-1.467422
3.880000,-1.485242
3.881000,-0.661721
3.882000,-0.707542
3.883000,-1.139032
3.884000,-1.654528
3.885000,-2.163660
3.886000,-2.330401
3.887000,-2.058015
3.888000,-2.198026
3.889000,-1.732171
3.890000,-1.392325
3.891000,-1.295590
3.892000,-0.887011
3.893000,-1.140305
3.894000,-1.387234
3.895000,-1.011749
3.896000,-1.525972
3.897000,-2.023649
3.898000,-1.856908
3.899000,-1.322319
3.900000,-1.539973
3.901000,-2.084744
3.902000,-2.362221
3.903000,-2.506051
3.904000,-2.478049
3.905000,-2.296034
3.906000,-1.968917
3.907000,-1.760173
3.908000,-1.158124
3.909000,-0.969745
3.910000,0.296720
3.911000,1.616645
3.912000,1.087148
3.913000,-0.139860
3.914000,-1.420327
3.915000,-2.514961
3.916000,-3.237928
3.917000,-3.356302
3.918000,-3.195925
3.919000,-2.797529
3.920000,-2.279487
3.921000,-1.914185
3.922000,-1.961280
3.923000,-2.166206
3.924000,-2.002011
3.925000,-1.738535
3.926000,-1.476332
3.927000,-1.215402
3.928000,-1.219220
3.929000,-1.195036
3.930000,-1.018113
3.931000,-1.097028
3.932000,-1.193763
3.933000,-1.305773
3.934000,-1.429237
3.935000,-1.527245
3.936000,-0.772457
3.937000,-0.678267
3.938000,-1.304500
3.939000,-1.823814
3.940000,-2.383860
3.941000,-2.532781
3.942000,-2.385132
3.943000,-2.033831
3.944000,-1.267588
3.945000,-0.913741
3.946000,-1.015567
3.947000,-0.862828
3.948000,-0.198410
3.949000,0.001424
3.950000,-0.167863
3.951000,-0.255688
3.952000,-0.708815
3.953000,-1.525972
3.954000,-2.201845
3.955000,-2.635880
3.956000,-2.796256
3.957000,-2.516234
3.958000,-1.887456
3.959000,-0.972291
3.960000,0.113433
3.961000,-0.167863
3.962000,-0.894648
3.963000,-1.713078
3.964000,-2.343129
3.965000,-2.792438
3.966000,-2.825532
3.967000,-2.499687
3.968000,-2.265486
3.969000,-2.008375
3.970000,-0.185682
3.971000,-0.078764
3.972000,-0.730453
3.973000,-1.407599
3.974000,-1.902730
3.975000,-2.329128
3.976000,-2.366040
3.977000,-2.205663
3.978000,-1.893820
3.979000,-1.832724
3.980000,-1.784357
3.981000,-1.846725
3.982000,-1.932005
3.983000,-1.784357
3.984000,-1.508152
3.985000,-1.410145
3.986000,-1.323592
3.987000,-1.271406
3.988000,-1.192491
3.989000,-1.257405
3.990000,-1.346503
3.991000,-1.494151
3.992000,-1.258678
3.993000,-1.189945
3.994000,-0.358787
3.995000,-0.178045
3.996000,0.981503
3.997000,0.866948
3.998000,-0.298964
3.999000,-1.259951
4.000000,-2.223483
4.001000,-2.997364
4.002000,-3.311753
4.003000,-3.365211
4.004000,-3.048277
4.005000,-2.666428
4.006000,-1.993101
4.007000,-0.650265
4.008000,-0.436430
4.009000,-0.437702
4.010000,0.086703
4.011000,-0.594261
4.012000,-1.489060
4.013000,-2.031286
4.014000,-2.578603
4.015000,-2.821713
4.016000,-2.755526
4.017000,-1.478877
4.018000,0.217805
4.019000,0.152891
4.020000,-0.542075
4.021000,-1.298136
4.022000,-2.131839
4.023000,-2.754253
4.024000,-2.941359
4.025000,-2.836987
4.026000,-2.666428
4.027000,-2.601513
4.028000,-2.315127
4.029000,-2.116565
4.030000,-2.046560
4.031000,-1.794539
4.032000,-1.697804
4.033000,-1.742353
4.034000,-1.501788
4.035000,-1.337593
4.036000,-1.161943
4.037000,-0.944289
4.038000,-1.154306
4.039000,-1.505607
4.040000,-1.522154
4.041000,-1.044842
4.042000,0.427822
4.043000,0.323450
4.044000,-0.516618
4.045000,-1.169580
4.046000,-1.720715
4.047000,-2.027467
4.048000,-2.215846
4.049000,-2.185298
4.050000,-1.904003
4.051000,-1.567976
4.052000,-1.286680
4.053000,-1.181035
4.054000,-1.300681
4.055000,-1.039751
4.056000,-0.469523
4.057000,-0.436430
4.058000,-0.316784
4.059000,-0.404609
4.060000,-1.102120
4.061000,-1.464876
4.062000,-0.869192
4.063000,-0.764820
4.064000,-1.368141
4.065000,-2.152204
4.066000,-2.712250
4.067000,-2.889173
4.068000,-2.848442
4.069000,-2.480595
4.070000,-2.038923
4.071000,-1.770355
4.072000,-1.391052
4.073000,-0.803005
4.074000,-0.969745
4.075000,-1.601069
4.076000,-2.061834
4.077000,-2.082199
4.078000,-2.140749
4.079000,-2.106383
4.080000,-2.122929
4.081000,-2.079653
4.082000,-1.910367
4.083000,-1.718169
4.084000,-1.534882
4.085000,-1.434328
4.086000,-1.357959
4.087000,-1.373233
4.088000,-0.203502
4.089000,0.515647
4.090000,0.049791
4.091000,-0.492434
4.092000,-0.806823
4.093000,-1.469968
4.094000,-2.072016
4.095000,-2.429681
4.096000,-2.612969
4.097000,-2.677883
4.098000,-1.919277
4.099000,-0.412246
4.100000,-0.500071
4.101000,-1.144123
4.102000,-1.739808
4.103000,-2.359676
4.104000,-2.418226
4.105000,-2.329128
4.106000,-2.349493
4.107000,-2.126748
4.108000,-1.920549
4.109000,-1.702895
4.110000,-1.471240
4.111000,-1.371960
4.112000,-1.116121
4.113000,-0.351150
4.114000,-0.255688
4.115000,-0.741909
4.116000,-1.312137
4.117000,-1.895093
4.118000,-2.360949
4.119000,-2.443683
4.120000,-1.879819
4.121000,-1.475059
4.122000,-1.450875
4.123000,-1.449602
4.124000,-1.513244
4.125000,-1.943460
4.126000,-2.287124
4.127000,-0.414792
4.128000,0.438005
4.129000,-0.108040
4.130000,-0.862828
4.131000,-1.471240
4.132000,-2.147113
4.133000,-2.433500
4.134000,-2.358403
4.135000,-2.182752
4.136000,-1.911640
4.137000,-1.650709
4.138000,-1.308318
4.139000,-1.104665
4.140000,-1.070299
4.141000,-1.004112
4.142000,-1.079209
4.143000,-1.060116
4.144000,-0.916287
4.145000,-0.959563
4.146000,-1.159397
4.147000,-1.165761
4.148000,-1.119939
4.149000,0.188530
4.150000,0.266173
4.151000,-0.385516
4.152000,-1.039751
4.153000,-1.673620
4.154000,-2.401679
4.155000,-2.989727
4.156000,-3.127192
4.157000,-2.873899
4.158000,-2.717341
4.159000,-2.651154
4.160000,-2.409316
4.161000,-2.288397
4.162000,-2.276942
4.163000,-2.069471
4.164000,-1.886183
4.165000,-1.583249
4.166000,0.735847
4.167000,2.385434
4.168000,1.925943
4.169000,0.322177
4.170000,-1.714351
4.171000,-3.194652
4.172000,-3.730514
4.173000,-3.847614
4.174000,-3.661781
4.175000,-3.142466
4.176000,-2.629516
4.177000,-2.294761
4.178000,-2.167478
4.179000,-2.068198
4.180000,-1.958734
4.181000,-1.807268
4.182000,-1.732171
4.183000,-1.531063
4.184000,-1.401235
4.185000,-0.675722
4.186000,-0.478433
4.187000,-0.656629
4.188000,-0.873010
4.189000,-1.047388
4.190000,-1.202673
4.191000,-1.328683
4.192000,-1.371960
4.193000,-1.420327
4.194000,-1.441965
4.195000,-1.403780
4.196000,-1.431783
4.197000,-1.856908
4.198000,-1.952370
4.199000,-1.377051
4.200000,-0.879374
4.201000,-0.824643
4.202000,-0.964654
4.203000,-0.438975
4.204000,-0.348604
4.205000,-0.704997
4.206000,-1.105938
4.207000,-1.417782
4.208000,-1.562884
4.209000,-1.781811
4.210000,-1.868363
4.211000,-1.892547
4.212000,-1.965098
4.213000,-1.944733
4.214000,-1.650709
4.215000,-0.939197
4.216000,0.104523
4.217000,1.194066
4.218000,0.814762
4.219000,-0.290054
4.220000,-1.374505
4.221000,-2.359676
4.222000,-2.839533
4.223000,-2.975725
4.224000,-2.815349
4.225000,-2.495869
4.226000,-2.200572
4.227000,-1.884910
4.228000,-1.497970
4.229000,-0.870465
4.230000,-0.234050
4.231000,-0.666812
4.232000,-1.392325
4.233000,-1.948552
4.234000,-2.499687
4.235000,-2.929904
4.236000,-2.937541
4.237000,-2.824259
4.238000,-2.574784
4.239000,-2.486959
4.240000,-2.355857
4.241000,-2.097473
4.242000,-1.975281
4.243000,-1.711805
4.244000,-1.531063
4.245000,-1.422873
4.246000,-0.720271
4.247000,-0.645174
4.248000,-0.873010
4.249000,-1.067753
4.250000,-1.408872
4.251000,-1.690167
4.252000,-1.762718
4.253000,-1.569248
4.254000,-1.364323
4.255000,-1.430510
4.256000,-1.618889
4.257000,-1.623980
4.258000,-1.441965
4.259000,-1.314682
4.260000,-1.458512
4.261000,-1.501788
4.262000,-1.514517
4.263000,-1.543792
4.264000,-1.503061
4.265000,-1.491606
4.266000,-1.483969
4.267000,-1.420327
4.268000,-1.397416
4.269000,-1.359231
4.270000,-0.901013
4.271000,-0.634991
4.272000,0.072702
4.273000,-0.193319
4.274000,-0.498798
4.275000,-0.282417
4.276000,-0.211139
4.277000,-0.773730
4.278000,-1.539973
4.279000,-2.154750
4.280000,-2.499687
4.281000,-2.614242
4.282000,-1.798358
4.283000,-1.509425
4.284000,-1.658346
4.285000,-1.831451
4.286000,-1.821269
4.287000,-1.756354
4.288000,-1.830178
4.289000,-1.299408
4.290000,-1.389779
4.291000,-1.833997
4.292000,-2.164933
4.293000,-2.293489
4.294000,-2.418226
4.295000,-2.506051
4.296000,-0.929015
4.297000,0.252171
4.298000,0.383273
4.299000,-0.041852
4.300000,-1.025750
4.301000,-2.111474
4.302000,-2.695703
4.303000,-2.787347
4.304000,-2.670246
4.305000,-2.390224
4.306000,-2.173843
4.307000,-1.884910
4.308000,-1.710532
4.309000,-1.809813
4.310000,-1.627799
4.311000,-1.629071
4.312000,-1.729625
4.313000,-1.657074
4.314000,-1.519608
4.315000,-1.728352
4.316000,-1.970190
4.317000,-2.182752
4.318000,-0.620990
4.319000,0.070157
4.320000,-0.497525
4.321000,-1.095756
4.322000,-1.667256
4.323000,-2.111474
4.324000,-2.210755
4.325000,-2.013466
4.326000,-1.839088
4.327000,-0.968473
4.328000,-0.543347
4.329000,-0.729181
4.330000,-1.163216
4.331000,-1.329956
4.332000,-1.560339
4.333000,-1.333775
4.334000,-0.964654
4.335000,-0.741909
4.336000,-0.236595
4.337000,-0.423701
4.338000,-0.927742
4.339000,-1.476332
4.340000,-1.977827
4.341000,-2.214573
4.342000,-2.257849
4.343000,-2.101291
4.344000,-1.872182
4.345000,-1.709260
4.346000,-1.690167
4.347000,-1.697804
4.348000,-1.730898
4.349000,-1.733443
4.350000,-1.631617
4.351000,-1.602342
4.352000,-1.520881
4.353000,-1.593432
4.354000,-1.515789
4.355000,-0.659175
4.356000,-0.721544
4.357000,-1.234494
4.358000,-1.585795
4.359000,-2.103837
4.360000,-2.035104
4.361000,-1.705441
4.362000,-1.760173
4.363000,-0.875556
4.364000,-0.441521
4.365000,-0.906104
4.366000,-1.401235
4.367000,-1.707987
4.368000,-2.013466
4.369000,-2.083472
4.370000,-2.107655
4.371000,-2.055469
4.372000,-1.892547
4.373000,-1.854362
4.374000,-1.476332
4.375000,-0.295146
4.376000,-0.217503
4.377000,-0.688450
4.378000,-1.457239
4.379000,-2.218392
4.380000,-1.840361
4.381000,-1.625253
4.382000,-1.940915
4.383000,-2.259122
4.384000,-2.551873
4.385000,-2.759344
4.386000,-2.773345
4.387000,-1.753809
4.388000,-1.406326
4.389000,-1.475059
4.390000,-1.405053
4.391000,-1.221766
4.392000,-0.997748
4.393000,-1.135213
4.394000,-1.366868
4.395000,-1.616343
4.396000,-1.804722
4.397000,-1.779265
4.398000,-1.654528
4.399000,-1.424146
4.400000,-1.403780
4.401000,-1.340139
4.402000,-0.657902
4.403000,-0.472069
4.404000,-0.778821
4.405000,-0.992656
4.406000,-0.480979
4.407000,-0.773730
4.408000,-1.266315
4.409000,-1.719442
4.410000,-2.152204
4.411000,-1.863272
4.412000,-1.450875
4.413000,-1.691440
4.414000,-1.837815
4.415000,-2.087290
4.416000,-1.826360
4.417000,-1.169580
4.418000,-1.098301
4.419000,-1.287953
4.420000,-1.293044
4.421000,-1.553974
4.422000,-1.691440
4.423000,-1.746172
4.424000,-1.767810
4.425000,-1.570521
4.426000,-1.663438
4.427000,-1.649437
4.428000,-1.732171
4.429000,-0.846281
4.430000,-0.179318
4.431000,-0.441521
4.432000,-0.669358
4.433000,-0.412246
4.434000,0.752394
4.435000,0.319631
4.436000,-0.819551
4.437000,-1.974008
4.438000,-2.886627
4.439000,-3.608322
4.440000,-3.754697
4.441000,-3.325754
4.442000,-2.746616
4.443000,-2.441137
4.444000,-2.055469
4.445000,-1.133940
4.446000,-1.304500
4.447000,-1.897638
4.448000,-2.176388
4.449000,-2.451320
4.450000,-2.408043
4.451000,-2.229847
4.452000,-1.999465
4.453000,-1.734716
4.454000,-1.315955
4.455000,-1.089391
4.456000,-1.200128
4.457000,-1.209037
4.458000,-1.163216
4.459000,-0.881920
4.460000,-0.156407
4.461000,0.737120
4.462000,0.348906
4.463000,-0.543347
4.464000,-1.387234
4.465000,-2.226029
4.466000,-2.653699
4.467000,-2.545509
4.468000,-2.444955
4.469000,-2.283306
4.470000,-1.916731
4.471000,-1.691440
4.472000,-1.468695
4.473000,-0.636264
4.474000,1.075692
4.475000,0.799488
4.476000,1.769385
4.477000,0.978957
4.478000,-0.684631
4.479000,-1.939642
4.480000,-3.080098
4.481000,-3.257021
4.482000,-3.239201
4.483000,-3.185742
4.484000,-3.038094
4.485000,-2.878990
4.486000,-3.124647
4.487000,-2.952815
4.488000,-2.492050
4.489000,-2.329128
4.490000,-1.990555
4.491000,-1.655801
4.492000,-1.257405
4.493000,-1.056298
4.494000,-1.093210
4.495000,-1.149214
4.496000,-1.187399
4.497000,-1.244677
4.498000,-1.235767
4.499000,-1.300681
4.500000,-1.212856
4.501000,-1.104665
4.502000,-1.113575
4.503000,-0.438975
4.504000,-0.221321
4.505000,-0.656629
4.506000,-1.210310
4.507000,-1.201400
4.508000,-1.412690
4.509000,-1.831451
4.510000,-2.303671
4.511000,-2.437318
4.512000,-1.793266
4.513000,-1.310864
4.514000,-1.290499
4.515000,-1.417782
4.516000,-1.653255
4.517000,-1.811086
4.518000,-1.323592
4.519000,-0.703724
4.520000,-1.046115
4.521000,-1.485242
4.522000,-1.851817
4.523000,-1.939642
4.524000,-1.690167
4.525000,-1.678712
4.526000,-1.175944
4.527000,-1.048661
4.528000,-0.715179
4.529000,-0.004940
4.530000,-0.307874
4.531000,-1.093210
4.532000,-1.616343
4.533000,-1.916731
4.534000,-1.752536
4.535000,-1.850544
4.536000,-1.988009
4.537000,-2.184025
4.538000,-2.390224
4.539000,-1.690167
4.540000,-0.636264
4.541000,-0.880647
4.542000,-1.422873
4.543000,-1.981645
4.544000,-2.353312
4.545000,-2.367313
4.546000,-2.362221
4.547000,-2.340583
4.548000,-2.247667
4.549000,-2.094927
4.550000,-0.759728
4.551000,-0.743182
4.552000,-1.471240
4.553000,-2.119111
4.554000,-2.637153
4.555000,-2.943905
4.556000,-2.792438
4.557000,-2.346947
4.558000,-2.022376
4.559000,-1.550156
4.560000,-1.197582
4.561000,-1.145396
4.562000,-1.135213
4.563000,-0.496253
4.564000,-0.314238
4.565000,-0.180591
4.566000,-0.318056
4.567000,-0.605716
4.568000,-0.654084
4.569000,-0.741909
4.570000,-0.968473
4.571000,-1.188672
4.572000,-1.360504
4.573000,-1.542519
4.574000,-1.747445
4.575000,-1.827633
4.576000,-1.874728
4.577000,-1.786902
4.578000,-1.678712
4.579000,-1.552702
4.580000,-1.584522
4.581000,-1.657074
4.582000,-1.734716
4.583000,-1.489060
4.584000,-0.048216
4.585000,0.062520
4.586000,-0.577714
4.587000,-1.356686
4.588000,-2.027467
4.589000,-2.064379
4.590000,-1.378324
4.591000,-1.537428
4.592000,-1.174671
4.593000,-1.131395
4.594000,-1.597251
4.595000,-2.045287
4.596000,-2.536599
4.597000,-2.872626
4.598000,-2.941359
4.599000,-2.786074
4.600000,-2.554419
4.601000,-2.367313
4.602000,-1.850544
4.603000,-0.923924
4.604000,-0.915014
4.605000,1.239887
4.606000,2.599270
4.607000,1.532638
4.608000,0.038336
4.609000,-1.126303
4.610000,-2.166206
4.611000,-3.129738
4.612000,-3.479766
4.613000,-3.542135
4.614000,-3.474675
4.615000,-3.174287
4.616000,-2.829350
4.617000,-2.656245
4.618000,-2.588785
4.619000,-2.354584
4.620000,-2.240030
4.621000,-2.122929
4.622000,-1.538700
4.623000,-1.131395
4.624000,-1.228130
4.625000,-1.441965
4.626000,-1.491606
4.627000,-0.633718
4.628000,-0.120768
4.629000,-0.316784
4.630000,-0.562440
4.631000,-1.002839
4.632000,-1.235767
4.633000,-0.501344
4.634000,-0.650265
4.635000,-0.977382
4.636000,-1.016840
4.637000,-0.874283
4.638000,0.119797
4.639000,0.010334
4.640000,-0.365151
4.641000,-0.619717
4.642000,-1.351594
4.643000,-2.136931
4.644000,-2.593876
4.645000,-2.968088
4.646000,-2.985908
4.647000,-2.825532
4.648000,-2.610423
4.649000,-2.405498
4.650000,-2.284579
4.651000,-2.233666
4.652000,-1.585795
4.653000,-1.004112
4.654000,-0.143679
4.655000,0.082885
4.656000,-0.225140
4.657000,-1.102120
4.658000,-1.982918
4.659000,-2.601513
4.660000,-2.942632
4.661000,-2.937541
4.662000,-2.675338
4.663000,-2.227301
4.664000,-1.814905
4.665000,-1.430510
4.666000,-1.226857
4.667000,-1.402508
4.668000,-1.193763
4.669000,0.387091
4.670000,0.458370
4.671000,-0.132223
4.672000,-0.853918
4.673000,-1.621434
4.674000,-2.264214
4.675000,-2.588785
4.676000,-2.553146
4.677000,-2.324037
4.678000,-2.030013
4.679000,-1.826360
4.680000,-1.651982
4.681000,-1.551429
4.682000,-1.497970
4.683000,-1.514517
4.684000,-1.520881
4.685000,-1.473786
4.686000,-1.501788
4.687000,-1.599796
4.688000,-1.579431
4.689000,-1.595978
4.690000,-1.475059
4.691000,-1.449602
4.692000,-0.969745
4.693000,-0.050762
4.694000,0.907679
4.695000,0.450733
4.696000,-0.431338
4.697000,-1.627799
4.698000,-1.828906
4.699000,-2.078380
4.700000,-2.548055
4.701000,-2.817895
4.702000,-2.680429
4.703000,-2.498414
4.704000,-2.251485
4.705000,-1.961280
4.706000,-1.658346
4.707000,-1.556520
4.708000,-1.310864
4.709000,-1.172125
4.710000,-1.417782
4.711000,-1.181035
4.712000,-0.332058
4.713000,0.294175
4.714000,0.257263
4.715000,-0.553530
4.716000,-1.552702
4.717000,-2.275669
4.718000,-2.675338
4.719000,-2.730069
4.720000,-2.648608
4.721000,-2.386405
4.722000,-1.343957
4.723000,-0.710088
4.724000,-0.711361
4.725000,-1.063935
4.726000,-1.421600
4.727000,-1.667256
4.728000,-1.629071
4.729000,-1.387234
4.730000,-0.581532
4.731000,-0.662993
4.732000,-1.041024
4.733000,-1.517062
4.734000,-1.840361
4.735000,-2.096200
4.736000,-2.094927
4.737000,-2.130566
4.738000,-2.163660
4.739000,-2.037650
4.740000,-2.119111
4.741000,-2.362221
4.742000,-2.540418
4.743000,-0.343513
4.744000,0.793124
4.745000,0.254717
4.746000,-0.706270
4.747000,-1.714351
4.748000,-2.646063
4.749000,-3.089007
4.750000,-3.109373
4.751000,-2.885355
4.752000,-2.497141
4.753000,-2.102564
4.754000,-1.697804
4.755000,-1.425419
4.756000,-1.455966
4.757000,-0.279872
4.758000,0.520739
4.759000,0.252171
4.760000,-0.437702
4.761000,-0.567531
4.762000,-0.917559
4.763000,-1.453421
4.764000,-1.944733
4.765000,-2.339310
4.766000,-2.562056
4.767000,-2.280760
4.768000,-0.817006
4.769000,-0.619717
4.770000,-1.407599
4.771000,-2.203118
4.772000,-2.797529
4.773000,-3.337209
4.774000,-3.285023
4.775000,-2.878990
4.776000,-2.419499
4.777000,-1.995646
4.778000,-1.715624
4.779000,-1.360504
4.780000,-1.041024
4.781000,-0.959563
4.782000,-1.074117
4.783000,-1.181035
4.784000,-1.060116
4.785000,-0.890830
4.786000,-0.839917
4.787000,-0.716452
4.788000,-0.666812
4.789000,-0.633718
4.790000,-0.815733
4.791000,-0.913741
4.792000,-0.221321
4.793000,-0.232777
4.794000,-0.750819
4.795000,-1.298136
4.796000,-1.616343
4.797000,-1.817450
4.798000,-1.984191
4.799000,-2.192935
4.800000,-1.259951
4.801000,-0.931561
4.802000,-1.254859
4.803000,-1.818723
4.804000,-2.322764
4.805000,-2.441137
4.806000,-2.304944
4.807000,-2.192935
4.808000,-2.028740
4.809000,-1.795812
4.810000,-1.547610
4.811000,-1.438147
4.812000,-1.626526
4.813000,-1.721988
4.814000,-1.655801
4.815000,-1.434328
4.816000,-1.455966
4.817000,-1.403780
4.818000,-1.271406
4.819000,-1.262496
4.820000,-1.318501
4.821000,-1.317228
4.822000,-1.290499
4.823000,-1.433056
4.824000,-0.712634
4.825000,-0.221321
4.826000,-0.556076
4.827000,-1.113575
4.828000,-0.545893
4.829000,0.908952
4.830000,0.789306
4.831000,-0.293873
4.832000,-1.088119
4.833000,-1.911640
4.834000,-2.984635
4.835000,-2.866262
4.836000,-2.432227
4.837000,-2.847170
4.838000,-3.207381
4.839000,-3.356302
4.840000,-3.464492
4.841000,-3.439036
4.842000,-3.167923
4.843000,-2.700794
4.844000,-2.442410
4.845000,-2.061834
4.846000,-1.626526
4.847000,-1.397416
4.848000,-1.149214
4.849000,-0.997748
4.850000,-0.934106
4.851000,-0.913741
4.852000,-1.081754
4.853000,-0.372788
4.854000,1.146971
4.855000,0.928044
4.856000,-0.030397
4.857000,-1.159397
4.858000,-1.979100
4.859000,-2.797529
4.860000,-2.763163
4.861000,-2.620606
4.862000,-2.380041
4.863000,-2.406770
4.864000,-2.352039
4.865000,-2.274396
4.866000,-2.336765
4.867000,-2.296034
4.868000,-2.124202
4.869000,-1.700350
4.870000,-1.422873
4.871000,-1.113575
4.872000,-0.912468
4.873000,-0.881920
4.874000,-1.153033
4.875000,-1.168307
4.876000,-0.109312
4.877000,1.036235
4.878000,0.883495
4.879000,0.170710
4.880000,0.636566
4.881000,0.648022
4.882000,-0.438975
4.883000,-1.697804
4.884000,-2.812803
4.885000,-3.664326
4.886000,-3.834886
4.887000,-3.460674
4.888000,-1.627799
4.889000,-1.224311
4.890000,-1.415236
4.891000,-1.867091
4.892000,-2.302398
4.893000,-2.570966
4.894000,-2.560783
4.895000,-2.345675
4.896000,-2.072016
4.897000,-1.786902
4.898000,-1.581977
4.899000,-1.342685
4.900000,-1.315955
4.901000,-1.267588
4.902000,-1.149214
4.903000,-1.237040
4.904000,-1.257405
4.905000,-1.293044
4.906000,-1.318501
4.907000,-1.262496
4.908000,-1.225584
4.909000,-1.242131
4.910000,-1.326138
4.911000,-0.553530
4.912000,0.006515
4.913000,0.421458
4.914000,-0.217503
4.915000,-1.043570
4.916000,-1.710532
4.917000,-2.196754
4.918000,-2.595149
4.919000,-2.671519
4.920000,-2.568420
4.921000,-2.481867
4.922000,-2.472958
4.923000,-2.243848
4.924000,-1.151760
4.925000,-0.904831
4.926000,-1.080482
4.927000,-1.262496
4.928000,-1.360504
4.929000,-1.710532
4.930000,-1.989282
4.931000,-1.926914
4.932000,-1.761446
4.933000,-1.728352
4.934000,-1.748717
4.935000,-1.723261
4.936000,-1.043570
4.937000,0.129980
4.938000,0.896223
4.939000,0.842764
4.940000,0.323450
4.941000,-0.792822
4.942000,-1.935823
4.943000,-2.742798
4.944000,-3.254475
4.945000,-3.383031
4.946000,-3.129738
4.947000,-2.493323
4.948000,-1.335048
4.949000,-0.008759
4.950000,-0.190773
4.951000,-1.112302
4.952000,-2.091109
4.953000,-2.718614
4.954000,-2.908265
4.955000,-2.462775
4.956000,-1.968917
4.957000,-1.420327
4.958000,-1.329956
4.959000,-1.505607
4.960000,-1.732171
4.961000,-2.210755
4.962000,-2.270578
4.963000,-1.151760
4.964000,-0.421156
4.965000,-0.628627
4.966000,-0.363878
4.967000,-0.402063
4.968000,-1.147942
4.969000,-1.918004
4.970000,-2.317672
4.971000,-2.555692
4.972000,-2.665155
4.973000,-2.731342
4.974000,-2.758072
4.975000,-2.339310
4.976000,-1.873455
4.977000,-1.581977
4.978000,-1.421600
4.979000,-1.303227
4.980000,-1.237040
4.981000,-1.270133
4.982000,-1.122485
4.983000,-1.037205
4.984000,-1.057571
4.985000,-1.075390
4.986000,-0.960836
4.987000,-0.727908
4.988000,-0.312965
4.989000,-0.508981
4.990000,-0.901013
4.991000,-1.105938
4.992000,-1.273952
4.993000,-1.355413
4.994000,-1.331229
4.995000,-1.396143
4.996000,-1.581977
4.997000,-1.676166
4.998000,-1.567976
4.999000,-1.534882
5.000000,-1.503061
5.001000,-0.354969
5.002000,-0.011304
5.003000,-0.445339
5.004000,-0.239141
5.005000,-0.902285
5.006000,-1.791994
5.007000,-2.411862
5.008000,-2.802621
5.009000,-2.900628
5.010000,-2.866262
5.011000,-2.581148
5.012000,-1.761446
5.013000,-1.118667
5.014000,-1.201400
5.015000,-1.177217
5.016000,-1.623980
5.017000,-2.050378
5.018000,-2.106383
5.019000,-2.079653
5.020000,-1.548883
5.021000,-0.599352
5.022000,0.037063
5.023000,-0.304055
5.024000,-1.336320
5.025000,-2.359676
5.026000,-2.316400
5.027000,-0.473342
5.028000,-0.516618
5.029000,-1.216674
5.030000,-1.932005
5.031000,-2.502233
5.032000,-2.834441
5.033000,-2.975725
5.034000,-2.522598
5.035000,-2.065652
5.036000,-1.900184
5.037000,-1.805995
5.038000,-1.534882
5.039000,-1.601069
5.040000,-2.003283
5.041000,-2.115292
5.042000,-2.064379
5.043000,-1.995646
5.044000,-1.877273
5.045000,-1.539973
5.046000,-1.275225
5.047000,-1.010476
5.048000,-0.819551
5.049000,-0.600625
5.050000,-0.557348
5.051000,-0.797913
5.052000,-1.005385
5.053000,-1.141577
5.054000,-1.030841
5.055000,-0.581532
5.056000,-0.531892
5.057000,-0.329512
5.058000,0.427822
5.059000,-0.343513
5.060000,-1.692713
5.061000,-0.282417
5.062000,-0.262052
5.063000,-1.483969
5.064000,-2.158569
5.065000,-2.882809
5.066000,-3.390668
5.067000,-3.669418
5.068000,-3.572683
5.069000,-3.222654
5.070000,-3.055914
5.071000,-2.516234
5.072000,-2.171297
5.073000,-1.929459
5.074000,-1.658346
5.075000,-1.417782
5.076000,-1.375778
5.077000,-1.294317
5.078000,-1.202673
5.079000,-1.074117
5.080000,-0.927742
5.081000,-0.841190
5.082000,-0.832280
5.083000,-1.020659
5.084000,-1.267588
5.085000,-1.382142
5.086000,-1.439420
5.087000,-1.485242
5.088000,-1.407599
5.089000,-0.817006
5.090000,-0.676995
5.091000,-0.899740
5.092000,-0.365151
5.093000,-0.600625
5.094000,-1.410145
5.095000,-1.730898
5.096000,-1.895093
5.097000,-2.102564
5.098000,-2.159841
5.099000,-2.161114
5.100000,-2.026194
5.101000,-1.737262
5.102000,-1.791994
5.103000,-1.915458
5.104000,-1.877273
5.105000,-1.781811
5.106000,-1.607433
5.107000,-1.341412
5.108000,-1.074117
5.109000,-0.531892
5.110000,-0.472069
5.111000,-0.491161
5.112000,0.350179
5.113000,-0.226413
5.114000,-1.169580
5.115000,-1.280316
5.116000,-0.045671
5.117000,0.137617
5.118000,-0.745727
5.119000,-1.956189
5.120000,-3.063551
5.121000,-3.822157
5.122000,-3.781427
5.123000,-3.283750
5.124000,-2.947723
5.125000,-2.735161
5.126000,-2.443683
5.127000,-1.980372
5.128000,-1.769083
5.129000,-1.644345
5.130000,-1.671075
5.131000,-1.542519
5.132000,-1.427964
5.133000,-1.408872
5.134000,-1.346503
5.135000,-1.457239
5.136000,-1.187399
5.137000,-0.558621
5.138000,-0.759728
5.139000,-1.216674
5.140000,-1.480150
5.141000,-0.228958
5.142000,-0.259506
5.143000,-0.506435
5.144000,-0.992656
5.145000,-1.500516
5.146000,-1.988009
5.147000,-2.201845
5.148000,-2.327855
5.149000,-2.311308
5.150000,-2.050378
5.151000,-1.672348
5.152000,-1.589614
5.153000,-1.505607
5.154000,-1.511971
5.155000,-1.336320
5.156000,-1.380869
5.157000,-1.416509
5.158000,-1.480150
5.159000,-1.105938
5.160000,-0.687177
5.161000,-0.781367
5.162000,-1.105938
5.163000,-1.408872
5.164000,-1.826360
5.165000,-2.033831
5.166000,-2.124202
5.167000,-2.049105
5.168000,-1.827633
5.169000,-1.802176
5.170000,-1.809813
5.171000,-1.944733
5.172000,-1.665983
5.173000,-1.121212
5.174000,-1.187399
5.175000,-1.424146
5.176000,-1.468695
5.177000,-0.755910
5.178000,-0.739363
5.179000,-1.155579
5.180000,-1.481423
5.181000,-1.495424
5.182000,-1.665983
5.183000,-1.705441
5.184000,-0.838644
5.185000,0.487645
5.186000,0.342542
5.187000,-0.631173
5.188000,-1.718169
5.189000,-2.746616
5.190000,-3.263385
5.191000,-3.215018
5.192000,-2.898083
5.193000,-2.583694
5.194000,-1.755082
5.195000,-1.475059
5.196000,-1.490333
5.197000,-1.682530
5.198000,-1.814905
5.199000,-1.211583
5.200000,-0.426247
5.201000,-0.466978
5.202000,-0.724089
5.203000,-1.061389
5.204000,-1.312137
5.205000,-1.714351
5.206000,-0.993929
5.207000,-0.050762
5.208000,-0.517891
5.209000,-1.454694
5.210000,-2.152204
5.211000,-2.592604
5.212000,-2.856079
5.213000,-2.946450
5.214000,-2.766981
5.215000,-2.405498
5.216000,-2.130566
5.217000,-1.783084
5.218000,-1.271406
5.219000,-1.272679
5.220000,-1.435601
5.221000,-1.706714
5.222000,-1.464876
5.223000,-1.368141
5.224000,-1.462331
5.225000,-0.935379
5.226000,-0.589169
5.227000,-0.843735
5.228000,-1.333775
5.229000,-1.566703
5.230000,-1.663438
5.231000,-1.702895
5.232000,-1.613797
5.233000,-0.932833
5.234000,-0.889557
5.235000,-0.577714
5.236000,-0.105494
5.237000,-0.582805
5.238000,-1.375778
5.239000,-1.923095
5.240000,-2.526416
5.241000,-2.680429
5.242000,-2.506051
5.243000,-2.339310
5.244000,-1.601069
5.245000,-0.741909
5.246000,-0.567531
5.247000,-0.931561
5.248000,-1.626526
5.249000,-2.065652
5.250000,-2.176388
5.251000,-1.999465
5.252000,-1.784357
5.253000,-1.576885
5.254000,-1.617616
5.255000,-1.716897
5.256000,-1.682530
5.257000,-1.713078
5.258000,-1.697804
5.259000,-1.617616
5.260000,-1.473786
5.261000,-1.382142
5.262000,-1.175944
5.263000,-1.058844
5.264000,-1.234494
5.265000,-1.419054
5.266000,-0.553530
5.267000,-0.169135
5.268000,-0.517891
5.269000,-1.088119
5.270000,-1.244677
5.271000,-0.847554
5.272000,-1.196309
5.273000,-1.718169
5.274000,-2.072016
5.275000,-2.321491
5.276000,-2.324037
5.277000,-2.162387
5.278000,-2.030013
5.279000,-1.743626
5.280000,-1.573067
5.281000,-1.322319
5.282000,-1.336320
5.283000,-1.273952
5.284000,-1.280316
5.285000,-0.734272
5.286000,-0.011304
5.287000,-0.212412
5.288000,-0.945562
5.289000,-1.602342
5.290000,0.249626
5.291000,0.287811
5.292000,-0.584078
5.293000,-0.973564
5.294000,-1.846725
5.295000,-2.943905
5.296000,-3.557409
5.297000,-3.968533
5.298000,-4.136546
5.299000,-3.739423
5.300000,-3.402124
5.301000,-3.185742
5.302000,-2.775891
5.303000,-2.242575
5.304000,-1.318501
5.305000,-0.874283
5.306000,-1.191218
5.307000,-1.576885
5.308000,-1.799631
5.309000,-1.935823
5.310000,-1.763991
5.311000,-1.643072
5.312000,-1.504334
5.313000,-1.294317
5.314000,-1.021931
5.315000,-0.655356
5.316000,-0.272235
5.317000,-0.254415
5.318000,-0.374061
5.319000,-0.678267
5.320000,-0.693541
5.321000,-0.834825
5.322000,-0.990111
5.323000,-1.163216
5.324000,-1.480150
5.325000,-1.570521
5.326000,-1.541246
5.327000,-1.520881
5.328000,-1.340139
5.329000,-0.851372
5.330000,-0.873010
5.331000,-1.147942
5.332000,-1.426691
5.333000,-1.707987
5.334000,-1.882365
5.335000,-2.003283
5.336000,-0.918832
5.337000,0.455824
5.338000,0.076521
5.339000,-0.908650
5.340000,-1.835270
5.341000,-2.483140
5.342000,-1.415236
5.343000,-1.214129
5.344000,-1.695259
5.345000,-1.281589
5.346000,-1.113575
5.347000,-1.734716
5.348000,-2.476776
5.349000,-2.971907
5.350000,-3.007546
5.351000,-2.870081
5.352000,-2.584967
5.353000,-1.761446
5.354000,-1.620162
5.355000,-1.506880
5.356000,-1.261223
5.357000,-1.599796
5.358000,-2.026194
5.359000,-2.176388
5.360000,-2.242575
5.361000,-2.173843
5.362000,-1.842907
5.363000,-1.701623
5.364000,-1.620162
5.365000,-1.275225
5.366000,-1.173398
5.367000,-1.357959
5.368000,-1.609979
5.369000,-1.517062
5.370000,-0.834825
5.371000,-0.703724
5.372000,-1.027023
5.373000,-1.413963
5.374000,-1.472513
5.375000,-0.376607
5.376000,-0.339695
5.377000,-0.899740
5.378000,-1.438147
5.379000,-1.962553
5.380000,-2.077107
5.381000,-2.069471
5.382000,-1.928186
5.383000,-1.760173
5.384000,-1.556520
5.385000,-1.518335
5.386000,-1.379597
5.387000,-1.495424
5.388000,-1.182308
5.389000,-0.263325
5.390000,-0.301510
5.391000,0.241989
5.392000,-0.192046
5.393000,-1.205219
5.394000,-2.100018
5.395000,-2.604059
5.396000,-2.894264
5.397000,-2.788619
5.398000,-2.558237
5.399000,-2.275669
5.400000,-2.079653
5.401000,-1.779265
5.402000,-1.637981
5.403000,-1.727079
5.404000,-1.443238
5.405000,0.346361
5.406000,0.826218
5.407000,0.350179
5.408000,-0.531892
5.409000,-1.500516
5.410000,-2.330401
5.411000,-2.727524
5.412000,-2.815349
5.413000,-2.735161
5.414000,-2.568420
5.415000,-2.259122
5.416000,-1.909094
5.417000,-1.883637
5.418000,-1.797085
5.419000,-1.051207
5.420000,-0.852645
5.421000,-0.846281
5.422000,-1.173398
5.423000,-0.638810
5.424000,-0.936652
5.425000,-1.436874
5.426000,-1.870909
5.427000,-2.436046
5.428000,-2.712250
5.429000,-2.504778
5.430000,-2.135658
5.431000,-1.707987
5.432000,-1.462331
5.433000,-1.304500
5.434000,-1.076663
5.435000,-0.548439
5.436000,-0.130950
5.437000,-0.372788
5.438000,-0.848827
5.439000,-1.230676
5.440000,-1.422873
5.441000,-1.571794
5.442000,-1.623980
5.443000,-1.709260
5.444000,-1.716897
5.445000,-1.668529
5.446000,-1.672348
5.447000,-1.706714
5.448000,-1.793266
5.449000,-0.866646
5.450000,-0.766093
5.451000,-1.041024
5.452000,0.410002
5.453000,0.466007
5.454000,-0.578987
5.455000,-1.753809
5.456000,-2.555692
5.457000,-3.072461
5.458000,-3.097917
5.459000,-2.955360
5.460000,-2.545509
5.461000,-2.072016
5.462000,-1.923095
5.463000,-1.799631
5.464000,-1.855635
5.465000,-1.876000
5.466000,-1.776720
5.467000,-1.464876
5.468000,-1.111030
5.469000,-1.145396
5.470000,-1.257405
5.471000,-1.147942
5.472000,-0.971018
5.473000,-1.207765
5.474000,-0.791549
5.475000,1.150789
5.476000,0.530921
5.477000,-0.577714
5.478000,-1.637981
5.479000,-2.453865
5.480000,-2.390224
5.481000,-2.567147
5.482000,-2.821713
5.483000,-2.761890
5.484000,-2.672792
5.485000,-2.312581
5.486000,-2.028740
5.487000,-1.949824
5.488000,-1.803449
5.489000,-1.603615
5.490000,-1.402508
5.491000,-0.823370
5.492000,-0.629900
5.493000,-0.916287
5.494000,-1.239585
5.495000,-1.573067
5.496000,-1.758900
5.497000,-1.767810
5.498000,-1.753809
5.499000,-1.793266
5.500000,-1.827633
5.501000,-1.725806
5.502000,-1.599796
5.503000,-1.559066
5.504000,-1.454694
5.505000,-1.478877
5.506000,-1.486514
5.507000,-0.440248
5.508000,0.538558
5.509000,0.259808
5.510000,-0.692268
5.511000,-1.581977
5.512000,-2.089836
5.513000,-2.401679
5.514000,-2.644790
5.515000,-1.511971
5.516000,-1.240858
5.517000,-1.476332
5.518000,-1.706714
5.519000,-2.089836
5.520000,-2.461502
5.521000,-2.489504
5.522000,-2.125475
5.523000,-1.755082
5.524000,-1.458512
5.525000,-1.368141
5.526000,-1.313410
5.527000,-1.370687
5.528000,-1.480150
5.529000,-1.310864
5.530000,-1.228130
5.531000,-1.365596
5.532000,-1.388506
5.533000,-1.067753
5.534000,-0.899740
5.535000,-1.282862
5.536000,-1.849271
5.537000,-2.184025
5.538000,-2.199299
5.539000,-1.346503
5.540000,0.389637
5.541000,1.376080
5.542000,0.992958
5.543000,0.323450
5.544000,0.174529
5.545000,-1.047388
5.546000,-2.097473
5.547000,-2.833169
5.548000,-3.367757
5.549000,-3.465765
5.550000,-3.493767
5.551000,-3.327027
5.552000,-2.369858
5.553000,-0.337149
5.554000,0.019243
5.555000,-0.679540
5.556000,-1.565430
5.557000,-2.223483
5.558000,-2.485686
5.559000,-2.522598
5.560000,-2.469139
5.561000,-2.316400
5.562000,-2.153477
5.563000,-2.068198
5.564000,-0.650265
5.565000,-0.161498
5.566000,-0.620990
5.567000,-1.314682
5.568000,-1.977827
5.569000,-2.416953
5.570000,-2.436046
5.571000,-2.320218
5.572000,-2.158569
5.573000,-2.045287
5.574000,-1.962553
5.575000,-1.947279
5.576000,-1.789448
5.577000,-1.602342
5.578000,-1.429237
5.579000,-1.229403
5.580000,-1.131395
5.581000,-0.931561
5.582000,-0.675722
5.583000,-0.486070
5.584000,-0.613353
5.585000,-0.836098
5.586000,-1.158124
5.587000,-1.351594
5.588000,-1.478877
5.589000,-1.579431
5.590000,-1.688894
5.591000,-1.643072
5.592000,-1.608706
5.593000,-1.170853
5.594000,-0.712634
5.595000,-0.880647
5.596000,-1.144123
5.597000,-1.415236
5.598000,-1.738535
5.599000,-1.876000
5.600000,-1.573067
5.601000,-0.715179
5.602000,0.968775
5.603000,3.464794
5.604000,3.345148
5.605000,1.320076
5.606000,-1.187399
5.607000,-3.157740
5.608000,-4.638041
5.609000,-5.114080
5.610000,-4.870969
5.611000,-4.284195
5.612000,-3.780154
5.613000,-2.528962
5.614000,-1.665983
5.615000,-0.936652
5.616000,-1.177217
5.617000,-1.697804
5.618000,-2.357130
5.619000,-2.584967
5.620000,-2.471685
5.621000,-2.374950
5.622000,-2.204390
5.623000,-2.049105
5.624000,-1.861999
5.625000,-1.365596
5.626000,-1.284134
5.627000,-1.359231
5.628000,-1.623980
5.629000,-1.746172
5.630000,-1.828906
5.631000,-1.613797
5.632000,-1.210310
5.633000,-0.954471
5.634000,-0.962108
5.635000,-0.943016
5.636000,-0.745727
5.637000,-0.736818
5.638000,-0.815733
5.639000,-0.992656
5.640000,-1.210310
5.641000,-0.169135
5.642000,0.362908
5.643000,0.163073
5.644000,-0.585351
5.645000,-1.327411
5.646000,-1.901457
5.647000,-2.023649
5.648000,-1.909094
5.649000,-1.956189
5.650000,-1.951097
5.651000,-2.005829
5.652000,-2.013466
5.653000,-2.106383
5.654000,-2.135658
5.655000,-2.022376
5.656000,-1.868363
5.657000,-1.632890
5.658000,-1.466149
5.659000,-1.203946
5.660000,-1.121212
5.661000,-0.349877
5.662000,0.859311
5.663000,1.253889
5.664000,0.411275
5.665000,-0.842462
5.666000,-2.213300
5.667000,-3.204835
5.668000,-3.531952
5.669000,-3.393214
5.670000,-3.059732
5.671000,-2.651154
5.672000,-2.464048
5.673000,-2.339310
5.674000,-2.205663
5.675000,-2.092381
5.676000,-1.853089
5.677000,-1.500516
5.678000,-0.693541
5.679000,0.039609
5.680000,-0.111858
5.681000,-0.609535
5.682000,-0.986292
5.683000,-0.538256
5.684000,-0.908650
5.685000,-1.043570
5.686000,-1.641800
5.687000,-2.472958
5.688000,-2.980817
5.689000,-3.318117
5.690000,-3.185742
5.691000,-1.774174
5.692000,-0.125859
5.693000,-0.164044
5.694000,-0.657902
5.695000,-1.338866
5.696000,-2.061834
5.697000,-2.623152
5.698000,-2.742798
5.699000,-2.465321
5.700000,-1.954916
5.701000,-1.546337
5.702000,-1.016840
5.703000,-0.424974
5.704000,0.006515
5.705000,-0.114404
5.706000,0.670932
5.707000,-0.022760
5.708000,-0.874283
5.709000,-1.629071
5.710000,-2.261668
5.711000,-2.791165
5.712000,-1.888729
5.713000,-1.323592
5.714000,-1.463603
5.715000,-1.868363
5.716000,-2.382587
5.717000,-2.578603
5.718000,-2.513688
5.719000,-1.691440
5.720000,-1.550156
5.721000,-1.763991
5.722000,-2.069471
5.723000,-1.172125
5.724000,-0.838644
5.725000,-0.977382
5.726000,-1.462331
5.727000,-1.948552
5.728000,-2.279487
5.729000,-2.479322
5.730000,-2.422044
5.731000,-2.255304
5.732000,-2.044014
5.733000,-1.699077
5.734000,-1.365596
5.735000,-1.091937
5.736000,-1.002839
5.737000,-1.020659
5.738000,-0.987565
5.739000,-0.996475
5.740000,-1.205219
5.741000,-1.340139
5.742000,-1.193763
5.743000,-1.243404
5.744000,-1.303227
5.745000,0.165619
5.746000,0.345088
5.747000,-0.137315
5.748000,-0.767365
5.749000,-1.483969
5.750000,-2.190389
5.751000,-2.593876
5.752000,-2.764436
5.753000,-2.240030
5.754000,-1.972735
5.755000,-1.854362
5.756000,-1.013022
5.757000,-0.822097
5.758000,-1.216674
5.759000,-1.522154
5.760000,-2.008375
5.761000,-2.423317
5.762000,-2.480595
5.763000,-2.324037
5.764000,-1.342685
5.765000,-0.665539
5.766000,-0.745727
5.767000,-1.048661
5.768000,-1.518335
5.769000,-1.515789
5.770000,-0.736818
5.771000,-0.217503
5.772000,-0.542075
5.773000,-1.345230
5.774000,-2.093654
5.775000,-1.748717
5.776000,-2.135658
5.777000,-2.639698
5.778000,-2.878990
5.779000,-2.886627
5.780000,-1.695259
5.781000,-1.010476
5.782000,-0.879374
5.783000,-0.506435
5.784000,0.710390
5.785000,0.936954
5.786000,0.169437
5.787000,-0.711361
5.788000,-1.635435
5.789000,-1.723261
5.790000,-2.158569
5.791000,-2.696976
5.792000,-2.895537
5.793000,-3.151376
5.794000,-3.216290
5.795000,-3.055914
5.796000,-2.704613
5.797000,-2.674065
5.798000,-2.382587
5.799000,-2.143295
5.800000,-1.982918
5.801000,-1.668529
5.802000,-1.443238
5.803000,-1.285407
5.804000,-1.029568
5.805000,-0.861555
5.806000,-0.806823
5.807000,-0.782639
5.808000,-0.899740
5.809000,-1.065208
5.810000,-0.605716
5.811000,-0.048216
5.812000,-0.310419
5.813000,-0.776275
5.814000,-1.230676
5.815000,-1.654528
5.816000,-1.650709
5.817000,-1.728352
5.818000,-1.961280
5.819000,-2.142022
5.820000,-2.345675
5.821000,-2.191662
5.822000,-1.946006
5.823000,-1.971463
5.824000,-1.004112
5.825000,-0.400790
5.826000,-0.246778
5.827000,-0.676995
5.828000,-1.375778
5.829000,-1.751263
5.830000,-1.785629
5.831000,-1.910367
5.832000,-1.859454
5.833000,-1.112302
5.834000,-0.615899
5.835000,-0.838644
5.836000,-1.206492
5.837000,-1.513244
5.838000,-1.683803
5.839000,-1.912912
5.840000,-1.481423
5.841000,-1.398689
5.842000,-1.475059
5.843000,-1.159397
5.844000,-0.707542
5.845000,-1.142850
5.846000,-1.827633
5.847000,-1.911640
5.848000,-1.789448
5.849000,-2.037650
5.850000,-2.215846
5.851000,-2.466593
5.852000,-2.528962
5.853000,-2.437318
5.854000,-2.278215
5.855000,-2.092381
5.856000,-1.863272
5.857000,-1.584522
5.858000,-1.504334
5.859000,-1.398689
5.860000,-1.290499
5.861000,-1.177217
5.862000,-0.897194
5.863000,-0.170408
5.864000,-0.352423
5.865000,-0.822097
5.866000,-1.281589
5.867000,-1.700350
5.868000,-1.988009
5.869000,-2.122929
5.870000,-1.785629
5.871000,-0.505162
5.872000,-0.716452
5.873000,-1.231948
5.874000,-1.794539
5.875000,-2.413135
5.876000,-2.373677
5.877000,-1.489060
5.878000,-0.459341
5.879000,-0.920105
5.880000,-1.326138
5.881000,-2.047832
5.882000,-2.724978
5.883000,-2.843351
5.884000,-2.802621
5.885000,-2.376223
5.886000,-2.094927
5.887000,-1.570521
5.888000,-1.130122
5.889000,-1.041024
5.890000,-0.403336
5.891000,-0.032943
5.892000,-0.123313
5.893000,-0.466978
5.894000,-0.013850
5.895000,-0.352423
5.896000,-0.983747
5.897000,-1.503061
5.898000,-2.032558
5.899000,-2.378768
5.900000,-2.400406
5.901000,-2.332946
5.902000,-2.392769
5.903000,-2.297307
5.904000,-2.150932
5.905000,-2.122929
5.906000,-1.599796
5.907000,-0.587896
5.908000,-0.193319
5.909000,-0.380425
5.910000,-0.306601
5.911000,-0.535710
5.912000,-1.440693
5.913000,-2.170024
5.914000,-2.666428
5.915000,-2.792438
5.916000,-2.639698
5.917000,-2.451320
5.918000,-2.298580
5.919000,-2.264214
5.920000,-2.212027
5.921000,-1.974008
5.922000,-1.723261
5.923000,-1.408872
5.924000,-1.363050
5.925000,-1.324865
5.926000,-1.085573
5.927000,-0.829734
5.928000,-0.811914
5.929000,-0.996475
5.930000,-1.247222
5.931000,-1.457239
5.932000,-1.581977
5.933000,-1.667256
5.934000,-1.677439
5.935000,-1.650709
5.936000,-1.221766
5.937000,0.151618
5.938000,0.886041
5.939000,0.410002
5.940000,-0.460613
5.941000,-0.449158
5.942000,-0.220049
5.943000,-0.865373
5.944000,-1.802176
5.945000,-2.671519
5.946000,-3.426307
5.947000,-3.655417
5.948000,-3.483585
5.949000,-3.183197
5.950000,-2.896810
5.951000,-2.161114
5.952000,-1.132668
5.953000,-0.927742
5.954000,-1.058844
5.955000,-1.097028
5.956000,-1.352867
5.957000,-1.559066
5.958000,-1.793266
5.959000,-1.907821
5.960000,-2.054197
5.961000,-1.891274
5.962000,-1.654528
5.963000,-1.345230
5.964000,-0.563713
5.965000,-0.432611
5.966000,-0.430065
5.967000,-0.736818
5.968000,-1.067753
5.969000,-1.831451
5.970000,-2.122929
5.971000,-2.447501
5.972000,-2.471685
5.973000,-2.233666
5.974000,-2.102564
5.975000,-2.087290
5.976000,-1.925641
5.977000,-1.279043
5.978000,-0.974837
5.979000,-0.988838
5.980000,-1.112302
5.981000,-1.230676
5.982000,-1.550156
5.983000,-1.225584
5.984000,0.254717
5.985000,0.185984
5.986000,-0.311692
5.987000,-0.587896
5.988000,0.751121
5.989000,0.762576
5.990000,0.023062
5.991000,-1.407599
5.992000,-2.920994
5.993000,-3.738151
5.994000,-3.885799
5.995000,-3.724149
5.996000,-3.349937
5.997000,-2.973180
5.998000,-2.416953
5.999000,-2.083472
6.000000,-1.809813
6.001000,-1.590886
6.002000,-1.439420
6.003000,-1.448329
6.004000,-1.397416
6.005000,-1.203946
6.006000,-1.103393
6.007000,-1.118667
6.008000,-1.161943
6.009000,-1.153033
6.010000,-1.156851
6.011000,-1.117394
6.012000,-1.108484
6.013000,-1.074117
6.014000,-1.113575
6.015000,-0.974837
6.016000,-0.976110
6.017000,-1.105938
6.018000,-1.300681
6.019000,-1.510698
6.020000,-1.748717
6.021000,-1.929459
6.022000,-2.091109
6.023000,-2.041468
6.024000,-1.625253
6.025000,-1.473786
6.026000,-0.253142
6.027000,0.099432
6.028000,-0.600625
6.029000,-1.609979
6.030000,-2.054197
6.031000,-2.394042
6.032000,-2.948996
6.033000,-3.293933
6.034000,-3.425034
6.035000,-3.318117
6.036000,-3.029184
6.037000,-2.293489
6.038000,-1.958734
6.039000,-1.763991
6.040000,-1.412690
6.041000,-1.145396
6.042000,-0.761001
6.043000,-0.640082
6.044000,-0.876829
6.045000,-0.888284
6.046000,-0.629900
6.047000,-0.361333
6.048000,-0.259506
6.049000,-0.433884
6.050000,-0.771184
6.051000,-1.178490
6.052000,-1.500516
6.053000,-1.552702
6.054000,-1.565430
6.055000,-1.657074
6.056000,-1.853089
6.057000,-1.687622
6.058000,-0.128405
6.059000,1.635738
6.060000,3.389697
6.061000,2.073591
6.062000,0.231806
6.063000,-1.601069
6.064000,-3.129738
6.065000,-4.167094
6.066000,-4.592220
6.067000,-4.634223
6.068000,-4.156912
6.069000,-3.571410
6.070000,-3.078825
6.071000,-2.723705
6.072000,-2.716068
6.073000,-1.646891
6.074000,-0.962108
6.075000,-1.041024
6.076000,-1.038478
6.077000,-1.284134
6.078000,-1.606160
6.079000,-1.431783
6.080000,-1.216674
6.081000,-1.411417
6.082000,-1.653255
6.083000,-1.811086
6.084000,-1.845452
6.085000,-1.515789
6.086000,-1.182308
6.087000,-1.168307
6.088000,-1.151760
6.089000,-0.985019
6.090000,-0.780094
6.091000,-1.005385
6.092000,-1.155579
6.093000,-1.388506
6.094000,-1.604888
6.095000,-1.646891
6.096000,-1.548883
6.097000,-1.509425
6.098000,-1.061389
6.099000,-0.819551
6.100000,-1.019386
6.101000,-1.196309
6.102000,-1.481423
6.103000,-1.854362
6.104000,-1.953643
6.105000,-1.956189
6.106000,-1.876000
6.107000,-1.749990
6.108000,-1.497970
6.109000,-1.192491
6.110000,-1.240858
6.111000,-1.336320
6.112000,-1.492879
6.113000,-1.713078
6.114000,-1.901457
6.115000,-1.869636
6.116000,-1.876000
6.117000,-1.856908
6.118000,-1.947279
6.119000,-1.902730
6.120000,-1.555247
6.121000,-0.170408
6.122000,1.423175
6.123000,2.446530
6.124000,1.275527
6.125000,-0.795368
6.126000,-2.714795
6.127000,-2.558237
6.128000,-2.884082
6.129000,-3.310480
6.130000,-3.379213
6.131000,-3.175560
6.132000,-2.961724
6.133000,-2.604059
6.134000,-2.433500
6.135000,-2.163660
6.136000,-2.153477
6.137000,-1.405053
6.138000,-1.141577
6.139000,-0.917559
6.140000,-1.000293
6.141000,-1.196309
6.142000,-1.478877
6.143000,-1.645618
6.144000,-1.588341
6.145000,-1.461058
6.146000,-1.545065
6.147000,-1.262496
6.148000,-1.049934
6.149000,-1.161943
6.150000,-0.864101
6.151000,-0.343513
6.152000,0.029426
6.153000,0.076521
6.154000,-0.539529
6.155000,-1.364323
6.156000,-2.093654
6.157000,-2.546782
6.158000,-2.679156
6.159000,-2.662609
6.160000,-2.464048
6.161000,-2.138203
6.162000,-1.835270
6.163000,-1.415236
6.164000,-1.060116
6.165000,-1.014294
6.166000,-1.020659
6.167000,-1.230676
6.168000,-1.318501
6.169000,-1.144123
6.170000,-1.181035
6.171000,-0.857736
6.172000,-0.365151
6.173000,-0.533165
6.174000,-1.049934
6.175000,-1.608706
6.176000,-2.154750
6.177000,-2.437318
6.178000,-1.664711
6.179000,-0.866646
6.180000,-0.962108
6.181000,-1.394871
6.182000,-1.836543
6.183000,-2.237484
6.184000,-2.051651
6.185000,-1.860726
6.186000,-1.965098
6.187000,-2.107655
6.188000,-2.209482
6.189000,-2.290943
6.190000,-2.318945
6.191000,-2.243848
6.192000,-1.876000
6.193000,-0.904831
6.194000,-0.670630
6.195000,-0.423701
6.196000,-1.081754
6.197000,-1.761446
6.198000,-2.107655
6.199000,-2.274396
6.200000,-2.231120
6.201000,-2.222210
6.202000,-1.926914
6.203000,-1.749990
6.204000,-1.612525
6.205000,-1.402508
6.206000,-1.239585
6.207000,-1.357959
6.208000,-1.163216
6.209000,0.351452
6.210000,0.524557
6.211000,0.100705
6.212000,-0.674449
6.213000,-1.405053
6.214000,-2.274396
6.215000,-2.274396
6.216000,-1.966371
6.217000,-1.370687
6.218000,-0.577714
6.219000,-0.892103
6.220000,-1.487787
6.221000,-2.003283
6.222000,-2.470412
6.223000,-2.381314
6.224000,-2.159841
6.225000,-1.797085
6.226000,-1.508152
6.227000,-0.381698
6.228000,0.259808
6.229000,0.014152
6.230000,-0.780094
6.231000,-0.634991
6.232000,-0.915014
6.233000,-1.366868
6.234000,-1.863272
6.235000,-2.418226
6.236000,-2.656245
6.237000,-2.187844
6.238000,-1.383415
6.239000,-0.486070
6.240000,-0.957017
6.241000,-1.887456
6.242000,-2.723705
6.243000,-3.355029
6.244000,-3.622323
6.245000,-3.591775
6.246000,-3.220109
6.247000,-2.101291
6.248000,-1.593432
6.249000,-1.439420
6.250000,-1.448329
6.251000,-1.497970
6.252000,-1.541246
6.253000,-1.555247
6.254000,-1.413963
6.255000,-1.254859
6.256000,-1.282862
6.257000,-1.238313
6.258000,-1.259951
6.259000,-1.389779
6.260000,-1.298136
6.261000,-1.144123
6.262000,-1.041024
6.263000,-1.001566
6.264000,-1.145396
6.265000,-1.248495
6.266000,-1.337593
6.267000,-1.359231
6.268000,-1.448329
6.269000,-1.383415
6.270000,-1.275225
6.271000,-1.090664
6.272000,-1.187399
6.273000,-1.275225
6.274000,-1.203946
6.275000,-1.249768
6.276000,0.282719
6.277000,0.443096
6.278000,0.121070
6.279000,-0.673176
6.280000,-1.403780
6.281000,-1.153033
6.282000,-1.495424
6.283000,-1.932005
6.284000,-2.350766
6.285000,-2.184025
6.286000,-2.276942
6.287000,-2.227301
6.288000,-2.338038
6.289000,-2.733888
6.290000,-0.795368
6.291000,0.519466
6.292000,0.191076
6.293000,-0.692268
6.294000,-2.145840
6.295000,-3.085189
6.296000,-3.381758
6.297000,-3.607049
6.298000,-3.523042
6.299000,-2.863716
6.300000,-2.145840
6.301000,-1.676166
6.302000,-1.706714
6.303000,-1.856908
6.304000,-1.435601
6.305000,-0.857736
6.306000,-0.722816
6.307000,-0.920105
6.308000,-1.151760
