LabVIEW Measurement,
Writer_Version,2
Reader_Version,2
Separator,Comma
Decimal_Separator,.
Multi_Headings,No
X_Columns,Multi
Time_Pref,Absolute
Operator,Dymnz
Date,2017/09/16
Time,10:46:11.2648988833532337621
***End_of_Header***,
,
Channels,1,
Samples,1000,
Date,2017/09/16,
Time,10:46:11.2648988833532337621,
Y_Unit_Label,Volts,
X_Dimension,Time,
X0,0.0000000000000000E+0,
Delta_X,0.001000,
***End_of_Header***,,
X_Value,Voltage,Comment
0.000000,-2.644790
0.001000,-2.254031
0.002000,-1.510698
0.003000,-0.842462
0.004000,-0.483524
0.005000,-0.380425
0.006000,-0.231504
0.007000,-0.440248
0.008000,0.089249
0.009000,0.592017
0.010000,0.173256
0.011000,-0.883193
0.012000,-2.024921
0.013000,-2.593876
0.014000,-2.461502
0.015000,-1.766537
0.016000,-2.049105
0.017000,-2.042741
0.018000,-1.655801
0.019000,-1.158124
0.020000,-0.694814
0.021000,-0.785185
0.022000,-1.419054
0.023000,-1.335048
0.024000,-1.315955
0.025000,-1.094483
0.026000,-0.985019
0.027000,-1.258678
0.028000,-1.542519
0.029000,-1.958734
0.030000,-1.580704
0.031000,-1.206492
0.032000,-0.820824
0.033000,-0.586624
0.034000,-0.483524
0.035000,-0.458068
0.036000,-0.573895
0.037000,-0.888284
0.038000,-1.289226
0.039000,-1.794539
0.040000,-2.471685
0.041000,-3.341028
0.042000,-3.579047
0.043000,-3.146285
0.044000,-2.588785
0.045000,-2.278215
0.046000,-1.855635
0.047000,-1.935823
0.048000,-1.865818
0.049000,-1.825087
0.050000,-1.459785
0.051000,-1.137759
0.052000,-1.289226
0.053000,-0.973564
0.054000,-0.842462
0.055000,-0.688450
0.056000,-0.484797
0.057000,-0.265870
0.058000,-0.665539
0.059000,-1.189945
0.060000,-1.669802
0.061000,-1.674893
0.062000,-1.673620
0.063000,-1.901457
0.064000,-2.856079
0.065000,-3.355029
0.066000,-3.287569
0.067000,-2.675338
0.068000,-1.811086
0.069000,-1.086846
0.070000,-0.809369
0.071000,-0.673176
0.072000,-0.400790
0.073000,-0.362606
0.074000,-0.846281
0.075000,-1.430510
0.076000,-1.350322
0.077000,-1.277770
0.078000,-1.217947
0.079000,-1.149214
0.080000,-1.641800
0.081000,-1.827633
0.082000,-2.142022
0.083000,-2.282033
0.084000,-1.881092
0.085000,-1.354140
0.086000,-1.069026
0.087000,-0.789004
0.088000,-1.220493
0.089000,-1.475059
0.090000,-1.454694
0.091000,-1.164488
0.092000,-1.071572
0.093000,-1.772901
0.094000,-2.830623
0.095000,-3.623596
0.096000,-2.777164
0.097000,-2.122929
0.098000,-1.716897
0.099000,-0.848827
0.100000,-0.212412
0.101000,0.000151
0.102000,-0.256961
0.103000,-0.510254
0.104000,-0.432611
0.105000,-0.237868
0.106000,-0.129678
0.107000,-0.311692
0.108000,-0.581532
0.109000,-0.757183
0.110000,-1.321046
0.111000,-1.407599
0.112000,-1.599796
0.113000,-1.858181
0.114000,-2.252758
0.115000,-2.531508
0.116000,-2.530235
0.117000,-2.712250
0.118000,-3.311753
0.119000,-3.215018
0.120000,-2.716068
0.121000,-2.105110
0.122000,-2.196754
0.123000,-2.507324
0.124000,-3.020275
0.125000,-2.764436
0.126000,-2.325309
0.127000,-1.598523
0.128000,-1.076663
0.129000,-1.178490
0.130000,-1.627799
0.131000,-1.729625
0.132000,-1.247222
0.133000,-0.589169
0.134000,-0.214957
0.135000,-0.088947
0.136000,0.109614
0.137000,0.219078
0.138000,0.366726
0.139000,0.211441
0.140000,0.179620
0.141000,-0.176772
0.142000,-0.689723
0.143000,-1.308318
0.144000,-1.709260
0.145000,-1.640527
0.146000,-1.840361
0.147000,-2.191662
0.148000,-2.448774
0.149000,-2.850988
0.150000,-3.965987
0.151000,-4.584583
0.152000,-4.335108
0.153000,-3.404669
0.154000,-2.226029
0.155000,-1.224311
0.156000,-0.165317
0.157000,0.318359
0.158000,0.252171
0.159000,0.369272
0.160000,0.322177
0.161000,0.234352
0.162000,-0.334603
0.163000,-0.976110
0.164000,-1.625253
0.165000,-2.012193
0.166000,-2.782255
0.167000,-3.726695
0.168000,-3.761062
0.169000,-3.403396
0.170000,-2.727524
0.171000,-2.540418
0.172000,-2.046560
0.173000,-1.187399
0.174000,-0.627354
0.175000,-0.329512
0.176000,-0.486070
0.177000,-0.316784
0.178000,-0.324421
0.179000,-0.510254
0.180000,-0.974837
0.181000,-1.259951
0.182000,-1.583249
0.183000,-1.748717
0.184000,-1.534882
0.185000,-2.293489
0.186000,-5.040256
0.187000,-5.175176
0.188000,-4.109817
0.189000,-2.598968
0.190000,-0.973564
0.191000,0.271264
0.192000,0.676024
0.193000,0.664568
0.194000,0.502919
0.195000,0.459643
0.196000,0.704026
0.197000,0.585653
0.198000,-0.197138
0.199000,-0.972291
0.200000,-1.193763
0.201000,-1.662165
0.202000,-2.191662
0.203000,-2.541690
0.204000,-3.006273
0.205000,-3.241747
0.206000,-2.772073
0.207000,-2.019830
0.208000,-1.303227
0.209000,-1.529791
0.210000,-1.611252
0.211000,-1.543792
0.212000,-1.434328
0.213000,-1.636708
0.214000,-1.735989
0.215000,-1.501788
0.216000,-1.528518
0.217000,-1.433056
0.218000,-1.771628
0.219000,-1.459785
0.220000,-0.920105
0.221000,-0.722816
0.222000,-0.432611
0.223000,-0.477160
0.224000,-0.300237
0.225000,-0.368970
0.226000,-0.775002
0.227000,-1.191218
0.228000,-1.546337
0.229000,-1.561611
0.230000,-1.473786
0.231000,-1.905275
0.232000,-2.488232
0.233000,-3.059732
0.234000,-3.875616
0.235000,-3.963442
0.236000,-3.479766
0.237000,-2.534053
0.238000,-1.921822
0.239000,-1.861999
0.240000,-1.920549
0.241000,-1.567976
0.242000,-1.220493
0.243000,-1.370687
0.244000,-1.153033
0.245000,-0.608262
0.246000,-0.543347
0.247000,-1.248495
0.248000,-1.286680
0.249000,-0.903558
0.250000,-1.119939
0.251000,-1.590886
0.252000,-1.790721
0.253000,-1.427964
0.254000,-1.263769
0.255000,-1.053752
0.256000,-0.707542
0.257000,-0.377879
0.258000,-0.525528
0.259000,-0.469523
0.260000,-0.584078
0.261000,-0.586624
0.262000,-1.088119
0.263000,-1.606160
0.264000,-2.394042
0.265000,-3.153922
0.266000,-3.436490
0.267000,-3.422489
0.268000,-3.582865
0.269000,-3.022820
0.270000,-2.774618
0.271000,-1.940915
0.272000,-1.229403
0.273000,-0.346059
0.274000,0.294175
0.275000,0.550014
0.276000,0.439277
0.277000,0.174529
0.278000,-0.384244
0.279000,-1.195036
0.280000,-1.380869
0.281000,-1.702895
0.282000,-1.602342
0.283000,-1.323592
0.284000,-1.004112
0.285000,-0.698633
0.286000,-0.763547
0.287000,-1.028296
0.288000,-0.864101
0.289000,-1.020659
0.290000,-1.471240
0.291000,-2.036377
0.292000,-3.328299
0.293000,-4.513304
0.294000,-4.335108
0.295000,-3.388122
0.296000,-2.643517
0.297000,-2.121657
0.298000,-1.635435
0.299000,-1.296863
0.300000,-1.065208
0.301000,-1.146669
0.302000,-0.769911
0.303000,0.145254
0.304000,0.002697
0.305000,-0.566258
0.306000,-1.229403
0.307000,-1.377051
0.308000,-1.739808
0.309000,-2.330401
0.310000,-2.499687
0.311000,-2.359676
0.312000,-1.946006
0.313000,-1.471240
0.314000,-1.175944
0.315000,-1.158124
0.316000,-1.870909
0.317000,-2.465321
0.318000,-2.670246
0.319000,-3.226473
0.320000,-3.468311
0.321000,-3.197198
0.322000,-2.446228
0.323000,-1.277770
0.324000,-0.152589
0.325000,0.537285
0.326000,0.738392
0.327000,0.611109
0.328000,0.620019
0.329000,0.776577
0.330000,0.579289
0.331000,0.390910
0.332000,0.057428
0.333000,-0.449158
0.334000,-0.787731
0.335000,-0.841190
0.336000,-0.931561
0.337000,-1.406326
0.338000,-1.788175
0.339000,-1.988009
0.340000,-1.860726
0.341000,-1.799631
0.342000,-2.078380
0.343000,-2.266759
0.344000,-2.339310
0.345000,-2.517507
0.346000,-2.619333
0.347000,-2.680429
0.348000,-3.162831
0.349000,-3.207381
0.350000,-2.985908
0.351000,-2.493323
0.352000,-1.777992
0.353000,-1.107211
0.354000,-0.761001
0.355000,-0.845008
0.356000,-1.268860
0.357000,-1.342685
0.358000,-1.183581
0.359000,-1.071572
0.360000,-1.293044
0.361000,-1.728352
0.362000,-2.467866
0.363000,-2.394042
0.364000,-2.246394
0.365000,-1.926914
0.366000,-1.662165
0.367000,-1.570521
0.368000,-1.500516
0.369000,-1.683803
0.370000,-2.105110
0.371000,-2.444955
0.372000,-2.548055
0.373000,-2.154750
0.374000,-2.063106
0.375000,-2.016012
0.376000,-1.667256
0.377000,-2.540418
0.378000,-2.366040
0.379000,-1.968917
0.380000,-1.209037
0.381000,-0.592988
0.382000,-0.623536
0.383000,-0.496253
0.384000,-0.702451
0.385000,-1.225584
0.386000,-1.345230
0.387000,-1.147942
0.388000,-1.035933
0.389000,-0.787731
0.390000,-0.489889
0.391000,-0.251869
0.392000,0.002697
0.393000,-0.225140
0.394000,-0.659175
0.395000,-0.951926
0.396000,-0.766093
0.397000,-0.716452
0.398000,-0.258233
0.399000,-0.099130
0.400000,-0.739363
0.401000,-1.163216
0.402000,-1.421600
0.403000,-1.648164
0.404000,-2.159841
0.405000,-3.061005
0.406000,-2.997364
0.407000,-2.572238
0.408000,-1.989282
0.409000,-1.571794
0.410000,-1.276497
0.411000,-1.392325
0.412000,-1.707987
0.413000,-1.627799
0.414000,-1.486514
0.415000,-1.645618
0.416000,-1.935823
0.417000,-1.963826
0.418000,-2.013466
0.419000,-2.103837
0.420000,-2.506051
0.421000,-2.388951
0.422000,-2.050378
0.423000,-1.702895
0.424000,-1.671075
0.425000,-1.299408
0.426000,-1.030841
0.427000,-1.075390
0.428000,-1.150487
0.429000,-1.060116
0.430000,-0.948107
0.431000,-1.094483
0.432000,-1.174671
0.433000,-1.702895
0.434000,-2.234938
0.435000,-1.940915
0.436000,-1.825087
0.437000,-2.324037
0.438000,-2.954087
0.439000,-3.077552
0.440000,-2.875172
0.441000,-2.415680
0.442000,-1.961280
0.443000,-1.601069
0.444000,-1.340139
0.445000,-0.943016
0.446000,-0.547166
0.447000,-0.242959
0.448000,-0.055853
0.449000,0.264900
0.450000,0.156709
0.451000,0.101977
0.452000,0.547468
0.453000,0.467280
0.454000,0.082885
0.455000,-0.150043
0.456000,-0.683359
0.457000,-1.271406
0.458000,-1.813632
0.459000,-3.568864
0.460000,-5.310096
0.461000,-5.605392
0.462000,-5.098806
0.463000,-3.978715
0.464000,-2.551873
0.465000,-1.584522
0.466000,-0.871737
0.467000,-0.273507
0.468000,0.238170
0.469000,0.906406
0.470000,1.304802
0.471000,0.798215
0.472000,0.282719
0.473000,-0.740636
0.474000,-1.720715
0.475000,-2.231120
0.476000,-2.198026
0.477000,-2.070743
0.478000,-1.873455
0.479000,-1.639254
0.480000,-1.422873
0.481000,-1.391052
0.482000,-1.385961
0.483000,-1.317228
0.484000,-1.237040
0.485000,-1.291771
0.486000,-1.315955
0.487000,-1.503061
0.488000,-1.954916
0.489000,-2.287124
0.490000,-2.425863
0.491000,-2.500960
0.492000,-2.414407
0.493000,-2.377495
0.494000,-2.231120
0.495000,-2.171297
0.496000,-1.881092
0.497000,-1.621434
0.498000,-0.837371
0.499000,-0.405882
0.500000,-0.554803
0.501000,-2.032558
0.502000,-3.591775
0.503000,-4.263829
0.504000,-4.205279
0.505000,-4.016900
0.506000,-2.654972
0.507000,-1.368141
0.508000,-0.520436
0.509000,-0.557348
0.510000,-0.959563
0.511000,-0.712634
0.512000,-0.407155
0.513000,-0.426247
0.514000,-0.320602
0.515000,-0.059672
0.516000,-0.034215
0.517000,-0.160226
0.518000,-0.497525
0.519000,-0.404609
0.520000,-0.291327
0.521000,-0.614626
0.522000,-0.932833
0.523000,-1.108484
0.524000,-1.336320
0.525000,-2.255304
0.526000,-3.521770
0.527000,-3.867979
0.528000,-3.543408
0.529000,-2.922267
0.530000,-2.054197
0.531000,-1.273952
0.532000,-0.757183
0.533000,-0.386789
0.534000,-0.320602
0.535000,0.068884
0.536000,0.532194
0.537000,0.149072
0.538000,-0.405882
0.539000,-0.669358
0.540000,-1.127576
0.541000,-1.539973
0.542000,-1.581977
0.543000,-1.562884
0.544000,-1.819996
0.545000,-2.037650
0.546000,-1.996919
0.547000,-1.884910
0.548000,-1.912912
0.549000,-2.035104
0.550000,-2.703340
0.551000,-3.999081
0.552000,-5.984696
0.553000,-7.130243
0.554000,-6.034336
0.555000,-4.284195
0.556000,-2.195481
0.557000,-0.533165
0.558000,0.644203
0.559000,1.171155
0.560000,1.686651
0.561000,1.754111
0.562000,1.819025
0.563000,2.093956
0.564000,1.111332
0.565000,0.311994
0.566000,-0.156407
0.567000,-0.391881
0.568000,-0.949380
0.569000,-2.023649
0.570000,-2.261668
0.571000,-2.279487
0.572000,-2.079653
0.573000,-1.728352
0.574000,-1.388506
0.575000,-1.382142
0.576000,-1.585795
0.577000,-1.943460
0.578000,-2.257849
0.579000,-2.329128
0.580000,-2.437318
0.581000,-2.306217
0.582000,-2.284579
0.583000,-2.551873
0.584000,-2.805166
0.585000,-2.782255
0.586000,-2.185298
0.587000,-1.719442
0.588000,-1.245950
0.589000,-1.028296
0.590000,-1.280316
0.591000,-1.457239
0.592000,-1.053752
0.593000,-1.576885
0.594000,-1.877273
0.595000,-1.853089
0.596000,-2.106383
0.597000,-2.079653
0.598000,-1.710532
0.599000,-1.310864
0.600000,-1.057571
0.601000,-0.814460
0.602000,-0.734272
0.603000,-1.113575
0.604000,-1.518335
0.605000,-2.066925
0.606000,-1.522154
0.607000,-1.058844
0.608000,-0.689723
0.609000,-0.054581
0.610000,0.267445
0.611000,0.290356
0.612000,-0.024033
0.613000,-0.338422
0.614000,-0.848827
0.615000,-1.359231
0.616000,-1.906548
0.617000,-2.086017
0.618000,-2.016012
0.619000,-2.031286
0.620000,-2.223483
0.621000,-2.479322
0.622000,-2.570966
0.623000,-2.442410
0.624000,-2.288397
0.625000,-2.586239
0.626000,-2.587512
0.627000,-2.032558
0.628000,-1.503061
0.629000,-1.357959
0.630000,-2.447501
0.631000,-2.634607
0.632000,-2.397861
0.633000,-2.369858
0.634000,-2.479322
0.635000,-2.255304
0.636000,-2.107655
0.637000,-1.924368
0.638000,-2.584967
0.639000,-2.635880
0.640000,-2.349493
0.641000,-2.483140
0.642000,-2.418226
0.643000,-1.450875
0.644000,-0.424974
0.645000,0.132525
0.646000,-0.591715
0.647000,-1.295590
0.648000,-0.817006
0.649000,-0.517891
0.650000,-0.305328
0.651000,0.152891
0.652000,0.893678
0.653000,0.854220
0.654000,0.324723
0.655000,-0.006213
0.656000,0.070157
0.657000,0.165619
0.658000,0.035790
0.659000,-0.538256
0.660000,-0.780094
0.661000,-0.880647
0.662000,-1.047388
0.663000,-1.256132
0.664000,-1.357959
0.665000,-1.514517
0.666000,-1.613797
0.667000,-1.562884
0.668000,-2.250212
0.669000,-2.643517
0.670000,-2.689339
0.671000,-2.770800
0.672000,-2.951542
0.673000,-2.722432
0.674000,-2.408043
0.675000,-2.112747
0.676000,-1.837815
0.677000,-1.777992
0.678000,-1.730898
0.679000,-1.522154
0.680000,-1.804722
0.681000,-2.150932
0.682000,-2.382587
0.683000,-2.465321
0.684000,-2.262941
0.685000,-2.321491
0.686000,-2.611696
0.687000,-2.680429
0.688000,-2.150932
0.689000,-1.490333
0.690000,-0.915014
0.691000,-0.704997
0.692000,-0.839917
0.693000,-1.347776
0.694000,-1.581977
0.695000,-1.851817
0.696000,-2.576057
0.697000,-3.958350
0.698000,-4.984251
0.699000,-4.760233
0.700000,-3.715240
0.701000,-2.283306
0.702000,-0.959563
0.703000,0.179620
0.704000,0.739665
0.705000,-0.216230
0.706000,-0.586624
0.707000,0.333632
0.708000,1.967946
0.709000,2.804196
0.710000,2.487261
0.711000,1.517364
0.712000,0.572925
0.713000,0.026880
0.714000,-0.572622
0.715000,-0.842462
0.716000,-1.511971
0.717000,-1.701623
0.718000,-1.833997
0.719000,-1.724534
0.720000,-1.538700
0.721000,-1.758900
0.722000,-2.000738
0.723000,-2.115292
0.724000,-2.306217
0.725000,-2.362221
0.726000,-2.265486
0.727000,-2.275669
0.728000,-2.602786
0.729000,-2.792438
0.730000,-2.966816
0.731000,-3.002455
0.732000,-2.887900
0.733000,-2.742798
0.734000,-2.367313
0.735000,-2.251485
0.736000,-2.374950
0.737000,-2.400406
0.738000,-2.647335
0.739000,-2.741525
0.740000,-2.933722
0.741000,-2.180207
0.742000,-1.303227
0.743000,-0.601898
0.744000,-1.282862
0.745000,-2.878990
0.746000,-3.017729
0.747000,-2.345675
0.748000,-1.365596
0.749000,-0.618444
0.750000,-0.017669
0.751000,0.466007
0.752000,0.575470
0.753000,0.518193
0.754000,0.663295
0.755000,0.588198
0.756000,0.384546
0.757000,0.015425
0.758000,-0.432611
0.759000,-0.413519
0.760000,-0.436430
0.761000,-0.707542
0.762000,-1.042297
0.763000,-1.290499
0.764000,-1.511971
0.765000,-1.618889
0.766000,-1.631617
0.767000,-1.531063
0.768000,-1.604888
0.769000,-1.952370
0.770000,-2.656245
0.771000,-2.722432
0.772000,-2.630789
0.773000,-1.951097
0.774000,-1.679985
0.775000,-1.654528
0.776000,-1.636708
0.777000,-1.617616
0.778000,-1.772901
0.779000,-2.074562
0.780000,-2.476776
0.781000,-3.153922
0.782000,-3.250657
0.783000,-2.905720
0.784000,-2.592604
0.785000,-2.352039
0.786000,-2.448774
0.787000,-2.607878
0.788000,-2.511143
0.789000,-2.442410
0.790000,-2.877718
0.791000,-2.366040
0.792000,-1.640527
0.793000,-0.757183
0.794000,0.141435
0.795000,0.938227
0.796000,1.257707
0.797000,1.041326
0.798000,0.500373
0.799000,-0.048216
0.800000,-1.021931
0.801000,-2.731342
0.802000,-2.761890
0.803000,-2.573511
0.804000,-2.289670
0.805000,-1.557793
0.806000,-0.887011
0.807000,-0.442794
0.808000,-0.738090
0.809000,-1.177217
0.810000,-1.382142
0.811000,-0.842462
0.812000,-0.400790
0.813000,-0.561167
0.814000,-0.665539
0.815000,-0.542075
0.816000,-0.683359
0.817000,-1.094483
0.818000,-1.506880
0.819000,-1.890001
0.820000,-2.117838
0.821000,-2.527689
0.822000,-2.386405
0.823000,-2.102564
0.824000,-1.743626
0.825000,-1.375778
0.826000,-1.403780
0.827000,-1.548883
0.828000,-1.776720
0.829000,-2.352039
0.830000,-2.590058
0.831000,-2.871353
0.832000,-2.746616
0.833000,-2.470412
0.834000,-2.150932
0.835000,-1.719442
0.836000,-1.527245
0.837000,-1.280316
0.838000,-0.906104
0.839000,-0.716452
0.840000,-0.525528
0.841000,-0.563713
0.842000,-0.754637
0.843000,-1.164488
0.844000,-1.191218
0.845000,-1.217947
0.846000,-1.566703
0.847000,-1.774174
0.848000,-1.925641
0.849000,-2.074562
0.850000,-2.077107
0.851000,-1.946006
0.852000,-1.967644
0.853000,-1.923095
0.854000,-1.963826
0.855000,-1.790721
0.856000,-1.454694
0.857000,-1.412690
0.858000,-1.637981
0.859000,-1.791994
0.860000,-2.217119
0.861000,-2.201845
0.862000,-3.038094
0.863000,-3.943076
0.864000,-3.551045
0.865000,-2.710977
0.866000,-1.588341
0.867000,-0.498798
0.868000,0.467280
0.869000,0.641657
0.870000,0.369272
0.871000,0.463461
0.872000,0.337451
0.873000,-0.167863
0.874000,-0.520436
0.875000,-0.675722
0.876000,-0.755910
0.877000,-1.117394
0.878000,-1.145396
0.879000,-1.172125
0.880000,-1.238313
0.881000,-1.141577
0.882000,-1.085573
0.883000,-1.035933
0.884000,-1.509425
0.885000,-1.669802
0.886000,-1.859454
0.887000,-2.336765
0.888000,-2.643517
0.889000,-3.306661
0.890000,-2.990999
0.891000,-2.340583
0.892000,-1.769083
0.893000,-1.234494
0.894000,-0.929015
0.895000,-0.817006
0.896000,-1.411417
0.897000,-2.203118
0.898000,-2.718614
0.899000,-2.853534
0.900000,-2.829350
0.901000,-2.089836
0.902000,-1.681257
0.903000,-1.397416
0.904000,-1.254859
0.905000,-1.135213
0.906000,-0.949380
0.907000,-1.229403
0.908000,-1.088119
0.909000,-0.899740
0.910000,-0.500071
0.911000,-0.307874
0.912000,-0.901013
0.913000,-1.196309
0.914000,-1.383415
0.915000,-1.645618
0.916000,-1.915458
0.917000,-1.957461
0.918000,-1.918004
0.919000,-2.301126
0.920000,-2.500960
0.921000,-2.975725
0.922000,-3.470856
0.923000,-4.038539
0.924000,-3.549772
0.925000,-2.444955
0.926000,-1.229403
0.927000,0.161800
0.928000,0.593290
0.929000,0.729483
0.930000,0.612382
0.931000,0.408729
0.932000,0.795670
0.933000,0.402365
0.934000,-0.091493
0.935000,-0.404609
0.936000,-0.450431
0.937000,-0.732999
0.938000,-0.973564
0.939000,-1.147942
0.940000,-1.272679
0.941000,-1.678712
0.942000,-1.845452
0.943000,-1.738535
0.944000,-1.944733
0.945000,-2.358403
0.946000,-2.254031
0.947000,-2.000738
0.948000,-2.061834
0.949000,-1.909094
0.950000,-1.794539
0.951000,-1.664711
0.952000,-1.660892
0.953000,-2.171297
0.954000,-2.184025
0.955000,-2.298580
0.956000,-2.416953
0.957000,-2.600241
0.958000,-2.730069
0.959000,-2.465321
0.960000,-1.962553
0.961000,-2.066925
0.962000,-1.988009
0.963000,-1.635435
0.964000,-1.627799
0.965000,-1.524699
0.966000,-1.424146
0.967000,-1.049934
0.968000,-0.689723
0.969000,-0.789004
0.970000,-1.480150
0.971000,-1.896366
0.972000,-2.231120
0.973000,-2.446228
0.974000,-2.628243
0.975000,-2.446228
0.976000,-2.086017
0.977000,-1.672348
0.978000,-1.480150
0.979000,-1.257405
0.980000,-1.771628
0.981000,-1.714351
0.982000,-1.434328
0.983000,-1.519608
0.984000,-1.823814
0.985000,-0.766093
0.986000,0.129980
0.987000,0.378182
0.988000,0.408729
0.989000,0.269991
0.990000,0.253444
0.991000,0.068884
0.992000,-0.012577
0.993000,-0.502617
0.994000,-0.913741
0.995000,-1.219220
0.996000,-1.131395
0.997000,-1.079209
0.998000,-1.212856
0.999000,-1.259951
1.000000,-1.401235
1.001000,-1.788175
1.002000,-2.049105
1.003000,-2.115292
1.004000,-2.129294
1.005000,-2.532781
1.006000,-2.531508
1.007000,-2.425863
1.008000,-2.008375
1.009000,-1.590886
1.010000,-1.524699
1.011000,-1.478877
1.012000,-1.601069
1.013000,-1.743626
1.014000,-1.716897
1.015000,-1.767810
1.016000,-2.018557
1.017000,-2.520052
1.018000,-3.570137
1.019000,-4.094543
1.020000,-3.817066
1.021000,-3.174287
1.022000,-3.092826
1.023000,-2.570966
1.024000,-1.727079
1.025000,-1.258678
1.026000,-0.811914
1.027000,-0.823370
1.028000,-1.724534
1.029000,-3.020275
1.030000,-3.101736
1.031000,-1.993101
1.032000,-0.832280
1.033000,0.266173
1.034000,0.986594
1.035000,1.289528
1.036000,1.233523
1.037000,1.331531
1.038000,0.967502
1.039000,0.606018
1.040000,0.235625
1.041000,-0.212412
1.042000,-0.394426
1.043000,-0.563713
1.044000,-0.771184
1.045000,-0.916287
1.046000,-1.169580
1.047000,-1.401235
1.048000,-1.709260
1.049000,-1.905275
1.050000,-1.986737
1.051000,-1.980372
1.052000,-2.154750
1.053000,-2.348220
1.054000,-2.479322
1.055000,-2.607878
1.056000,-2.812803
1.057000,-3.670691
1.058000,-3.721604
1.059000,-3.324481
1.060000,-3.015183
1.061000,-3.250657
1.062000,-3.582865
1.063000,-3.181924
1.064000,-2.298580
1.065000,-1.476332
1.066000,-0.999020
1.067000,-0.390608
1.068000,-0.059672
1.069000,0.146526
1.070000,0.230533
1.071000,0.482554
1.072000,0.376909
1.073000,-0.002395
1.074000,-0.800459
1.075000,-1.924368
1.076000,-2.171297
1.077000,-1.970190
1.078000,-1.539973
1.079000,-1.391052
1.080000,-1.939642
1.081000,-2.000738
1.082000,-2.084744
1.083000,-1.998192
1.084000,-1.667256
1.085000,-1.280316
1.086000,-1.233221
1.087000,-1.458512
1.088000,-1.669802
1.089000,-2.054197
1.090000,-1.855635
1.091000,-1.892547
1.092000,-1.674893
1.093000,-1.454694
1.094000,-1.322319
1.095000,-1.198855
1.096000,-1.097028
1.097000,-1.005385
1.098000,-1.245950
1.099000,-1.766537
1.100000,-2.481867
1.101000,-2.989727
1.102000,-2.960452
1.103000,-2.476776
1.104000,-1.886183
1.105000,-1.477605
1.106000,-1.146669
1.107000,-0.866646
1.108000,-0.825916
1.109000,-0.948107
1.110000,-1.644345
1.111000,-1.476332
1.112000,-1.219220
1.113000,-1.182308
1.114000,-1.351594
1.115000,-1.197582
1.116000,-1.131395
1.117000,-1.621434
1.118000,-2.266759
1.119000,-2.208209
1.120000,-1.566703
1.121000,-1.023204
1.122000,-0.697360
1.123000,-0.256961
1.124000,-0.066036
1.125000,0.033245
1.126000,-0.332058
1.127000,-0.493707
1.128000,-0.736818
1.129000,-0.876829
1.130000,-0.808096
1.131000,-0.903558
1.132000,-0.995202
1.133000,-1.307045
1.134000,-1.785629
1.135000,-2.223483
1.136000,-2.583694
1.137000,-2.539145
1.138000,-2.410589
1.139000,-2.142022
1.140000,-2.092381
1.141000,-2.066925
1.142000,-1.993101
1.143000,-2.406770
1.144000,-2.548055
1.145000,-2.372404
1.146000,-2.134385
1.147000,-2.654972
1.148000,-2.470412
1.149000,-2.088563
1.150000,-1.960007
1.151000,-3.133556
1.152000,-3.271022
1.153000,-2.441137
1.154000,-1.275225
1.155000,-0.146224
1.156000,0.124888
1.157000,0.211441
1.158000,0.053610
1.159000,0.113433
1.160000,-0.246778
1.161000,-0.300237
1.162000,0.045973
1.163000,-0.380425
1.164000,-0.897194
1.165000,-1.220493
1.166000,-1.373233
1.167000,-1.595978
1.168000,-1.665983
1.169000,-1.784357
1.170000,-1.739808
1.171000,-1.667256
1.172000,-1.769083
1.173000,-1.980372
1.174000,-2.250212
1.175000,-2.320218
1.176000,-2.173843
1.177000,-2.248940
1.178000,-2.215846
1.179000,-2.058015
1.180000,-1.935823
1.181000,-1.667256
1.182000,-1.562884
1.183000,-1.383415
1.184000,-1.509425
1.185000,-1.637981
1.186000,-1.860726
1.187000,-2.532781
1.188000,-2.812803
1.189000,-2.609150
1.190000,-2.226029
1.191000,-1.962553
1.192000,-1.746172
1.193000,-1.279043
1.194000,-0.783912
1.195000,-0.465705
1.196000,-0.165317
1.197000,0.031972
1.198000,-0.041852
1.199000,-0.492434
1.200000,-0.850099
1.201000,-0.852645
1.202000,-0.955744
1.203000,-0.780094
1.204000,-0.923924
1.205000,-1.234494
1.206000,-1.615070
1.207000,-1.817450
1.208000,-1.728352
1.209000,-1.457239
1.210000,-1.237040
1.211000,-1.345230
1.212000,-1.438147
1.213000,-1.522154
1.214000,-1.925641
1.215000,-2.241303
1.216000,-2.354584
1.217000,-2.186571
1.218000,-2.018557
1.219000,-1.744899
1.220000,-1.478877
1.221000,-1.433056
1.222000,-1.453421
1.223000,-2.195481
1.224000,-3.290114
1.225000,-4.085633
1.226000,-3.809429
1.227000,-2.726251
1.228000,-1.988009
1.229000,-1.985464
1.230000,-1.562884
1.231000,-0.918832
1.232000,-0.817006
1.233000,-0.502617
1.234000,0.002697
1.235000,0.099432
1.236000,-0.474615
1.237000,-0.466978
1.238000,-0.424974
1.239000,-0.427520
1.240000,-0.544620
1.241000,-0.985019
1.242000,-1.277770
1.243000,-1.041024
1.244000,-0.637537
1.245000,-0.492434
1.246000,-0.072400
1.247000,0.239443
1.248000,-0.432611
1.249000,-1.352867
1.250000,-1.926914
1.251000,-2.339310
1.252000,-2.527689
1.253000,-2.364767
1.254000,-2.247667
1.255000,-2.021103
1.256000,-1.991828
1.257000,-2.046560
1.258000,-2.009648
1.259000,-1.947279
1.260000,-2.030013
1.261000,-2.222210
1.262000,-1.881092
1.263000,-1.799631
1.264000,-2.129294
1.265000,-2.231120
1.266000,-2.019830
1.267000,-1.729625
1.268000,-1.716897
1.269000,-1.538700
1.270000,-1.214129
1.271000,-0.993929
1.272000,-1.016840
1.273000,-1.403780
1.274000,-1.394871
1.275000,-1.672348
1.276000,-1.692713
1.277000,-1.259951
1.278000,-0.939197
1.279000,-0.833553
1.280000,-0.972291
1.281000,-0.894648
1.282000,-1.088119
1.283000,-1.805995
1.284000,-2.914630
1.285000,-2.747889
1.286000,-2.600241
1.287000,-2.442410
1.288000,-2.378768
1.289000,-2.279487
1.290000,-1.915458
1.291000,-1.528518
1.292000,-1.632890
1.293000,-2.168751
1.294000,-1.928186
1.295000,-1.123758
1.296000,-0.189501
1.297000,0.286538
1.298000,-0.409700
1.299000,-0.452976
1.300000,-0.427520
1.301000,-1.203946
1.302000,-1.295590
1.303000,-0.808096
1.304000,-0.382971
1.305000,-0.430065
1.306000,-0.869192
1.307000,-1.252314
1.308000,-1.659619
1.309000,-2.152204
1.310000,-2.279487
1.311000,-1.878546
1.312000,-1.863272
1.313000,-2.544236
1.314000,-2.854807
1.315000,-3.327027
1.316000,-3.922711
1.317000,-3.638870
1.318000,-3.136102
1.319000,-2.246394
1.320000,-1.552702
1.321000,-1.399962
1.322000,-0.941743
1.323000,-0.058399
1.324000,0.497828
1.325000,0.611109
1.326000,0.588198
1.327000,0.104523
1.328000,-0.623536
1.329000,-0.909922
1.330000,-1.014294
1.331000,-0.679540
1.332000,-0.279872
1.333000,-0.442794
1.334000,-0.664266
1.335000,-0.987565
1.336000,-1.200128
1.337000,-1.445784
1.338000,-1.653255
1.339000,-1.883637
1.340000,-2.416953
1.341000,-3.066096
1.342000,-3.255748
1.343000,-3.011365
1.344000,-3.208653
1.345000,-3.118282
1.346000,-2.732615
1.347000,-2.509870
1.348000,-2.234938
1.349000,-2.237484
1.350000,-2.024921
1.351000,-1.626526
1.352000,-1.267588
1.353000,-0.674449
1.354000,-0.899740
1.355000,-0.958290
1.356000,-0.526801
1.357000,-0.066036
1.358000,-0.193319
1.359000,-1.259951
1.360000,-1.511971
1.361000,-1.256132
1.362000,-0.904831
1.363000,-1.275225
1.364000,-1.779265
1.365000,-1.967644
1.366000,-1.958734
1.367000,-1.804722
1.368000,-1.555247
1.369000,-1.406326
1.370000,-1.555247
1.371000,-1.814905
1.372000,-1.895093
1.373000,-1.802176
1.374000,-1.327411
1.375000,-1.926914
1.376000,-2.940086
1.377000,-2.890446
1.378000,-2.084744
1.379000,-1.379597
1.380000,-0.745727
1.381000,-0.276053
1.382000,0.086703
1.383000,0.178347
1.384000,-0.110585
1.385000,-0.237868
1.386000,-0.561167
1.387000,-1.265042
1.388000,-1.766537
1.389000,-1.772901
1.390000,-1.748717
1.391000,-1.667256
1.392000,-1.430510
1.393000,-1.343957
1.394000,-1.513244
1.395000,-1.515789
1.396000,-1.448329
1.397000,-1.584522
1.398000,-1.598523
1.399000,-1.832724
1.400000,-2.271850
1.401000,-2.587512
1.402000,-2.793711
1.403000,-2.895537
1.404000,-3.007546
1.405000,-2.531508
1.406000,-1.749990
1.407000,-1.365596
1.408000,-1.248495
1.409000,-0.813187
1.410000,-0.249324
1.411000,0.104523
1.412000,-0.179318
1.413000,-1.594705
1.414000,-2.021103
1.415000,-1.536155
1.416000,-1.187399
1.417000,-1.086846
1.418000,-1.699077
1.419000,-1.849271
1.420000,-1.849271
1.421000,-1.845452
1.422000,-1.657074
1.423000,-1.329956
1.424000,-1.272679
1.425000,-1.216674
1.426000,-1.276497
1.427000,-1.490333
1.428000,-1.915458
1.429000,-2.158569
1.430000,-1.709260
1.431000,-1.062662
1.432000,-1.425419
1.433000,-2.134385
1.434000,-2.343129
1.435000,-2.660064
1.436000,-2.489504
1.437000,-1.980372
1.438000,-1.435601
1.439000,-0.850099
1.440000,-0.382971
1.441000,-0.278599
1.442000,-0.152589
1.443000,-0.144952
1.444000,-0.497525
1.445000,-1.168307
1.446000,-1.753809
1.447000,-2.273123
1.448000,-2.490777
1.449000,-2.317672
1.450000,-1.953643
1.451000,-2.343129
1.452000,-2.606605
1.453000,-2.371131
1.454000,-2.279487
1.455000,-2.292216
1.456000,-2.339310
1.457000,-2.198026
1.458000,-1.912912
1.459000,-1.342685
1.460000,-0.948107
1.461000,-0.521709
1.462000,-0.419883
1.463000,-0.718998
1.464000,-0.987565
1.465000,-0.946834
1.466000,-0.710088
1.467000,-1.074117
1.468000,-1.410145
1.469000,-1.043570
1.470000,-0.869192
1.471000,-1.196309
1.472000,-1.057571
1.473000,-1.336320
1.474000,-1.439420
1.475000,-1.532336
1.476000,-1.811086
1.477000,-1.761446
1.478000,-1.346503
1.479000,-0.978655
1.480000,-0.585351
1.481000,-0.637537
1.482000,-0.741909
1.483000,-0.748273
1.484000,-0.847554
1.485000,-1.174671
1.486000,-1.589614
1.487000,-1.856908
1.488000,-1.923095
1.489000,-1.776720
1.490000,-1.665983
1.491000,-1.463603
1.492000,-1.402508
1.493000,-1.537428
1.494000,-1.859454
1.495000,-1.984191
1.496000,-2.133112
1.497000,-2.243848
1.498000,-2.278215
1.499000,-2.569693
1.500000,-2.705886
1.501000,-2.455138
1.502000,-3.113191
1.503000,-3.680873
1.504000,-3.664326
1.505000,-2.884082
1.506000,-2.077107
1.507000,-1.186127
1.508000,-0.323148
1.509000,0.131253
1.510000,0.345088
1.511000,0.194894
1.512000,-0.118222
1.513000,-0.230231
1.514000,-0.399518
1.515000,-0.465705
1.516000,-1.122485
1.517000,-1.425419
1.518000,-1.831451
1.519000,-1.951097
1.520000,-1.597251
1.521000,-1.258678
1.522000,-1.209037
1.523000,-1.192491
1.524000,-1.279043
1.525000,-1.392325
1.526000,-1.715624
1.527000,-2.642244
1.528000,-3.153922
1.529000,-2.839533
1.530000,-3.138648
1.531000,-3.337209
1.532000,-2.612969
1.533000,-1.984191
1.534000,-1.472513
1.535000,-1.315955
1.536000,-1.949824
1.537000,-2.637153
1.538000,-2.130566
1.539000,-1.383415
1.540000,-0.636264
1.541000,-0.095311
1.542000,-0.001122
1.543000,-0.258233
1.544000,-0.268416
1.545000,-0.367697
1.546000,-0.416064
1.547000,-0.744455
1.548000,-1.327411
1.549000,-1.579431
1.550000,-1.770355
1.551000,-1.499243
1.552000,-0.973564
1.553000,-0.316784
1.554000,0.143981
1.555000,0.394728
1.556000,0.235625
1.557000,-0.155134
1.558000,-0.696087
1.559000,-0.878102
1.560000,-0.814460
1.561000,-1.291771
1.562000,-1.733443
1.563000,-2.031286
1.564000,-2.521325
1.565000,-2.736433
1.566000,-2.917175
1.567000,-2.857352
1.568000,-2.752980
1.569000,-2.792438
1.570000,-2.895537
1.571000,-2.288397
1.572000,-2.138203
1.573000,-2.066925
1.574000,-1.737262
1.575000,-1.585795
1.576000,-1.280316
1.577000,-1.174671
1.578000,-1.147942
1.579000,-1.397416
1.580000,-1.672348
1.581000,-1.622707
1.582000,-1.721988
1.583000,-1.602342
1.584000,-1.514517
1.585000,-1.735989
1.586000,-1.693986
1.587000,-1.720715
1.588000,-2.190389
1.589000,-2.192935
1.590000,-2.401679
1.591000,-2.941359
1.592000,-4.434389
1.593000,-4.963886
1.594000,-4.239646
1.595000,-3.045731
1.596000,-2.100018
1.597000,-1.161943
1.598000,0.049791
1.599000,0.821126
1.600000,1.023506
1.601000,0.782941
1.602000,0.975139
1.603000,1.404083
1.604000,1.602644
1.605000,1.132970
1.606000,0.448187
1.607000,-0.078764
1.608000,-0.491161
1.609000,-1.004112
1.610000,-1.293044
1.611000,-1.289226
1.612000,-1.287953
1.613000,-1.346503
1.614000,-1.522154
1.615000,-1.734716
1.616000,-1.882365
1.617000,-1.979100
1.618000,-2.308763
1.619000,-2.562056
1.620000,-2.523871
1.621000,-2.402952
1.622000,-2.691884
1.623000,-2.914630
1.624000,-3.022820
1.625000,-2.759344
1.626000,-2.330401
1.627000,-1.974008
1.628000,-1.677439
1.629000,-1.192491
1.630000,-1.023204
1.631000,-0.811914
1.632000,-0.674449
1.633000,-0.722816
1.634000,-0.732999
1.635000,-1.182308
1.636000,-1.472513
1.637000,-1.567976
1.638000,-2.052924
1.639000,-2.761890
1.640000,-3.304116
1.641000,-3.376667
1.642000,-3.809429
1.643000,-5.310096
1.644000,-7.075511
1.645000,-6.315631
1.646000,-4.164549
1.647000,-1.842907
1.648000,0.059974
1.649000,1.559368
1.650000,2.288699
1.651000,2.554721
1.652000,2.506353
1.653000,2.300155
1.654000,1.883939
1.655000,1.480452
1.656000,1.106240
1.657000,0.594563
1.658000,0.048519
1.659000,-0.909922
1.660000,-1.399962
1.661000,-1.550156
1.662000,-1.547610
1.663000,-1.533609
1.664000,-1.472513
1.665000,-1.492879
1.666000,-1.580704
1.667000,-1.658346
1.668000,-1.841634
1.669000,-2.066925
1.670000,-2.261668
1.671000,-2.424590
1.672000,-2.369858
1.673000,-2.815349
1.674000,-3.220109
1.675000,-3.108100
1.676000,-2.942632
1.677000,-2.476776
1.678000,-2.044014
1.679000,-1.718169
1.680000,-1.566703
1.681000,-1.655801
1.682000,-1.644345
1.683000,-1.574340
1.684000,-1.975281
1.685000,-2.066925
1.686000,-1.874728
1.687000,-1.392325
1.688000,-0.987565
1.689000,-1.015567
1.690000,-1.293044
1.691000,-1.497970
1.692000,-1.561611
1.693000,-1.578158
1.694000,-1.436874
1.695000,-1.393598
1.696000,-1.445784
1.697000,-1.539973
1.698000,-1.855635
1.699000,-2.232393
1.700000,-2.676610
1.701000,-3.232837
1.702000,-3.316844
1.703000,-3.683419
1.704000,-5.045347
1.705000,-5.383920
1.706000,-4.624040
1.707000,-3.342301
1.708000,-1.775447
1.709000,-0.132223
1.710000,1.396446
1.711000,2.441439
1.712000,2.597997
1.713000,2.258151
1.714000,2.371433
1.715000,2.021405
1.716000,1.789750
1.717000,1.177519
1.718000,0.537285
1.719000,-0.158953
1.720000,-0.759728
1.721000,-1.060116
1.722000,-1.041024
1.723000,-1.300681
1.724000,-1.555247
1.725000,-1.934551
1.726000,-2.451320
1.727000,-2.649881
1.728000,-2.572238
1.729000,-2.437318
1.730000,-2.461502
1.731000,-2.391497
1.732000,-2.310035
1.733000,-2.330401
1.734000,-3.162831
1.735000,-3.375394
1.736000,-2.675338
1.737000,-2.153477
1.738000,-1.727079
1.739000,-1.231948
1.740000,-0.921378
1.741000,-1.396143
1.742000,-2.072016
1.743000,-2.157296
1.744000,-1.781811
1.745000,-1.485242
1.746000,-1.357959
1.747000,-1.331229
1.748000,-1.203946
1.749000,-0.888284
1.750000,-0.904831
1.751000,-0.964654
1.752000,-0.890830
1.753000,-1.891274
1.754000,-3.029184
1.755000,-3.374121
1.756000,-3.566319
1.757000,-4.228190
1.758000,-3.437763
1.759000,-2.285852
1.760000,-0.847554
1.761000,-0.026578
1.762000,0.029426
1.763000,0.858038
1.764000,1.553004
1.765000,0.672205
1.766000,-0.150043
1.767000,-0.459341
1.768000,-0.805550
1.769000,-0.650265
1.770000,-0.666812
1.771000,-0.817006
1.772000,-1.111030
1.773000,-1.804722
1.774000,-2.036377
1.775000,-1.971463
1.776000,-2.214573
1.777000,-2.535326
1.778000,-2.439864
1.779000,-2.264214
1.780000,-2.087290
1.781000,-2.049105
1.782000,-2.181480
1.783000,-2.423317
1.784000,-2.677883
1.785000,-3.162831
1.786000,-2.938813
1.787000,-2.457684
1.788000,-2.101291
1.789000,-1.949824
1.790000,-1.744899
1.791000,-1.705441
1.792000,-1.405053
1.793000,-1.153033
1.794000,-0.263325
1.795000,0.213986
1.796000,0.035790
1.797000,0.212714
1.798000,0.249626
1.799000,-0.413519
1.800000,-1.046115
1.801000,-1.291771
1.802000,-1.280316
1.803000,-1.281589
1.804000,-1.784357
1.805000,-2.257849
1.806000,-2.234938
1.807000,-2.173843
1.808000,-2.189117
1.809000,-2.355857
1.810000,-1.984191
1.811000,-1.615070
1.812000,-1.468695
1.813000,-1.583249
1.814000,-1.738535
1.815000,-1.397416
1.816000,-1.295590
1.817000,-1.956189
1.818000,-2.303671
1.819000,-1.780538
1.820000,-1.286680
1.821000,-1.206492
1.822000,-0.944289
1.823000,-0.740636
1.824000,-0.833553
1.825000,-1.000293
1.826000,-1.542519
1.827000,-1.771628
1.828000,-1.911640
1.829000,-2.098746
1.830000,-1.467422
1.831000,-0.940470
1.832000,-0.497525
1.833000,-0.421156
1.834000,-0.796641
1.835000,-0.990111
1.836000,-0.969745
1.837000,-1.205219
1.838000,-1.774174
1.839000,-2.377495
1.840000,-2.595149
1.841000,-2.353312
1.842000,-2.064379
1.843000,-1.728352
1.844000,-1.287953
1.845000,-1.154306
1.846000,-1.285407
1.847000,-1.449602
1.848000,-1.494151
1.849000,-1.401235
1.850000,-1.121212
1.851000,-1.150487
1.852000,-1.480150
1.853000,-1.454694
1.854000,-1.373233
1.855000,-1.503061
1.856000,-1.646891
1.857000,-1.934551
1.858000,-1.826360
1.859000,-1.738535
1.860000,-1.710532
1.861000,-1.660892
1.862000,-1.677439
1.863000,-2.172570
1.864000,-2.784801
1.865000,-3.384304
1.866000,-3.605776
1.867000,-3.184470
1.868000,-2.593876
1.869000,-1.877273
1.870000,-1.028296
1.871000,-0.447885
1.872000,-0.445339
1.873000,-0.780094
1.874000,-1.042297
1.875000,-0.584078
1.876000,-0.110585
1.877000,-0.082583
1.878000,-0.337149
1.879000,-0.558621
1.880000,-0.598079
1.881000,-0.856464
1.882000,-1.830178
1.883000,-2.035104
1.884000,-2.054197
1.885000,-2.195481
1.886000,-2.273123
1.887000,-2.107655
1.888000,-1.923095
1.889000,-1.846725
1.890000,-1.791994
1.891000,-2.539145
1.892000,-2.196754
1.893000,-1.794539
1.894000,-1.004112
1.895000,-0.403336
1.896000,-0.100403
1.897000,-0.083856
1.898000,-0.150043
1.899000,-0.263325
1.900000,-0.181864
1.901000,-0.223867
1.902000,-0.727908
1.903000,-1.144123
1.904000,-1.448329
1.905000,-1.800903
1.906000,-2.190389
1.907000,-2.713522
1.908000,-2.448774
1.909000,-2.199299
1.910000,-1.968917
1.911000,-1.809813
1.912000,-1.776720
1.913000,-1.757627
1.914000,-1.887456
1.915000,-1.870909
1.916000,-1.911640
1.917000,-1.781811
1.918000,-1.580704
1.919000,-0.781367
1.920000,-0.694814
1.921000,-1.069026
1.922000,-1.356686
1.923000,-1.545065
1.924000,-1.693986
1.925000,-1.707987
1.926000,-1.508152
1.927000,-1.466149
1.928000,-1.093210
1.929000,-0.951926
1.930000,-1.070299
1.931000,-1.366868
1.932000,-1.729625
1.933000,-2.061834
1.934000,-2.373677
1.935000,-2.499687
1.936000,-2.919721
1.937000,-2.952815
1.938000,-3.231564
1.939000,-3.026639
1.940000,-2.919721
1.941000,-2.476776
1.942000,-1.724534
1.943000,-1.063935
1.944000,-0.755910
1.945000,-0.853918
1.946000,-0.668085
1.947000,-0.745727
1.948000,-0.803005
1.949000,-0.847554
1.950000,-0.778821
1.951000,-0.846281
1.952000,-0.522982
1.953000,-0.217503
1.954000,-0.503890
1.955000,-0.778821
1.956000,-1.392325
1.957000,-2.003283
1.958000,-2.238757
1.959000,-2.862444
1.960000,-2.922267
1.961000,-2.850988
1.962000,-2.884082
1.963000,-2.814076
1.964000,-2.568420
1.965000,-1.972735
1.966000,-0.920105
1.967000,-0.335876
1.968000,-0.315511
1.969000,-0.267143
1.970000,-0.522982
1.971000,-0.851372
1.972000,-1.029568
1.973000,-1.107211
1.974000,-0.943016
1.975000,-0.893376
1.976000,-0.601898
1.977000,-0.516618
1.978000,-0.899740
1.979000,-1.613797
1.980000,-1.728352
1.981000,-1.993101
1.982000,-1.947279
1.983000,-2.077107
1.984000,-1.896366
1.985000,-1.674893
1.986000,-1.483969
1.987000,-1.051207
1.988000,-0.688450
1.989000,-0.446612
1.990000,-0.707542
1.991000,-1.206492
1.992000,-1.761446
1.993000,-2.260395
1.994000,-2.318945
1.995000,-2.358403
1.996000,-2.148386
1.997000,-2.298580
1.998000,-2.245121
1.999000,-1.842907
2.000000,-1.145396
2.001000,-0.848827
2.002000,-1.357959
2.003000,-1.032114
2.004000,-0.904831
2.005000,-0.720271
2.006000,-0.459341
2.007000,-0.525528
2.008000,-0.825916
2.009000,-1.240858
2.010000,-1.593432
2.011000,-2.014739
2.012000,-1.915458
2.013000,-1.952370
2.014000,-1.897638
2.015000,-1.709260
2.016000,-1.677439
2.017000,-1.623980
2.018000,-1.607433
2.019000,-1.531063
2.020000,-1.522154
2.021000,-1.490333
2.022000,-2.310035
2.023000,-2.996091
2.024000,-2.996091
2.025000,-2.596422
2.026000,-1.890001
2.027000,-1.519608
2.028000,-1.368141
2.029000,-1.175944
2.030000,-1.178490
2.031000,-2.279487
2.032000,-2.074562
2.033000,-1.599796
2.034000,-1.084300
2.035000,-0.629900
2.036000,-0.463159
2.037000,-0.399518
2.038000,-0.314238
2.039000,-0.600625
2.040000,-1.245950
2.041000,-1.728352
2.042000,-2.209482
2.043000,-2.149659
2.044000,-1.916731
2.045000,-1.760173
2.046000,-1.463603
2.047000,-1.289226
2.048000,-1.055025
2.049000,-1.366868
2.050000,-2.364767
2.051000,-2.600241
2.052000,-1.840361
2.053000,-1.397416
2.054000,-1.097028
2.055000,-1.075390
2.056000,-1.295590
2.057000,-1.504334
2.058000,-1.529791
2.059000,-1.819996
2.060000,-1.575612
2.061000,-1.335048
2.062000,-0.995202
2.063000,-0.755910
2.064000,-0.740636
2.065000,-0.819551
2.066000,-0.856464
2.067000,-1.080482
2.068000,-1.664711
2.069000,-2.119111
2.070000,-2.214573
2.071000,-2.089836
2.072000,-1.706714
2.073000,-1.444511
2.074000,-1.277770
2.075000,-1.781811
2.076000,-2.064379
2.077000,-2.246394
2.078000,-2.051651
2.079000,-1.489060
2.080000,-1.303227
2.081000,-1.458512
2.082000,-1.378324
2.083000,-1.370687
2.084000,-1.747445
2.085000,-1.588341
2.086000,-1.253586
2.087000,-0.978655
2.088000,-0.757183
2.089000,-0.673176
2.090000,-0.909922
2.091000,-1.212856
2.092000,-1.387234
2.093000,-1.186127
2.094000,-1.019386
2.095000,-1.140305
2.096000,-1.528518
2.097000,-1.952370
2.098000,-2.437318
2.099000,-2.915902
2.100000,-2.744070
2.101000,-2.400406
2.102000,-1.816177
2.103000,-1.477605
2.104000,-1.248495
2.105000,-1.235767
2.106000,-1.433056
2.107000,-1.499243
2.108000,-1.560339
2.109000,-1.379597
2.110000,-0.979928
2.111000,-0.676995
2.112000,-0.834825
2.113000,-1.262496
2.114000,-1.359231
2.115000,-1.767810
2.116000,-1.861999
2.117000,-1.560339
2.118000,-1.510698
2.119000,-1.579431
2.120000,-2.162387
2.121000,-3.255748
2.122000,-3.884526
2.123000,-4.103453
2.124000,-4.183641
2.125000,-3.055914
2.126000,-1.681257
2.127000,-0.878102
2.128000,-0.573895
2.129000,-0.157680
2.130000,0.099432
2.131000,0.250899
2.132000,0.516920
2.133000,0.730755
2.134000,0.667114
2.135000,0.269991
2.136000,0.220351
2.137000,-0.008759
2.138000,-0.659175
2.139000,-1.473786
2.140000,-1.469968
2.141000,-1.159397
2.142000,-1.007930
2.143000,-0.939197
2.144000,-1.160670
2.145000,-1.361777
2.146000,-1.401235
2.147000,-1.576885
2.148000,-1.491606
2.149000,-1.538700
2.150000,-1.677439
2.151000,-1.743626
2.152000,-1.951097
2.153000,-2.016012
2.154000,-2.215846
2.155000,-2.564601
2.156000,-2.629516
2.157000,-2.828077
2.158000,-2.997364
2.159000,-2.849715
2.160000,-2.606605
2.161000,-2.367313
2.162000,-2.156023
2.163000,-1.841634
2.164000,-1.676166
2.165000,-1.632890
2.166000,-1.557793
2.167000,-1.494151
2.168000,-1.407599
2.169000,-1.270133
2.170000,-1.077936
2.171000,-0.988838
2.172000,-0.979928
2.173000,-1.112302
2.174000,-1.396143
2.175000,-1.458512
2.176000,-1.407599
2.177000,-1.434328
2.178000,-1.667256
2.179000,-1.766537
2.180000,-2.800075
2.181000,-3.638870
2.182000,-3.328299
2.183000,-2.324037
2.184000,-1.452148
2.185000,-1.095756
2.186000,-0.987565
2.187000,-1.019386
2.188000,-1.220493
2.189000,-1.485242
2.190000,-2.471685
2.191000,-2.126748
2.192000,-1.541246
2.193000,-1.121212
2.194000,-0.791549
2.195000,-0.612080
2.196000,-0.491161
2.197000,-0.727908
2.198000,-1.131395
2.199000,-0.977382
2.200000,-0.534438
2.201000,-0.437702
2.202000,-0.608262
2.203000,-0.752091
2.204000,-0.410973
2.205000,-0.302782
2.206000,-0.475887
2.207000,-0.822097
2.208000,-0.973564
2.209000,-1.153033
2.210000,-1.495424
2.211000,-2.147113
2.212000,-2.130566
2.213000,-2.658791
2.214000,-3.271022
2.215000,-3.048277
2.216000,-2.765709
2.217000,-2.471685
2.218000,-1.845452
2.219000,-1.135213
2.220000,-0.959563
2.221000,-0.776275
2.222000,-0.489889
2.223000,-0.547166
2.224000,-0.783912
2.225000,-0.741909
2.226000,-0.703724
2.227000,-0.895921
2.228000,-1.175944
2.229000,-1.635435
2.230000,-1.683803
2.231000,-1.454694
2.232000,-1.475059
2.233000,-1.550156
2.234000,-1.625253
2.235000,-1.570521
2.236000,-1.527245
2.237000,-1.571794
2.238000,-1.532336
2.239000,-1.389779
2.240000,-1.053752
2.241000,-0.964654
2.242000,-1.290499
2.243000,-1.612525
2.244000,-1.876000
2.245000,-2.098746
2.246000,-2.486959
2.247000,-2.825532
2.248000,-3.269749
2.249000,-4.226917
2.250000,-5.147173
2.251000,-4.559126
2.252000,-3.484857
2.253000,-2.200572
2.254000,-1.065208
2.255000,-0.376607
2.256000,-0.477160
2.257000,-0.846281
2.258000,-0.559894
2.259000,-0.068582
2.260000,0.261081
2.261000,0.546195
2.262000,-0.141133
2.263000,-0.796641
2.264000,-1.426691
2.265000,-1.865818
2.266000,-1.989282
2.267000,-1.823814
2.268000,-1.529791
2.269000,-1.254859
2.270000,-1.650709
2.271000,-1.752536
2.272000,-1.522154
2.273000,-1.107211
2.274000,-0.736818
2.275000,-0.660448
2.276000,-0.846281
2.277000,-1.053752
2.278000,-1.373233
2.279000,-1.560339
2.280000,-1.534882
2.281000,-1.370687
2.282000,-1.324865
2.283000,-1.378324
2.284000,-1.317228
2.285000,-1.623980
2.286000,-1.719442
2.287000,-1.817450
2.288000,-2.517507
2.289000,-3.076279
2.290000,-3.281205
2.291000,-2.792438
2.292000,-2.041468
2.293000,-1.501788
2.294000,-1.041024
2.295000,-0.711361
2.296000,-0.564985
2.297000,-0.767365
2.298000,-0.898467
2.299000,-0.582805
2.300000,-0.179318
2.301000,-0.194592
2.302000,-0.675722
2.303000,-0.948107
2.304000,-1.140305
2.305000,-1.174671
2.306000,-1.174671
2.307000,-1.061389
2.308000,-0.993929
2.309000,-1.187399
2.310000,-1.947279
2.311000,-3.230291
2.312000,-3.991444
2.313000,-3.568864
2.314000,-2.826804
2.315000,-2.273123
2.316000,-1.989282
2.317000,-1.830178
2.318000,-1.595978
2.319000,-1.519608
2.320000,-1.223039
2.321000,-1.500516
2.322000,-1.578158
2.323000,-1.489060
2.324000,-1.560339
2.325000,-0.884466
2.326000,-1.081754
2.327000,-1.192491
2.328000,-1.265042
2.329000,-1.193763
2.330000,-0.960836
2.331000,-0.789004
2.332000,-0.833553
2.333000,-0.805550
2.334000,-0.615899
2.335000,-0.941743
2.336000,-0.920105
2.337000,-1.268860
2.338000,-2.079653
2.339000,-2.133112
2.340000,-2.115292
2.341000,-1.932005
2.342000,-2.103837
2.343000,-2.255304
2.344000,-2.056742
2.345000,-1.760173
2.346000,-1.571794
2.347000,-1.083027
2.348000,-0.939197
2.349000,-1.238313
2.350000,-1.901457
2.351000,-2.097473
2.352000,-1.928186
2.353000,-1.567976
2.354000,-1.191218
2.355000,-0.937925
2.356000,-1.051207
2.357000,-1.281589
2.358000,-1.329956
2.359000,-1.133940
2.360000,-1.081754
2.361000,-1.169580
2.362000,-1.463603
2.363000,-1.630344
2.364000,-1.831451
2.365000,-1.896366
2.366000,-1.966371
2.367000,-2.088563
2.368000,-1.883637
2.369000,-1.751263
2.370000,-1.744899
2.371000,-1.869636
2.372000,-2.041468
2.373000,-1.916731
2.374000,-1.589614
2.375000,-1.142850
2.376000,-0.797913
2.377000,-0.950653
2.378000,-1.196309
2.379000,-0.845008
2.380000,-0.533165
2.381000,-0.414792
2.382000,-0.375334
2.383000,-0.535710
2.384000,-0.748273
2.385000,-1.477605
2.386000,-3.192107
2.387000,-4.510758
2.388000,-4.728412
2.389000,-3.926529
2.390000,-2.732615
2.391000,-1.580704
2.392000,-0.704997
2.393000,-0.349877
2.394000,-0.198410
2.395000,-0.108040
2.396000,0.178347
2.397000,-0.092766
2.398000,-1.034660
2.399000,-1.256132
2.400000,-1.601069
2.401000,-1.839088
2.402000,-1.998192
2.403000,-2.661336
2.404000,-2.783528
2.405000,-2.414407
2.406000,-1.840361
2.407000,-1.156851
2.408000,-0.643901
2.409000,-0.549712
2.410000,-0.636264
2.411000,-0.829734
2.412000,-0.865373
2.413000,-0.927742
2.414000,-0.918832
2.415000,-1.067753
2.416000,-1.361777
2.417000,-1.556520
2.418000,-1.580704
2.419000,-1.466149
2.420000,-1.469968
2.421000,-1.607433
2.422000,-2.388951
2.423000,-2.889173
2.424000,-2.649881
2.425000,-2.359676
2.426000,-2.564601
2.427000,-2.685520
2.428000,-2.624424
2.429000,-2.596422
2.430000,-2.371131
2.431000,-2.091109
2.432000,-1.421600
2.433000,-0.789004
2.434000,-0.613353
2.435000,-0.544620
2.436000,-0.750819
2.437000,-0.831007
2.438000,-1.317228
2.439000,-1.738535
2.440000,-1.561611
2.441000,-1.450875
2.442000,-1.179762
2.443000,-0.918832
2.444000,-0.748273
2.445000,-0.626081
2.446000,-0.598079
2.447000,-0.477160
2.448000,-0.618444
2.449000,-1.402508
2.450000,-2.283306
2.451000,-2.653699
2.452000,-2.255304
2.453000,-1.851817
2.454000,-1.240858
2.455000,-0.738090
2.456000,-0.668085
2.457000,-0.769911
2.458000,-0.823370
2.459000,-1.066480
2.460000,-1.341412
2.461000,-1.259951
2.462000,-1.467422
2.463000,-1.464876
2.464000,-1.156851
2.465000,-1.083027
2.466000,-1.151760
2.467000,-1.649437
2.468000,-2.204390
2.469000,-3.399578
2.470000,-3.479766
2.471000,-2.980817
2.472000,-2.189117
2.473000,-1.411417
2.474000,-0.982474
2.475000,-0.890830
2.476000,-0.908650
2.477000,-0.957017
2.478000,-0.699905
2.479000,-0.706270
2.480000,-0.855191
2.481000,-0.710088
2.482000,-0.934106
2.483000,-1.140305
2.484000,-1.377051
2.485000,-1.561611
2.486000,-1.715624
2.487000,-1.739808
2.488000,-1.601069
2.489000,-1.496697
2.490000,-1.503061
2.491000,-1.706714
2.492000,-1.687622
2.493000,-2.320218
2.494000,-3.949440
2.495000,-5.103897
2.496000,-5.242636
2.497000,-5.341916
2.498000,-4.228190
2.499000,-2.653699
2.500000,-1.412690
2.501000,-0.708815
2.502000,-0.446612
2.503000,-0.015123
2.504000,0.791851
2.505000,1.446086
2.506000,1.684105
2.507000,1.102422
2.508000,0.141435
2.509000,-0.377879
2.510000,-0.497525
2.511000,-0.582805
2.512000,-0.791549
2.513000,-1.006657
2.514000,-1.146669
2.515000,-1.090664
2.516000,-0.981201
2.517000,-1.159397
2.518000,-1.394871
2.519000,-1.589614
2.520000,-1.910367
2.521000,-2.283306
2.522000,-2.187844
2.523000,-2.504778
2.524000,-2.970634
2.525000,-2.890446
2.526000,-2.644790
2.527000,-2.120384
2.528000,-1.803449
2.529000,-1.354140
2.530000,-1.289226
2.531000,-1.327411
2.532000,-1.490333
2.533000,-1.313410
2.534000,-1.077936
2.535000,-0.898467
2.536000,-0.809369
2.537000,-0.781367
2.538000,-1.112302
2.539000,-1.385961
2.540000,-1.575612
2.541000,-2.283306
2.542000,-3.147558
2.543000,-4.111090
2.544000,-3.977443
2.545000,-3.054641
2.546000,-2.245121
2.547000,-1.639254
2.548000,-1.219220
2.549000,-0.824643
2.550000,-0.885739
2.551000,-0.912468
2.552000,-0.783912
2.553000,-0.725362
2.554000,-1.099574
2.555000,-1.091937
2.556000,-0.857736
2.557000,-0.589169
2.558000,-0.475887
2.559000,-0.643901
2.560000,-0.889557
2.561000,-1.195036
2.562000,-1.249768
2.563000,-1.579431
2.564000,-1.560339
2.565000,-1.315955
2.566000,-1.623980
2.567000,-1.719442
2.568000,-1.710532
2.569000,-1.519608
2.570000,-1.369414
2.571000,-1.324865
2.572000,-1.351594
2.573000,-1.368141
2.574000,-1.368141
2.575000,-1.478877
2.576000,-1.450875
2.577000,-1.791994
2.578000,-2.186571
2.579000,-2.539145
2.580000,-2.352039
2.581000,-2.170024
2.582000,-2.065652
2.583000,-2.228574
2.584000,-1.999465
2.585000,-1.632890
2.586000,-1.949824
2.587000,-1.891274
2.588000,-1.710532
2.589000,-1.430510
2.590000,-1.195036
2.591000,-0.967200
2.592000,-0.693541
2.593000,-0.636264
2.594000,-0.724089
2.595000,-0.626081
2.596000,-0.524255
2.597000,-0.606989
2.598000,-0.881920
2.599000,-0.959563
2.600000,-1.085573
2.601000,-1.090664
2.602000,-0.939197
2.603000,-0.782639
2.604000,-1.265042
2.605000,-1.957461
2.606000,-2.395315
2.607000,-2.873899
2.608000,-3.262112
2.609000,-3.351210
2.610000,-3.375394
2.611000,-3.147558
2.612000,-2.643517
2.613000,-2.086017
2.614000,-1.337593
2.615000,-0.656629
2.616000,-0.382971
2.617000,-0.296418
2.618000,0.061247
2.619000,-0.081310
2.620000,-0.505162
2.621000,-0.729181
2.622000,-1.426691
2.623000,-2.296034
2.624000,-2.419499
2.625000,-2.009648
2.626000,-1.342685
2.627000,-0.794095
2.628000,-0.711361
2.629000,-0.993929
2.630000,-1.112302
2.631000,-1.496697
2.632000,-1.626526
2.633000,-1.683803
2.634000,-1.523426
2.635000,-1.500516
2.636000,-1.489060
2.637000,-1.396143
2.638000,-1.117394
2.639000,-0.911195
2.640000,-1.247222
2.641000,-1.701623
2.642000,-1.953643
2.643000,-2.140749
2.644000,-2.293489
2.645000,-2.145840
2.646000,-2.391497
2.647000,-2.507324
2.648000,-2.456411
2.649000,-2.227301
2.650000,-1.785629
2.651000,-1.284134
2.652000,-0.892103
2.653000,-0.845008
2.654000,-0.761001
2.655000,-0.846281
2.656000,-1.277770
2.657000,-1.454694
2.658000,-2.380041
2.659000,-2.320218
2.660000,-2.318945
2.661000,-2.316400
2.662000,-1.995646
2.663000,-1.702895
2.664000,-1.396143
2.665000,-1.183581
2.666000,-1.004112
2.667000,-1.072845
2.668000,-0.633718
2.669000,-0.335876
2.670000,-0.665539
2.671000,-0.577714
2.672000,-0.502617
2.673000,-0.780094
2.674000,-1.060116
2.675000,-1.220493
2.676000,-1.375778
2.677000,-1.660892
2.678000,-1.944733
2.679000,-2.425863
2.680000,-2.544236
2.681000,-3.222654
2.682000,-3.227746
2.683000,-2.672792
2.684000,-2.357130
2.685000,-1.919277
2.686000,-1.444511
2.687000,-1.038478
2.688000,-0.516618
2.689000,0.143981
2.690000,0.280174
2.691000,-0.524255
2.692000,-0.799186
2.693000,-1.229403
2.694000,-1.150487
2.695000,-0.850099
2.696000,-1.015567
2.697000,-2.121657
2.698000,-2.359676
2.699000,-2.162387
2.700000,-2.168751
2.701000,-2.476776
2.702000,-2.131839
2.703000,-1.813632
2.704000,-1.547610
2.705000,-1.783084
2.706000,-1.373233
2.707000,-0.659175
2.708000,-0.402063
2.709000,-0.291327
2.710000,-0.441521
2.711000,-0.627354
2.712000,-0.943016
2.713000,-1.239585
2.714000,-1.575612
2.715000,-1.678712
2.716000,-1.597251
2.717000,-1.630344
2.718000,-1.462331
2.719000,-1.342685
2.720000,-1.627799
2.721000,-1.944733
2.722000,-2.443683
2.723000,-3.684692
2.724000,-4.312197
2.725000,-3.800519
2.726000,-2.852261
2.727000,-1.797085
2.728000,-1.195036
2.729000,-0.988838
2.730000,-0.701178
2.731000,-0.506435
2.732000,-0.400790
2.733000,-0.534438
2.734000,-0.539529
2.735000,-0.464432
2.736000,-0.909922
2.737000,-1.019386
2.738000,-0.964654
2.739000,-0.963381
2.740000,-1.163216
2.741000,-1.308318
2.742000,-1.346503
2.743000,-1.303227
2.744000,-1.267588
2.745000,-1.187399
2.746000,-1.346503
2.747000,-1.721988
2.748000,-1.779265
2.749000,-1.828906
2.750000,-2.120384
2.751000,-2.203118
2.752000,-2.518780
2.753000,-3.041913
2.754000,-3.553590
2.755000,-3.419943
2.756000,-2.924812
2.757000,-2.254031
2.758000,-1.537428
2.759000,-1.797085
2.760000,-1.830178
2.761000,-1.727079
2.762000,-1.569248
2.763000,-0.993929
2.764000,-0.153861
2.765000,-0.088947
2.766000,-0.510254
2.767000,-0.600625
2.768000,-0.463159
2.769000,-0.222594
2.770000,0.057428
2.771000,-0.110585
2.772000,-0.389335
2.773000,-0.757183
2.774000,-1.723261
2.775000,-1.920549
2.776000,-1.705441
2.777000,-1.641800
2.778000,-1.584522
2.779000,-1.636708
2.780000,-1.845452
2.781000,-2.150932
2.782000,-2.285852
2.783000,-2.350766
2.784000,-2.049105
2.785000,-1.622707
2.786000,-1.285407
2.787000,-1.099574
2.788000,-0.883193
2.789000,-0.735545
2.790000,-0.557348
2.791000,-1.449602
2.792000,-2.149659
2.793000,-2.182752
2.794000,-2.905720
2.795000,-2.611696
2.796000,-1.859454
2.797000,-1.253586
2.798000,-0.633718
2.799000,-0.528073
2.800000,-0.634991
2.801000,-1.107211
2.802000,-1.449602
2.803000,-1.877273
2.804000,-2.008375
2.805000,-2.161114
2.806000,-1.998192
2.807000,-1.830178
2.808000,-1.645618
2.809000,-1.472513
2.810000,-1.444511
2.811000,-1.276497
2.812000,-1.119939
2.813000,-0.832280
2.814000,-0.596806
2.815000,-1.364323
2.816000,-2.413135
2.817000,-2.824259
2.818000,-2.714795
2.819000,-2.665155
2.820000,-2.601513
2.821000,-2.564601
2.822000,-3.086462
2.823000,-2.802621
2.824000,-2.400406
2.825000,-1.713078
2.826000,-0.789004
2.827000,-0.002395
2.828000,0.509283
2.829000,0.337451
2.830000,0.393456
2.831000,0.104523
2.832000,-0.110585
2.833000,-0.320602
2.834000,-0.741909
2.835000,-1.192491
2.836000,-1.578158
2.837000,-2.184025
2.838000,-2.154750
2.839000,-1.891274
2.840000,-1.749990
2.841000,-1.611252
2.842000,-1.858181
2.843000,-2.833169
2.844000,-3.955805
2.845000,-4.176004
2.846000,-3.735605
2.847000,-2.784801
2.848000,-1.805995
2.849000,-0.939197
2.850000,-0.330785
2.851000,-0.011304
2.852000,0.202531
2.853000,0.253444
2.854000,0.553832
2.855000,0.000151
2.856000,-0.775002
2.857000,-1.380869
2.858000,-1.359231
2.859000,-1.464876
2.860000,-1.794539
2.861000,-2.485686
2.862000,-2.976998
2.863000,-2.899356
2.864000,-2.527689
2.865000,-1.622707
2.866000,-1.067753
2.867000,-0.739363
2.868000,-0.347332
2.869000,-0.665539
2.870000,-1.802176
2.871000,-2.102564
2.872000,-1.870909
2.873000,-1.244677
2.874000,-0.960836
2.875000,-0.860282
2.876000,-0.748273
2.877000,-0.925196
2.878000,-1.098301
2.879000,-1.103393
2.880000,-0.704997
2.881000,-0.399518
2.882000,-0.603170
2.883000,-0.946834
2.884000,-1.117394
2.885000,-1.168307
2.886000,-1.209037
2.887000,-1.308318
2.888000,-1.397416
2.889000,-1.617616
2.890000,-1.808540
2.891000,-1.905275
2.892000,-1.981645
2.893000,-2.064379
2.894000,-2.242575
2.895000,-2.397861
2.896000,-2.514961
2.897000,-2.602786
2.898000,-2.371131
2.899000,-2.285852
2.900000,-2.460229
2.901000,-2.830623
2.902000,-3.873071
2.903000,-5.110261
2.904000,-5.218452
2.905000,-4.834057
2.906000,-3.857797
2.907000,-2.605332
2.908000,-1.256132
2.909000,-0.277326
2.910000,0.415094
2.911000,0.990413
2.912000,1.148244
2.913000,1.321349
2.914000,1.110059
2.915000,1.209340
2.916000,1.183883
2.917000,0.790578
2.918000,0.171983
2.919000,-0.540802
2.920000,-1.206492
2.921000,-1.818723
2.922000,-2.024921
2.923000,-2.077107
2.924000,-2.693157
2.925000,-2.866262
2.926000,-2.709704
2.927000,-3.122101
2.928000,-3.357574
2.929000,-2.950269
2.930000,-2.061834
2.931000,-1.244677
2.932000,-0.721544
2.933000,-0.547166
2.934000,-0.142406
2.935000,0.068884
2.936000,0.020516
2.937000,-0.155134
2.938000,-0.249324
2.939000,-0.497525
2.940000,-1.025750
2.941000,-1.481423
2.942000,-1.770355
2.943000,-1.967644
2.944000,-2.485686
2.945000,-2.671519
2.946000,-2.476776
2.947000,-2.374950
2.948000,-2.315127
2.949000,-2.005829
2.950000,-1.687622
2.951000,-1.775447
2.952000,-1.807268
2.953000,-1.546337
2.954000,-1.323592
2.955000,-1.794539
2.956000,-1.906548
2.957000,-1.618889
2.958000,-0.881920
2.959000,-0.620990
2.960000,-0.561167
2.961000,-0.618444
2.962000,-0.859009
2.963000,-1.427964
2.964000,-1.723261
2.965000,-1.724534
2.966000,-1.951097
2.967000,-1.960007
2.968000,-1.707987
2.969000,-1.426691
2.970000,-1.392325
2.971000,-1.597251
2.972000,-1.677439
2.973000,-1.648164
2.974000,-1.477605
2.975000,-1.565430
2.976000,-2.119111
2.977000,-2.397861
2.978000,-2.310035
2.979000,-2.107655
2.980000,-1.718169
2.981000,-1.337593
2.982000,-1.425419
2.983000,-1.595978
2.984000,-2.049105
2.985000,-2.294761
2.986000,-1.981645
2.987000,-1.826360
2.988000,-1.947279
2.989000,-2.797529
2.990000,-3.397032
2.991000,-3.688510
2.992000,-3.772517
2.993000,-2.820440
2.994000,-1.505607
2.995000,-0.582805
2.996000,0.117251
2.997000,0.253444
2.998000,0.304357
2.999000,0.789306
3.000000,1.144425
3.001000,0.715481
3.002000,-0.090220
3.003000,-0.567531
3.004000,-0.766093
3.005000,-0.776275
3.006000,-1.043570
3.007000,-1.062662
3.008000,-1.010476
3.009000,-1.419054
3.010000,-1.562884
3.011000,-1.310864
3.012000,-1.620162
3.013000,-1.741080
3.014000,-1.515789
3.015000,-1.178490
3.016000,-0.899740
3.017000,-1.032114
3.018000,-1.537428
3.019000,-1.557793
3.020000,-1.683803
3.021000,-1.860726
3.022000,-2.302398
3.023000,-3.385577
3.024000,-3.707603
3.025000,-3.717785
3.026000,-3.553590
3.027000,-3.053368
3.028000,-2.642244
3.029000,-2.427136
3.030000,-2.175115
3.031000,-1.536155
3.032000,-1.111030
3.033000,-0.763547
3.034000,0.109614
3.035000,0.443096
3.036000,0.509283
3.037000,0.322177
3.038000,-0.080037
3.039000,-0.063490
3.040000,-0.174227
3.041000,-0.662993
3.042000,-1.217947
3.043000,-1.599796
3.044000,-1.802176
3.045000,-1.709260
3.046000,-1.719442
3.047000,-2.054197
3.048000,-2.013466
3.049000,-1.803449
3.050000,-1.609979
3.051000,-1.408872
3.052000,-1.322319
3.053000,-1.310864
3.054000,-1.441965
3.055000,-1.668529
3.056000,-1.930732
3.057000,-2.210755
3.058000,-2.518780
3.059000,-2.774618
3.060000,-3.001182
3.061000,-2.769527
3.062000,-2.686793
3.063000,-2.536599
3.064000,-2.055469
3.065000,-1.579431
3.066000,-1.160670
3.067000,-0.767365
3.068000,-0.601898
3.069000,-1.352867
3.070000,-1.946006
3.071000,-2.535326
3.072000,-2.469139
3.073000,-2.535326
3.074000,-2.133112
3.075000,-1.701623
3.076000,-1.366868
3.077000,-1.416509
3.078000,-1.433056
3.079000,-1.826360
3.080000,-1.989282
3.081000,-2.135658
3.082000,-2.248940
3.083000,-1.865818
3.084000,-1.623980
3.085000,-1.622707
3.086000,-1.293044
3.087000,-0.701178
3.088000,-0.301510
3.089000,-0.064763
3.090000,0.328541
3.091000,-0.174227
3.092000,-0.024033
3.093000,-0.008759
3.094000,-0.828461
3.095000,-1.056298
3.096000,-1.164488
3.097000,-1.074117
3.098000,-0.940470
3.099000,-0.893376
3.100000,-0.974837
3.101000,-0.848827
3.102000,-0.452976
3.103000,-0.776275
3.104000,-1.645618
3.105000,-1.631617
3.106000,-1.700350
3.107000,-1.483969
3.108000,-1.121212
3.109000,-0.780094
3.110000,-0.488616
3.111000,-0.693541
3.112000,-1.038478
3.113000,-1.369414
3.114000,-1.737262
3.115000,-2.064379
3.116000,-2.481867
3.117000,-2.453865
3.118000,-2.427136
3.119000,-2.358403
3.120000,-2.122929
3.121000,-1.999465
3.122000,-1.828906
3.123000,-1.976554
3.124000,-2.246394
3.125000,-2.167478
3.126000,-2.857352
3.127000,-2.954087
3.128000,-2.978271
3.129000,-2.690612
3.130000,-2.498414
3.131000,-2.349493
3.132000,-1.780538
3.133000,-1.239585
3.134000,-0.662993
3.135000,-0.407155
3.136000,-0.320602
3.137000,-0.305328
3.138000,-0.335876
3.139000,-0.358787
3.140000,-0.655356
3.141000,-1.225584
3.142000,-1.279043
3.143000,-1.289226
3.144000,-1.239585
3.145000,-1.314682
3.146000,-1.668529
3.147000,-2.663882
3.148000,-3.446673
3.149000,-3.682146
3.150000,-3.384304
3.151000,-2.775891
3.152000,-2.984635
3.153000,-2.605332
3.154000,-2.152204
3.155000,-1.700350
3.156000,-1.295590
3.157000,-0.997748
3.158000,-0.795368
3.159000,-0.164044
3.160000,0.631475
3.161000,0.590744
3.162000,-0.011304
3.163000,-0.584078
3.164000,-0.694814
3.165000,-0.578987
3.166000,-0.657902
3.167000,-1.020659
3.168000,-1.277770
3.169000,-1.398689
3.170000,-1.439420
3.171000,-1.429237
3.172000,-1.458512
3.173000,-1.370687
3.174000,-1.807268
3.175000,-2.129294
3.176000,-2.648608
3.177000,-2.894264
3.178000,-3.030457
3.179000,-2.988454
3.180000,-2.466593
3.181000,-2.465321
3.182000,-2.008375
3.183000,-1.132668
3.184000,-0.521709
3.185000,-0.577714
3.186000,-0.757183
3.187000,-1.011749
3.188000,-0.804278
3.189000,0.007788
3.190000,0.065065
3.191000,-0.463159
3.192000,-0.704997
3.193000,-0.954471
3.194000,-1.195036
3.195000,-1.384688
3.196000,-1.514517
3.197000,-1.550156
3.198000,-1.612525
3.199000,-1.705441
3.200000,-2.012193
3.201000,-2.493323
3.202000,-2.638426
3.203000,-2.929904
3.204000,-3.237928
3.205000,-3.591775
3.206000,-3.292660
3.207000,-2.808985
3.208000,-2.247667
3.209000,-1.268860
3.210000,-0.412246
3.211000,-0.172954
3.212000,-0.124586
3.213000,-0.273507
3.214000,-0.174227
3.215000,-0.545893
3.216000,-1.660892
3.217000,-2.324037
3.218000,-1.980372
3.219000,-1.640527
3.220000,-1.909094
3.221000,-1.788175
3.222000,-1.480150
3.223000,-1.317228
3.224000,-1.037205
3.225000,-0.511527
3.226000,-0.494980
3.227000,-0.982474
3.228000,-1.181035
3.229000,-1.259951
3.230000,-1.094483
3.231000,-1.099574
3.232000,-1.485242
3.233000,-1.830178
3.234000,-2.471685
3.235000,-2.604059
3.236000,-2.670246
3.237000,-2.400406
3.238000,-2.349493
3.239000,-2.142022
3.240000,-1.738535
3.241000,-1.212856
3.242000,-0.655356
3.243000,-0.547166
3.244000,-0.577714
3.245000,-0.730453
3.246000,-0.665539
3.247000,-1.156851
3.248000,-1.262496
3.249000,-1.636708
3.250000,-1.695259
3.251000,-1.710532
3.252000,-1.681257
3.253000,-2.208209
3.254000,-2.816622
3.255000,-3.203562
3.256000,-2.808985
3.257000,-1.915458
3.258000,-1.234494
3.259000,-0.706270
3.260000,-0.661721
3.261000,-0.745727
3.262000,-0.711361
3.263000,-0.866646
3.264000,-1.265042
3.265000,-1.438147
3.266000,-1.795812
3.267000,-1.930732
3.268000,-1.948552
3.269000,-1.685076
3.270000,-1.499243
3.271000,-1.419054
3.272000,-1.805995
3.273000,-2.266759
3.274000,-3.150103
3.275000,-2.782255
3.276000,-1.814905
3.277000,-1.027023
3.278000,-0.474615
3.279000,-0.136042
3.280000,-0.231504
3.281000,-0.318056
3.282000,-0.592988
3.283000,-0.246778
3.284000,0.180893
3.285000,-0.206047
3.286000,-0.576441
3.287000,-0.887011
3.288000,-1.256132
3.289000,-1.602342
3.290000,-2.069471
3.291000,-2.755526
3.292000,-2.693157
3.293000,-3.085189
3.294000,-3.398305
3.295000,-3.120828
3.296000,-2.425863
3.297000,-1.737262
3.298000,-1.375778
3.299000,-1.074117
3.300000,-0.982474
3.301000,-1.097028
3.302000,-1.023204
3.303000,-1.043570
3.304000,-1.170853
3.305000,-1.060116
3.306000,-1.168307
3.307000,-1.508152
3.308000,-1.443238
3.309000,-1.133940
3.310000,-1.265042
3.311000,-1.234494
3.312000,-1.595978
3.313000,-1.639254
3.314000,-1.649437
3.315000,-1.867091
3.316000,-2.234938
3.317000,-2.702067
3.318000,-2.923539
3.319000,-2.718614
3.320000,-2.189117
3.321000,-1.763991
3.322000,-1.195036
3.323000,-0.549712
3.324000,-0.208593
3.325000,-0.232777
3.326000,-0.316784
3.327000,-0.430065
3.328000,-1.047388
3.329000,-1.262496
3.330000,-1.277770
3.331000,-1.114848
3.332000,-1.142850
3.333000,-1.200128
3.334000,-1.399962
3.335000,-1.691440
3.336000,-1.762718
3.337000,-1.802176
3.338000,-1.842907
3.339000,-1.940915
3.340000,-2.348220
3.341000,-2.430954
3.342000,-2.327855
3.343000,-2.684247
3.344000,-4.216735
3.345000,-4.653315
3.346000,-4.505667
3.347000,-3.834886
3.348000,-2.559510
3.349000,-1.295590
3.350000,-0.020214
3.351000,0.430368
3.352000,0.077794
3.353000,-0.202229
3.354000,0.201258
3.355000,0.926771
3.356000,1.001868
3.357000,0.440550
3.358000,-0.020214
3.359000,-0.474615
3.360000,-0.909922
3.361000,-1.063935
3.362000,-1.098301
3.363000,-0.888284
3.364000,-1.035933
3.365000,-1.383415
3.366000,-1.534882
3.367000,-1.616343
3.368000,-1.587068
3.369000,-1.897638
3.370000,-2.195481
3.371000,-2.332946
3.372000,-3.007546
3.373000,-3.861615
3.374000,-5.256637
3.375000,-5.056802
3.376000,-4.251101
3.377000,-2.965543
3.378000,-1.823814
3.379000,-0.776275
3.380000,0.051064
3.381000,0.384546
3.382000,0.501646
3.383000,0.373090
3.384000,0.245807
3.385000,0.108342
3.386000,-0.435157
3.387000,-0.716452
3.388000,-0.934106
3.389000,-1.056298
3.390000,-1.304500
3.391000,-1.440693
3.392000,-1.336320
3.393000,-1.328683
3.394000,-1.513244
3.395000,-1.607433
3.396000,-1.450875
3.397000,-1.380869
3.398000,-1.308318
3.399000,-1.419054
3.400000,-1.444511
3.401000,-1.291771
3.402000,-1.405053
3.403000,-1.665983
3.404000,-1.797085
3.405000,-1.786902
3.406000,-1.832724
3.407000,-2.004556
3.408000,-2.358403
3.409000,-2.525144
3.410000,-2.727524
3.411000,-2.998636
3.412000,-2.854807
3.413000,-2.792438
3.414000,-2.124202
3.415000,-1.441965
3.416000,-0.857736
3.417000,-0.382971
3.418000,0.020516
3.419000,-0.036761
3.420000,-0.901013
3.421000,-1.438147
3.422000,-1.435601
3.423000,-1.223039
3.424000,-1.317228
3.425000,-1.315955
3.426000,-1.193763
3.427000,-1.444511
3.428000,-1.949824
3.429000,-2.159841
3.430000,-1.981645
3.431000,-1.710532
3.432000,-1.713078
3.433000,-1.943460
3.434000,-2.037650
3.435000,-2.064379
3.436000,-1.874728
3.437000,-1.625253
3.438000,-1.924368
3.439000,-2.168751
3.440000,-2.014739
3.441000,-2.587512
3.442000,-3.075006
3.443000,-3.108100
3.444000,-2.668973
3.445000,-1.892547
3.446000,-0.912468
3.447000,-0.307874
3.448000,0.235625
3.449000,0.603472
3.450000,1.040053
3.451000,0.721846
3.452000,0.006515
3.453000,-0.237868
3.454000,-0.576441
3.455000,-0.926469
3.456000,-1.090664
3.457000,-1.201400
3.458000,-1.343957
3.459000,-1.329956
3.460000,-1.193763
3.461000,-1.168307
3.462000,-1.392325
3.463000,-1.620162
3.464000,-1.765264
3.465000,-1.800903
3.466000,-1.598523
3.467000,-1.438147
3.468000,-1.426691
3.469000,-1.804722
3.470000,-2.143295
3.471000,-2.910811
3.472000,-3.263385
3.473000,-3.166650
3.474000,-3.548499
3.475000,-3.698693
3.476000,-3.165377
3.477000,-2.320218
3.478000,-1.723261
3.479000,-1.421600
3.480000,-0.985019
3.481000,-0.873010
3.482000,-0.642628
3.483000,-0.599352
3.484000,-0.316784
3.485000,-0.204775
3.486000,-0.659175
3.487000,-0.895921
3.488000,-0.893376
3.489000,-0.934106
3.490000,-1.300681
3.491000,-2.007102
3.492000,-2.460229
3.493000,-2.438591
3.494000,-2.222210
3.495000,-1.744899
3.496000,-1.130122
3.497000,-0.916287
3.498000,-0.729181
3.499000,-0.879374
3.500000,-1.310864
3.501000,-1.514517
3.502000,-1.458512
3.503000,-1.397416
3.504000,-1.175944
3.505000,-0.979928
3.506000,-0.913741
3.507000,-0.948107
3.508000,-0.827188
3.509000,-0.787731
3.510000,-0.851372
3.511000,-0.991384
3.512000,-1.183581
3.513000,-1.510698
3.514000,-2.415680
3.515000,-3.215018
3.516000,-3.063551
3.517000,-2.713522
3.518000,-2.298580
3.519000,-2.040195
3.520000,-2.219664
3.521000,-2.352039
3.522000,-2.576057
3.523000,-2.980817
3.524000,-3.775063
3.525000,-3.283750
3.526000,-2.364767
3.527000,-1.397416
3.528000,-0.640082
3.529000,-0.195865
3.530000,0.210168
3.531000,0.208895
3.532000,0.263627
3.533000,0.001424
3.534000,0.014152
3.535000,0.015425
3.536000,0.068884
3.537000,-0.171681
3.538000,-0.654084
3.539000,-0.991384
3.540000,-2.058015
3.541000,-3.483585
3.542000,-4.688955
3.543000,-4.569309
3.544000,-3.772517
3.545000,-2.929904
3.546000,-1.954916
3.547000,-1.144123
3.548000,-1.184854
3.549000,-1.048661
3.550000,-0.740636
3.551000,-0.291327
3.552000,0.082885
3.553000,0.219078
3.554000,0.249626
3.555000,0.011607
3.556000,-1.020659
3.557000,-2.046560
3.558000,-2.427136
3.559000,-2.419499
3.560000,-2.142022
3.561000,-1.730898
3.562000,-1.261223
3.563000,-0.880647
3.564000,-0.623536
3.565000,-0.493707
3.566000,-0.353696
3.567000,-0.493707
3.568000,-1.011749
3.569000,-1.504334
3.570000,-1.811086
3.571000,-1.988009
3.572000,-2.448774
3.573000,-2.676610
3.574000,-2.616787
3.575000,-2.544236
3.576000,-2.101291
3.577000,-1.683803
3.578000,-1.560339
3.579000,-1.427964
3.580000,-1.234494
3.581000,-0.906104
3.582000,-0.740636
3.583000,-0.875556
3.584000,-0.950653
3.585000,-1.169580
3.586000,-1.565430
3.587000,-2.154750
3.588000,-2.282033
3.589000,-2.002011
3.590000,-1.709260
3.591000,-1.743626
3.592000,-1.715624
3.593000,-2.108928
3.594000,-2.490777
3.595000,-3.067369
3.596000,-3.995262
3.597000,-3.431399
3.598000,-2.551873
3.599000,-1.536155
3.600000,-0.421156
3.601000,-0.097857
3.602000,-0.029124
3.603000,-0.012577
3.604000,-0.083856
3.605000,-0.307874
3.606000,-0.727908
3.607000,-1.289226
3.608000,-2.042741
3.609000,-2.031286
3.610000,-1.753809
3.611000,-1.671075
3.612000,-1.832724
3.613000,-1.565430
3.614000,-1.419054
3.615000,-1.356686
3.616000,-1.046115
3.617000,-0.689723
3.618000,-0.645174
3.619000,-0.843735
3.620000,-0.915014
3.621000,-0.979928
3.622000,-0.929015
3.623000,-1.126303
3.624000,-1.532336
3.625000,-2.584967
3.626000,-3.006273
3.627000,-2.640971
3.628000,-2.130566
3.629000,-1.713078
3.630000,-1.464876
3.631000,-1.027023
3.632000,-0.967200
3.633000,-1.175944
3.634000,-1.369414
3.635000,-1.441965
3.636000,-1.323592
3.637000,-1.114848
3.638000,-1.172125
3.639000,-1.492879
3.640000,-1.557793
3.641000,-1.802176
3.642000,-2.218392
3.643000,-2.489504
3.644000,-2.397861
3.645000,-2.390224
3.646000,-2.369858
3.647000,-2.064379
3.648000,-2.233666
3.649000,-2.366040
3.650000,-1.584522
3.651000,-0.827188
3.652000,-0.254415
3.653000,0.235625
3.654000,0.193621
3.655000,0.044700
3.656000,-0.330785
3.657000,-0.629900
3.658000,-0.993929
3.659000,-1.163216
3.660000,-1.345230
3.661000,-1.501788
3.662000,-1.770355
3.663000,-2.563329
3.664000,-2.416953
3.665000,-2.082199
3.666000,-1.804722
3.667000,-1.590886
3.668000,-1.643072
3.669000,-1.615070
3.670000,-1.660892
3.671000,-1.604888
3.672000,-1.674893
3.673000,-1.592159
3.674000,-1.550156
3.675000,-2.266759
3.676000,-3.694874
3.677000,-4.632950
3.678000,-4.459845
3.679000,-3.414852
3.680000,-2.251485
3.681000,-1.263769
3.682000,-0.309147
3.683000,0.420185
3.684000,0.567833
3.685000,0.295448
3.686000,0.473644
3.687000,-0.171681
3.688000,-0.739363
3.689000,-0.904831
3.690000,-0.876829
3.691000,-0.974837
3.692000,-1.105938
3.693000,-1.220493
3.694000,-1.342685
3.695000,-1.499243
3.696000,-1.407599
3.697000,-1.160670
3.698000,-1.104665
3.699000,-1.318501
3.700000,-1.471240
3.701000,-1.235767
3.702000,-1.111030
3.703000,-1.397416
3.704000,-1.895093
3.705000,-2.273123
3.706000,-2.340583
3.707000,-2.476776
3.708000,-2.685520
3.709000,-2.502233
3.710000,-2.632061
3.711000,-3.595594
3.712000,-3.607049
3.713000,-3.040640
3.714000,-2.380041
3.715000,-1.635435
3.716000,-1.076663
3.717000,-0.922651
3.718000,-0.258233
3.719000,0.192348
3.720000,0.422731
3.721000,0.612382
3.722000,0.500373
3.723000,-0.002395
3.724000,-0.293873
3.725000,-0.640082
3.726000,-1.394871
3.727000,-2.106383
3.728000,-2.362221
3.729000,-2.405498
3.730000,-2.181480
3.731000,-1.798358
3.732000,-1.350322
3.733000,-1.286680
3.734000,-1.223039
3.735000,-1.159397
3.736000,-1.058844
3.737000,-0.860282
3.738000,-1.443238
3.739000,-2.036377
3.740000,-2.525144
3.741000,-2.789892
3.742000,-2.484413
3.743000,-2.270578
3.744000,-2.088563
3.745000,-2.404225
3.746000,-2.746616
3.747000,-2.422044
3.748000,-1.809813
3.749000,-1.340139
3.750000,-1.010476
3.751000,-0.780094
3.752000,-0.725362
3.753000,-0.668085
3.754000,-0.993929
3.755000,-1.153033
3.756000,-1.076663
3.757000,-1.133940
3.758000,-1.411417
3.759000,-1.429237
3.760000,-1.501788
3.761000,-1.699077
3.762000,-1.672348
3.763000,-1.655801
3.764000,-1.974008
3.765000,-1.901457
3.766000,-1.443238
3.767000,-0.885739
3.768000,-0.839917
3.769000,-1.093210
3.770000,-1.209037
3.771000,-1.539973
3.772000,-2.213300
3.773000,-1.962553
3.774000,-1.309591
3.775000,-1.291771
3.776000,-1.382142
3.777000,-1.293044
3.778000,-1.309591
3.779000,-1.336320
3.780000,-1.522154
3.781000,-1.905275
3.782000,-2.191662
3.783000,-2.512415
3.784000,-2.845897
3.785000,-2.704613
3.786000,-2.215846
3.787000,-2.460229
3.788000,-3.960896
3.789000,-4.141638
3.790000,-3.209926
3.791000,-2.149659
3.792000,-1.160670
3.793000,-0.337149
3.794000,-0.318056
3.795000,-0.203502
3.796000,-0.769911
3.797000,-0.633718
3.798000,0.359089
3.799000,0.943318
3.800000,0.473644
3.801000,0.140162
3.802000,-0.268416
3.803000,-1.562884
3.804000,-2.162387
3.805000,-2.187844
3.806000,-2.359676
3.807000,-1.804722
3.808000,-1.071572
3.809000,-0.013850
3.810000,0.523284
3.811000,0.542377
3.812000,0.169437
3.813000,0.005242
3.814000,-0.304055
3.815000,-0.610807
3.816000,-0.559894
3.817000,-0.743182
3.818000,-1.408872
3.819000,-1.901457
3.820000,-2.149659
3.821000,-2.293489
3.822000,-2.247667
3.823000,-2.217119
3.824000,-2.187844
3.825000,-2.162387
3.826000,-2.355857
3.827000,-2.453865
3.828000,-2.523871
3.829000,-2.635880
3.830000,-2.497141
3.831000,-2.129294
3.832000,-1.664711
3.833000,-1.271406
3.834000,-1.383415
3.835000,-1.876000
3.836000,-2.016012
3.837000,-1.867091
3.838000,-1.752536
3.839000,-1.800903
3.840000,-1.893820
3.841000,-2.399133
3.842000,-2.444955
3.843000,-2.153477
3.844000,-1.788175
3.845000,-1.458512
3.846000,-0.944289
3.847000,-0.769911
3.848000,-0.855191
3.849000,-1.299408
3.850000,-1.590886
3.851000,-1.811086
3.852000,-2.167478
3.853000,-3.487403
3.854000,-4.415296
3.855000,-4.504394
3.856000,-3.776336
3.857000,-3.119555
3.858000,-2.493323
3.859000,-1.618889
3.860000,-0.626081
3.861000,0.123616
3.862000,0.850401
3.863000,1.367170
3.864000,1.493181
3.865000,1.116423
3.866000,0.379454
3.867000,-0.372788
3.868000,-0.722816
3.869000,-0.931561
3.870000,-1.090664
3.871000,-1.489060
3.872000,-2.217119
3.873000,-3.786518
3.874000,-4.738595
3.875000,-4.868424
3.876000,-3.822157
3.877000,-2.385132
3.878000,-0.973564
3.879000,-0.029124
3.880000,0.347634
3.881000,0.436732
3.882000,0.318359
3.883000,0.578016
3.884000,0.723118
3.885000,0.700208
3.886000,0.254717
3.887000,-0.814460
3.888000,-1.584522
3.889000,-2.018557
3.890000,-2.224756
3.891000,-2.105110
3.892000,-1.984191
3.893000,-1.985464
3.894000,-1.874728
3.895000,-1.868363
3.896000,-1.695259
3.897000,-1.440693
3.898000,-1.336320
3.899000,-1.127576
3.900000,-1.048661
3.901000,-1.055025
3.902000,-1.696531
3.903000,-2.661336
3.904000,-2.801348
3.905000,-2.470412
3.906000,-2.120384
3.907000,-1.725806
3.908000,-1.705441
3.909000,-1.957461
3.910000,-1.998192
3.911000,-2.079653
3.912000,-1.954916
3.913000,-2.425863
3.914000,-3.267204
3.915000,-3.206108
3.916000,-2.665155
3.917000,-2.551873
3.918000,-1.891274
3.919000,-0.881920
3.920000,-0.189501
3.921000,-0.043125
3.922000,-0.099130
3.923000,0.044700
3.924000,0.539831
3.925000,0.718027
3.926000,0.203804
3.927000,-0.398245
3.928000,-0.778821
3.929000,-1.027023
3.930000,-1.240858
3.931000,-1.565430
3.932000,-1.710532
3.933000,-2.128021
3.934000,-2.722432
3.935000,-3.243020
3.936000,-3.749606
3.937000,-3.390668
3.938000,-2.830623
3.939000,-2.437318
3.940000,-2.110201
3.941000,-1.663438
3.942000,-1.921822
3.943000,-1.984191
3.944000,-1.489060
3.945000,-1.093210
3.946000,-0.960836
3.947000,-1.025750
3.948000,-0.757183
3.949000,-0.035488
3.950000,-0.211139
3.951000,-0.860282
3.952000,-1.179762
3.953000,-1.281589
3.954000,-1.265042
3.955000,-1.268860
3.956000,-1.111030
3.957000,-1.266315
3.958000,-1.615070
3.959000,-1.883637
3.960000,-1.809813
3.961000,-1.543792
3.962000,-1.621434
3.963000,-1.387234
3.964000,-0.951926
3.965000,-0.878102
3.966000,-0.786458
3.967000,-0.724089
3.968000,-0.622263
3.969000,-0.683359
3.970000,-1.084300
3.971000,-1.207765
3.972000,-1.724534
3.973000,-2.766981
3.974000,-3.640143
3.975000,-3.920165
3.976000,-3.661781
3.977000,-3.887072
3.978000,-3.710148
3.979000,-2.644790
3.980000,-1.716897
3.981000,-1.221766
3.982000,-1.085573
3.983000,-0.766093
3.984000,-0.208593
3.985000,-0.038034
3.986000,-0.025306
3.987000,0.255990
3.988000,0.306903
3.989000,-0.181864
3.990000,-1.030841
3.991000,-1.634163
3.992000,-1.803449
3.993000,-1.541246
3.994000,-1.321046
3.995000,-1.425419
3.996000,-1.517062
3.997000,-1.720715
3.998000,-1.938369
3.999000,-2.027467
4.000000,-2.133112
4.001000,-2.115292
4.002000,-2.345675
4.003000,-2.290943
4.004000,-1.744899
4.005000,-1.472513
4.006000,-1.817450
4.007000,-2.154750
4.008000,-1.896366
4.009000,-1.473786
4.010000,-1.170853
4.011000,-0.859009
4.012000,-0.500071
4.013000,-0.240414
4.014000,-0.738090
4.015000,-1.412690
4.016000,-1.458512
4.017000,-1.305773
4.018000,-1.327411
4.019000,-1.588341
4.020000,-1.564157
4.021000,-1.668529
4.022000,-1.833997
4.023000,-1.986737
4.024000,-1.636708
4.025000,-1.295590
4.026000,-1.195036
4.027000,-1.102120
4.028000,-1.117394
4.029000,-1.230676
4.030000,-1.145396
4.031000,-0.908650
4.032000,-0.785185
4.033000,-0.940470
4.034000,-1.154306
4.035000,-1.318501
4.036000,-1.307045
4.037000,-1.391052
4.038000,-1.573067
4.039000,-1.854362
4.040000,-1.878546
4.041000,-1.850544
4.042000,-1.811086
4.043000,-1.769083
4.044000,-1.967644
4.045000,-2.049105
4.046000,-1.954916
4.047000,-1.980372
4.048000,-2.446228
4.049000,-2.488232
4.050000,-2.667701
4.051000,-2.702067
4.052000,-2.400406
4.053000,-1.972735
4.054000,-1.617616
4.055000,-1.280316
4.056000,-1.056298
4.057000,-0.937925
4.058000,-0.965927
4.059000,-1.161943
4.060000,-1.249768
4.061000,-1.313410
4.062000,-1.429237
4.063000,-1.398689
4.064000,-1.360504
4.065000,-1.378324
4.066000,-1.224311
4.067000,-1.160670
4.068000,-1.215402
4.069000,-1.383415
4.070000,-2.299853
4.071000,-2.336765
4.072000,-2.114020
4.073000,-1.826360
4.074000,-1.587068
4.075000,-1.184854
4.076000,-0.883193
4.077000,-0.862828
4.078000,-1.149214
4.079000,-1.273952
4.080000,-1.749990
4.081000,-2.373677
4.082000,-2.414407
4.083000,-2.461502
4.084000,-2.410589
4.085000,-2.195481
4.086000,-2.326582
4.087000,-1.947279
4.088000,-1.345230
4.089000,-0.732999
4.090000,-0.732999
4.091000,-0.385516
4.092000,-0.036761
4.093000,0.378182
4.094000,0.466007
4.095000,0.099432
4.096000,-0.535710
4.097000,-0.927742
4.098000,-1.226857
4.099000,-1.604888
4.100000,-1.892547
4.101000,-2.002011
4.102000,-1.695259
4.103000,-1.891274
4.104000,-2.938813
4.105000,-3.575228
4.106000,-3.370303
4.107000,-2.741525
4.108000,-1.975281
4.109000,-1.329956
4.110000,-0.823370
4.111000,-0.472069
4.112000,-0.386789
4.113000,-0.494980
4.114000,-0.777548
4.115000,-1.379597
4.116000,-1.392325
4.117000,-1.291771
4.118000,-1.242131
4.119000,-1.165761
4.120000,-0.893376
4.121000,-0.703724
4.122000,-0.706270
4.123000,-1.023204
4.124000,-1.112302
4.125000,-1.186127
4.126000,-1.149214
4.127000,-1.304500
4.128000,-1.569248
4.129000,-1.707987
4.130000,-1.970190
4.131000,-2.316400
4.132000,-2.787347
4.133000,-2.488232
4.134000,-2.072016
4.135000,-1.623980
4.136000,-1.906548
4.137000,-2.041468
4.138000,-1.867091
4.139000,-1.842907
4.140000,-1.749990
4.141000,-1.603615
4.142000,-1.254859
4.143000,-1.088119
4.144000,-1.070299
4.145000,-1.290499
4.146000,-1.352867
4.147000,-0.906104
4.148000,-0.543347
4.149000,-0.589169
4.150000,-1.019386
4.151000,-1.277770
4.152000,-1.641800
4.153000,-2.307490
4.154000,-2.380041
4.155000,-2.441137
4.156000,-2.615515
4.157000,-2.651154
4.158000,-2.615515
4.159000,-2.652427
4.160000,-2.385132
4.161000,-1.882365
4.162000,-1.377051
4.163000,-1.439420
4.164000,-1.658346
4.165000,-2.779710
4.166000,-2.760617
4.167000,-2.290943
4.168000,-1.956189
4.169000,-1.532336
4.170000,-1.234494
4.171000,-1.240858
4.172000,-1.305773
4.173000,-1.046115
4.174000,-0.596806
4.175000,0.291629
4.176000,0.702753
4.177000,0.793124
4.178000,0.879677
4.179000,0.790578
4.180000,0.467280
4.181000,-0.142406
4.182000,-0.606989
4.183000,-0.926469
4.184000,-1.279043
4.185000,-1.559066
4.186000,-2.402952
4.187000,-3.057187
4.188000,-3.001182
4.189000,-2.904447
4.190000,-2.660064
4.191000,-2.324037
4.192000,-2.565874
4.193000,-3.171741
4.194000,-3.352483
4.195000,-3.235383
4.196000,-2.596422
4.197000,-1.813632
4.198000,-1.313410
4.199000,-0.867919
4.200000,-0.652811
4.201000,-0.506435
4.202000,-0.594261
4.203000,-0.713907
4.204000,-0.530619
4.205000,-0.528073
4.206000,-0.626081
4.207000,-0.888284
4.208000,-1.231948
4.209000,-1.394871
4.210000,-1.515789
4.211000,-1.776720
4.212000,-1.705441
4.213000,-1.491606
4.214000,-1.310864
4.215000,-1.183581
4.216000,-1.097028
4.217000,-1.225584
4.218000,-1.123758
4.219000,-0.950653
4.220000,-1.186127
4.221000,-1.685076
4.222000,-1.897638
4.223000,-1.895093
4.224000,-2.084744
4.225000,-2.601513
4.226000,-2.714795
4.227000,-2.710977
4.228000,-2.624424
4.229000,-2.280760
4.230000,-2.311308
4.231000,-2.509870
4.232000,-2.639698
4.233000,-2.378768
4.234000,-1.814905
4.235000,-1.378324
4.236000,-0.809369
4.237000,-0.618444
4.238000,-0.715179
4.239000,-0.594261
4.240000,-0.515345
4.241000,-0.365151
4.242000,-0.263325
4.243000,-0.323148
4.244000,-0.758456
4.245000,-0.940470
4.246000,-1.146669
4.247000,-1.854362
4.248000,-2.442410
4.249000,-2.568420
4.250000,-2.798802
4.251000,-3.160286
4.252000,-2.966816
4.253000,-2.339310
4.254000,-2.054197
4.255000,-1.996919
4.256000,-1.902730
4.257000,-1.669802
4.258000,-1.041024
4.259000,-0.483524
4.260000,0.099432
4.261000,0.271264
4.262000,-0.146224
4.263000,-0.809369
4.264000,-1.005385
4.265000,-1.030841
4.266000,-0.951926
4.267000,-1.242131
4.268000,-1.672348
4.269000,-1.729625
4.270000,-1.648164
4.271000,-1.621434
4.272000,-1.373233
4.273000,-1.267588
4.274000,-1.380869
4.275000,-1.527245
4.276000,-1.179762
4.277000,-0.796641
4.278000,-0.482252
4.279000,-0.571350
4.280000,-0.852645
4.281000,-1.041024
4.282000,-1.153033
4.283000,-1.280316
4.284000,-1.378324
4.285000,-1.524699
4.286000,-1.785629
4.287000,-1.847998
4.288000,-1.844180
4.289000,-2.336765
4.290000,-2.483140
4.291000,-2.331673
4.292000,-2.204390
4.293000,-2.051651
4.294000,-2.031286
4.295000,-2.018557
4.296000,-2.186571
4.297000,-2.294761
4.298000,-2.831896
4.299000,-3.293933
4.300000,-3.708876
4.301000,-3.846341
4.302000,-4.896426
4.303000,-6.855311
4.304000,-7.104786
4.305000,-5.509930
4.306000,-2.928631
4.307000,-0.160226
4.308000,1.859756
4.309000,2.963299
4.310000,3.459703
4.311000,3.542437
4.312000,3.236958
4.313000,2.786376
4.314000,2.128323
4.315000,1.521183
4.316000,0.850401
4.317000,0.227988
4.318000,-0.255688
4.319000,-0.604443
4.320000,-0.950653
4.321000,-1.441965
4.322000,-1.723261
4.323000,-1.904003
4.324000,-2.158569
4.325000,-2.285852
4.326000,-2.283306
4.327000,-2.266759
4.328000,-2.292216
4.329000,-2.276942
4.330000,-2.371131
4.331000,-2.358403
4.332000,-2.793711
4.333000,-2.858625
4.334000,-2.786074
4.335000,-2.553146
4.336000,-2.554419
4.337000,-2.978271
4.338000,-2.899356
4.339000,-2.736433
4.340000,-2.313854
4.341000,-1.974008
4.342000,-1.626526
4.343000,-1.370687
4.344000,-0.982474
4.345000,-1.032114
4.346000,-1.265042
4.347000,-1.266315
4.348000,-1.301954
4.349000,-1.356686
4.350000,-1.261223
4.351000,-1.179762
4.352000,-1.067753
4.353000,-0.853918
4.354000,-0.829734
4.355000,-0.864101
4.356000,-0.767365
4.357000,-0.690996
4.358000,-1.159397
4.359000,-1.580704
4.360000,-1.735989
4.361000,-1.791994
4.362000,-1.681257
4.363000,-1.551429
4.364000,-1.377051
4.365000,-1.350322
4.366000,-1.809813
4.367000,-2.516234
4.368000,-3.554863
4.369000,-3.810702
4.370000,-3.380485
4.371000,-2.638426
4.372000,-2.512415
4.373000,-2.973180
4.374000,-2.425863
4.375000,-1.718169
4.376000,-0.979928
4.377000,-0.115676
4.378000,0.343815
4.379000,0.949682
4.380000,1.042599
4.381000,0.572925
4.382000,0.145254
4.383000,-0.031670
4.384000,-0.026578
4.385000,-0.235323
4.386000,-0.395699
4.387000,-0.687177
4.388000,-0.941743
4.389000,-1.450875
4.390000,-1.799631
4.391000,-2.010920
4.392000,-2.212027
4.393000,-2.399133
4.394000,-2.621879
4.395000,-2.775891
4.396000,-2.695703
4.397000,-2.610423
4.398000,-2.643517
4.399000,-2.724978
4.400000,-2.934995
4.401000,-2.674065
4.402000,-2.209482
4.403000,-2.149659
4.404000,-1.779265
4.405000,-1.396143
4.406000,-1.514517
4.407000,-1.434328
4.408000,-1.266315
4.409000,-0.977382
4.410000,-0.873010
4.411000,-0.971018
4.412000,-1.058844
4.413000,-0.781367
4.414000,-0.633718
4.415000,-0.643901
4.416000,-0.735545
4.417000,-0.790276
4.418000,-0.465705
4.419000,-0.507708
4.420000,-0.713907
4.421000,-0.679540
4.422000,-1.363050
4.423000,-2.288397
4.424000,-2.750435
4.425000,-2.878990
4.426000,-2.624424
4.427000,-2.192935
4.428000,-1.739808
4.429000,-1.495424
4.430000,-1.454694
4.431000,-1.581977
4.432000,-1.454694
4.433000,-1.588341
4.434000,-1.687622
4.435000,-1.510698
4.436000,-1.967644
4.437000,-2.143295
4.438000,-2.101291
4.439000,-1.974008
4.440000,-1.449602
4.441000,-0.903558
4.442000,-0.553530
4.443000,-0.627354
4.444000,-0.661721
4.445000,-0.666812
4.446000,-0.841190
4.447000,-1.643072
4.448000,-2.968088
4.449000,-4.402568
4.450000,-4.748778
4.451000,-4.103453
4.452000,-2.948996
4.453000,-1.816177
4.454000,-0.960836
4.455000,-0.360060
4.456000,-0.020214
4.457000,-0.048216
4.458000,-0.263325
4.459000,-0.302782
4.460000,-0.197138
4.461000,0.067611
4.462000,-0.494980
4.463000,-0.557348
4.464000,-0.468250
4.465000,-0.410973
4.466000,-0.446612
4.467000,-0.297691
4.468000,-0.307874
4.469000,-0.747000
4.470000,-1.273952
4.471000,-1.424146
4.472000,-1.855635
4.473000,-2.147113
4.474000,-2.327855
4.475000,-2.159841
4.476000,-1.817450
4.477000,-1.583249
4.478000,-1.522154
4.479000,-1.953643
4.480000,-2.154750
4.481000,-1.915458
4.482000,-1.915458
4.483000,-2.042741
4.484000,-1.971463
4.485000,-1.559066
4.486000,-1.392325
4.487000,-1.354140
4.488000,-1.238313
4.489000,-1.163216
4.490000,-1.076663
4.491000,-1.049934
4.492000,-1.317228
4.493000,-1.438147
4.494000,-1.766537
4.495000,-2.204390
4.496000,-2.922267
4.497000,-3.253202
4.498000,-3.103008
4.499000,-3.215018
4.500000,-3.388122
4.501000,-3.603231
4.502000,-3.455582
4.503000,-3.035548
4.504000,-2.270578
4.505000,-1.519608
4.506000,-1.181035
4.507000,-0.991384
4.508000,-0.715179
4.509000,-0.491161
4.510000,-0.339695
4.511000,-0.362606
4.512000,-0.007486
4.513000,-0.110585
4.514000,-1.066480
4.515000,-1.489060
4.516000,-1.830178
4.517000,-2.343129
4.518000,-2.472958
4.519000,-2.098746
4.520000,-1.224311
4.521000,-0.606989
4.522000,-0.069855
4.523000,0.075248
4.524000,0.059974
4.525000,-0.096584
4.526000,-0.041852
4.527000,-0.536983
4.528000,-1.095756
4.529000,-1.421600
4.530000,-2.032558
4.531000,-2.096200
4.532000,-1.904003
4.533000,-1.802176
4.534000,-1.622707
4.535000,-1.677439
4.536000,-1.657074
4.537000,-1.742353
4.538000,-1.807268
4.539000,-1.646891
4.540000,-1.424146
4.541000,-1.085573
4.542000,-0.937925
4.543000,-0.965927
4.544000,-1.247222
4.545000,-1.713078
4.546000,-1.421600
4.547000,-1.156851
4.548000,-1.427964
4.549000,-1.737262
4.550000,-1.805995
4.551000,-1.818723
4.552000,-1.646891
4.553000,-1.581977
4.554000,-1.486514
4.555000,-1.223039
4.556000,-1.300681
4.557000,-1.370687
4.558000,-1.499243
4.559000,-1.854362
4.560000,-1.786902
4.561000,-1.904003
4.562000,-1.920549
4.563000,-2.453865
4.564000,-2.719887
4.565000,-2.654972
4.566000,-2.526416
4.567000,-2.130566
4.568000,-1.758900
4.569000,-1.459785
4.570000,-1.332502
4.571000,-1.083027
4.572000,-0.619717
4.573000,-0.263325
4.574000,-0.344786
4.575000,-0.445339
4.576000,-1.034660
4.577000,-1.929459
4.578000,-2.349493
4.579000,-2.698249
4.580000,-2.918448
4.581000,-2.447501
4.582000,-1.771628
4.583000,-1.237040
4.584000,-1.130122
4.585000,-1.830178
4.586000,-2.158569
4.587000,-1.548883
4.588000,-0.762274
4.589000,-0.136042
4.590000,0.023062
4.591000,-0.221321
4.592000,-0.562440
4.593000,-0.987565
4.594000,-1.752536
4.595000,-2.896810
4.596000,-3.241747
4.597000,-2.694430
4.598000,-2.026194
4.599000,-1.228130
4.600000,-0.722816
4.601000,-0.666812
4.602000,-0.748273
4.603000,-0.889557
4.604000,-1.226857
4.605000,-1.235767
4.606000,-1.210310
4.607000,-1.265042
4.608000,-1.522154
4.609000,-1.667256
4.610000,-1.706714
4.611000,-2.092381
4.612000,-1.735989
4.613000,-1.449602
4.614000,-1.228130
4.615000,-1.019386
4.616000,-1.265042
4.617000,-1.536155
4.618000,-1.585795
4.619000,-1.601069
4.620000,-1.407599
4.621000,-1.001566
4.622000,-1.126303
4.623000,-1.438147
4.624000,-1.407599
4.625000,-1.329956
4.626000,-1.231948
4.627000,-1.336320
4.628000,-1.399962
4.629000,-1.406326
4.630000,-1.440693
4.631000,-1.665983
4.632000,-2.070743
4.633000,-3.057187
4.634000,-3.621050
4.635000,-3.563773
4.636000,-3.713967
4.637000,-3.371576
4.638000,-2.527689
4.639000,-1.627799
4.640000,-0.753364
4.641000,-0.010032
4.642000,0.314540
4.643000,0.362908
4.644000,-0.101675
4.645000,-0.287509
4.646000,-0.606989
4.647000,-1.429237
4.648000,-1.276497
4.649000,-1.201400
4.650000,-1.388506
4.651000,-1.491606
4.652000,-1.816177
4.653000,-2.619333
4.654000,-3.230291
4.655000,-3.271022
4.656000,-2.583694
4.657000,-1.902730
4.658000,-1.032114
4.659000,-0.687177
4.660000,-0.578987
4.661000,-1.000293
4.662000,-1.018113
4.663000,-0.656629
4.664000,-0.489889
4.665000,-0.255688
4.666000,-0.274780
4.667000,-0.479706
4.668000,-0.775002
4.669000,-0.965927
4.670000,-1.154306
4.671000,-1.252314
4.672000,-1.280316
4.673000,-1.466149
4.674000,-1.704168
4.675000,-1.847998
4.676000,-1.925641
4.677000,-2.014739
4.678000,-2.170024
4.679000,-2.338038
4.680000,-3.239201
4.681000,-4.300741
4.682000,-4.426752
4.683000,-3.832340
4.684000,-2.985908
4.685000,-2.120384
4.686000,-1.312137
4.687000,-0.587896
4.688000,-0.074946
4.689000,0.031972
4.690000,-1.011749
4.691000,-1.001566
4.692000,-0.745727
4.693000,-0.284963
4.694000,-0.291327
4.695000,-0.422429
4.696000,-0.749546
4.697000,-1.319774
4.698000,-1.531063
4.699000,-1.196309
4.700000,-1.111030
4.701000,-1.356686
4.702000,-1.538700
4.703000,-1.436874
4.704000,-1.427964
4.705000,-1.340139
4.706000,-1.753809
4.707000,-2.027467
4.708000,-1.965098
4.709000,-1.968917
4.710000,-2.149659
4.711000,-2.256577
4.712000,-2.032558
4.713000,-1.691440
4.714000,-1.359231
4.715000,-1.256132
4.716000,-1.252314
4.717000,-1.188672
4.718000,-1.257405
4.719000,-1.377051
4.720000,-1.247222
4.721000,-1.093210
4.722000,-1.117394
4.723000,-1.480150
4.724000,-1.576885
4.725000,-1.505607
4.726000,-1.307045
4.727000,-1.263769
4.728000,-1.285407
4.729000,-1.327411
4.730000,-1.439420
4.731000,-1.822541
4.732000,-3.198471
4.733000,-4.139092
4.734000,-4.416569
4.735000,-4.980433
4.736000,-5.868868
4.737000,-5.830683
4.738000,-5.040256
4.739000,-3.162831
4.740000,-1.433056
4.741000,0.315813
4.742000,1.471543
4.743000,2.441439
4.744000,2.920023
4.745000,3.295508
4.746000,3.068944
4.747000,2.623454
4.748000,2.279790
4.749000,1.066783
4.750000,0.327268
4.751000,-0.013850
4.752000,-0.538256
4.753000,-0.957017
4.754000,-1.469968
4.755000,-1.828906
4.756000,-2.061834
4.757000,-2.363494
4.758000,-2.471685
4.759000,-2.621879
4.760000,-3.005001
4.761000,-3.708876
4.762000,-4.023265
4.763000,-3.764880
4.764000,-3.006273
4.765000,-2.199299
4.766000,-1.583249
4.767000,-1.192491
4.768000,-1.167034
4.769000,-1.373233
4.770000,-1.341412
4.771000,-1.016840
4.772000,-0.985019
4.773000,-1.205219
4.774000,-1.438147
4.775000,-1.515789
4.776000,-1.560339
4.777000,-1.828906
4.778000,-2.318945
4.779000,-2.485686
4.780000,-2.427136
4.781000,-2.727524
4.782000,-2.560783
4.783000,-2.254031
4.784000,-2.031286
4.785000,-1.711805
4.786000,-1.458512
4.787000,-1.069026
4.788000,-0.650265
4.789000,-0.624808
4.790000,-0.735545
4.791000,-0.851372
4.792000,-0.757183
4.793000,-0.676995
4.794000,-0.915014
4.795000,-1.002839
4.796000,-1.257405
4.797000,-1.542519
4.798000,-1.697804
4.799000,-1.823814
4.800000,-2.070743
4.801000,-2.676610
4.802000,-3.379213
4.803000,-3.809429
4.804000,-4.723321
4.805000,-4.093270
4.806000,-2.738979
4.807000,-1.618889
4.808000,-0.715179
4.809000,-0.399518
4.810000,-0.582805
4.811000,-0.969745
4.812000,-1.111030
4.813000,-0.736818
4.814000,0.170710
4.815000,0.024335
4.816000,-0.343513
4.817000,-0.834825
4.818000,-0.764820
4.819000,-0.601898
4.820000,-0.578987
4.821000,-0.875556
4.822000,-2.026194
4.823000,-2.303671
4.824000,-2.187844
4.825000,-1.723261
4.826000,-1.271406
4.827000,-0.901013
4.828000,-1.080482
4.829000,-1.128849
4.830000,-1.682530
4.831000,-2.877718
4.832000,-2.807712
4.833000,-1.839088
4.834000,-0.913741
4.835000,-0.370242
4.836000,-0.069855
4.837000,0.002697
4.838000,0.009061
4.839000,-0.022760
4.840000,-0.358787
4.841000,-0.529346
4.842000,-0.815733
4.843000,-1.340139
4.844000,-1.696531
4.845000,-2.168751
4.846000,-2.738979
4.847000,-2.859898
4.848000,-2.802621
4.849000,-2.686793
4.850000,-2.780982
4.851000,-2.512415
4.852000,-2.032558
4.853000,-1.697804
4.854000,-1.478877
4.855000,-1.097028
4.856000,-1.042297
4.857000,-1.333775
4.858000,-1.794539
4.859000,-1.830178
4.860000,-1.621434
4.861000,-1.436874
4.862000,-1.588341
4.863000,-1.711805
4.864000,-1.481423
4.865000,-1.882365
4.866000,-1.573067
4.867000,-1.196309
4.868000,-0.707542
4.869000,-0.702451
4.870000,-1.555247
4.871000,-2.142022
4.872000,-2.134385
4.873000,-2.214573
4.874000,-2.821713
4.875000,-2.793711
4.876000,-2.461502
4.877000,-1.980372
4.878000,-1.469968
4.879000,-1.212856
4.880000,-1.065208
4.881000,-0.881920
4.882000,-0.608262
4.883000,-0.346059
4.884000,0.351452
4.885000,0.388364
4.886000,0.058701
4.887000,-0.230231
4.888000,-0.654084
4.889000,-1.109757
4.890000,-1.313410
4.891000,-1.373233
4.892000,-1.434328
4.893000,-1.485242
4.894000,-1.497970
4.895000,-1.697804
4.896000,-2.367313
4.897000,-2.731342
4.898000,-3.049550
4.899000,-3.295206
4.900000,-3.240474
4.901000,-3.395759
4.902000,-2.926085
4.903000,-2.623152
4.904000,-2.191662
4.905000,-1.668529
4.906000,-1.410145
4.907000,-1.332502
4.908000,-1.641800
4.909000,-1.452148
4.910000,-1.139032
4.911000,-0.629900
4.912000,-0.477160
4.913000,-0.584078
4.914000,-0.697360
4.915000,-0.755910
4.916000,-0.678267
4.917000,-1.063935
4.918000,-1.247222
4.919000,-1.333775
4.920000,-1.858181
4.921000,-2.396588
4.922000,-3.185742
4.923000,-3.073733
4.924000,-2.338038
4.925000,-1.919277
4.926000,-1.893820
4.927000,-1.541246
4.928000,-1.048661
4.929000,-0.566258
4.930000,-0.510254
4.931000,-0.817006
4.932000,-1.041024
4.933000,-1.380869
4.934000,-1.774174
4.935000,-1.623980
4.936000,-0.890830
4.937000,-0.156407
4.938000,-0.087674
4.939000,-0.013850
4.940000,0.310722
4.941000,0.122343
4.942000,-0.781367
4.943000,-1.262496
4.944000,-1.475059
4.945000,-1.094483
4.946000,-0.744455
4.947000,-0.921378
4.948000,-1.243404
4.949000,-1.711805
4.950000,-2.391497
4.951000,-2.691884
4.952000,-3.842523
4.953000,-4.108544
4.954000,-3.521770
4.955000,-2.582421
4.956000,-1.613797
4.957000,-1.097028
4.958000,-0.850099
4.959000,-0.750819
4.960000,-0.585351
4.961000,-0.748273
4.962000,-1.244677
4.963000,-1.891274
4.964000,-3.455582
4.965000,-4.095816
4.966000,-3.805611
4.967000,-3.089007
4.968000,-2.299853
4.969000,-2.063106
4.970000,-1.664711
4.971000,-1.029568
4.972000,-0.222594
4.973000,0.231806
4.974000,1.064237
4.975000,1.410447
4.976000,1.125333
4.977000,0.258536
4.978000,-0.704997
4.979000,-1.216674
4.980000,-1.158124
4.981000,-1.337593
4.982000,-1.457239
4.983000,-1.890001
4.984000,-2.044014
4.985000,-2.134385
4.986000,-2.191662
4.987000,-2.195481
4.988000,-2.754253
4.989000,-2.892992
4.990000,-2.625697
4.991000,-2.553146
4.992000,-2.298580
4.993000,-1.844180
4.994000,-1.276497
4.995000,-0.865373
4.996000,-0.936652
4.997000,-1.403780
4.998000,-1.781811
4.999000,-1.812359
5.000000,-2.153477
5.001000,-2.130566
5.002000,-3.230291
5.003000,-3.893436
5.004000,-3.139921
5.005000,-2.150932
5.006000,-1.371960
5.007000,-0.428793
5.008000,0.277628
5.009000,0.585653
5.010000,0.375636
5.011000,-0.198410
5.012000,-0.641355
5.013000,-1.322319
5.014000,-1.546337
5.015000,-1.364323
5.016000,-1.075390
5.017000,-0.795368
5.018000,-0.833553
5.019000,-0.881920
5.020000,-0.888284
5.021000,-0.996475
5.022000,-1.188672
5.023000,-1.668529
5.024000,-2.825532
5.025000,-3.899800
5.026000,-3.958350
5.027000,-3.598139
5.028000,-2.956633
5.029000,-2.503506
5.030000,-1.593432
5.031000,-0.978655
5.032000,-0.915014
5.033000,-0.418610
5.034000,-0.654084
5.035000,-0.748273
5.036000,-0.302782
5.037000,0.420185
5.038000,0.410002
5.039000,0.184711
5.040000,-0.436430
5.041000,-0.853918
5.042000,-0.927742
5.043000,-1.119939
5.044000,-1.310864
5.045000,-1.419054
5.046000,-1.556520
5.047000,-1.637981
5.048000,-2.087290
5.049000,-2.066925
5.050000,-1.825087
5.051000,-1.878546
5.052000,-2.027467
5.053000,-2.098746
5.054000,-2.052924
5.055000,-1.776720
5.056000,-1.741080
5.057000,-1.828906
5.058000,-1.794539
5.059000,-1.459785
5.060000,-1.561611
5.061000,-2.686793
5.062000,-3.315571
5.063000,-3.026639
5.064000,-2.327855
5.065000,-1.662165
5.066000,-2.046560
5.067000,-2.178934
5.068000,-1.609979
5.069000,-1.163216
5.070000,-0.805550
5.071000,-0.417337
5.072000,-0.605716
5.073000,-0.474615
5.074000,-0.979928
5.075000,-1.412690
5.076000,-2.167478
5.077000,-2.873899
5.078000,-3.293933
5.079000,-3.283750
5.080000,-2.731342
5.081000,-2.270578
5.082000,-2.063106
5.083000,-1.743626
5.084000,-1.265042
5.085000,-0.636264
5.086000,0.128707
5.087000,0.287811
5.088000,0.444369
5.089000,0.670932
5.090000,0.280174
5.091000,-0.286236
5.092000,-0.662993
5.093000,-0.893376
5.094000,-1.099574
5.095000,-0.977382
5.096000,-1.275225
5.097000,-1.612525
5.098000,-1.924368
5.099000,-2.598968
5.100000,-2.765709
5.101000,-2.971907
5.102000,-4.041084
5.103000,-3.713967
5.104000,-3.022820
5.105000,-1.876000
5.106000,-0.864101
5.107000,-0.176772
5.108000,0.177074
5.109000,0.079067
5.110000,-0.002395
5.111000,-0.324421
5.112000,-0.683359
5.113000,-1.047388
5.114000,-1.388506
5.115000,-1.522154
5.116000,-1.682530
5.117000,-1.748717
5.118000,-1.691440
5.119000,-1.714351
5.120000,-1.753809
5.121000,-1.784357
5.122000,-1.762718
5.123000,-2.010920
5.124000,-2.005829
5.125000,-1.929459
5.126000,-2.007102
5.127000,-2.262941
5.128000,-2.139476
5.129000,-1.999465
5.130000,-2.072016
5.131000,-1.882365
5.132000,-1.417782
5.133000,-1.515789
5.134000,-1.845452
5.135000,-1.748717
5.136000,-1.658346
5.137000,-1.607433
5.138000,-1.693986
5.139000,-2.405498
5.140000,-2.273123
5.141000,-1.704168
5.142000,-1.295590
5.143000,-1.053752
5.144000,-1.018113
5.145000,-1.539973
5.146000,-2.710977
5.147000,-3.861615
5.148000,-3.589230
5.149000,-2.688066
5.150000,-1.548883
5.151000,-0.338422
5.152000,0.480008
5.153000,1.060418
5.154000,1.306075
5.155000,1.194066
5.156000,0.812217
5.157000,0.537285
5.158000,0.254717
5.159000,-0.156407
5.160000,-0.432611
5.161000,-0.722816
5.162000,-1.168307
5.163000,-1.500516
5.164000,-1.682530
5.165000,-1.728352
5.166000,-1.663438
5.167000,-1.710532
5.168000,-1.840361
5.169000,-2.102564
5.170000,-2.245121
5.171000,-2.254031
5.172000,-2.226029
5.173000,-2.152204
5.174000,-2.171297
5.175000,-2.086017
5.176000,-2.423317
5.177000,-2.744070
5.178000,-2.498414
5.179000,-2.214573
5.180000,-2.040195
5.181000,-1.748717
5.182000,-1.620162
5.183000,-1.777992
5.184000,-1.830178
5.185000,-1.881092
5.186000,-1.626526
5.187000,-1.374505
5.188000,-1.140305
5.189000,-1.209037
5.190000,-1.762718
5.191000,-2.984635
5.192000,-4.077996
5.193000,-4.235827
5.194000,-4.620222
5.195000,-4.856968
5.196000,-4.533669
5.197000,-3.381758
5.198000,-2.213300
5.199000,-1.746172
5.200000,-0.908650
5.201000,0.477462
5.202000,2.198328
5.203000,2.469441
5.204000,2.185600
5.205000,1.830481
5.206000,1.547912
5.207000,1.583552
5.208000,1.022234
5.209000,0.192348
5.210000,-0.319329
5.211000,-0.245505
5.212000,-0.320602
5.213000,-0.592988
5.214000,-0.842462
5.215000,-1.084300
5.216000,-1.412690
5.217000,-1.663438
5.218000,-1.872182
5.219000,-2.150932
5.220000,-2.190389
5.221000,-2.261668
5.222000,-2.254031
5.223000,-2.255304
5.224000,-2.184025
5.225000,-2.164933
5.226000,-2.204390
5.227000,-2.723705
5.228000,-3.031730
5.229000,-3.427580
5.230000,-3.517951
5.231000,-3.470856
5.232000,-3.120828
5.233000,-2.625697
5.234000,-2.245121
5.235000,-1.864545
5.236000,-1.472513
5.237000,-1.098301
5.238000,-0.650265
5.239000,-0.324421
5.240000,0.023062
5.241000,-0.228958
5.242000,-1.039751
5.243000,-1.299408
5.244000,-1.163216
5.245000,-1.030841
5.246000,-0.969745
5.247000,-1.116121
5.248000,-1.291771
5.249000,-1.486514
5.250000,-1.657074
5.251000,-1.536155
5.252000,-1.500516
5.253000,-1.713078
5.254000,-1.853089
5.255000,-1.911640
5.256000,-1.947279
5.257000,-2.009648
5.258000,-2.115292
5.259000,-2.070743
5.260000,-2.231120
5.261000,-2.184025
5.262000,-2.065652
5.263000,-2.154750
5.264000,-2.162387
5.265000,-2.350766
5.266000,-2.709704
5.267000,-2.385132
5.268000,-1.785629
5.269000,-1.504334
5.270000,-1.290499
5.271000,-1.674893
5.272000,-2.409316
5.273000,-2.791165
5.274000,-3.477220
5.275000,-4.463664
5.276000,-4.051267
5.277000,-3.283750
5.278000,-1.519608
5.279000,0.342542
5.280000,1.637010
5.281000,2.754555
5.282000,2.986210
5.283000,2.387980
5.284000,1.845755
5.285000,1.610281
5.286000,0.884768
5.287000,0.371817
5.288000,-0.031670
5.289000,-1.052479
5.290000,-1.364323
5.291000,-1.481423
5.292000,-1.406326
5.293000,-1.608706
5.294000,-1.858181
5.295000,-1.846725
5.296000,-1.742353
5.297000,-1.650709
5.298000,-1.645618
5.299000,-1.501788
5.300000,-1.597251
5.301000,-1.891274
5.302000,-1.961280
5.303000,-1.905275
5.304000,-1.975281
5.305000,-2.292216
5.306000,-2.470412
5.307000,-2.332946
5.308000,-2.270578
5.309000,-2.512415
5.310000,-2.559510
5.311000,-2.391497
5.312000,-2.148386
5.313000,-1.728352
5.314000,-1.587068
5.315000,-1.551429
5.316000,-1.567976
5.317000,-1.420327
5.318000,-1.318501
5.319000,-1.237040
5.320000,-1.399962
5.321000,-1.541246
5.322000,-1.621434
5.323000,-1.700350
5.324000,-1.872182
5.325000,-2.321491
5.326000,-3.780154
5.327000,-5.111534
5.328000,-6.448006
5.329000,-6.749666
5.330000,-5.984696
5.331000,-4.392385
5.332000,-2.695703
5.333000,-1.392325
5.334000,-0.137315
5.335000,0.794397
5.336000,2.088865
5.337000,2.911113
5.338000,3.244595
5.339000,3.222957
5.340000,2.410891
5.341000,1.794841
5.342000,1.168609
5.343000,0.678569
5.344000,0.221623
5.345000,-0.376607
5.346000,-0.805550
5.347000,-1.133940
5.348000,-1.374505
5.349000,-1.617616
5.350000,-1.847998
5.351000,-2.014739
5.352000,-2.161114
5.353000,-2.450047
5.354000,-3.138648
5.355000,-3.771244
5.356000,-3.936712
5.357000,-3.473402
5.358000,-2.609150
5.359000,-1.887456
5.360000,-1.430510
5.361000,-1.239585
5.362000,-1.153033
5.363000,-1.391052
5.364000,-1.958734
5.365000,-2.660064
5.366000,-2.904447
5.367000,-2.688066
5.368000,-2.228574
5.369000,-1.986737
5.370000,-1.587068
5.371000,-1.359231
5.372000,-1.483969
5.373000,-1.671075
5.374000,-1.566703
5.375000,-1.038478
5.376000,-0.679540
5.377000,-0.456795
5.378000,-0.939197
5.379000,-1.995646
5.380000,-1.940915
5.381000,-1.861999
5.382000,-1.883637
5.383000,-1.499243
5.384000,-1.263769
5.385000,-1.294317
5.386000,-0.987565
5.387000,-0.852645
5.388000,-0.806823
5.389000,-0.946834
5.390000,-1.043570
5.391000,-0.907377
5.392000,-0.736818
5.393000,-0.475887
5.394000,-0.465705
5.395000,-0.587896
5.396000,-0.725362
5.397000,-0.698633
5.398000,-0.754637
5.399000,-1.025750
5.400000,-1.137759
5.401000,-1.321046
5.402000,-1.524699
5.403000,-1.707987
5.404000,-1.916731
5.405000,-2.143295
5.406000,-2.577330
5.407000,-2.989727
5.408000,-3.351210
5.409000,-3.389395
5.410000,-2.853534
5.411000,-2.522598
5.412000,-2.111474
5.413000,-1.730898
5.414000,-1.519608
5.415000,-1.270133
5.416000,-1.125031
5.417000,-1.145396
5.418000,-1.173398
5.419000,-1.198855
5.420000,-1.550156
5.421000,-2.084744
5.422000,-2.293489
5.423000,-2.143295
5.424000,-2.173843
5.425000,-1.942188
5.426000,-1.635435
5.427000,-1.407599
5.428000,-0.898467
5.429000,-0.776275
5.430000,-0.778821
5.431000,-0.894648
5.432000,-1.125031
5.433000,-1.876000
5.434000,-1.948552
5.435000,-1.581977
5.436000,-1.052479
5.437000,-0.585351
5.438000,-0.542075
5.439000,-0.500071
5.440000,-0.921378
5.441000,-1.057571
5.442000,-1.271406
5.443000,-1.593432
5.444000,-1.770355
5.445000,-2.061834
5.446000,-2.167478
5.447000,-2.590058
5.448000,-2.867535
5.449000,-2.899356
5.450000,-2.558237
5.451000,-1.794539
5.452000,-1.254859
5.453000,-0.921378
5.454000,-0.589169
5.455000,-0.408427
5.456000,-0.077492
5.457000,0.135071
5.458000,-0.043125
5.459000,-0.988838
5.460000,-2.213300
5.461000,-2.676610
5.462000,-2.662609
5.463000,-2.187844
5.464000,-1.795812
5.465000,-1.755082
5.466000,-2.016012
5.467000,-2.191662
5.468000,-2.098746
5.469000,-1.954916
5.470000,-1.463603
5.471000,-1.018113
5.472000,-0.402063
5.473000,0.011607
5.474000,-0.016396
5.475000,-0.160226
5.476000,-0.404609
5.477000,-0.643901
5.478000,-1.084300
5.479000,-1.349049
5.480000,-2.117838
5.481000,-2.331673
5.482000,-2.094927
5.483000,-2.145840
5.484000,-2.129294
5.485000,-2.288397
5.486000,-1.888729
5.487000,-1.571794
5.488000,-1.355413
5.489000,-1.065208
5.490000,-1.281589
5.491000,-1.318501
5.492000,-1.287953
5.493000,-1.812359
5.494000,-2.233666
5.495000,-2.027467
5.496000,-1.485242
5.497000,-1.164488
5.498000,-1.074117
5.499000,-1.368141
5.500000,-1.929459
5.501000,-2.279487
5.502000,-2.908265
5.503000,-2.905720
5.504000,-2.578603
5.505000,-1.935823
5.506000,-1.397416
5.507000,-1.108484
5.508000,-0.921378
5.509000,-0.856464
5.510000,-0.879374
5.511000,-0.622263
5.512000,-0.533165
5.513000,-0.604443
5.514000,-0.851372
5.515000,-1.018113
5.516000,-1.058844
5.517000,-0.946834
5.518000,-0.992656
5.519000,-1.308318
5.520000,-1.646891
5.521000,-2.466593
5.522000,-3.450491
5.523000,-3.274841
5.524000,-2.863716
5.525000,-2.345675
5.526000,-1.932005
5.527000,-1.627799
5.528000,-1.845452
5.529000,-1.803449
5.530000,-1.743626
5.531000,-1.282862
5.532000,-0.684631
5.533000,-0.500071
5.534000,-0.987565
5.535000,-1.089391
5.536000,-0.950653
5.537000,-0.708815
5.538000,-0.585351
5.539000,-0.572622
5.540000,-0.744455
5.541000,-1.275225
5.542000,-1.687622
5.543000,-2.018557
5.544000,-2.093654
5.545000,-2.042741
5.546000,-1.770355
5.547000,-1.503061
5.548000,-1.105938
5.549000,-0.683359
5.550000,-0.459341
5.551000,-0.878102
5.552000,-1.468695
5.553000,-1.548883
5.554000,-1.664711
5.555000,-2.052924
5.556000,-2.231120
5.557000,-2.157296
5.558000,-2.236211
5.559000,-1.803449
5.560000,-1.280316
5.561000,-1.015567
5.562000,-1.328683
5.563000,-1.564157
5.564000,-2.046560
5.565000,-2.383860
5.566000,-2.409316
5.567000,-2.254031
5.568000,-2.167478
5.569000,-1.855635
5.570000,-1.705441
5.571000,-1.467422
5.572000,-1.039751
5.573000,-0.320602
5.574000,0.089249
5.575000,-0.125859
5.576000,-0.446612
5.577000,-0.587896
5.578000,-0.735545
5.579000,-0.738090
5.580000,-1.066480
5.581000,-1.463603
5.582000,-2.671519
5.583000,-3.880708
5.584000,-4.701683
5.585000,-4.097089
5.586000,-3.113191
5.587000,-1.849271
5.588000,-0.609535
5.589000,-0.007486
5.590000,-0.032943
5.591000,-0.371515
5.592000,-0.314238
5.593000,-0.167863
5.594000,-0.094038
5.595000,-0.175499
5.596000,-0.759728
5.597000,-1.328683
5.598000,-1.391052
5.599000,-1.481423
5.600000,-1.845452
5.601000,-2.208209
5.602000,-2.548055
5.603000,-2.754253
5.604000,-2.649881
5.605000,-2.358403
5.606000,-2.094927
5.607000,-1.686349
5.608000,-1.116121
5.609000,-0.908650
5.610000,-0.819551
5.611000,-1.487787
5.612000,-1.823814
5.613000,-1.826360
5.614000,-1.383415
5.615000,-0.954471
5.616000,-0.916287
5.617000,-0.957017
5.618000,-1.262496
5.619000,-1.860726
5.620000,-2.180207
5.621000,-2.467866
5.622000,-2.950269
5.623000,-3.003728
5.624000,-3.643961
5.625000,-4.706774
5.626000,-4.634223
5.627000,-4.193824
5.628000,-3.026639
5.629000,-1.980372
5.630000,-0.674449
5.631000,0.611109
5.632000,1.334077
5.633000,1.609008
5.634000,1.942490
5.635000,1.971765
5.636000,1.351896
5.637000,0.315813
5.638000,-0.165317
5.639000,-0.771184
5.640000,-1.046115
5.641000,-1.359231
5.642000,-1.534882
5.643000,-1.636708
5.644000,-1.646891
5.645000,-1.578158
5.646000,-1.494151
5.647000,-1.649437
5.648000,-1.876000
5.649000,-2.116565
5.650000,-2.021103
5.651000,-2.271850
5.652000,-2.549327
5.653000,-2.615515
5.654000,-2.283306
5.655000,-1.865818
5.656000,-1.534882
5.657000,-1.336320
5.658000,-1.113575
5.659000,-1.122485
5.660000,-1.342685
5.661000,-1.137759
5.662000,-0.861555
5.663000,-1.093210
5.664000,-1.158124
5.665000,-1.611252
5.666000,-1.850544
5.667000,-1.814905
5.668000,-1.763991
5.669000,-1.702895
5.670000,-1.685076
5.671000,-1.767810
5.672000,-1.825087
5.673000,-1.775447
5.674000,-1.757627
5.675000,-2.008375
5.676000,-2.717341
5.677000,-2.942632
5.678000,-3.089007
5.679000,-3.594321
5.680000,-4.360564
5.681000,-5.205724
5.682000,-6.265991
5.683000,-6.395820
5.684000,-4.688955
5.685000,-2.604059
5.686000,-0.632445
5.687000,0.863130
5.688000,1.862301
5.689000,2.321793
5.690000,2.482170
5.691000,2.405800
5.692000,3.110948
5.693000,2.893294
5.694000,1.740110
5.695000,0.796943
5.696000,0.093068
5.697000,-0.418610
5.698000,-0.726635
5.699000,-0.815733
5.700000,-0.988838
5.701000,-1.272679
5.702000,-1.478877
5.703000,-1.545065
5.704000,-1.746172
5.705000,-1.965098
5.706000,-2.138203
5.707000,-2.064379
5.708000,-2.251485
5.709000,-2.527689
5.710000,-2.325309
5.711000,-2.073289
5.712000,-1.944733
5.713000,-2.024921
5.714000,-1.928186
5.715000,-1.767810
5.716000,-1.779265
5.717000,-1.986737
5.718000,-2.364767
5.719000,-3.043185
5.720000,-3.005001
5.721000,-2.600241
5.722000,-2.441137
5.723000,-2.236211
5.724000,-1.772901
5.725000,-1.422873
5.726000,-1.146669
5.727000,-0.964654
5.728000,-0.867919
5.729000,-0.748273
5.730000,-0.901013
5.731000,-1.837815
5.732000,-2.070743
5.733000,-1.550156
5.734000,-0.939197
5.735000,-0.475887
5.736000,-0.534438
5.737000,-1.118667
5.738000,-2.103837
5.739000,-2.957906
5.740000,-3.909983
5.741000,-4.588401
5.742000,-4.569309
5.743000,-3.934166
5.744000,-3.604503
5.745000,-2.998636
5.746000,-1.761446
5.747000,-0.325693
5.748000,0.558923
5.749000,0.998050
5.750000,1.272981
5.751000,1.276800
5.752000,0.973866
5.753000,0.908952
5.754000,0.310722
5.755000,-0.480979
5.756000,-1.245950
5.757000,-2.089836
5.758000,-2.822986
5.759000,-2.974453
5.760000,-2.853534
5.761000,-2.494596
5.762000,-1.989282
5.763000,-1.587068
5.764000,-1.413963
5.765000,-1.497970
5.766000,-1.678712
5.767000,-1.420327
5.768000,-0.839917
5.769000,-0.594261
5.770000,-0.641355
5.771000,-0.762274
5.772000,-0.974837
5.773000,-0.907377
5.774000,-0.873010
5.775000,-0.804278
5.776000,-1.412690
5.777000,-1.928186
5.778000,-2.128021
5.779000,-1.965098
5.780000,-1.662165
5.781000,-1.327411
5.782000,-1.251041
5.783000,-1.419054
5.784000,-1.589614
5.785000,-1.621434
5.786000,-1.294317
5.787000,-1.374505
5.788000,-1.617616
5.789000,-1.677439
5.790000,-1.762718
5.791000,-1.686349
5.792000,-1.609979
5.793000,-1.594705
5.794000,-1.609979
5.795000,-1.701623
5.796000,-1.606160
5.797000,-1.435601
5.798000,-1.175944
5.799000,-1.155579
5.800000,-1.144123
5.801000,-1.618889
5.802000,-1.786902
5.803000,-2.103837
5.804000,-2.357130
5.805000,-2.626970
5.806000,-2.695703
5.807000,-2.271850
5.808000,-1.935823
5.809000,-1.932005
5.810000,-2.045287
5.811000,-2.474230
5.812000,-2.649881
5.813000,-3.358847
5.814000,-3.894709
5.815000,-3.715240
5.816000,-3.002455
5.817000,-1.692713
5.818000,-0.590442
5.819000,-0.120768
5.820000,0.380727
5.821000,1.004414
5.822000,1.370989
5.823000,1.099876
5.824000,0.623838
5.825000,0.062520
5.826000,-0.108040
5.827000,-0.105494
5.828000,-0.468250
5.829000,-1.121212
5.830000,-1.506880
5.831000,-1.718169
5.832000,-1.891274
5.833000,-1.804722
5.834000,-1.832724
5.835000,-1.853089
5.836000,-1.962553
5.837000,-1.868363
5.838000,-1.888729
5.839000,-2.014739
5.840000,-2.848442
5.841000,-3.456855
5.842000,-3.596867
5.843000,-3.580320
5.844000,-3.362666
5.845000,-2.740252
5.846000,-2.208209
5.847000,-1.677439
5.848000,-0.912468
5.849000,-0.172954
5.850000,0.296720
5.851000,0.337451
5.852000,0.693843
5.853000,0.387091
5.854000,0.108342
5.855000,0.079067
5.856000,-0.207320
5.857000,-0.451704
5.858000,-0.712634
5.859000,-1.002839
5.860000,-1.280316
5.861000,-1.629071
5.862000,-1.844180
5.863000,-1.817450
5.864000,-2.038923
5.865000,-2.545509
5.866000,-2.675338
5.867000,-2.680429
5.868000,-2.372404
5.869000,-2.087290
5.870000,-1.888729
5.871000,-1.965098
5.872000,-1.946006
5.873000,-1.975281
5.874000,-2.306217
5.875000,-2.614242
5.876000,-3.132284
5.877000,-3.109373
5.878000,-2.914630
5.879000,-2.530235
5.880000,-2.274396
5.881000,-1.669802
5.882000,-1.055025
5.883000,-0.477160
5.884000,-0.809369
5.885000,-1.161943
5.886000,-0.898467
5.887000,-0.260779
5.888000,0.015425
5.889000,0.164346
5.890000,0.062520
5.891000,-0.108040
5.892000,-0.352423
5.893000,-0.827188
5.894000,-1.158124
5.895000,-1.445784
5.896000,-1.481423
5.897000,-1.833997
5.898000,-1.988009
5.899000,-2.049105
5.900000,-2.102564
5.901000,-2.245121
5.902000,-2.423317
5.903000,-2.402952
5.904000,-2.269305
5.905000,-1.974008
5.906000,-1.733443
5.907000,-1.561611
5.908000,-1.533609
5.909000,-2.476776
5.910000,-3.875616
5.911000,-4.034720
5.912000,-3.293933
5.913000,-2.324037
5.914000,-1.164488
5.915000,-0.423701
5.916000,-0.018941
5.917000,0.054883
5.918000,-0.153861
5.919000,-0.311692
5.920000,-0.361333
5.921000,-1.267588
5.922000,-2.220937
5.923000,-2.196754
5.924000,-1.809813
5.925000,-1.352867
5.926000,-0.916287
5.927000,-0.754637
5.928000,-0.813187
5.929000,-0.873010
5.930000,-0.755910
5.931000,-1.076663
5.932000,-0.722816
5.933000,-0.948107
5.934000,-1.365596
5.935000,-1.263769
5.936000,-1.240858
5.937000,-0.978655
5.938000,-0.899740
5.939000,-1.174671
5.940000,-1.575612
5.941000,-1.525972
5.942000,-1.337593
5.943000,-0.962108
5.944000,-0.890830
5.945000,-1.112302
5.946000,-1.006657
5.947000,-0.862828
5.948000,-1.692713
5.949000,-2.671519
5.950000,-3.481039
5.951000,-3.041913
5.952000,-2.198026
5.953000,-1.468695
5.954000,-1.084300
5.955000,-0.981201
5.956000,-1.001566
5.957000,-1.307045
5.958000,-1.478877
5.959000,-1.354140
5.960000,-1.331229
5.961000,-1.314682
5.962000,-1.146669
5.963000,-1.183581
5.964000,-1.276497
5.965000,-1.285407
5.966000,-1.482696
5.967000,-1.723261
5.968000,-1.926914
5.969000,-2.036377
5.970000,-2.279487
5.971000,-2.383860
5.972000,-2.293489
5.973000,-2.156023
5.974000,-2.172570
5.975000,-2.472958
5.976000,-2.685520
5.977000,-2.677883
5.978000,-3.113191
5.979000,-3.515405
5.980000,-3.846341
5.981000,-3.750879
5.982000,-3.103008
5.983000,-2.199299
5.984000,-1.259951
5.985000,-0.572622
5.986000,-0.143679
5.987000,0.325996
5.988000,0.878404
5.989000,1.327713
5.990000,1.337895
5.991000,0.822399
5.992000,-0.254415
5.993000,-1.738535
5.994000,-2.747889
5.995000,-2.731342
5.996000,-2.429681
5.997000,-2.198026
5.998000,-1.830178
5.999000,-1.489060
6.000000,-1.336320
6.001000,-1.108484
6.002000,-0.839917
6.003000,-0.246778
6.004000,0.458370
6.005000,0.031972
6.006000,-0.440248
6.007000,-0.575168
6.008000,-0.608262
6.009000,-1.117394
6.010000,-1.377051
6.011000,-1.891274
6.012000,-2.378768
6.013000,-2.934995
6.014000,-4.247283
6.015000,-5.474291
6.016000,-5.138264
6.017000,-4.071632
6.018000,-2.675338
6.019000,-1.243404
6.020000,-0.256961
6.021000,0.408729
6.022000,0.548741
6.023000,0.622565
6.024000,0.472371
6.025000,0.552559
6.026000,0.506737
6.027000,0.138890
6.028000,-0.288781
6.029000,-0.730453
6.030000,-1.853089
6.031000,-2.214573
6.032000,-2.032558
6.033000,-1.645618
6.034000,-1.461058
6.035000,-1.562884
6.036000,-1.735989
6.037000,-2.028740
6.038000,-2.128021
6.039000,-2.105110
6.040000,-2.052924
6.041000,-1.929459
6.042000,-2.016012
6.043000,-1.916731
6.044000,-1.780538
6.045000,-1.602342
6.046000,-1.478877
6.047000,-1.837815
6.048000,-2.274396
6.049000,-2.553146
6.050000,-2.647335
6.051000,-2.243848
6.052000,-1.747445
6.053000,-1.147942
6.054000,-0.791549
6.055000,-0.902285
6.056000,-1.266315
6.057000,-1.762718
6.058000,-1.728352
6.059000,-1.812359
6.060000,-2.045287
6.061000,-1.971463
6.062000,-1.816177
6.063000,-1.588341
6.064000,-1.398689
6.065000,-1.310864
6.066000,-1.046115
6.067000,-0.683359
6.068000,-0.689723
6.069000,-0.707542
6.070000,-0.752091
6.071000,-1.163216
6.072000,-2.089836
6.073000,-2.693157
6.074000,-2.870081
6.075000,-2.815349
6.076000,-2.444955
6.077000,-2.077107
6.078000,-1.527245
6.079000,-1.107211
6.080000,-0.619717
6.081000,-0.562440
6.082000,-0.871737
6.083000,-1.466149
6.084000,-1.884910
6.085000,-1.789448
6.086000,-1.797085
6.087000,-1.280316
6.088000,-0.716452
6.089000,-0.278599
6.090000,-0.698633
6.091000,-1.699077
6.092000,-1.781811
6.093000,-1.201400
6.094000,-0.694814
6.095000,-0.332058
6.096000,-0.088947
6.097000,-0.323148
6.098000,-0.564985
6.099000,-1.070299
6.100000,-1.360504
6.101000,-1.298136
6.102000,-1.420327
6.103000,-1.870909
6.104000,-1.985464
6.105000,-1.948552
6.106000,-1.904003
6.107000,-1.854362
6.108000,-2.522598
6.109000,-2.700794
6.110000,-2.764436
6.111000,-2.705886
6.112000,-2.394042
6.113000,-2.125475
6.114000,-2.381314
6.115000,-2.526416
6.116000,-2.012193
6.117000,-1.448329
6.118000,-1.016840
6.119000,-0.764820
6.120000,-0.612080
6.121000,-0.478433
6.122000,-0.454249
6.123000,-0.426247
6.124000,-0.778821
6.125000,-1.435601
6.126000,-1.648164
6.127000,-1.394871
6.128000,-0.935379
6.129000,-0.786458
6.130000,-1.071572
6.131000,-1.314682
6.132000,-1.487787
6.133000,-1.459785
6.134000,-1.270133
6.135000,-1.300681
6.136000,-1.051207
6.137000,-1.055025
6.138000,-1.238313
6.139000,-1.422873
6.140000,-1.612525
6.141000,-1.590886
6.142000,-1.626526
6.143000,-1.729625
6.144000,-1.967644
6.145000,-2.339310
6.146000,-2.592604
6.147000,-2.689339
6.148000,-2.542963
6.149000,-2.424590
6.150000,-2.296034
6.151000,-2.307490
6.152000,-2.340583
6.153000,-2.321491
6.154000,-2.245121
6.155000,-1.765264
6.156000,-1.436874
6.157000,-1.375778
6.158000,-2.049105
6.159000,-2.271850
6.160000,-2.268032
6.161000,-2.199299
6.162000,-1.957461
6.163000,-1.326138
6.164000,-1.453421
6.165000,-2.461502
6.166000,-2.329128
6.167000,-1.592159
6.168000,-1.342685
6.169000,-1.027023
6.170000,0.023062
6.171000,0.413821
6.172000,0.522011
6.173000,0.367999
6.174000,0.253444
6.175000,-0.077492
6.176000,-0.459341
6.177000,-0.860282
6.178000,-1.154306
6.179000,-1.112302
6.180000,-1.088119
6.181000,-1.326138
6.182000,-1.681257
6.183000,-2.102564
6.184000,-2.102564
6.185000,-1.836543
6.186000,-1.812359
6.187000,-1.709260
6.188000,-1.625253
6.189000,-1.425419
6.190000,-1.263769
6.191000,-1.179762
6.192000,-1.144123
6.193000,-1.139032
6.194000,-1.084300
6.195000,-0.809369
6.196000,-0.859009
6.197000,-1.934551
6.198000,-2.335492
6.199000,-2.367313
6.200000,-2.171297
6.201000,-1.954916
6.202000,-1.687622
6.203000,-1.566703
6.204000,-1.338866
6.205000,-1.510698
6.206000,-2.024921
6.207000,-2.079653
6.208000,-1.536155
6.209000,-0.655356
6.210000,-0.685904
6.211000,-0.993929
6.212000,-1.440693
6.213000,-1.561611
6.214000,-1.553974
6.215000,-1.565430
6.216000,-1.542519
6.217000,-1.606160
6.218000,-1.910367
6.219000,-1.956189
6.220000,-2.013466
6.221000,-2.147113
6.222000,-2.394042
6.223000,-2.760617
6.224000,-2.388951
6.225000,-1.723261
6.226000,-1.281589
6.227000,-0.936652
6.228000,-0.763547
6.229000,-1.391052
6.230000,-2.185298
6.231000,-2.429681
6.232000,-2.283306
6.233000,-2.024921
6.234000,-1.674893
6.235000,-1.393598
6.236000,-1.397416
6.237000,-1.422873
6.238000,-1.289226
6.239000,-1.469968
6.240000,-1.195036
6.241000,-0.884466
6.242000,-1.584522
6.243000,-1.692713
6.244000,-1.562884
6.245000,-1.962553
6.246000,-2.749162
6.247000,-2.265486
6.248000,-1.729625
6.249000,-1.080482
6.250000,-0.337149
6.251000,0.006515
6.252000,0.170710
6.253000,-0.020214
6.254000,-0.267143
6.255000,-0.368970
6.256000,-0.629900
6.257000,-1.658346
6.258000,-2.474230
6.259000,-2.660064
6.260000,-2.474230
6.261000,-2.013466
6.262000,-1.763991
6.263000,-1.618889
6.264000,-1.513244
6.265000,-1.276497
6.266000,-1.079209
6.267000,-1.028296
6.268000,-0.953199
6.269000,-0.442794
6.270000,-0.170408
6.271000,-0.617172
6.272000,-1.215402
6.273000,-1.648164
6.274000,-1.826360
6.275000,-1.805995
6.276000,-2.111474
6.277000,-2.312581
6.278000,-2.367313
6.279000,-3.108100
6.280000,-3.159013
6.281000,-2.442410
6.282000,-1.844180
6.283000,-1.595978
6.284000,-1.310864
6.285000,-1.301954
6.286000,-1.304500
6.287000,-1.146669
6.288000,-1.167034
6.289000,-1.083027
6.290000,-0.841190
6.291000,-0.631173
6.292000,-0.727908
6.293000,-0.983747
6.294000,-1.094483
6.295000,-1.333775
6.296000,-2.447501
6.297000,-3.253202
6.298000,-2.788619
6.299000,-1.934551
6.300000,-1.466149
6.301000,-1.046115
6.302000,-0.755910
6.303000,-0.512799
6.304000,-0.522982
6.305000,-0.741909
6.306000,-1.015567
6.307000,-1.021931
6.308000,-1.402508
6.309000,-1.466149
6.310000,-1.270133
6.311000,-1.398689
6.312000,-1.240858
6.313000,-1.685076
6.314000,-2.004556
6.315000,-2.069471
6.316000,-2.056742
