LabVIEW Measurement,
Writer_Version,2
Reader_Version,2
Separator,Comma
Decimal_Separator,.
Multi_Headings,No
X_Columns,Multi
Time_Pref,Absolute
Operator,Dymnz
Date,2017/09/16
Time,11:36:01.4496063833531381216
***End_of_Header***,
,
Channels,1,
Samples,1000,
Date,2017/09/16,
Time,11:36:01.4496063833531381216,
Y_Unit_Label,Volts,
X_Dimension,Time,
X0,0.0000000000000000E+0,
Delta_X,0.001000,
***End_of_Header***,,
X_Value,Voltage,Comment
0.000000,-0.693541
0.001000,-0.979928
0.002000,-0.859009
0.003000,-0.962108
0.004000,-1.305773
0.005000,-1.464876
0.006000,-1.434328
0.007000,-0.405882
0.008000,-0.281144
0.009000,-0.702451
0.010000,-0.978655
0.011000,-1.160670
0.012000,-1.588341
0.013000,-1.916731
0.014000,-2.149659
0.015000,-2.220937
0.016000,-2.138203
0.017000,-1.993101
0.018000,-1.861999
0.019000,-0.832280
0.020000,0.453279
0.021000,0.737120
0.022000,0.384546
0.023000,-0.288781
0.024000,-1.304500
0.025000,-2.318945
0.026000,-3.019002
0.027000,-3.230291
0.028000,-2.947723
0.029000,-2.653699
0.030000,-1.636708
0.031000,-0.617172
0.032000,-0.534438
0.033000,-0.797913
0.034000,-1.089391
0.035000,-1.555247
0.036000,-1.116121
0.037000,-0.678267
0.038000,-0.869192
0.039000,-1.072845
0.040000,-1.453421
0.041000,-1.495424
0.042000,-1.576885
0.043000,-1.510698
0.044000,-1.849271
0.045000,-2.121657
0.046000,-2.311308
0.047000,-2.436046
0.048000,-2.518780
0.049000,-2.596422
0.050000,-2.667701
0.051000,-2.540418
0.052000,-2.380041
0.053000,-1.506880
0.054000,2.283608
0.055000,3.046033
0.056000,2.340885
0.057000,1.237342
0.058000,-0.590442
0.059000,-2.654972
0.060000,-4.225645
0.061000,-5.049166
0.062000,-5.273184
0.063000,-5.023709
0.064000,-4.218008
0.065000,-3.379213
0.066000,-2.565874
0.067000,-2.261668
0.068000,-1.648164
0.069000,-0.455522
0.070000,0.290356
0.071000,1.848300
0.072000,2.113049
0.073000,1.447359
0.074000,0.364180
0.075000,-0.901013
0.076000,-2.054197
0.077000,-2.906993
0.078000,-3.201016
0.079000,-3.217563
0.080000,-3.120828
0.081000,-2.950269
0.082000,-2.615515
0.083000,-2.432227
0.084000,-1.781811
0.085000,-1.280316
0.086000,-0.898467
0.087000,-0.486070
0.088000,-0.572622
0.089000,-0.847554
0.090000,-1.140305
0.091000,-1.505607
0.092000,-1.421600
0.093000,-1.025750
0.094000,-1.146669
0.095000,-0.888284
0.096000,-1.086846
0.097000,-1.508152
0.098000,-1.854362
0.099000,-1.933278
0.100000,-1.916731
0.101000,-0.915014
0.102000,-0.360060
0.103000,-0.398245
0.104000,-0.638810
0.105000,-1.338866
0.106000,-2.120384
0.107000,-2.601513
0.108000,-2.971907
0.109000,-2.954087
0.110000,-2.545509
0.111000,-1.626526
0.112000,-1.296863
0.113000,-1.438147
0.114000,-1.585795
0.115000,-1.253586
0.116000,-1.284134
0.117000,-0.402063
0.118000,-0.263325
0.119000,0.398547
0.120000,1.210612
0.121000,0.860584
0.122000,-0.332058
0.123000,-1.528518
0.124000,-2.667701
0.125000,-3.617232
0.126000,-4.013082
0.127000,-3.668145
0.128000,-3.325754
0.129000,-2.205663
0.130000,-0.577714
0.131000,0.803307
0.132000,0.636566
0.133000,-0.330785
0.134000,-1.196309
0.135000,-1.962553
0.136000,-2.587512
0.137000,-3.253202
0.138000,-3.641416
0.139000,-3.638870
0.140000,-3.367757
0.141000,-2.924812
0.142000,-2.511143
0.143000,-1.830178
0.144000,-1.027023
0.145000,-0.487343
0.146000,-0.054581
0.147000,-0.008759
0.148000,0.595835
0.149000,0.704026
0.150000,0.215259
0.151000,-0.671903
0.152000,-1.098301
0.153000,-0.916287
0.154000,-1.466149
0.155000,-2.176388
0.156000,-2.647335
0.157000,-3.026639
0.158000,-3.059732
0.159000,-2.476776
0.160000,-1.914185
0.161000,-1.841634
0.162000,-1.701623
0.163000,-1.145396
0.164000,-1.335048
0.165000,-1.410145
0.166000,-1.772901
0.167000,-2.004556
0.168000,-2.185298
0.169000,-2.275669
0.170000,-2.055469
0.171000,-1.552702
0.172000,-0.622263
0.173000,0.047246
0.174000,-0.043125
0.175000,-0.480979
0.176000,-0.727908
0.177000,-0.734272
0.178000,-1.123758
0.179000,-1.060116
0.180000,-1.290499
0.181000,-1.660892
0.182000,-2.058015
0.183000,-2.522598
0.184000,-2.819167
0.185000,-3.215018
0.186000,-3.263385
0.187000,-3.123374
0.188000,-2.236211
0.189000,-1.602342
0.190000,-0.999020
0.191000,-0.754637
0.192000,-0.871737
0.193000,-0.808096
0.194000,-1.169580
0.195000,-1.270133
0.196000,-1.141577
0.197000,-1.182308
0.198000,-1.310864
0.199000,-1.290499
0.200000,-1.055025
0.201000,-1.200128
0.202000,-1.463603
0.203000,-1.676166
0.204000,-1.749990
0.205000,-1.744899
0.206000,-1.618889
0.207000,-1.613797
0.208000,-1.476332
0.209000,-1.089391
0.210000,-1.002839
0.211000,-1.018113
0.212000,-0.226413
0.213000,0.912770
0.214000,2.214875
0.215000,4.220855
0.216000,5.101654
0.217000,3.827551
0.218000,1.512273
0.219000,-1.244677
0.220000,-4.120000
0.221000,-6.272355
0.222000,-7.425539
0.223000,-7.638102
0.224000,-7.142971
0.225000,-6.185803
0.226000,-5.261728
0.227000,-4.450935
0.228000,-3.729241
0.229000,-3.110645
0.230000,-2.296034
0.231000,-0.668085
0.232000,0.379454
0.233000,0.676024
0.234000,0.426549
0.235000,-0.166590
0.236000,-0.777548
0.237000,-1.399962
0.238000,-1.905275
0.239000,-2.228574
0.240000,-2.294761
0.241000,-2.121657
0.242000,-1.882365
0.243000,-1.556520
0.244000,-0.907377
0.245000,-0.675722
0.246000,-0.575168
0.247000,-0.558621
0.248000,-0.781367
0.249000,-1.177217
0.250000,-1.581977
0.251000,-1.811086
0.252000,-1.906548
0.253000,-1.934551
0.254000,-1.748717
0.255000,-1.510698
0.256000,-1.333775
0.257000,-1.243404
0.258000,-1.203946
0.259000,-1.016840
0.260000,-0.747000
0.261000,-0.715179
0.262000,0.225442
0.263000,1.919579
0.264000,2.030315
0.265000,1.596280
0.266000,0.752394
0.267000,-0.634991
0.268000,-1.403780
0.269000,-1.907821
0.270000,-2.475503
0.271000,-3.054641
0.272000,-3.026639
0.273000,-2.730069
0.274000,-2.091109
0.275000,-1.958734
0.276000,-2.009648
0.277000,-2.142022
0.278000,-1.384688
0.279000,-1.275225
0.280000,-1.842907
0.281000,-2.340583
0.282000,-2.770800
0.283000,-3.358847
0.284000,-3.660508
0.285000,-3.615959
0.286000,-3.530679
0.287000,-3.393214
0.288000,-2.904447
0.289000,-2.466593
0.290000,-2.152204
0.291000,-1.794539
0.292000,-1.533609
0.293000,-1.299408
0.294000,-1.007930
0.295000,-0.945562
0.296000,-0.969745
0.297000,-1.061389
0.298000,-1.104665
0.299000,-1.009203
0.300000,-0.971018
0.301000,-0.944289
0.302000,-0.524255
0.303000,-0.409700
0.304000,-0.360060
0.305000,-0.297691
0.306000,-0.298964
0.307000,-0.650265
0.308000,-0.918832
0.309000,-0.795368
0.310000,-0.847554
0.311000,-1.014294
0.312000,-1.193763
0.313000,-1.495424
0.314000,-0.409700
0.315000,0.907679
0.316000,1.167336
0.317000,0.934408
0.318000,1.048963
0.319000,0.285265
0.320000,-1.356686
0.321000,-2.736433
0.322000,-3.856524
0.323000,-4.762779
0.324000,-4.989343
0.325000,-4.486575
0.326000,-3.771244
0.327000,-2.866262
0.328000,-1.711805
0.329000,-1.062662
0.330000,-1.067753
0.331000,-1.291771
0.332000,-1.164488
0.333000,-1.317228
0.334000,-1.921822
0.335000,-2.486959
0.336000,-2.478049
0.337000,-2.541690
0.338000,-2.382587
0.339000,-2.269305
0.340000,-2.339310
0.341000,-2.391497
0.342000,-2.234938
0.343000,-1.753809
0.344000,-1.000293
0.345000,-0.220049
0.346000,0.133798
0.347000,0.160528
0.348000,0.098159
0.349000,-0.483524
0.350000,-1.117394
0.351000,-1.676166
0.352000,-2.195481
0.353000,-2.462775
0.354000,-2.466593
0.355000,-2.363494
0.356000,-2.214573
0.357000,-1.749990
0.358000,-0.641355
0.359000,0.656931
0.360000,0.931863
0.361000,0.513102
0.362000,-0.186955
0.363000,-1.071572
0.364000,-1.957461
0.365000,-2.660064
0.366000,-3.071188
0.367000,-3.151376
0.368000,-3.054641
0.369000,-2.741525
0.370000,-2.121657
0.371000,-1.007930
0.372000,0.513102
0.373000,1.735018
0.374000,1.710835
0.375000,0.906406
0.376000,-0.248051
0.377000,-1.786902
0.378000,-3.236656
0.379000,-4.090725
0.380000,-4.360564
0.381000,-4.271466
0.382000,-3.880708
0.383000,-3.244293
0.384000,-2.723705
0.385000,-2.308763
0.386000,-1.972735
0.387000,-1.542519
0.388000,-1.290499
0.389000,-1.061389
0.390000,-0.650265
0.391000,-0.309147
0.392000,-0.356241
0.393000,-0.348604
0.394000,0.404911
0.395000,0.268718
0.396000,-0.012577
0.397000,-0.451704
0.398000,-0.934106
0.399000,-1.571794
0.400000,-2.246394
0.401000,-2.660064
0.402000,-2.896810
0.403000,-2.847170
0.404000,-2.537872
0.405000,-1.664711
0.406000,-0.553530
0.407000,-0.174227
0.408000,0.450733
0.409000,0.487645
0.410000,-0.192046
0.411000,-1.133940
0.412000,-1.431783
0.413000,-0.475887
0.414000,-0.725362
0.415000,-1.459785
0.416000,-1.748717
0.417000,-2.411862
0.418000,-3.058459
0.419000,-3.341028
0.420000,-3.211199
0.421000,-2.075835
0.422000,-1.662165
0.423000,-1.361777
0.424000,-1.513244
0.425000,-1.893820
0.426000,-2.237484
0.427000,-0.809369
0.428000,-0.180591
0.429000,-0.390608
0.430000,-0.813187
0.431000,-1.326138
0.432000,-2.135658
0.433000,-2.858625
0.434000,-3.017729
0.435000,-3.064824
0.436000,-2.910811
0.437000,-2.616787
0.438000,-2.447501
0.439000,-2.130566
0.440000,-1.921822
0.441000,-1.954916
0.442000,-2.110201
0.443000,-1.998192
0.444000,-1.724534
0.445000,-1.468695
0.446000,-1.074117
0.447000,-0.618444
0.448000,-0.230231
0.449000,0.385819
0.450000,0.152891
0.451000,-0.235323
0.452000,-0.580259
0.453000,-0.934106
0.454000,-1.592159
0.455000,-2.026194
0.456000,-2.418226
0.457000,-2.629516
0.458000,-2.572238
0.459000,-2.405498
0.460000,-2.150932
0.461000,-1.967644
0.462000,-1.709260
0.463000,-1.430510
0.464000,-1.281589
0.465000,-1.112302
0.466000,-0.911195
0.467000,-0.753364
0.468000,-0.129678
0.469000,0.285265
0.470000,0.010334
0.471000,-0.141133
0.472000,0.201258
0.473000,-0.256961
0.474000,-0.670630
0.475000,-1.126303
0.476000,-1.854362
0.477000,-2.181480
0.478000,-1.030841
0.479000,-0.548439
0.480000,-0.659175
0.481000,-1.455966
0.482000,-2.246394
0.483000,-2.761890
0.484000,-3.108100
0.485000,-3.470856
0.486000,-3.638870
0.487000,-3.347392
0.488000,-3.001182
0.489000,-2.563329
0.490000,-2.369858
0.491000,-2.122929
0.492000,-1.081754
0.493000,1.000595
0.494000,2.153779
0.495000,1.923397
0.496000,1.278072
0.497000,0.073975
0.498000,-1.429237
0.499000,-2.867535
0.500000,-3.866706
0.501000,-4.156912
0.502000,-3.951986
0.503000,-3.576501
0.504000,-3.234110
0.505000,-2.970634
0.506000,-2.726251
0.507000,-2.245121
0.508000,-0.944289
0.509000,-0.333330
0.510000,0.416366
0.511000,0.530921
0.512000,0.590744
0.513000,0.716754
0.514000,-0.130950
0.515000,-0.996475
0.516000,-1.713078
0.517000,-2.413135
0.518000,-3.068642
0.519000,-3.347392
0.520000,-3.227746
0.521000,-3.194652
0.522000,-2.517507
0.523000,-1.732171
0.524000,-1.454694
0.525000,-1.305773
0.526000,0.393456
0.527000,1.456269
0.528000,1.140607
0.529000,0.145254
0.530000,-0.817006
0.531000,-1.980372
0.532000,-2.961724
0.533000,-3.596867
0.534000,-3.889617
0.535000,-3.852705
0.536000,-3.487403
0.537000,-2.951542
0.538000,-2.475503
0.539000,-2.058015
0.540000,-1.904003
0.541000,-1.287953
0.542000,-0.399518
0.543000,0.086703
0.544000,0.445642
0.545000,0.313267
0.546000,-0.119495
0.547000,-0.150043
0.548000,-0.521709
0.549000,-1.202673
0.550000,-1.865818
0.551000,-1.616343
0.552000,-1.025750
0.553000,-1.151760
0.554000,-1.597251
0.555000,-2.064379
0.556000,-2.306217
0.557000,-2.478049
0.558000,-2.558237
0.559000,-2.563329
0.560000,-2.079653
0.561000,-1.314682
0.562000,-1.023204
0.563000,-0.945562
0.564000,-1.055025
0.565000,-1.396143
0.566000,-1.743626
0.567000,-2.100018
0.568000,-2.125475
0.569000,-1.000293
0.570000,-0.489889
0.571000,-0.365151
0.572000,-0.436430
0.573000,-0.580259
0.574000,-0.934106
0.575000,-1.513244
0.576000,-2.044014
0.577000,-2.114020
0.578000,-1.323592
0.579000,-0.328239
0.580000,0.389637
0.581000,0.220351
0.582000,-0.115676
0.583000,-0.171681
0.584000,-1.044842
0.585000,-2.149659
0.586000,-2.989727
0.587000,-3.395759
0.588000,-3.558682
0.589000,-3.619777
0.590000,-3.673236
0.591000,-3.529407
0.592000,-2.414407
0.593000,-1.480150
0.594000,-1.030841
0.595000,-0.724089
0.596000,-0.895921
0.597000,-1.300681
0.598000,-1.672348
0.599000,-1.985464
0.600000,-2.105110
0.601000,-2.186571
0.602000,-2.079653
0.603000,-1.934551
0.604000,-1.332502
0.605000,-1.276497
0.606000,-0.977382
0.607000,-0.690996
0.608000,-0.888284
0.609000,-1.169580
0.610000,-1.051207
0.611000,-1.121212
0.612000,-1.514517
0.613000,-1.836543
0.614000,-2.097473
0.615000,-2.228574
0.616000,-2.242575
0.617000,-1.962553
0.618000,-1.541246
0.619000,-1.081754
0.620000,-0.922651
0.621000,-0.250596
0.622000,0.117251
0.623000,-0.059672
0.624000,-0.424974
0.625000,-0.837371
0.626000,-1.495424
0.627000,-2.055469
0.628000,-2.358403
0.629000,-2.474230
0.630000,-2.460229
0.631000,-2.166206
0.632000,-2.007102
0.633000,-1.924368
0.634000,-1.965098
0.635000,-1.928186
0.636000,-1.699077
0.637000,-1.370687
0.638000,-1.202673
0.639000,-1.389779
0.640000,-1.481423
0.641000,0.342542
0.642000,1.976856
0.643000,2.023951
0.644000,1.530093
0.645000,0.476189
0.646000,-0.987565
0.647000,-2.498414
0.648000,-3.286296
0.649000,-3.818339
0.650000,-3.949440
0.651000,-3.516678
0.652000,-2.955360
0.653000,-2.539145
0.654000,-1.914185
0.655000,-1.028296
0.656000,-0.922651
0.657000,-1.373233
0.658000,-1.788175
0.659000,-1.450875
0.660000,-1.338866
0.661000,-1.177217
0.662000,-0.930288
0.663000,-1.061389
0.664000,-1.193763
0.665000,-1.188672
0.666000,-1.643072
0.667000,-1.993101
0.668000,-2.390224
0.669000,-2.623152
0.670000,-2.422044
0.671000,-2.395315
0.672000,-2.387678
0.673000,-1.044842
0.674000,1.206794
0.675000,1.612827
0.676000,1.568278
0.677000,0.886041
0.678000,-0.328239
0.679000,-1.886183
0.680000,-3.501404
0.681000,-4.414023
0.682000,-4.853150
0.683000,-4.545125
0.684000,-4.035993
0.685000,-3.286296
0.686000,-2.646063
0.687000,-2.196754
0.688000,-1.326138
0.689000,-0.548439
0.690000,-0.347332
0.691000,-0.501344
0.692000,-0.777548
0.693000,-1.023204
0.694000,-1.425419
0.695000,-1.466149
0.696000,-1.172125
0.697000,-1.137759
0.698000,-1.197582
0.699000,-1.369414
0.700000,-1.471240
0.701000,-1.338866
0.702000,-1.590886
0.703000,-1.685076
0.704000,-1.847998
0.705000,-1.937096
0.706000,-1.742353
0.707000,-1.659619
0.708000,-1.650709
0.709000,-1.556520
0.710000,-0.822097
0.711000,-0.498798
0.712000,-0.386789
0.713000,-0.479706
0.714000,-0.627354
0.715000,-0.452976
0.716000,-0.871737
0.717000,-1.251041
0.718000,-1.547610
0.719000,-1.547610
0.720000,-1.489060
0.721000,-1.481423
0.722000,-1.262496
0.723000,-1.440693
0.724000,-1.898911
0.725000,-2.430954
0.726000,-2.481867
0.727000,-2.527689
0.728000,-2.390224
0.729000,-1.864545
0.730000,-1.067753
0.731000,-0.225140
0.732000,-0.142406
0.733000,-0.175499
0.734000,-0.550984
0.735000,-0.715179
0.736000,-1.210310
0.737000,-1.658346
0.738000,-2.311308
0.739000,-2.054197
0.740000,-1.336320
0.741000,-0.987565
0.742000,-0.926469
0.743000,-1.133940
0.744000,-1.713078
0.745000,-2.066925
0.746000,-2.567147
0.747000,-2.695703
0.748000,-2.629516
0.749000,-2.616787
0.750000,-2.639698
0.751000,-2.716068
0.752000,-2.582421
0.753000,-1.617616
0.754000,-0.511527
0.755000,-0.353696
0.756000,-0.511527
0.757000,-0.799186
0.758000,-0.269689
0.759000,-0.096584
0.760000,-0.620990
0.761000,-0.979928
0.762000,-1.321046
0.763000,-1.699077
0.764000,-2.066925
0.765000,-2.203118
0.766000,-2.191662
0.767000,-2.177661
0.768000,-1.657074
0.769000,-1.571794
0.770000,-1.651982
0.771000,-1.924368
0.772000,-2.112747
0.773000,-2.343129
0.774000,-2.637153
0.775000,-2.665155
0.776000,-2.251485
0.777000,-1.828906
0.778000,-1.739808
0.779000,-1.692713
0.780000,-1.458512
0.781000,-1.145396
0.782000,-1.112302
0.783000,-1.178490
0.784000,-1.108484
0.785000,-0.433884
0.786000,-0.564985
0.787000,-0.993929
0.788000,-1.546337
0.789000,-1.999465
0.790000,-2.233666
0.791000,-2.167478
0.792000,-1.443238
0.793000,-1.016840
0.794000,-0.999020
0.795000,-1.016840
0.796000,-1.070299
0.797000,-1.154306
0.798000,-0.710088
0.799000,0.379454
0.800000,1.213158
0.801000,1.861028
0.802000,1.381172
0.803000,0.283992
0.804000,-1.109757
0.805000,-2.590058
0.806000,-3.889617
0.807000,-4.667317
0.808000,-4.935884
0.809000,-3.497586
0.810000,-1.954916
0.811000,-1.399962
0.812000,-1.034660
0.813000,-1.048661
0.814000,-1.352867
0.815000,-0.969745
0.816000,-0.898467
0.817000,-1.182308
0.818000,-1.660892
0.819000,-1.721988
0.820000,-1.989282
0.821000,-2.359676
0.822000,-2.602786
0.823000,-2.784801
0.824000,-2.792438
0.825000,-2.535326
0.826000,-1.825087
0.827000,-1.598523
0.828000,-1.468695
0.829000,-1.494151
0.830000,-1.741080
0.831000,-1.920549
0.832000,-2.106383
0.833000,-1.817450
0.834000,-1.385961
0.835000,-0.748273
0.836000,-0.776275
0.837000,-0.698633
0.838000,-0.871737
0.839000,-1.118667
0.840000,-0.960836
0.841000,-0.717725
0.842000,0.042154
0.843000,-0.060945
0.844000,-0.530619
0.845000,-1.160670
0.846000,-1.198855
0.847000,-0.838644
0.848000,-1.169580
0.849000,-0.618444
0.850000,-0.305328
0.851000,-0.072400
0.852000,-0.755910
0.853000,-1.668529
0.854000,-2.512415
0.855000,-3.339755
0.856000,-3.972351
0.857000,-4.251101
0.858000,-4.056358
0.859000,-3.899800
0.860000,-3.647780
0.861000,-3.147558
0.862000,-2.654972
0.863000,-2.200572
0.864000,-1.811086
0.865000,-1.555247
0.866000,-0.939197
0.867000,0.012879
0.868000,0.739665
0.869000,1.353169
0.870000,1.819025
0.871000,1.789750
0.872000,1.670104
0.873000,0.471098
0.874000,-1.004112
0.875000,-2.624424
0.876000,-3.731786
0.877000,-4.318561
0.878000,-4.248555
0.879000,-3.949440
0.880000,-3.528134
0.881000,-3.047004
0.882000,-2.428409
0.883000,-2.013466
0.884000,-1.643072
0.885000,-1.443238
0.886000,-1.212856
0.887000,-0.699905
0.888000,0.261081
0.889000,0.389637
0.890000,0.761303
0.891000,0.935681
0.892000,0.474917
0.893000,-0.591715
0.894000,-1.533609
0.895000,-2.163660
0.896000,-2.630789
0.897000,-2.891719
0.898000,-2.658791
0.899000,-1.539973
0.900000,-0.702451
0.901000,-0.298964
0.902000,-0.227686
0.903000,-0.016396
0.904000,-0.189501
0.905000,-0.591715
0.906000,-1.127576
0.907000,-1.760173
0.908000,-2.525144
0.909000,-3.297751
0.910000,-3.649053
0.911000,-3.094099
0.912000,-2.569693
0.913000,-2.364767
0.914000,-2.108928
0.915000,-1.976554
0.916000,-2.213300
0.917000,-1.431783
0.918000,-1.121212
0.919000,-1.192491
0.920000,-1.459785
0.921000,-1.710532
0.922000,-1.836543
0.923000,-2.065652
0.924000,-1.887456
0.925000,-1.999465
0.926000,-2.038923
0.927000,-1.980372
0.928000,-1.716897
0.929000,-1.575612
0.930000,-1.585795
0.931000,-1.579431
0.932000,-1.475059
0.933000,-1.193763
0.934000,-1.102120
0.935000,-1.052479
0.936000,-1.097028
0.937000,-1.123758
0.938000,-1.301954
0.939000,-0.745727
0.940000,-0.109312
0.941000,0.501646
0.942000,0.255990
0.943000,0.247080
0.944000,-0.262052
0.945000,-1.125031
0.946000,-2.010920
0.947000,-2.797529
0.948000,-3.329572
0.949000,-3.469584
0.950000,-3.218836
0.951000,-2.504778
0.952000,-2.326582
0.953000,-2.147113
0.954000,-1.366868
0.955000,-0.685904
0.956000,-0.413519
0.957000,-0.500071
0.958000,-0.822097
0.959000,-1.259951
0.960000,-1.667256
0.961000,-1.557793
0.962000,-1.280316
0.963000,-1.429237
0.964000,-1.532336
0.965000,-1.431783
0.966000,-1.508152
0.967000,-1.315955
0.968000,-1.086846
0.969000,-0.823370
0.970000,-0.909922
0.971000,-0.153861
0.972000,0.341269
0.973000,0.053610
0.974000,-0.716452
0.975000,-1.677439
0.976000,-2.471685
0.977000,-2.472958
0.978000,-2.579875
0.979000,-2.763163
0.980000,-2.844624
0.981000,-2.620606
0.982000,-2.556964
0.983000,-2.721159
0.984000,-2.926085
0.985000,-2.924812
0.986000,-2.839533
0.987000,-2.628243
0.988000,-2.186571
0.989000,-1.385961
0.990000,-0.002395
0.991000,0.520739
0.992000,0.216532
0.993000,-0.340967
0.994000,-0.811914
0.995000,-1.323592
0.996000,-1.971463
0.997000,-2.264214
0.998000,-1.598523
0.999000,-1.430510
1.000000,-1.247222
1.001000,-1.084300
1.002000,-1.200128
1.003000,-1.468695
1.004000,-1.762718
1.005000,-1.952370
1.006000,-2.074562
1.007000,-2.073289
1.008000,-1.720715
1.009000,-1.305773
1.010000,-0.923924
1.011000,-0.114404
1.012000,0.229260
1.013000,-0.161498
1.014000,-0.759728
1.015000,-1.244677
1.016000,-1.817450
1.017000,-2.350766
1.018000,-2.786074
1.019000,-2.900628
1.020000,-2.914630
1.021000,-2.667701
1.022000,-2.302398
1.023000,-2.166206
1.024000,-1.693986
1.025000,-0.725362
1.026000,-0.542075
1.027000,-0.333330
1.028000,-0.214957
1.029000,-0.251869
1.030000,0.212714
1.031000,1.638283
1.032000,1.844482
1.033000,1.164790
1.034000,0.536012
1.035000,-0.725362
1.036000,-2.359676
1.037000,-3.702511
1.038000,-4.419115
1.039000,-3.803065
1.040000,-3.409760
1.041000,-3.049550
1.042000,-1.826360
1.043000,-1.448329
1.044000,-1.583249
1.045000,-2.119111
1.046000,-2.521325
1.047000,-2.572238
1.048000,-2.628243
1.049000,-2.615515
1.050000,-2.537872
1.051000,-2.413135
1.052000,-2.472958
1.053000,-2.598968
1.054000,-2.450047
1.055000,-2.229847
1.056000,-1.721988
1.057000,-0.880647
1.058000,-0.545893
1.059000,-0.613353
1.060000,-0.848827
1.061000,-1.126303
1.062000,-1.329956
1.063000,-1.151760
1.064000,-0.436430
1.065000,0.180893
1.066000,0.679842
1.067000,0.539831
1.068000,0.128707
1.069000,0.037063
1.070000,-0.643901
1.071000,-0.396972
1.072000,-0.041852
1.073000,0.343815
1.074000,-0.171681
1.075000,-1.010476
1.076000,-2.089836
1.077000,-3.283750
1.078000,-4.333835
1.079000,-5.037710
1.080000,-5.097533
1.081000,-4.780598
1.082000,-3.627414
1.083000,-2.619333
1.084000,-2.297307
1.085000,-1.669802
1.086000,-1.285407
1.087000,-0.979928
1.088000,-0.790276
1.089000,-0.586624
1.090000,-0.298964
1.091000,-0.536983
1.092000,-0.865373
1.093000,-1.113575
1.094000,-1.089391
1.095000,-1.108484
1.096000,-1.234494
1.097000,-1.420327
1.098000,-1.532336
1.099000,-1.752536
1.100000,-2.044014
1.101000,-2.266759
1.102000,-2.292216
1.103000,-2.153477
1.104000,-1.515789
1.105000,-1.309591
1.106000,-1.195036
1.107000,-1.290499
1.108000,-1.464876
1.109000,-1.519608
1.110000,-1.539973
1.111000,-1.651982
1.112000,-1.645618
1.113000,-1.496697
1.114000,-1.343957
1.115000,-1.314682
1.116000,-1.281589
1.117000,-1.310864
1.118000,-0.498798
1.119000,1.367170
1.120000,1.990857
1.121000,1.458814
1.122000,0.687479
1.123000,-0.506435
1.124000,-1.673620
1.125000,-2.517507
1.126000,-2.420772
1.127000,-1.840361
1.128000,-1.924368
1.129000,-2.102564
1.130000,-2.302398
1.131000,-2.032558
1.132000,-1.860726
1.133000,-1.961280
1.134000,-1.206492
1.135000,-1.168307
1.136000,-1.387234
1.137000,-2.068198
1.138000,-2.849715
1.139000,-3.707603
1.140000,-3.842523
1.141000,-3.114464
1.142000,-2.470412
1.143000,-1.636708
1.144000,-1.102120
1.145000,-0.988838
1.146000,-0.836098
1.147000,-1.472513
1.148000,-1.844180
1.149000,-1.977827
1.150000,-2.223483
1.151000,-2.297307
1.152000,-2.387678
1.153000,-2.313854
1.154000,-2.209482
1.155000,-1.091937
1.156000,0.262354
1.157000,0.907679
1.158000,1.479179
1.159000,0.947137
1.160000,-0.104221
1.161000,-1.183581
1.162000,-2.140749
1.163000,-2.881536
1.164000,-3.547226
1.165000,-3.740696
1.166000,-3.608322
1.167000,-3.351210
1.168000,-3.015183
1.169000,-2.588785
1.170000,-2.259122
1.171000,-1.991828
1.172000,-1.755082
1.173000,-1.438147
1.174000,-1.141577
1.175000,-0.717725
1.176000,-0.609535
1.177000,-0.666812
1.178000,-0.554803
1.179000,0.063793
1.180000,0.068884
1.181000,-0.134769
1.182000,-0.531892
1.183000,-0.931561
1.184000,-0.460613
1.185000,-0.167863
1.186000,-0.590442
1.187000,-1.093210
1.188000,-1.571794
1.189000,-1.408872
1.190000,-0.867919
1.191000,-1.237040
1.192000,-1.723261
1.193000,-1.868363
1.194000,-2.041468
1.195000,-2.252758
1.196000,-2.488232
1.197000,-1.956189
1.198000,-1.396143
1.199000,-0.562440
1.200000,-0.231504
1.201000,-0.319329
1.202000,-0.064763
1.203000,-0.604443
1.204000,-1.262496
1.205000,-1.928186
1.206000,-2.591331
1.207000,-3.123374
1.208000,-3.469584
1.209000,-3.621050
1.210000,-3.698693
1.211000,-3.568864
1.212000,-3.234110
1.213000,-2.268032
1.214000,-1.226857
1.215000,0.234352
1.216000,0.854220
1.217000,1.202975
1.218000,0.861857
1.219000,0.654386
1.220000,0.362908
1.221000,-0.606989
1.222000,-1.615070
1.223000,-2.563329
1.224000,-2.978271
1.225000,-2.768254
1.226000,-2.508597
1.227000,-2.535326
1.228000,-2.749162
1.229000,-3.183197
1.230000,-3.263385
1.231000,-3.141193
1.232000,-2.900628
1.233000,-2.619333
1.234000,-2.283306
1.235000,-1.972735
1.236000,-1.697804
1.237000,-1.454694
1.238000,-1.323592
1.239000,-1.193763
1.240000,-1.286680
1.241000,-1.240858
1.242000,-1.125031
1.243000,-1.013022
1.244000,-0.861555
1.245000,-0.633718
1.246000,-0.536983
1.247000,-0.323148
1.248000,-0.174227
1.249000,-0.475887
1.250000,-0.717725
1.251000,-0.329512
1.252000,1.200430
1.253000,1.192793
1.254000,0.670932
1.255000,-0.085129
1.256000,-1.186127
1.257000,-2.367313
1.258000,-3.398305
1.259000,-4.032174
1.260000,-4.220553
1.261000,-3.857797
1.262000,-3.209926
1.263000,-2.759344
1.264000,-2.513688
1.265000,-2.442410
1.266000,-2.027467
1.267000,-1.438147
1.268000,-0.850099
1.269000,-0.024033
1.270000,0.174529
1.271000,-0.102948
1.272000,-0.638810
1.273000,-1.295590
1.274000,-1.683803
1.275000,-1.606160
1.276000,-1.766537
1.277000,-1.929459
1.278000,-2.013466
1.279000,-2.120384
1.280000,-2.196754
1.281000,-2.178934
1.282000,-2.288397
1.283000,-1.974008
1.284000,-0.912468
1.285000,-0.469523
1.286000,0.112160
1.287000,0.115979
1.288000,-0.414792
1.289000,-1.005385
1.290000,-1.497970
1.291000,-1.925641
1.292000,-2.251485
1.293000,-2.364767
1.294000,-2.345675
1.295000,-2.223483
1.296000,-1.868363
1.297000,-1.529791
1.298000,-0.256961
1.299000,1.200430
1.300000,1.998494
1.301000,1.414265
1.302000,0.253444
1.303000,-1.083027
1.304000,-1.580704
1.305000,-1.608706
1.306000,-1.541246
1.307000,-1.478877
1.308000,-1.909094
1.309000,-2.653699
1.310000,-2.780982
1.311000,-2.612969
1.312000,-3.067369
1.313000,-3.419943
1.314000,-2.990999
1.315000,-2.726251
1.316000,-2.732615
1.317000,-3.017729
1.318000,-3.281205
1.319000,-3.539589
1.320000,-3.663054
1.321000,-3.286296
1.322000,-2.092381
1.323000,-1.611252
1.324000,-1.444511
1.325000,-1.226857
1.326000,-1.025750
1.327000,-1.058844
1.328000,-1.109757
1.329000,-1.139032
1.330000,-1.254859
1.331000,-1.265042
1.332000,-1.375778
1.333000,-1.374505
1.334000,-1.282862
1.335000,-1.324865
1.336000,-1.299408
1.337000,-1.276497
1.338000,-1.139032
1.339000,-0.757183
1.340000,-0.454249
1.341000,-0.402063
1.342000,-0.203502
1.343000,0.275082
1.344000,0.317086
1.345000,0.858038
1.346000,0.580562
1.347000,-0.255688
1.348000,-1.187399
1.349000,-2.019830
1.350000,-2.649881
1.351000,-2.992272
1.352000,-2.769527
1.353000,-1.972735
1.354000,-1.388506
1.355000,-0.792822
1.356000,-0.516618
1.357000,-0.898467
1.358000,-1.458512
1.359000,-1.794539
1.360000,-2.041468
1.361000,-2.372404
1.362000,-2.122929
1.363000,-2.204390
1.364000,-2.198026
1.365000,-2.208209
1.366000,-2.346947
1.367000,-1.384688
1.368000,-1.052479
1.369000,-1.174671
1.370000,-1.256132
1.371000,-1.084300
1.372000,-1.252314
1.373000,-0.717725
1.374000,-0.577714
1.375000,-1.196309
1.376000,-1.676166
1.377000,-2.248940
1.378000,-2.523871
1.379000,-2.602786
1.380000,-1.984191
1.381000,-1.721988
1.382000,-1.672348
1.383000,-1.884910
1.384000,-2.070743
1.385000,-1.719442
1.386000,-1.343957
1.387000,-1.303227
1.388000,-1.261223
1.389000,-1.480150
1.390000,-1.723261
1.391000,-1.793266
1.392000,-2.037650
1.393000,-2.247667
1.394000,-2.194208
1.395000,-1.239585
1.396000,0.518193
1.397000,0.928044
1.398000,0.719300
1.399000,0.227988
1.400000,-0.508981
1.401000,-1.623980
1.402000,-2.867535
1.403000,-3.277386
1.404000,-3.081370
1.405000,-2.284579
1.406000,-1.256132
1.407000,-1.099574
1.408000,-1.163216
1.409000,-1.467422
1.410000,-1.823814
1.411000,-2.054197
1.412000,-2.354584
1.413000,-2.460229
1.414000,-2.302398
1.415000,-1.944733
1.416000,-1.555247
1.417000,-1.481423
1.418000,-1.592159
1.419000,-1.905275
1.420000,-1.870909
1.421000,-1.655801
1.422000,-1.419054
1.423000,-1.178490
1.424000,-1.132668
1.425000,-1.239585
1.426000,-0.554803
1.427000,-0.139860
1.428000,-0.286236
1.429000,-0.665539
1.430000,-1.172125
1.431000,-1.594705
1.432000,-2.086017
1.433000,-2.429681
1.434000,-2.522598
1.435000,-2.420772
1.436000,-1.104665
1.437000,-0.460613
1.438000,-0.389335
1.439000,-0.617172
1.440000,-0.785185
1.441000,-1.125031
1.442000,-1.327411
1.443000,-1.749990
1.444000,-2.078380
1.445000,-2.254031
1.446000,-2.419499
1.447000,-2.450047
1.448000,-2.451320
1.449000,-2.484413
1.450000,-1.953643
1.451000,-1.455966
1.452000,-1.183581
1.453000,-0.806823
1.454000,-0.284963
1.455000,-0.278599
1.456000,-0.699905
1.457000,-1.275225
1.458000,-1.182308
1.459000,-0.837371
1.460000,-1.047388
1.461000,-0.790276
1.462000,-0.540802
1.463000,-0.959563
1.464000,-1.728352
1.465000,-2.214573
1.466000,-1.581977
1.467000,-1.940915
1.468000,-1.310864
1.469000,-0.066036
1.470000,0.107069
1.471000,0.122343
1.472000,0.379454
1.473000,-0.385516
1.474000,-1.592159
1.475000,-2.805166
1.476000,-3.831067
1.477000,-4.613858
1.478000,-4.963886
1.479000,-5.091169
1.480000,-4.862060
1.481000,-4.407659
1.482000,-3.769971
1.483000,-3.031730
1.484000,-2.331673
1.485000,-1.800903
1.486000,-1.389779
1.487000,-1.139032
1.488000,-0.916287
1.489000,-0.358787
1.490000,-0.144952
1.491000,-0.082583
1.492000,0.233079
1.493000,0.430368
1.494000,0.165619
1.495000,0.196167
1.496000,0.142708
1.497000,-0.068582
1.498000,-0.377879
1.499000,-0.911195
1.500000,-0.866646
1.501000,-1.126303
1.502000,-1.677439
1.503000,-2.251485
1.504000,-2.592604
1.505000,-2.168751
1.506000,-1.379597
1.507000,-1.135213
1.508000,-1.145396
1.509000,-1.335048
1.510000,-0.441521
1.511000,-0.124586
1.512000,-0.615899
1.513000,-1.321046
1.514000,-1.601069
1.515000,-2.069471
1.516000,-2.677883
1.517000,-3.076279
1.518000,-3.188288
1.519000,-2.962997
1.520000,-2.704613
1.521000,-1.755082
1.522000,-1.251041
1.523000,0.188530
1.524000,1.533911
1.525000,2.258151
1.526000,1.686651
1.527000,0.339997
1.528000,-1.247222
1.529000,-2.993545
1.530000,-4.148002
1.531000,-4.620222
1.532000,-4.494212
1.533000,-4.248555
1.534000,-3.450491
1.535000,-2.784801
1.536000,-2.559510
1.537000,-2.191662
1.538000,-0.424974
1.539000,1.350624
1.540000,1.429539
1.541000,0.718027
1.542000,-0.142406
1.543000,-1.094483
1.544000,-2.049105
1.545000,-2.512415
1.546000,-2.819167
1.547000,-2.905720
1.548000,-2.584967
1.549000,-2.349493
1.550000,-2.302398
1.551000,-2.462775
1.552000,-2.362221
1.553000,-1.473786
1.554000,-0.539529
1.555000,0.369272
1.556000,0.636566
1.557000,0.062520
1.558000,-0.991384
1.559000,-1.958734
1.560000,-2.693157
1.561000,-3.066096
1.562000,-3.292660
1.563000,-3.133556
1.564000,-2.807712
1.565000,-2.415680
1.566000,-2.059288
1.567000,-1.893820
1.568000,-1.766537
1.569000,-1.296863
1.570000,-0.791549
1.571000,-0.421156
1.572000,-0.426247
1.573000,-0.617172
1.574000,-0.949380
1.575000,-1.179762
1.576000,-1.313410
1.577000,-1.336320
1.578000,-1.475059
1.579000,-1.174671
1.580000,-1.198855
1.581000,-1.315955
1.582000,-0.433884
1.583000,0.235625
1.584000,0.290356
1.585000,0.435459
1.586000,-0.016396
1.587000,-0.753364
1.588000,-1.674893
1.589000,-2.541690
1.590000,-2.835714
1.591000,-2.438591
1.592000,-2.329128
1.593000,-2.269305
1.594000,-2.040195
1.595000,-1.599796
1.596000,-1.377051
1.597000,-1.097028
1.598000,-0.596806
1.599000,-0.246778
1.600000,-0.474615
1.601000,-1.093210
1.602000,-1.570521
1.603000,-2.324037
1.604000,-3.020275
1.605000,-3.352483
1.606000,-3.349937
1.607000,-1.388506
1.608000,0.295448
1.609000,0.929317
1.610000,0.488918
1.611000,-0.416064
1.612000,-1.611252
1.613000,-2.399133
1.614000,-2.922267
1.615000,-2.980817
1.616000,-3.240474
1.617000,-3.343573
1.618000,-3.106827
1.619000,-2.848442
1.620000,-2.912084
1.621000,-2.878990
1.622000,-2.806439
1.623000,-2.588785
1.624000,-2.159841
1.625000,-1.634163
1.626000,-1.043570
1.627000,-0.357514
1.628000,-0.312965
1.629000,-0.547166
1.630000,-0.582805
1.631000,-0.814460
1.632000,-0.372788
1.633000,-0.203502
1.634000,-0.281144
1.635000,-0.487343
1.636000,-0.768638
1.637000,-0.893376
1.638000,-1.429237
1.639000,-1.882365
1.640000,-2.195481
1.641000,-2.387678
1.642000,-1.528518
1.643000,-1.239585
1.644000,-1.247222
1.645000,-1.240858
1.646000,-0.911195
1.647000,-1.163216
1.648000,-1.593432
1.649000,-1.882365
1.650000,-2.167478
1.651000,-2.297307
1.652000,-2.240030
1.653000,-2.061834
1.654000,-1.767810
1.655000,-1.565430
1.656000,-1.590886
1.657000,-1.699077
1.658000,-1.609979
1.659000,-1.592159
1.660000,-1.649437
1.661000,-1.696531
1.662000,-0.538256
1.663000,0.586926
1.664000,0.663295
1.665000,0.267445
1.666000,-0.349877
1.667000,-1.289226
1.668000,-2.386405
1.669000,-2.899356
1.670000,-3.174287
1.671000,-2.766981
1.672000,-2.070743
1.673000,-1.621434
1.674000,-1.434328
1.675000,-1.181035
1.676000,-1.229403
1.677000,-1.186127
1.678000,-1.439420
1.679000,-1.665983
1.680000,-1.448329
1.681000,-0.127132
1.682000,0.385819
1.683000,0.152891
1.684000,-0.278599
1.685000,-0.748273
1.686000,-0.008759
1.687000,0.210168
1.688000,0.000151
1.689000,-0.591715
1.690000,-1.654528
1.691000,-2.275669
1.692000,-2.607878
1.693000,-3.218836
1.694000,-3.703784
1.695000,-4.075451
1.696000,-4.459845
1.697000,-4.429297
1.698000,-4.063995
1.699000,-3.619777
1.700000,-3.095371
1.701000,-2.639698
1.702000,-2.232393
1.703000,-1.879819
1.704000,-1.702895
1.705000,-1.509425
1.706000,-1.183581
1.707000,0.043427
1.708000,0.599654
1.709000,0.460915
1.710000,0.124888
1.711000,0.151618
1.712000,-0.542075
1.713000,-0.472069
1.714000,-0.659175
1.715000,-1.142850
1.716000,-1.606160
1.717000,-2.077107
1.718000,-2.422044
1.719000,-2.444955
1.720000,-2.483140
1.721000,-2.377495
1.722000,-2.222210
1.723000,-1.783084
1.724000,-1.687622
1.725000,-1.315955
1.726000,-1.164488
1.727000,-0.669358
1.728000,-0.295146
1.729000,-0.253142
1.730000,-0.534438
1.731000,-1.035933
1.732000,-1.492879
1.733000,-1.863272
1.734000,-2.271850
1.735000,-2.479322
1.736000,-2.497141
1.737000,-2.271850
1.738000,-1.140305
1.739000,-0.161498
1.740000,-0.016396
1.741000,-0.351150
1.742000,-0.795368
1.743000,-0.175499
1.744000,2.334521
1.745000,4.057933
1.746000,3.728270
1.747000,2.469441
1.748000,0.252171
1.749000,-2.457684
1.750000,-4.902790
1.751000,-6.356362
1.752000,-6.759849
1.753000,-6.598200
1.754000,-5.895597
1.755000,-4.919337
1.756000,-4.182368
1.757000,-3.839977
1.758000,-3.249384
1.759000,-2.386405
1.760000,-1.539973
1.761000,-0.983747
1.762000,-0.819551
1.763000,-0.567531
1.764000,-0.377879
1.765000,-0.244232
1.766000,0.031972
1.767000,0.140162
1.768000,0.010334
1.769000,-0.367697
1.770000,-0.833553
1.771000,-1.309591
1.772000,-1.856908
1.773000,-2.405498
1.774000,-2.570966
1.775000,-2.378768
1.776000,-2.164933
1.777000,-1.995646
1.778000,-2.063106
1.779000,-1.531063
1.780000,-0.859009
1.781000,-0.758456
1.782000,-0.897194
1.783000,-0.885739
1.784000,-1.030841
1.785000,-1.419054
1.786000,-1.898911
1.787000,-1.359231
1.788000,-0.170408
1.789000,0.359089
1.790000,1.041326
1.791000,1.115150
1.792000,0.527103
1.793000,-0.664266
1.794000,-1.921822
1.795000,-2.884082
1.796000,-3.645234
1.797000,-4.014355
1.798000,-4.020719
1.799000,-3.747060
1.800000,-3.267204
1.801000,-2.886627
1.802000,-2.475503
1.803000,-2.176388
1.804000,-1.948552
1.805000,-1.252314
1.806000,-0.604443
1.807000,-0.492434
1.808000,-0.576441
1.809000,-0.804278
1.810000,-1.063935
1.811000,-1.332502
1.812000,-1.524699
1.813000,-1.518335
1.814000,-1.370687
1.815000,-1.193763
1.816000,-1.141577
1.817000,-1.019386
1.818000,-0.314238
1.819000,0.199985
1.820000,0.096886
1.821000,-0.371515
1.822000,-0.855191
1.823000,-0.270962
1.824000,0.067611
1.825000,-0.273507
1.826000,-0.511527
1.827000,-0.806823
1.828000,-0.783912
1.829000,-1.196309
1.830000,-1.742353
1.831000,-2.406770
1.832000,-3.095371
1.833000,-3.447945
1.834000,-3.668145
1.835000,-3.497586
1.836000,-3.425034
1.837000,-3.019002
1.838000,-2.630789
1.839000,-1.620162
1.840000,0.408729
1.841000,1.266617
1.842000,0.999323
1.843000,0.192348
1.844000,-1.132668
1.845000,-2.382587
1.846000,-3.222654
1.847000,-3.879435
1.848000,-3.977443
1.849000,-3.632506
1.850000,-3.375394
1.851000,-2.657518
1.852000,-1.707987
1.853000,-0.945562
1.854000,-0.944289
1.855000,-0.787731
1.856000,-0.757183
1.857000,-1.061389
1.858000,-1.542519
1.859000,-1.972735
1.860000,-2.279487
1.861000,-2.357130
1.862000,-2.208209
1.863000,-2.012193
1.864000,-1.734716
1.865000,-1.617616
1.866000,-1.511971
1.867000,-1.318501
1.868000,-0.822097
1.869000,0.532194
1.870000,1.481725
1.871000,1.318803
1.872000,0.794397
1.873000,0.011607
1.874000,-1.151760
1.875000,-2.308763
1.876000,-2.741525
1.877000,-2.494596
1.878000,-2.343129
1.879000,-2.292216
1.880000,-2.229847
1.881000,-2.282033
1.882000,-2.360949
1.883000,-2.299853
1.884000,-1.919277
1.885000,-1.809813
1.886000,-1.827633
1.887000,-1.693986
1.888000,-1.571794
1.889000,-0.792822
1.890000,-0.612080
1.891000,-0.538256
1.892000,-0.598079
1.893000,-0.655356
1.894000,-0.748273
1.895000,-0.687177
1.896000,-0.925196
1.897000,-1.469968
1.898000,-1.690167
1.899000,-1.515789
1.900000,-1.622707
1.901000,-1.898911
1.902000,-2.153477
1.903000,-2.214573
1.904000,-1.965098
1.905000,-1.420327
1.906000,-1.075390
1.907000,-0.106767
1.908000,0.001424
1.909000,-0.641355
1.910000,-1.188672
1.911000,-1.094483
1.912000,-0.766093
1.913000,-0.740636
1.914000,-0.683359
1.915000,-0.558621
1.916000,-0.727908
1.917000,-1.079209
1.918000,-1.613797
1.919000,-2.149659
1.920000,-2.980817
1.921000,-3.357574
1.922000,-3.101736
1.923000,-2.884082
1.924000,-2.915902
1.925000,-3.013910
1.926000,-2.588785
1.927000,-2.226029
1.928000,-1.369414
1.929000,-1.270133
1.930000,-1.559066
1.931000,-2.016012
1.932000,-2.098746
1.933000,-2.451320
1.934000,-2.677883
1.935000,-2.940086
1.936000,-2.901901
1.937000,-2.596422
1.938000,-2.178934
1.939000,-1.752536
1.940000,-1.569248
1.941000,-1.296863
1.942000,-1.256132
1.943000,-1.317228
1.944000,-1.151760
1.945000,-0.740636
1.946000,-0.118222
1.947000,0.504192
1.948000,0.551286
1.949000,0.196167
1.950000,0.047246
1.951000,-0.430065
1.952000,-0.936652
1.953000,-1.482696
1.954000,-1.926914
1.955000,-2.170024
1.956000,-2.217119
1.957000,-2.077107
1.958000,-1.980372
1.959000,-1.853089
1.960000,-1.760173
1.961000,-1.826360
1.962000,-1.888729
1.963000,-1.702895
1.964000,-1.471240
1.965000,-1.439420
1.966000,-1.289226
1.967000,-1.347776
1.968000,-1.410145
1.969000,-1.450875
1.970000,-1.471240
1.971000,-1.472513
1.972000,-1.422873
1.973000,-1.454694
1.974000,-1.483969
1.975000,-1.469968
1.976000,-1.545065
1.977000,-1.276497
1.978000,-0.738090
1.979000,-0.701178
1.980000,-0.950653
1.981000,-1.233221
1.982000,-0.953199
1.983000,0.793124
1.984000,2.031588
1.985000,4.231038
1.986000,3.963744
1.987000,2.866564
1.988000,1.141880
1.989000,-0.605716
1.990000,-3.076279
1.991000,-5.054257
1.992000,-6.016516
1.993000,-6.220169
1.994000,-6.344906
1.995000,-6.134889
1.996000,-5.763223
1.997000,-4.783144
1.998000,-4.077996
1.999000,-3.151376
2.000000,-2.256577
2.001000,-1.800903
2.002000,-1.294317
2.003000,-1.291771
2.004000,-1.433056
2.005000,-0.944289
2.006000,-0.912468
2.007000,-1.000293
2.008000,-0.867919
2.009000,-0.827188
2.010000,-1.097028
2.011000,-1.211583
2.012000,-1.164488
2.013000,-1.221766
2.014000,-1.161943
2.015000,-1.172125
2.016000,-0.893376
2.017000,-0.864101
2.018000,-0.899740
2.019000,-0.811914
2.020000,-0.967200
2.021000,-0.913741
2.022000,-0.748273
2.023000,-0.965927
2.024000,-1.267588
2.025000,-1.579431
2.026000,-1.690167
2.027000,-1.769083
2.028000,-1.995646
2.029000,-2.220937
2.030000,-2.372404
2.031000,-2.218392
2.032000,-1.977827
2.033000,-1.603615
2.034000,-1.186127
2.035000,-0.651538
2.036000,-0.197138
2.037000,-0.328239
2.038000,-0.572622
2.039000,-0.862828
2.040000,-1.285407
2.041000,-1.363050
2.042000,-0.301510
2.043000,0.485099
2.044000,1.115150
2.045000,0.878404
2.046000,-0.026578
2.047000,-1.354140
2.048000,-2.726251
2.049000,-3.845068
2.050000,-4.433116
2.051000,-4.503121
2.052000,-4.240918
2.053000,-3.661781
2.054000,-2.826804
2.055000,-2.330401
2.056000,-1.842907
2.057000,-1.244677
2.058000,-0.962108
2.059000,-0.960836
2.060000,-0.417337
2.061000,-0.349877
2.062000,-0.493707
2.063000,-0.959563
2.064000,-1.545065
2.065000,-1.907821
2.066000,-1.886183
2.067000,-1.895093
2.068000,-2.087290
2.069000,-1.984191
2.070000,-1.729625
2.071000,-1.551429
2.072000,-0.777548
2.073000,0.515647
2.074000,0.996777
2.075000,1.227159
2.076000,0.488918
2.077000,-0.614626
2.078000,-1.571794
2.079000,-2.182752
2.080000,-1.281589
2.081000,-1.205219
2.082000,-1.196309
2.083000,-0.335876
2.084000,-0.752091
2.085000,-1.380869
2.086000,-2.214573
2.087000,-3.164104
2.088000,-3.734332
2.089000,-3.792882
2.090000,-3.969806
2.091000,-4.170913
2.092000,-4.225645
2.093000,-3.999081
2.094000,-3.371576
2.095000,-2.718614
2.096000,-2.279487
2.097000,-1.571794
2.098000,-0.272235
2.099000,0.042154
2.100000,-0.064763
2.101000,-0.333330
2.102000,-0.685904
2.103000,-1.326138
2.104000,-1.861999
2.105000,-2.145840
2.106000,-2.219664
2.107000,-2.105110
2.108000,-1.221766
2.109000,-0.608262
2.110000,-0.697360
2.111000,-0.516618
2.112000,-0.414792
2.113000,-0.654084
2.114000,-1.019386
2.115000,-1.401235
2.116000,-1.733443
2.117000,-1.958734
2.118000,-2.105110
2.119000,-2.128021
2.120000,-2.023649
2.121000,-1.844180
2.122000,-1.412690
2.123000,-0.895921
2.124000,-0.684631
2.125000,-0.100403
2.126000,-0.085129
2.127000,-0.323148
2.128000,-0.676995
2.129000,-0.553530
2.130000,-0.423701
2.131000,-0.907377
2.132000,-1.365596
2.133000,-1.826360
2.134000,-2.444955
2.135000,-2.845897
2.136000,-2.626970
2.137000,-2.472958
2.138000,-2.182752
2.139000,-1.536155
2.140000,-0.328239
2.141000,0.382000
2.142000,0.164346
2.143000,-0.276053
2.144000,-0.925196
2.145000,-0.964654
2.146000,-1.382142
2.147000,-2.017284
2.148000,-2.610423
2.149000,-2.628243
2.150000,-2.339310
2.151000,-1.947279
2.152000,-1.716897
2.153000,-1.704168
2.154000,-1.839088
2.155000,-1.892547
2.156000,-0.524255
2.157000,0.435459
2.158000,0.318359
2.159000,-0.128405
2.160000,-0.585351
2.161000,-1.543792
2.162000,-2.760617
2.163000,-3.729241
2.164000,-4.209098
2.165000,-4.228190
2.166000,-3.711421
2.167000,-3.094099
2.168000,-2.550600
2.169000,-2.227301
2.170000,-2.134385
2.171000,-1.659619
2.172000,-1.235767
2.173000,-0.268416
2.174000,0.670932
2.175000,0.599654
2.176000,0.267445
2.177000,-0.352423
2.178000,-1.307045
2.179000,-2.246394
2.180000,-2.914630
2.181000,-3.081370
2.182000,-2.956633
2.183000,-2.693157
2.184000,-2.260395
2.185000,-1.667256
2.186000,-1.065208
2.187000,-0.529346
2.188000,-0.216230
2.189000,-0.102948
2.190000,-0.017669
2.191000,0.725664
2.192000,2.740554
2.193000,2.853836
2.194000,2.011222
2.195000,0.688752
2.196000,-1.083027
2.197000,-2.983362
2.198000,-4.687682
2.199000,-5.663942
2.200000,-5.779770
2.201000,-5.438651
2.202000,-4.794600
2.203000,-4.005445
2.204000,-3.425034
2.205000,-3.105554
2.206000,-2.495869
2.207000,-1.760173
2.208000,-1.276497
2.209000,-0.918832
2.210000,-0.800459
2.211000,-0.724089
2.212000,-0.693541
2.213000,-0.817006
2.214000,-0.568804
2.215000,-0.063490
2.216000,-0.202229
2.217000,-0.521709
2.218000,-0.820824
2.219000,-1.112302
2.220000,-1.342685
2.221000,-1.469968
2.222000,-1.469968
2.223000,-1.184854
2.224000,-0.974837
2.225000,-0.707542
2.226000,-0.564985
2.227000,-0.762274
2.228000,-0.514072
2.229000,0.086703
2.230000,0.519466
2.231000,0.712936
2.232000,0.161800
2.233000,-0.640082
2.234000,-1.403780
2.235000,-2.428409
2.236000,-3.305388
2.237000,-4.186187
2.238000,-4.555307
2.239000,-4.448390
2.240000,-3.962169
2.241000,-3.523042
2.242000,-3.166650
2.243000,-2.704613
2.244000,-2.112747
2.245000,-1.168307
2.246000,-0.860282
2.247000,-0.382971
2.248000,0.249626
2.249000,0.170710
2.250000,-0.170408
2.251000,-0.501344
2.252000,-1.065208
2.253000,-1.576885
2.254000,-1.994374
2.255000,-2.290943
2.256000,-2.378768
2.257000,-2.336765
2.258000,-1.263769
2.259000,-0.674449
2.260000,-0.573895
2.261000,-0.393153
2.262000,-0.062218
2.263000,-0.176772
2.264000,-0.256961
2.265000,-0.468250
2.266000,-0.762274
2.267000,-0.379152
2.268000,-0.810642
2.269000,-1.312137
2.270000,-1.794539
2.271000,-2.135658
2.272000,-1.948552
2.273000,-0.782639
2.274000,-0.216230
2.275000,-0.838644
2.276000,-1.639254
2.277000,-2.597695
2.278000,-3.627414
2.279000,-4.476392
2.280000,-4.849331
2.281000,-4.587128
2.282000,-4.125091
2.283000,-3.590502
2.284000,-2.884082
2.285000,-2.212027
2.286000,-1.916731
2.287000,-1.649437
2.288000,-1.192491
2.289000,-0.529346
2.290000,-0.198410
2.291000,-0.085129
2.292000,-0.216230
2.293000,-0.640082
2.294000,-1.083027
2.295000,-1.462331
2.296000,-1.751263
2.297000,-1.921822
2.298000,-1.867091
2.299000,-1.609979
2.300000,-1.315955
2.301000,-1.197582
2.302000,-1.149214
2.303000,-0.810642
2.304000,-0.441521
2.305000,-0.454249
2.306000,-0.479706
2.307000,-0.501344
2.308000,-0.166590
2.309000,-0.497525
2.310000,-0.988838
2.311000,-1.285407
2.312000,-1.595978
2.313000,-1.893820
2.314000,-1.781811
2.315000,-0.923924
2.316000,0.030699
2.317000,0.015425
2.318000,0.370545
2.319000,-0.038034
2.320000,-0.768638
2.321000,-1.335048
2.322000,-2.035104
2.323000,-2.745343
2.324000,-2.875172
2.325000,-3.152649
2.326000,-3.495040
2.327000,-3.670691
2.328000,-3.562500
2.329000,-2.742798
2.330000,-0.861555
2.331000,-0.073673
2.332000,0.306903
2.333000,0.280174
2.334000,-0.375334
2.335000,-1.440693
2.336000,-2.523871
2.337000,-3.162831
2.338000,-3.108100
2.339000,-3.082643
2.340000,-2.900628
2.341000,-2.568420
2.342000,-2.605332
2.343000,-2.742798
2.344000,-2.582421
2.345000,-2.278215
2.346000,-1.700350
2.347000,-0.526801
2.348000,-0.171681
2.349000,-0.221321
2.350000,-0.521709
2.351000,-0.628627
2.352000,0.318359
2.353000,1.550458
2.354000,1.929761
2.355000,1.334077
2.356000,0.157982
2.357000,-1.203946
2.358000,-2.509870
2.359000,-3.535771
2.360000,-4.049994
2.361000,-4.058904
2.362000,-3.887072
2.363000,-2.811530
2.364000,-1.097028
2.365000,-0.414792
2.366000,-0.486070
2.367000,-0.865373
2.368000,-1.328683
2.369000,-1.226857
2.370000,-1.662165
2.371000,-2.102564
2.372000,-2.324037
2.373000,-2.591331
2.374000,-2.584967
2.375000,-2.579875
2.376000,-2.588785
2.377000,-2.639698
2.378000,-2.476776
2.379000,-2.242575
2.380000,-2.128021
2.381000,-2.033831
2.382000,-2.030013
2.383000,-1.910367
2.384000,-1.475059
2.385000,-0.704997
2.386000,-0.248051
2.387000,-0.172954
2.388000,-0.198410
2.389000,0.467280
2.390000,0.450733
2.391000,0.360362
2.392000,0.051064
2.393000,-0.506435
2.394000,-1.202673
2.395000,-1.890001
2.396000,-2.327855
2.397000,-2.577330
2.398000,-2.738979
2.399000,-2.876445
2.400000,-2.731342
2.401000,-2.390224
2.402000,-2.049105
2.403000,-1.809813
2.404000,-1.587068
2.405000,-1.117394
2.406000,-0.869192
2.407000,-0.612080
2.408000,-0.599352
2.409000,-0.692268
2.410000,-0.937925
2.411000,-1.029568
2.412000,-1.252314
2.413000,-1.585795
2.414000,-1.807268
2.415000,-1.836543
2.416000,-1.494151
2.417000,-0.221321
2.418000,1.929761
2.419000,2.036679
2.420000,1.339168
2.421000,0.707845
2.422000,-0.011304
2.423000,-1.408872
2.424000,-2.957906
2.425000,-3.677055
2.426000,-3.540862
2.427000,-3.523042
2.428000,-3.251930
2.429000,-2.438591
2.430000,-2.369858
2.431000,-2.131839
2.432000,-2.466593
2.433000,-2.722432
2.434000,-2.708431
2.435000,-2.549327
2.436000,-2.614242
2.437000,-2.354584
2.438000,-2.433500
2.439000,-2.660064
2.440000,-2.405498
2.441000,-1.734716
2.442000,-1.328683
2.443000,-1.000293
2.444000,-0.151316
2.445000,0.776577
2.446000,2.169053
2.447000,2.449076
2.448000,1.918306
2.449000,0.939500
2.450000,-0.650265
2.451000,-2.348220
2.452000,-3.664326
2.453000,-4.555307
2.454000,-4.993161
2.455000,-5.094987
2.456000,-4.821329
2.457000,-4.247283
2.458000,-3.713967
2.459000,-3.082643
2.460000,-2.611696
2.461000,-2.005829
2.462000,-1.173398
2.463000,0.804580
2.464000,2.034133
2.465000,2.106685
2.466000,1.519910
2.467000,0.369272
2.468000,-1.109757
2.469000,-2.441137
2.470000,-3.231564
2.471000,-3.675782
2.472000,-3.684692
2.473000,-3.267204
2.474000,-2.815349
2.475000,-2.348220
2.476000,-2.065652
2.477000,-1.870909
2.478000,-1.427964
2.479000,-0.792822
2.480000,-0.460613
2.481000,-0.307874
2.482000,-0.339695
2.483000,-0.557348
2.484000,-0.929015
2.485000,-1.263769
2.486000,-1.435601
2.487000,-1.477605
2.488000,-1.520881
2.489000,-1.439420
2.490000,-1.270133
2.491000,-0.929015
2.492000,-0.753364
2.493000,-0.067309
2.494000,0.037063
2.495000,0.035790
2.496000,-0.189501
2.497000,-0.744455
2.498000,-1.337593
2.499000,-1.935823
2.500000,-2.290943
2.501000,-2.436046
2.502000,-2.343129
2.503000,-2.031286
2.504000,-1.902730
2.505000,-1.695259
2.506000,-1.674893
2.507000,-1.595978
2.508000,-1.392325
2.509000,-1.487787
2.510000,-1.635435
2.511000,-1.009203
2.512000,0.211441
2.513000,2.059590
2.514000,3.917922
2.515000,3.408790
2.516000,2.396890
2.517000,0.751121
2.518000,-1.494151
2.519000,-3.609595
2.520000,-4.625313
2.521000,-4.629132
2.522000,-4.187460
2.523000,-3.828522
2.524000,-3.694874
2.525000,-3.500131
2.526000,-3.554863
2.527000,-4.004172
2.528000,-3.911256
2.529000,-3.958350
2.530000,-3.959623
2.531000,-3.615959
2.532000,-3.306661
2.533000,-3.019002
2.534000,-2.741525
2.535000,-2.444955
2.536000,-2.128021
2.537000,-1.794539
2.538000,-1.419054
2.539000,-1.102120
2.540000,-0.775002
2.541000,-0.437702
2.542000,-0.343513
2.543000,0.278901
2.544000,0.924226
2.545000,0.962411
2.546000,0.611109
2.547000,-0.118222
2.548000,-0.897194
2.549000,-1.497970
2.550000,-1.788175
2.551000,-1.753809
2.552000,-1.723261
2.553000,-1.637981
2.554000,-1.163216
2.555000,-0.740636
2.556000,-0.442794
2.557000,-0.348604
2.558000,2.289972
2.559000,3.074035
2.560000,2.395617
2.561000,1.032416
2.562000,-0.436430
2.563000,-2.096200
2.564000,-3.916347
2.565000,-5.073349
2.566000,-5.582481
2.567000,-4.464937
2.568000,-3.160286
2.569000,-2.343129
2.570000,-1.864545
2.571000,-1.972735
2.572000,-2.544236
2.573000,-3.036821
2.574000,-3.265931
2.575000,-3.153922
2.576000,-2.881536
2.577000,-2.548055
2.578000,-2.325309
2.579000,-2.038923
2.580000,-1.511971
2.581000,-1.169580
2.582000,0.205077
2.583000,1.178792
2.584000,1.186429
2.585000,0.623838
2.586000,-0.062218
2.587000,-1.018113
2.588000,-2.105110
2.589000,-2.875172
2.590000,-2.982090
2.591000,-2.926085
2.592000,-2.646063
2.593000,-2.359676
2.594000,-1.878546
2.595000,-1.374505
2.596000,0.264900
2.597000,3.282780
2.598000,5.725340
2.599000,5.534416
2.600000,4.560701
2.601000,2.743100
2.602000,-0.069855
2.603000,-3.481039
2.604000,-6.012698
2.605000,-6.977503
2.606000,-7.072965
2.607000,-6.668205
2.608000,-5.998697
2.609000,-5.187904
2.610000,-4.523487
2.611000,-4.121272
2.612000,-3.609595
2.613000,-2.674065
2.614000,-2.168751
2.615000,-1.835270
2.616000,-1.559066
2.617000,-1.308318
2.618000,-0.755910
2.619000,0.215259
2.620000,0.383273
2.621000,0.272537
2.622000,0.348906
2.623000,0.054883
2.624000,-0.412246
2.625000,-0.836098
2.626000,-0.819551
2.627000,-0.833553
2.628000,-0.491161
2.629000,-0.459341
2.630000,0.295448
2.631000,0.241989
2.632000,-0.181864
2.633000,-0.965927
2.634000,-1.935823
2.635000,-2.947723
2.636000,-3.614686
2.637000,-3.806883
2.638000,-3.749606
2.639000,-3.362666
2.640000,-2.904447
2.641000,-2.425863
2.642000,-2.143295
2.643000,-2.000738
2.644000,-1.881092
2.645000,-1.561611
2.646000,-1.225584
2.647000,-1.061389
2.648000,-1.035933
2.649000,-1.032114
2.650000,-0.795368
2.651000,0.379454
2.652000,2.888202
2.653000,3.935741
2.654000,3.306963
2.655000,2.175417
2.656000,0.602200
2.657000,-1.542519
2.658000,-3.613413
2.659000,-5.022436
2.660000,-5.798862
2.661000,-5.913417
2.662000,-5.422105
2.663000,-4.440753
2.664000,-3.608322
2.665000,-2.732615
2.666000,-2.195481
2.667000,-1.541246
2.668000,-1.077936
2.669000,-0.904831
2.670000,-0.949380
2.671000,-1.117394
2.672000,-1.205219
2.673000,-1.131395
2.674000,-1.206492
2.675000,-1.324865
2.676000,-1.359231
2.677000,-1.212856
2.678000,-1.133940
2.679000,-1.136486
2.680000,-0.786458
2.681000,-0.235323
2.682000,0.424003
2.683000,1.206794
2.684000,1.075692
2.685000,0.373090
2.686000,-0.295146
2.687000,-0.871737
2.688000,-1.816177
2.689000,-2.466593
2.690000,-2.942632
2.691000,-3.250657
2.692000,-3.288842
2.693000,-2.517507
2.694000,-2.299853
2.695000,-1.794539
2.696000,-1.290499
2.697000,-1.015567
2.698000,-0.968473
2.699000,-1.245950
2.700000,-1.721988
2.701000,-2.018557
2.702000,-1.904003
2.703000,-1.402508
2.704000,-0.993929
2.705000,-1.007930
2.706000,-1.379597
2.707000,-1.803449
2.708000,-2.198026
2.709000,-2.162387
2.710000,-1.967644
2.711000,-0.861555
2.712000,-0.278599
2.713000,0.033245
2.714000,-0.232777
2.715000,-0.064763
2.716000,-0.955744
2.717000,-1.827633
2.718000,-2.555692
2.719000,-3.132284
2.720000,-3.482312
2.721000,-3.682146
2.722000,-3.609595
2.723000,-3.455582
2.724000,-3.206108
2.725000,-2.792438
2.726000,-2.147113
2.727000,-1.749990
2.728000,-1.108484
2.729000,-0.617172
2.730000,-0.515345
2.731000,-0.664266
2.732000,-0.671903
2.733000,-0.032943
2.734000,0.737120
2.735000,0.836400
2.736000,0.625111
2.737000,-0.020214
2.738000,-0.796641
2.739000,-1.435601
2.740000,-1.892547
2.741000,-1.867091
2.742000,-1.916731
2.743000,-2.083472
2.744000,-2.084744
2.745000,-2.187844
2.746000,-2.550600
2.747000,-2.999909
2.748000,-3.237928
2.749000,-2.080926
2.750000,-1.151760
2.751000,-0.761001
2.752000,-0.610807
2.753000,-0.897194
2.754000,0.448187
2.755000,0.477462
2.756000,-0.099130
2.757000,-0.766093
2.758000,-1.571794
2.759000,-2.358403
2.760000,-2.857352
2.761000,-3.362666
2.762000,-3.552317
2.763000,-3.514133
2.764000,-3.333391
2.765000,-2.681702
2.766000,-2.100018
2.767000,-1.909094
2.768000,-1.776720
2.769000,-1.753809
2.770000,-1.849271
2.771000,-1.686349
2.772000,-1.550156
2.773000,-1.447057
2.774000,-1.399962
2.775000,-1.380869
2.776000,-1.279043
2.777000,0.254717
2.778000,1.494453
2.779000,1.615372
2.780000,1.400264
2.781000,1.199157
2.782000,0.291629
2.783000,-0.950653
2.784000,-2.186571
2.785000,-2.802621
2.786000,-3.192107
2.787000,-3.503950
2.788000,-3.572683
2.789000,-3.356302
2.790000,-3.291387
2.791000,-3.097917
2.792000,-2.579875
2.793000,-1.985464
2.794000,-1.758900
2.795000,-1.592159
2.796000,-1.295590
2.797000,-1.210310
2.798000,-1.179762
2.799000,-1.065208
2.800000,0.474917
2.801000,1.978129
2.802000,1.995948
2.803000,1.227159
2.804000,0.235625
2.805000,-0.740636
2.806000,-2.003283
2.807000,-2.826804
2.808000,-3.234110
2.809000,-3.502677
2.810000,-3.488676
2.811000,-3.328299
2.812000,-3.083916
2.813000,-3.054641
2.814000,-2.955360
2.815000,-2.749162
2.816000,-2.121657
2.817000,-1.779265
2.818000,-1.509425
2.819000,-1.196309
2.820000,-1.117394
2.821000,-0.977382
2.822000,-0.577714
2.823000,-0.507708
2.824000,-0.512799
2.825000,-0.390608
2.826000,-0.571350
2.827000,-1.009203
2.828000,-0.853918
2.829000,-0.473342
2.830000,-0.494980
2.831000,0.282719
2.832000,1.190247
2.833000,0.816035
2.834000,-0.175499
2.835000,-1.425419
2.836000,-2.675338
2.837000,-3.599412
2.838000,-3.201016
2.839000,-3.073733
2.840000,-2.327855
2.841000,-1.990555
2.842000,-0.979928
2.843000,-0.741909
2.844000,-1.005385
2.845000,-1.170853
2.846000,-1.140305
2.847000,-1.576885
2.848000,-2.343129
2.849000,-2.920994
2.850000,-3.207381
2.851000,-2.661336
2.852000,-2.380041
2.853000,-2.484413
2.854000,-2.555692
2.855000,-1.794539
2.856000,0.052337
2.857000,0.634020
2.858000,0.370545
2.859000,0.105796
2.860000,-0.601898
2.861000,-1.276497
2.862000,-2.425863
2.863000,-3.370303
2.864000,-4.228190
2.865000,-4.383475
2.866000,-4.261284
2.867000,-3.899800
2.868000,-3.498859
2.869000,-3.329572
2.870000,-2.780982
2.871000,-2.293489
2.872000,-1.867091
2.873000,-1.405053
2.874000,-1.084300
2.875000,-0.750819
2.876000,-0.432611
2.877000,-0.290054
2.878000,-0.335876
2.879000,-0.404609
2.880000,-0.446612
2.881000,-0.460613
2.882000,-0.483524
2.883000,-0.498798
2.884000,-0.512799
2.885000,-0.619717
2.886000,-0.750819
2.887000,-0.913741
2.888000,-0.741909
2.889000,-0.819551
2.890000,-0.939197
2.891000,-1.071572
2.892000,-1.122485
2.893000,-0.973564
2.894000,-0.971018
2.895000,-1.069026
2.896000,-1.182308
2.897000,-1.438147
2.898000,-1.597251
2.899000,-1.440693
2.900000,-1.468695
2.901000,-1.193763
2.902000,-0.517891
2.903000,-0.498798
2.904000,0.151618
2.905000,1.034962
2.906000,0.548741
2.907000,-0.031670
2.908000,-0.404609
2.909000,-0.898467
2.910000,-0.460613
2.911000,-0.782639
2.912000,-0.817006
2.913000,-1.599796
2.914000,-2.358403
2.915000,-3.321935
2.916000,-4.177277
2.917000,-4.354200
2.918000,-4.704229
2.919000,-4.648224
2.920000,-4.072905
2.921000,-3.335936
2.922000,-2.793711
2.923000,-2.778437
2.924000,-2.532781
2.925000,-1.702895
2.926000,-0.803005
2.927000,-0.720271
2.928000,-0.346059
2.929000,-0.360060
2.930000,-1.060116
2.931000,-2.075835
2.932000,-2.759344
2.933000,-3.184470
2.934000,-3.176833
2.935000,-3.054641
2.936000,-2.693157
2.937000,-2.357130
2.938000,-1.869636
2.939000,-1.471240
2.940000,-1.102120
2.941000,-0.953199
2.942000,-0.183136
2.943000,0.329814
2.944000,0.185984
2.945000,-0.057126
2.946000,-0.339695
2.947000,-0.862828
2.948000,-1.385961
2.949000,-1.747445
2.950000,-1.837815
2.951000,-1.723261
2.952000,-1.640527
2.953000,-1.602342
2.954000,-1.285407
2.955000,-0.925196
2.956000,-0.473342
2.957000,0.592017
2.958000,0.954774
2.959000,1.062964
2.960000,0.714209
2.961000,0.334905
2.962000,-0.437702
2.963000,-1.452148
2.964000,-2.331673
2.965000,-1.975281
2.966000,-2.149659
2.967000,-2.486959
2.968000,-2.844624
2.969000,-3.152649
2.970000,-3.573956
2.971000,-3.881980
2.972000,-3.729241
2.973000,-3.403396
2.974000,-3.143739
2.975000,-2.812803
2.976000,-2.338038
2.977000,-1.967644
2.978000,-0.884466
2.979000,0.747302
2.980000,1.354442
2.981000,1.224613
2.982000,0.710390
2.983000,-0.227686
2.984000,-1.422873
2.985000,-2.481867
2.986000,-3.120828
2.987000,-3.296479
2.988000,-3.115737
2.989000,-2.422044
2.990000,-1.855635
2.991000,-1.615070
2.992000,-1.714351
2.993000,-1.265042
2.994000,-0.451704
2.995000,-0.146224
2.996000,-0.424974
2.997000,-0.960836
2.998000,-1.366868
2.999000,-1.858181
3.000000,-2.004556
3.001000,-2.129294
3.002000,-2.274396
3.003000,-2.254031
3.004000,-2.074562
3.005000,-1.525972
3.006000,-1.267588
3.007000,-1.252314
3.008000,-1.265042
3.009000,-1.318501
3.010000,0.201258
3.011000,1.340441
3.012000,1.900486
3.013000,1.311166
3.014000,0.104523
3.015000,-1.286680
3.016000,-2.628243
3.017000,-3.748333
3.018000,-4.422933
3.019000,-4.576946
3.020000,-4.414023
3.021000,-4.077996
3.022000,-3.036821
3.023000,-1.644345
3.024000,-0.921378
3.025000,-0.433884
3.026000,-0.382971
3.027000,-0.246778
3.028000,-0.730453
3.029000,-1.294317
3.030000,-1.667256
3.031000,-2.072016
3.032000,-2.172570
3.033000,-2.102564
3.034000,-1.948552
3.035000,-1.832724
3.036000,-1.739808
3.037000,-1.618889
3.038000,-1.569248
3.039000,-1.447057
3.040000,-1.394871
3.041000,-1.361777
3.042000,-1.346503
3.043000,-1.299408
3.044000,-1.163216
3.045000,-1.112302
3.046000,-0.729181
3.047000,-0.402063
3.048000,-0.245505
3.049000,-0.334603
3.050000,-0.640082
3.051000,-1.014294
3.052000,-1.177217
3.053000,-0.590442
3.054000,0.637839
3.055000,0.580562
3.056000,0.156709
3.057000,-0.438975
3.058000,-1.277770
3.059000,-2.441137
3.060000,-2.578603
3.061000,-0.922651
3.062000,-0.786458
3.063000,-1.015567
3.064000,-1.468695
3.065000,-2.397861
3.066000,-3.576501
3.067000,-4.589674
3.068000,-4.522214
3.069000,-4.401295
3.070000,-3.959623
3.071000,-3.543408
3.072000,-2.961724
3.073000,-1.830178
3.074000,-0.137315
3.075000,0.453279
3.076000,0.331087
3.077000,-0.132223
3.078000,-0.869192
3.079000,-1.784357
3.080000,-2.663882
3.081000,-3.128465
3.082000,-3.355029
3.083000,-2.968088
3.084000,-2.332946
3.085000,-1.986737
3.086000,-1.826360
3.087000,-1.919277
3.088000,-1.599796
3.089000,-1.186127
3.090000,-1.018113
3.091000,-0.847554
3.092000,-0.568804
3.093000,0.499100
3.094000,0.959865
3.095000,0.911497
3.096000,0.803307
3.097000,0.155436
3.098000,-0.091493
3.099000,-0.660448
3.100000,-1.333775
3.101000,-1.770355
3.102000,-1.724534
3.103000,-2.130566
3.104000,-2.526416
3.105000,-2.731342
3.106000,-3.120828
3.107000,-3.257021
3.108000,-3.253202
3.109000,-3.131011
3.110000,-2.787347
3.111000,-2.324037
3.112000,-1.630344
3.113000,-0.918832
3.114000,-0.549712
3.115000,0.017971
3.116000,-0.043125
3.117000,-0.447885
3.118000,-0.734272
3.119000,-1.081754
3.120000,-1.525972
3.121000,-1.842907
3.122000,-1.971463
3.123000,-1.790721
3.124000,-1.814905
3.125000,-1.539973
3.126000,-1.275225
3.127000,-1.293044
3.128000,-1.433056
3.129000,-1.559066
3.130000,-1.622707
3.131000,-1.803449
3.132000,-1.836543
3.133000,-1.826360
3.134000,-1.850544
3.135000,-1.919277
3.136000,-1.855635
3.137000,-1.725806
3.138000,-1.593432
3.139000,-1.133940
3.140000,-0.856464
3.141000,-0.876829
3.142000,-0.939197
3.143000,-1.048661
3.144000,-1.188672
3.145000,-1.315955
3.146000,-1.417782
3.147000,-1.267588
3.148000,1.391354
3.149000,4.834359
3.150000,5.944267
3.151000,4.875090
3.152000,2.573813
3.153000,0.215259
3.154000,-2.383860
3.155000,-4.904063
3.156000,-6.679661
3.157000,-7.443359
3.158000,-7.473907
3.159000,-7.041144
3.160000,-6.169256
3.161000,-5.112807
3.162000,-4.211643
3.163000,-2.290943
3.164000,-1.104665
3.165000,-0.390608
3.166000,-0.472069
3.167000,-1.010476
3.168000,-1.785629
3.169000,-2.408043
3.170000,-2.853534
3.171000,-2.988454
3.172000,-2.663882
3.173000,-2.200572
3.174000,-1.830178
3.175000,-1.443238
3.176000,-1.251041
3.177000,-1.071572
3.178000,-0.768638
3.179000,-0.542075
3.180000,-0.390608
3.181000,-0.146224
3.182000,0.408729
3.183000,1.038780
3.184000,0.971320
3.185000,0.435459
3.186000,0.903860
3.187000,2.051953
3.188000,1.643375
3.189000,0.628929
3.190000,-0.673176
3.191000,-2.108928
3.192000,-3.563773
3.193000,-4.696592
3.194000,-5.200632
3.195000,-5.026255
3.196000,-4.564217
3.197000,-3.876889
3.198000,-3.244293
3.199000,-2.861171
3.200000,-2.415680
3.201000,-1.682530
3.202000,-1.340139
3.203000,-0.964654
3.204000,-0.734272
3.205000,-0.626081
3.206000,-0.645174
3.207000,-0.777548
3.208000,-0.870465
3.209000,-0.865373
3.210000,-0.100403
3.211000,0.067611
3.212000,0.202531
3.213000,-0.008759
3.214000,-0.488616
3.215000,-1.178490
3.216000,-1.846725
3.217000,-2.222210
3.218000,-2.395315
3.219000,-2.420772
3.220000,-2.349493
3.221000,-2.196754
3.222000,-1.697804
3.223000,-1.048661
3.224000,-0.846281
3.225000,-0.904831
3.226000,-1.035933
3.227000,-1.006657
3.228000,-1.102120
3.229000,-1.090664
3.230000,-1.266315
3.231000,-1.256132
3.232000,-0.904831
3.233000,-0.063490
3.234000,0.322177
3.235000,-0.189501
3.236000,-1.065208
3.237000,-1.859454
3.238000,-2.460229
3.239000,-2.934995
3.240000,-2.859898
3.241000,-1.957461
3.242000,-0.791549
3.243000,-0.491161
3.244000,-0.757183
3.245000,-1.240858
3.246000,-1.979100
3.247000,-2.722432
3.248000,-3.251930
3.249000,-3.459401
3.250000,-3.465765
3.251000,-2.738979
3.252000,-1.851817
3.253000,-1.464876
3.254000,-0.992656
3.255000,0.324723
3.256000,1.222068
3.257000,1.219522
3.258000,0.292902
3.259000,-0.393153
3.260000,-1.559066
3.261000,-2.840805
3.262000,-3.817066
3.263000,-4.302014
3.264000,-4.405114
3.265000,-4.258738
3.266000,-3.885799
3.267000,-3.427580
3.268000,-3.052095
3.269000,-1.911640
3.270000,-1.270133
3.271000,-0.703724
3.272000,-0.321875
3.273000,-0.147497
3.274000,-0.381698
3.275000,-0.332058
3.276000,-0.570077
3.277000,-0.959563
3.278000,-1.144123
3.279000,-1.223039
3.280000,-1.495424
3.281000,-1.706714
3.282000,-1.850544
3.283000,-1.928186
3.284000,-1.794539
3.285000,-1.463603
3.286000,-1.195036
3.287000,-0.650265
3.288000,-0.603170
3.289000,-0.735545
3.290000,-0.094038
3.291000,1.092239
3.292000,1.155881
3.293000,0.538558
3.294000,-0.242959
3.295000,-1.188672
3.296000,-2.177661
3.297000,-3.075006
3.298000,-3.607049
3.299000,-3.733059
3.300000,-3.498859
3.301000,-3.241747
3.302000,-2.838260
3.303000,-2.640971
3.304000,-2.465321
3.305000,-1.673620
3.306000,-1.168307
3.307000,-0.959563
3.308000,-0.768638
3.309000,-0.334603
3.310000,-0.312965
3.311000,-0.470796
3.312000,-0.652811
3.313000,-0.897194
3.314000,-1.436874
3.315000,-1.538700
3.316000,-1.482696
3.317000,-1.802176
3.318000,-2.135658
3.319000,-2.472958
3.320000,-2.646063
3.321000,-2.581148
3.322000,-2.432227
3.323000,-2.150932
3.324000,-1.567976
3.325000,-0.001122
3.326000,0.387091
3.327000,0.362908
3.328000,0.245807
3.329000,-0.193319
3.330000,0.362908
3.331000,-0.106767
3.332000,-0.591715
3.333000,-1.412690
3.334000,-2.156023
3.335000,-2.821713
3.336000,-3.237928
3.337000,-3.184470
3.338000,-2.069471
3.339000,-1.203946
3.340000,-0.692268
3.341000,-0.731726
3.342000,-0.820824
3.343000,-0.827188
3.344000,-1.228130
3.345000,-1.653255
3.346000,-2.394042
3.347000,-2.998636
3.348000,-3.502677
3.349000,-3.881980
3.350000,-3.610868
3.351000,-2.690612
3.352000,-2.226029
3.353000,-2.016012
3.354000,-1.453421
3.355000,-0.918832
3.356000,-1.144123
3.357000,-1.375778
3.358000,-1.472513
3.359000,-1.100847
3.360000,-0.940470
3.361000,-1.153033
3.362000,-1.454694
3.363000,-1.650709
3.364000,-1.859454
3.365000,-2.008375
3.366000,-2.259122
3.367000,-2.195481
3.368000,-2.092381
3.369000,-1.793266
3.370000,-1.473786
3.371000,-1.282862
3.372000,-1.181035
3.373000,-1.205219
3.374000,-1.285407
3.375000,-1.289226
3.376000,-1.175944
3.377000,-1.113575
3.378000,-1.009203
3.379000,-0.847554
3.380000,-0.712634
3.381000,0.211441
3.382000,0.282719
3.383000,0.761303
3.384000,1.047690
3.385000,0.634020
3.386000,-0.171681
3.387000,-0.651538
3.388000,-0.648992
3.389000,-0.817006
3.390000,-0.907377
3.391000,-1.551429
3.392000,-2.464048
3.393000,-3.464492
3.394000,-4.270194
3.395000,-4.660952
3.396000,-4.421660
3.397000,-4.167094
3.398000,-3.487403
3.399000,-2.801348
3.400000,-2.059288
3.401000,-0.795368
3.402000,-0.296418
3.403000,0.454551
3.404000,0.781669
3.405000,0.756212
3.406000,0.171983
3.407000,-0.623536
3.408000,-1.167034
3.409000,-1.515789
3.410000,-1.934551
3.411000,-2.382587
3.412000,-2.680429
3.413000,-2.974453
3.414000,-1.828906
3.415000,-0.357514
3.416000,-0.132223
3.417000,-0.459341
3.418000,-1.145396
3.419000,-1.892547
3.420000,-2.419499
3.421000,-3.124647
3.422000,-3.836159
3.423000,-4.139092
3.424000,-3.931621
3.425000,-3.432671
3.426000,-1.892547
3.427000,-0.618444
3.428000,0.137617
3.429000,0.763849
3.430000,0.761303
3.431000,0.519466
3.432000,-0.348604
3.433000,-1.112302
3.434000,-1.772901
3.435000,-1.626526
3.436000,-0.801732
3.437000,-1.013022
3.438000,-1.471240
3.439000,-2.097473
3.440000,-2.522598
3.441000,-2.914630
3.442000,-3.092826
3.443000,-3.169196
3.444000,-3.012638
3.445000,-2.747889
3.446000,-2.621879
3.447000,-2.376223
3.448000,-1.300681
3.449000,-0.645174
3.450000,-0.419883
3.451000,-0.419883
3.452000,-0.850099
3.453000,-0.892103
3.454000,-0.277326
3.455000,0.515647
3.456000,0.725664
3.457000,0.320904
3.458000,-0.363878
3.459000,-1.175944
3.460000,-2.036377
3.461000,-2.723705
3.462000,-3.174287
3.463000,-3.337209
3.464000,-3.174287
3.465000,-2.579875
3.466000,-2.121657
3.467000,-1.816177
3.468000,-1.659619
3.469000,-1.603615
3.470000,-1.262496
3.471000,-0.965927
3.472000,-0.833553
3.473000,-0.664266
3.474000,-0.314238
3.475000,-0.255688
3.476000,-0.618444
3.477000,-1.063935
3.478000,-1.564157
3.479000,-2.046560
3.480000,-2.380041
3.481000,-2.513688
3.482000,-1.993101
3.483000,0.296720
3.484000,2.152507
3.485000,2.524173
3.486000,1.881394
3.487000,0.606018
3.488000,-1.214129
3.489000,-2.783528
3.490000,-4.163276
3.491000,-4.900244
3.492000,-5.038983
3.493000,-4.798418
3.494000,-4.281649
3.495000,-3.571410
3.496000,-2.933722
3.497000,-2.628243
3.498000,-2.156023
3.499000,-0.839917
3.500000,-0.160226
3.501000,0.087976
3.502000,-0.007486
3.503000,-0.298964
3.504000,-0.167863
3.505000,0.040882
3.506000,0.463461
3.507000,1.500818
3.508000,1.302256
3.509000,0.390910
3.510000,-1.061389
3.511000,-2.680429
3.512000,-3.997808
3.513000,-4.834057
3.514000,-5.133172
3.515000,-4.999525
3.516000,-4.095816
3.517000,-3.057187
3.518000,-2.446228
3.519000,-1.802176
3.520000,-1.029568
3.521000,0.062520
3.522000,0.678569
3.523000,0.915316
3.524000,1.181337
3.525000,1.233523
3.526000,1.405355
3.527000,0.580562
3.528000,-0.704997
3.529000,-1.967644
3.530000,-3.225200
3.531000,-4.051267
3.532000,-4.406386
3.533000,-4.440753
3.534000,-3.876889
3.535000,-3.464492
3.536000,-2.990999
3.537000,-2.274396
3.538000,-1.805995
3.539000,-1.719442
3.540000,-1.651982
3.541000,-1.483969
3.542000,-1.415236
3.543000,-1.425419
3.544000,-1.256132
3.545000,-0.531892
3.546000,-0.029124
3.547000,0.033245
3.548000,-0.244232
3.549000,-0.638810
3.550000,-0.968473
3.551000,-1.243404
3.552000,-1.193763
3.553000,-1.086846
3.554000,-1.223039
3.555000,-1.159397
3.556000,-0.990111
3.557000,-0.958290
3.558000,-0.995202
3.559000,-1.154306
3.560000,-1.537428
3.561000,-1.632890
3.562000,-1.721988
3.563000,-1.819996
3.564000,-1.859454
3.565000,-1.868363
3.566000,-1.954916
3.567000,-1.827633
3.568000,-1.076663
3.569000,1.251343
3.570000,2.668003
3.571000,2.506353
3.572000,1.586097
3.573000,0.236897
3.574000,-1.780538
3.575000,-3.671963
3.576000,-4.991888
3.577000,-5.513748
3.578000,-5.196814
3.579000,-4.055085
3.580000,-2.777164
3.581000,-2.070743
3.582000,-1.667256
3.583000,-1.491606
3.584000,-1.770355
3.585000,-2.092381
3.586000,-2.049105
3.587000,-2.142022
3.588000,-1.821269
3.589000,-0.139860
3.590000,0.264900
3.591000,0.203804
3.592000,-0.147497
3.593000,-0.757183
3.594000,-1.355413
3.595000,-2.073289
3.596000,-2.516234
3.597000,-2.792438
3.598000,-2.260395
3.599000,-1.735989
3.600000,-0.706270
3.601000,0.514374
3.602000,1.131697
3.603000,1.097330
3.604000,0.370545
3.605000,-0.810642
3.606000,-2.157296
3.607000,-3.407215
3.608000,-4.210371
3.609000,-4.662225
3.610000,-4.682590
3.611000,-4.383475
3.612000,-3.870525
3.613000,-3.295206
3.614000,-2.760617
3.615000,-1.613797
3.616000,-0.689723
3.617000,0.280174
3.618000,0.297993
3.619000,-0.024033
3.620000,-0.319329
3.621000,-0.726635
3.622000,-1.209037
3.623000,-1.657074
3.624000,-1.809813
3.625000,-1.858181
3.626000,-1.821269
3.627000,-1.454694
3.628000,-0.780094
3.629000,-0.409700
3.630000,-0.412246
3.631000,-0.562440
3.632000,-0.724089
3.633000,-0.682086
3.634000,-0.417337
3.635000,0.492736
3.636000,0.500373
3.637000,-0.026578
3.638000,-0.693541
3.639000,-1.612525
3.640000,-2.485686
3.641000,-3.006273
3.642000,-2.116565
3.643000,-1.109757
3.644000,-0.944289
3.645000,-1.165761
3.646000,-1.686349
3.647000,-2.224756
3.648000,-2.957906
3.649000,-2.863716
3.650000,-2.327855
3.651000,-2.195481
3.652000,-2.122929
3.653000,-2.161114
3.654000,-2.392769
3.655000,-2.240030
3.656000,-2.269305
3.657000,-2.260395
3.658000,-2.429681
3.659000,-2.259122
3.660000,-1.720715
3.661000,0.108342
3.662000,0.704026
3.663000,0.458370
3.664000,-0.358787
3.665000,-0.869192
3.666000,-1.093210
3.667000,-1.560339
3.668000,-2.003283
3.669000,-2.303671
3.670000,-2.428409
3.671000,-2.058015
3.672000,-1.974008
3.673000,-1.439420
3.674000,-1.164488
3.675000,-1.182308
3.676000,-1.375778
3.677000,-1.635435
3.678000,-1.766537
3.679000,-1.225584
3.680000,-1.234494
3.681000,-1.518335
3.682000,-1.699077
3.683000,-1.158124
3.684000,-0.768638
3.685000,0.679842
3.686000,0.851674
3.687000,0.337451
3.688000,-0.566258
3.689000,-1.345230
3.690000,-2.495869
3.691000,-3.656690
3.692000,-4.257465
3.693000,-4.277831
3.694000,-4.018173
3.695000,-3.739423
3.696000,-3.234110
3.697000,-2.629516
3.698000,-2.443683
3.699000,-2.133112
3.700000,-1.791994
3.701000,-1.374505
3.702000,-0.491161
3.703000,0.272537
3.704000,0.392183
3.705000,0.151618
3.706000,-0.437702
3.707000,-1.206492
3.708000,-1.898911
3.709000,-2.251485
3.710000,-2.105110
3.711000,-2.013466
3.712000,-1.714351
3.713000,-0.740636
3.714000,-0.090220
3.715000,-0.053308
3.716000,-0.344786
3.717000,-0.685904
3.718000,-0.997748
3.719000,-1.573067
3.720000,-2.046560
3.721000,-2.301126
3.722000,-2.430954
3.723000,-2.241303
3.724000,-2.143295
3.725000,-1.935823
3.726000,-1.669802
3.727000,-1.511971
3.728000,-1.438147
3.729000,-1.427964
3.730000,-1.322319
3.731000,-1.261223
3.732000,-1.198855
3.733000,-1.107211
3.734000,-1.071572
3.735000,-1.089391
3.736000,-0.766093
3.737000,-0.346059
3.738000,0.940772
3.739000,2.169053
3.740000,1.915760
3.741000,1.059146
3.742000,-0.190773
3.743000,-1.061389
3.744000,-2.292216
3.745000,-3.417397
3.746000,-4.065268
3.747000,-4.452208
3.748000,-4.416569
3.749000,-3.656690
3.750000,-2.595149
3.751000,-2.369858
3.752000,-1.804722
3.753000,-0.632445
3.754000,0.796943
3.755000,1.106240
3.756000,0.429095
3.757000,-0.558621
3.758000,-1.630344
3.759000,-2.562056
3.760000,-3.106827
3.761000,-2.941359
3.762000,-2.858625
3.763000,-2.942632
3.764000,-3.021547
3.765000,-3.047004
3.766000,-2.975725
3.767000,-3.118282
3.768000,-3.058459
3.769000,-2.849715
3.770000,-2.637153
3.771000,-2.120384
3.772000,-1.660892
3.773000,-1.557793
3.774000,-1.464876
3.775000,-1.429237
3.776000,-1.314682
3.777000,-1.061389
3.778000,-0.850099
3.779000,-0.725362
3.780000,-0.460613
3.781000,-0.081310
3.782000,0.127434
3.783000,0.045973
3.784000,0.059974
3.785000,-0.404609
3.786000,-0.752091
3.787000,-0.903558
3.788000,-1.155579
3.789000,-1.361777
3.790000,-1.611252
3.791000,-1.650709
3.792000,-1.685076
3.793000,-1.872182
3.794000,-1.663438
3.795000,-0.959563
3.796000,-0.704997
3.797000,-0.323148
3.798000,-0.409700
3.799000,-0.782639
3.800000,-1.205219
3.801000,-1.557793
3.802000,-2.290943
3.803000,-2.740252
3.804000,-2.886627
3.805000,-2.875172
3.806000,-2.913357
3.807000,-2.754253
3.808000,-2.476776
3.809000,-2.080926
3.810000,-1.210310
3.811000,-0.288781
3.812000,0.765122
3.813000,3.819914
3.814000,4.999827
3.815000,5.063469
3.816000,3.323510
3.817000,0.832582
3.818000,-2.186571
3.819000,-5.154810
3.820000,-7.128970
3.821000,-8.093775
3.822000,-8.077228
3.823000,-7.420448
3.824000,-6.260900
3.825000,-5.054257
3.826000,-3.750879
3.827000,-2.707158
3.828000,-2.037650
3.829000,-1.721988
3.830000,-1.276497
3.831000,-0.659175
3.832000,-0.334603
3.833000,-0.241687
3.834000,-0.348604
3.835000,-0.337149
3.836000,-0.258233
3.837000,-0.452976
3.838000,-0.645174
3.839000,-0.838644
3.840000,-0.675722
3.841000,-0.662993
3.842000,-0.820824
3.843000,-0.692268
3.844000,-0.673176
3.845000,-0.918832
3.846000,-0.932833
3.847000,-0.609535
3.848000,-0.558621
3.849000,-0.414792
3.850000,1.003141
3.851000,1.388809
3.852000,0.776577
3.853000,-0.194592
3.854000,-1.268860
3.855000,-1.855635
3.856000,-1.783084
3.857000,-1.937096
3.858000,-2.223483
3.859000,-2.569693
3.860000,-2.751707
3.861000,-3.109373
3.862000,-3.269749
3.863000,-3.478493
3.864000,-3.360120
3.865000,-2.497141
3.866000,-2.023649
3.867000,-0.414792
3.868000,1.182610
3.869000,0.840219
3.870000,-0.087674
3.871000,-1.151760
3.872000,-2.293489
3.873000,-3.576501
3.874000,-4.391112
3.875000,-4.613858
3.876000,-4.464937
3.877000,-3.897254
3.878000,-3.100463
3.879000,-2.310035
3.880000,-1.802176
3.881000,-0.901013
3.882000,-0.212412
3.883000,-0.081310
3.884000,-0.096584
3.885000,-0.172954
3.886000,0.398547
3.887000,-0.030397
3.888000,-0.664266
3.889000,-1.265042
3.890000,-1.746172
3.891000,-2.022376
3.892000,-2.187844
3.893000,-1.961280
3.894000,-0.996475
3.895000,0.758758
3.896000,1.680287
3.897000,1.801205
3.898000,1.390081
3.899000,0.238170
3.900000,-1.098301
3.901000,-2.321491
3.902000,-3.475948
3.903000,-4.009263
3.904000,-3.567591
3.905000,-3.290114
3.906000,-2.959179
3.907000,-2.567147
3.908000,-2.665155
3.909000,-2.719887
3.910000,-2.499687
3.911000,-2.115292
3.912000,-1.777992
3.913000,-1.541246
3.914000,-1.380869
3.915000,-1.440693
3.916000,-1.651982
3.917000,-1.714351
3.918000,-1.757627
3.919000,-1.837815
3.920000,-1.823814
3.921000,-1.707987
3.922000,-1.588341
3.923000,-1.132668
3.924000,-0.817006
3.925000,-0.478433
3.926000,-0.427520
3.927000,-0.584078
3.928000,-0.789004
3.929000,-1.130122
3.930000,-1.308318
3.931000,-1.403780
3.932000,-1.307045
3.933000,-0.977382
3.934000,-0.547166
3.935000,0.436732
3.936000,1.474088
3.937000,1.900486
3.938000,1.302256
3.939000,0.056156
3.940000,-1.314682
3.941000,-2.509870
3.942000,-3.650325
3.943000,-4.468755
3.944000,-4.734777
3.945000,-4.597311
3.946000,-4.187460
3.947000,-3.711421
3.948000,-3.183197
3.949000,-2.835714
3.950000,-2.535326
3.951000,-1.683803
3.952000,-0.968473
3.953000,-0.486070
3.954000,-0.452976
3.955000,-0.710088
3.956000,-0.946834
3.957000,-1.189945
3.958000,-0.640082
3.959000,-0.521709
3.960000,-0.669358
3.961000,-0.710088
3.962000,-0.814460
3.963000,-1.104665
3.964000,-1.293044
3.965000,-0.777548
3.966000,-0.851372
3.967000,-0.587896
3.968000,-0.534438
3.969000,-0.960836
3.970000,-1.626526
3.971000,-2.294761
3.972000,-2.784801
3.973000,-2.254031
3.974000,-1.746172
3.975000,-1.307045
3.976000,-0.628627
3.977000,-0.707542
3.978000,-1.072845
3.979000,-1.466149
3.980000,-0.822097
3.981000,0.048519
3.982000,0.306903
3.983000,0.935681
3.984000,0.669660
3.985000,-0.612080
3.986000,-2.098746
3.987000,-3.650325
3.988000,-4.568036
3.989000,-5.369919
3.990000,-5.644850
3.991000,-5.376283
3.992000,-4.993161
3.993000,-4.531124
3.994000,-3.888345
3.995000,-3.269749
3.996000,-2.509870
3.997000,-1.699077
3.998000,-1.170853
3.999000,-0.769911
4.000000,-0.267143
4.001000,0.225442
4.002000,0.939500
4.003000,2.239059
4.004000,2.656547
4.005000,2.006131
4.006000,0.914043
4.007000,-0.344786
4.008000,-1.727079
4.009000,-2.825532
4.010000,-3.473402
4.011000,-3.591775
4.012000,-3.517951
4.013000,-3.027911
4.014000,-2.562056
4.015000,-2.195481
4.016000,-2.066925
4.017000,-1.878546
4.018000,-1.529791
4.019000,-0.950653
4.020000,-0.563713
4.021000,-0.444067
4.022000,-0.531892
4.023000,-0.684631
4.024000,-0.937925
4.025000,-1.206492
4.026000,-1.397416
4.027000,-1.519608
4.028000,-1.495424
4.029000,-0.887011
4.030000,0.558923
4.031000,2.163962
4.032000,2.310337
4.033000,1.410447
4.034000,0.424003
4.035000,-1.041024
4.036000,-2.598968
4.037000,-3.823430
4.038000,-4.527305
4.039000,-4.870969
4.040000,-4.948612
4.041000,-4.457300
4.042000,-3.708876
4.043000,-2.724978
4.044000,-2.168751
4.045000,-1.800903
4.046000,-1.360504
4.047000,-1.113575
4.048000,-1.256132
4.049000,-1.301954
4.050000,-1.224311
4.051000,-1.056298
4.052000,-0.263325
4.053000,0.905133
4.054000,0.985321
4.055000,0.735847
4.056000,0.197440
4.057000,-0.529346
4.058000,-1.553974
4.059000,-2.418226
4.060000,-2.932449
4.061000,-3.092826
4.062000,-3.082643
4.063000,-2.822986
4.064000,-2.462775
4.065000,-2.299853
4.066000,-2.297307
4.067000,-2.214573
4.068000,-2.009648
4.069000,-1.719442
4.070000,-1.405053
4.071000,-0.744455
4.072000,-0.138587
4.073000,-0.153861
4.074000,-0.375334
4.075000,-0.693541
4.076000,-1.147942
4.077000,-0.969745
4.078000,0.430368
4.079000,0.995504
4.080000,1.358261
4.081000,2.247969
4.082000,3.002757
4.083000,1.876302
4.084000,-0.032943
4.085000,-2.306217
4.086000,-4.342745
4.087000,-5.842139
4.088000,-6.688571
4.089000,-6.335997
4.090000,-5.140809
4.091000,-4.140365
4.092000,-3.460674
4.093000,-2.024921
4.094000,-1.471240
4.095000,-1.347776
4.096000,-1.462331
4.097000,-1.570521
4.098000,-1.856908
4.099000,-2.184025
4.100000,-2.484413
4.101000,-2.705886
4.102000,-2.787347
4.103000,-2.600241
4.104000,-2.312581
4.105000,-2.042741
4.106000,-2.038923
4.107000,-1.858181
4.108000,-1.420327
4.109000,-1.214129
4.110000,-0.991384
4.111000,-0.843735
4.112000,-0.683359
4.113000,-0.571350
4.114000,-0.590442
4.115000,-0.670630
4.116000,-0.651538
4.117000,-0.564985
4.118000,-0.368970
4.119000,0.308176
4.120000,0.541104
4.121000,0.425276
4.122000,0.044700
4.123000,0.113433
4.124000,2.035406
4.125000,2.920023
4.126000,2.188146
4.127000,0.757485
4.128000,-0.811914
4.129000,-2.448774
4.130000,-4.094543
4.131000,-5.293549
4.132000,-5.887960
4.133000,-5.903234
4.134000,-5.511203
4.135000,-4.729685
4.136000,-4.000354
4.137000,-2.992272
4.138000,-1.693986
4.139000,-0.522982
4.140000,0.107069
4.141000,0.189803
4.142000,-0.253142
4.143000,-0.568804
4.144000,-1.119939
4.145000,-1.571794
4.146000,-1.812359
4.147000,-1.825087
4.148000,-1.658346
4.149000,-0.647719
4.150000,-0.307874
4.151000,-0.414792
4.152000,-0.606989
4.153000,-1.046115
4.154000,-1.654528
4.155000,-1.925641
4.156000,-1.967644
4.157000,-1.965098
4.158000,-2.136931
4.159000,-2.125475
4.160000,-2.061834
4.161000,-1.663438
4.162000,-0.426247
4.163000,-0.319329
4.164000,-0.329512
4.165000,-0.494980
4.166000,-0.911195
4.167000,-1.476332
4.168000,-2.126748
4.169000,-2.441137
4.170000,-2.544236
4.171000,-2.474230
4.172000,-1.776720
4.173000,-1.397416
4.174000,-1.052479
4.175000,-1.365596
4.176000,-0.664266
4.177000,0.126161
4.178000,0.238170
4.179000,1.326440
4.180000,1.208067
4.181000,0.289083
4.182000,-1.193763
4.183000,-2.816622
4.184000,-4.128909
4.185000,-4.989343
4.186000,-5.296095
4.187000,-5.180267
4.188000,-4.588401
4.189000,-3.637597
4.190000,-2.876445
4.191000,-2.245121
4.192000,-1.881092
4.193000,-1.240858
4.194000,-0.790276
4.195000,-0.380425
4.196000,-0.363878
4.197000,-0.680813
4.198000,-0.931561
4.199000,-1.093210
4.200000,-1.142850
4.201000,-0.358787
4.202000,0.037063
4.203000,-0.073673
4.204000,-0.403336
4.205000,-0.660448
4.206000,-1.158124
4.207000,-0.804278
4.208000,-0.307874
4.209000,-0.479706
4.210000,-0.822097
4.211000,-1.000293
4.212000,-1.430510
4.213000,-2.080926
4.214000,-2.709704
4.215000,-2.996091
4.216000,-3.313025
4.217000,-3.360120
4.218000,-3.036821
4.219000,-2.605332
4.220000,-2.304944
4.221000,-2.184025
4.222000,-1.695259
4.223000,-0.752091
4.224000,-0.380425
4.225000,-0.438975
4.226000,-0.676995
4.227000,-0.764820
4.228000,-0.337149
4.229000,1.000595
4.230000,2.517809
4.231000,2.544538
4.232000,1.522456
4.233000,-0.054581
4.234000,-1.901457
4.235000,-3.673236
4.236000,-4.734777
4.237000,-5.138264
4.238000,-5.022436
4.239000,-4.672408
4.240000,-4.130182
4.241000,-3.460674
4.242000,-2.805166
4.243000,-2.436046
4.244000,-2.145840
4.245000,-1.725806
4.246000,-1.369414
4.247000,-1.097028
4.248000,-0.873010
4.249000,-0.710088
4.250000,-0.666812
4.251000,-0.431338
4.252000,-0.132223
4.253000,-0.195865
4.254000,-0.482252
4.255000,-0.839917
4.256000,-1.198855
4.257000,-1.542519
4.258000,-1.565430
4.259000,-1.593432
4.260000,-1.573067
4.261000,-1.468695
4.262000,-0.880647
4.263000,-0.521709
4.264000,-0.580259
4.265000,-0.382971
4.266000,0.020516
4.267000,0.031972
4.268000,-0.455522
4.269000,-1.209037
4.270000,-1.790721
4.271000,-2.091109
4.272000,-2.296034
4.273000,-2.502233
4.274000,-2.634607
4.275000,-2.637153
4.276000,-2.273123
4.277000,-1.575612
4.278000,-0.319329
4.279000,2.044316
4.280000,3.193681
4.281000,2.512717
4.282000,0.813489
4.283000,-1.170853
4.284000,-3.204835
4.285000,-3.901073
4.286000,-4.486575
4.287000,-4.700410
4.288000,-4.226917
4.289000,-3.922711
4.290000,-3.647780
4.291000,-3.125919
4.292000,-3.305388
4.293000,-3.484857
4.294000,-3.071188
4.295000,-2.461502
4.296000,-1.942188
4.297000,-1.781811
4.298000,-1.835270
4.299000,-1.828906
4.300000,-1.757627
4.301000,-1.767810
4.302000,-1.696531
4.303000,-1.587068
4.304000,-1.463603
4.305000,-1.276497
4.306000,-1.257405
4.307000,-1.256132
4.308000,-1.114848
4.309000,-1.027023
4.310000,-0.873010
4.311000,-0.803005
4.312000,-0.860282
4.313000,-0.921378
4.314000,-0.839917
4.315000,-0.711361
4.316000,-0.662993
4.317000,-0.722816
4.318000,-0.496253
4.319000,-0.248051
4.320000,-0.358787
4.321000,-0.450431
4.322000,0.145254
4.323000,-0.094038
4.324000,-0.581532
4.325000,-0.783912
4.326000,-1.130122
4.327000,-1.651982
4.328000,-1.603615
4.329000,-1.598523
4.330000,-1.841634
4.331000,-2.050378
4.332000,-2.380041
4.333000,-2.415680
4.334000,-2.707158
4.335000,-2.903174
4.336000,-2.849715
4.337000,-2.644790
4.338000,-2.313854
4.339000,-2.182752
4.340000,-1.863272
4.341000,-1.709260
4.342000,-1.593432
4.343000,-0.797913
4.344000,0.150345
4.345000,1.418084
4.346000,1.894122
4.347000,1.255161
4.348000,0.183439
4.349000,-0.901013
4.350000,-1.518335
4.351000,-0.599352
4.352000,-0.500071
4.353000,-0.876829
4.354000,-1.100847
4.355000,-0.855191
4.356000,-1.466149
4.357000,-2.751707
4.358000,-3.867979
4.359000,-4.708047
4.360000,-4.981706
4.361000,-4.817510
4.362000,-4.345291
4.363000,-4.091997
4.364000,-3.801792
4.365000,-3.397032
4.366000,-2.761890
4.367000,-1.379597
4.368000,1.031143
4.369000,1.416811
4.370000,1.078238
4.371000,0.380727
4.372000,-0.480979
4.373000,-0.717725
4.374000,-1.075390
4.375000,-1.100847
4.376000,-1.550156
4.377000,-1.932005
4.378000,-2.247667
4.379000,-2.499687
4.380000,-2.819167
4.381000,-2.984635
4.382000,-2.899356
4.383000,-2.657518
4.384000,-2.377495
4.385000,-2.178934
4.386000,-1.616343
4.387000,-1.347776
4.388000,-1.315955
4.389000,-1.184854
4.390000,-1.063935
4.391000,-1.023204
4.392000,-1.018113
4.393000,-1.126303
4.394000,-1.244677
4.395000,-1.300681
4.396000,-1.251041
4.397000,-1.089391
4.398000,-1.013022
4.399000,-0.932833
4.400000,-0.783912
4.401000,-0.682086
4.402000,-0.508981
4.403000,0.185984
4.404000,0.637839
4.405000,0.538558
4.406000,0.314540
4.407000,-0.223867
4.408000,-1.107211
4.409000,-1.357959
4.410000,-1.186127
4.411000,-1.461058
4.412000,-0.859009
4.413000,-0.839917
4.414000,-0.771184
4.415000,-1.215402
4.416000,-1.895093
4.417000,-2.668973
4.418000,-3.442854
4.419000,-3.344846
4.420000,-2.811530
4.421000,-2.497141
4.422000,-2.441137
4.423000,-2.190389
4.424000,-1.783084
4.425000,-2.047832
4.426000,-2.376223
4.427000,-1.933278
4.428000,-1.588341
4.429000,-1.267588
4.430000,-1.310864
4.431000,-1.581977
4.432000,-1.912912
4.433000,-2.313854
4.434000,-2.578603
4.435000,-2.724978
4.436000,-2.710977
4.437000,-2.406770
4.438000,-2.122929
4.439000,-0.873010
4.440000,0.301812
4.441000,1.185156
4.442000,0.977684
4.443000,0.939500
4.444000,0.315813
4.445000,-0.936652
4.446000,-2.061834
4.447000,-2.909538
4.448000,-3.473402
4.449000,-3.637597
4.450000,-3.498859
4.451000,-2.854807
4.452000,-1.669802
4.453000,-1.258678
4.454000,-1.154306
4.455000,-1.244677
4.456000,-1.425419
4.457000,-1.531063
4.458000,-1.765264
4.459000,-1.827633
4.460000,-1.613797
4.461000,-1.533609
4.462000,-1.523426
4.463000,-1.686349
4.464000,-1.621434
4.465000,-1.100847
4.466000,-0.753364
4.467000,-0.599352
4.468000,-0.619717
4.469000,-0.888284
4.470000,-0.552257
4.471000,-0.633718
4.472000,-1.002839
4.473000,-1.443238
4.474000,-1.762718
4.475000,-1.135213
4.476000,-0.193319
4.477000,0.962411
4.478000,1.704470
4.479000,1.517364
4.480000,0.668387
4.481000,-0.175499
4.482000,-1.727079
4.483000,-3.271022
4.484000,-4.607494
4.485000,-5.389011
4.486000,-5.361009
4.487000,-4.709320
4.488000,-4.093270
4.489000,-3.445400
4.490000,-2.872626
4.491000,-2.494596
4.492000,-2.173843
4.493000,-1.893820
4.494000,-1.580704
4.495000,-0.632445
4.496000,0.138890
4.497000,0.632748
4.498000,0.401092
4.499000,-0.165317
4.500000,-0.750819
4.501000,-1.188672
4.502000,-1.547610
4.503000,-0.977382
4.504000,-0.211139
4.505000,0.210168
4.506000,0.553832
4.507000,-0.060945
4.508000,-0.864101
4.509000,-1.906548
4.510000,-2.484413
4.511000,-3.231564
4.512000,-3.573956
4.513000,-3.725422
4.514000,-3.369030
4.515000,-2.741525
4.516000,-2.416953
4.517000,-2.212027
4.518000,-1.921822
4.519000,-1.730898
4.520000,-1.672348
4.521000,-1.659619
4.522000,-1.753809
4.523000,-1.650709
4.524000,-1.392325
4.525000,-0.842462
4.526000,-0.646447
4.527000,-0.718998
4.528000,-1.014294
4.529000,-1.351594
4.530000,-1.742353
4.531000,-2.009648
4.532000,-2.149659
4.533000,-1.883637
4.534000,-0.571350
4.535000,0.016698
4.536000,0.870767
4.537000,0.824945
4.538000,0.578016
4.539000,-0.200956
4.540000,-1.383415
4.541000,-2.196754
4.542000,-2.909538
4.543000,-3.173014
4.544000,-3.183197
4.545000,-3.005001
4.546000,-2.772073
4.547000,-2.439864
4.548000,-1.947279
4.549000,-1.578158
4.550000,-1.495424
4.551000,-1.422873
4.552000,-1.351594
4.553000,-0.818279
4.554000,0.630202
4.555000,0.789306
4.556000,0.603472
4.557000,0.896223
4.558000,0.438005
4.559000,-0.388062
4.560000,-0.058399
4.561000,0.658204
4.562000,1.169882
4.563000,0.441823
4.564000,-0.773730
4.565000,-2.206936
4.566000,-3.744515
4.567000,-5.065712
4.568000,-5.642304
4.569000,-5.684308
4.570000,-5.073349
4.571000,-2.637153
4.572000,-0.951926
4.573000,-0.071127
4.574000,-0.348604
4.575000,-1.173398
4.576000,-2.360949
4.577000,-3.640143
4.578000,-4.481483
4.579000,-4.475119
4.580000,-4.132728
4.581000,-3.576501
4.582000,-2.710977
4.583000,-1.944733
4.584000,-1.483969
4.585000,-1.130122
4.586000,-0.850099
4.587000,-0.195865
4.588000,0.123616
4.589000,0.038336
4.590000,-0.248051
4.591000,-0.338422
4.592000,1.190247
4.593000,2.857654
4.594000,2.704915
4.595000,1.593734
4.596000,0.121070
4.597000,-1.643072
4.598000,-3.047004
4.599000,-4.019446
4.600000,-4.327471
4.601000,-4.263829
4.602000,-3.884526
4.603000,-3.447945
4.604000,-3.123374
4.605000,-2.766981
4.606000,-2.534053
4.607000,-2.069471
4.608000,-1.615070
4.609000,-1.272679
4.610000,-0.974837
4.611000,-0.814460
4.612000,-0.731726
4.613000,-0.725362
4.614000,-0.706270
4.615000,-0.487343
4.616000,-0.445339
4.617000,-0.276053
4.618000,0.511829
4.619000,2.135960
4.620000,2.197056
4.621000,1.581006
4.622000,0.539831
4.623000,-0.811914
4.624000,-2.349493
4.625000,-3.701239
4.626000,-4.414023
4.627000,-4.514577
4.628000,-3.881980
4.629000,-3.204835
4.630000,-2.544236
4.631000,-1.805995
4.632000,-1.067753
4.633000,-0.903558
4.634000,-0.729181
4.635000,-1.030841
4.636000,-1.627799
4.637000,-2.181480
4.638000,-2.485686
4.639000,-2.278215
4.640000,-2.044014
4.641000,-1.905275
4.642000,0.296720
4.643000,1.376080
4.644000,0.886041
4.645000,0.453279
4.646000,-0.319329
4.647000,-0.771184
4.648000,-1.462331
4.649000,-2.610423
4.650000,-3.348665
4.651000,-4.007991
4.652000,-4.131455
4.653000,-3.965987
4.654000,-3.278659
4.655000,-2.639698
4.656000,-2.201845
4.657000,-1.737262
4.658000,-1.513244
4.659000,-1.599796
4.660000,-1.609979
4.661000,-1.737262
4.662000,-1.867091
4.663000,-1.872182
4.664000,-1.728352
4.665000,-1.685076
4.666000,-1.658346
4.667000,-1.559066
4.668000,-1.480150
4.669000,-1.452148
4.670000,-1.117394
4.671000,-0.480979
4.672000,-0.358787
4.673000,-0.390608
4.674000,-0.713907
4.675000,-1.256132
4.676000,-1.080482
4.677000,-0.483524
4.678000,-0.427520
4.679000,-0.619717
4.680000,-0.809369
4.681000,-1.102120
4.682000,-1.010476
4.683000,-1.240858
4.684000,-0.668085
4.685000,-0.099130
4.686000,0.072702
4.687000,-0.260779
4.688000,-0.540802
4.689000,-0.405882
4.690000,-1.055025
4.691000,-1.705441
4.692000,-1.430510
4.693000,-1.464876
4.694000,-2.217119
4.695000,-2.975725
4.696000,-3.594321
4.697000,-4.071632
4.698000,-4.248555
4.699000,-4.006718
4.700000,-3.432671
4.701000,-2.546782
4.702000,-0.500071
4.703000,0.534740
4.704000,0.548741
4.705000,-0.029124
4.706000,-0.852645
4.707000,-1.655801
4.708000,-2.447501
4.709000,-3.039367
4.710000,-3.159013
4.711000,-2.946450
4.712000,-2.520052
4.713000,-2.191662
4.714000,-1.872182
4.715000,-1.873455
4.716000,-1.938369
4.717000,-1.641800
4.718000,-1.453421
4.719000,-1.131395
4.720000,-0.915014
4.721000,-1.063935
4.722000,-0.851372
4.723000,-0.321875
4.724000,-0.295146
4.725000,-0.344786
4.726000,-0.428793
4.727000,-0.857736
4.728000,-1.510698
4.729000,-1.985464
4.730000,-2.339310
4.731000,-2.689339
4.732000,-2.646063
4.733000,-2.461502
4.734000,-2.125475
4.735000,-1.840361
4.736000,-1.635435
4.737000,-1.453421
4.738000,-1.310864
4.739000,-1.051207
4.740000,-0.795368
4.741000,-0.547166
4.742000,-0.638810
4.743000,-0.606989
4.744000,-0.362606
4.745000,0.187257
4.746000,1.657376
4.747000,1.680287
4.748000,1.066783
4.749000,0.235625
4.750000,-0.799186
4.751000,-2.087290
4.752000,-2.708431
4.753000,-2.215846
4.754000,-0.470796
4.755000,-0.137315
4.756000,-0.483524
4.757000,-1.310864
4.758000,-2.353312
4.759000,-2.836987
4.760000,-3.589230
4.761000,-4.111090
4.762000,-4.207825
4.763000,-3.778881
4.764000,-3.231564
4.765000,-2.947723
4.766000,-2.858625
4.767000,-2.853534
4.768000,-2.514961
4.769000,-1.743626
4.770000,-1.361777
4.771000,-1.476332
4.772000,-1.505607
4.773000,-1.807268
4.774000,-2.283306
4.775000,-2.455138
4.776000,-2.306217
4.777000,-2.158569
4.778000,-1.986737
4.779000,-1.781811
4.780000,-1.650709
4.781000,-1.590886
4.782000,-1.455966
4.783000,-1.310864
4.784000,-0.968473
4.785000,-0.455522
4.786000,0.109614
4.787000,0.068884
4.788000,-0.305328
4.789000,-0.697360
4.790000,-1.102120
4.791000,-1.365596
4.792000,-1.499243
4.793000,-1.631617
4.794000,-1.201400
4.795000,-0.694814
4.796000,-0.342240
4.797000,-0.194592
4.798000,-0.427520
4.799000,-0.647719
4.800000,0.373090
4.801000,0.530921
4.802000,0.352725
4.803000,-0.370242
4.804000,-1.365596
4.805000,-2.329128
4.806000,-2.675338
4.807000,-3.025366
4.808000,-3.463219
4.809000,-3.685965
4.810000,-3.472129
4.811000,-3.198471
4.812000,-3.087735
4.813000,-2.917175
4.814000,-2.708431
4.815000,-2.366040
4.816000,-1.165761
4.817000,-0.408427
4.818000,-0.087674
4.819000,0.033245
4.820000,-0.304055
4.821000,-0.839917
4.822000,-1.532336
4.823000,-1.998192
4.824000,-2.400406
4.825000,-2.528962
4.826000,-2.456411
4.827000,-2.084744
4.828000,-1.578158
4.829000,-1.417782
4.830000,-1.261223
4.831000,-1.030841
4.832000,-0.969745
4.833000,-1.090664
4.834000,-1.229403
4.835000,-1.253586
4.836000,-1.354140
4.837000,-1.436874
4.838000,-1.458512
4.839000,-1.359231
4.840000,-1.159397
4.841000,-0.002395
4.842000,1.857210
4.843000,2.726553
4.844000,2.137233
4.845000,0.879677
4.846000,-0.718998
4.847000,-2.428409
4.848000,-3.632506
4.849000,-4.284195
4.850000,-4.482756
4.851000,-4.397477
4.852000,-3.689783
4.853000,-2.209482
4.854000,-1.618889
4.855000,-1.440693
4.856000,-0.006213
4.857000,1.040053
4.858000,1.454996
4.859000,1.686651
4.860000,0.642930
4.861000,-1.028296
4.862000,-2.816622
4.863000,-4.400022
4.864000,-5.348281
4.865000,-5.726311
4.866000,-5.422105
4.867000,-4.946066
4.868000,-4.272739
4.869000,-3.570137
4.870000,-2.884082
4.871000,-2.158569
4.872000,-1.128849
4.873000,-0.239141
4.874000,0.320904
4.875000,0.495282
4.876000,-0.003667
4.877000,-0.582805
4.878000,-1.186127
4.879000,-1.704168
4.880000,-2.054197
4.881000,-2.045287
4.882000,-1.890001
4.883000,-1.763991
4.884000,-1.584522
4.885000,-1.393598
4.886000,-0.810642
4.887000,-0.358787
4.888000,-0.309147
4.889000,-0.440248
4.890000,-0.620990
4.891000,-0.801732
4.892000,-0.955744
4.893000,-1.154306
4.894000,-1.217947
4.895000,-1.249768
4.896000,-1.228130
4.897000,-1.049934
4.898000,-0.771184
4.899000,0.040882
4.900000,0.732028
4.901000,0.681115
4.902000,0.009061
4.903000,-0.738090
4.904000,-1.606160
4.905000,-2.255304
4.906000,-2.792438
4.907000,-2.797529
4.908000,-2.651154
4.909000,-2.419499
4.910000,-1.655801
4.911000,-1.443238
4.912000,-1.056298
4.913000,-0.217503
4.914000,-0.396972
4.915000,-0.253142
4.916000,-0.352423
4.917000,-1.076663
4.918000,-1.988009
4.919000,-2.833169
4.920000,-3.408488
4.921000,-3.842523
4.922000,-3.892163
4.923000,-3.702511
4.924000,-3.431399
4.925000,-3.072461
4.926000,-2.684247
4.927000,-1.329956
4.928000,-0.564985
4.929000,-0.040580
4.930000,0.101977
4.931000,-0.236595
4.932000,0.152891
4.933000,0.180893
4.934000,-0.382971
4.935000,-0.906104
4.936000,-1.640527
4.937000,-2.213300
4.938000,-1.566703
4.939000,-0.853918
4.940000,-0.129678
4.941000,-0.465705
4.942000,-1.207765
4.943000,-2.268032
4.944000,-3.077552
4.945000,-3.831067
4.946000,-4.140365
4.947000,-3.769971
4.948000,-3.619777
4.949000,-3.517951
4.950000,-3.166650
4.951000,-2.726251
4.952000,-2.260395
4.953000,-1.982918
4.954000,-1.832724
4.955000,-1.480150
4.956000,-1.228130
4.957000,-1.061389
4.958000,-0.875556
4.959000,-0.704997
4.960000,-0.592988
4.961000,-0.124586
4.962000,0.070157
4.963000,-0.062218
4.964000,-0.386789
4.965000,-0.693541
4.966000,-0.911195
4.967000,-1.370687
4.968000,-1.682530
4.969000,-1.744899
4.970000,-1.719442
4.971000,-1.685076
4.972000,-1.576885
4.973000,-1.248495
4.974000,-0.376607
4.975000,-0.209866
4.976000,-0.155134
4.977000,-0.246778
4.978000,-0.576441
4.979000,-1.027023
4.980000,-1.523426
4.981000,-1.837815
4.982000,-2.052924
4.983000,-2.296034
4.984000,-2.383860
4.985000,-2.198026
4.986000,-1.890001
4.987000,-1.118667
4.988000,-0.416064
4.989000,-0.358787
4.990000,-0.483524
4.991000,-0.724089
4.992000,-1.085573
4.993000,-1.743626
4.994000,-1.679985
4.995000,-1.345230
4.996000,-1.273952
4.997000,-1.359231
4.998000,-1.561611
4.999000,-1.879819
5.000000,-2.313854
5.001000,-2.637153
5.002000,-2.685520
5.003000,-2.672792
5.004000,-2.582421
5.005000,-2.358403
5.006000,-1.742353
5.007000,-0.124586
5.008000,0.634020
5.009000,0.795670
5.010000,0.614928
5.011000,-0.324421
5.012000,-1.478877
5.013000,-2.532781
5.014000,-3.063551
5.015000,-3.090280
5.016000,-2.974453
5.017000,-2.148386
5.018000,-0.892103
5.019000,-0.120768
5.020000,-0.717725
5.021000,-1.702895
5.022000,-2.282033
5.023000,-2.849715
5.024000,-2.990999
5.025000,-2.966816
5.026000,-2.854807
5.027000,-2.517507
5.028000,-2.357130
5.029000,-2.264214
5.030000,-1.976554
5.031000,-1.776720
5.032000,-1.663438
5.033000,-1.757627
5.034000,-1.807268
5.035000,-1.809813
5.036000,-1.732171
5.037000,-1.583249
5.038000,-1.503061
5.039000,-1.336320
5.040000,-1.265042
5.041000,-1.205219
5.042000,-1.214129
5.043000,-1.141577
5.044000,-0.864101
5.045000,-0.624808
5.046000,0.561469
5.047000,0.939500
5.048000,0.572925
5.049000,-0.058399
5.050000,-0.893376
5.051000,-1.649437
5.052000,-2.260395
5.053000,-2.528962
5.054000,-2.332946
5.055000,-2.242575
5.056000,-2.028740
5.057000,-0.991384
5.058000,-0.503890
5.059000,-0.654084
5.060000,-0.973564
5.061000,-1.042297
5.062000,-1.286680
5.063000,-1.459785
5.064000,-1.788175
5.065000,-2.201845
5.066000,-2.442410
5.067000,-2.688066
5.068000,-2.797529
5.069000,-2.623152
5.070000,-2.330401
5.071000,-2.032558
5.072000,-1.846725
5.073000,-1.519608
5.074000,-1.397416
5.075000,-1.313410
5.076000,0.007788
5.077000,1.923397
5.078000,2.057044
5.079000,1.488089
5.080000,0.536012
5.081000,-0.618444
5.082000,-1.970190
5.083000,-3.039367
5.084000,-3.344846
5.085000,-3.554863
5.086000,-3.362666
5.087000,-2.904447
5.088000,-2.418226
5.089000,-2.352039
5.090000,-2.562056
5.091000,-2.716068
5.092000,-2.411862
5.093000,-1.952370
5.094000,-1.935823
5.095000,-2.112747
5.096000,-1.357959
5.097000,-0.365151
5.098000,0.150345
5.099000,0.654386
5.100000,0.197440
5.101000,-0.426247
5.102000,-1.310864
5.103000,-1.646891
5.104000,-1.911640
5.105000,-2.163660
5.106000,-1.105938
5.107000,-0.778821
5.108000,-1.006657
5.109000,-1.538700
5.110000,-2.212027
5.111000,-2.960452
5.112000,-3.543408
5.113000,-3.575228
5.114000,-3.212472
5.115000,-2.620606
5.116000,-2.240030
5.117000,-2.089836
5.118000,-1.830178
5.119000,-1.583249
5.120000,-1.352867
5.121000,-1.174671
5.122000,-0.968473
5.123000,-0.819551
5.124000,-1.027023
5.125000,-1.178490
5.126000,-1.200128
5.127000,-1.153033
5.128000,-1.318501
5.129000,-1.009203
5.130000,-0.241687
5.131000,0.072702
5.132000,-0.011304
5.133000,-0.258233
5.134000,-0.562440
5.135000,-0.158953
5.136000,1.252616
5.137000,1.527547
5.138000,0.730755
5.139000,-0.298964
5.140000,-1.515789
5.141000,-2.829350
5.142000,-4.172186
5.143000,-4.979160
5.144000,-5.189177
5.145000,-4.883698
5.146000,-4.402568
5.147000,-3.552317
5.148000,-2.852261
5.149000,-2.416953
5.150000,-1.877273
5.151000,-1.378324
5.152000,-0.706270
5.153000,0.715481
5.154000,1.187701
5.155000,0.597108
5.156000,-0.232777
5.157000,-0.300237
5.158000,0.868221
5.159000,0.827491
5.160000,0.080339
5.161000,-0.822097
5.162000,-1.483969
5.163000,-1.763991
5.164000,-2.615515
5.165000,-3.433944
5.166000,-3.962169
5.167000,-3.823430
5.168000,-3.586684
5.169000,-3.445400
5.170000,-3.334664
5.171000,-3.301570
5.172000,-3.007546
5.173000,-2.066925
5.174000,-1.231948
5.175000,-0.771184
5.176000,-0.414792
5.177000,-0.326966
5.178000,-0.660448
5.179000,-0.782639
5.180000,-0.964654
5.181000,-1.093210
5.182000,-0.711361
5.183000,-0.139860
5.184000,-0.297691
5.185000,-0.697360
5.186000,-1.183581
5.187000,-1.697804
5.188000,-2.164933
5.189000,-2.546782
5.190000,-2.446228
5.191000,-2.060561
5.192000,-1.813632
5.193000,-1.664711
5.194000,-1.403780
5.195000,-0.996475
5.196000,-0.916287
5.197000,-0.992656
5.198000,-1.121212
5.199000,-1.261223
5.200000,-1.478877
5.201000,-1.743626
5.202000,-1.916731
5.203000,-1.926914
5.204000,-1.909094
5.205000,-1.765264
5.206000,-1.659619
5.207000,-1.514517
5.208000,-1.239585
5.209000,-1.153033
5.210000,-1.193763
5.211000,-1.256132
5.212000,-1.112302
5.213000,-0.015123
5.214000,0.552559
5.215000,1.160972
5.216000,1.409174
5.217000,0.765122
5.218000,-0.239141
5.219000,-1.598523
5.220000,-2.605332
5.221000,-3.209926
5.222000,-3.633779
5.223000,-3.819612
5.224000,-3.780154
5.225000,-3.502677
5.226000,-3.332118
5.227000,-3.204835
5.228000,-2.373677
5.229000,-1.626526
5.230000,-1.286680
5.231000,-1.147942
5.232000,-0.538256
5.233000,0.369272
5.234000,0.761303
5.235000,0.446914
5.236000,-0.158953
5.237000,-0.990111
5.238000,-1.690167
5.239000,-2.369858
5.240000,-2.708431
5.241000,-2.441137
5.242000,-1.553974
5.243000,-0.758456
5.244000,-0.806823
5.245000,-1.047388
5.246000,-1.434328
5.247000,-1.981645
5.248000,-2.546782
5.249000,-3.054641
5.250000,-2.646063
5.251000,-1.458512
5.252000,-1.159397
5.253000,-0.852645
5.254000,-0.620990
5.255000,-0.713907
5.256000,-0.996475
5.257000,-1.261223
5.258000,-1.682530
5.259000,-2.355857
5.260000,-2.819167
5.261000,-3.155194
5.262000,-3.337209
5.263000,-2.218392
5.264000,-0.757183
5.265000,-0.175499
5.266000,-0.060945
5.267000,-0.311692
5.268000,-0.884466
5.269000,-1.780538
5.270000,-2.756799
5.271000,-3.258294
5.272000,-3.362666
5.273000,-3.089007
5.274000,-2.741525
5.275000,-2.450047
5.276000,-2.036377
5.277000,-1.748717
5.278000,-1.122485
5.279000,-0.767365
5.280000,-0.619717
5.281000,-0.687177
5.282000,-0.096584
5.283000,0.113433
5.284000,-0.017669
5.285000,-0.377879
5.286000,-0.908650
5.287000,-1.401235
5.288000,-1.830178
5.289000,-1.998192
5.290000,-1.546337
5.291000,-1.519608
5.292000,-1.405053
5.293000,-1.335048
5.294000,-1.294317
5.295000,-1.444511
5.296000,-1.840361
5.297000,-1.984191
5.298000,-2.050378
5.299000,-2.084744
5.300000,-1.904003
5.301000,-1.747445
5.302000,-1.461058
5.303000,-1.077936
5.304000,-1.028296
5.305000,-1.019386
5.306000,-1.085573
5.307000,-1.282862
5.308000,-1.531063
5.309000,-1.672348
5.310000,-1.622707
5.311000,-1.417782
5.312000,-0.124586
5.313000,0.359089
5.314000,0.090522
5.315000,-0.464432
5.316000,-0.822097
5.317000,-1.398689
5.318000,-0.843735
5.319000,0.852947
5.320000,0.758758
5.321000,-0.081310
5.322000,-1.186127
5.323000,-2.254031
5.324000,-2.996091
5.325000,-3.377940
5.326000,-3.183197
5.327000,-3.244293
5.328000,-3.188288
5.329000,-3.067369
5.330000,-3.216290
5.331000,-3.281205
5.332000,-3.136102
5.333000,-2.817895
5.334000,-1.548883
5.335000,-0.067309
5.336000,1.092239
5.337000,1.400264
5.338000,0.928044
5.339000,-0.353696
5.340000,-2.008375
5.341000,-3.393214
5.342000,-4.122545
5.343000,-4.083088
5.344000,-3.776336
5.345000,-3.180651
5.346000,-2.013466
5.347000,-1.749990
5.348000,-1.789448
5.349000,-1.720715
5.350000,-1.564157
5.351000,-1.601069
5.352000,-1.613797
5.353000,-0.650265
5.354000,0.070157
5.355000,-0.071127
5.356000,-0.547166
5.357000,-1.167034
5.358000,-1.637981
5.359000,-2.192935
5.360000,-1.574340
5.361000,-1.546337
5.362000,-1.588341
5.363000,-1.613797
5.364000,-1.555247
5.365000,-1.477605
5.366000,-1.691440
5.367000,-1.928186
5.368000,-1.999465
5.369000,-1.918004
5.370000,-1.758900
5.371000,-1.534882
5.372000,-1.109757
5.373000,0.141435
5.374000,0.737120
5.375000,0.435459
5.376000,-0.045671
5.377000,-0.643901
5.378000,-1.352867
5.379000,-1.846725
5.380000,-2.084744
5.381000,-2.093654
5.382000,-1.621434
5.383000,-1.588341
5.384000,-1.737262
5.385000,-1.818723
5.386000,-1.671075
5.387000,-1.116121
5.388000,-0.953199
5.389000,-0.833553
5.390000,-0.918832
5.391000,-1.200128
5.392000,-1.681257
5.393000,-2.285852
5.394000,-2.727524
5.395000,-2.961724
5.396000,-2.864989
5.397000,-2.553146
5.398000,-2.271850
5.399000,-1.996919
5.400000,-1.828906
5.401000,-1.707987
5.402000,-1.716897
5.403000,-1.816177
5.404000,-1.590886
5.405000,-0.838644
5.406000,1.183883
5.407000,2.251787
5.408000,2.589087
5.409000,1.858483
5.410000,0.607291
5.411000,-0.795368
5.412000,-2.377495
5.413000,-3.600685
5.414000,-4.333835
5.415000,-4.151820
5.416000,-3.889617
5.417000,-3.692329
5.418000,-3.234110
5.419000,-2.770800
5.420000,-2.405498
5.421000,-1.669802
5.422000,-1.206492
5.423000,-0.489889
5.424000,0.020516
5.425000,0.104523
5.426000,1.061691
5.427000,1.069328
5.428000,0.263627
5.429000,-0.908650
5.430000,-1.836543
5.431000,-2.548055
5.432000,-3.142466
5.433000,-3.405942
5.434000,-3.351210
5.435000,-3.240474
5.436000,-3.080098
5.437000,-2.892992
5.438000,-2.822986
5.439000,-2.632061
5.440000,-2.402952
5.441000,-1.874728
5.442000,-1.262496
5.443000,-0.324421
5.444000,0.453279
5.445000,0.415094
5.446000,0.516920
5.447000,0.903860
5.448000,0.502919
5.449000,-0.472069
5.450000,-1.429237
5.451000,-2.374950
5.452000,-2.829350
5.453000,-2.604059
5.454000,-2.612969
5.455000,-2.577330
5.456000,-2.675338
5.457000,-2.531508
5.458000,-2.222210
5.459000,-2.018557
5.460000,-2.017284
5.461000,-1.840361
5.462000,-1.818723
5.463000,-1.823814
5.464000,-1.668529
5.465000,-1.490333
5.466000,-1.357959
5.467000,-1.275225
5.468000,-0.452976
5.469000,0.276355
5.470000,1.234796
5.471000,1.625555
5.472000,1.623009
5.473000,0.956046
5.474000,-0.194592
5.475000,-0.801732
5.476000,-1.524699
5.477000,-2.433500
5.478000,-2.982090
5.479000,-3.203562
5.480000,-3.026639
5.481000,-3.259567
5.482000,-3.248111
5.483000,-3.148830
5.484000,-2.948996
5.485000,-2.784801
5.486000,-2.635880
5.487000,-1.999465
5.488000,-1.742353
5.489000,-1.621434
5.490000,-1.702895
5.491000,-1.541246
5.492000,-1.431783
5.493000,-1.539973
5.494000,-0.811914
5.495000,-0.076219
5.496000,0.033245
5.497000,-0.438975
5.498000,-0.960836
5.499000,-1.469968
5.500000,-1.979100
5.501000,-2.467866
5.502000,-2.705886
5.503000,-2.545509
5.504000,-2.196754
5.505000,-1.403780
5.506000,-0.704997
5.507000,-0.529346
5.508000,-0.608262
5.509000,-0.711361
5.510000,0.331087
5.511000,1.033689
5.512000,0.936954
5.513000,0.396001
5.514000,-0.274780
5.515000,-1.305773
5.516000,-2.428409
5.517000,-3.209926
5.518000,-3.618505
5.519000,-3.750879
5.520000,-3.460674
5.521000,-3.185742
5.522000,-2.810258
5.523000,-1.821269
5.524000,-1.201400
5.525000,-0.726635
5.526000,-0.011304
5.527000,0.548741
5.528000,0.418912
5.529000,-0.259506
5.530000,-1.061389
5.531000,-1.970190
5.532000,-2.737706
5.533000,-3.167923
5.534000,-2.640971
5.535000,-1.739808
5.536000,-1.088119
5.537000,-0.804278
5.538000,-0.758456
5.539000,0.127434
5.540000,-0.186955
5.541000,-1.191218
5.542000,-2.056742
5.543000,-2.568420
5.544000,-3.031730
5.545000,-3.596867
5.546000,-3.800519
5.547000,-3.622323
5.548000,-3.539589
5.549000,-2.875172
5.550000,-2.017284
5.551000,-1.704168
5.552000,-1.537428
5.553000,-1.221766
5.554000,-0.704997
5.555000,-0.615899
5.556000,-0.757183
5.557000,-0.758456
5.558000,-0.747000
5.559000,-0.851372
5.560000,-1.169580
5.561000,-1.379597
5.562000,-1.509425
5.563000,-1.219220
5.564000,-1.153033
5.565000,-1.226857
5.566000,-1.394871
5.567000,-1.555247
5.568000,-1.674893
5.569000,-1.723261
5.570000,-1.706714
5.571000,-1.713078
5.572000,-1.681257
5.573000,-1.453421
5.574000,-1.108484
5.575000,-0.929015
5.576000,-0.936652
5.577000,-1.057571
5.578000,-1.279043
5.579000,-1.481423
5.580000,-1.667256
5.581000,-1.695259
5.582000,-1.514517
5.583000,-1.341412
5.584000,-1.343957
5.585000,-1.105938
5.586000,-0.913741
5.587000,0.028153
5.588000,0.690025
5.589000,0.471098
5.590000,0.782941
5.591000,0.800761
5.592000,1.050236
5.593000,0.852947
5.594000,-0.236595
5.595000,-1.486514
5.596000,-2.352039
5.597000,-2.590058
5.598000,-3.409760
5.599000,-3.710148
5.600000,-3.941803
5.601000,-4.256192
5.602000,-4.192551
5.603000,-4.151820
5.604000,-4.104726
5.605000,-4.019446
5.606000,-3.633779
5.607000,-3.171741
5.608000,-2.399133
5.609000,-1.566703
5.610000,-0.837371
5.611000,-0.478433
5.612000,-0.321875
5.613000,-0.251869
5.614000,-0.026578
5.615000,0.278901
5.616000,0.149072
5.617000,-0.211139
5.618000,-0.825916
5.619000,-1.463603
5.620000,-2.018557
5.621000,-2.464048
5.622000,-2.787347
5.623000,-2.884082
5.624000,-2.565874
5.625000,-2.114020
5.626000,-1.763991
5.627000,-1.517062
5.628000,-1.426691
5.629000,-1.231948
5.630000,-0.731726
5.631000,-0.545893
5.632000,-0.451704
5.633000,0.235625
5.634000,0.482554
5.635000,0.059974
5.636000,-0.582805
5.637000,-1.177217
5.638000,-1.352867
5.639000,-1.883637
5.640000,-2.414407
5.641000,-2.675338
5.642000,-2.763163
5.643000,-2.714795
5.644000,-2.567147
5.645000,-2.441137
5.646000,-2.419499
5.647000,-2.181480
5.648000,-1.915458
5.649000,-0.558621
5.650000,0.753666
5.651000,1.777022
5.652000,1.735018
5.653000,0.900042
5.654000,-0.155134
5.655000,-0.894648
5.656000,-1.846725
5.657000,-2.736433
5.658000,-3.343573
5.659000,-3.524315
5.660000,-3.674509
5.661000,-3.708876
5.662000,-3.664326
5.663000,-3.426307
5.664000,-3.132284
5.665000,-2.731342
5.666000,-2.226029
5.667000,-1.723261
5.668000,-1.377051
5.669000,-0.968473
5.670000,-0.585351
5.671000,-0.358787
5.672000,-0.482252
5.673000,-0.767365
5.674000,-0.995202
5.675000,-1.258678
5.676000,-1.231948
5.677000,-1.037205
5.678000,-0.775002
5.679000,-0.372788
5.680000,0.541104
5.681000,1.349351
5.682000,1.932307
5.683000,1.802478
5.684000,0.714209
5.685000,-0.570077
5.686000,-1.984191
5.687000,-3.300297
5.688000,-4.337654
5.689000,-4.762779
5.690000,-4.151820
5.691000,-3.603231
5.692000,-3.355029
5.693000,-2.915902
5.694000,-2.511143
5.695000,-1.112302
5.696000,-0.293873
5.697000,-0.111858
5.698000,-0.666812
5.699000,-0.795368
5.700000,-1.011749
5.701000,-1.743626
5.702000,-2.296034
5.703000,-2.882809
5.704000,-2.666428
5.705000,-2.383860
5.706000,-2.302398
5.707000,-2.208209
5.708000,-1.994374
5.709000,-1.837815
5.710000,-1.905275
5.711000,-1.861999
5.712000,-1.856908
5.713000,-1.683803
5.714000,-1.538700
5.715000,-1.375778
5.716000,-1.202673
5.717000,-1.066480
5.718000,-1.186127
5.719000,-1.118667
5.720000,-0.680813
5.721000,-0.337149
5.722000,-0.326966
5.723000,-0.548439
5.724000,-0.878102
5.725000,-1.206492
5.726000,-1.532336
5.727000,-1.823814
5.728000,-1.995646
5.729000,-2.072016
5.730000,-1.893820
5.731000,-1.356686
5.732000,-0.884466
5.733000,-0.754637
5.734000,-0.859009
5.735000,-1.023204
5.736000,-1.104665
5.737000,-0.685904
5.738000,0.053610
5.739000,-0.015123
5.740000,-0.552257
5.741000,-1.350322
5.742000,-2.186571
5.743000,-2.797529
5.744000,-2.997364
5.745000,-3.115737
5.746000,-2.970634
5.747000,-2.806439
5.748000,-2.492050
5.749000,-2.003283
5.750000,-1.856908
5.751000,-1.519608
5.752000,-0.632445
5.753000,-0.394426
5.754000,-0.430065
5.755000,-0.694814
5.756000,-0.600625
5.757000,-0.652811
5.758000,-1.062662
5.759000,-1.319774
5.760000,-1.578158
5.761000,-1.454694
5.762000,-0.759728
5.763000,-0.879374
5.764000,-1.001566
5.765000,-0.040580
5.766000,0.782941
5.767000,1.188974
5.768000,0.980230
5.769000,-0.259506
5.770000,-1.884910
5.771000,-3.229019
5.772000,-4.024537
5.773000,-4.386021
5.774000,-4.743686
5.775000,-4.728412
5.776000,-4.384748
5.777000,-3.968533
5.778000,-3.750879
5.779000,-3.492494
5.780000,-3.104281
5.781000,-2.755526
5.782000,-2.287124
5.783000,-1.727079
5.784000,-1.394871
5.785000,-1.095756
5.786000,-0.847554
5.787000,-0.562440
5.788000,-0.516618
5.789000,-0.622263
5.790000,-0.696087
5.791000,-0.706270
5.792000,-0.772457
5.793000,-0.831007
5.794000,-0.823370
5.795000,-0.753364
5.796000,-0.732999
5.797000,-0.483524
5.798000,-0.256961
5.799000,1.251343
5.800000,1.813934
5.801000,1.523729
5.802000,2.589087
5.803000,2.125777
5.804000,0.746029
5.805000,-0.850099
5.806000,-2.418226
5.807000,-3.797974
5.808000,-4.865878
5.809000,-5.335552
5.810000,-5.401739
5.811000,-5.047893
5.812000,-4.291832
5.813000,-3.407215
5.814000,-2.759344
5.815000,-2.621879
5.816000,-2.551873
5.817000,-2.074562
5.818000,-0.932833
5.819000,-0.120768
5.820000,0.066338
5.821000,-0.167863
5.822000,-0.365151
5.823000,-0.799186
5.824000,-0.357514
5.825000,1.069328
5.826000,1.233523
5.827000,0.687479
5.828000,-0.181864
5.829000,-1.403780
5.830000,-2.550600
5.831000,-3.572683
5.832000,-4.151820
5.833000,-4.135274
5.834000,-3.573956
5.835000,-2.816622
5.836000,-1.519608
5.837000,-0.706270
5.838000,-0.704997
5.839000,-0.995202
5.840000,-1.244677
5.841000,-1.723261
5.842000,-2.164933
5.843000,-2.476776
5.844000,-2.572238
5.845000,-2.628243
5.846000,-2.497141
5.847000,-2.344402
5.848000,-2.163660
5.849000,-1.942188
5.850000,-1.755082
5.851000,-1.295590
5.852000,-1.035933
5.853000,-0.912468
5.854000,-0.800459
5.855000,-0.729181
5.856000,-0.766093
5.857000,-0.800459
5.858000,-0.876829
5.859000,-0.964654
5.860000,-1.013022
5.861000,-1.009203
5.862000,-0.929015
5.863000,-0.941743
5.864000,-1.119939
5.865000,-0.764820
5.866000,-0.618444
5.867000,-0.619717
5.868000,-0.763547
5.869000,-1.032114
5.870000,-1.357959
5.871000,-1.658346
5.872000,-1.831451
5.873000,-1.719442
5.874000,-0.725362
5.875000,-0.293873
5.876000,-0.459341
5.877000,-0.841190
5.878000,-0.710088
5.879000,-0.777548
5.880000,-1.006657
5.881000,-1.133940
5.882000,-1.702895
5.883000,-2.396588
5.884000,-3.101736
5.885000,-3.498859
5.886000,-3.141193
5.887000,-2.772073
5.888000,-2.588785
5.889000,-2.341856
5.890000,-2.196754
5.891000,-2.103837
5.892000,-1.556520
5.893000,-0.755910
5.894000,-0.068582
5.895000,0.751121
5.896000,0.844037
5.897000,0.179620
5.898000,0.662023
5.899000,0.159255
5.900000,-0.696087
5.901000,-1.459785
5.902000,-2.371131
5.903000,-3.198471
5.904000,-3.897254
5.905000,-4.128909
5.906000,-4.271466
5.907000,-4.004172
5.908000,-3.330845
5.909000,-2.698249
5.910000,-2.336765
5.911000,-2.171297
5.912000,-2.108928
5.913000,-1.966371
5.914000,-1.961280
5.915000,-1.221766
5.916000,0.625111
5.917000,1.257707
5.918000,1.994676
5.919000,1.791023
5.920000,1.373535
5.921000,0.698935
5.922000,-0.498798
5.923000,-1.762718
5.924000,-3.022820
5.925000,-3.915074
5.926000,-4.377111
5.927000,-4.589674
5.928000,-4.520941
5.929000,-4.242191
5.930000,-3.395759
5.931000,-2.442410
5.932000,-1.986737
5.933000,-1.626526
5.934000,-1.429237
5.935000,-0.954471
5.936000,-0.827188
5.937000,-0.711361
5.938000,-0.755910
5.939000,-1.032114
5.940000,-1.201400
5.941000,-1.223039
5.942000,-1.178490
5.943000,-1.128849
5.944000,-1.057571
5.945000,-0.857736
5.946000,-0.501344
5.947000,-0.507708
5.948000,-0.690996
5.949000,-0.889557
5.950000,-1.044842
5.951000,-1.080482
5.952000,-1.247222
5.953000,-1.411417
5.954000,-0.916287
5.955000,-0.722816
5.956000,-0.842462
5.957000,-0.939197
5.958000,-1.197582
5.959000,-1.566703
5.960000,-1.882365
5.961000,-1.713078
5.962000,-1.216674
5.963000,-0.781367
5.964000,-0.738090
5.965000,-1.030841
5.966000,-1.438147
5.967000,-1.865818
5.968000,-2.302398
5.969000,-2.368586
5.970000,-2.178934
5.971000,-2.035104
5.972000,-1.762718
5.973000,-1.279043
5.974000,-1.257405
5.975000,-1.710532
5.976000,-1.641800
5.977000,-1.011749
5.978000,-0.022760
5.979000,0.742211
5.980000,0.464734
5.981000,-0.248051
5.982000,-1.309591
5.983000,-2.415680
5.984000,-3.474675
5.985000,-4.123818
5.986000,-4.384748
5.987000,-3.834886
5.988000,-2.812803
5.989000,-2.065652
5.990000,-1.766537
5.991000,-1.631617
5.992000,-1.623980
5.993000,-0.287509
5.994000,0.776577
5.995000,1.265344
5.996000,0.896223
5.997000,-0.013850
5.998000,-1.249768
5.999000,-2.521325
6.000000,-3.403396
6.001000,-3.766153
6.002000,-3.899800
6.003000,-3.759789
6.004000,-3.535771
6.005000,-3.110645
6.006000,-2.404225
6.007000,0.145254
6.008000,2.839835
6.009000,3.784275
6.010000,3.296781
6.011000,1.825389
6.012000,-0.184409
6.013000,-2.181480
6.014000,-3.903619
6.015000,-5.021163
6.016000,-5.471745
6.017000,-5.260455
6.018000,-4.673681
6.019000,-3.991444
6.020000,-3.384304
6.021000,-2.951542
6.022000,-2.492050
6.023000,-1.949824
6.024000,-1.438147
6.025000,-1.020659
6.026000,-0.270962
6.027000,0.152891
6.028000,0.208895
6.029000,0.052337
6.030000,-0.144952
6.031000,-0.433884
6.032000,-0.783912
6.033000,-1.119939
6.034000,-1.350322
6.035000,-1.452148
6.036000,-1.463603
6.037000,-1.445784
6.038000,-1.319774
6.039000,-1.163216
6.040000,-1.248495
6.041000,-1.463603
6.042000,-1.099574
6.043000,-0.627354
6.044000,0.156709
6.045000,0.219078
6.046000,-0.048216
6.047000,-0.693541
6.048000,-1.529791
6.049000,-2.313854
6.050000,-2.730069
6.051000,-3.069915
6.052000,-3.157740
6.053000,-3.027911
6.054000,-2.534053
6.055000,-2.037650
6.056000,-1.615070
6.057000,-1.177217
6.058000,-0.843735
6.059000,-0.762274
6.060000,-0.780094
6.061000,-0.939197
6.062000,-1.234494
6.063000,-1.550156
6.064000,-1.575612
6.065000,-1.510698
6.066000,-1.655801
6.067000,-1.393598
6.068000,-1.102120
6.069000,-0.890830
6.070000,-1.002839
6.071000,-1.183581
6.072000,-1.438147
6.073000,-1.513244
6.074000,-1.620162
6.075000,-1.882365
6.076000,-1.606160
6.077000,-0.044398
6.078000,0.444369
6.079000,0.219078
6.080000,-0.006213
6.081000,0.166892
6.082000,0.901315
6.083000,0.430368
6.084000,-0.529346
6.085000,-1.637981
6.086000,-2.834441
6.087000,-3.815793
6.088000,-4.240918
6.089000,-4.104726
6.090000,-3.890890
6.091000,-3.590502
6.092000,-3.258294
6.093000,-2.441137
6.094000,-1.760173
6.095000,-1.972735
6.096000,-2.238757
6.097000,-2.387678
6.098000,-2.714795
6.099000,-2.996091
6.100000,-3.141193
6.101000,-2.924812
6.102000,-2.600241
6.103000,-2.227301
6.104000,-1.989282
6.105000,-1.677439
6.106000,-1.520881
6.107000,-1.193763
6.108000,-0.982474
6.109000,-0.828461
6.110000,-0.591715
6.111000,-0.162771
6.112000,-0.212412
6.113000,-0.351150
6.114000,-0.460613
6.115000,-0.480979
6.116000,-0.520436
6.117000,-0.904831
6.118000,-1.262496
6.119000,-1.441965
6.120000,-1.480150
6.121000,-1.496697
6.122000,-1.427964
6.123000,-1.461058
6.124000,-0.530619
6.125000,0.425276
6.126000,0.599654
6.127000,0.367999
6.128000,-0.116949
6.129000,-0.963381
6.130000,-1.814905
6.131000,-2.371131
6.132000,-2.751707
6.133000,-2.817895
6.134000,-2.640971
6.135000,-2.192935
6.136000,-1.538700
6.137000,-0.806823
6.138000,-0.936652
6.139000,-0.999020
6.140000,-1.156851
6.141000,-1.632890
6.142000,-1.938369
6.143000,-1.970190
6.144000,-2.018557
6.145000,-2.069471
6.146000,-2.065652
6.147000,-2.100018
6.148000,-1.673620
6.149000,-0.610807
6.150000,0.412548
6.151000,1.003141
6.152000,1.526274
6.153000,1.107513
6.154000,0.062520
6.155000,-0.057126
6.156000,-0.083856
6.157000,-0.969745
6.158000,-2.251485
6.159000,-3.352483
6.160000,-4.242191
6.161000,-5.032619
6.162000,-5.508657
6.163000,-5.513748
6.164000,-5.203178
6.165000,-4.330017
6.166000,-3.334664
6.167000,-2.415680
6.168000,-1.819996
6.169000,-1.655801
6.170000,-1.490333
6.171000,-1.169580
6.172000,-0.659175
6.173000,-0.547166
6.174000,-0.799186
6.175000,-1.009203
6.176000,-1.197582
6.177000,-1.416509
6.178000,-1.667256
6.179000,-1.770355
6.180000,-1.854362
6.181000,-1.791994
6.182000,-1.520881
6.183000,-1.345230
6.184000,-1.080482
6.185000,-0.867919
6.186000,-0.824643
6.187000,-0.867919
6.188000,-0.827188
6.189000,-0.118222
6.190000,0.448187
6.191000,0.168165
6.192000,-0.366424
6.193000,-0.464432
6.194000,-0.514072
6.195000,-0.834825
6.196000,-0.669358
6.197000,-0.717725
6.198000,-1.016840
6.199000,-1.413963
6.200000,-1.828906
6.201000,-2.184025
6.202000,-2.588785
6.203000,-2.843351
6.204000,-2.844624
6.205000,-2.563329
6.206000,-1.029568
6.207000,-0.100403
6.208000,-0.017669
6.209000,-0.321875
6.210000,-0.920105
6.211000,-1.674893
6.212000,-1.882365
6.213000,-1.751263
6.214000,-1.682530
6.215000,-1.454694
6.216000,-0.407155
6.217000,-0.034215
6.218000,-0.010032
6.219000,-0.631173
6.220000,-1.687622
6.221000,-2.586239
6.222000,-3.477220
6.223000,-4.019446
6.224000,-4.037266
6.225000,-3.817066
6.226000,-3.440308
6.227000,-2.968088
6.228000,-2.232393
6.229000,-1.835270
6.230000,-1.672348
6.231000,-1.508152
6.232000,-1.422873
6.233000,-0.500071
6.234000,0.239443
6.235000,1.031143
6.236000,1.056600
6.237000,0.523284
6.238000,-0.226413
6.239000,-0.660448
6.240000,-1.392325
6.241000,-2.310035
6.242000,-3.029184
6.243000,-3.281205
6.244000,-2.374950
6.245000,-0.521709
6.246000,0.740938
6.247000,1.048963
6.248000,0.286538
6.249000,-0.995202
6.250000,-2.444955
6.251000,-3.687237
6.252000,-4.473846
6.253000,-4.804782
6.254000,-4.492939
6.255000,-3.576501
6.256000,-2.936268
6.257000,-2.458956
6.258000,-2.410589
6.259000,-2.213300
6.260000,-1.631617
6.261000,-0.517891
6.262000,0.184711
6.263000,0.119797
6.264000,-0.284963
6.265000,-0.752091
6.266000,-1.173398
6.267000,-1.763991
6.268000,-2.257849
6.269000,-2.540418
6.270000,-2.621879
6.271000,-2.397861
6.272000,-2.231120
6.273000,-1.923095
6.274000,-1.167034
6.275000,-0.750819
6.276000,-0.232777
6.277000,-0.138587
6.278000,0.057428
6.279000,0.101977
6.280000,-0.157680
6.281000,-0.512799
6.282000,-0.792822
6.283000,-1.032114
6.284000,-1.174671
6.285000,-1.489060
6.286000,-1.715624
6.287000,-1.823814
6.288000,-1.892547
6.289000,-1.890001
6.290000,-1.870909
6.291000,-1.937096
6.292000,-1.930732
6.293000,-1.817450
6.294000,-1.735989
6.295000,-1.720715
6.296000,-1.676166
6.297000,-1.559066
6.298000,-1.425419
6.299000,-1.416509
6.300000,-1.440693
6.301000,-1.373233
6.302000,-1.462331
6.303000,-1.524699
6.304000,-1.623980
6.305000,-1.510698
6.306000,-0.981201
6.307000,-0.192046
6.308000,0.886041
6.309000,1.102422
6.310000,0.502919
6.311000,-0.391881
6.312000,-1.399962
6.313000,-2.278215
6.314000,-3.034276
6.315000,-3.414852
6.316000,-3.374121
6.317000,-3.006273
6.318000,-2.560783
6.319000,-2.278215
6.320000,-1.060116
6.321000,-0.038034
6.322000,1.281891
6.323000,2.832198
6.324000,2.212330
6.325000,1.037507
6.326000,-0.592988
6.327000,-2.121657
6.328000,-3.594321
6.329000,-4.814965
6.330000,-5.434833
6.331000,-5.563389
6.332000,-5.177721
6.333000,-4.596038
6.334000,-3.813248
