HX711 calibration sketch
Remove all weight from scale
After readings begin, place known weight on scale
Press + or a to increase calibration factor
Press - or z to decrease calibration factor
Zero factor: -43541
0.00165
0.00130
0.00049
-0.00065
-0.00246
-0.00333
-0.00112
0.00319
0.01046
0.01876
0.02703
0.03418
0.04696
0.07277
0.10736
0.13772
0.15937
0.15270
0.13582
0.12304
0.11505
0.11570
0.12847
0.13744
0.13616
0.13533
0.13165
0.12744
0.12749
0.13099
0.14391
0.18600
0.26596
0.38075
0.54230
0.72625
0.91611
1.10230
1.27173
1.43760
1.63953
1.85175
2.05211
2.24155
2.42504
2.61189
2.81643
2.96064
2.95288
2.61224
1.86672
1.21190
0.84374
0.65136
0.54197
0.43942
0.30275
0.16318
0.09471
0.06914
0.05282
0.04098
0.02767
0.01312
0.01022
0.01348
0.01801
0.04087
0.08379
0.15139
0.22285
0.29246
0.37059
0.47351
0.62919
0.86449
1.15202
1.48755
1.83899
2.20265
2.56750
2.87430
3.16701
3.49376
3.81721
4.07132
4.26555
4.38727
4.24463
3.61917
2.63724
1.72731
1.09644
0.73266
0.46601
0.23192
0.09524
0.03170
-0.00020
-0.02151
-0.03862
-0.04229
-0.03953
-0.03694
-0.03456
-0.03257
-0.03066
-0.02815
-0.02631
-0.02511
-0.02401
-0.02315
-0.02104
-0.01618
-0.00239
0.03838
0.13398
0.31340
0.57309
0.88796
1.21093
1.51869
1.84148
2.10996
2.32448
2.54373
2.77268
3.05065
3.31896
3.52958
3.72857
3.93426
4.10981
4.23111
4.35492
4.49466
4.58182
4.66167
4.73959
4.80305
4.85212
4.86327
4.89045
4.89524
4.88124
4.83582
4.79552
4.71583
4.63992
4.64101
4.63942
4.60763
4.52290
4.23425
3.87644
3.28954
2.43936
1.65177
1.06286
0.70080
0.47453
0.33098
0.22782
0.13073
0.04606
-0.01379
-0.04502
-0.05565
-0.05394
-0.04720
-0.03575
-0.02035
0.00289
0.05211
0.12660
0.22457
0.35559
0.49153
0.60998
0.72227
0.83846
0.93818
1.02277
1.13276
1.26886
1.40935
1.53648
1.66479
1.79576
1.92827
2.05239
2.18085
2.31960
2.44236
2.53451
2.62206
2.73242
2.82700
2.89387
2.94821
3.00049
3.06388
3.13402
3.13890
3.15019
3.17730
3.22437
3.28182
3.33906
3.39685
3.46225
3.52069
3.57151
3.62599
3.68636
3.73740
3.75755
3.76441
3.81496
3.87272
3.95312
4.03203
4.09889
4.17535
4.24058
4.28187
4.29324
4.29544
4.31396
4.31869
4.31755
4.35619
4.41592
4.48421
4.56193
4.59325
4.63328
4.67866
4.74175
4.79949
4.86188
4.92648
5.01848
4.81732
3.81066
2.29241
1.19942
0.71448
0.58092
0.52504
0.45897
0.39414
0.32999
0.27599
0.23772
0.21767
0.21591
0.22137
0.22972
0.23824
0.24761
0.26649
0.40309
1.05704
2.03669
2.75773
3.16592
3.18885
2.49285
1.11941
0.25251
0.04943
0.03404
0.03209
0.03428
0.03598
0.03871
0.03931
0.03825
0.03950
0.04188
0.04419
0.04592
0.04727
0.04812
0.04842
0.04913
0.05026
0.05163
0.05301
0.05410
0.05485
0.05601
0.05782
0.06064
0.06459
0.08302
0.24696
0.79483
1.49514
2.13287
2.67320
3.04969
3.33071
3.56870
3.74640
3.85710
3.96836
4.10677
4.21784
4.32894
4.42774
4.50544
4.57015
4.65984
4.73844
4.79430
4.83642
4.85967
4.87244
4.85568
4.86589
4.88426
4.89624
4.89608
4.89259
4.88276
4.83342
4.79768
4.81925
4.84108
4.88765
4.91904
4.95203
4.99434
5.04073
5.09457
5.07917
4.82172
4.45008
4.17850
3.76347
3.31474
2.84938
2.31020
1.89821
1.71224
1.66098
1.67180
1.68245
1.67717
1.69413
1.73926
1.93333
2.38998
2.89778
3.27165
3.56133
3.80469
3.97150
4.09070
4.21944
4.32632
4.34738
4.38279
4.37312
4.31318
4.16299
3.81895
3.32555
2.80246
2.44420
2.20025
1.99582
1.84173
1.75814
1.68525
1.61936
1.59201
1.64825
1.91003
2.39097
2.89272
3.26471
3.48793
3.68622
3.83295
3.93215
4.00368
4.05601
4.10017
4.12603
4.10987
3.96114
3.39530
2.39621
1.46904
0.94707
0.71908
0.62051
0.57524
0.55793
0.53329
0.49653
0.43961
0.33997
0.27236
0.25705
0.24156
0.22671
0.22138
0.22123
0.23005
0.24075
0.24819
0.25615
0.26515
0.27751
0.29692
0.31649
0.34029
0.37709
0.56683
1.31285
2.48442
3.42822
3.89132
3.97402
3.57408
2.76810
1.95475
1.40629
1.17760
1.05124
0.93191
0.83214
0.75245
0.70466
0.69563
0.91637
1.71408
2.72413
3.26271
3.49599
3.64305
3.72748
3.73814
3.60894
3.06774
1.94071
0.93390
0.54880
0.47106
0.47112
0.48194
0.49119
0.49766
0.50696
0.53020
0.64012
1.16501
2.29132
3.27577
3.65587
3.79058
3.90672
4.08773
4.30683
4.37398
4.25644
3.47020
1.86972
0.73658
0.42588
0.39307
0.39253
0.39996
0.39904
0.38660
0.37746
0.39176
0.41428
0.55226
1.44342
2.70957
2.52479
1.34714
0.93751
1.89574
3.10987
2.89277
1.56679
0.85127
1.52480
3.03436
3.55586
2.35396
1.16020
1.34346
2.80047
3.71089
2.80858
1.39935
0.97274
1.80923
3.35490
3.80538
2.45798
1.22075
1.07059
2.18717
3.48289
2.96534
1.68544
1.28013
2.22702
3.44544
3.16026
1.94923
1.30909
1.96862
3.53407
3.83137
2.56667
1.48939
1.58572
2.88391
4.27676
3.73901
2.05012
1.21240
1.86009
3.68916
4.95837
5.44885
5.40046
4.85356
3.95655
2.08499
0.88615
0.55226
0.58245
1.17802
2.61422
4.13312
4.91676
5.25997
5.39806
5.19111
4.08655
2.40269
1.27541
0.80838
0.61330
0.52306
0.57260
1.20087
2.55549
3.74741
4.36818
4.74120
4.93120
5.06878
5.21306
5.26336
5.27634
5.09726
4.53850
3.58886
2.34121
1.43681
0.97407
0.72868
0.62673
0.62477
0.76254
1.14225
1.60727
1.94465
2.24833
2.43809
1.98989
1.48178
2.09061
3.14631
2.90549
1.71842
1.73458
3.13565
4.04704
3.41007
1.97863
1.74454
3.12238
4.43744
4.11955
2.49881
1.87552
2.84937
3.81503
4.09714
3.89729
3.72442
3.78116
3.93677
4.10492
3.66121
2.29911
1.05785
0.54019
0.38180
0.32212
0.34174
0.38910
0.47193
0.62451
0.84995
1.30595
1.94035
2.53597
2.99781
3.30584
3.50773
3.62645
3.74339
3.87343
3.74498
2.95771
1.66087
0.74515
0.46856
0.43439
0.48129
0.53924
0.56930
0.56971
0.56701
0.58785
0.71902
0.96676
1.16116
1.23901
1.14534
0.76951
0.29067
0.09510
0.06663
0.06519
0.06457
0.06765
0.06493
0.06048
0.05538
0.05391
0.05697
0.06160
0.06677
0.07294
0.08074
0.08782
0.09459
0.12802
0.29945
0.69836
1.21590
1.85731
2.39251
2.70126
2.90206
3.10847
3.30596
3.44051
3.59189
3.80377
4.03579
4.25163
4.43457
4.60921
4.73729
4.87690
5.02783
5.16724
5.26128
5.31901
5.36127
5.37770
5.44407
5.54475
5.65404
5.75529
5.83093
5.91179
5.99629
6.00977
6.03411
6.03356
5.99599
5.98467
5.97695
5.95783
5.95948
5.96545
5.90111
5.85747
5.85134
5.82728
5.80594
5.79154
5.77737
5.78158
5.77976
5.74576
5.68483
5.43489
4.75656
3.83870
3.03467
2.44697
1.96667
1.54724
1.20359
0.92056
0.69942
0.53210
0.43805
0.36712
0.30845
0.30632
0.29154
0.26535
0.25801
0.24656
0.22302
0.20090
0.18202
0.16214
0.15724
0.17418
0.19819
0.21372
0.21848
0.21566
0.21036
0.21231
0.21525
0.22043
0.22651
0.23241
0.23631
0.23907
0.24022
0.24056
0.24149
0.24352
0.24201
0.24063
0.23911
0.23457
0.23069
0.22606
0.22083
0.21585
0.21324
0.21120
0.21153
0.21284
0.21435
0.21978
0.22841
0.24058
0.28632
0.56878
1.27046
2.15415
2.83184
3.24764
3.50515
3.65014
3.74026
3.83336
3.91074
3.86842
3.51063
2.53057
1.36749
0.73666
0.48506
0.33080
0.21352
0.14213
0.09996
0.06359
0.02879
0.00892
0.01014
0.01556
0.02191
0.03061
0.04228
0.05364
0.06012
0.06312
0.06533
0.06713
0.07032
0.07147
0.07277
0.07540
0.07772
0.08005
0.08266
0.08713
0.09143
0.10264
0.18033
0.45314
0.96462
1.58738
2.12373
2.63911
3.03824
3.24673
3.38877
3.49928
3.57334
3.59155
3.56392
3.56088
3.57459
3.60458
3.62966
3.61373
3.56311
3.51266
3.50167
3.49027
3.46264
3.39414
3.30725
3.28658
3.29281
3.30628
3.31748
3.33813
3.36012
3.38794
3.41175
3.43210
3.43263
3.42822
3.42366
3.43254
3.45177
3.45165
3.44008
3.42761
3.41483
3.41004
3.40698
3.40710
3.40719
3.40060
3.39393
3.39316
3.38244
3.37186
3.36917
3.37128
3.37134
3.36922
3.37274
3.37182
3.36781
3.36485
3.36898
3.37184
3.36540
3.35934
3.36098
3.36383
3.35856
3.35151
3.35163
3.35886
3.35598
3.35429
3.36564
3.37644
3.37688
3.37083
3.37569
3.38257
3.39108
3.40287
3.40834
3.40748
3.40232
3.39908
3.40066
3.41308
3.41968
3.41926
3.42831
3.43567
3.39742
3.12017
2.33188
1.57067
1.26394
1.11169
1.03867
1.01999
0.99902
0.96006
0.93451
0.93101
0.92577
0.92945
0.94908
0.97859
1.01206
1.05217
1.10123
1.13694
1.18101
1.39420
1.92220
2.40410
2.74409
2.99931
3.14659
3.26193
3.36864
3.43662
3.47843
3.50568
3.53538
3.55848
3.56425
3.55381
3.53065
3.50648
3.49942
3.49522
3.48614
3.47137
3.45552
3.43580
3.40368
3.33838
3.20544
2.97162
2.77017
2.71203
2.54872
2.15105
1.66479
1.28896
1.03945
0.88627
0.79133
0.74790
0.74163
0.75760
0.76553
0.75930
0.73835
0.69214
0.58412
0.43284
0.37534
0.36600
0.35827
0.35296
0.34274
0.32654
0.31789
0.32265
0.33631
0.34887
0.36125
0.40554
0.69706
1.46044
2.31489
2.88982
3.24610
3.48957
3.66769
3.78994
3.86777
3.89354
3.87961
3.85305
3.83436
3.83654
3.83485
3.86280
3.90766
3.93132
3.96409
3.98711
4.00771
4.04340
4.07383
4.09382
4.14274
4.18761
4.18033
4.18890
4.21268
4.20873
4.22431
4.23991
4.24734
4.25823
4.26262
4.25937
4.26914
4.29059
4.31663
4.36393
4.41006
4.43217
4.41375
4.23905
3.65709
2.63908
1.72842
1.27382
1.02009
0.86471
0.76911
0.73424
0.76079
0.82235
0.90092
1.07811
1.68447
2.77162
3.86411
4.66748
4.96258
4.65275
3.51584
2.08503
1.20420
0.83006
0.61837
0.43307
0.31007
0.31914
0.50603
1.06567
2.02456
2.97945
3.69093
4.18527
4.54390
4.94142
5.13651
4.49145
3.19056
1.98754
1.20002
0.76919
0.49699
0.38390
0.36823
0.43136
0.60880
0.90184
1.27188
1.71202
2.13785
2.49480
2.76655
2.89048
2.89268
2.80645
2.74035
2.71647
2.69633
2.67829
2.68414
2.69561
2.70341
2.71379
2.76370
2.86752
3.01321
3.17264
3.30182
3.36191
3.34724
3.25612
3.00258
2.37333
1.65117
1.24426
1.01848
0.87588
0.76186
0.65714
0.59330
0.58600
0.59838
0.62651
0.69525
0.77368
0.86906
1.04416
1.32649
1.58487
1.69008
1.68156
1.66133
1.66426
1.68726
1.71187
1.72728
1.73447
1.73611
1.73854
1.73749
1.73546
1.73616
1.73736
1.73698
1.73207
1.72992
1.73860
1.74527
1.75164
1.75853
1.76140
1.75549
1.72986
1.63973
1.38323
1.00699
0.70473
0.52534
0.45198
0.40577
0.38719
0.38080
0.36995
0.36513
0.36591
0.36628
0.36381
0.35574
0.33561
0.30896
0.29730
0.29564
0.28212
0.24235
0.20706
0.20153
0.20141
0.20289
0.20579
0.20453
0.19242
0.16780
0.14397
0.12197
0.08578
0.05983
0.02470
-0.00625
-0.01448
-0.01298
-0.00781
-0.00369
-0.00193
0.00083
0.00437
0.00882
0.01395
0.02378
0.04295
0.07498
0.16551
0.36273
0.64699
0.90137
1.10357
1.32279
1.48035
1.47930
1.43104
1.44345
1.48030
1.49137
1.50675
1.55144
1.59288
1.61272
1.62091
1.64562
1.68805
1.73847
1.77866
1.80684
1.82210
1.82607
1.83812
1.84514
1.86781
1.86875
1.85557
1.85107
1.85499
1.87410
1.92325
1.97898
2.02999
2.08467
2.13958
2.17343
2.18688
2.17833
2.15817
2.12335
2.07920
2.06001
2.07382
2.10136
2.12332
2.13913
2.14950
2.15058
2.13139
2.02611
1.64495
0.86452
0.26569
0.05954
0.01594
0.01129
0.01477
0.01946
0.02376
0.02615
0.02726
0.02805
0.02984
0.03244
0.03535
0.03802
0.03923
0.04164
0.05590
0.10138
0.21228
0.51593
0.92130
1.22434
1.43144
1.52190
1.55011
1.57827
1.62559
1.66488
1.69670
1.72501
1.73330
1.74911
1.77497
1.79823
1.81388
1.83275
1.84875
1.86942
1.89242
1.90848
1.92735
1.94755
1.95741
1.95773
1.95946
1.96085
1.96655
1.97405
1.98278
1.98757
1.99598
2.00238
2.00506
2.00843
2.02215
2.02164
2.01798
2.02701
2.02692
2.02557
2.02957
2.02760
2.01883
2.00196
1.97933
1.96061
1.95431
1.90390
1.63025
1.12138
0.70570
0.53242
0.48747
0.44742
0.36608
0.25913
0.17585
0.13350
0.11759
0.10843
0.10527
0.10479
0.10637
0.10836
0.11050
0.11338
0.11649
0.11980
0.12302
0.12461
0.12802
0.13026
0.13053
0.14934
0.30818
0.68401
1.16056
1.60809
1.76198
1.73017
1.67256
1.63321
1.63158
1.62189
1.57126
1.52401
1.49338
1.46115
1.42497
1.41066
1.43237
1.51876
1.66232
1.83002
1.95167
1.99338
2.02643
2.04516
2.05964
2.05750
2.03140
2.00637
1.96781
1.93986
1.92539
1.91634
1.90103
1.88120
1.87242
1.86472
1.84881
1.83874
1.83776
1.83617
1.83978
1.85096
1.85965
1.85933
1.86075
1.86392
1.85340
1.84328
1.84852
1.85708
1.85855
1.84078
1.81501
1.77330
1.71231
1.62443
1.50789
1.49258
1.60718
1.74766
1.88630
1.92332
1.81480
1.71318
1.60854
1.21656
0.67515
0.30818
0.21259
0.22423
0.23917
0.25067
0.25745
0.24950
0.24975
0.25892
0.25339
0.25481
0.26232
0.26293
0.26230
0.26442
0.26715
0.26737
0.26701
0.26826
0.26961
0.27158
0.27303
0.27527
0.27588
0.27558
0.27564
0.27488
0.27381
0.27184
0.26944
0.26341
0.25916
0.25924
0.26094
0.26146
0.26090
0.26366
0.26552
0.26440
0.26601
0.26796
0.26902
0.26957
0.26937
0.27092
0.26958
0.26621
0.25975
0.25244
0.25012
0.25158
0.25419
0.25492
0.25143
0.24741
0.24442
0.24438
0.24611
0.24807
0.24918
0.24883
0.24782
0.24718
0.24661
0.24682
0.24704
0.24819
0.24730
0.24590
0.24484
0.24413
0.24478
0.24548
0.24687
0.24733
0.24668
0.24658
0.24663
0.24678
