LabVIEW Measurement,
Writer_Version,2
Reader_Version,2
Separator,Comma
Decimal_Separator,.
Multi_Headings,No
X_Columns,Multi
Time_Pref,Absolute
Operator,Dymnz
Date,2018/01/10
Time,13:15:00.7259271833529950443
***End_of_Header***,
,
Channels,1,
Samples,1000,
Date,2018/01/10,
Time,13:15:00.7259271833529950443,
Y_Unit_Label,Volts,
X_Dimension,Time,
X0,0.0000000000000000E+0,
Delta_X,0.001000,
***End_of_Header***,,
X_Value,Voltage,Comment
0.000000,0.912770
0.001000,0.916589
0.002000,0.908952
0.003000,0.910224
0.004000,0.901315
0.005000,0.897496
0.006000,0.875858
0.007000,0.892405
0.008000,0.894951
0.009000,0.908952
0.010000,0.908952
0.011000,0.907679
0.012000,0.911497
0.013000,0.908952
0.014000,0.911497
0.015000,0.910224
0.016000,0.912770
0.017000,0.907679
0.018000,0.905133
0.019000,0.907679
0.020000,0.906406
0.021000,0.902588
0.022000,0.908952
0.023000,0.902588
0.024000,0.915316
0.025000,0.905133
0.026000,0.912770
0.027000,0.911497
0.028000,0.912770
0.029000,0.908952
0.030000,0.908952
0.031000,0.914043
0.032000,0.911497
0.033000,0.910224
0.034000,0.906406
0.035000,0.912770
0.036000,0.902588
0.037000,0.907679
0.038000,0.905133
0.039000,0.906406
0.040000,0.906406
0.041000,0.903860
0.042000,0.903860
0.043000,0.903860
0.044000,0.905133
0.045000,0.907679
0.046000,0.912770
0.047000,0.914043
0.048000,0.906406
0.049000,0.907679
0.050000,0.902588
0.051000,0.907679
0.052000,0.907679
0.053000,0.905133
0.054000,0.911497
0.055000,0.901315
0.056000,0.906406
0.057000,0.905133
0.058000,0.910224
0.059000,0.907679
0.060000,0.915316
0.061000,0.903860
0.062000,0.915316
0.063000,0.907679
0.064000,0.912770
0.065000,0.914043
0.066000,0.917861
0.067000,0.907679
0.068000,0.900042
0.069000,0.908952
0.070000,0.902588
0.071000,0.903860
0.072000,0.906406
0.073000,0.896223
0.074000,0.896223
0.075000,0.912770
0.076000,0.919134
0.077000,0.916589
0.078000,0.912770
0.079000,0.912770
0.080000,0.912770
0.081000,0.910224
0.082000,0.912770
0.083000,0.916589
0.084000,0.917861
0.085000,0.933135
0.086000,0.928044
0.087000,0.914043
0.088000,0.911497
0.089000,0.901315
0.090000,0.903860
0.091000,0.898769
0.092000,0.902588
0.093000,0.888586
0.094000,0.898769
0.095000,0.901315
0.096000,0.908952
0.097000,0.902588
0.098000,0.906406
0.099000,0.898769
0.100000,0.905133
0.101000,0.901315
0.102000,0.903860
0.103000,0.901315
0.104000,0.912770
0.105000,0.907679
0.106000,0.905133
0.107000,0.905133
0.108000,0.910224
0.109000,0.911497
0.110000,0.908952
0.111000,0.908952
0.112000,0.908952
0.113000,0.908952
0.114000,0.907679
0.115000,0.905133
0.116000,0.901315
0.117000,0.907679
0.118000,0.906406
0.119000,0.914043
0.120000,0.906406
0.121000,0.911497
0.122000,0.903860
0.123000,0.911497
0.124000,0.898769
0.125000,0.908952
0.126000,0.905133
0.127000,0.908952
0.128000,0.902588
0.129000,0.908952
0.130000,0.907679
0.131000,0.908952
0.132000,0.906406
0.133000,0.908952
0.134000,0.903860
0.135000,0.908952
0.136000,0.911497
0.137000,0.910224
0.138000,0.916589
0.139000,0.910224
0.140000,0.911497
0.141000,0.907679
0.142000,0.908952
0.143000,0.905133
0.144000,0.903860
0.145000,0.894951
0.146000,0.901315
0.147000,0.902588
0.148000,0.912770
0.149000,0.910224
0.150000,0.905133
0.151000,0.903860
0.152000,0.903860
0.153000,0.903860
0.154000,0.908952
0.155000,0.906406
0.156000,0.908952
0.157000,0.903860
0.158000,0.900042
0.159000,0.903860
0.160000,0.907679
0.161000,0.902588
0.162000,0.910224
0.163000,0.908952
0.164000,0.908952
0.165000,0.912770
0.166000,0.911497
0.167000,0.911497
0.168000,0.917861
0.169000,0.910224
0.170000,0.911497
0.171000,0.910224
0.172000,0.914043
0.173000,0.902588
0.174000,0.901315
0.175000,0.902588
0.176000,0.898769
0.177000,0.905133
0.178000,0.908952
0.179000,0.901315
0.180000,0.908952
0.181000,0.911497
0.182000,0.908952
0.183000,0.906406
0.184000,0.906406
0.185000,0.900042
0.186000,0.906406
0.187000,0.897496
0.188000,0.905133
0.189000,0.898769
0.190000,0.908952
0.191000,0.894951
0.192000,0.901315
0.193000,0.900042
0.194000,0.907679
0.195000,0.902588
0.196000,0.907679
0.197000,0.902588
0.198000,0.911497
0.199000,0.903860
0.200000,0.912770
0.201000,0.908952
0.202000,0.911497
0.203000,0.905133
0.204000,0.908952
0.205000,0.905133
0.206000,0.902588
0.207000,0.897496
0.208000,0.910224
0.209000,0.914043
0.210000,0.908952
0.211000,0.911497
0.212000,0.919134
0.213000,0.912770
0.214000,0.917861
0.215000,0.912770
0.216000,0.907679
0.217000,0.907679
0.218000,0.912770
0.219000,0.911497
0.220000,0.912770
0.221000,0.903860
0.222000,0.907679
0.223000,0.903860
0.224000,0.903860
0.225000,0.905133
0.226000,0.908952
0.227000,0.911497
0.228000,0.912770
0.229000,0.908952
0.230000,0.911497
0.231000,0.908952
0.232000,0.912770
0.233000,0.908952
0.234000,0.911497
0.235000,0.911497
0.236000,0.910224
0.237000,0.910224
0.238000,0.902588
0.239000,0.901315
0.240000,0.900042
0.241000,0.905133
0.242000,0.902588
0.243000,0.911497
0.244000,0.907679
0.245000,0.911497
0.246000,0.902588
0.247000,0.906406
0.248000,0.903860
0.249000,0.907679
0.250000,0.907679
0.251000,0.906406
0.252000,0.905133
0.253000,0.902588
0.254000,0.906406
0.255000,0.905133
0.256000,0.905133
0.257000,0.900042
0.258000,0.901315
0.259000,0.897496
0.260000,0.907679
0.261000,0.898769
0.262000,0.906406
0.263000,0.903860
0.264000,0.911497
0.265000,0.914043
0.266000,0.905133
0.267000,0.908952
0.268000,0.907679
0.269000,0.905133
0.270000,0.903860
0.271000,0.910224
0.272000,0.902588
0.273000,0.902588
0.274000,0.906406
0.275000,0.902588
0.276000,0.902588
0.277000,0.906406
0.278000,0.902588
0.279000,0.907679
0.280000,0.903860
0.281000,0.903860
0.282000,0.903860
0.283000,0.905133
0.284000,0.905133
0.285000,0.906406
0.286000,0.902588
0.287000,0.903860
0.288000,0.905133
0.289000,0.903860
0.290000,0.901315
0.291000,0.901315
0.292000,0.906406
0.293000,0.905133
0.294000,0.910224
0.295000,0.911497
0.296000,0.912770
0.297000,0.905133
0.298000,0.914043
0.299000,0.910224
0.300000,0.919134
0.301000,0.905133
0.302000,0.907679
0.303000,0.898769
0.304000,0.903860
0.305000,0.901315
0.306000,0.903860
0.307000,0.893678
0.308000,0.901315
0.309000,0.900042
0.310000,0.907679
0.311000,0.910224
0.312000,0.919134
0.313000,0.905133
0.314000,0.908952
0.315000,0.892405
0.316000,0.901315
0.317000,0.902588
0.318000,0.906406
0.319000,0.897496
0.320000,0.910224
0.321000,0.921680
0.322000,0.925498
0.323000,0.917861
0.324000,0.916589
0.325000,0.910224
0.326000,0.912770
0.327000,0.903860
0.328000,0.911497
0.329000,0.902588
0.330000,0.910224
0.331000,0.905133
0.332000,0.911497
0.333000,0.903860
0.334000,0.910224
0.335000,0.902588
0.336000,0.908952
0.337000,0.902588
0.338000,0.905133
0.339000,0.901315
0.340000,0.912770
0.341000,0.905133
0.342000,0.910224
0.343000,0.903860
0.344000,0.907679
0.345000,0.900042
0.346000,0.907679
0.347000,0.902588
0.348000,0.908952
0.349000,0.907679
0.350000,0.912770
0.351000,0.908952
0.352000,0.916589
0.353000,0.908952
0.354000,0.915316
0.355000,0.898769
0.356000,0.906406
0.357000,0.906406
0.358000,0.902588
0.359000,0.903860
0.360000,0.907679
0.361000,0.906406
0.362000,0.912770
0.363000,0.914043
0.364000,0.914043
0.365000,0.910224
0.366000,0.910224
0.367000,0.908952
0.368000,0.908952
0.369000,0.905133
0.370000,0.903860
0.371000,0.906406
0.372000,0.907679
0.373000,0.908952
0.374000,0.905133
0.375000,0.902588
0.376000,0.907679
0.377000,0.910224
0.378000,0.915316
0.379000,0.917861
0.380000,0.916589
0.381000,0.910224
0.382000,0.910224
0.383000,0.916589
0.384000,0.905133
0.385000,0.912770
0.386000,0.906406
0.387000,0.911497
0.388000,0.903860
0.389000,0.902588
0.390000,0.902588
0.391000,0.907679
0.392000,0.903860
0.393000,0.901315
0.394000,0.900042
0.395000,0.901315
0.396000,0.900042
0.397000,0.906406
0.398000,0.906406
0.399000,0.910224
0.400000,0.907679
0.401000,0.910224
0.402000,0.907679
0.403000,0.907679
0.404000,0.901315
0.405000,0.903860
0.406000,0.903860
0.407000,0.903860
0.408000,0.903860
0.409000,0.910224
0.410000,0.912770
0.411000,0.910224
0.412000,0.908952
0.413000,0.906406
0.414000,0.911497
0.415000,0.902588
0.416000,0.916589
0.417000,0.912770
0.418000,0.919134
0.419000,0.908952
0.420000,0.914043
0.421000,0.905133
0.422000,0.910224
0.423000,0.898769
0.424000,0.902588
0.425000,0.883495
0.426000,0.880949
0.427000,0.882222
0.428000,0.896223
0.429000,0.897496
0.430000,0.905133
0.431000,0.903860
0.432000,0.907679
0.433000,0.921680
0.434000,0.907679
0.435000,0.914043
0.436000,0.901315
0.437000,0.910224
0.438000,0.902588
0.439000,0.908952
0.440000,0.903860
0.441000,0.906406
0.442000,0.908952
0.443000,0.908952
0.444000,0.905133
0.445000,0.903860
0.446000,0.912770
0.447000,0.906406
0.448000,0.908952
0.449000,0.905133
0.450000,0.910224
0.451000,0.903860
0.452000,0.912770
0.453000,0.910224
0.454000,0.906406
0.455000,0.902588
0.456000,0.903860
0.457000,0.903860
0.458000,0.903860
0.459000,0.906406
0.460000,0.906406
0.461000,0.903860
0.462000,0.908952
0.463000,0.905133
0.464000,0.910224
0.465000,0.906406
0.466000,0.912770
0.467000,0.907679
0.468000,0.903860
0.469000,0.901315
0.470000,0.903860
0.471000,0.907679
0.472000,0.906406
0.473000,0.906406
0.474000,0.902588
0.475000,0.906406
0.476000,0.910224
0.477000,0.910224
0.478000,0.906406
0.479000,0.903860
0.480000,0.910224
0.481000,0.914043
0.482000,0.912770
0.483000,0.915316
0.484000,0.911497
0.485000,0.910224
0.486000,0.903860
0.487000,0.910224
0.488000,0.906406
0.489000,0.901315
0.490000,0.906406
0.491000,0.902588
0.492000,0.907679
0.493000,0.905133
0.494000,0.903860
0.495000,0.905133
0.496000,0.907679
0.497000,0.908952
0.498000,0.916589
0.499000,0.903860
0.500000,0.907679
0.501000,0.907679
0.502000,0.905133
0.503000,0.903860
0.504000,0.908952
0.505000,0.898769
0.506000,0.898769
0.507000,0.900042
0.508000,0.902588
0.509000,0.903860
0.510000,0.903860
0.511000,0.906406
0.512000,0.906406
0.513000,0.910224
0.514000,0.903860
0.515000,0.914043
0.516000,0.903860
0.517000,0.911497
0.518000,0.900042
0.519000,0.908952
0.520000,0.903860
0.521000,0.908952
0.522000,0.900042
0.523000,0.906406
0.524000,0.905133
0.525000,0.912770
0.526000,0.910224
0.527000,0.907679
0.528000,0.910224
0.529000,0.910224
0.530000,0.908952
0.531000,0.908952
0.532000,0.903860
0.533000,0.907679
0.534000,0.912770
0.535000,0.911497
0.536000,0.907679
0.537000,0.910224
0.538000,0.910224
0.539000,0.903860
0.540000,0.906406
0.541000,0.906406
0.542000,0.911497
0.543000,0.903860
0.544000,0.916589
0.545000,0.907679
0.546000,0.914043
0.547000,0.910224
0.548000,0.915316
0.549000,0.908952
0.550000,0.911497
0.551000,0.900042
0.552000,0.908952
0.553000,0.897496
0.554000,0.900042
0.555000,0.897496
0.556000,0.903860
0.557000,0.900042
0.558000,0.901315
0.559000,0.898769
0.560000,0.907679
0.561000,0.910224
0.562000,0.906406
0.563000,0.900042
0.564000,0.902588
0.565000,0.902588
0.566000,0.898769
0.567000,0.896223
0.568000,0.902588
0.569000,0.900042
0.570000,0.906406
0.571000,0.903860
0.572000,0.905133
0.573000,0.900042
0.574000,0.902588
0.575000,0.900042
0.576000,0.906406
0.577000,0.907679
0.578000,0.912770
0.579000,0.910224
0.580000,0.911497
0.581000,0.908952
0.582000,0.911497
0.583000,0.911497
0.584000,0.911497
0.585000,0.911497
0.586000,0.905133
0.587000,0.910224
0.588000,0.902588
0.589000,0.903860
0.590000,0.901315
0.591000,0.906406
0.592000,0.901315
0.593000,0.910224
0.594000,0.900042
0.595000,0.912770
0.596000,0.905133
0.597000,0.908952
0.598000,0.907679
0.599000,0.914043
0.600000,0.903860
0.601000,0.910224
0.602000,0.903860
0.603000,0.911497
0.604000,0.910224
0.605000,0.912770
0.606000,0.903860
0.607000,0.907679
0.608000,0.902588
0.609000,0.908952
0.610000,0.903860
0.611000,0.912770
0.612000,0.906406
0.613000,0.919134
0.614000,0.908952
0.615000,0.914043
0.616000,0.911497
0.617000,0.914043
0.618000,0.906406
0.619000,0.911497
0.620000,0.903860
0.621000,0.906406
0.622000,0.907679
0.623000,0.910224
0.624000,0.911497
0.625000,0.910224
0.626000,0.908952
0.627000,0.911497
0.628000,0.912770
0.629000,0.912770
0.630000,0.911497
0.631000,0.903860
0.632000,0.906406
0.633000,0.903860
0.634000,0.902588
0.635000,0.897496
0.636000,0.898769
0.637000,0.892405
0.638000,0.900042
0.639000,0.896223
0.640000,0.901315
0.641000,0.902588
0.642000,0.903860
0.643000,0.905133
0.644000,0.907679
0.645000,0.901315
0.646000,0.906406
0.647000,0.914043
0.648000,0.911497
0.649000,0.915316
0.650000,0.907679
0.651000,0.916589
0.652000,0.898769
0.653000,0.903860
0.654000,0.898769
0.655000,0.907679
0.656000,0.902588
0.657000,0.905133
0.658000,0.906406
0.659000,0.908952
0.660000,0.906406
0.661000,0.905133
0.662000,0.902588
0.663000,0.903860
0.664000,0.905133
0.665000,0.903860
0.666000,0.912770
0.667000,0.915316
0.668000,0.903860
0.669000,0.915316
0.670000,0.912770
0.671000,0.910224
0.672000,0.905133
0.673000,0.907679
0.674000,0.906406
0.675000,0.902588
0.676000,0.903860
0.677000,0.905133
0.678000,0.911497
0.679000,0.915316
0.680000,0.906406
0.681000,0.914043
0.682000,0.920407
0.683000,0.917861
0.684000,0.914043
0.685000,0.914043
0.686000,0.906406
0.687000,0.906406
0.688000,0.906406
0.689000,0.900042
0.690000,0.898769
0.691000,0.896223
0.692000,0.901315
0.693000,0.900042
0.694000,0.905133
0.695000,0.911497
0.696000,0.917861
0.697000,0.912770
0.698000,0.910224
0.699000,0.912770
0.700000,0.910224
0.701000,0.908952
0.702000,0.911497
0.703000,0.903860
0.704000,0.905133
0.705000,0.903860
0.706000,0.900042
0.707000,0.903860
0.708000,0.906406
0.709000,0.908952
0.710000,0.905133
0.711000,0.908952
0.712000,0.902588
0.713000,0.914043
0.714000,0.903860
0.715000,0.912770
0.716000,0.905133
0.717000,0.905133
0.718000,0.902588
0.719000,0.906406
0.720000,0.906406
0.721000,0.915316
0.722000,0.908952
0.723000,0.915316
0.724000,0.901315
0.725000,0.914043
0.726000,0.907679
0.727000,0.914043
0.728000,0.906406
0.729000,0.906406
0.730000,0.902588
0.731000,0.912770
0.732000,0.906406
0.733000,0.912770
0.734000,0.908952
0.735000,0.917861
0.736000,0.914043
0.737000,0.911497
0.738000,0.898769
0.739000,0.906406
0.740000,0.898769
0.741000,0.910224
0.742000,0.897496
0.743000,0.901315
0.744000,0.896223
0.745000,0.902588
0.746000,0.900042
0.747000,0.898769
0.748000,0.901315
0.749000,0.905133
0.750000,0.906406
0.751000,0.911497
0.752000,0.906406
0.753000,0.908952
0.754000,0.907679
0.755000,0.908952
0.756000,0.908952
0.757000,0.903860
0.758000,0.903860
0.759000,0.908952
0.760000,0.906406
0.761000,0.903860
0.762000,0.912770
0.763000,0.908952
0.764000,0.911497
0.765000,0.910224
0.766000,0.911497
0.767000,0.910224
0.768000,0.908952
0.769000,0.903860
0.770000,0.908952
0.771000,0.905133
0.772000,0.901315
0.773000,0.903860
0.774000,0.901315
0.775000,0.901315
0.776000,0.897496
0.777000,0.905133
0.778000,0.905133
0.779000,0.903860
0.780000,0.903860
0.781000,0.905133
0.782000,0.912770
0.783000,0.908952
0.784000,0.906406
0.785000,0.907679
0.786000,0.905133
0.787000,0.908952
0.788000,0.903860
0.789000,0.901315
0.790000,0.910224
0.791000,0.910224
0.792000,0.910224
0.793000,0.901315
0.794000,0.903860
0.795000,0.907679
0.796000,0.903860
0.797000,0.903860
0.798000,0.901315
0.799000,0.900042
0.800000,0.907679
0.801000,0.907679
0.802000,0.911497
0.803000,0.910224
0.804000,0.911497
0.805000,0.908952
0.806000,0.905133
0.807000,0.902588
0.808000,0.905133
0.809000,0.910224
0.810000,0.903860
0.811000,0.906406
0.812000,0.907679
0.813000,0.910224
0.814000,0.916589
0.815000,0.916589
0.816000,0.915316
0.817000,0.912770
0.818000,0.911497
0.819000,0.910224
0.820000,0.910224
0.821000,0.906406
0.822000,0.906406
0.823000,0.898769
0.824000,0.894951
0.825000,0.898769
0.826000,0.902588
0.827000,0.901315
0.828000,0.894951
0.829000,0.900042
0.830000,0.905133
0.831000,0.901315
0.832000,0.902588
0.833000,0.911497
0.834000,0.908952
0.835000,0.907679
0.836000,0.907679
0.837000,0.903860
0.838000,0.906406
0.839000,0.911497
0.840000,0.901315
0.841000,0.902588
0.842000,0.905133
0.843000,0.905133
0.844000,0.906406
0.845000,0.907679
0.846000,0.908952
0.847000,0.910224
0.848000,0.908952
0.849000,0.911497
0.850000,0.911497
0.851000,0.906406
0.852000,0.903860
0.853000,0.903860
0.854000,0.906406
0.855000,0.908952
0.856000,0.903860
0.857000,0.905133
0.858000,0.908952
0.859000,0.911497
0.860000,0.908952
0.861000,0.907679
0.862000,0.911497
0.863000,0.907679
0.864000,0.910224
0.865000,0.912770
0.866000,0.910224
0.867000,0.908952
0.868000,0.910224
0.869000,0.914043
0.870000,0.915316
0.871000,0.922953
0.872000,0.915316
0.873000,0.920407
0.874000,0.914043
0.875000,0.911497
0.876000,0.898769
0.877000,0.901315
0.878000,0.892405
0.879000,0.898769
0.880000,0.893678
0.881000,0.889859
0.882000,0.888586
0.883000,0.901315
0.884000,0.894951
0.885000,0.901315
0.886000,0.901315
0.887000,0.902588
0.888000,0.887314
0.889000,0.888586
0.890000,0.886041
0.891000,0.897496
0.892000,0.892405
0.893000,0.901315
0.894000,0.897496
0.895000,0.911497
0.896000,0.901315
0.897000,0.916589
0.898000,0.907679
0.899000,0.907679
0.900000,0.910224
0.901000,0.916589
0.902000,0.914043
0.903000,0.911497
0.904000,0.905133
0.905000,0.919134
0.906000,0.912770
0.907000,0.919134
0.908000,0.912770
0.909000,0.915316
0.910000,0.920407
0.911000,0.929317
0.912000,0.924226
0.913000,0.921680
0.914000,0.907679
0.915000,0.911497
0.916000,0.903860
0.917000,0.897496
0.918000,0.896223
0.919000,0.889859
0.920000,0.878404
0.921000,0.883495
0.922000,0.896223
0.923000,0.894951
0.924000,0.900042
0.925000,0.900042
0.926000,0.901315
0.927000,0.903860
0.928000,0.906406
0.929000,0.908952
0.930000,0.906406
0.931000,0.914043
0.932000,0.905133
0.933000,0.914043
0.934000,0.908952
0.935000,0.912770
0.936000,0.903860
0.937000,0.908952
0.938000,0.903860
0.939000,0.910224
0.940000,0.902588
0.941000,0.911497
0.942000,0.907679
0.943000,0.914043
0.944000,0.905133
0.945000,0.915316
0.946000,0.907679
0.947000,0.912770
0.948000,0.910224
0.949000,0.910224
0.950000,0.911497
0.951000,0.912770
0.952000,0.920407
0.953000,0.916589
0.954000,0.915316
0.955000,0.912770
0.956000,0.910224
0.957000,0.906406
0.958000,0.908952
0.959000,0.908952
0.960000,0.912770
0.961000,0.911497
0.962000,0.920407
0.963000,0.911497
0.964000,0.910224
0.965000,0.906406
0.966000,0.912770
0.967000,0.900042
0.968000,0.903860
0.969000,0.888586
0.970000,0.893678
0.971000,0.897496
0.972000,0.905133
0.973000,0.900042
0.974000,0.906406
0.975000,0.902588
0.976000,0.911497
0.977000,0.911497
0.978000,0.915316
0.979000,0.903860
0.980000,0.896223
0.981000,0.897496
0.982000,0.893678
0.983000,0.893678
0.984000,0.897496
0.985000,0.896223
0.986000,0.898769
0.987000,0.902588
0.988000,0.908952
0.989000,0.914043
0.990000,0.916589
0.991000,0.911497
0.992000,0.903860
0.993000,0.912770
0.994000,0.906406
0.995000,0.916589
0.996000,0.914043
0.997000,0.920407
0.998000,0.915316
0.999000,0.919134
1.000000,0.908952
1.001000,0.916589
1.002000,0.915316
1.003000,0.926771
1.004000,0.920407
1.005000,0.914043
1.006000,0.892405
1.007000,0.896223
1.008000,0.901315
1.009000,0.901315
1.010000,0.905133
1.011000,0.911497
1.012000,0.908952
1.013000,0.912770
1.014000,0.914043
1.015000,0.911497
1.016000,0.914043
1.017000,0.914043
1.018000,0.911497
1.019000,0.912770
1.020000,0.917861
1.021000,0.911497
1.022000,0.900042
1.023000,0.880949
1.024000,0.888586
1.025000,0.892405
1.026000,0.898769
1.027000,0.888586
1.028000,0.892405
1.029000,0.893678
1.030000,0.897496
1.031000,0.898769
1.032000,0.894951
1.033000,0.896223
1.034000,0.902588
1.035000,0.905133
1.036000,0.903860
1.037000,0.912770
1.038000,0.919134
1.039000,0.917861
1.040000,0.921680
1.041000,0.907679
1.042000,0.914043
1.043000,0.922953
1.044000,0.934408
1.045000,0.954774
1.046000,0.968775
1.047000,0.981503
1.048000,0.976412
1.049000,0.964956
1.050000,0.938227
1.051000,0.929317
1.052000,0.901315
1.053000,0.879677
1.054000,0.854220
1.055000,0.831309
1.056000,0.826218
1.057000,0.821126
1.058000,0.845310
1.059000,0.854220
1.060000,0.864403
1.061000,0.858038
1.062000,0.866948
1.063000,0.888586
1.064000,0.903860
1.065000,0.917861
1.066000,0.926771
1.067000,0.930590
1.068000,0.924226
1.069000,0.928044
1.070000,0.930590
1.071000,0.929317
1.072000,0.933135
1.073000,0.942045
1.074000,0.931863
1.075000,0.931863
1.076000,0.940772
1.077000,0.947137
1.078000,0.952228
1.079000,0.949682
1.080000,0.954774
1.081000,0.948409
1.082000,0.940772
1.083000,0.916589
1.084000,0.896223
1.085000,0.864403
1.086000,0.842764
1.087000,0.826218
1.088000,0.826218
1.089000,0.821126
1.090000,0.832582
1.091000,0.850401
1.092000,0.870767
1.093000,0.882222
1.094000,0.907679
1.095000,0.912770
1.096000,0.931863
1.097000,0.936954
1.098000,0.943318
1.099000,0.926771
1.100000,0.926771
1.101000,0.928044
1.102000,0.924226
1.103000,0.922953
1.104000,0.919134
1.105000,0.901315
1.106000,0.884768
1.107000,0.879677
1.108000,0.887314
1.109000,0.893678
1.110000,0.902588
1.111000,0.911497
1.112000,0.911497
1.113000,0.914043
1.114000,0.914043
1.115000,0.912770
1.116000,0.921680
1.117000,0.920407
1.118000,0.924226
1.119000,0.916589
1.120000,0.924226
1.121000,0.920407
1.122000,0.933135
1.123000,0.917861
1.124000,0.921680
1.125000,0.924226
1.126000,0.925498
1.127000,0.920407
1.128000,0.930590
1.129000,0.915316
1.130000,0.924226
1.131000,0.902588
1.132000,0.901315
1.133000,0.887314
1.134000,0.878404
1.135000,0.873312
1.136000,0.883495
1.137000,0.882222
1.138000,0.897496
1.139000,0.894951
1.140000,0.907679
1.141000,0.898769
1.142000,0.922953
1.143000,0.919134
1.144000,0.921680
1.145000,0.914043
1.146000,0.916589
1.147000,0.915316
1.148000,0.935681
1.149000,0.921680
1.150000,0.915316
1.151000,0.902588
1.152000,0.889859
1.153000,0.883495
1.154000,0.886041
1.155000,0.878404
1.156000,0.894951
1.157000,0.900042
1.158000,0.903860
1.159000,0.898769
1.160000,0.905133
1.161000,0.901315
1.162000,0.905133
1.163000,0.901315
1.164000,0.910224
1.165000,0.903860
1.166000,0.903860
1.167000,0.903860
1.168000,0.911497
1.169000,0.907679
1.170000,0.910224
1.171000,0.914043
1.172000,0.910224
1.173000,0.911497
1.174000,0.907679
1.175000,0.917861
1.176000,0.916589
1.177000,0.911497
1.178000,0.907679
1.179000,0.905133
1.180000,0.902588
1.181000,0.906406
1.182000,0.905133
1.183000,0.912770
1.184000,0.910224
1.185000,0.914043
1.186000,0.908952
1.187000,0.910224
1.188000,0.907679
1.189000,0.908952
1.190000,0.903860
1.191000,0.906406
1.192000,0.903860
1.193000,0.910224
1.194000,0.901315
1.195000,0.908952
1.196000,0.906406
1.197000,0.914043
1.198000,0.905133
1.199000,0.910224
1.200000,0.911497
1.201000,0.912770
1.202000,0.914043
1.203000,0.907679
1.204000,0.914043
1.205000,0.912770
1.206000,0.903860
1.207000,0.902588
1.208000,0.901315
1.209000,0.898769
1.210000,0.910224
1.211000,0.905133
1.212000,0.911497
1.213000,0.910224
1.214000,0.920407
1.215000,0.919134
1.216000,0.910224
1.217000,0.907679
1.218000,0.903860
1.219000,0.900042
1.220000,0.903860
1.221000,0.907679
1.222000,0.914043
1.223000,0.907679
1.224000,0.908952
1.225000,0.903860
1.226000,0.910224
1.227000,0.902588
1.228000,0.906406
1.229000,0.900042
1.230000,0.907679
1.231000,0.900042
1.232000,0.912770
1.233000,0.905133
1.234000,0.912770
1.235000,0.910224
1.236000,0.919134
1.237000,0.921680
1.238000,0.934408
1.239000,0.948409
1.240000,0.959865
1.241000,0.972593
1.242000,0.964956
1.243000,0.962411
1.244000,0.959865
1.245000,0.952228
1.246000,0.929317
1.247000,0.902588
1.248000,0.874585
1.249000,0.833855
1.250000,0.809671
1.251000,0.799488
1.252000,0.800761
1.253000,0.812217
1.254000,0.819854
1.255000,0.833855
1.256000,0.846583
1.257000,0.870767
1.258000,0.884768
1.259000,0.901315
1.260000,0.902588
1.261000,0.910224
1.262000,0.908952
1.263000,0.921680
1.264000,0.922953
1.265000,0.925498
1.266000,0.922953
1.267000,0.925498
1.268000,0.920407
1.269000,0.925498
1.270000,0.933135
1.271000,0.922953
1.272000,0.922953
1.273000,0.916589
1.274000,0.922953
1.275000,0.916589
1.276000,0.919134
1.277000,0.916589
1.278000,0.926771
1.279000,0.919134
1.280000,0.916589
1.281000,0.922953
1.282000,0.914043
1.283000,0.910224
1.284000,0.914043
1.285000,0.908952
1.286000,0.915316
1.287000,0.912770
1.288000,0.917861
1.289000,0.914043
1.290000,0.911497
1.291000,0.908952
1.292000,0.908952
1.293000,0.908952
1.294000,0.905133
1.295000,0.907679
1.296000,0.906406
1.297000,0.911497
1.298000,0.906406
1.299000,0.908952
1.300000,0.903860
1.301000,0.914043
1.302000,0.905133
1.303000,0.916589
1.304000,0.903860
1.305000,0.906406
1.306000,0.900042
1.307000,0.902588
1.308000,0.898769
1.309000,0.911497
1.310000,0.902588
1.311000,0.906406
1.312000,0.902588
1.313000,0.915316
1.314000,0.912770
1.315000,0.902588
1.316000,0.902588
1.317000,0.914043
1.318000,0.901315
1.319000,0.910224
1.320000,0.905133
1.321000,0.910224
1.322000,0.900042
1.323000,0.905133
1.324000,0.896223
1.325000,0.905133
1.326000,0.903860
1.327000,0.908952
1.328000,0.900042
1.329000,0.908952
1.330000,0.907679
1.331000,0.917861
1.332000,0.910224
1.333000,0.916589
1.334000,0.911497
1.335000,0.919134
1.336000,0.915316
1.337000,0.910224
1.338000,0.912770
1.339000,0.912770
1.340000,0.910224
1.341000,0.900042
1.342000,0.894951
1.343000,0.893678
1.344000,0.901315
1.345000,0.906406
1.346000,0.907679
1.347000,0.903860
1.348000,0.901315
1.349000,0.901315
1.350000,0.903860
1.351000,0.903860
1.352000,0.902588
1.353000,0.905133
1.354000,0.905133
1.355000,0.905133
1.356000,0.896223
1.357000,0.897496
1.358000,0.907679
1.359000,0.900042
1.360000,0.908952
1.361000,0.907679
1.362000,0.910224
1.363000,0.900042
1.364000,0.907679
1.365000,0.902588
1.366000,0.911497
1.367000,0.915316
1.368000,0.914043
1.369000,0.915316
1.370000,0.919134
1.371000,0.912770
1.372000,0.910224
1.373000,0.901315
1.374000,0.905133
1.375000,0.905133
1.376000,0.900042
1.377000,0.901315
1.378000,0.901315
1.379000,0.912770
1.380000,0.911497
1.381000,0.915316
1.382000,0.907679
1.383000,0.912770
1.384000,0.907679
1.385000,0.917861
1.386000,0.905133
1.387000,0.905133
1.388000,0.903860
1.389000,0.911497
1.390000,0.905133
1.391000,0.905133
1.392000,0.901315
1.393000,0.906406
1.394000,0.902588
1.395000,0.901315
1.396000,0.902588
1.397000,0.908952
1.398000,0.903860
1.399000,0.908952
1.400000,0.902588
1.401000,0.905133
1.402000,0.897496
1.403000,0.906406
1.404000,0.906406
1.405000,0.902588
1.406000,0.903860
1.407000,0.905133
1.408000,0.903860
1.409000,0.906406
1.410000,0.905133
1.411000,0.905133
1.412000,0.903860
1.413000,0.905133
1.414000,0.910224
1.415000,0.914043
1.416000,0.912770
1.417000,0.902588
1.418000,0.908952
1.419000,0.903860
1.420000,0.906406
1.421000,0.903860
1.422000,0.912770
1.423000,0.907679
1.424000,0.911497
1.425000,0.905133
1.426000,0.908952
1.427000,0.906406
1.428000,0.912770
1.429000,0.915316
1.430000,0.917861
1.431000,0.908952
1.432000,0.919134
1.433000,0.910224
1.434000,0.915316
1.435000,0.902588
1.436000,0.907679
1.437000,0.900042
1.438000,0.903860
1.439000,0.883495
1.440000,0.894951
1.441000,0.893678
1.442000,0.902588
1.443000,0.898769
1.444000,0.903860
1.445000,0.901315
1.446000,0.910224
1.447000,0.903860
1.448000,0.911497
1.449000,0.900042
1.450000,0.908952
1.451000,0.897496
1.452000,0.905133
1.453000,0.893678
1.454000,0.903860
1.455000,0.900042
1.456000,0.912770
1.457000,0.905133
1.458000,0.906406
1.459000,0.898769
1.460000,0.911497
1.461000,0.903860
1.462000,0.908952
1.463000,0.906406
1.464000,0.911497
1.465000,0.907679
1.466000,0.911497
1.467000,0.908952
1.468000,0.906406
1.469000,0.901315
1.470000,0.903860
1.471000,0.903860
1.472000,0.906406
1.473000,0.910224
1.474000,0.908952
1.475000,0.907679
1.476000,0.908952
1.477000,0.903860
1.478000,0.907679
1.479000,0.905133
1.480000,0.903860
1.481000,0.907679
1.482000,0.907679
1.483000,0.908952
1.484000,0.905133
1.485000,0.907679
1.486000,0.907679
1.487000,0.908952
1.488000,0.914043
1.489000,0.903860
1.490000,0.901315
1.491000,0.894951
1.492000,0.894951
1.493000,0.898769
1.494000,0.902588
1.495000,0.901315
1.496000,0.902588
1.497000,0.898769
1.498000,0.902588
1.499000,0.908952
1.500000,0.903860
1.501000,0.912770
1.502000,0.907679
1.503000,0.907679
1.504000,0.908952
1.505000,0.911497
1.506000,0.907679
1.507000,0.906406
1.508000,0.911497
1.509000,0.911497
1.510000,0.916589
1.511000,0.910224
1.512000,0.914043
1.513000,0.912770
1.514000,0.910224
1.515000,0.911497
1.516000,0.915316
1.517000,0.916589
1.518000,0.911497
1.519000,0.911497
1.520000,0.915316
1.521000,0.912770
1.522000,0.912770
1.523000,0.912770
1.524000,0.907679
1.525000,0.901315
1.526000,0.897496
1.527000,0.892405
1.528000,0.893678
1.529000,0.893678
1.530000,0.897496
1.531000,0.906406
1.532000,0.903860
1.533000,0.905133
1.534000,0.911497
1.535000,0.911497
1.536000,0.912770
1.537000,0.912770
1.538000,0.910224
1.539000,0.902588
1.540000,0.901315
1.541000,0.901315
1.542000,0.901315
1.543000,0.901315
1.544000,0.905133
1.545000,0.907679
1.546000,0.906406
1.547000,0.907679
1.548000,0.907679
1.549000,0.908952
1.550000,0.906406
1.551000,0.903860
1.552000,0.906406
1.553000,0.914043
1.554000,0.905133
1.555000,0.902588
1.556000,0.903860
1.557000,0.901315
1.558000,0.903860
1.559000,0.896223
1.560000,0.892405
1.561000,0.893678
1.562000,0.901315
1.563000,0.908952
1.564000,0.905133
1.565000,0.896223
1.566000,0.906406
1.567000,0.907679
1.568000,0.907679
1.569000,0.906406
1.570000,0.900042
1.571000,0.898769
1.572000,0.906406
1.573000,0.914043
1.574000,0.901315
1.575000,0.908952
1.576000,0.902588
1.577000,0.906406
1.578000,0.901315
1.579000,0.900042
1.580000,0.894951
1.581000,0.908952
1.582000,0.901315
1.583000,0.908952
1.584000,0.901315
1.585000,0.908952
1.586000,0.901315
1.587000,0.907679
1.588000,0.905133
1.589000,0.903860
1.590000,0.901315
1.591000,0.902588
1.592000,0.908952
1.593000,0.910224
1.594000,0.906406
1.595000,0.907679
1.596000,0.903860
1.597000,0.903860
1.598000,0.907679
1.599000,0.910224
1.600000,0.906406
1.601000,0.903860
1.602000,0.908952
1.603000,0.907679
1.604000,0.911497
1.605000,0.905133
1.606000,0.906406
1.607000,0.901315
1.608000,0.901315
1.609000,0.905133
1.610000,0.907679
1.611000,0.907679
1.612000,0.912770
1.613000,0.907679
1.614000,0.905133
1.615000,0.910224
1.616000,0.906406
1.617000,0.903860
1.618000,0.907679
1.619000,0.914043
1.620000,0.911497
1.621000,0.898769
1.622000,0.897496
1.623000,0.905133
1.624000,0.903860
1.625000,0.901315
1.626000,0.903860
1.627000,0.898769
1.628000,0.903860
1.629000,0.902588
1.630000,0.903860
1.631000,0.902588
1.632000,0.903860
1.633000,0.905133
1.634000,0.907679
1.635000,0.908952
1.636000,0.910224
1.637000,0.906406
1.638000,0.905133
1.639000,0.902588
1.640000,0.897496
1.641000,0.902588
1.642000,0.903860
1.643000,0.902588
1.644000,0.910224
1.645000,0.910224
1.646000,0.903860
1.647000,0.905133
1.648000,0.908952
1.649000,0.906406
1.650000,0.908952
1.651000,0.902588
1.652000,0.905133
1.653000,0.905133
1.654000,0.906406
1.655000,0.910224
1.656000,0.906406
1.657000,0.901315
1.658000,0.911497
1.659000,0.911497
1.660000,0.910224
1.661000,0.910224
1.662000,0.907679
1.663000,0.911497
1.664000,0.912770
1.665000,0.915316
1.666000,0.908952
1.667000,0.907679
1.668000,0.903860
1.669000,0.897496
1.670000,0.901315
1.671000,0.902588
1.672000,0.896223
1.673000,0.897496
1.674000,0.893678
1.675000,0.901315
1.676000,0.902588
1.677000,0.900042
1.678000,0.902588
1.679000,0.903860
1.680000,0.907679
1.681000,0.908952
1.682000,0.911497
1.683000,0.908952
1.684000,0.901315
1.685000,0.906406
1.686000,0.906406
1.687000,0.908952
1.688000,0.902588
1.689000,0.903860
1.690000,0.905133
1.691000,0.903860
1.692000,0.906406
1.693000,0.906406
1.694000,0.907679
1.695000,0.910224
1.696000,0.903860
1.697000,0.910224
1.698000,0.910224
1.699000,0.908952
1.700000,0.911497
1.701000,0.914043
1.702000,0.907679
1.703000,0.914043
1.704000,0.906406
1.705000,0.906406
1.706000,0.906406
1.707000,0.912770
1.708000,0.905133
1.709000,0.910224
1.710000,0.903860
1.711000,0.908952
1.712000,0.903860
1.713000,0.908952
1.714000,0.903860
1.715000,0.907679
1.716000,0.901315
1.717000,0.911497
1.718000,0.901315
1.719000,0.902588
1.720000,0.891132
1.721000,0.891132
1.722000,0.897496
1.723000,0.902588
1.724000,0.902588
1.725000,0.894951
1.726000,0.906406
1.727000,0.906406
1.728000,0.908952
1.729000,0.914043
1.730000,0.907679
1.731000,0.900042
1.732000,0.908952
1.733000,0.902588
1.734000,0.906406
1.735000,0.900042
1.736000,0.911497
1.737000,0.905133
1.738000,0.908952
1.739000,0.903860
1.740000,0.906406
1.741000,0.907679
1.742000,0.903860
1.743000,0.903860
1.744000,0.914043
1.745000,0.908952
1.746000,0.912770
1.747000,0.911497
1.748000,0.912770
1.749000,0.910224
1.750000,0.919134
1.751000,0.907679
1.752000,0.914043
1.753000,0.903860
1.754000,0.911497
1.755000,0.907679
1.756000,0.903860
1.757000,0.905133
1.758000,0.903860
1.759000,0.905133
1.760000,0.908952
1.761000,0.906406
1.762000,0.911497
1.763000,0.915316
1.764000,0.911497
1.765000,0.908952
1.766000,0.920407
1.767000,0.922953
1.768000,0.912770
1.769000,0.906406
1.770000,0.901315
1.771000,0.911497
1.772000,0.903860
1.773000,0.902588
1.774000,0.883495
1.775000,0.883495
1.776000,0.884768
1.777000,0.893678
1.778000,0.891132
1.779000,0.898769
1.780000,0.897496
1.781000,0.907679
1.782000,0.898769
1.783000,0.911497
1.784000,0.910224
1.785000,0.912770
1.786000,0.908952
1.787000,0.912770
1.788000,0.916589
1.789000,0.916589
1.790000,0.916589
1.791000,0.914043
1.792000,0.907679
1.793000,0.916589
1.794000,0.914043
1.795000,0.908952
1.796000,0.906406
1.797000,0.901315
1.798000,0.894951
1.799000,0.897496
1.800000,0.891132
1.801000,0.896223
1.802000,0.894951
1.803000,0.891132
1.804000,0.893678
1.805000,0.903860
1.806000,0.912770
1.807000,0.905133
1.808000,0.905133
1.809000,0.903860
1.810000,0.900042
1.811000,0.898769
1.812000,0.903860
1.813000,0.897496
1.814000,0.912770
1.815000,0.911497
1.816000,0.917861
1.817000,0.914043
1.818000,0.911497
1.819000,0.903860
1.820000,0.902588
1.821000,0.902588
1.822000,0.911497
1.823000,0.911497
1.824000,0.900042
1.825000,0.894951
1.826000,0.888586
1.827000,0.886041
1.828000,0.891132
1.829000,0.893678
1.830000,0.901315
1.831000,0.905133
1.832000,0.910224
1.833000,0.907679
1.834000,0.908952
1.835000,0.907679
1.836000,0.915316
1.837000,0.916589
1.838000,0.917861
1.839000,0.901315
1.840000,0.906406
1.841000,0.915316
1.842000,0.910224
1.843000,0.919134
1.844000,0.925498
1.845000,0.924226
1.846000,0.925498
1.847000,0.912770
1.848000,0.917861
1.849000,0.914043
1.850000,0.914043
1.851000,0.901315
1.852000,0.903860
1.853000,0.893678
1.854000,0.886041
1.855000,0.874585
1.856000,0.886041
1.857000,0.884768
1.858000,0.901315
1.859000,0.896223
1.860000,0.900042
1.861000,0.901315
1.862000,0.903860
1.863000,0.901315
1.864000,0.908952
1.865000,0.915316
1.866000,0.914043
1.867000,0.921680
1.868000,0.921680
1.869000,0.917861
1.870000,0.916589
1.871000,0.910224
1.872000,0.905133
1.873000,0.906406
1.874000,0.894951
1.875000,0.900042
1.876000,0.906406
1.877000,0.896223
1.878000,0.910224
1.879000,0.905133
1.880000,0.903860
1.881000,0.908952
1.882000,0.911497
1.883000,0.912770
1.884000,0.908952
1.885000,0.903860
1.886000,0.907679
1.887000,0.907679
1.888000,0.905133
1.889000,0.903860
1.890000,0.907679
1.891000,0.907679
1.892000,0.906406
1.893000,0.901315
1.894000,0.910224
1.895000,0.900042
1.896000,0.910224
1.897000,0.907679
1.898000,0.916589
1.899000,0.911497
1.900000,0.917861
1.901000,0.910224
1.902000,0.912770
1.903000,0.907679
1.904000,0.914043
1.905000,0.907679
1.906000,0.912770
1.907000,0.901315
1.908000,0.911497
1.909000,0.906406
1.910000,0.912770
1.911000,0.898769
1.912000,0.898769
1.913000,0.894951
1.914000,0.897496
1.915000,0.900042
1.916000,0.901315
1.917000,0.901315
1.918000,0.902588
1.919000,0.903860
1.920000,0.911497
1.921000,0.912770
1.922000,0.908952
1.923000,0.903860
1.924000,0.902588
1.925000,0.900042
1.926000,0.903860
1.927000,0.906406
1.928000,0.907679
1.929000,0.910224
1.930000,0.900042
1.931000,0.905133
1.932000,0.903860
1.933000,0.901315
1.934000,0.901315
1.935000,0.902588
1.936000,0.896223
1.937000,0.910224
1.938000,0.906406
1.939000,0.915316
1.940000,0.900042
1.941000,0.903860
1.942000,0.901315
1.943000,0.907679
1.944000,0.897496
1.945000,0.912770
1.946000,0.903860
1.947000,0.915316
1.948000,0.912770
1.949000,0.921680
1.950000,0.912770
1.951000,0.907679
1.952000,0.911497
1.953000,0.907679
1.954000,0.901315
1.955000,0.894951
1.956000,0.898769
1.957000,0.903860
1.958000,0.905133
1.959000,0.910224
1.960000,0.903860
1.961000,0.898769
1.962000,0.893678
1.963000,0.897496
1.964000,0.898769
1.965000,0.905133
1.966000,0.906406
1.967000,0.905133
1.968000,0.903860
1.969000,0.907679
1.970000,0.915316
1.971000,0.905133
1.972000,0.911497
1.973000,0.912770
1.974000,0.915316
1.975000,0.903860
1.976000,0.915316
1.977000,0.908952
1.978000,0.905133
1.979000,0.901315
1.980000,0.902588
1.981000,0.908952
1.982000,0.907679
1.983000,0.900042
1.984000,0.898769
1.985000,0.896223
1.986000,0.894951
1.987000,0.898769
1.988000,0.898769
1.989000,0.906406
1.990000,0.900042
1.991000,0.898769
1.992000,0.900042
1.993000,0.905133
1.994000,0.905133
1.995000,0.906406
1.996000,0.901315
1.997000,0.910224
1.998000,0.898769
1.999000,0.896223
2.000000,0.898769
2.001000,0.915316
2.002000,0.915316
2.003000,0.921680
2.004000,0.914043
2.005000,0.917861
2.006000,0.914043
2.007000,0.914043
2.008000,0.903860
2.009000,0.906406
2.010000,0.903860
2.011000,0.903860
2.012000,0.902588
2.013000,0.908952
2.014000,0.903860
2.015000,0.902588
2.016000,0.896223
2.017000,0.908952
2.018000,0.903860
2.019000,0.916589
2.020000,0.907679
2.021000,0.915316
2.022000,0.911497
2.023000,0.903860
2.024000,0.898769
2.025000,0.911497
2.026000,0.905133
2.027000,0.902588
2.028000,0.897496
2.029000,0.906406
2.030000,0.896223
2.031000,0.903860
2.032000,0.893678
2.033000,0.900042
2.034000,0.892405
2.035000,0.905133
2.036000,0.896223
2.037000,0.907679
2.038000,0.905133
2.039000,0.914043
2.040000,0.905133
2.041000,0.903860
2.042000,0.898769
2.043000,0.905133
2.044000,0.907679
2.045000,0.908952
2.046000,0.897496
2.047000,0.894951
2.048000,0.897496
2.049000,0.906406
2.050000,0.907679
2.051000,0.920407
2.052000,0.908952
2.053000,0.906406
2.054000,0.900042
2.055000,0.900042
2.056000,0.905133
2.057000,0.898769
2.058000,0.901315
2.059000,0.906406
2.060000,0.910224
2.061000,0.897496
2.062000,0.905133
2.063000,0.912770
2.064000,0.906406
2.065000,0.906406
2.066000,0.911497
2.067000,0.905133
2.068000,0.912770
2.069000,0.911497
2.070000,0.910224
2.071000,0.906406
2.072000,0.908952
2.073000,0.905133
2.074000,0.907679
2.075000,0.902588
2.076000,0.907679
2.077000,0.898769
2.078000,0.894951
2.079000,0.898769
2.080000,0.900042
2.081000,0.901315
2.082000,0.897496
2.083000,0.907679
2.084000,0.901315
2.085000,0.907679
2.086000,0.903860
2.087000,0.911497
2.088000,0.903860
2.089000,0.911497
2.090000,0.903860
2.091000,0.905133
2.092000,0.900042
2.093000,0.902588
2.094000,0.894951
2.095000,0.908952
2.096000,0.903860
2.097000,0.919134
2.098000,0.911497
2.099000,0.920407
2.100000,0.908952
2.101000,0.917861
2.102000,0.915316
2.103000,0.910224
2.104000,0.903860
2.105000,0.897496
2.106000,0.893678
2.107000,0.903860
2.108000,0.901315
2.109000,0.898769
2.110000,0.898769
2.111000,0.900042
2.112000,0.903860
2.113000,0.901315
2.114000,0.903860
2.115000,0.905133
2.116000,0.903860
2.117000,0.907679
2.118000,0.903860
2.119000,0.908952
2.120000,0.908952
2.121000,0.907679
2.122000,0.916589
2.123000,0.910224
2.124000,0.902588
2.125000,0.907679
2.126000,0.905133
2.127000,0.912770
2.128000,0.910224
2.129000,0.907679
2.130000,0.910224
2.131000,0.907679
2.132000,0.908952
2.133000,0.907679
2.134000,0.912770
2.135000,0.912770
2.136000,0.911497
2.137000,0.910224
2.138000,0.902588
2.139000,0.907679
2.140000,0.903860
2.141000,0.903860
2.142000,0.903860
2.143000,0.903860
2.144000,0.902588
2.145000,0.905133
2.146000,0.902588
2.147000,0.912770
2.148000,0.911497
2.149000,0.911497
2.150000,0.916589
2.151000,0.917861
2.152000,0.903860
2.153000,0.912770
2.154000,0.907679
2.155000,0.912770
2.156000,0.907679
2.157000,0.908952
2.158000,0.908952
2.159000,0.906406
2.160000,0.906406
2.161000,0.907679
2.162000,0.900042
2.163000,0.907679
2.164000,0.908952
2.165000,0.910224
2.166000,0.908952
2.167000,0.911497
2.168000,0.906406
2.169000,0.908952
2.170000,0.903860
2.171000,0.898769
2.172000,0.900042
2.173000,0.903860
2.174000,0.911497
2.175000,0.907679
2.176000,0.906406
2.177000,0.907679
2.178000,0.906406
2.179000,0.912770
2.180000,0.905133
2.181000,0.906406
2.182000,0.903860
2.183000,0.901315
2.184000,0.898769
2.185000,0.902588
2.186000,0.908952
2.187000,0.910224
2.188000,0.911497
2.189000,0.911497
2.190000,0.906406
2.191000,0.907679
2.192000,0.911497
2.193000,0.903860
2.194000,0.903860
2.195000,0.896223
2.196000,0.910224
2.197000,0.903860
2.198000,0.912770
2.199000,0.903860
2.200000,0.914043
2.201000,0.911497
2.202000,0.917861
2.203000,0.906406
2.204000,0.903860
2.205000,0.901315
2.206000,0.903860
2.207000,0.901315
2.208000,0.905133
2.209000,0.903860
2.210000,0.910224
2.211000,0.903860
2.212000,0.906406
2.213000,0.905133
2.214000,0.911497
2.215000,0.903860
2.216000,0.908952
2.217000,0.902588
2.218000,0.906406
2.219000,0.896223
2.220000,0.905133
2.221000,0.901315
2.222000,0.903860
2.223000,0.893678
2.224000,0.902588
2.225000,0.893678
2.226000,0.906406
2.227000,0.897496
2.228000,0.910224
2.229000,0.902588
2.230000,0.907679
2.231000,0.903860
2.232000,0.908952
2.233000,0.903860
2.234000,0.908952
2.235000,0.902588
2.236000,0.908952
2.237000,0.902588
2.238000,0.907679
2.239000,0.903860
2.240000,0.907679
2.241000,0.898769
2.242000,0.902588
2.243000,0.898769
2.244000,0.906406
2.245000,0.903860
2.246000,0.911497
2.247000,0.908952
2.248000,0.911497
2.249000,0.907679
2.250000,0.916589
2.251000,0.903860
2.252000,0.912770
2.253000,0.910224
2.254000,0.912770
2.255000,0.905133
2.256000,0.910224
2.257000,0.901315
2.258000,0.906406
2.259000,0.902588
2.260000,0.905133
2.261000,0.896223
2.262000,0.907679
2.263000,0.910224
2.264000,0.911497
2.265000,0.901315
2.266000,0.911497
2.267000,0.907679
2.268000,0.911497
2.269000,0.903860
2.270000,0.901315
2.271000,0.902588
2.272000,0.911497
2.273000,0.902588
2.274000,0.902588
2.275000,0.897496
2.276000,0.903860
2.277000,0.902588
2.278000,0.910224
2.279000,0.907679
2.280000,0.911497
2.281000,0.906406
2.282000,0.908952
2.283000,0.905133
2.284000,0.903860
2.285000,0.900042
2.286000,0.906406
2.287000,0.898769
2.288000,0.903860
2.289000,0.894951
2.290000,0.902588
2.291000,0.894951
2.292000,0.897496
2.293000,0.893678
2.294000,0.898769
2.295000,0.898769
2.296000,0.907679
2.297000,0.898769
2.298000,0.907679
2.299000,0.907679
2.300000,0.912770
2.301000,0.900042
2.302000,0.911497
2.303000,0.907679
2.304000,0.910224
2.305000,0.907679
2.306000,0.915316
2.307000,0.900042
2.308000,0.901315
2.309000,0.905133
2.310000,0.907679
2.311000,0.911497
2.312000,0.908952
2.313000,0.907679
2.314000,0.898769
2.315000,0.910224
2.316000,0.902588
2.317000,0.903860
2.318000,0.901315
2.319000,0.907679
2.320000,0.906406
2.321000,0.912770
2.322000,0.906406
2.323000,0.905133
2.324000,0.901315
2.325000,0.900042
2.326000,0.900042
2.327000,0.894951
2.328000,0.902588
2.329000,0.902588
2.330000,0.910224
2.331000,0.902588
2.332000,0.908952
2.333000,0.906406
2.334000,0.908952
2.335000,0.906406
2.336000,0.905133
2.337000,0.903860
2.338000,0.905133
2.339000,0.903860
2.340000,0.898769
2.341000,0.908952
2.342000,0.898769
2.343000,0.902588
2.344000,0.901315
2.345000,0.902588
2.346000,0.898769
2.347000,0.903860
2.348000,0.914043
2.349000,0.910224
2.350000,0.911497
2.351000,0.912770
2.352000,0.908952
2.353000,0.914043
2.354000,0.914043
2.355000,0.914043
2.356000,0.912770
2.357000,0.914043
2.358000,0.921680
2.359000,0.907679
2.360000,0.915316
2.361000,0.914043
2.362000,0.919134
2.363000,0.905133
2.364000,0.898769
2.365000,0.893678
2.366000,0.902588
2.367000,0.900042
2.368000,0.902588
2.369000,0.903860
2.370000,0.898769
2.371000,0.896223
2.372000,0.893678
2.373000,0.896223
2.374000,0.896223
2.375000,0.898769
2.376000,0.897496
2.377000,0.903860
2.378000,0.905133
2.379000,0.911497
2.380000,0.907679
2.381000,0.912770
2.382000,0.906406
2.383000,0.910224
2.384000,0.906406
2.385000,0.917861
2.386000,0.908952
2.387000,0.920407
2.388000,0.907679
2.389000,0.916589
2.390000,0.906406
2.391000,0.914043
2.392000,0.901315
2.393000,0.908952
2.394000,0.901315
2.395000,0.906406
2.396000,0.898769
2.397000,0.908952
2.398000,0.906406
2.399000,0.905133
2.400000,0.902588
2.401000,0.907679
2.402000,0.894951
2.403000,0.897496
2.404000,0.893678
2.405000,0.898769
2.406000,0.894951
2.407000,0.906406
2.408000,0.896223
2.409000,0.910224
2.410000,0.900042
2.411000,0.905133
2.412000,0.901315
2.413000,0.911497
2.414000,0.906406
2.415000,0.915316
2.416000,0.912770
2.417000,0.915316
2.418000,0.916589
2.419000,0.907679
2.420000,0.908952
2.421000,0.910224
2.422000,0.903860
2.423000,0.908952
2.424000,0.903860
2.425000,0.903860
2.426000,0.912770
2.427000,0.914043
2.428000,0.917861
2.429000,0.911497
2.430000,0.907679
2.431000,0.905133
2.432000,0.914043
2.433000,0.915316
2.434000,0.919134
2.435000,0.917861
2.436000,0.914043
2.437000,0.910224
2.438000,0.905133
2.439000,0.892405
2.440000,0.897496
2.441000,0.891132
2.442000,0.887314
2.443000,0.887314
2.444000,0.886041
2.445000,0.900042
2.446000,0.914043
2.447000,0.905133
2.448000,0.912770
2.449000,0.910224
2.450000,0.917861
2.451000,0.908952
2.452000,0.910224
2.453000,0.903860
2.454000,0.905133
2.455000,0.901315
2.456000,0.912770
2.457000,0.901315
2.458000,0.906406
2.459000,0.901315
2.460000,0.907679
2.461000,0.901315
2.462000,0.914043
2.463000,0.905133
2.464000,0.908952
2.465000,0.901315
2.466000,0.907679
2.467000,0.900042
2.468000,0.914043
2.469000,0.905133
2.470000,0.906406
2.471000,0.902588
2.472000,0.912770
2.473000,0.905133
2.474000,0.900042
2.475000,0.900042
2.476000,0.898769
2.477000,0.902588
2.478000,0.903860
2.479000,0.905133
2.480000,0.902588
2.481000,0.903860
2.482000,0.903860
2.483000,0.906406
2.484000,0.910224
2.485000,0.907679
2.486000,0.907679
2.487000,0.907679
2.488000,0.902588
2.489000,0.907679
2.490000,0.906406
2.491000,0.905133
2.492000,0.907679
2.493000,0.906406
2.494000,0.908952
2.495000,0.905133
2.496000,0.901315
2.497000,0.905133
2.498000,0.901315
2.499000,0.903860
2.500000,0.903860
2.501000,0.901315
2.502000,0.905133
2.503000,0.910224
2.504000,0.905133
2.505000,0.907679
2.506000,0.905133
2.507000,0.910224
2.508000,0.914043
2.509000,0.916589
2.510000,0.914043
2.511000,0.907679
2.512000,0.906406
2.513000,0.905133
2.514000,0.911497
2.515000,0.911497
2.516000,0.907679
2.517000,0.911497
2.518000,0.912770
2.519000,0.911497
2.520000,0.907679
2.521000,0.911497
2.522000,0.908952
2.523000,0.903860
2.524000,0.898769
2.525000,0.903860
2.526000,0.902588
2.527000,0.900042
2.528000,0.900042
2.529000,0.907679
2.530000,0.902588
2.531000,0.911497
2.532000,0.900042
2.533000,0.912770
2.534000,0.908952
2.535000,0.917861
2.536000,0.914043
2.537000,0.915316
2.538000,0.915316
2.539000,0.912770
2.540000,0.910224
2.541000,0.908952
2.542000,0.902588
2.543000,0.902588
2.544000,0.894951
2.545000,0.906406
2.546000,0.897496
2.547000,0.912770
2.548000,0.914043
2.549000,0.914043
2.550000,0.915316
2.551000,0.903860
2.552000,0.893678
2.553000,0.891132
2.554000,0.883495
2.555000,0.887314
2.556000,0.888586
2.557000,0.891132
2.558000,0.887314
2.559000,0.897496
2.560000,0.908952
2.561000,0.912770
2.562000,0.917861
2.563000,0.919134
2.564000,0.920407
2.565000,0.914043
2.566000,0.925498
2.567000,0.916589
2.568000,0.926771
2.569000,0.929317
2.570000,0.929317
2.571000,0.917861
2.572000,0.917861
2.573000,0.894951
2.574000,0.893678
2.575000,0.891132
2.576000,0.888586
2.577000,0.892405
2.578000,0.891132
2.579000,0.891132
2.580000,0.888586
2.581000,0.898769
2.582000,0.896223
2.583000,0.901315
2.584000,0.900042
2.585000,0.908952
2.586000,0.915316
2.587000,0.934408
2.588000,0.922953
2.589000,0.928044
2.590000,0.919134
2.591000,0.928044
2.592000,0.930590
2.593000,0.924226
2.594000,0.925498
2.595000,0.922953
2.596000,0.908952
2.597000,0.907679
2.598000,0.894951
2.599000,0.891132
2.600000,0.896223
2.601000,0.892405
2.602000,0.878404
2.603000,0.865675
2.604000,0.875858
2.605000,0.877131
2.606000,0.889859
2.607000,0.884768
2.608000,0.893678
2.609000,0.892405
2.610000,0.901315
2.611000,0.908952
2.612000,0.911497
2.613000,0.915316
2.614000,0.920407
2.615000,0.922953
2.616000,0.924226
2.617000,0.926771
2.618000,0.929317
2.619000,0.929317
2.620000,0.922953
2.621000,0.910224
2.622000,0.900042
2.623000,0.901315
2.624000,0.894951
2.625000,0.897496
2.626000,0.889859
2.627000,0.897496
2.628000,0.897496
2.629000,0.906406
2.630000,0.903860
2.631000,0.919134
2.632000,0.914043
2.633000,0.916589
2.634000,0.907679
2.635000,0.914043
2.636000,0.912770
2.637000,0.922953
2.638000,0.903860
2.639000,0.906406
2.640000,0.902588
2.641000,0.919134
2.642000,0.916589
2.643000,0.919134
2.644000,0.914043
2.645000,0.919134
2.646000,0.901315
2.647000,0.905133
2.648000,0.897496
2.649000,0.888586
2.650000,0.891132
2.651000,0.906406
2.652000,0.906406
2.653000,0.911497
2.654000,0.907679
2.655000,0.916589
2.656000,0.907679
2.657000,0.908952
2.658000,0.910224
2.659000,0.910224
2.660000,0.910224
2.661000,0.908952
2.662000,0.914043
2.663000,0.911497
2.664000,0.911497
2.665000,0.915316
2.666000,0.922953
2.667000,0.917861
2.668000,0.911497
2.669000,0.916589
2.670000,0.915316
2.671000,0.915316
2.672000,0.917861
2.673000,0.915316
2.674000,0.911497
2.675000,0.914043
2.676000,0.917861
2.677000,0.903860
2.678000,0.912770
2.679000,0.908952
2.680000,0.917861
2.681000,0.919134
2.682000,0.906406
2.683000,0.903860
2.684000,0.898769
2.685000,0.893678
2.686000,0.884768
2.687000,0.880949
2.688000,0.878404
2.689000,0.880949
2.690000,0.883495
2.691000,0.887314
2.692000,0.893678
2.693000,0.903860
2.694000,0.879677
2.695000,0.880949
2.696000,0.888586
2.697000,0.901315
2.698000,0.911497
2.699000,0.902588
2.700000,0.887314
2.701000,0.883495
2.702000,0.884768
2.703000,0.902588
2.704000,0.898769
2.705000,0.901315
2.706000,0.894951
2.707000,0.911497
2.708000,0.908952
2.709000,0.907679
2.710000,0.911497
2.711000,0.893678
2.712000,0.877131
2.713000,0.872040
2.714000,0.919134
2.715000,0.959865
2.716000,0.947137
2.717000,0.943318
2.718000,0.938227
2.719000,0.934408
2.720000,0.942045
2.721000,0.922953
2.722000,0.900042
2.723000,0.889859
2.724000,0.892405
2.725000,0.866948
2.726000,0.869494
2.727000,0.856766
2.728000,0.863130
2.729000,0.855493
2.730000,0.852947
2.731000,0.865675
2.732000,0.874585
2.733000,0.879677
2.734000,0.891132
2.735000,0.903860
2.736000,0.911497
2.737000,0.917861
2.738000,0.921680
2.739000,0.921680
2.740000,0.930590
2.741000,0.953501
2.742000,0.975139
2.743000,0.984049
2.744000,0.978957
2.745000,0.989140
2.746000,0.980230
2.747000,0.975139
2.748000,0.942045
2.749000,0.921680
2.750000,0.883495
2.751000,0.868221
2.752000,0.837673
2.753000,0.827491
2.754000,0.826218
2.755000,0.842764
2.756000,0.866948
2.757000,0.878404
2.758000,0.875858
2.759000,0.872040
2.760000,0.889859
2.761000,0.906406
2.762000,0.920407
2.763000,0.935681
2.764000,0.925498
2.765000,0.930590
2.766000,0.922953
2.767000,0.914043
2.768000,0.910224
2.769000,0.910224
2.770000,0.925498
2.771000,0.919134
2.772000,0.902588
2.773000,0.916589
2.774000,0.921680
2.775000,0.908952
2.776000,0.902588
2.777000,0.912770
2.778000,0.920407
2.779000,0.905133
2.780000,0.897496
2.781000,0.901315
2.782000,0.911497
2.783000,0.914043
2.784000,0.917861
2.785000,0.912770
2.786000,0.915316
2.787000,0.916589
2.788000,0.917861
2.789000,0.907679
2.790000,0.912770
2.791000,0.907679
2.792000,0.905133
2.793000,0.908952
2.794000,0.929317
2.795000,0.930590
2.796000,0.935681
2.797000,0.928044
2.798000,0.930590
2.799000,0.920407
2.800000,0.917861
2.801000,0.916589
2.802000,0.930590
2.803000,0.929317
2.804000,0.944591
2.805000,0.948409
2.806000,0.958592
2.807000,0.936954
2.808000,0.928044
2.809000,0.917861
2.810000,0.915316
2.811000,0.898769
2.812000,0.894951
2.813000,0.872040
2.814000,0.838946
2.815000,0.832582
2.816000,0.817308
2.817000,0.814762
2.818000,0.809671
2.819000,0.816035
2.820000,0.821126
2.821000,0.844037
2.822000,0.873312
2.823000,0.903860
2.824000,0.907679
2.825000,0.907679
2.826000,0.911497
2.827000,0.910224
2.828000,0.916589
2.829000,0.920407
2.830000,0.916589
2.831000,0.915316
2.832000,0.917861
2.833000,0.930590
2.834000,0.930590
2.835000,0.944591
2.836000,0.926771
2.837000,0.920407
2.838000,0.915316
2.839000,0.929317
2.840000,0.947137
2.841000,0.948409
2.842000,0.949682
2.843000,0.953501
2.844000,0.929317
2.845000,0.912770
2.846000,0.892405
2.847000,0.898769
2.848000,0.891132
2.849000,0.888586
2.850000,0.883495
2.851000,0.896223
2.852000,0.891132
2.853000,0.905133
2.854000,0.914043
2.855000,0.934408
2.856000,0.934408
2.857000,0.911497
2.858000,0.901315
2.859000,0.906406
2.860000,0.901315
2.861000,0.910224
2.862000,0.908952
2.863000,0.903860
2.864000,0.906406
2.865000,0.908952
2.866000,0.902588
2.867000,0.884768
2.868000,0.884768
2.869000,0.884768
2.870000,0.882222
2.871000,0.900042
2.872000,0.905133
2.873000,0.884768
2.874000,0.911497
2.875000,0.938227
2.876000,0.962411
2.877000,0.959865
2.878000,0.975139
2.879000,0.976412
2.880000,0.976412
2.881000,0.976412
2.882000,0.986594
2.883000,0.961138
2.884000,0.940772
2.885000,0.907679
2.886000,0.880949
2.887000,0.842764
2.888000,0.818581
2.889000,0.781669
2.890000,0.798215
2.891000,0.788033
2.892000,0.799488
2.893000,0.795670
2.894000,0.796943
2.895000,0.807125
2.896000,0.832582
2.897000,0.859311
2.898000,0.882222
2.899000,0.884768
2.900000,0.900042
2.901000,0.915316
2.902000,0.921680
2.903000,0.925498
2.904000,0.912770
2.905000,0.928044
2.906000,0.950955
2.907000,0.958592
2.908000,0.939500
2.909000,0.928044
2.910000,0.928044
2.911000,0.916589
2.912000,0.896223
2.913000,0.891132
2.914000,0.903860
2.915000,0.893678
2.916000,0.911497
2.917000,0.921680
2.918000,0.929317
2.919000,0.930590
2.920000,0.915316
2.921000,0.892405
2.922000,0.901315
2.923000,0.911497
2.924000,0.933135
2.925000,0.931863
2.926000,0.934408
2.927000,0.936954
2.928000,0.952228
2.929000,0.959865
2.930000,0.985321
2.931000,0.996777
2.932000,1.014597
2.933000,1.022234
2.934000,1.033689
2.935000,1.020961
2.936000,1.008232
2.937000,0.964956
2.938000,0.934408
2.939000,0.888586
2.940000,0.844037
2.941000,0.807125
2.942000,0.766395
2.943000,0.730755
2.944000,0.723118
2.945000,0.723118
2.946000,0.754939
2.947000,0.788033
2.948000,0.844037
2.949000,0.873312
2.950000,0.893678
2.951000,0.926771
2.952000,0.936954
2.953000,0.944591
2.954000,0.954774
2.955000,0.957319
2.956000,0.964956
2.957000,0.950955
2.958000,0.945864
2.959000,0.939500
2.960000,0.954774
2.961000,0.976412
2.962000,0.972593
2.963000,0.957319
2.964000,0.933135
2.965000,0.906406
2.966000,0.907679
2.967000,0.919134
2.968000,0.900042
2.969000,0.878404
2.970000,0.865675
2.971000,0.892405
2.972000,0.916589
2.973000,0.917861
2.974000,0.898769
2.975000,0.896223
2.976000,0.887314
2.977000,0.893678
2.978000,0.901315
2.979000,0.911497
2.980000,0.911497
2.981000,0.908952
2.982000,0.897496
2.983000,0.875858
2.984000,0.861857
2.985000,0.866948
2.986000,0.872040
2.987000,0.898769
2.988000,0.915316
2.989000,0.935681
2.990000,0.924226
2.991000,0.924226
2.992000,0.912770
2.993000,0.921680
2.994000,0.907679
2.995000,0.900042
2.996000,0.883495
2.997000,0.897496
2.998000,0.892405
2.999000,0.915316
3.000000,0.922953
3.001000,0.925498
3.002000,0.910224
3.003000,0.903860
3.004000,0.879677
3.005000,0.893678
3.006000,0.902588
3.007000,0.925498
3.008000,0.912770
3.009000,0.907679
3.010000,0.903860
3.011000,0.911497
3.012000,0.920407
3.013000,0.948409
3.014000,0.958592
3.015000,0.950955
3.016000,0.956046
3.017000,0.959865
3.018000,0.942045
3.019000,0.922953
3.020000,0.906406
3.021000,0.892405
3.022000,0.883495
3.023000,0.873312
3.024000,0.826218
3.025000,0.842764
3.026000,0.849129
3.027000,0.845310
3.028000,0.835128
3.029000,0.850401
3.030000,0.861857
3.031000,0.891132
3.032000,0.915316
3.033000,0.920407
3.034000,0.928044
3.035000,0.929317
3.036000,0.939500
3.037000,0.924226
3.038000,0.921680
3.039000,0.908952
3.040000,0.910224
3.041000,0.900042
3.042000,0.906406
3.043000,0.917861
3.044000,0.917861
3.045000,0.917861
3.046000,0.935681
3.047000,0.924226
3.048000,0.893678
3.049000,0.855493
3.050000,0.866948
3.051000,0.866948
3.052000,0.868221
3.053000,0.878404
3.054000,0.906406
3.055000,0.908952
3.056000,0.921680
3.057000,0.928044
3.058000,0.939500
3.059000,0.958592
3.060000,0.980230
3.061000,0.967502
3.062000,0.973866
3.063000,0.978957
3.064000,0.959865
3.065000,0.961138
3.066000,0.950955
3.067000,0.903860
3.068000,0.897496
3.069000,0.908952
3.070000,0.934408
3.071000,0.936954
3.072000,0.911497
3.073000,0.902588
3.074000,0.914043
3.075000,0.873312
3.076000,0.847856
3.077000,0.831309
3.078000,0.847856
3.079000,0.824945
3.080000,0.832582
3.081000,0.844037
3.082000,0.858038
3.083000,0.860584
3.084000,0.872040
3.085000,0.893678
3.086000,0.934408
3.087000,0.959865
3.088000,0.968775
3.089000,0.973866
3.090000,0.994231
3.091000,1.000595
3.092000,1.013324
3.093000,1.014597
3.094000,1.015869
3.095000,0.977684
3.096000,0.950955
3.097000,0.926771
3.098000,0.874585
3.099000,0.817308
3.100000,0.777850
3.101000,0.775305
3.102000,0.766395
3.103000,0.780396
3.104000,0.804580
3.105000,0.824945
3.106000,0.846583
3.107000,0.856766
3.108000,0.875858
3.109000,0.873312
3.110000,0.859311
3.111000,0.878404
3.112000,0.894951
3.113000,0.915316
3.114000,0.931863
3.115000,0.939500
3.116000,0.945864
3.117000,0.942045
3.118000,0.967502
3.119000,0.962411
3.120000,0.954774
3.121000,0.944591
3.122000,0.921680
3.123000,0.879677
3.124000,0.877131
3.125000,0.889859
3.126000,0.910224
3.127000,0.922953
3.128000,0.924226
3.129000,0.920407
3.130000,0.930590
3.131000,0.924226
3.132000,0.920407
3.133000,0.898769
3.134000,0.902588
3.135000,0.911497
3.136000,0.928044
3.137000,0.914043
3.138000,0.914043
3.139000,0.908952
3.140000,0.933135
3.141000,0.928044
3.142000,0.934408
3.143000,0.933135
3.144000,0.943318
3.145000,0.964956
3.146000,0.970047
3.147000,0.958592
3.148000,0.964956
3.149000,0.956046
3.150000,0.947137
3.151000,0.910224
3.152000,0.894951
3.153000,0.873312
3.154000,0.842764
3.155000,0.827491
3.156000,0.818581
3.157000,0.849129
3.158000,0.847856
3.159000,0.846583
3.160000,0.851674
3.161000,0.861857
3.162000,0.878404
3.163000,0.889859
3.164000,0.908952
3.165000,0.903860
3.166000,0.944591
3.167000,0.978957
3.168000,0.990413
3.169000,1.019688
3.170000,1.012051
3.171000,0.990413
3.172000,0.958592
3.173000,0.948409
3.174000,0.924226
3.175000,0.879677
3.176000,0.842764
3.177000,0.791851
3.178000,0.753666
3.179000,0.794397
3.180000,0.802034
3.181000,0.808398
3.182000,0.823672
3.183000,0.842764
3.184000,0.873312
3.185000,0.919134
3.186000,0.928044
3.187000,0.952228
3.188000,0.970047
3.189000,0.982776
3.190000,0.977684
3.191000,0.964956
3.192000,0.938227
3.193000,0.935681
3.194000,0.924226
3.195000,0.919134
3.196000,0.893678
3.197000,0.879677
3.198000,0.838946
3.199000,0.813489
3.200000,0.802034
3.201000,0.838946
3.202000,0.858038
3.203000,0.882222
3.204000,0.902588
3.205000,0.924226
3.206000,0.934408
3.207000,0.949682
3.208000,0.922953
3.209000,0.905133
3.210000,0.911497
3.211000,0.934408
3.212000,0.942045
3.213000,0.933135
3.214000,0.928044
3.215000,0.921680
3.216000,0.900042
3.217000,0.863130
3.218000,0.863130
3.219000,0.894951
3.220000,0.905133
3.221000,0.910224
3.222000,0.912770
3.223000,0.912770
3.224000,0.911497
3.225000,0.925498
3.226000,0.929317
3.227000,0.935681
3.228000,0.943318
3.229000,0.934408
3.230000,0.944591
3.231000,0.933135
3.232000,0.916589
3.233000,0.928044
3.234000,0.914043
3.235000,0.898769
3.236000,0.880949
3.237000,0.869494
3.238000,0.833855
3.239000,0.837673
3.240000,0.846583
3.241000,0.846583
3.242000,0.850401
3.243000,0.886041
3.244000,0.888586
3.245000,0.894951
3.246000,0.905133
3.247000,0.929317
3.248000,0.929317
3.249000,0.931863
3.250000,0.926771
3.251000,0.942045
3.252000,0.964956
3.253000,0.992958
3.254000,0.991686
3.255000,1.000595
3.256000,0.999323
3.257000,0.985321
3.258000,0.971320
3.259000,0.936954
3.260000,0.898769
3.261000,0.849129
3.262000,0.816035
3.263000,0.822399
3.264000,0.821126
3.265000,0.803307
3.266000,0.817308
3.267000,0.837673
3.268000,0.847856
3.269000,0.889859
3.270000,0.907679
3.271000,0.930590
3.272000,0.933135
3.273000,0.935681
3.274000,0.938227
3.275000,0.930590
3.276000,0.950955
3.277000,0.940772
3.278000,0.906406
3.279000,0.906406
3.280000,0.897496
3.281000,0.900042
3.282000,0.908952
3.283000,0.942045
3.284000,0.916589
3.285000,0.914043
3.286000,0.912770
3.287000,0.905133
3.288000,0.883495
3.289000,0.875858
3.290000,0.854220
3.291000,0.872040
3.292000,0.877131
3.293000,0.906406
3.294000,0.914043
3.295000,0.903860
3.296000,0.910224
3.297000,0.929317
3.298000,0.936954
3.299000,0.945864
3.300000,0.933135
3.301000,0.936954
3.302000,0.907679
3.303000,0.873312
3.304000,0.887314
3.305000,0.896223
3.306000,0.887314
3.307000,0.897496
3.308000,0.889859
3.309000,0.898769
3.310000,0.906406
3.311000,0.912770
3.312000,0.901315
3.313000,0.869494
3.314000,0.854220
3.315000,0.812217
3.316000,0.826218
3.317000,0.846583
3.318000,0.877131
3.319000,0.884768
3.320000,0.908952
3.321000,0.919134
3.322000,0.952228
3.323000,0.939500
3.324000,0.952228
3.325000,0.939500
3.326000,0.952228
3.327000,0.943318
3.328000,0.908952
3.329000,0.908952
3.330000,0.933135
3.331000,0.931863
3.332000,0.939500
3.333000,0.936954
3.334000,0.934408
3.335000,0.926771
3.336000,0.939500
3.337000,0.952228
3.338000,0.964956
3.339000,0.963683
3.340000,0.949682
3.341000,0.928044
3.342000,0.901315
3.343000,0.850401
3.344000,0.809671
3.345000,0.826218
3.346000,0.893678
3.347000,0.919134
3.348000,0.903860
3.349000,0.900042
3.350000,0.907679
3.351000,0.898769
3.352000,0.911497
3.353000,0.896223
3.354000,0.878404
3.355000,0.865675
3.356000,0.888586
3.357000,0.878404
3.358000,0.898769
3.359000,0.911497
3.360000,0.919134
3.361000,0.928044
3.362000,0.934408
3.363000,0.902588
3.364000,0.887314
3.365000,0.907679
3.366000,0.901315
3.367000,0.869494
3.368000,0.866948
3.369000,0.883495
3.370000,0.914043
3.371000,0.939500
3.372000,0.939500
3.373000,0.936954
3.374000,0.924226
3.375000,0.893678
3.376000,0.892405
3.377000,0.902588
3.378000,0.900042
3.379000,0.897496
3.380000,0.910224
3.381000,0.893678
3.382000,0.882222
3.383000,0.875858
3.384000,0.873312
3.385000,0.887314
3.386000,0.915316
3.387000,0.935681
3.388000,0.961138
3.389000,0.973866
3.390000,0.958592
3.391000,0.914043
3.392000,0.910224
3.393000,0.902588
3.394000,0.906406
3.395000,0.920407
3.396000,0.919134
3.397000,0.906406
3.398000,0.884768
3.399000,0.886041
3.400000,0.898769
3.401000,0.907679
3.402000,0.903860
3.403000,0.875858
3.404000,0.870767
3.405000,0.859311
3.406000,0.865675
3.407000,0.883495
3.408000,0.900042
3.409000,0.914043
3.410000,0.945864
3.411000,0.935681
3.412000,0.931863
3.413000,0.938227
3.414000,0.919134
3.415000,0.924226
3.416000,0.930590
3.417000,0.947137
3.418000,0.967502
3.419000,0.967502
3.420000,0.967502
3.421000,0.956046
3.422000,0.930590
3.423000,0.947137
3.424000,0.949682
3.425000,0.931863
3.426000,0.905133
3.427000,0.894951
3.428000,0.903860
3.429000,0.870767
3.430000,0.819854
3.431000,0.795670
3.432000,0.768940
3.433000,0.789306
3.434000,0.808398
3.435000,0.835128
3.436000,0.840219
3.437000,0.865675
3.438000,0.901315
3.439000,0.892405
3.440000,0.936954
3.441000,0.954774
3.442000,0.959865
3.443000,0.959865
3.444000,0.949682
3.445000,0.939500
3.446000,0.921680
3.447000,0.900042
3.448000,0.894951
3.449000,0.877131
3.450000,0.851674
3.451000,0.841492
3.452000,0.851674
3.453000,0.886041
3.454000,0.903860
3.455000,0.920407
3.456000,0.924226
3.457000,0.935681
3.458000,0.936954
3.459000,0.949682
3.460000,0.956046
3.461000,0.949682
3.462000,0.945864
3.463000,0.954774
3.464000,0.962411
3.465000,0.970047
3.466000,0.954774
3.467000,0.928044
3.468000,0.914043
3.469000,0.888586
3.470000,0.868221
3.471000,0.873312
3.472000,0.880949
3.473000,0.910224
3.474000,0.910224
3.475000,0.919134
3.476000,0.903860
3.477000,0.893678
3.478000,0.878404
3.479000,0.856766
3.480000,0.858038
3.481000,0.873312
3.482000,0.888586
3.483000,0.898769
3.484000,0.910224
3.485000,0.897496
3.486000,0.898769
3.487000,0.921680
3.488000,0.939500
3.489000,0.943318
3.490000,0.931863
3.491000,0.942045
3.492000,0.964956
3.493000,0.972593
3.494000,0.949682
3.495000,0.924226
3.496000,0.916589
3.497000,0.903860
3.498000,0.898769
3.499000,0.886041
3.500000,0.882222
3.501000,0.897496
3.502000,0.931863
3.503000,0.934408
3.504000,0.915316
3.505000,0.911497
3.506000,0.916589
3.507000,0.906406
3.508000,0.868221
3.509000,0.889859
3.510000,0.911497
3.511000,0.880949
3.512000,0.882222
3.513000,0.911497
3.514000,0.919134
3.515000,0.903860
3.516000,0.905133
3.517000,0.914043
3.518000,0.925498
3.519000,0.919134
3.520000,0.859311
3.521000,0.841492
3.522000,0.832582
3.523000,0.866948
3.524000,0.908952
3.525000,0.935681
3.526000,0.967502
3.527000,0.975139
3.528000,0.985321
3.529000,0.964956
3.530000,0.949682
3.531000,0.908952
3.532000,0.858038
3.533000,0.813489
3.534000,0.813489
3.535000,0.816035
3.536000,0.830036
3.537000,0.830036
3.538000,0.870767
3.539000,0.893678
3.540000,0.897496
3.541000,0.902588
3.542000,0.954774
3.543000,0.987867
3.544000,0.967502
3.545000,0.952228
3.546000,0.961138
3.547000,0.973866
3.548000,0.992958
3.549000,0.991686
3.550000,0.970047
3.551000,0.929317
3.552000,0.928044
3.553000,0.886041
3.554000,0.831309
3.555000,0.788033
3.556000,0.781669
3.557000,0.793124
3.558000,0.807125
3.559000,0.814762
3.560000,0.814762
3.561000,0.821126
3.562000,0.841492
3.563000,0.852947
3.564000,0.873312
3.565000,0.906406
3.566000,0.935681
3.567000,0.962411
3.568000,0.991686
3.569000,0.968775
3.570000,0.939500
3.571000,0.922953
3.572000,0.920407
3.573000,0.917861
3.574000,0.924226
3.575000,0.921680
3.576000,0.880949
3.577000,0.901315
3.578000,0.898769
3.579000,0.892405
3.580000,0.905133
3.581000,0.934408
3.582000,0.961138
3.583000,0.973866
3.584000,0.975139
3.585000,0.953501
3.586000,0.980230
3.587000,0.976412
3.588000,0.975139
3.589000,0.968775
3.590000,0.926771
3.591000,0.919134
3.592000,0.903860
3.593000,0.869494
3.594000,0.868221
3.595000,0.858038
3.596000,0.812217
3.597000,0.804580
3.598000,0.849129
3.599000,0.887314
3.600000,0.917861
3.601000,0.985321
3.602000,0.986594
3.603000,0.999323
3.604000,0.982776
3.605000,0.971320
3.606000,0.943318
3.607000,0.942045
3.608000,0.928044
3.609000,0.888586
3.610000,0.873312
3.611000,0.846583
3.612000,0.812217
3.613000,0.822399
3.614000,0.835128
3.615000,0.831309
3.616000,0.846583
3.617000,0.852947
3.618000,0.845310
3.619000,0.840219
3.620000,0.844037
3.621000,0.860584
3.622000,0.889859
3.623000,0.901315
3.624000,0.933135
3.625000,0.945864
3.626000,0.959865
3.627000,0.966229
3.628000,0.971320
3.629000,0.954774
3.630000,0.954774
3.631000,0.944591
3.632000,0.910224
3.633000,0.833855
3.634000,0.835128
3.635000,0.840219
3.636000,0.868221
3.637000,0.894951
3.638000,0.917861
3.639000,0.928044
3.640000,0.962411
3.641000,0.944591
3.642000,0.950955
3.643000,0.958592
3.644000,0.984049
3.645000,0.989140
3.646000,0.966229
3.647000,0.942045
3.648000,0.916589
3.649000,0.894951
3.650000,0.882222
3.651000,0.860584
3.652000,0.868221
3.653000,0.855493
3.654000,0.866948
3.655000,0.908952
3.656000,0.942045
3.657000,0.910224
3.658000,0.858038
3.659000,0.824945
3.660000,0.840219
3.661000,0.894951
3.662000,0.921680
3.663000,0.952228
3.664000,0.987867
3.665000,0.998050
3.666000,1.009505
3.667000,0.999323
3.668000,1.010778
3.669000,0.992958
3.670000,0.976412
3.671000,0.954774
3.672000,0.917861
3.673000,0.883495
3.674000,0.842764
3.675000,0.810944
3.676000,0.780396
3.677000,0.766395
3.678000,0.746029
3.679000,0.723118
3.680000,0.714209
3.681000,0.732028
3.682000,0.772759
3.683000,0.856766
3.684000,0.905133
3.685000,0.948409
3.686000,0.961138
3.687000,0.973866
3.688000,0.986594
3.689000,1.020961
3.690000,1.037507
3.691000,1.060418
3.692000,1.015869
3.693000,0.939500
3.694000,0.884768
3.695000,0.845310
3.696000,0.861857
3.697000,0.901315
3.698000,0.874585
3.699000,0.828763
3.700000,0.844037
3.701000,0.838946
3.702000,0.864403
3.703000,0.841492
3.704000,0.840219
3.705000,0.878404
3.706000,0.916589
3.707000,0.935681
3.708000,0.924226
3.709000,0.897496
3.710000,0.894951
3.711000,0.911497
3.712000,0.934408
3.713000,0.945864
3.714000,0.948409
3.715000,0.968775
3.716000,0.972593
3.717000,0.954774
3.718000,0.908952
3.719000,0.877131
3.720000,0.902588
3.721000,0.920407
3.722000,0.929317
3.723000,0.905133
3.724000,0.911497
3.725000,0.914043
3.726000,0.916589
3.727000,0.925498
3.728000,0.912770
3.729000,0.896223
3.730000,0.901315
3.731000,0.884768
3.732000,0.863130
3.733000,0.870767
3.734000,0.891132
3.735000,0.896223
3.736000,0.919134
3.737000,0.940772
3.738000,0.958592
3.739000,0.962411
3.740000,0.958592
3.741000,0.954774
3.742000,0.935681
3.743000,0.925498
3.744000,0.893678
3.745000,0.865675
3.746000,0.882222
3.747000,0.875858
3.748000,0.888586
3.749000,0.875858
3.750000,0.845310
3.751000,0.855493
3.752000,0.888586
3.753000,0.914043
3.754000,0.931863
3.755000,0.952228
3.756000,0.954774
3.757000,0.939500
3.758000,0.944591
3.759000,0.942045
3.760000,0.896223
3.761000,0.902588
3.762000,0.914043
3.763000,0.939500
3.764000,0.910224
3.765000,0.897496
3.766000,0.916589
3.767000,0.954774
3.768000,0.920407
3.769000,0.905133
3.770000,0.919134
3.771000,0.967502
3.772000,0.944591
3.773000,0.976412
3.774000,0.948409
3.775000,0.893678
3.776000,0.845310
3.777000,0.835128
3.778000,0.819854
3.779000,0.816035
3.780000,0.771486
3.781000,0.721846
3.782000,0.709117
3.783000,0.758758
3.784000,0.779123
3.785000,0.805852
3.786000,0.883495
3.787000,0.967502
3.788000,0.981503
3.789000,0.986594
3.790000,1.020961
3.791000,1.066783
3.792000,1.075692
3.793000,1.083329
3.794000,1.029871
3.795000,0.930590
3.796000,0.854220
3.797000,0.822399
3.798000,0.827491
3.799000,0.793124
3.800000,0.761303
3.801000,0.779123
3.802000,0.781669
3.803000,0.789306
3.804000,0.824945
3.805000,0.882222
3.806000,0.924226
3.807000,0.939500
3.808000,0.954774
3.809000,0.956046
3.810000,0.977684
3.811000,0.978957
3.812000,0.954774
3.813000,0.944591
3.814000,0.933135
3.815000,0.914043
3.816000,0.936954
3.817000,0.958592
3.818000,0.999323
3.819000,1.014597
3.820000,0.989140
3.821000,0.968775
3.822000,0.945864
3.823000,0.919134
3.824000,0.908952
3.825000,0.928044
3.826000,0.893678
3.827000,0.868221
3.828000,0.869494
3.829000,0.860584
3.830000,0.873312
3.831000,0.874585
3.832000,0.869494
3.833000,0.880949
3.834000,0.902588
3.835000,0.906406
3.836000,0.907679
3.837000,0.905133
3.838000,0.907679
3.839000,0.914043
3.840000,0.893678
3.841000,0.928044
3.842000,0.948409
3.843000,0.905133
3.844000,0.852947
3.845000,0.861857
3.846000,0.847856
3.847000,0.800761
3.848000,0.831309
3.849000,0.861857
3.850000,0.891132
3.851000,0.903860
3.852000,0.907679
3.853000,0.920407
3.854000,0.929317
3.855000,0.956046
3.856000,0.953501
3.857000,0.959865
3.858000,0.943318
3.859000,0.953501
3.860000,0.934408
3.861000,0.928044
3.862000,0.887314
3.863000,0.901315
3.864000,0.928044
3.865000,0.949682
3.866000,0.962411
3.867000,0.922953
3.868000,0.942045
3.869000,0.995504
3.870000,1.026052
3.871000,1.032416
3.872000,1.040053
3.873000,0.980230
3.874000,0.921680
3.875000,0.893678
3.876000,0.887314
3.877000,0.874585
3.878000,0.833855
3.879000,0.742211
3.880000,0.742211
3.881000,0.728210
3.882000,0.753666
3.883000,0.800761
3.884000,0.841492
3.885000,0.861857
3.886000,0.870767
3.887000,0.883495
3.888000,0.878404
3.889000,0.863130
3.890000,0.823672
3.891000,0.827491
3.892000,0.800761
3.893000,0.805852
3.894000,0.833855
3.895000,0.887314
3.896000,0.914043
3.897000,0.928044
3.898000,0.928044
3.899000,0.926771
3.900000,0.950955
3.901000,0.947137
3.902000,0.924226
3.903000,0.911497
3.904000,0.966229
3.905000,0.998050
3.906000,1.000595
3.907000,0.982776
3.908000,1.012051
3.909000,1.003141
3.910000,0.975139
3.911000,0.964956
3.912000,0.949682
3.913000,0.938227
3.914000,0.903860
3.915000,0.859311
3.916000,0.865675
3.917000,0.822399
3.918000,0.802034
3.919000,0.850401
3.920000,0.869494
3.921000,0.878404
3.922000,0.889859
3.923000,0.888586
3.924000,0.905133
3.925000,0.921680
3.926000,0.938227
3.927000,0.949682
3.928000,0.939500
3.929000,0.906406
3.930000,0.920407
3.931000,0.945864
3.932000,0.926771
3.933000,0.924226
3.934000,0.950955
3.935000,0.925498
3.936000,0.908952
3.937000,0.901315
3.938000,0.929317
3.939000,0.921680
3.940000,0.922953
3.941000,0.919134
3.942000,0.900042
3.943000,0.906406
3.944000,0.928044
3.945000,0.939500
3.946000,0.911497
3.947000,0.897496
3.948000,0.929317
3.949000,0.943318
3.950000,0.939500
3.951000,0.968775
3.952000,1.019688
3.953000,1.079511
3.954000,1.089694
3.955000,1.101149
3.956000,1.113877
3.957000,1.079511
3.958000,1.051509
3.959000,0.992958
3.960000,0.986594
3.961000,0.930590
3.962000,0.776577
3.963000,0.621292
3.964000,0.569106
3.965000,0.569106
3.966000,0.588198
3.967000,0.617474
3.968000,0.690025
3.969000,0.677297
3.970000,0.696389
3.971000,0.738392
3.972000,0.789306
3.973000,0.819854
3.974000,0.883495
3.975000,0.953501
3.976000,0.985321
3.977000,0.986594
3.978000,0.963683
3.979000,0.953501
3.980000,0.964956
3.981000,0.961138
3.982000,0.950955
3.983000,0.943318
3.984000,0.924226
3.985000,0.863130
3.986000,0.803307
3.987000,0.775305
3.988000,0.804580
3.989000,0.821126
3.990000,0.894951
3.991000,0.925498
3.992000,0.897496
3.993000,0.893678
3.994000,0.929317
3.995000,0.949682
3.996000,0.952228
3.997000,0.964956
3.998000,0.998050
3.999000,0.992958
4.000000,1.023506
4.001000,1.029871
4.002000,1.036235
4.003000,0.987867
4.004000,0.985321
4.005000,0.968775
4.006000,0.945864
4.007000,0.912770
4.008000,0.884768
4.009000,0.897496
4.010000,0.924226
4.011000,0.869494
4.012000,0.883495
4.013000,0.910224
4.014000,0.916589
4.015000,0.912770
4.016000,0.952228
4.017000,0.957319
4.018000,0.975139
4.019000,0.978957
4.020000,0.995504
4.021000,0.962411
4.022000,0.970047
4.023000,0.950955
4.024000,0.944591
4.025000,0.916589
4.026000,0.933135
4.027000,0.917861
4.028000,0.903860
4.029000,0.920407
4.030000,0.921680
4.031000,0.910224
4.032000,0.875858
4.033000,0.849129
4.034000,0.877131
4.035000,0.886041
4.036000,0.901315
4.037000,0.869494
4.038000,0.856766
4.039000,0.870767
4.040000,0.865675
4.041000,0.856766
4.042000,0.832582
4.043000,0.845310
4.044000,0.874585
4.045000,0.919134
4.046000,0.930590
4.047000,0.936954
4.048000,0.976412
4.049000,0.985321
4.050000,0.982776
4.051000,1.013324
4.052000,0.986594
4.053000,0.929317
4.054000,0.880949
4.055000,0.819854
4.056000,0.776577
4.057000,0.757485
4.058000,0.729483
4.059000,0.730755
4.060000,0.728210
4.061000,0.782941
4.062000,0.805852
4.063000,0.808398
4.064000,0.851674
4.065000,0.928044
4.066000,0.966229
4.067000,1.023506
4.068000,1.046417
4.069000,1.061691
4.070000,1.080784
4.071000,1.087148
4.072000,1.065510
4.073000,1.096058
4.074000,1.079511
4.075000,1.027325
4.076000,0.964956
4.077000,0.991686
4.078000,1.006960
4.079000,1.020961
4.080000,0.977684
4.081000,0.903860
4.082000,0.817308
4.083000,0.758758
4.084000,0.704026
4.085000,0.646749
4.086000,0.590744
4.087000,0.616201
4.088000,0.645476
4.089000,0.640385
4.090000,0.659477
4.091000,0.738392
4.092000,0.836400
4.093000,0.915316
4.094000,0.970047
4.095000,0.994231
4.096000,1.001868
4.097000,1.026052
4.098000,1.024779
4.099000,1.060418
4.100000,1.103695
4.101000,1.138061
4.102000,1.078238
4.103000,1.050236
4.104000,1.024779
4.105000,0.964956
4.106000,0.908952
4.107000,0.856766
4.108000,0.775305
4.109000,0.734574
4.110000,0.714209
4.111000,0.751121
4.112000,0.765122
4.113000,0.748575
4.114000,0.743484
4.115000,0.776577
4.116000,0.830036
4.117000,0.886041
4.118000,0.967502
4.119000,1.010778
4.120000,1.033689
4.121000,1.046417
4.122000,1.036235
4.123000,1.040053
4.124000,1.031143
4.125000,1.040053
4.126000,1.015869
4.127000,0.963683
4.128000,0.915316
4.129000,0.880949
4.130000,0.878404
4.131000,0.870767
4.132000,0.891132
4.133000,0.851674
4.134000,0.824945
4.135000,0.807125
4.136000,0.809671
4.137000,0.861857
4.138000,0.882222
4.139000,0.854220
4.140000,0.841492
4.141000,0.879677
4.142000,0.910224
4.143000,0.935681
4.144000,0.963683
4.145000,0.998050
4.146000,0.989140
4.147000,1.013324
4.148000,1.005687
4.149000,1.009505
4.150000,1.037507
4.151000,1.094785
4.152000,1.087148
4.153000,1.023506
4.154000,0.947137
4.155000,0.903860
4.156000,0.912770
4.157000,0.907679
4.158000,0.889859
4.159000,0.908952
4.160000,0.936954
4.161000,0.962411
4.162000,0.929317
4.163000,0.858038
4.164000,0.798215
4.165000,0.832582
4.166000,0.891132
4.167000,0.845310
4.168000,0.833855
4.169000,0.852947
4.170000,0.832582
4.171000,0.772759
4.172000,0.772759
4.173000,0.817308
4.174000,0.866948
4.175000,0.865675
4.176000,0.846583
4.177000,0.824945
4.178000,0.818581
4.179000,0.841492
4.180000,0.873312
4.181000,0.905133
4.182000,0.934408
4.183000,0.917861
4.184000,0.916589
4.185000,0.938227
4.186000,0.914043
4.187000,0.887314
4.188000,0.845310
4.189000,0.823672
4.190000,0.821126
4.191000,0.819854
4.192000,0.823672
4.193000,0.852947
4.194000,0.910224
4.195000,0.919134
4.196000,0.908952
4.197000,0.933135
4.198000,0.972593
4.199000,0.987867
4.200000,1.003141
4.201000,1.005687
4.202000,1.001868
4.203000,0.982776
4.204000,0.972593
4.205000,0.948409
4.206000,0.942045
4.207000,0.928044
4.208000,0.920407
4.209000,0.939500
4.210000,0.925498
4.211000,0.930590
4.212000,0.930590
4.213000,0.906406
4.214000,0.898769
4.215000,0.888586
4.216000,0.873312
4.217000,0.900042
4.218000,0.911497
4.219000,0.905133
4.220000,0.887314
4.221000,0.889859
4.222000,0.896223
4.223000,0.907679
4.224000,0.922953
4.225000,0.916589
4.226000,0.915316
4.227000,0.933135
4.228000,0.950955
4.229000,0.944591
4.230000,0.935681
4.231000,0.916589
4.232000,0.900042
4.233000,0.893678
4.234000,0.903860
4.235000,0.912770
4.236000,0.914043
4.237000,0.882222
4.238000,0.889859
4.239000,0.893678
4.240000,0.919134
4.241000,0.919134
4.242000,0.905133
4.243000,0.874585
4.244000,0.892405
4.245000,0.898769
4.246000,0.896223
4.247000,0.897496
4.248000,0.914043
4.249000,0.903860
4.250000,0.910224
4.251000,0.910224
4.252000,0.917861
4.253000,0.907679
4.254000,0.910224
4.255000,0.910224
4.256000,0.920407
4.257000,0.916589
4.258000,0.920407
4.259000,0.912770
4.260000,0.928044
4.261000,0.930590
4.262000,0.944591
4.263000,0.948409
4.264000,0.926771
4.265000,0.934408
4.266000,0.939500
4.267000,0.911497
4.268000,0.914043
4.269000,0.914043
4.270000,0.914043
4.271000,0.887314
4.272000,0.883495
4.273000,0.861857
4.274000,0.858038
4.275000,0.851674
4.276000,0.877131
4.277000,0.875858
4.278000,0.896223
4.279000,0.905133
4.280000,0.905133
4.281000,0.916589
4.282000,0.922953
4.283000,0.942045
4.284000,0.939500
4.285000,0.945864
4.286000,0.958592
4.287000,0.919134
4.288000,0.888586
4.289000,0.854220
4.290000,0.855493
4.291000,0.891132
4.292000,0.900042
4.293000,0.924226
4.294000,0.914043
4.295000,0.888586
4.296000,0.888586
4.297000,0.887314
4.298000,0.875858
4.299000,0.849129
4.300000,0.852947
4.301000,0.864403
4.302000,0.868221
4.303000,0.870767
4.304000,0.878404
4.305000,0.870767
4.306000,0.879677
4.307000,0.901315
4.308000,0.915316
4.309000,0.924226
4.310000,0.926771
4.311000,0.934408
4.312000,0.944591
4.313000,0.934408
4.314000,0.931863
4.315000,0.939500
4.316000,0.944591
4.317000,0.939500
4.318000,0.938227
4.319000,0.939500
4.320000,0.945864
4.321000,0.945864
4.322000,0.933135
4.323000,0.915316
4.324000,0.911497
4.325000,0.917861
4.326000,0.906406
4.327000,0.892405
4.328000,0.878404
4.329000,0.887314
4.330000,0.901315
4.331000,0.914043
4.332000,0.905133
4.333000,0.898769
4.334000,0.903860
4.335000,0.910224
4.336000,0.915316
4.337000,0.920407
4.338000,0.930590
4.339000,0.939500
4.340000,0.940772
4.341000,0.933135
4.342000,0.916589
4.343000,0.920407
4.344000,0.942045
4.345000,0.934408
4.346000,0.933135
4.347000,0.985321
4.348000,0.972593
4.349000,0.953501
4.350000,0.939500
4.351000,0.935681
4.352000,0.916589
4.353000,0.863130
4.354000,0.802034
4.355000,0.777850
4.356000,0.775305
4.357000,0.812217
4.358000,0.858038
4.359000,0.873312
4.360000,0.880949
4.361000,0.947137
4.362000,0.956046
4.363000,0.958592
4.364000,0.939500
4.365000,0.930590
4.366000,0.892405
4.367000,0.868221
4.368000,0.844037
4.369000,0.849129
4.370000,0.854220
4.371000,0.860584
4.372000,0.851674
4.373000,0.880949
4.374000,0.896223
4.375000,0.891132
4.376000,0.898769
4.377000,0.901315
4.378000,0.906406
4.379000,0.912770
4.380000,0.891132
4.381000,0.886041
4.382000,0.894951
4.383000,0.919134
4.384000,0.922953
4.385000,0.934408
4.386000,0.934408
4.387000,0.933135
4.388000,0.934408
4.389000,0.944591
4.390000,0.939500
4.391000,0.931863
4.392000,0.925498
4.393000,0.905133
4.394000,0.886041
4.395000,0.879677
4.396000,0.898769
4.397000,0.898769
4.398000,0.902588
4.399000,0.903860
4.400000,0.903860
4.401000,0.902588
4.402000,0.896223
4.403000,0.894951
4.404000,0.908952
4.405000,0.917861
4.406000,0.935681
4.407000,0.924226
4.408000,0.925498
4.409000,0.908952
4.410000,0.905133
4.411000,0.905133
4.412000,0.907679
4.413000,0.908952
4.414000,0.919134
4.415000,0.919134
4.416000,0.929317
4.417000,0.931863
4.418000,0.938227
4.419000,0.930590
4.420000,0.940772
4.421000,0.936954
4.422000,0.947137
4.423000,0.933135
4.424000,0.920407
4.425000,0.897496
4.426000,0.888586
4.427000,0.872040
4.428000,0.880949
4.429000,0.886041
4.430000,0.910224
4.431000,0.911497
4.432000,0.916589
4.433000,0.911497
4.434000,0.916589
4.435000,0.919134
4.436000,0.926771
4.437000,0.915316
4.438000,0.901315
4.439000,0.907679
4.440000,0.921680
4.441000,0.921680
4.442000,0.921680
4.443000,0.922953
4.444000,0.926771
4.445000,0.914043
4.446000,0.903860
4.447000,0.869494
4.448000,0.859311
4.449000,0.849129
4.450000,0.852947
4.451000,0.855493
4.452000,0.891132
4.453000,0.896223
4.454000,0.912770
4.455000,0.928044
4.456000,0.942045
4.457000,0.940772
4.458000,0.934408
4.459000,0.944591
4.460000,0.934408
4.461000,0.916589
4.462000,0.906406
4.463000,0.872040
4.464000,0.869494
4.465000,0.874585
4.466000,0.866948
4.467000,0.893678
4.468000,0.915316
4.469000,0.954774
4.470000,0.964956
4.471000,0.976412
4.472000,0.971320
4.473000,0.961138
4.474000,0.936954
4.475000,0.925498
4.476000,0.903860
4.477000,0.893678
4.478000,0.846583
4.479000,0.836400
4.480000,0.817308
4.481000,0.822399
4.482000,0.814762
4.483000,0.822399
4.484000,0.838946
4.485000,0.912770
4.486000,0.933135
4.487000,0.900042
4.488000,0.874585
4.489000,0.893678
4.490000,0.920407
4.491000,0.926771
4.492000,0.930590
4.493000,0.924226
4.494000,0.912770
4.495000,0.920407
4.496000,0.929317
4.497000,0.928044
4.498000,0.933135
4.499000,0.939500
4.500000,0.938227
4.501000,0.944591
4.502000,0.949682
4.503000,0.947137
4.504000,0.958592
4.505000,0.953501
4.506000,0.943318
4.507000,0.942045
4.508000,0.929317
4.509000,0.919134
4.510000,0.866948
4.511000,0.852947
4.512000,0.866948
4.513000,0.863130
4.514000,0.888586
4.515000,0.906406
4.516000,0.915316
4.517000,0.914043
4.518000,0.914043
4.519000,0.911497
4.520000,0.911497
4.521000,0.901315
4.522000,0.907679
4.523000,0.898769
4.524000,0.910224
4.525000,0.911497
4.526000,0.922953
4.527000,0.908952
4.528000,0.920407
4.529000,0.910224
4.530000,0.917861
4.531000,0.917861
4.532000,0.919134
4.533000,0.908952
4.534000,0.916589
4.535000,0.906406
4.536000,0.908952
4.537000,0.894951
4.538000,0.903860
4.539000,0.891132
4.540000,0.900042
4.541000,0.915316
4.542000,0.920407
4.543000,0.919134
4.544000,0.919134
4.545000,0.924226
4.546000,0.916589
4.547000,0.893678
4.548000,0.870767
4.549000,0.868221
4.550000,0.866948
4.551000,0.870767
4.552000,0.897496
4.553000,0.898769
4.554000,0.908952
4.555000,0.920407
4.556000,0.922953
4.557000,0.910224
4.558000,0.903860
4.559000,0.893678
4.560000,0.905133
4.561000,0.910224
4.562000,0.920407
4.563000,0.940772
4.564000,0.943318
4.565000,0.926771
4.566000,0.914043
4.567000,0.908952
4.568000,0.900042
4.569000,0.887314
4.570000,0.873312
4.571000,0.877131
4.572000,0.866948
4.573000,0.850401
4.574000,0.864403
4.575000,0.883495
4.576000,0.888586
4.577000,0.897496
4.578000,0.907679
4.579000,0.925498
4.580000,0.921680
4.581000,0.917861
4.582000,0.933135
4.583000,0.935681
4.584000,0.926771
4.585000,0.912770
4.586000,0.908952
4.587000,0.905133
4.588000,0.906406
4.589000,0.893678
4.590000,0.883495
4.591000,0.883495
4.592000,0.898769
4.593000,0.906406
4.594000,0.924226
4.595000,0.917861
4.596000,0.915316
4.597000,0.914043
4.598000,0.921680
4.599000,0.925498
4.600000,0.924226
4.601000,0.928044
4.602000,0.912770
4.603000,0.919134
4.604000,0.915316
4.605000,0.917861
4.606000,0.911497
4.607000,0.914043
4.608000,0.915316
4.609000,0.921680
4.610000,0.926771
4.611000,0.929317
4.612000,0.928044
4.613000,0.920407
4.614000,0.922953
4.615000,0.921680
4.616000,0.914043
4.617000,0.917861
4.618000,0.915316
4.619000,0.916589
4.620000,0.958592
4.621000,0.962411
4.622000,0.966229
4.623000,0.948409
4.624000,0.912770
4.625000,0.866948
4.626000,0.824945
4.627000,0.838946
4.628000,0.861857
4.629000,0.847856
4.630000,0.855493
4.631000,0.868221
4.632000,0.878404
4.633000,0.863130
4.634000,0.878404
4.635000,0.900042
4.636000,0.914043
4.637000,0.924226
4.638000,0.924226
4.639000,0.921680
4.640000,0.924226
4.641000,0.915316
4.642000,0.924226
4.643000,0.934408
4.644000,0.945864
4.645000,0.954774
4.646000,0.950955
4.647000,0.947137
4.648000,0.938227
4.649000,0.926771
4.650000,0.917861
4.651000,0.894951
4.652000,0.878404
4.653000,0.860584
4.654000,0.845310
4.655000,0.842764
4.656000,0.851674
4.657000,0.844037
4.658000,0.842764
4.659000,0.847856
4.660000,0.856766
4.661000,0.873312
4.662000,0.897496
4.663000,0.908952
4.664000,0.914043
4.665000,0.898769
4.666000,0.917861
4.667000,0.926771
4.668000,0.928044
4.669000,0.922953
4.670000,0.931863
4.671000,0.935681
4.672000,0.925498
4.673000,0.934408
4.674000,0.916589
4.675000,0.919134
4.676000,0.914043
4.677000,0.928044
4.678000,0.917861
4.679000,0.917861
4.680000,0.898769
4.681000,0.912770
4.682000,0.908952
4.683000,0.916589
4.684000,0.914043
4.685000,0.914043
4.686000,0.910224
4.687000,0.919134
4.688000,0.919134
4.689000,0.929317
4.690000,0.928044
4.691000,0.921680
4.692000,0.919134
4.693000,0.929317
4.694000,0.930590
4.695000,0.922953
4.696000,0.906406
4.697000,0.898769
4.698000,0.906406
4.699000,0.884768
4.700000,0.888586
4.701000,0.893678
4.702000,0.912770
4.703000,0.902588
4.704000,0.893678
4.705000,0.888586
4.706000,0.894951
4.707000,0.893678
4.708000,0.903860
4.709000,0.898769
4.710000,0.910224
4.711000,0.912770
4.712000,0.908952
4.713000,0.914043
4.714000,0.920407
4.715000,0.936954
4.716000,0.919134
4.717000,0.908952
4.718000,0.907679
4.719000,0.914043
4.720000,0.910224
4.721000,0.914043
4.722000,0.914043
4.723000,0.922953
4.724000,0.914043
4.725000,0.903860
4.726000,0.891132
4.727000,0.877131
4.728000,0.880949
4.729000,0.887314
4.730000,0.891132
4.731000,0.906406
4.732000,0.916589
4.733000,0.921680
4.734000,0.915316
4.735000,0.924226
4.736000,0.919134
4.737000,0.919134
4.738000,0.919134
4.739000,0.914043
4.740000,0.925498
4.741000,0.933135
4.742000,0.938227
4.743000,0.935681
4.744000,0.930590
4.745000,0.920407
4.746000,0.886041
4.747000,0.880949
4.748000,0.875858
4.749000,0.887314
4.750000,0.863130
4.751000,0.849129
4.752000,0.866948
4.753000,0.887314
4.754000,0.894951
4.755000,0.898769
4.756000,0.906406
4.757000,0.910224
4.758000,0.897496
4.759000,0.911497
4.760000,0.900042
4.761000,0.911497
4.762000,0.898769
4.763000,0.910224
4.764000,0.911497
4.765000,0.914043
4.766000,0.900042
4.767000,0.905133
4.768000,0.907679
4.769000,0.922953
4.770000,0.917861
4.771000,0.921680
4.772000,0.915316
4.773000,0.925498
4.774000,0.924226
4.775000,0.931863
4.776000,0.914043
4.777000,0.907679
4.778000,0.911497
4.779000,0.908952
4.780000,0.911497
4.781000,0.919134
4.782000,0.903860
4.783000,0.894951
4.784000,0.893678
4.785000,0.902588
4.786000,0.905133
4.787000,0.917861
4.788000,0.922953
4.789000,0.944591
4.790000,0.964956
4.791000,0.945864
4.792000,0.924226
4.793000,0.898769
4.794000,0.878404
4.795000,0.861857
4.796000,0.874585
4.797000,0.883495
4.798000,0.870767
4.799000,0.894951
4.800000,0.922953
4.801000,0.910224
4.802000,0.906406
4.803000,0.931863
4.804000,0.929317
4.805000,0.911497
4.806000,0.900042
4.807000,0.879677
4.808000,0.882222
4.809000,0.903860
4.810000,0.900042
4.811000,0.902588
4.812000,0.886041
4.813000,0.854220
4.814000,0.864403
4.815000,0.908952
4.816000,0.906406
4.817000,0.919134
4.818000,0.921680
4.819000,0.929317
4.820000,0.925498
4.821000,0.897496
4.822000,0.887314
4.823000,0.898769
4.824000,0.905133
4.825000,0.930590
4.826000,0.908952
4.827000,0.905133
4.828000,0.900042
4.829000,0.896223
4.830000,0.898769
4.831000,0.911497
4.832000,0.920407
4.833000,0.922953
4.834000,0.905133
4.835000,0.912770
4.836000,0.938227
4.837000,0.980230
4.838000,0.967502
4.839000,0.973866
4.840000,0.953501
4.841000,0.935681
4.842000,0.928044
4.843000,0.915316
4.844000,0.886041
4.845000,0.882222
4.846000,0.872040
4.847000,0.847856
4.848000,0.859311
4.849000,0.886041
4.850000,0.896223
4.851000,0.888586
4.852000,0.873312
4.853000,0.868221
4.854000,0.858038
4.855000,0.868221
4.856000,0.864403
4.857000,0.884768
4.858000,0.892405
4.859000,0.901315
4.860000,0.947137
4.861000,0.970047
4.862000,0.953501
4.863000,0.939500
4.864000,0.910224
4.865000,0.906406
4.866000,0.893678
4.867000,0.901315
4.868000,0.872040
4.869000,0.877131
4.870000,0.919134
4.871000,0.957319
4.872000,0.935681
4.873000,0.930590
4.874000,0.939500
4.875000,0.922953
4.876000,0.902588
4.877000,0.898769
4.878000,0.894951
4.879000,0.886041
4.880000,0.869494
4.881000,0.866948
4.882000,0.864403
4.883000,0.887314
4.884000,0.897496
4.885000,0.897496
4.886000,0.911497
4.887000,0.926771
4.888000,0.920407
4.889000,0.911497
4.890000,0.916589
4.891000,0.908952
4.892000,0.917861
4.893000,0.922953
4.894000,0.925498
4.895000,0.919134
4.896000,0.898769
4.897000,0.900042
4.898000,0.921680
4.899000,0.917861
4.900000,0.915316
4.901000,0.919134
4.902000,0.901315
4.903000,0.902588
4.904000,0.915316
4.905000,0.926771
4.906000,0.898769
4.907000,0.886041
4.908000,0.906406
4.909000,0.910224
4.910000,0.917861
4.911000,0.921680
4.912000,0.925498
4.913000,0.925498
4.914000,0.916589
4.915000,0.910224
4.916000,0.889859
4.917000,0.887314
4.918000,0.884768
4.919000,0.898769
4.920000,0.898769
4.921000,0.906406
4.922000,0.916589
4.923000,0.944591
4.924000,0.924226
4.925000,0.880949
4.926000,0.868221
4.927000,0.893678
4.928000,0.919134
4.929000,0.898769
4.930000,0.837673
4.931000,0.835128
4.932000,0.849129
4.933000,0.877131
4.934000,0.897496
4.935000,0.917861
4.936000,0.959865
4.937000,0.985321
4.938000,0.971320
4.939000,0.956046
4.940000,0.956046
4.941000,0.943318
4.942000,0.957319
4.943000,0.934408
4.944000,0.906406
4.945000,0.906406
4.946000,0.914043
4.947000,0.914043
4.948000,0.898769
4.949000,0.887314
4.950000,0.884768
4.951000,0.894951
4.952000,0.887314
4.953000,0.901315
4.954000,0.915316
4.955000,0.907679
4.956000,0.898769
4.957000,0.898769
4.958000,0.893678
4.959000,0.922953
4.960000,0.906406
4.961000,0.900042
4.962000,0.898769
4.963000,0.880949
4.964000,0.872040
4.965000,0.902588
4.966000,0.903860
4.967000,0.888586
4.968000,0.898769
4.969000,0.934408
4.970000,0.914043
4.971000,0.939500
4.972000,0.952228
4.973000,0.922953
4.974000,0.914043
4.975000,0.935681
4.976000,0.906406
4.977000,0.872040
4.978000,0.870767
4.979000,0.905133
4.980000,0.903860
4.981000,0.901315
4.982000,0.880949
4.983000,0.882222
4.984000,0.889859
4.985000,0.880949
4.986000,0.908952
4.987000,0.935681
4.988000,0.922953
4.989000,0.900042
4.990000,0.893678
4.991000,0.868221
4.992000,0.859311
4.993000,0.841492
4.994000,0.855493
4.995000,0.852947
4.996000,0.888586
4.997000,0.924226
4.998000,0.924226
4.999000,0.898769
5.000000,0.922953
5.001000,0.919134
5.002000,0.907679
5.003000,0.907679
5.004000,0.903860
5.005000,0.907679
5.006000,0.921680
5.007000,0.911497
5.008000,0.905133
5.009000,0.914043
5.010000,0.936954
5.011000,0.926771
5.012000,0.912770
5.013000,0.884768
5.014000,0.894951
5.015000,0.907679
5.016000,0.912770
5.017000,0.917861
5.018000,0.919134
5.019000,0.919134
5.020000,0.931863
5.021000,0.925498
5.022000,0.928044
5.023000,0.929317
5.024000,0.929317
5.025000,0.931863
5.026000,0.914043
5.027000,0.903860
5.028000,0.905133
5.029000,0.921680
5.030000,0.928044
5.031000,0.942045
5.032000,0.934408
5.033000,0.939500
5.034000,0.938227
5.035000,0.892405
5.036000,0.879677
5.037000,0.897496
5.038000,0.916589
5.039000,0.897496
5.040000,0.908952
5.041000,0.901315
5.042000,0.894951
5.043000,0.884768
5.044000,0.900042
5.045000,0.896223
5.046000,0.891132
5.047000,0.893678
5.048000,0.882222
5.049000,0.887314
5.050000,0.902588
5.051000,0.903860
5.052000,0.892405
5.053000,0.898769
5.054000,0.907679
5.055000,0.901315
5.056000,0.897496
5.057000,0.907679
5.058000,0.917861
5.059000,0.926771
5.060000,0.928044
5.061000,0.938227
5.062000,0.921680
5.063000,0.903860
5.064000,0.906406
5.065000,0.907679
5.066000,0.910224
5.067000,0.912770
5.068000,0.917861
5.069000,0.912770
5.070000,0.915316
5.071000,0.915316
5.072000,0.898769
5.073000,0.887314
5.074000,0.907679
5.075000,0.900042
5.076000,0.903860
5.077000,0.903860
5.078000,0.906406
5.079000,0.908952
5.080000,0.914043
5.081000,0.892405
5.082000,0.901315
5.083000,0.922953
5.084000,0.924226
5.085000,0.920407
5.086000,0.926771
5.087000,0.936954
5.088000,0.905133
5.089000,0.878404
5.090000,0.878404
5.091000,0.900042
5.092000,0.922953
5.093000,0.919134
5.094000,0.922953
5.095000,0.919134
5.096000,0.911497
5.097000,0.903860
5.098000,0.901315
5.099000,0.898769
5.100000,0.902588
5.101000,0.889859
5.102000,0.880949
5.103000,0.883495
5.104000,0.894951
5.105000,0.898769
5.106000,0.903860
5.107000,0.902588
5.108000,0.906406
5.109000,0.919134
5.110000,0.948409
5.111000,0.940772
5.112000,0.901315
5.113000,0.882222
5.114000,0.914043
5.115000,0.896223
5.116000,0.940772
5.117000,0.972593
5.118000,0.952228
5.119000,0.914043
5.120000,0.897496
5.121000,0.879677
5.122000,0.869494
5.123000,0.888586
5.124000,0.887314
5.125000,0.869494
5.126000,0.879677
5.127000,0.908952
5.128000,0.910224
5.129000,0.911497
5.130000,0.916589
5.131000,0.919134
5.132000,0.916589
5.133000,0.924226
5.134000,0.922953
5.135000,0.906406
5.136000,0.900042
5.137000,0.896223
5.138000,0.906406
5.139000,0.916589
5.140000,0.908952
5.141000,0.889859
5.142000,0.898769
5.143000,0.915316
5.144000,0.928044
5.145000,0.917861
5.146000,0.912770
5.147000,0.922953
5.148000,0.924226
5.149000,0.920407
5.150000,0.936954
5.151000,0.928044
5.152000,0.919134
5.153000,0.898769
5.154000,0.870767
5.155000,0.883495
5.156000,0.893678
5.157000,0.906406
5.158000,0.900042
5.159000,0.893678
5.160000,0.903860
5.161000,0.898769
5.162000,0.907679
5.163000,0.908952
5.164000,0.896223
5.165000,0.892405
5.166000,0.896223
5.167000,0.916589
5.168000,0.929317
5.169000,0.928044
5.170000,0.914043
5.171000,0.917861
5.172000,0.902588
5.173000,0.908952
5.174000,0.907679
5.175000,0.900042
5.176000,0.887314
5.177000,0.897496
5.178000,0.903860
5.179000,0.905133
5.180000,0.900042
5.181000,0.901315
5.182000,0.910224
5.183000,0.912770
5.184000,0.901315
5.185000,0.901315
5.186000,0.906406
5.187000,0.920407
5.188000,0.928044
5.189000,0.930590
5.190000,0.922953
5.191000,0.902588
5.192000,0.916589
5.193000,0.911497
5.194000,0.903860
5.195000,0.889859
5.196000,0.887314
5.197000,0.906406
5.198000,0.911497
5.199000,0.911497
5.200000,0.933135
5.201000,0.954774
5.202000,0.938227
5.203000,0.915316
5.204000,0.903860
5.205000,0.907679
5.206000,0.901315
5.207000,0.886041
5.208000,0.877131
5.209000,0.868221
5.210000,0.880949
5.211000,0.897496
5.212000,0.889859
5.213000,0.888586
5.214000,0.888586
5.215000,0.888586
5.216000,0.900042
5.217000,0.914043
5.218000,0.954774
5.219000,0.966229
5.220000,0.954774
5.221000,0.924226
5.222000,0.911497
5.223000,0.880949
5.224000,0.873312
5.225000,0.886041
5.226000,0.884768
5.227000,0.865675
5.228000,0.884768
5.229000,0.893678
5.230000,0.907679
5.231000,0.906406
5.232000,0.929317
5.233000,0.922953
5.234000,0.908952
5.235000,0.908952
5.236000,0.922953
5.237000,0.930590
5.238000,0.930590
5.239000,0.916589
5.240000,0.914043
5.241000,0.917861
5.242000,0.921680
5.243000,0.920407
5.244000,0.917861
5.245000,0.906406
5.246000,0.908952
5.247000,0.910224
5.248000,0.916589
5.249000,0.926771
5.250000,0.908952
5.251000,0.896223
5.252000,0.879677
5.253000,0.865675
5.254000,0.869494
5.255000,0.874585
5.256000,0.882222
5.257000,0.888586
5.258000,0.926771
5.259000,0.939500
5.260000,0.931863
5.261000,0.920407
5.262000,0.920407
5.263000,0.929317
5.264000,0.924226
5.265000,0.931863
5.266000,0.919134
5.267000,0.906406
5.268000,0.897496
5.269000,0.900042
5.270000,0.893678
5.271000,0.879677
5.272000,0.883495
5.273000,0.912770
5.274000,0.908952
5.275000,0.908952
5.276000,0.893678
5.277000,0.900042
5.278000,0.919134
5.279000,0.922953
5.280000,0.917861
5.281000,0.920407
5.282000,0.907679
5.283000,0.933135
5.284000,0.947137
5.285000,0.958592
5.286000,0.968775
5.287000,0.972593
5.288000,0.954774
5.289000,0.957319
5.290000,0.945864
5.291000,0.919134
5.292000,0.883495
5.293000,0.854220
5.294000,0.836400
5.295000,0.840219
5.296000,0.847856
5.297000,0.850401
5.298000,0.868221
5.299000,0.866948
5.300000,0.863130
5.301000,0.852947
5.302000,0.851674
5.303000,0.855493
5.304000,0.880949
5.305000,0.903860
5.306000,0.912770
5.307000,0.911497
5.308000,0.919134
5.309000,0.915316
5.310000,0.907679
5.311000,0.898769
5.312000,0.902588
5.313000,0.898769
5.314000,0.917861
5.315000,0.928044
5.316000,0.922953
5.317000,0.908952
5.318000,0.924226
5.319000,0.912770
5.320000,0.915316
5.321000,0.930590
5.322000,0.981503
5.323000,0.978957
5.324000,0.949682
5.325000,0.907679
5.326000,0.882222
5.327000,0.877131
5.328000,0.886041
5.329000,0.900042
5.330000,0.877131
5.331000,0.880949
5.332000,0.905133
5.333000,0.928044
5.334000,0.926771
5.335000,0.930590
5.336000,0.922953
5.337000,0.925498
5.338000,0.919134
5.339000,0.924226
5.340000,0.925498
5.341000,0.907679
5.342000,0.892405
5.343000,0.901315
5.344000,0.915316
5.345000,0.912770
5.346000,0.914043
5.347000,0.916589
5.348000,0.915316
5.349000,0.921680
5.350000,0.912770
5.351000,0.903860
5.352000,0.903860
5.353000,0.889859
5.354000,0.887314
5.355000,0.896223
5.356000,0.903860
5.357000,0.907679
5.358000,0.921680
5.359000,0.926771
5.360000,0.896223
5.361000,0.891132
5.362000,0.886041
5.363000,0.924226
5.364000,0.901315
5.365000,0.891132
5.366000,0.879677
5.367000,0.898769
5.368000,0.903860
5.369000,0.908952
5.370000,0.920407
5.371000,0.938227
5.372000,0.911497
5.373000,0.908952
5.374000,0.914043
5.375000,0.919134
5.376000,0.903860
5.377000,0.912770
5.378000,0.907679
5.379000,0.915316
5.380000,0.921680
5.381000,0.912770
5.382000,0.911497
5.383000,0.916589
5.384000,0.908952
5.385000,0.921680
5.386000,0.900042
5.387000,0.902588
5.388000,0.893678
5.389000,0.900042
5.390000,0.908952
5.391000,0.924226
5.392000,0.915316
5.393000,0.910224
5.394000,0.901315
5.395000,0.912770
5.396000,0.900042
5.397000,0.879677
5.398000,0.874585
5.399000,0.893678
5.400000,0.917861
5.401000,0.908952
5.402000,0.886041
5.403000,0.898769
5.404000,0.892405
5.405000,0.893678
5.406000,0.914043
5.407000,0.930590
5.408000,0.920407
5.409000,0.919134
5.410000,0.920407
5.411000,0.898769
5.412000,0.917861
5.413000,0.902588
5.414000,0.897496
5.415000,0.944591
5.416000,0.966229
5.417000,0.940772
5.418000,0.931863
5.419000,0.906406
5.420000,0.893678
5.421000,0.889859
5.422000,0.906406
5.423000,0.883495
5.424000,0.889859
5.425000,0.916589
5.426000,0.915316
5.427000,0.914043
5.428000,0.903860
5.429000,0.884768
5.430000,0.897496
5.431000,0.884768
5.432000,0.886041
5.433000,0.907679
5.434000,0.903860
5.435000,0.879677
5.436000,0.883495
5.437000,0.896223
5.438000,0.897496
5.439000,0.897496
5.440000,0.896223
5.441000,0.910224
5.442000,0.916589
5.443000,0.919134
5.444000,0.914043
5.445000,0.920407
5.446000,0.919134
5.447000,0.903860
5.448000,0.889859
5.449000,0.906406
5.450000,0.916589
5.451000,0.928044
5.452000,0.934408
5.453000,0.929317
5.454000,0.928044
5.455000,0.929317
5.456000,0.917861
5.457000,0.911497
5.458000,0.924226
5.459000,0.902588
5.460000,0.878404
5.461000,0.879677
5.462000,0.897496
5.463000,0.902588
5.464000,0.922953
5.465000,0.916589
5.466000,0.926771
5.467000,0.922953
5.468000,0.925498
5.469000,0.912770
5.470000,0.912770
5.471000,0.915316
5.472000,0.914043
5.473000,0.920407
5.474000,0.924226
5.475000,0.911497
5.476000,0.898769
5.477000,0.901315
5.478000,0.905133
5.479000,0.917861
5.480000,0.889859
5.481000,0.900042
5.482000,0.893678
5.483000,0.903860
5.484000,0.903860
5.485000,0.929317
5.486000,0.919134
5.487000,0.907679
5.488000,0.905133
5.489000,0.921680
5.490000,0.936954
5.491000,0.933135
5.492000,0.938227
5.493000,0.922953
5.494000,0.912770
5.495000,0.896223
5.496000,0.903860
5.497000,0.903860
5.498000,0.888586
5.499000,0.889859
5.500000,0.889859
5.501000,0.878404
5.502000,0.851674
5.503000,0.880949
5.504000,0.933135
5.505000,0.975139
5.506000,0.992958
5.507000,0.973866
5.508000,0.939500
5.509000,0.925498
5.510000,0.888586
5.511000,0.869494
5.512000,0.875858
5.513000,0.896223
5.514000,0.874585
5.515000,0.893678
5.516000,0.907679
5.517000,0.896223
5.518000,0.892405
5.519000,0.903860
5.520000,0.915316
5.521000,0.917861
5.522000,0.907679
5.523000,0.889859
5.524000,0.897496
5.525000,0.894951
5.526000,0.897496
5.527000,0.893678
5.528000,0.887314
5.529000,0.883495
5.530000,0.873312
5.531000,0.887314
5.532000,0.916589
5.533000,0.922953
5.534000,0.914043
5.535000,0.898769
5.536000,0.915316
5.537000,0.917861
5.538000,0.898769
5.539000,0.891132
5.540000,0.914043
5.541000,0.910224
5.542000,0.924226
5.543000,0.919134
5.544000,0.914043
5.545000,0.902588
5.546000,0.911497
5.547000,0.894951
5.548000,0.903860
5.549000,0.905133
5.550000,0.924226
5.551000,0.922953
5.552000,0.911497
5.553000,0.905133
5.554000,0.911497
5.555000,0.914043
5.556000,0.929317
5.557000,0.928044
5.558000,0.917861
5.559000,0.911497
5.560000,0.912770
5.561000,0.910224
5.562000,0.903860
5.563000,0.893678
5.564000,0.886041
5.565000,0.887314
5.566000,0.898769
5.567000,0.900042
5.568000,0.896223
5.569000,0.906406
5.570000,0.903860
5.571000,0.891132
5.572000,0.897496
5.573000,0.914043
5.574000,0.908952
5.575000,0.906406
5.576000,0.893678
5.577000,0.900042
5.578000,0.908952
5.579000,0.914043
5.580000,0.911497
5.581000,0.887314
5.582000,0.898769
5.583000,0.896223
5.584000,0.902588
5.585000,0.910224
5.586000,0.908952
5.587000,0.905133
5.588000,0.906406
5.589000,0.919134
5.590000,0.921680
5.591000,0.901315
5.592000,0.893678
5.593000,0.897496
5.594000,0.896223
5.595000,0.900042
5.596000,0.924226
5.597000,0.921680
5.598000,0.931863
5.599000,0.929317
5.600000,0.942045
5.601000,0.928044
5.602000,0.911497
5.603000,0.956046
5.604000,1.009505
5.605000,0.978957
5.606000,0.939500
5.607000,0.883495
5.608000,0.868221
5.609000,0.852947
5.610000,0.868221
5.611000,0.863130
5.612000,0.882222
5.613000,0.870767
5.614000,0.869494
5.615000,0.863130
5.616000,0.874585
5.617000,0.882222
5.618000,0.863130
5.619000,0.849129
5.620000,0.846583
5.621000,0.854220
5.622000,0.889859
5.623000,0.897496
5.624000,0.910224
5.625000,0.906406
5.626000,0.917861
5.627000,0.908952
5.628000,0.916589
5.629000,0.902588
5.630000,0.907679
5.631000,0.926771
5.632000,0.952228
5.633000,0.952228
5.634000,0.930590
5.635000,0.915316
5.636000,0.912770
5.637000,0.914043
5.638000,0.919134
5.639000,0.929317
5.640000,0.931863
5.641000,0.915316
5.642000,0.924226
5.643000,0.902588
5.644000,0.908952
5.645000,0.902588
5.646000,0.898769
5.647000,0.892405
5.648000,0.903860
5.649000,0.908952
5.650000,0.917861
5.651000,0.922953
5.652000,0.917861
5.653000,0.919134
5.654000,0.928044
5.655000,0.926771
5.656000,0.922953
5.657000,0.902588
5.658000,0.912770
5.659000,0.905133
5.660000,0.900042
5.661000,0.902588
5.662000,0.910224
5.663000,0.911497
5.664000,0.910224
5.665000,0.906406
5.666000,0.903860
5.667000,0.905133
5.668000,0.903860
5.669000,0.898769
5.670000,0.920407
5.671000,0.921680
5.672000,0.914043
5.673000,0.916589
5.674000,0.900042
5.675000,0.897496
5.676000,0.903860
5.677000,0.914043
5.678000,0.911497
5.679000,0.926771
5.680000,0.903860
5.681000,0.903860
5.682000,0.910224
5.683000,0.912770
5.684000,0.901315
5.685000,0.911497
5.686000,0.906406
5.687000,0.919134
5.688000,0.911497
5.689000,0.903860
5.690000,0.883495
5.691000,0.908952
5.692000,0.911497
5.693000,0.912770
5.694000,0.894951
5.695000,0.903860
5.696000,0.907679
5.697000,0.896223
5.698000,0.898769
5.699000,0.902588
5.700000,0.898769
5.701000,0.906406
5.702000,0.906406
5.703000,0.905133
5.704000,0.894951
5.705000,0.905133
5.706000,0.896223
5.707000,0.911497
5.708000,0.898769
5.709000,0.901315
5.710000,0.893678
5.711000,0.910224
5.712000,0.910224
5.713000,0.906406
5.714000,0.894951
5.715000,0.902588
5.716000,0.908952
5.717000,0.910224
5.718000,0.908952
5.719000,0.907679
5.720000,0.898769
5.721000,0.903860
5.722000,0.906406
5.723000,0.919134
5.724000,0.906406
5.725000,0.905133
5.726000,0.906406
5.727000,0.920407
5.728000,0.921680
5.729000,0.921680
5.730000,0.905133
5.731000,0.908952
5.732000,0.917861
5.733000,0.914043
5.734000,0.907679
5.735000,0.914043
5.736000,0.905133
5.737000,0.907679
5.738000,0.911497
5.739000,0.898769
5.740000,0.892405
5.741000,0.888586
5.742000,0.892405
5.743000,0.892405
5.744000,0.903860
5.745000,0.907679
5.746000,0.902588
5.747000,0.906406
5.748000,0.903860
5.749000,0.908952
5.750000,0.900042
5.751000,0.907679
5.752000,0.908952
5.753000,0.917861
5.754000,0.915316
5.755000,0.921680
5.756000,0.892405
5.757000,0.883495
5.758000,0.897496
5.759000,0.903860
5.760000,0.938227
5.761000,0.963683
5.762000,0.944591
5.763000,0.924226
5.764000,0.919134
5.765000,0.896223
5.766000,0.889859
5.767000,0.866948
5.768000,0.856766
5.769000,0.875858
5.770000,0.892405
5.771000,0.906406
5.772000,0.907679
5.773000,0.906406
5.774000,0.907679
5.775000,0.906406
5.776000,0.880949
5.777000,0.860584
5.778000,0.877131
5.779000,0.893678
5.780000,0.894951
5.781000,0.905133
5.782000,0.906406
5.783000,0.901315
5.784000,0.903860
5.785000,0.911497
5.786000,0.931863
5.787000,0.930590
5.788000,0.919134
5.789000,0.914043
5.790000,0.902588
5.791000,0.893678
5.792000,0.912770
5.793000,0.914043
5.794000,0.914043
5.795000,0.903860
5.796000,0.910224
5.797000,0.905133
5.798000,0.903860
5.799000,0.896223
5.800000,0.892405
5.801000,0.878404
5.802000,0.872040
5.803000,0.880949
5.804000,0.886041
5.805000,0.900042
5.806000,0.929317
5.807000,0.986594
5.808000,0.964956
5.809000,0.944591
5.810000,0.945864
5.811000,0.938227
5.812000,0.945864
5.813000,0.936954
5.814000,0.926771
5.815000,0.926771
5.816000,0.922953
5.817000,0.931863
5.818000,0.924226
5.819000,0.924226
5.820000,0.929317
5.821000,0.905133
5.822000,0.873312
5.823000,0.850401
5.824000,0.849129
5.825000,0.852947
5.826000,0.852947
5.827000,0.869494
5.828000,0.864403
5.829000,0.873312
5.830000,0.864403
5.831000,0.880949
5.832000,0.872040
5.833000,0.878404
5.834000,0.873312
5.835000,0.883495
5.836000,0.887314
5.837000,0.910224
5.838000,0.905133
5.839000,0.916589
5.840000,0.915316
5.841000,0.930590
5.842000,0.942045
5.843000,0.944591
5.844000,0.950955
5.845000,0.967502
5.846000,0.973866
5.847000,0.980230
5.848000,0.957319
5.849000,0.936954
5.850000,0.919134
5.851000,0.883495
5.852000,0.856766
5.853000,0.836400
5.854000,0.831309
5.855000,0.817308
5.856000,0.808398
5.857000,0.810944
5.858000,0.841492
5.859000,0.869494
5.860000,0.886041
5.861000,0.897496
5.862000,0.924226
5.863000,0.933135
5.864000,0.928044
5.865000,0.921680
5.866000,0.926771
5.867000,0.931863
5.868000,0.938227
5.869000,0.926771
5.870000,0.929317
5.871000,0.926771
5.872000,0.933135
5.873000,0.934408
5.874000,0.931863
5.875000,0.925498
5.876000,0.919134
5.877000,0.914043
5.878000,0.914043
5.879000,0.908952
5.880000,0.906406
5.881000,0.910224
5.882000,0.907679
5.883000,0.921680
5.884000,0.912770
5.885000,0.925498
5.886000,0.914043
5.887000,0.914043
5.888000,0.907679
5.889000,0.915316
5.890000,0.910224
5.891000,0.919134
5.892000,0.912770
5.893000,0.915316
5.894000,0.902588
5.895000,0.898769
5.896000,0.893678
5.897000,0.900042
5.898000,0.896223
5.899000,0.911497
5.900000,0.903860
5.901000,0.901315
5.902000,0.898769
5.903000,0.906406
5.904000,0.902588
5.905000,0.916589
5.906000,0.910224
5.907000,0.915316
5.908000,0.914043
5.909000,0.916589
5.910000,0.910224
5.911000,0.908952
5.912000,0.903860
5.913000,0.915316
5.914000,0.907679
5.915000,0.905133
5.916000,0.900042
5.917000,0.914043
5.918000,0.898769
5.919000,0.903860
5.920000,0.897496
5.921000,0.902588
5.922000,0.903860
5.923000,0.917861
5.924000,0.908952
5.925000,0.911497
5.926000,0.903860
5.927000,0.914043
5.928000,0.926771
5.929000,0.924226
5.930000,0.917861
5.931000,0.902588
5.932000,0.882222
5.933000,0.874585
5.934000,0.891132
5.935000,0.889859
5.936000,0.875858
5.937000,0.879677
5.938000,0.888586
5.939000,0.896223
5.940000,0.902588
5.941000,0.907679
5.942000,0.914043
5.943000,0.906406
5.944000,0.903860
5.945000,0.906406
5.946000,0.903860
5.947000,0.916589
5.948000,0.915316
5.949000,0.912770
5.950000,0.907679
5.951000,0.902588
5.952000,0.911497
5.953000,0.920407
5.954000,0.922953
5.955000,0.907679
5.956000,0.916589
5.957000,0.907679
5.958000,0.905133
5.959000,0.900042
5.960000,0.915316
5.961000,0.912770
5.962000,0.912770
5.963000,0.903860
5.964000,0.906406
5.965000,0.903860
5.966000,0.903860
5.967000,0.903860
5.968000,0.905133
5.969000,0.903860
5.970000,0.914043
5.971000,0.911497
5.972000,0.901315
5.973000,0.907679
5.974000,0.917861
5.975000,0.928044
5.976000,0.906406
5.977000,0.911497
5.978000,0.914043
5.979000,0.924226
5.980000,0.920407
5.981000,0.924226
5.982000,0.907679
5.983000,0.917861
5.984000,0.912770
5.985000,0.892405
5.986000,0.878404
5.987000,0.882222
5.988000,0.875858
5.989000,0.882222
5.990000,0.897496
5.991000,0.902588
5.992000,0.905133
5.993000,0.897496
5.994000,0.898769
5.995000,0.903860
5.996000,0.914043
5.997000,0.919134
5.998000,0.922953
5.999000,0.908952
6.000000,0.908952
6.001000,0.912770
6.002000,0.914043
6.003000,0.915316
6.004000,0.911497
6.005000,0.936954
6.006000,0.976412
6.007000,1.014597
6.008000,1.041326
6.009000,1.043872
6.010000,1.057873
6.011000,1.029871
6.012000,0.982776
6.013000,0.924226
6.014000,0.888586
6.015000,0.823672
6.016000,0.790578
6.017000,0.749848
6.018000,0.721846
6.019000,0.698935
6.020000,0.709117
6.021000,0.735847
6.022000,0.763849
6.023000,0.793124
6.024000,0.824945
6.025000,0.856766
6.026000,0.893678
6.027000,0.924226
6.028000,0.934408
6.029000,0.928044
6.030000,0.928044
6.031000,0.917861
6.032000,0.919134
6.033000,0.921680
6.034000,0.921680
6.035000,0.929317
6.036000,0.947137
6.037000,0.947137
6.038000,0.953501
6.039000,0.942045
6.040000,0.945864
6.041000,0.944591
6.042000,0.934408
6.043000,0.924226
6.044000,0.929317
6.045000,0.917861
6.046000,0.915316
6.047000,0.914043
6.048000,0.924226
6.049000,0.912770
6.050000,0.929317
6.051000,0.929317
6.052000,0.943318
6.053000,0.922953
6.054000,0.908952
6.055000,0.905133
6.056000,0.921680
6.057000,0.929317
6.058000,0.945864
6.059000,0.922953
6.060000,0.897496
6.061000,0.887314
6.062000,0.914043
6.063000,0.915316
6.064000,0.925498
6.065000,0.907679
6.066000,0.894951
6.067000,0.889859
6.068000,0.888586
6.069000,0.903860
6.070000,0.921680
6.071000,0.926771
6.072000,0.924226
6.073000,0.919134
6.074000,0.912770
6.075000,0.919134
6.076000,0.916589
6.077000,0.916589
6.078000,0.912770
6.079000,0.907679
6.080000,0.897496
6.081000,0.892405
6.082000,0.886041
6.083000,0.894951
6.084000,0.893678
6.085000,0.898769
6.086000,0.897496
6.087000,0.910224
6.088000,0.900042
6.089000,0.894951
6.090000,0.889859
6.091000,0.893678
6.092000,0.888586
6.093000,0.887314
6.094000,0.889859
6.095000,0.903860
6.096000,0.900042
6.097000,0.910224
6.098000,0.900042
6.099000,0.910224
6.100000,0.902588
6.101000,0.911497
6.102000,0.907679
6.103000,0.912770
6.104000,0.901315
6.105000,0.908952
6.106000,0.908952
6.107000,0.921680
6.108000,0.915316
6.109000,0.912770
6.110000,0.906406
6.111000,0.914043
6.112000,0.914043
6.113000,0.906406
6.114000,0.915316
6.115000,0.915316
6.116000,0.907679
6.117000,0.907679
6.118000,0.908952
6.119000,0.907679
6.120000,0.911497
6.121000,0.896223
6.122000,0.915316
6.123000,0.922953
6.124000,0.920407
6.125000,0.914043
6.126000,0.897496
6.127000,0.888586
6.128000,0.884768
6.129000,0.894951
6.130000,0.900042
6.131000,0.893678
6.132000,0.893678
6.133000,0.898769
6.134000,0.896223
6.135000,0.912770
6.136000,0.914043
6.137000,0.915316
6.138000,0.908952
6.139000,0.903860
6.140000,0.892405
6.141000,0.911497
6.142000,0.907679
6.143000,0.920407
6.144000,0.908952
6.145000,0.924226
6.146000,0.911497
6.147000,0.915316
6.148000,0.896223
6.149000,0.905133
6.150000,0.907679
6.151000,0.907679
6.152000,0.919134
6.153000,0.920407
6.154000,0.928044
6.155000,0.912770
6.156000,0.925498
6.157000,0.920407
6.158000,0.916589
6.159000,0.901315
6.160000,0.891132
6.161000,0.882222
6.162000,0.886041
6.163000,0.883495
6.164000,0.892405
6.165000,0.891132
6.166000,0.896223
6.167000,0.906406
6.168000,0.893678
6.169000,0.898769
6.170000,0.903860
6.171000,0.915316
6.172000,0.911497
6.173000,0.915316
6.174000,0.901315
6.175000,0.880949
6.176000,0.879677
6.177000,0.891132
6.178000,0.912770
6.179000,0.910224
6.180000,0.900042
6.181000,0.900042
6.182000,0.906406
6.183000,0.921680
6.184000,0.942045
6.185000,0.936954
6.186000,0.949682
6.187000,0.944591
6.188000,0.961138
6.189000,0.975139
6.190000,0.994231
6.191000,0.973866
6.192000,0.958592
6.193000,0.916589
6.194000,0.897496
6.195000,0.872040
6.196000,0.850401
6.197000,0.830036
6.198000,0.832582
6.199000,0.837673
6.200000,0.852947
6.201000,0.866948
6.202000,0.861857
6.203000,0.863130
6.204000,0.866948
6.205000,0.897496
6.206000,0.910224
6.207000,0.921680
6.208000,0.920407
6.209000,0.915316
6.210000,0.908952
6.211000,0.919134
6.212000,0.914043
6.213000,0.906406
6.214000,0.893678
6.215000,0.896223
6.216000,0.900042
6.217000,0.908952
6.218000,0.922953
6.219000,0.939500
6.220000,0.940772
6.221000,0.935681
6.222000,0.929317
6.223000,0.921680
6.224000,0.891132
6.225000,0.883495
6.226000,0.894951
6.227000,0.897496
6.228000,0.893678
6.229000,0.892405
6.230000,0.892405
6.231000,0.894951
6.232000,0.901315
6.233000,0.902588
6.234000,0.911497
6.235000,0.929317
6.236000,0.938227
6.237000,0.936954
6.238000,0.949682
6.239000,0.939500
6.240000,0.942045
6.241000,0.930590
6.242000,0.931863
6.243000,0.940772
6.244000,0.953501
6.245000,0.954774
6.246000,0.984049
6.247000,0.989140
6.248000,0.972593
6.249000,0.939500
6.250000,0.914043
6.251000,0.877131
6.252000,0.823672
6.253000,0.793124
6.254000,0.790578
6.255000,0.793124
6.256000,0.819854
6.257000,0.827491
6.258000,0.849129
6.259000,0.841492
6.260000,0.844037
6.261000,0.863130
6.262000,0.889859
6.263000,0.907679
6.264000,0.920407
6.265000,0.928044
6.266000,0.945864
6.267000,0.938227
6.268000,0.942045
6.269000,0.924226
6.270000,0.922953
6.271000,0.914043
6.272000,0.920407
6.273000,0.922953
6.274000,0.936954
6.275000,0.929317
6.276000,0.929317
6.277000,0.921680
6.278000,0.917861
6.279000,0.915316
6.280000,0.911497
6.281000,0.908952
6.282000,0.914043
6.283000,0.911497
6.284000,0.919134
6.285000,0.935681
6.286000,0.934408
6.287000,0.920407
6.288000,0.921680
6.289000,0.921680
6.290000,0.903860
6.291000,0.915316
6.292000,0.910224
6.293000,0.916589
6.294000,0.898769
6.295000,0.897496
6.296000,0.888586
6.297000,0.915316
6.298000,0.922953
6.299000,0.919134
6.300000,0.898769
6.301000,0.916589
6.302000,0.916589
6.303000,0.912770
6.304000,0.910224
6.305000,0.914043
6.306000,0.916589
6.307000,0.922953
6.308000,0.896223
6.309000,0.884768
6.310000,0.869494
6.311000,0.865675
6.312000,0.858038
6.313000,0.855493
6.314000,0.880949
6.315000,0.868221
6.316000,0.863130
6.317000,0.873312
6.318000,0.888586
6.319000,0.901315
6.320000,0.896223
6.321000,0.901315
6.322000,0.911497
6.323000,0.914043
6.324000,0.919134
6.325000,0.921680
6.326000,0.938227
6.327000,0.935681
6.328000,0.934408
6.329000,0.935681
6.330000,0.934408
6.331000,0.939500
6.332000,0.958592
6.333000,0.948409
6.334000,0.947137
6.335000,0.931863
6.336000,0.938227
6.337000,0.929317
6.338000,0.931863
6.339000,0.936954
6.340000,0.924226
6.341000,0.903860
6.342000,0.905133
6.343000,0.893678
6.344000,0.873312
6.345000,0.860584
6.346000,0.842764
6.347000,0.837673
6.348000,0.819854
6.349000,0.824945
6.350000,0.823672
6.351000,0.847856
6.352000,0.845310
6.353000,0.878404
6.354000,0.919134
6.355000,0.964956
6.356000,0.976412
6.357000,0.978957
6.358000,0.976412
6.359000,0.973866
6.360000,0.959865
6.361000,0.949682
6.362000,0.926771
6.363000,0.897496
6.364000,0.870767
6.365000,0.861857
6.366000,0.842764
6.367000,0.836400
6.368000,0.817308
6.369000,0.850401
6.370000,0.873312
6.371000,0.892405
6.372000,0.905133
6.373000,0.916589
6.374000,0.911497
6.375000,0.908952
6.376000,0.911497
6.377000,0.906406
6.378000,0.942045
6.379000,0.954774
6.380000,0.980230
6.381000,0.987867
6.382000,1.005687
6.383000,1.000595
6.384000,0.980230
6.385000,0.944591
6.386000,0.911497
6.387000,0.866948
6.388000,0.860584
6.389000,0.852947
6.390000,0.845310
6.391000,0.847856
6.392000,0.860584
6.393000,0.873312
6.394000,0.863130
6.395000,0.865675
6.396000,0.861857
6.397000,0.875858
6.398000,0.893678
6.399000,0.911497
6.400000,0.916589
6.401000,0.906406
6.402000,0.882222
6.403000,0.892405
6.404000,0.910224
6.405000,0.928044
6.406000,0.945864
6.407000,0.948409
6.408000,0.959865
6.409000,0.958592
6.410000,0.970047
6.411000,0.970047
6.412000,0.980230
6.413000,0.945864
6.414000,0.926771
6.415000,0.905133
6.416000,0.872040
6.417000,0.845310
6.418000,0.849129
6.419000,0.841492
6.420000,0.838946
6.421000,0.833855
6.422000,0.855493
6.423000,0.864403
6.424000,0.883495
6.425000,0.875858
6.426000,0.879677
6.427000,0.879677
6.428000,0.903860
6.429000,0.910224
6.430000,0.933135
6.431000,0.942045
6.432000,0.933135
6.433000,0.925498
6.434000,0.940772
6.435000,0.928044
6.436000,0.936954
6.437000,0.942045
6.438000,0.959865
6.439000,0.968775
6.440000,0.985321
6.441000,0.968775
6.442000,0.950955
6.443000,0.908952
6.444000,0.898769
6.445000,0.898769
6.446000,0.889859
6.447000,0.860584
6.448000,0.850401
6.449000,0.852947
6.450000,0.858038
6.451000,0.842764
6.452000,0.849129
6.453000,0.856766
6.454000,0.879677
6.455000,0.893678
6.456000,0.902588
6.457000,0.908952
6.458000,0.928044
6.459000,0.944591
6.460000,0.961138
6.461000,0.964956
6.462000,0.957319
6.463000,0.973866
6.464000,0.972593
6.465000,0.971320
6.466000,0.953501
6.467000,0.928044
6.468000,0.916589
6.469000,0.897496
6.470000,0.863130
6.471000,0.856766
6.472000,0.842764
6.473000,0.833855
6.474000,0.818581
6.475000,0.832582
6.476000,0.842764
6.477000,0.858038
6.478000,0.866948
6.479000,0.870767
6.480000,0.880949
6.481000,0.915316
6.482000,0.925498
6.483000,0.934408
6.484000,0.936954
6.485000,0.948409
6.486000,0.964956
6.487000,0.949682
6.488000,0.938227
6.489000,0.931863
6.490000,0.947137
6.491000,0.928044
6.492000,0.887314
6.493000,0.868221
6.494000,0.900042
6.495000,0.931863
6.496000,0.924226
6.497000,0.903860
6.498000,0.897496
6.499000,0.906406
6.500000,0.892405
6.501000,0.884768
6.502000,0.872040
6.503000,0.880949
6.504000,0.880949
6.505000,0.901315
6.506000,0.887314
6.507000,0.919134
6.508000,0.943318
6.509000,0.949682
6.510000,0.970047
6.511000,0.957319
6.512000,0.989140
6.513000,0.996777
6.514000,0.982776
6.515000,0.996777
6.516000,0.984049
6.517000,0.975139
6.518000,0.917861
6.519000,0.897496
6.520000,0.884768
6.521000,0.842764
6.522000,0.821126
6.523000,0.816035
6.524000,0.789306
6.525000,0.799488
6.526000,0.776577
6.527000,0.771486
6.528000,0.776577
6.529000,0.790578
6.530000,0.795670
6.531000,0.838946
6.532000,0.886041
6.533000,0.931863
6.534000,0.922953
6.535000,0.921680
6.536000,0.907679
6.537000,0.921680
6.538000,0.934408
6.539000,0.950955
6.540000,0.933135
6.541000,0.933135
6.542000,0.919134
6.543000,0.939500
6.544000,0.958592
6.545000,0.975139
6.546000,0.954774
6.547000,0.945864
6.548000,0.966229
6.549000,0.994231
6.550000,0.973866
6.551000,0.968775
6.552000,0.942045
6.553000,0.908952
6.554000,0.915316
6.555000,0.901315
6.556000,0.902588
6.557000,0.902588
6.558000,0.884768
6.559000,0.858038
6.560000,0.849129
6.561000,0.854220
6.562000,0.860584
6.563000,0.873312
6.564000,0.863130
6.565000,0.877131
6.566000,0.870767
6.567000,0.893678
6.568000,0.891132
6.569000,0.910224
6.570000,0.924226
6.571000,0.958592
6.572000,0.948409
6.573000,0.959865
6.574000,0.930590
6.575000,0.915316
6.576000,0.901315
6.577000,0.896223
6.578000,0.901315
6.579000,0.916589
6.580000,0.925498
6.581000,0.942045
6.582000,0.957319
6.583000,0.954774
6.584000,0.948409
6.585000,0.945864
6.586000,0.933135
6.587000,0.910224
6.588000,0.874585
6.589000,0.836400
6.590000,0.827491
6.591000,0.833855
6.592000,0.863130
6.593000,0.902588
6.594000,0.934408
6.595000,0.939500
6.596000,0.939500
6.597000,0.962411
6.598000,0.966229
6.599000,0.939500
6.600000,0.930590
6.601000,0.912770
6.602000,0.931863
6.603000,0.911497
6.604000,0.901315
6.605000,0.879677
6.606000,0.856766
6.607000,0.845310
6.608000,0.897496
6.609000,0.893678
6.610000,0.910224
6.611000,0.929317
6.612000,0.920407
6.613000,0.903860
6.614000,0.912770
6.615000,0.897496
6.616000,0.893678
6.617000,0.870767
6.618000,0.824945
6.619000,0.850401
6.620000,0.908952
6.621000,0.947137
6.622000,0.990413
6.623000,0.981503
6.624000,0.957319
6.625000,0.954774
6.626000,0.942045
6.627000,0.901315
6.628000,0.863130
6.629000,0.830036
6.630000,0.832582
6.631000,0.819854
6.632000,0.826218
6.633000,0.852947
6.634000,0.864403
6.635000,0.886041
6.636000,0.892405
6.637000,0.919134
6.638000,0.954774
6.639000,0.957319
6.640000,0.958592
6.641000,0.939500
