LabVIEW Measurement,
Writer_Version,2
Reader_Version,2
Separator,Comma
Decimal_Separator,.
Multi_Headings,No
X_Columns,Multi
Time_Pref,Absolute
Operator,Dymnz
Date,2017/09/12
Time,15:04:10.1568127833532897284
***End_of_Header***,
,
Channels,1,
Samples,1000,
Date,2017/09/12,
Time,15:04:10.1568127833532897284,
Y_Unit_Label,Volts,
X_Dimension,Time,
X0,0.0000000000000000E+0,
Delta_X,0.001000,
***End_of_Header***,,
X_Value,Voltage,Comment
0.000000,-3.161559
0.001000,-3.039367
0.002000,-2.864989
0.003000,-2.422044
0.004000,-1.769083
0.005000,-1.211583
0.006000,-0.846281
0.007000,-0.223867
0.008000,-0.836098
0.009000,-1.947279
0.010000,-2.273123
0.011000,-2.008375
0.012000,-2.446228
0.013000,-2.014739
0.014000,-1.682530
0.015000,-1.249768
0.016000,-0.894648
0.017000,-0.957017
0.018000,-1.457239
0.019000,-2.176388
0.020000,-2.526416
0.021000,-2.763163
0.022000,-4.429297
0.023000,-3.670691
0.024000,-2.004556
0.025000,-0.484797
0.026000,0.711663
0.027000,1.111332
0.028000,0.908952
0.029000,0.182166
0.030000,-2.023649
0.031000,-2.302398
0.032000,-3.180651
0.033000,-2.593876
0.034000,-2.051651
0.035000,-1.984191
0.036000,-1.450875
0.037000,-1.172125
0.038000,-0.775002
0.039000,-1.047388
0.040000,-1.158124
0.041000,-1.313410
0.042000,-1.735989
0.043000,-2.987181
0.044000,-3.106827
0.045000,-2.848442
0.046000,-2.749162
0.047000,-2.775891
0.048000,-2.233666
0.049000,-1.341412
0.050000,-0.552257
0.051000,-0.351150
0.052000,-0.080037
0.053000,0.185984
0.054000,0.305630
0.055000,-0.011304
0.056000,-0.310419
0.057000,-0.817006
0.058000,-0.948107
0.059000,-1.523426
0.060000,-1.733443
0.061000,-1.511971
0.062000,-1.514517
0.063000,-2.050378
0.064000,-2.488232
0.065000,-2.082199
0.066000,-2.341856
0.067000,-3.185742
0.068000,-4.725867
0.069000,-4.864605
0.070000,-4.232009
0.071000,-3.759789
0.072000,-2.770800
0.073000,-1.718169
0.074000,-1.104665
0.075000,-1.682530
0.076000,-1.580704
0.077000,-0.582805
0.078000,0.299266
0.079000,0.754939
0.080000,1.339168
0.081000,1.438449
0.082000,0.959865
0.083000,1.069328
0.084000,0.459643
0.085000,-0.660448
0.086000,-1.946006
0.087000,-4.304560
0.088000,-9.171862
0.089000,-9.859190
0.090000,-7.209158
0.091000,-3.156467
0.092000,0.250899
0.093000,1.652284
0.094000,1.206794
0.095000,1.099876
0.096000,1.041326
0.097000,1.396446
0.098000,1.400264
0.099000,0.929317
0.100000,-0.161498
0.101000,-0.552257
0.102000,-0.496253
0.103000,-1.024477
0.104000,-1.366868
0.105000,-1.567976
0.106000,-1.593432
0.107000,-2.098746
0.108000,-2.668973
0.109000,-2.815349
0.110000,-3.517951
0.111000,-4.240918
0.112000,-4.463664
0.113000,-4.471301
0.114000,-4.659680
0.115000,-4.023265
0.116000,-3.573956
0.117000,-3.173014
0.118000,-3.206108
0.119000,-3.045731
0.120000,-2.380041
0.121000,-1.455966
0.122000,-0.564985
0.123000,0.188530
0.124000,0.379454
0.125000,0.132525
0.126000,-1.576885
0.127000,-2.134385
0.128000,-1.861999
0.129000,-1.403780
0.130000,-0.731726
0.131000,-0.034215
0.132000,0.402365
0.133000,0.043427
0.134000,-0.226413
0.135000,-0.137315
0.136000,-0.118222
0.137000,-0.589169
0.138000,-0.797913
0.139000,-0.860282
0.140000,-0.894648
0.141000,-0.827188
0.142000,-0.608262
0.143000,-0.664266
0.144000,-1.030841
0.145000,-1.238313
0.146000,-1.140305
0.147000,-1.188672
0.148000,-3.440308
0.149000,-6.105614
0.150000,-6.543468
0.151000,-4.825147
0.152000,-2.676610
0.153000,-1.159397
0.154000,-0.534438
0.155000,-1.326138
0.156000,-2.429681
0.157000,-3.105554
0.158000,-3.670691
0.159000,-3.917620
0.160000,-3.561227
0.161000,-4.781871
0.162000,-3.739423
0.163000,-1.613797
0.164000,0.196167
0.165000,1.549185
0.166000,1.911942
0.167000,1.835572
0.168000,1.610281
0.169000,1.378626
0.170000,0.837673
0.171000,0.379454
0.172000,-0.315511
0.173000,-0.903558
0.174000,-1.519608
0.175000,-1.982918
0.176000,-2.256577
0.177000,-3.325754
0.178000,-3.080098
0.179000,-2.572238
0.180000,-2.117838
0.181000,-2.237484
0.182000,-2.674065
0.183000,-2.175115
0.184000,-2.089836
0.185000,-1.952370
0.186000,-1.669802
0.187000,-2.189117
0.188000,-2.405498
0.189000,-2.354584
0.190000,-2.167478
0.191000,-2.335492
0.192000,-2.658791
0.193000,-3.375394
0.194000,-4.072905
0.195000,-4.000354
0.196000,-4.156912
0.197000,-3.538316
0.198000,-3.852705
0.199000,-3.039367
0.200000,-2.135658
0.201000,-0.791549
0.202000,-0.069855
0.203000,0.492736
0.204000,1.623009
0.205000,1.880121
0.206000,1.584824
0.207000,1.300983
0.208000,0.504192
0.209000,-2.821713
0.210000,-3.638870
0.211000,-2.973180
0.212000,-1.597251
0.213000,-0.260779
0.214000,-0.158953
0.215000,-0.235323
0.216000,-0.478433
0.217000,-0.902285
0.218000,-0.951926
0.219000,-1.225584
0.220000,-1.622707
0.221000,-1.499243
0.222000,-2.391497
0.223000,-2.750435
0.224000,-2.268032
0.225000,-1.453421
0.226000,-0.967200
0.227000,-1.506880
0.228000,-3.469584
0.229000,-4.406386
0.230000,-3.454310
0.231000,-3.925257
0.232000,-3.682146
0.233000,-2.391497
0.234000,-1.049934
0.235000,0.625111
0.236000,1.015869
0.237000,0.953501
0.238000,0.761303
0.239000,0.310722
0.240000,-0.437702
0.241000,-0.940470
0.242000,-1.224311
0.243000,-1.293044
0.244000,-1.453421
0.245000,-1.309591
0.246000,-1.340139
0.247000,-1.280316
0.248000,-1.088119
0.249000,-1.267588
0.250000,-1.615070
0.251000,-1.738535
0.252000,-2.604059
0.253000,-4.480211
0.254000,-4.774234
0.255000,-4.392385
0.256000,-3.422489
0.257000,-2.317672
0.258000,-1.529791
0.259000,-1.328683
0.260000,-1.086846
0.261000,-1.020659
0.262000,-1.114848
0.263000,-1.035933
0.264000,-0.934106
0.265000,-1.025750
0.266000,-0.786458
0.267000,-1.047388
0.268000,-1.396143
0.269000,-1.877273
0.270000,-2.068198
0.271000,-2.411862
0.272000,-2.049105
0.273000,-1.639254
0.274000,-1.625253
0.275000,-1.968917
0.276000,-2.276942
0.277000,-2.731342
0.278000,-4.177277
0.279000,-5.254091
0.280000,-5.506111
0.281000,-6.137435
0.282000,-4.905336
0.283000,-4.358019
0.284000,-3.024093
0.285000,-2.296034
0.286000,-2.789892
0.287000,-4.072905
0.288000,-5.131899
0.289000,-5.419559
0.290000,-5.429742
0.291000,-6.412366
0.292000,-5.605392
0.293000,-3.343573
0.294000,0.361635
0.295000,3.909012
0.296000,6.097007
0.297000,6.211561
0.298000,6.215380
0.299000,6.191196
0.300000,6.158103
0.301000,5.976088
0.302000,5.231482
0.303000,4.320136
0.304000,2.721462
0.305000,0.970047
0.306000,-0.010032
0.307000,-0.552257
0.308000,-1.061389
0.309000,-1.641800
0.310000,-2.196754
0.311000,-2.787347
0.312000,-3.137375
0.313000,-3.558682
0.314000,-3.646507
0.315000,-3.665599
0.316000,-3.599412
0.317000,-3.660508
0.318000,-3.764880
0.319000,-3.902346
0.320000,-4.109817
0.321000,-4.187460
0.322000,-4.168367
0.323000,-4.107271
0.324000,-4.029629
0.325000,-4.056358
0.326000,-3.987625
0.327000,-4.472574
0.328000,-4.746232
0.329000,-4.373293
0.330000,-5.208269
0.331000,-6.477281
0.332000,-5.175176
0.333000,-3.026639
0.334000,-1.672348
0.335000,-1.380869
0.336000,-1.289226
0.337000,-1.245950
0.338000,-4.240918
0.339000,-7.016961
0.340000,-5.619393
0.341000,-3.222654
0.342000,-0.534438
0.343000,0.081612
0.344000,0.886041
0.345000,1.658649
0.346000,2.149961
0.347000,2.642546
0.348000,2.587814
0.349000,1.839390
0.350000,1.271708
0.351000,1.400264
0.352000,1.437176
0.353000,1.626828
0.354000,1.471543
0.355000,0.836400
0.356000,0.157982
0.357000,-0.456795
0.358000,-0.646447
0.359000,-0.592988
0.360000,-1.111030
0.361000,-1.608706
0.362000,-1.781811
0.363000,-2.084744
0.364000,-2.718614
0.365000,-2.914630
0.366000,-2.834441
0.367000,-2.889173
0.368000,-3.115737
0.369000,-3.969806
0.370000,-4.456027
0.371000,-6.290175
0.372000,-6.730574
0.373000,-6.397092
0.374000,-6.216351
0.375000,-4.578218
0.376000,-3.493767
0.377000,-2.532781
0.378000,-1.198855
0.379000,-0.246778
0.380000,0.519466
0.381000,0.440550
0.382000,-0.045671
0.383000,-0.268416
0.384000,-0.090220
0.385000,0.103250
0.386000,-0.819551
0.387000,-0.871737
0.388000,-0.500071
0.389000,-0.512799
0.390000,-0.216230
0.391000,-0.291327
0.392000,-0.344786
0.393000,-1.230676
0.394000,-4.356746
0.395000,-5.571026
0.396000,-4.582037
0.397000,-2.800075
0.398000,-1.126303
0.399000,-0.034215
0.400000,0.800761
0.401000,0.800761
0.402000,0.761303
0.403000,0.448187
0.404000,-0.015123
0.405000,-1.048661
0.406000,-2.965543
0.407000,-3.641416
0.408000,-3.022820
0.409000,-1.701623
0.410000,-0.724089
0.411000,0.086703
0.412000,0.157982
0.413000,-0.127132
0.414000,-1.009203
0.415000,-1.970190
0.416000,-2.092381
0.417000,-1.780538
0.418000,-0.964654
0.419000,-0.505162
0.420000,-0.469523
0.421000,-0.595533
0.422000,-0.493707
0.423000,-0.889557
0.424000,-1.384688
0.425000,-1.723261
0.426000,-1.737262
0.427000,-1.720715
0.428000,-1.890001
0.429000,-2.027467
0.430000,-2.131839
0.431000,-2.232393
0.432000,-2.203118
0.433000,-2.186571
0.434000,-2.192935
0.435000,-3.006273
0.436000,-3.362666
0.437000,-3.150103
0.438000,-3.021547
0.439000,-3.565046
0.440000,-3.357574
0.441000,-3.227746
0.442000,-5.292276
0.443000,-5.868868
0.444000,-4.556580
0.445000,-2.906993
0.446000,-1.384688
0.447000,-0.309147
0.448000,-0.109312
0.449000,0.210168
0.450000,-0.399518
0.451000,-1.447057
0.452000,-4.085633
0.453000,-5.728857
0.454000,-4.229463
0.455000,-1.909094
0.456000,0.300539
0.457000,1.653557
0.458000,1.788477
0.459000,0.902588
0.460000,-0.010032
0.461000,-0.398245
0.462000,-0.629900
0.463000,-0.923924
0.464000,-1.576885
0.465000,-2.339310
0.466000,-3.963442
0.467000,-5.232453
0.468000,-4.263829
0.469000,-2.341856
0.470000,-0.531892
0.471000,0.889859
0.472000,1.596280
0.473000,1.601371
0.474000,1.327713
0.475000,1.088421
0.476000,0.790578
0.477000,0.254717
0.478000,-0.012577
0.479000,-0.076219
0.480000,-1.865818
0.481000,-3.418670
0.482000,-3.170468
0.483000,-2.489504
0.484000,-2.042741
0.485000,-1.547610
0.486000,-1.438147
0.487000,-1.416509
0.488000,-1.308318
0.489000,-1.321046
0.490000,-1.475059
0.491000,-1.335048
0.492000,-1.490333
0.493000,-1.542519
0.494000,-2.190389
0.495000,-4.380930
0.496000,-4.592220
0.497000,-4.472574
0.498000,-5.252818
0.499000,-6.684752
0.500000,-5.442470
0.501000,-3.596867
0.502000,-1.904003
0.503000,-0.422429
0.504000,0.716754
0.505000,0.818581
0.506000,0.276355
0.507000,-0.127132
0.508000,0.016698
0.509000,0.002697
0.510000,-0.064763
0.511000,-0.049489
0.512000,-0.301510
0.513000,-0.594261
0.514000,-1.636708
0.515000,-2.455138
0.516000,-2.321491
0.517000,-1.855635
0.518000,-1.352867
0.519000,-1.756354
0.520000,-1.948552
0.521000,-1.743626
0.522000,-1.719442
0.523000,-1.766537
0.524000,-2.847170
0.525000,-3.115737
0.526000,-2.652427
0.527000,-1.741080
0.528000,-0.829734
0.529000,-0.599352
0.530000,-0.426247
0.531000,-0.517891
0.532000,-0.867919
0.533000,-3.022820
0.534000,-4.109817
0.535000,-3.053368
0.536000,-1.626526
0.537000,-0.377879
0.538000,0.333632
0.539000,0.338724
0.540000,0.188530
0.541000,-0.268416
0.542000,-1.100847
0.543000,-1.924368
0.544000,-2.920994
0.545000,-4.065268
0.546000,-4.836603
0.547000,-5.653760
0.548000,-7.913033
0.549000,-6.960956
0.550000,-4.695319
0.551000,-2.598968
0.552000,-0.786458
0.553000,0.203804
0.554000,-1.350322
0.555000,-1.700350
0.556000,-1.042297
0.557000,-0.038034
0.558000,1.513546
0.559000,2.503808
0.560000,2.286154
0.561000,1.563186
0.562000,0.627656
0.563000,0.425276
0.564000,0.094340
0.565000,-0.939197
0.566000,-1.496697
0.567000,-3.136102
0.568000,-3.739423
0.569000,-3.809429
0.570000,-3.069915
0.571000,-2.206936
0.572000,-1.567976
0.573000,-0.977382
0.574000,-1.585795
0.575000,-1.324865
0.576000,-0.608262
0.577000,0.408729
0.578000,1.424448
0.579000,1.649739
0.580000,1.143152
0.581000,0.828763
0.582000,0.140162
0.583000,-0.511527
0.584000,-0.932833
0.585000,-1.458512
0.586000,-1.733443
0.587000,-2.069471
0.588000,-2.290943
0.589000,-2.511143
0.590000,-2.703340
0.591000,-2.755526
0.592000,-2.716068
0.593000,-2.800075
0.594000,-3.129738
0.595000,-3.581593
0.596000,-3.925257
0.597000,-5.554479
0.598000,-6.585471
0.599000,-6.954592
0.600000,-5.917236
0.601000,-4.383475
0.602000,-2.950269
0.603000,-1.877273
0.604000,-1.065208
0.605000,-0.563713
0.606000,0.268718
0.607000,0.966229
0.608000,1.303529
0.609000,1.180064
0.610000,0.865675
0.611000,0.872040
0.612000,0.566560
0.613000,0.205077
0.614000,-0.477160
0.615000,-1.751263
0.616000,-1.858181
0.617000,-1.714351
0.618000,-1.438147
0.619000,-2.010920
0.620000,-2.820440
0.621000,-3.377940
0.622000,-6.898587
0.623000,-9.556256
0.624000,-8.774739
0.625000,-5.809045
0.626000,-2.821713
0.627000,-0.827188
0.628000,0.398547
0.629000,0.861857
0.630000,0.327268
0.631000,-0.496253
0.632000,-1.326138
0.633000,-1.594705
0.634000,-1.649437
0.635000,-1.209037
0.636000,-0.407155
0.637000,0.516920
0.638000,1.323894
0.639000,1.611554
0.640000,1.266617
0.641000,0.978957
0.642000,0.604745
0.643000,0.211441
0.644000,0.271264
0.645000,0.044700
0.646000,-0.433884
0.647000,-0.892103
0.648000,-1.198855
0.649000,-1.332502
0.650000,-1.377051
0.651000,-1.550156
0.652000,-2.689339
0.653000,-4.934611
0.654000,-6.027972
0.655000,-6.151436
0.656000,-6.794215
0.657000,-5.313914
0.658000,-3.361393
0.659000,-1.673620
0.660000,-0.477160
0.661000,0.445642
0.662000,-0.493707
0.663000,-0.477160
0.664000,0.038336
0.665000,0.510556
0.666000,0.886041
0.667000,0.720573
0.668000,0.962411
0.669000,0.701480
0.670000,0.585653
0.671000,0.884768
0.672000,0.662023
0.673000,-0.002395
0.674000,-0.433884
0.675000,-1.034660
0.676000,-1.276497
0.677000,-1.384688
0.678000,-1.738535
0.679000,-2.416953
0.680000,-2.997364
0.681000,-3.356302
0.682000,-3.216290
0.683000,-4.177277
0.684000,-6.386910
0.685000,-9.346240
0.686000,-10.289407
0.687000,-8.922387
0.688000,-5.745404
0.689000,-2.565874
0.690000,-0.335876
0.691000,0.807125
0.692000,1.251343
0.693000,1.331531
0.694000,1.134243
0.695000,0.189803
0.696000,-0.270962
0.697000,0.285265
0.698000,1.437176
0.699000,2.361251
0.700000,1.453723
0.701000,0.241989
0.702000,-0.978655
0.703000,-1.701623
0.704000,-2.219664
0.705000,-3.160286
0.706000,-4.131455
0.707000,-4.478938
0.708000,-4.604948
0.709000,-4.126364
0.710000,-3.426307
0.711000,-2.666428
0.712000,-2.438591
0.713000,-1.765264
0.714000,-1.100847
0.715000,-0.300237
0.716000,0.185984
0.717000,-0.463159
0.718000,-0.758456
0.719000,-0.511527
0.720000,-0.418610
0.721000,-0.329512
0.722000,-0.582805
0.723000,-0.396972
0.724000,-0.967200
0.725000,-2.478049
0.726000,-2.195481
0.727000,-1.424146
0.728000,-0.531892
0.729000,0.091795
0.730000,-0.181864
0.731000,-0.755910
0.732000,-1.079209
0.733000,-1.998192
0.734000,-2.987181
0.735000,-2.824259
0.736000,-2.783528
0.737000,-3.394487
0.738000,-3.856524
0.739000,-3.433944
0.740000,-2.457684
0.741000,-1.681257
0.742000,-1.216674
0.743000,-1.374505
0.744000,-1.793266
0.745000,-1.957461
0.746000,-2.073289
0.747000,-1.883637
0.748000,-1.105938
0.749000,-0.592988
0.750000,-1.718169
0.751000,-2.385132
0.752000,-1.982918
0.753000,-1.664711
0.754000,-0.707542
0.755000,-0.134769
0.756000,0.206349
0.757000,-0.053308
0.758000,-1.812359
0.759000,-3.170468
0.760000,-3.841250
0.761000,-3.703784
0.762000,-2.859898
0.763000,-1.929459
0.764000,-1.005385
0.765000,-1.044842
0.766000,-1.895093
0.767000,-1.762718
0.768000,-1.392325
0.769000,-0.944289
0.770000,-0.885739
0.771000,-0.648992
0.772000,-0.421156
0.773000,-0.806823
0.774000,-1.561611
0.775000,-2.150932
0.776000,-3.427580
0.777000,-3.579047
0.778000,-3.259567
0.779000,-2.680429
0.780000,-1.851817
0.781000,-1.322319
0.782000,-0.571350
0.783000,-0.018941
0.784000,-0.777548
0.785000,-2.294761
0.786000,-1.841634
0.787000,-1.491606
0.788000,-0.435157
0.789000,-0.430065
0.790000,-2.425863
0.791000,-2.722432
0.792000,-2.845897
0.793000,-3.516678
0.794000,-4.415296
0.795000,-3.426307
0.796000,-1.842907
0.797000,-0.423701
0.798000,0.161800
0.799000,0.291629
0.800000,0.401092
0.801000,0.229260
0.802000,-0.624808
0.803000,-2.409316
0.804000,-3.218836
0.805000,-3.450491
0.806000,-3.384304
0.807000,-3.599412
0.808000,-4.732231
0.809000,-3.813248
0.810000,-2.075835
0.811000,-0.230231
0.812000,0.846583
0.813000,0.311994
0.814000,0.268718
0.815000,0.739665
0.816000,1.204248
0.817000,1.572096
0.818000,1.654830
0.819000,0.935681
0.820000,-0.932833
0.821000,-1.361777
0.822000,-0.683359
0.823000,-0.136042
0.824000,-0.384244
0.825000,-1.518335
0.826000,-2.635880
0.827000,-2.728796
0.828000,-2.511143
0.829000,-1.972735
0.830000,-1.673620
0.831000,-2.264214
0.832000,-2.899356
0.833000,-3.311753
0.834000,-3.843796
0.835000,-4.527305
0.836000,-6.314359
0.837000,-6.185803
0.838000,-4.580764
0.839000,-2.419499
0.840000,-1.168307
0.841000,-0.898467
0.842000,-0.206047
0.843000,0.364180
0.844000,0.758758
0.845000,0.728210
0.846000,0.215259
0.847000,0.203804
0.848000,0.124888
0.849000,-0.095311
0.850000,-0.423701
0.851000,-0.913741
0.852000,-1.664711
0.853000,-2.782255
0.854000,-3.330845
0.855000,-2.994818
0.856000,-2.696976
0.857000,-2.348220
0.858000,-1.842907
0.859000,-1.416509
0.860000,-1.923095
0.861000,-2.444955
0.862000,-2.798802
0.863000,-2.619333
0.864000,-2.082199
0.865000,-1.270133
0.866000,-0.641355
0.867000,-0.351150
0.868000,-0.486070
0.869000,-1.268860
0.870000,-1.639254
0.871000,-1.846725
0.872000,-3.754697
0.873000,-4.141638
0.874000,-2.933722
0.875000,-2.838260
0.876000,-5.306277
0.877000,-5.044074
0.878000,-3.754697
0.879000,-3.475948
0.880000,-3.092826
0.881000,-3.092826
0.882000,-3.576501
0.883000,-2.503506
0.884000,-1.065208
0.885000,0.506737
0.886000,1.905578
0.887000,2.643819
0.888000,2.750737
0.889000,2.395617
0.890000,1.270435
0.891000,-0.036761
0.892000,0.140162
0.893000,0.443096
0.894000,1.269163
0.895000,0.950955
0.896000,0.143981
0.897000,-0.390608
0.898000,-0.879374
0.899000,-1.248495
0.900000,-1.256132
0.901000,-1.421600
0.902000,-1.933278
0.903000,-2.654972
0.904000,-3.475948
0.905000,-3.519224
0.906000,-3.547226
0.907000,-3.909983
0.908000,-4.396204
0.909000,-4.660952
0.910000,-4.458572
0.911000,-4.638041
0.912000,-4.107271
0.913000,-3.198471
0.914000,-2.233666
0.915000,-1.273952
0.916000,-0.192046
0.917000,-0.021487
0.918000,-0.463159
0.919000,0.093068
0.920000,0.602200
0.921000,0.989140
0.922000,0.674751
0.923000,-0.147497
0.924000,-0.773730
0.925000,-1.524699
0.926000,-3.349937
0.927000,-4.991888
0.928000,-5.564662
0.929000,-5.024982
0.930000,-4.219280
0.931000,-3.184470
0.932000,-2.329128
0.933000,-1.300681
0.934000,-0.506435
0.935000,0.142708
0.936000,0.096886
0.937000,0.021789
0.938000,0.171983
0.939000,-1.102120
0.940000,-1.561611
0.941000,-0.547166
0.942000,0.147799
0.943000,0.762576
0.944000,0.845310
0.945000,0.649294
0.946000,0.110887
0.947000,-0.544620
0.948000,-1.272679
0.949000,-1.672348
0.950000,-2.534053
0.951000,-3.733059
0.952000,-7.338987
0.953000,-7.594825
0.954000,-5.599028
0.955000,-3.526861
0.956000,-1.741080
0.957000,-0.776275
0.958000,-0.204775
0.959000,-0.102948
0.960000,-0.328239
0.961000,-0.825916
0.962000,-2.167478
0.963000,-3.169196
0.964000,-3.089007
0.965000,-3.011365
0.966000,-3.160286
0.967000,-3.495040
0.968000,-2.833169
0.969000,-2.074562
0.970000,-1.803449
0.971000,-1.413963
0.972000,-0.931561
0.973000,-0.934106
0.974000,-0.526801
0.975000,-0.010032
0.976000,1.008232
0.977000,1.434630
0.978000,1.743928
0.979000,1.689196
0.980000,0.819854
0.981000,-0.675722
0.982000,-2.770800
0.983000,-3.348665
0.984000,-3.576501
0.985000,-3.277386
0.986000,-2.796256
0.987000,-2.712250
0.988000,-2.243848
0.989000,-1.672348
0.990000,-0.957017
0.991000,-0.175499
0.992000,-0.175499
0.993000,-0.255688
0.994000,-0.120768
0.995000,-1.629071
0.996000,-2.523871
0.997000,-2.975725
0.998000,-3.437763
0.999000,-2.903174
1.000000,-2.548055
1.001000,-2.327855
1.002000,-2.135658
1.003000,-1.738535
1.004000,-4.134001
1.005000,-5.801408
1.006000,-4.926974
1.007000,-3.904891
1.008000,-4.495484
1.009000,-3.156467
1.010000,-1.499243
1.011000,-0.193319
1.012000,0.560196
1.013000,1.635738
1.014000,2.247969
1.015000,1.966673
1.016000,1.405355
1.017000,0.873312
1.018000,1.010778
1.019000,1.064237
1.020000,0.942045
1.021000,0.780396
1.022000,0.678569
1.023000,0.301812
1.024000,-0.146224
1.025000,-0.692268
1.026000,-1.221766
1.027000,-2.063106
1.028000,-2.591331
1.029000,-2.942632
1.030000,-3.904891
1.031000,-6.011425
1.032000,-6.147618
1.033000,-5.335552
1.034000,-4.179823
1.035000,-3.245565
1.036000,-2.763163
1.037000,-2.065652
1.038000,-1.737262
1.039000,-1.784357
1.040000,-2.521325
1.041000,-2.624424
1.042000,-1.663438
1.043000,-0.822097
1.044000,0.182166
1.045000,0.677297
1.046000,0.357816
1.047000,-0.017669
1.048000,-0.654084
1.049000,-1.416509
1.050000,-2.162387
1.051000,-3.376667
1.052000,-4.517123
1.053000,-4.971523
1.054000,-4.134001
1.055000,-3.041913
1.056000,-2.413135
1.057000,-1.645618
1.058000,-0.934106
1.059000,-0.430065
1.060000,0.062520
1.061000,0.464734
1.062000,-0.503890
1.063000,-1.994374
1.064000,-2.205663
1.065000,-2.110201
1.066000,-1.988009
1.067000,-2.910811
1.068000,-4.604948
1.069000,-6.011425
1.070000,-7.481544
1.071000,-6.047064
1.072000,-3.264658
1.073000,-1.139032
1.074000,0.734574
1.075000,2.043043
1.076000,2.484715
1.077000,2.401981
1.078000,1.914487
1.079000,1.265344
1.080000,1.216977
1.081000,0.973866
1.082000,1.054054
1.083000,1.299710
1.084000,1.083329
1.085000,0.131253
1.086000,-1.477605
1.087000,-2.681702
1.088000,-3.033003
1.089000,-2.717341
1.090000,-1.937096
1.091000,-1.383415
1.092000,-1.209037
1.093000,-1.585795
1.094000,-1.965098
1.095000,-2.065652
1.096000,-2.344402
1.097000,-2.338038
1.098000,-2.094927
1.099000,-1.760173
1.100000,-1.963826
1.101000,-1.935823
1.102000,-2.086017
1.103000,-2.252758
1.104000,-2.723705
1.105000,-4.312197
1.106000,-5.280821
1.107000,-5.149719
1.108000,-4.039811
1.109000,-2.573511
1.110000,-1.349049
1.111000,-0.888284
1.112000,-1.532336
1.113000,-2.102564
1.114000,-1.805995
1.115000,-2.590058
1.116000,-4.826420
1.117000,-5.555752
1.118000,-5.018618
1.119000,-5.613029
1.120000,-4.347836
1.121000,-2.364767
1.122000,-0.010032
1.123000,1.863574
1.124000,3.011667
1.125000,4.110119
1.126000,3.923013
1.127000,3.383333
1.128000,3.234412
1.129000,1.220795
1.130000,-0.045671
1.131000,-0.571350
1.132000,-0.526801
1.133000,-0.095311
1.134000,-0.003667
1.135000,-0.074946
1.136000,-0.426247
1.137000,-0.790276
1.138000,-1.177217
1.139000,-1.546337
1.140000,-2.108928
1.141000,-2.371131
1.142000,-5.208269
1.143000,-5.134445
1.144000,-3.823430
1.145000,-2.493323
1.146000,-1.623980
1.147000,-2.274396
1.148000,-2.153477
1.149000,-2.021103
1.150000,-2.060561
1.151000,-2.223483
1.152000,-2.588785
1.153000,-3.137375
1.154000,-3.632506
1.155000,-3.391941
1.156000,-2.629516
1.157000,-2.082199
1.158000,-1.738535
1.159000,-1.384688
1.160000,-1.383415
1.161000,-1.461058
1.162000,-1.602342
1.163000,-2.139476
1.164000,-2.525144
1.165000,-2.082199
1.166000,-1.909094
1.167000,-2.046560
1.168000,-1.954916
1.169000,-1.643072
1.170000,-1.814905
1.171000,-1.926914
1.172000,-1.918004
1.173000,-1.677439
1.174000,-1.869636
1.175000,-2.045287
1.176000,-4.061449
1.177000,-7.388627
1.178000,-7.512092
1.179000,-5.494656
1.180000,-2.924812
1.181000,-0.367697
1.182000,1.327713
1.183000,2.155052
1.184000,1.970492
1.185000,1.978129
1.186000,2.073591
1.187000,1.611554
1.188000,0.039609
1.189000,-0.715179
1.190000,-1.676166
1.191000,-3.323208
1.192000,-5.075895
1.193000,-4.876061
1.194000,-3.255748
1.195000,-1.030841
1.196000,0.823672
1.197000,1.978129
1.198000,2.521627
1.199000,2.270880
1.200000,1.750292
1.201000,-0.071127
1.202000,-0.962108
1.203000,-1.687622
1.204000,-1.382142
1.205000,-1.033387
1.206000,-0.693541
1.207000,-0.758456
1.208000,-1.004112
1.209000,-1.224311
1.210000,-1.389779
1.211000,-1.618889
1.212000,-1.887456
1.213000,-2.148386
1.214000,-2.294761
1.215000,-2.287124
1.216000,-2.213300
1.217000,-1.622707
1.218000,-1.103393
1.219000,-1.223039
1.220000,-1.606160
1.221000,-1.845452
1.222000,-2.139476
1.223000,-2.256577
1.224000,-2.242575
1.225000,-2.288397
1.226000,-2.532781
1.227000,-2.635880
1.228000,-2.616787
1.229000,-2.584967
1.230000,-2.525144
1.231000,-2.310035
1.232000,-2.395315
1.233000,-2.901901
1.234000,-3.403396
1.235000,-3.523042
1.236000,-3.491222
1.237000,-3.669418
1.238000,-3.332118
1.239000,-2.653699
1.240000,-2.427136
1.241000,-2.256577
1.242000,-2.890446
1.243000,-3.871798
1.244000,-3.160286
1.245000,-3.248111
1.246000,-2.536599
1.247000,-2.061834
1.248000,-1.881092
1.249000,-2.438591
1.250000,-2.703340
1.251000,-2.217119
1.252000,-1.412690
1.253000,-0.820824
1.254000,-0.315511
1.255000,0.128707
1.256000,-0.286236
1.257000,-0.479706
1.258000,-0.170408
1.259000,-0.267143
1.260000,0.215259
1.261000,0.758758
1.262000,0.310722
1.263000,-1.881092
1.264000,-1.380869
1.265000,-1.077936
1.266000,-0.684631
1.267000,-0.342240
1.268000,0.177074
1.269000,0.254717
1.270000,-0.689723
1.271000,-2.208209
1.272000,-3.590502
1.273000,-5.178994
1.274000,-5.032619
1.275000,-3.670691
1.276000,-2.256577
1.277000,-0.600625
1.278000,0.662023
1.279000,1.019688
1.280000,0.837673
1.281000,0.597108
1.282000,0.435459
1.283000,-0.007486
1.284000,-0.255688
1.285000,-0.512799
1.286000,-1.041024
1.287000,-3.055914
1.288000,-3.283750
1.289000,-2.579875
1.290000,-1.471240
1.291000,-0.739363
1.292000,-0.143679
1.293000,-0.026578
1.294000,-0.768638
1.295000,-1.262496
1.296000,-1.196309
1.297000,-0.937925
1.298000,-0.948107
1.299000,-1.242131
1.300000,-1.657074
1.301000,-1.537428
1.302000,-1.729625
1.303000,-2.023649
1.304000,-2.623152
1.305000,-2.779710
1.306000,-3.069915
1.307000,-3.124647
1.308000,-3.083916
1.309000,-2.970634
1.310000,-2.786074
1.311000,-2.917175
1.312000,-2.840805
1.313000,-2.475503
1.314000,-2.530235
1.315000,-2.335492
1.316000,-2.058015
1.317000,-1.890001
1.318000,-1.602342
1.319000,-1.907821
1.320000,-2.573511
1.321000,-4.398749
1.322000,-6.882041
1.323000,-6.291448
1.324000,-4.813692
1.325000,-3.066096
1.326000,-1.424146
1.327000,-0.074946
1.328000,0.378182
1.329000,0.399820
1.330000,0.536012
1.331000,0.980230
1.332000,1.499545
1.333000,1.303529
1.334000,1.087148
1.335000,0.824945
1.336000,-1.276497
1.337000,-3.744515
1.338000,-6.591835
1.339000,-7.635556
1.340000,-5.381374
1.341000,-2.271850
1.342000,-0.167863
1.343000,0.547468
1.344000,0.443096
1.345000,-0.330785
1.346000,-0.888284
1.347000,-1.261223
1.348000,-1.154306
1.349000,-0.666812
1.350000,-0.017669
1.351000,1.255161
1.352000,1.535184
1.353000,1.120241
1.354000,1.085875
1.355000,1.200430
1.356000,0.123616
1.357000,-1.234494
1.358000,-4.281649
1.359000,-5.117898
1.360000,-4.141638
1.361000,-2.556964
1.362000,-1.038478
1.363000,-0.466978
1.364000,-0.567531
1.365000,-0.921378
1.366000,-1.382142
1.367000,-1.396143
1.368000,-1.243404
1.369000,-1.112302
1.370000,-0.753364
1.371000,-0.817006
1.372000,-1.281589
1.373000,-3.123374
1.374000,-3.983807
1.375000,-4.296923
1.376000,-3.954532
1.377000,-3.264658
1.378000,-2.410589
1.379000,-1.714351
1.380000,-1.371960
1.381000,-1.228130
1.382000,-2.041468
1.383000,-3.001182
1.384000,-3.035548
1.385000,-2.187844
1.386000,-1.533609
1.387000,-1.187399
1.388000,-1.375778
1.389000,-1.410145
1.390000,-1.765264
1.391000,-2.441137
1.392000,-3.337209
1.393000,-3.461947
1.394000,-2.961724
1.395000,-2.164933
1.396000,-1.293044
1.397000,-0.595533
1.398000,-0.069855
1.399000,0.110887
1.400000,0.040882
1.401000,-0.083856
1.402000,-0.577714
1.403000,-2.604059
1.404000,-4.566763
1.405000,-4.490393
1.406000,-4.248555
1.407000,-4.028356
1.408000,-3.234110
1.409000,-2.144567
1.410000,-3.021547
1.411000,-4.910427
1.412000,-6.700026
1.413000,-4.736049
1.414000,-1.984191
1.415000,0.818581
1.416000,2.535628
1.417000,2.864019
1.418000,2.853836
1.419000,2.913659
1.420000,2.403254
1.421000,2.004858
1.422000,1.839390
1.423000,1.620464
1.424000,1.553004
1.425000,1.154608
1.426000,1.172427
1.427000,0.566560
1.428000,-0.416064
1.429000,-1.219220
1.430000,-1.867091
1.431000,-2.187844
1.432000,-3.007546
1.433000,-3.687237
1.434000,-3.771244
1.435000,-3.582865
1.436000,-3.514133
1.437000,-3.333391
1.438000,-3.085189
1.439000,-2.568420
1.440000,-2.940086
1.441000,-3.455582
1.442000,-3.286296
1.443000,-3.203562
1.444000,-2.672792
1.445000,-1.858181
1.446000,-1.277770
1.447000,-1.098301
1.448000,-1.030841
1.449000,-0.804278
1.450000,-0.561167
1.451000,-0.960836
1.452000,-1.254859
1.453000,-1.159397
1.454000,-1.132668
1.455000,-1.281589
1.456000,-1.407599
1.457000,-1.839088
1.458000,-2.233666
1.459000,-2.480595
1.460000,-2.521325
1.461000,-2.549327
1.462000,-2.584967
1.463000,-2.562056
1.464000,-2.845897
1.465000,-2.614242
1.466000,-2.377495
1.467000,-2.362221
1.468000,-2.698249
1.469000,-2.849715
1.470000,-2.765709
1.471000,-3.365211
1.472000,-3.339755
1.473000,-4.582037
1.474000,-5.315187
1.475000,-4.373293
1.476000,-2.639698
1.477000,-0.782639
1.478000,0.564015
1.479000,1.262798
1.480000,1.474088
1.481000,1.130424
1.482000,-0.902285
1.483000,-2.209482
1.484000,-3.057187
1.485000,-3.076279
1.486000,-2.198026
1.487000,-1.984191
1.488000,-1.318501
1.489000,-0.641355
1.490000,-0.231504
1.491000,-0.211139
1.492000,-1.709260
1.493000,-1.904003
1.494000,-0.906104
1.495000,0.161800
1.496000,0.922953
1.497000,0.034517
1.498000,0.090522
1.499000,0.341269
1.500000,0.347634
1.501000,-0.164044
1.502000,-0.337149
1.503000,-0.934106
1.504000,-1.565430
1.505000,-1.492879
1.506000,-1.111030
1.507000,-0.466978
1.508000,-0.082583
1.509000,-0.045671
1.510000,-0.416064
1.511000,-0.959563
1.512000,-1.419054
1.513000,-1.571794
1.514000,-1.902730
1.515000,-2.336765
1.516000,-2.593876
1.517000,-3.053368
1.518000,-3.087735
1.519000,-2.635880
1.520000,-2.593876
1.521000,-2.932449
1.522000,-3.669418
1.523000,-4.142911
1.524000,-4.879879
1.525000,-4.780598
1.526000,-3.520497
1.527000,-2.635880
1.528000,-2.189117
1.529000,-2.302398
1.530000,-2.041468
1.531000,-1.587068
1.532000,-1.295590
1.533000,-1.046115
1.534000,-0.223867
1.535000,0.446914
1.536000,-0.517891
1.537000,-1.766537
1.538000,-1.946006
1.539000,-2.100018
1.540000,-3.530679
1.541000,-3.352483
1.542000,-3.064824
1.543000,-4.467482
1.544000,-3.474675
1.545000,-2.003283
1.546000,-0.507708
1.547000,-0.249324
1.548000,-0.794095
1.549000,-0.950653
1.550000,-2.149659
1.551000,-2.768254
1.552000,-2.262941
1.553000,-1.571794
1.554000,-1.459785
1.555000,-2.601513
1.556000,-1.167034
1.557000,-0.449158
1.558000,-1.385961
1.559000,-1.259951
1.560000,-0.781367
1.561000,0.347634
1.562000,1.344260
1.563000,1.102422
1.564000,0.945864
1.565000,0.784214
1.566000,0.194894
1.567000,-0.055853
1.568000,-0.091493
1.569000,-0.013850
1.570000,-0.003667
1.571000,-0.552257
1.572000,-0.917559
1.573000,-1.543792
1.574000,-1.993101
1.575000,-2.695703
1.576000,-3.017729
1.577000,-2.848442
1.578000,-3.012638
1.579000,-3.110645
1.580000,-3.127192
1.581000,-3.002455
1.582000,-2.658791
1.583000,-2.257849
1.584000,-1.826360
1.585000,-1.625253
1.586000,-1.153033
1.587000,-1.167034
1.588000,-1.279043
1.589000,-2.201845
1.590000,-5.763223
1.591000,-5.824319
1.592000,-5.446288
1.593000,-4.947339
1.594000,-3.104281
1.595000,-2.181480
1.596000,-0.954471
1.597000,-0.235323
1.598000,0.434186
1.599000,1.155881
1.600000,1.223341
1.601000,0.994231
1.602000,1.230978
1.603000,0.804580
1.604000,0.878404
1.605000,0.459643
1.606000,-0.132223
1.607000,-0.908650
1.608000,-2.404225
1.609000,-3.582865
1.610000,-3.451764
1.611000,-2.691884
1.612000,-2.212027
1.613000,-2.018557
1.614000,-2.889173
1.615000,-5.750495
1.616000,-6.789124
1.617000,-5.989787
1.618000,-4.827693
1.619000,-3.165377
1.620000,-1.693986
1.621000,-0.335876
1.622000,0.272537
1.623000,0.404911
1.624000,-0.123313
1.625000,-1.589614
1.626000,-2.380041
1.627000,-2.049105
1.628000,-0.710088
1.629000,0.450733
1.630000,1.383717
1.631000,1.694288
1.632000,1.229705
1.633000,0.653113
1.634000,0.191076
1.635000,-0.203502
1.636000,-0.063490
1.637000,-0.564985
1.638000,-1.015567
1.639000,-1.363050
1.640000,-2.152204
1.641000,-3.683419
1.642000,-4.258738
1.643000,-4.132728
1.644000,-4.117454
1.645000,-3.810702
1.646000,-4.265102
1.647000,-4.304560
1.648000,-5.333007
1.649000,-4.305833
1.650000,-2.590058
1.651000,-0.587896
1.652000,0.896223
1.653000,1.582279
1.654000,1.144425
1.655000,-0.631173
1.656000,-1.347776
1.657000,-2.344402
1.658000,-3.258294
1.659000,-2.139476
1.660000,-0.845008
1.661000,-0.185682
1.662000,0.654386
1.663000,0.681115
1.664000,0.438005
1.665000,-0.113131
1.666000,-0.925196
1.667000,-2.000738
1.668000,-2.462775
1.669000,-1.814905
1.670000,-1.321046
1.671000,-1.126303
1.672000,-1.114848
1.673000,-1.125031
1.674000,-2.578603
1.675000,-3.370303
1.676000,-3.013910
1.677000,-2.447501
1.678000,-1.603615
1.679000,-0.875556
1.680000,-0.693541
1.681000,-1.123758
1.682000,-1.864545
1.683000,-2.876445
1.684000,-3.320662
1.685000,-3.715240
1.686000,-6.019062
1.687000,-7.878667
1.688000,-8.051771
1.689000,-6.552378
1.690000,-4.386021
1.691000,-2.013466
1.692000,0.087976
1.693000,1.295892
1.694000,2.340885
1.695000,2.583996
1.696000,2.690914
1.697000,2.665457
1.698000,1.919579
1.699000,1.423175
1.700000,1.065510
1.701000,0.393456
1.702000,-2.033831
1.703000,-2.610423
1.704000,-1.868363
1.705000,-1.531063
1.706000,-1.450875
1.707000,-1.813632
1.708000,-1.757627
1.709000,-1.721988
1.710000,-1.504334
1.711000,-1.093210
1.712000,-3.498859
1.713000,-5.134445
1.714000,-5.266819
1.715000,-3.669418
1.716000,-1.556520
1.717000,0.131253
1.718000,0.996777
1.719000,0.737120
1.720000,0.309449
1.721000,-0.567531
1.722000,-1.191218
1.723000,-1.583249
1.724000,-2.269305
1.725000,-2.514961
1.726000,-3.562500
1.727000,-4.066541
1.728000,-4.225645
1.729000,-3.263385
1.730000,-2.129294
1.731000,-0.890830
1.732000,-0.344786
1.733000,-0.418610
1.734000,-0.613353
1.735000,-0.973564
1.736000,-0.847554
1.737000,-0.827188
1.738000,-1.837815
1.739000,-1.519608
1.740000,-1.761446
1.741000,-1.934551
1.742000,-1.814905
1.743000,-1.886183
1.744000,-1.972735
1.745000,-1.949824
1.746000,-2.882809
1.747000,-3.922711
1.748000,-3.909983
1.749000,-3.194652
1.750000,-2.157296
1.751000,-1.547610
1.752000,-0.853918
1.753000,-0.452976
1.754000,-0.496253
1.755000,-0.866646
1.756000,-1.692713
1.757000,-2.254031
1.758000,-2.219664
1.759000,-1.439420
1.760000,-0.436430
1.761000,0.163073
1.762000,-0.094038
1.763000,-0.333330
1.764000,-1.181035
1.765000,-3.080098
1.766000,-4.592220
1.767000,-5.511203
1.768000,-4.058904
1.769000,-2.483140
1.770000,-0.979928
1.771000,0.038336
1.772000,0.129980
1.773000,0.019243
1.774000,-0.665539
1.775000,-1.224311
1.776000,-2.840805
1.777000,-4.972796
1.778000,-4.448390
1.779000,-3.314298
1.780000,-1.757627
1.781000,-0.410973
1.782000,-0.021487
1.783000,0.233079
1.784000,0.100705
1.785000,0.283992
1.786000,0.350179
1.787000,-0.167863
1.788000,-1.475059
1.789000,-2.436046
1.790000,-2.494596
1.791000,-1.259951
1.792000,-0.404609
1.793000,-0.132223
1.794000,-0.204775
1.795000,-0.473342
1.796000,-1.183581
1.797000,-1.924368
1.798000,-2.139476
1.799000,-2.117838
1.800000,-1.836543
1.801000,-1.676166
1.802000,-1.350322
1.803000,-1.210310
1.804000,-1.121212
1.805000,-1.210310
1.806000,-1.293044
1.807000,-1.217947
1.808000,-0.977382
1.809000,-0.823370
1.810000,-0.759728
1.811000,-0.949380
1.812000,-2.243848
1.813000,-2.965543
1.814000,-2.825532
1.815000,-2.458956
1.816000,-1.770355
1.817000,-1.398689
1.818000,-1.476332
1.819000,-1.826360
1.820000,-2.056742
1.821000,-2.185298
1.822000,-2.367313
1.823000,-2.451320
1.824000,-2.787347
1.825000,-2.710977
1.826000,-2.483140
1.827000,-1.979100
1.828000,-1.366868
1.829000,-2.121657
1.830000,-3.997808
1.831000,-4.864605
1.832000,-5.872687
1.833000,-5.366100
1.834000,-3.708876
1.835000,-1.679985
1.836000,-0.343513
1.837000,0.469825
1.838000,0.886041
1.839000,1.149517
1.840000,0.695116
1.841000,0.543649
1.842000,0.528375
1.843000,0.255990
1.844000,0.160528
1.845000,-0.693541
1.846000,-5.501020
1.847000,-7.582097
1.848000,-7.585916
1.849000,-5.607938
1.850000,-3.215018
1.851000,-1.253586
1.852000,0.110887
1.853000,0.866948
1.854000,1.068055
1.855000,0.812217
1.856000,0.261081
1.857000,-0.711361
1.858000,-1.039751
1.859000,-0.021487
1.860000,1.285709
1.861000,1.544094
1.862000,0.552559
1.863000,-0.449158
1.864000,-0.939197
1.865000,-0.995202
1.866000,-1.214129
1.867000,-1.607433
1.868000,-1.865818
1.869000,-2.102564
1.870000,-2.665155
1.871000,-2.975725
1.872000,-3.278659
1.873000,-3.549772
1.874000,-5.261728
1.875000,-6.031790
1.876000,-5.969422
1.877000,-4.397477
1.878000,-2.044014
1.879000,-0.354969
1.880000,0.593290
1.881000,0.606018
1.882000,0.930590
1.883000,1.425721
1.884000,1.300983
1.885000,1.054054
1.886000,0.572925
1.887000,-0.054581
1.888000,-0.129678
1.889000,-0.374061
1.890000,-0.595533
1.891000,-0.968473
1.892000,-1.345230
1.893000,-1.634163
1.894000,-1.858181
1.895000,-1.902730
1.896000,-2.059288
1.897000,-2.436046
1.898000,-2.774618
1.899000,-3.005001
1.900000,-2.959179
1.901000,-2.671519
1.902000,-2.357130
1.903000,-2.212027
1.904000,-2.885355
1.905000,-3.167923
1.906000,-4.611312
1.907000,-5.908326
1.908000,-5.316460
1.909000,-3.906164
1.910000,-1.699077
1.911000,-0.487343
1.912000,-0.128405
1.913000,-0.437702
1.914000,-1.366868
1.915000,-4.641860
1.916000,-6.369090
1.917000,-6.113251
1.918000,-3.731786
1.919000,-0.898467
1.920000,0.210168
1.921000,0.877131
1.922000,1.134243
1.923000,1.006960
1.924000,0.572925
1.925000,0.068884
1.926000,0.051064
1.927000,0.490191
1.928000,0.572925
1.929000,1.015869
1.930000,0.143981
1.931000,-0.671903
1.932000,-1.048661
1.933000,-1.220493
1.934000,-1.707987
1.935000,-1.932005
1.936000,-3.167923
1.937000,-5.282093
1.938000,-4.907881
1.939000,-3.738151
1.940000,-2.313854
1.941000,-1.718169
1.942000,-2.091109
1.943000,-1.079209
1.944000,-0.381698
1.945000,0.002697
1.946000,-0.016396
1.947000,-0.274780
1.948000,-0.465705
1.949000,-0.768638
1.950000,-0.965927
1.951000,-0.915014
1.952000,-0.987565
1.953000,-1.219220
1.954000,-1.051207
1.955000,-1.331229
1.956000,-0.921378
1.957000,-0.856464
1.958000,-1.312137
1.959000,-1.613797
1.960000,-1.841634
1.961000,-1.748717
1.962000,-1.627799
1.963000,-1.627799
1.964000,-2.102564
1.965000,-2.934995
1.966000,-2.700794
1.967000,-2.444955
1.968000,-1.837815
1.969000,-1.387234
1.970000,-1.439420
1.971000,-3.734332
1.972000,-4.996979
1.973000,-4.407659
1.974000,-2.797529
1.975000,-1.071572
1.976000,-0.323148
1.977000,-0.230231
1.978000,-0.319329
1.979000,-0.761001
1.980000,-0.664266
1.981000,-0.773730
1.982000,-1.081754
1.983000,-0.901013
1.984000,-0.540802
1.985000,-0.599352
1.986000,-1.150487
1.987000,-1.490333
1.988000,-2.499687
1.989000,-4.532397
1.990000,-5.674125
1.991000,-6.025426
1.992000,-5.373737
1.993000,-4.377111
1.994000,-3.358847
1.995000,-2.791165
1.996000,-2.782255
1.997000,-2.567147
1.998000,-4.074178
1.999000,-5.391557
2.000000,-3.736878
2.001000,-1.388506
2.002000,0.238170
2.003000,1.705743
2.004000,2.956935
2.005000,3.662083
2.006000,3.222957
2.007000,2.365069
2.008000,1.499545
2.009000,0.410002
2.010000,0.073975
2.011000,-0.052035
2.012000,-0.792822
2.013000,-1.435601
2.014000,-1.830178
2.015000,-3.901073
2.016000,-4.598584
2.017000,-3.828522
2.018000,-3.954532
2.019000,-4.063995
2.020000,-3.467038
2.021000,-2.349493
2.022000,-1.417782
2.023000,-0.820824
2.024000,-1.606160
2.025000,-2.050378
2.026000,-2.130566
2.027000,-1.286680
2.028000,0.215259
2.029000,0.817308
2.030000,1.699379
2.031000,1.932307
2.032000,0.975139
2.033000,0.217805
2.034000,-0.423701
2.035000,-0.799186
2.036000,-0.590442
2.037000,-0.614626
2.038000,-0.724089
2.039000,-1.187399
2.040000,-1.632890
2.041000,-4.902790
2.042000,-6.133617
2.043000,-4.705501
2.044000,-2.808985
2.045000,-1.413963
2.046000,-0.772457
2.047000,-0.567531
2.048000,-0.610807
2.049000,-1.289226
2.050000,-1.854362
2.051000,-2.181480
2.052000,-2.270578
2.053000,-2.153477
2.054000,-2.066925
2.055000,-1.695259
2.056000,-1.275225
2.057000,-1.156851
2.058000,-1.265042
2.059000,-1.543792
2.060000,-1.707987
2.061000,-1.864545
2.062000,-1.967644
2.063000,-1.974008
2.064000,-2.014739
2.065000,-2.560783
2.066000,-4.219280
2.067000,-6.372909
2.068000,-6.469644
2.069000,-5.843411
2.070000,-4.598584
2.071000,-3.142466
2.072000,-1.816177
2.073000,-0.986292
2.074000,-0.496253
2.075000,-0.292600
2.076000,-0.352423
2.077000,-0.614626
2.078000,0.091795
2.079000,0.490191
2.080000,0.667114
2.081000,0.424003
2.082000,-0.502617
2.083000,-1.415236
2.084000,-3.015183
2.085000,-3.842523
2.086000,-3.613413
2.087000,-2.558237
2.088000,-1.609979
2.089000,-1.184854
2.090000,-3.398305
2.091000,-4.081815
2.092000,-3.627414
2.093000,-2.976998
2.094000,-1.847998
2.095000,-0.834825
2.096000,-1.203946
2.097000,-2.156023
2.098000,-1.524699
2.099000,-0.213684
2.100000,0.822399
2.101000,1.138061
2.102000,1.743928
2.103000,2.235240
2.104000,2.183054
2.105000,1.816479
2.106000,0.478735
2.107000,-2.736433
2.108000,-3.795428
2.109000,-2.802621
2.110000,-1.445784
2.111000,-0.901013
2.112000,-0.879374
2.113000,-1.791994
2.114000,-1.797085
2.115000,-1.343957
2.116000,-0.581532
2.117000,-0.274780
2.118000,-0.797913
2.119000,-1.214129
2.120000,-1.831451
2.121000,-1.886183
2.122000,-1.812359
2.123000,-1.835270
2.124000,-2.227301
2.125000,-2.233666
2.126000,-1.898911
2.127000,-1.840361
2.128000,-2.145840
2.129000,-2.008375
2.130000,-1.207765
2.131000,-1.170853
2.132000,-2.553146
2.133000,-3.775063
2.134000,-3.591775
2.135000,-3.138648
2.136000,-2.568420
2.137000,-2.135658
2.138000,-1.996919
2.139000,-1.601069
2.140000,-1.276497
2.141000,-1.331229
2.142000,-1.426691
2.143000,-1.389779
2.144000,-1.287953
2.145000,-1.198855
2.146000,-1.385961
2.147000,-1.653255
2.148000,-1.706714
2.149000,-1.553974
2.150000,-1.472513
2.151000,-1.747445
2.152000,-2.135658
2.153000,-2.899356
2.154000,-3.769971
2.155000,-3.823430
2.156000,-3.425034
2.157000,-2.624424
2.158000,-1.854362
2.159000,-1.430510
2.160000,-1.107211
2.161000,-1.137759
2.162000,-1.627799
2.163000,-2.271850
2.164000,-2.634607
2.165000,-2.420772
2.166000,-2.568420
2.167000,-2.423317
2.168000,-2.453865
2.169000,-2.385132
2.170000,-2.754253
2.171000,-4.685136
2.172000,-4.271466
2.173000,-2.878990
2.174000,-0.968473
2.175000,-0.206047
2.176000,-2.492050
2.177000,-2.783528
2.178000,-1.724534
2.179000,0.588198
2.180000,2.491079
2.181000,3.156769
2.182000,2.962026
2.183000,2.625999
2.184000,2.003585
2.185000,0.752394
2.186000,-2.008375
2.187000,-2.488232
2.188000,-2.072016
2.189000,-2.130566
2.190000,-1.450875
2.191000,-1.261223
2.192000,-1.590886
2.193000,-1.699077
2.194000,-1.497970
2.195000,-1.212856
2.196000,-0.916287
2.197000,-0.702451
2.198000,-0.511527
2.199000,-0.775002
2.200000,-0.689723
2.201000,-0.494980
2.202000,-0.365151
2.203000,-0.139860
2.204000,-0.178045
2.205000,-0.521709
2.206000,-1.043570
2.207000,-1.729625
2.208000,-2.054197
2.209000,-2.213300
2.210000,-2.494596
2.211000,-2.665155
2.212000,-2.825532
2.213000,-3.262112
2.214000,-3.601958
2.215000,-3.603231
2.216000,-3.421216
2.217000,-3.734332
2.218000,-4.279103
2.219000,-4.452208
2.220000,-3.661781
2.221000,-2.372404
2.222000,-1.352867
2.223000,-0.866646
2.224000,-0.646447
2.225000,-0.501344
2.226000,-0.888284
2.227000,-1.265042
2.228000,-1.635435
2.229000,-2.115292
2.230000,-2.607878
2.231000,-2.898083
2.232000,-4.382203
2.233000,-5.194268
2.234000,-4.986797
2.235000,-3.894709
2.236000,-2.791165
2.237000,-1.998192
2.238000,-1.167034
2.239000,-0.648992
2.240000,-1.258678
2.241000,-4.310924
2.242000,-4.108544
2.243000,-2.134385
2.244000,-0.043125
2.245000,1.418084
2.246000,1.955218
2.247000,1.936125
2.248000,-0.253142
2.249000,-1.161943
2.250000,-1.282862
2.251000,-1.282862
2.252000,-3.241747
2.253000,-4.621495
2.254000,-3.455582
2.255000,-1.523426
2.256000,-0.409700
2.257000,0.476189
2.258000,1.256434
2.259000,1.284436
2.260000,1.589916
2.261000,1.546639
2.262000,1.402810
2.263000,1.159699
2.264000,0.907679
2.265000,1.073147
2.266000,0.609837
2.267000,-0.394426
2.268000,-1.475059
2.269000,-1.975281
2.270000,-2.588785
2.271000,-3.208653
2.272000,-4.654588
2.273000,-6.422549
2.274000,-6.085249
2.275000,-4.622767
2.276000,-3.119555
2.277000,-1.934551
2.278000,-1.193763
2.279000,-0.562440
2.280000,-0.292600
2.281000,-0.400790
2.282000,-0.445339
2.283000,-0.431338
2.284000,-0.347332
2.285000,-0.400790
2.286000,-0.753364
2.287000,-1.135213
2.288000,-1.821269
2.289000,-3.173014
2.290000,-4.472574
2.291000,-4.820056
2.292000,-4.421660
2.293000,-3.598139
2.294000,-3.055914
2.295000,-2.639698
2.296000,-2.070743
2.297000,-1.634163
2.298000,-2.030013
2.299000,-2.634607
2.300000,-2.377495
2.301000,-1.468695
2.302000,-0.179318
2.303000,0.491463
2.304000,0.448187
2.305000,0.025608
2.306000,-0.305328
2.307000,-0.516618
2.308000,-0.958290
2.309000,-2.187844
2.310000,-2.672792
2.311000,-2.662609
2.312000,-2.870081
2.313000,-2.928631
2.314000,-2.535326
2.315000,-2.087290
2.316000,-4.867151
2.317000,-5.613029
2.318000,-4.197642
2.319000,-2.350766
2.320000,-0.402063
2.321000,0.690025
2.322000,0.846583
2.323000,0.907679
2.324000,-0.946834
2.325000,-1.305773
2.326000,-0.778821
2.327000,-0.248051
2.328000,0.364180
2.329000,0.379454
2.330000,0.824945
2.331000,0.942045
2.332000,0.644203
2.333000,0.233079
2.334000,-0.908650
2.335000,-2.604059
2.336000,-4.263829
2.337000,-5.240090
2.338000,-5.308823
2.339000,-4.952430
2.340000,-4.867151
2.341000,-3.867979
2.342000,-2.852261
2.343000,-1.879819
2.344000,-1.000293
2.345000,-0.338422
2.346000,-0.129678
2.347000,-0.162771
2.348000,0.219078
2.349000,0.533467
2.350000,0.285265
2.351000,-0.637537
2.352000,-1.719442
2.353000,-2.313854
2.354000,-2.394042
2.355000,-1.996919
2.356000,-1.617616
2.357000,-1.354140
2.358000,-0.913741
2.359000,-0.664266
2.360000,-0.591715
2.361000,-0.363878
2.362000,0.021789
2.363000,0.411275
2.364000,0.210168
2.365000,-0.311692
2.366000,-0.792822
2.367000,-1.406326
2.368000,-1.804722
2.369000,-2.058015
2.370000,-2.402952
2.371000,-3.545953
2.372000,-4.990615
2.373000,-5.607938
2.374000,-6.012698
2.375000,-8.156144
2.376000,-7.893941
2.377000,-6.188348
2.378000,-5.359736
2.379000,-3.703784
2.380000,-1.943460
2.381000,-0.610807
2.382000,-0.314238
2.383000,-0.609535
2.384000,0.138890
2.385000,0.653113
2.386000,0.959865
2.387000,1.541548
2.388000,1.591189
2.389000,1.989584
2.390000,2.773648
2.391000,2.982392
2.392000,2.823288
2.393000,2.352341
2.394000,1.709562
2.395000,0.263627
2.396000,-1.681257
2.397000,-2.828077
2.398000,-3.015183
2.399000,-3.878162
2.400000,-3.845068
2.401000,-3.598139
2.402000,-3.539589
2.403000,-3.748333
2.404000,-3.245565
2.405000,-2.634607
2.406000,-1.905275
2.407000,-1.511971
2.408000,-1.203946
2.409000,-1.038478
2.410000,-0.865373
2.411000,-1.107211
2.412000,-1.144123
2.413000,-1.551429
2.414000,-1.258678
2.415000,-1.090664
2.416000,-1.321046
2.417000,-1.438147
2.418000,-1.312137
2.419000,-1.776720
2.420000,-3.027911
2.421000,-3.277386
2.422000,-2.997364
2.423000,-2.763163
2.424000,-2.480595
2.425000,-2.310035
2.426000,-2.111474
2.427000,-1.970190
2.428000,-1.668529
2.429000,-1.597251
2.430000,-1.471240
2.431000,-1.298136
2.432000,-0.929015
2.433000,-0.825916
2.434000,-0.974837
2.435000,-0.983747
2.436000,-1.170853
2.437000,-1.723261
2.438000,-1.981645
2.439000,-4.041084
2.440000,-5.462835
2.441000,-5.620666
2.442000,-4.758960
2.443000,-3.355029
2.444000,-2.047832
2.445000,-0.745727
2.446000,-0.129678
2.447000,-2.044014
2.448000,-2.311308
2.449000,-2.765709
2.450000,-1.977827
2.451000,-0.381698
2.452000,-0.918832
2.453000,0.129980
2.454000,1.227159
2.455000,1.280618
2.456000,0.487645
2.457000,-0.333330
2.458000,-0.747000
2.459000,-1.271406
2.460000,-1.622707
2.461000,-1.329956
2.462000,-0.993929
2.463000,-1.542519
2.464000,-2.428409
2.465000,-2.668973
2.466000,-2.088563
2.467000,-1.295590
2.468000,-0.562440
2.469000,-0.545893
2.470000,-0.892103
2.471000,-2.097473
2.472000,-2.176388
2.473000,-1.669802
2.474000,-0.850099
2.475000,-0.213684
2.476000,-0.113131
2.477000,-0.267143
2.478000,-1.058844
2.479000,-1.475059
2.480000,-1.601069
2.481000,-1.356686
2.482000,-0.884466
2.483000,-0.521709
2.484000,-0.846281
2.485000,-1.864545
2.486000,-3.348665
2.487000,-3.917620
2.488000,-4.172186
2.489000,-3.948168
2.490000,-3.414852
2.491000,-2.460229
2.492000,-1.769083
2.493000,-1.359231
2.494000,-1.047388
2.495000,-1.121212
2.496000,-1.324865
2.497000,-1.130122
2.498000,-0.923924
2.499000,-0.827188
2.500000,-1.020659
2.501000,-0.918832
2.502000,-2.646063
2.503000,-4.545125
2.504000,-9.324601
2.505000,-8.621999
2.506000,-6.610928
2.507000,-3.414852
2.508000,-0.180591
2.509000,1.773203
2.510000,2.520354
2.511000,2.310337
2.512000,1.833026
2.513000,1.057873
2.514000,0.159255
2.515000,0.109614
2.516000,1.076965
2.517000,0.364180
2.518000,-1.133940
2.519000,-2.409316
2.520000,-2.355857
2.521000,-1.911640
2.522000,-2.007102
2.523000,-2.143295
2.524000,-2.943905
2.525000,-3.957077
2.526000,-4.197642
2.527000,-3.535771
2.528000,-3.052095
2.529000,-2.341856
2.530000,-1.593432
2.531000,-0.834825
2.532000,0.412548
2.533000,0.796943
2.534000,0.616201
2.535000,0.943318
2.536000,0.735847
2.537000,0.435459
2.538000,0.245807
2.539000,-0.500071
2.540000,-0.759728
2.541000,-1.030841
2.542000,-1.607433
2.543000,-1.949824
2.544000,-2.124202
2.545000,-2.199299
2.546000,-2.493323
2.547000,-3.409760
2.548000,-4.327471
2.549000,-4.778053
2.550000,-5.644850
2.551000,-5.451380
2.552000,-4.752596
2.553000,-3.758516
2.554000,-2.686793
2.555000,-2.003283
2.556000,-1.911640
2.557000,-1.113575
2.558000,-0.198410
2.559000,0.481281
2.560000,0.654386
2.561000,0.837673
2.562000,0.511829
2.563000,-4.452208
2.564000,-6.119616
2.565000,-5.260455
2.566000,-2.988454
2.567000,0.023062
2.568000,1.812661
2.569000,2.447803
2.570000,1.945035
2.571000,1.082057
2.572000,0.449460
2.573000,-0.236595
2.574000,-1.153033
2.575000,-1.548883
2.576000,-3.628687
2.577000,-4.456027
2.578000,-3.796701
2.579000,-3.540862
2.580000,-3.089007
2.581000,-3.092826
2.582000,-3.655417
2.583000,-3.169196
2.584000,-2.261668
2.585000,-1.669802
2.586000,-1.519608
2.587000,-1.252314
2.588000,-0.623536
2.589000,0.796943
2.590000,0.706572
2.591000,1.071874
2.592000,1.022234
2.593000,0.626383
2.594000,0.238170
2.595000,-0.454249
2.596000,-1.603615
2.597000,-2.385132
2.598000,-2.606605
2.599000,-2.418226
2.600000,-2.297307
2.601000,-3.647780
2.602000,-4.751323
2.603000,-4.075451
2.604000,-3.031730
2.605000,-2.030013
2.606000,-0.973564
2.607000,-0.071127
2.608000,-0.837371
2.609000,-1.490333
2.610000,-1.253586
2.611000,-1.304500
2.612000,-0.576441
2.613000,-0.739363
2.614000,-0.612080
2.615000,-0.911195
2.616000,-0.899740
2.617000,-0.689723
2.618000,-0.643901
2.619000,-0.724089
2.620000,-0.866646
2.621000,-0.990111
2.622000,-1.314682
2.623000,-1.651982
2.624000,-2.320218
2.625000,-2.736433
2.626000,-3.108100
2.627000,-3.212472
2.628000,-4.374566
2.629000,-4.246010
2.630000,-4.085633
2.631000,-3.926529
2.632000,-3.184470
2.633000,-4.095816
2.634000,-4.000354
2.635000,-2.747889
2.636000,-1.281589
2.637000,-0.427520
2.638000,-0.022760
2.639000,0.171983
2.640000,-0.290054
2.641000,-1.071572
2.642000,-2.530235
2.643000,-1.707987
2.644000,-0.911195
2.645000,-0.124586
2.646000,0.449460
2.647000,1.276800
2.648000,1.349351
2.649000,0.757485
2.650000,0.215259
2.651000,-0.304055
2.652000,-1.079209
2.653000,-1.853089
2.654000,-2.558237
2.655000,-3.109373
2.656000,-3.234110
2.657000,-3.292660
2.658000,-3.727968
2.659000,-5.693217
2.660000,-6.425095
2.661000,-5.395375
2.662000,-3.726695
2.663000,-2.149659
2.664000,-0.859009
2.665000,0.318359
2.666000,0.800761
2.667000,1.135515
2.668000,0.921680
2.669000,0.617474
2.670000,-0.115676
2.671000,-2.339310
2.672000,-3.442854
2.673000,-3.139921
2.674000,-2.838260
2.675000,-1.627799
2.676000,-1.496697
2.677000,-1.923095
2.678000,-1.272679
2.679000,-0.418610
2.680000,0.296720
2.681000,-0.267143
2.682000,-0.986292
2.683000,-1.364323
2.684000,-1.397416
2.685000,-1.256132
2.686000,-0.950653
2.687000,-0.824643
2.688000,-0.780094
2.689000,-0.347332
2.690000,-0.087674
2.691000,-0.510254
2.692000,-0.460613
2.693000,-0.446612
2.694000,-0.908650
2.695000,-1.715624
2.696000,-2.245121
2.697000,-2.838260
2.698000,-3.104281
2.699000,-3.096644
2.700000,-3.234110
2.701000,-2.787347
2.702000,-2.502233
2.703000,-2.201845
2.704000,-2.240030
2.705000,-2.176388
2.706000,-2.913357
2.707000,-4.534942
2.708000,-3.467038
2.709000,-2.047832
2.710000,-1.005385
2.711000,-0.606989
2.712000,-0.069855
2.713000,0.000151
2.714000,-0.386789
2.715000,-0.696087
2.716000,-1.259951
2.717000,-1.979100
2.718000,-2.870081
2.719000,-4.021992
2.720000,-3.889617
2.721000,-3.226473
2.722000,-2.801348
2.723000,-2.866262
2.724000,-2.307490
2.725000,-2.283306
2.726000,-2.849715
2.727000,-1.951097
2.728000,-0.865373
2.729000,0.124888
2.730000,0.269991
2.731000,-1.279043
2.732000,-2.353312
2.733000,-2.689339
2.734000,-3.657962
2.735000,-3.649053
2.736000,-2.730069
2.737000,-3.766153
2.738000,-3.117010
2.739000,-1.709260
2.740000,-0.487343
2.741000,0.370545
2.742000,1.519910
2.743000,2.095229
2.744000,2.293791
2.745000,2.083774
2.746000,1.805024
2.747000,1.820298
2.748000,1.168609
2.749000,0.438005
2.750000,-0.236595
2.751000,-1.006657
2.752000,-3.293933
2.753000,-4.551489
2.754000,-5.901962
2.755000,-6.209986
2.756000,-5.122990
2.757000,-3.668145
2.758000,-2.345675
2.759000,-1.524699
2.760000,-0.542075
2.761000,0.180893
2.762000,-0.225140
2.763000,-2.699521
2.764000,-3.311753
2.765000,-2.264214
2.766000,-0.618444
2.767000,0.311994
2.768000,0.670932
2.769000,0.174529
2.770000,-0.503890
2.771000,-0.557348
2.772000,-0.381698
2.773000,-0.192046
2.774000,-0.487343
2.775000,-0.424974
2.776000,-0.335876
2.777000,-0.445339
2.778000,-0.831007
2.779000,-1.378324
2.780000,-1.868363
2.781000,-2.495869
2.782000,-2.602786
2.783000,-3.361393
2.784000,-4.270194
2.785000,-6.360180
2.786000,-5.929964
2.787000,-4.881152
2.788000,-3.890890
2.789000,-2.765709
2.790000,-2.121657
2.791000,-1.266315
2.792000,-0.683359
2.793000,-0.311692
2.794000,-0.003667
2.795000,0.118524
2.796000,-0.067309
2.797000,-0.326966
2.798000,-2.321491
2.799000,-3.534498
2.800000,-3.208653
2.801000,-2.224756
2.802000,-1.107211
2.803000,-0.718998
2.804000,-2.042741
2.805000,-3.061005
2.806000,-3.777608
2.807000,-4.167094
2.808000,-3.489949
2.809000,-2.490777
2.810000,-1.844180
2.811000,-1.282862
2.812000,-0.871737
2.813000,-0.488616
2.814000,-0.316784
2.815000,-0.188228
2.816000,-0.073673
2.817000,-0.368970
2.818000,0.168165
2.819000,0.916589
2.820000,0.780396
2.821000,-1.154306
2.822000,-1.492879
2.823000,-1.132668
2.824000,-1.231948
2.825000,-1.538700
2.826000,-1.697804
2.827000,-1.520881
2.828000,-1.443238
2.829000,-1.489060
2.830000,-1.613797
2.831000,-1.510698
2.832000,-1.573067
2.833000,-2.219664
2.834000,-2.801348
2.835000,-2.913357
2.836000,-2.471685
2.837000,-2.349493
2.838000,-2.448774
2.839000,-2.550600
2.840000,-2.240030
2.841000,-1.981645
2.842000,-1.886183
2.843000,-3.800519
2.844000,-3.463219
2.845000,-1.994374
2.846000,-0.988838
2.847000,-2.340583
2.848000,-5.040256
2.849000,-5.189177
2.850000,-4.033447
2.851000,-2.649881
2.852000,-2.598968
2.853000,-2.299853
2.854000,-1.154306
2.855000,-0.025306
2.856000,1.274254
2.857000,2.044316
2.858000,2.443985
2.859000,3.326056
2.860000,2.671821
2.861000,1.239887
2.862000,-0.860282
2.863000,-1.933278
2.864000,-3.277386
2.865000,-3.570137
2.866000,-3.300297
2.867000,-3.232837
2.868000,-3.563773
2.869000,-3.372848
2.870000,-2.913357
2.871000,-2.236211
2.872000,-1.693986
2.873000,-1.056298
2.874000,-0.654084
2.875000,-0.358787
2.876000,-0.814460
2.877000,-1.453421
2.878000,-0.841190
2.879000,-0.451704
2.880000,-0.139860
2.881000,-0.081310
2.882000,0.175802
2.883000,0.491463
2.884000,0.174529
2.885000,-0.441521
2.886000,-0.785185
2.887000,-1.385961
2.888000,-1.919277
2.889000,-2.367313
2.890000,-2.517507
2.891000,-2.609150
2.892000,-2.450047
2.893000,-2.441137
2.894000,-2.824259
2.895000,-3.586684
2.896000,-3.720331
2.897000,-3.609595
2.898000,-3.310480
2.899000,-3.055914
2.900000,-2.652427
2.901000,-3.748333
2.902000,-4.775507
2.903000,-3.954532
2.904000,-2.537872
2.905000,-0.992656
2.906000,0.208895
2.907000,0.662023
2.908000,0.667114
2.909000,0.612382
2.910000,0.485099
2.911000,0.300539
2.912000,0.057428
2.913000,-0.665539
2.914000,-1.508152
2.915000,-1.798358
2.916000,-1.886183
2.917000,-2.498414
2.918000,-5.161175
2.919000,-7.592280
2.920000,-6.160346
2.921000,-3.857797
2.922000,-1.529791
2.923000,-0.524255
2.924000,-0.763547
2.925000,-1.518335
2.926000,-2.190389
2.927000,-2.254031
2.928000,-1.721988
2.929000,-1.027023
2.930000,-0.633718
2.931000,-0.360060
2.932000,-0.787731
2.933000,-0.916287
2.934000,-0.766093
2.935000,-0.459341
2.936000,-0.662993
2.937000,0.063793
2.938000,0.495282
2.939000,0.529648
2.940000,0.048519
2.941000,-0.134769
2.942000,-1.361777
2.943000,-4.470028
2.944000,-5.173903
2.945000,-4.588401
2.946000,-2.904447
2.947000,-1.323592
2.948000,-0.601898
2.949000,-0.246778
2.950000,0.147799
2.951000,0.076521
2.952000,-0.134769
2.953000,-0.775002
2.954000,-0.925196
2.955000,-0.715179
2.956000,-0.827188
2.957000,-0.946834
2.958000,-1.161943
2.959000,-1.472513
2.960000,-2.520052
2.961000,-2.278215
2.962000,-1.573067
2.963000,-1.013022
2.964000,-1.601069
2.965000,-1.919277
2.966000,-1.907821
2.967000,-2.092381
2.968000,-2.000738
2.969000,-1.747445
2.970000,-1.635435
2.971000,-1.504334
2.972000,-1.497970
2.973000,-2.770800
2.974000,-4.274012
2.975000,-3.474675
2.976000,-1.883637
2.977000,-0.750819
2.978000,-0.604443
2.979000,-0.931561
2.980000,-1.718169
2.981000,-2.013466
2.982000,-2.275669
2.983000,-4.121272
2.984000,-4.467482
2.985000,-4.198915
2.986000,-2.998636
2.987000,-1.374505
2.988000,-0.562440
2.989000,-0.255688
2.990000,-0.888284
2.991000,-1.704168
2.992000,-2.035104
2.993000,-1.921822
2.994000,-3.230291
2.995000,-3.047004
2.996000,-2.320218
2.997000,-1.904003
2.998000,-1.365596
2.999000,-1.271406
3.000000,-1.200128
3.001000,-1.687622
3.002000,-2.910811
3.003000,-2.689339
3.004000,-1.472513
3.005000,-1.112302
3.006000,-1.696531
3.007000,-2.794984
3.008000,-2.717341
3.009000,-1.904003
3.010000,-1.173398
3.011000,-0.382971
3.012000,0.191076
3.013000,0.407457
3.014000,0.396001
3.015000,0.739665
3.016000,0.817308
3.017000,0.963683
3.018000,1.097330
3.019000,0.949682
3.020000,0.341269
3.021000,-0.479706
3.022000,-0.860282
3.023000,-1.282862
3.024000,-1.654528
3.025000,-1.770355
3.026000,-1.798358
3.027000,-1.886183
3.028000,-2.320218
3.029000,-3.478493
3.030000,-3.870525
3.031000,-3.506496
3.032000,-3.002455
3.033000,-2.237484
3.034000,-2.131839
3.035000,-1.915458
3.036000,-1.967644
3.037000,-2.573511
3.038000,-3.428853
3.039000,-3.268476
3.040000,-2.816622
3.041000,-2.334219
3.042000,-1.743626
3.043000,-1.382142
3.044000,-1.135213
3.045000,-0.878102
3.046000,-0.619717
3.047000,-0.423701
3.048000,-0.897194
3.049000,-3.291387
3.050000,-8.624545
3.051000,-9.169316
3.052000,-7.417902
3.053000,-5.096260
3.054000,-2.982090
3.055000,-1.024477
3.056000,0.452006
3.057000,1.069328
3.058000,1.106240
3.059000,1.220795
3.060000,1.238615
3.061000,1.443540
3.062000,1.656103
3.063000,1.947581
3.064000,2.466896
3.065000,2.788922
3.066000,2.576359
3.067000,1.494453
3.068000,-0.083856
3.069000,-0.932833
3.070000,-2.049105
3.071000,-3.528134
3.072000,-3.749606
3.073000,-3.922711
3.074000,-3.621050
3.075000,-3.129738
3.076000,-4.151820
3.077000,-4.327471
3.078000,-2.985908
3.079000,-1.499243
3.080000,-0.604443
3.081000,-0.282417
3.082000,-0.039307
3.083000,-1.308318
3.084000,-2.584967
3.085000,-2.422044
3.086000,-1.833997
3.087000,-1.735989
3.088000,-2.504778
3.089000,-2.306217
3.090000,-1.842907
3.091000,-1.419054
3.092000,-1.276497
3.093000,-1.019386
3.094000,-1.090664
3.095000,-1.074117
3.096000,-0.965927
3.097000,-1.497970
3.098000,-1.952370
3.099000,-2.140749
3.100000,-1.974008
3.101000,-1.825087
3.102000,-2.274396
3.103000,-2.737706
3.104000,-2.733888
3.105000,-2.797529
3.106000,-5.178994
3.107000,-6.778941
3.108000,-5.942692
3.109000,-4.356746
3.110000,-2.452592
3.111000,-0.761001
3.112000,0.294175
3.113000,-0.128405
3.114000,-1.450875
3.115000,-3.474675
3.116000,-5.266819
3.117000,-3.902346
3.118000,-0.898467
3.119000,1.769385
3.120000,2.866564
3.121000,3.032032
3.122000,2.563631
3.123000,1.859756
3.124000,0.984049
3.125000,0.448187
3.126000,0.460915
3.127000,0.250899
3.128000,-0.458068
3.129000,-0.680813
3.130000,-0.511527
3.131000,-0.643901
3.132000,-0.899740
3.133000,-0.920105
3.134000,-0.752091
3.135000,-1.132668
3.136000,-1.654528
3.137000,-1.867091
3.138000,-2.105110
3.139000,-2.441137
3.140000,-3.659235
3.141000,-4.638041
3.142000,-5.282093
3.143000,-7.464997
3.144000,-9.675903
3.145000,-9.381879
3.146000,-7.094603
3.147000,-4.611312
3.148000,-2.302398
3.149000,-0.619717
3.150000,0.614928
3.151000,1.620464
3.152000,2.023951
3.153000,1.555549
3.154000,1.199157
3.155000,1.598826
3.156000,1.876302
3.157000,1.852119
3.158000,1.250070
3.159000,0.929317
3.160000,0.243262
3.161000,-0.623536
3.162000,-1.651982
3.163000,-3.754697
3.164000,-4.261284
3.165000,-4.102180
3.166000,-3.246838
3.167000,-2.248940
3.168000,-1.701623
3.169000,-1.298136
3.170000,-2.654972
3.171000,-3.776336
3.172000,-3.230291
3.173000,-1.830178
3.174000,-0.100403
3.175000,0.883495
3.176000,0.814762
3.177000,-0.058399
3.178000,-1.510698
3.179000,-2.746616
3.180000,-5.712310
3.181000,-6.624929
3.182000,-4.806055
3.183000,-2.516234
3.184000,-1.086846
3.185000,-0.431338
3.186000,-0.254415
3.187000,-0.575168
3.188000,-0.697360
3.189000,-0.339695
3.190000,-0.004940
3.191000,-0.305328
3.192000,-0.080037
3.193000,0.224169
3.194000,0.957319
3.195000,0.791851
3.196000,-0.031670
3.197000,-0.668085
3.198000,-1.118667
3.199000,-1.678712
3.200000,-2.047832
3.201000,-1.970190
3.202000,-2.437318
3.203000,-3.540862
3.204000,-3.944349
3.205000,-3.937985
3.206000,-3.697420
3.207000,-3.170468
3.208000,-2.619333
3.209000,-2.668973
3.210000,-2.900628
3.211000,-2.094927
3.212000,-1.556520
3.213000,-1.240858
3.214000,-1.100847
3.215000,-2.432227
3.216000,-3.403396
3.217000,-2.763163
3.218000,-1.783084
3.219000,-1.063935
3.220000,-0.528073
3.221000,-0.256961
3.222000,-0.039307
3.223000,-0.388062
3.224000,-0.609535
3.225000,-0.598079
3.226000,-0.636264
3.227000,-0.946834
3.228000,-1.319774
3.229000,-1.514517
3.230000,-1.681257
3.231000,-1.949824
3.232000,-2.150932
3.233000,-3.254475
3.234000,-4.349109
3.235000,-4.519668
3.236000,-3.941803
3.237000,-3.755970
3.238000,-3.232837
3.239000,-2.394042
3.240000,-1.629071
3.241000,-1.291771
3.242000,-1.084300
3.243000,-1.799631
3.244000,-2.521325
3.245000,-2.324037
3.246000,-1.447057
3.247000,-0.105494
3.248000,1.195338
3.249000,1.703198
3.250000,1.550458
3.251000,0.659477
3.252000,-0.081310
3.253000,-0.656629
3.254000,-1.088119
3.255000,-2.801348
3.256000,-4.781871
3.257000,-5.121717
3.258000,-4.935884
3.259000,-4.426752
3.260000,-2.873899
3.261000,-1.276497
3.262000,-0.069855
3.263000,0.345088
3.264000,0.413821
3.265000,-0.354969
3.266000,-1.519608
3.267000,-2.703340
3.268000,-2.185298
3.269000,-1.604888
3.270000,-0.708815
3.271000,-0.013850
3.272000,0.252171
3.273000,0.369272
3.274000,0.370545
3.275000,0.388364
3.276000,0.345088
3.277000,-1.575612
3.278000,-2.168751
3.279000,-2.929904
3.280000,-3.021547
3.281000,-2.318945
3.282000,-1.579431
3.283000,-1.335048
3.284000,-1.859454
3.285000,-2.390224
3.286000,-2.451320
3.287000,-2.125475
3.288000,-1.455966
3.289000,-0.985019
3.290000,-1.279043
3.291000,-1.132668
3.292000,-1.071572
3.293000,-0.879374
3.294000,-0.887011
3.295000,-0.789004
3.296000,-1.023204
3.297000,-1.245950
3.298000,-2.430954
3.299000,-4.655861
3.300000,-4.990615
3.301000,-4.005445
3.302000,-2.653699
3.303000,-1.377051
3.304000,-0.666812
3.305000,-0.407155
3.306000,-0.917559
3.307000,-1.522154
3.308000,-1.751263
3.309000,-1.730898
3.310000,-1.408872
3.311000,-0.707542
3.312000,-0.287509
3.313000,-0.309147
3.314000,-0.646447
3.315000,-0.843735
3.316000,-1.702895
3.317000,-3.413579
3.318000,-4.449663
3.319000,-4.375838
3.320000,-3.730514
3.321000,-5.325370
3.322000,-5.844684
3.323000,-4.618949
3.324000,-3.021547
3.325000,-1.300681
3.326000,-0.371515
3.327000,0.180893
3.328000,0.258536
3.329000,0.467280
3.330000,1.012051
3.331000,0.589471
3.332000,-0.054581
3.333000,-0.132223
3.334000,-0.646447
3.335000,-1.762718
3.336000,-3.057187
3.337000,-4.489120
3.338000,-4.701683
3.339000,-3.755970
3.340000,-2.343129
3.341000,-1.098301
3.342000,-0.129678
3.343000,0.030699
3.344000,-0.385516
3.345000,-1.900184
3.346000,-2.946450
3.347000,-2.554419
3.348000,-1.839088
3.349000,-1.015567
3.350000,-0.726635
3.351000,-1.672348
3.352000,-2.700794
3.353000,-3.399578
3.354000,-3.353756
3.355000,-3.277386
3.356000,-4.458572
3.357000,-3.542135
3.358000,-2.359676
3.359000,-0.889557
3.360000,0.704026
3.361000,1.468997
3.362000,1.969219
3.363000,1.721017
3.364000,2.041770
3.365000,1.214431
3.366000,0.718027
3.367000,0.048519
3.368000,-0.204775
3.369000,-0.913741
3.370000,-1.529791
3.371000,-2.103837
3.372000,-2.102564
3.373000,-2.122929
3.374000,-2.038923
3.375000,-1.626526
3.376000,-1.360504
3.377000,-1.055025
3.378000,-1.046115
3.379000,-1.282862
3.380000,-1.033387
3.381000,-0.628627
3.382000,-0.562440
3.383000,-0.488616
3.384000,-0.808096
3.385000,-1.326138
3.386000,-1.788175
3.387000,-2.396588
3.388000,-2.993545
3.389000,-3.201016
3.390000,-3.473402
3.391000,-4.848058
3.392000,-5.341916
3.393000,-5.131899
3.394000,-4.318561
3.395000,-3.297751
3.396000,-2.191662
3.397000,-1.289226
3.398000,-0.727908
3.399000,-0.302782
3.400000,-0.356241
3.401000,-0.650265
3.402000,-0.936652
3.403000,-1.223039
3.404000,-3.155194
3.405000,-4.669862
3.406000,-3.915074
3.407000,-2.714795
3.408000,-1.206492
3.409000,-0.337149
3.410000,-0.228958
3.411000,-0.666812
3.412000,-0.885739
3.413000,-0.851372
3.414000,-1.401235
3.415000,-2.303671
3.416000,-3.250657
3.417000,-3.731786
3.418000,-4.450935
3.419000,-4.906609
3.420000,-3.526861
3.421000,-2.815349
3.422000,-1.789448
3.423000,-0.636264
3.424000,-0.253142
3.425000,-0.669358
3.426000,-1.993101
3.427000,-3.906164
3.428000,-4.295650
3.429000,-4.060177
3.430000,-2.868808
3.431000,-0.706270
3.432000,0.859311
3.433000,0.515647
3.434000,0.371817
3.435000,1.121514
3.436000,2.216148
3.437000,2.743100
3.438000,2.046862
3.439000,1.423175
3.440000,1.028598
3.441000,0.942045
3.442000,0.420185
3.443000,-0.698633
3.444000,-1.777992
3.445000,-2.926085
3.446000,-3.323208
3.447000,-3.143739
3.448000,-2.559510
3.449000,-2.161114
3.450000,-1.890001
3.451000,-1.480150
3.452000,-1.402508
3.453000,-1.295590
3.454000,-1.408872
3.455000,-1.511971
3.456000,-0.875556
3.457000,-0.693541
3.458000,-0.814460
3.459000,-1.315955
3.460000,-1.555247
3.461000,-2.058015
3.462000,-2.518780
3.463000,-2.532781
3.464000,-2.584967
3.465000,-2.474230
3.466000,-2.895537
3.467000,-5.058075
3.468000,-5.107716
3.469000,-3.888345
3.470000,-2.503506
3.471000,-1.419054
3.472000,-0.473342
3.473000,0.269991
3.474000,-0.153861
3.475000,-1.046115
3.476000,-1.783084
3.477000,-3.258294
3.478000,-3.691056
3.479000,-3.151376
3.480000,-2.504778
3.481000,-2.269305
3.482000,-1.890001
3.483000,-1.509425
3.484000,-2.509870
3.485000,-2.630789
3.486000,-1.949824
3.487000,-1.154306
3.488000,-0.572622
3.489000,-0.697360
3.490000,-0.455522
3.491000,-0.403336
3.492000,-0.617172
3.493000,-2.429681
3.494000,-2.409316
3.495000,-2.061834
3.496000,-1.655801
3.497000,-0.937925
3.498000,-0.361333
3.499000,-0.020214
3.500000,-0.281144
3.501000,-1.559066
3.502000,-2.255304
3.503000,-2.336765
3.504000,-2.167478
3.505000,-1.956189
3.506000,-1.519608
3.507000,-1.377051
3.508000,-1.515789
3.509000,-1.672348
3.510000,-2.336765
3.511000,-3.724149
3.512000,-4.155639
3.513000,-5.641031
3.514000,-6.436550
3.515000,-4.562944
3.516000,-2.479322
3.517000,-0.456795
3.518000,1.048963
3.519000,1.732473
3.520000,1.868665
3.521000,1.652284
3.522000,1.244979
3.523000,0.922953
3.524000,0.950955
3.525000,0.833855
3.526000,0.757485
3.527000,0.229260
3.528000,-0.480979
3.529000,-1.590886
3.530000,-1.643072
3.531000,-1.645618
3.532000,-1.752536
3.533000,-1.845452
3.534000,-2.252758
3.535000,-2.726251
3.536000,-4.258738
3.537000,-5.908326
3.538000,-6.236716
3.539000,-5.787407
3.540000,-5.291003
3.541000,-6.114524
3.542000,-5.131899
3.543000,-3.085189
3.544000,-1.231948
3.545000,0.138890
3.546000,0.924226
3.547000,1.489362
3.548000,-0.435157
3.549000,-1.472513
3.550000,-0.539529
3.551000,0.452006
3.552000,1.754111
3.553000,2.404527
3.554000,2.589087
3.555000,2.268334
3.556000,1.243706
3.557000,0.518193
3.558000,-0.142406
3.559000,-0.762274
3.560000,-1.261223
3.561000,-1.588341
3.562000,-1.597251
3.563000,-1.590886
3.564000,-1.926914
3.565000,-2.014739
3.566000,-2.429681
3.567000,-3.436490
3.568000,-4.671135
3.569000,-5.493383
3.570000,-6.089068
3.571000,-5.600301
3.572000,-4.750050
3.573000,-3.867979
3.574000,-3.296479
3.575000,-3.703784
3.576000,-3.375394
3.577000,-2.946450
3.578000,-2.382587
3.579000,-1.634163
3.580000,-0.878102
3.581000,0.469825
3.582000,1.234796
3.583000,1.313712
3.584000,0.497828
3.585000,-0.836098
3.586000,-1.546337
3.587000,-2.054197
3.588000,-2.565874
3.589000,-2.274396
3.590000,-1.833997
3.591000,-1.352867
3.592000,-1.374505
3.593000,-1.406326
3.594000,-1.337593
3.595000,-1.565430
3.596000,-3.262112
3.597000,-4.344018
3.598000,-5.311368
3.599000,-4.477665
3.600000,-3.267204
3.601000,-1.835270
3.602000,-0.568804
3.603000,0.184711
3.604000,0.508010
3.605000,1.052781
3.606000,1.404083
3.607000,-0.054581
3.608000,-0.296418
3.609000,0.133798
3.610000,0.399820
3.611000,0.954774
3.612000,0.739665
3.613000,0.364180
3.614000,0.188530
3.615000,-0.088947
3.616000,-0.475887
3.617000,-1.462331
3.618000,-3.389395
3.619000,-5.997424
3.620000,-5.537932
3.621000,-4.275285
3.622000,-4.042357
3.623000,-2.616787
3.624000,-2.615515
3.625000,-3.245565
3.626000,-2.812803
3.627000,-1.751263
3.628000,-0.837371
3.629000,-0.353696
3.630000,-0.549712
3.631000,-0.587896
3.632000,-0.267143
3.633000,-0.338422
3.634000,-1.234494
3.635000,-1.971463
3.636000,-2.478049
3.637000,-2.245121
3.638000,-1.961280
3.639000,-1.350322
3.640000,-1.430510
3.641000,-1.687622
3.642000,-1.804722
3.643000,-2.083472
3.644000,-2.632061
3.645000,-2.115292
3.646000,-1.200128
3.647000,-0.775002
3.648000,-0.645174
3.649000,-0.334603
3.650000,-0.493707
3.651000,-0.524255
3.652000,-0.424974
3.653000,-0.301510
3.654000,-0.740636
3.655000,-1.095756
3.656000,-1.108484
3.657000,-1.490333
3.658000,-2.214573
3.659000,-3.276113
3.660000,-4.910427
3.661000,-5.534114
3.662000,-5.240090
3.663000,-4.233281
3.664000,-2.806439
3.665000,-1.569248
3.666000,-0.768638
3.667000,-0.040580
3.668000,-0.186955
3.669000,-0.781367
3.670000,-1.229403
3.671000,-1.587068
3.672000,-1.845452
3.673000,-2.326582
3.674000,-1.972735
3.675000,-1.621434
3.676000,-1.664711
3.677000,-1.794539
3.678000,-2.364767
3.679000,-3.209926
3.680000,-2.133112
3.681000,-0.706270
3.682000,0.058701
3.683000,0.684934
3.684000,0.868221
3.685000,0.842764
3.686000,0.903860
3.687000,0.823672
3.688000,-1.695259
3.689000,-3.337209
3.690000,-3.413579
3.691000,-2.946450
3.692000,-1.965098
3.693000,-2.364767
3.694000,-2.475503
3.695000,-2.247667
3.696000,-2.298580
3.697000,-2.030013
3.698000,-1.783084
3.699000,-2.596422
3.700000,-2.812803
3.701000,-2.805166
3.702000,-2.147113
3.703000,-1.266315
3.704000,-0.781367
3.705000,-0.534438
3.706000,-0.253142
3.707000,-0.314238
3.708000,0.096886
3.709000,-0.613353
3.710000,-1.457239
3.711000,-2.086017
3.712000,-2.413135
3.713000,-2.802621
3.714000,-2.605332
3.715000,-2.378768
3.716000,-2.383860
3.717000,-2.306217
3.718000,-2.142022
3.719000,-2.050378
3.720000,-1.901457
3.721000,-1.695259
3.722000,-1.699077
3.723000,-2.017284
3.724000,-1.770355
3.725000,-1.573067
3.726000,-1.632890
3.727000,-1.392325
3.728000,-1.160670
3.729000,-1.128849
3.730000,-1.338866
3.731000,-1.412690
3.732000,-1.206492
3.733000,-1.427964
3.734000,-1.757627
3.735000,-1.542519
3.736000,-1.401235
3.737000,-1.420327
3.738000,-1.589614
3.739000,-2.042741
3.740000,-2.568420
3.741000,-2.615515
3.742000,-3.006273
3.743000,-4.650770
3.744000,-6.906224
3.745000,-7.633010
3.746000,-6.445460
3.747000,-3.715240
3.748000,-0.662993
3.749000,1.630646
3.750000,2.432529
3.751000,2.897112
3.752000,2.842380
3.753000,2.675640
3.754000,2.382889
3.755000,1.519910
3.756000,-0.015123
3.757000,-1.310864
3.758000,-1.856908
3.759000,-1.382142
3.760000,-0.818279
3.761000,-0.935379
3.762000,-4.570581
3.763000,-5.718674
3.764000,-4.240918
3.765000,-2.255304
3.766000,-1.044842
3.767000,-0.753364
3.768000,-0.164044
3.769000,0.016698
3.770000,0.089249
3.771000,-0.050762
3.772000,-0.776275
3.773000,-1.416509
3.774000,-2.047832
3.775000,-1.847998
3.776000,-1.425419
3.777000,-1.501788
3.778000,-1.509425
3.779000,-2.089836
3.780000,-2.378768
3.781000,-3.167923
3.782000,-3.725422
3.783000,-3.501404
3.784000,-2.442410
3.785000,-1.606160
3.786000,-1.108484
3.787000,-0.785185
3.788000,-1.027023
3.789000,-1.309591
3.790000,-1.384688
3.791000,-1.263769
3.792000,-1.261223
3.793000,-1.335048
3.794000,-1.234494
3.795000,-1.149214
3.796000,-1.281589
3.797000,-1.046115
3.798000,-0.935379
3.799000,-0.871737
3.800000,-0.799186
3.801000,-1.090664
3.802000,-1.649437
3.803000,-1.835270
3.804000,-1.906548
3.805000,-1.851817
3.806000,-2.334219
3.807000,-2.838260
3.808000,-3.589230
3.809000,-3.717785
3.810000,-3.783973
3.811000,-3.484857
3.812000,-3.533225
3.813000,-5.056802
3.814000,-4.722048
3.815000,-4.608766
3.816000,-4.118727
3.817000,-3.059732
3.818000,-1.332502
3.819000,0.305630
3.820000,0.739665
3.821000,0.547468
3.822000,0.334905
3.823000,-0.334603
3.824000,-2.948996
3.825000,-2.946450
3.826000,-2.989727
3.827000,-1.639254
3.828000,-0.025306
3.829000,0.640385
3.830000,1.438449
3.831000,2.157598
3.832000,2.214875
3.833000,1.339168
3.834000,0.324723
3.835000,-0.366424
3.836000,-1.029568
3.837000,-2.101291
3.838000,-2.083472
3.839000,-3.287569
3.840000,-2.873899
3.841000,-2.170024
3.842000,-1.483969
3.843000,-0.810642
3.844000,-0.726635
3.845000,-0.592988
3.846000,-0.666812
3.847000,-1.051207
3.848000,-1.445784
3.849000,-1.943460
3.850000,-2.509870
3.851000,-2.464048
3.852000,-2.391497
3.853000,-2.567147
3.854000,-2.864989
3.855000,-3.029184
3.856000,-3.551045
3.857000,-3.614686
3.858000,-3.245565
3.859000,-2.685520
3.860000,-2.466593
3.861000,-2.682975
3.862000,-3.100463
3.863000,-3.115737
3.864000,-2.980817
3.865000,-2.759344
3.866000,-2.083472
3.867000,-1.243404
3.868000,-0.554803
3.869000,0.010334
3.870000,-0.007486
3.871000,-0.076219
3.872000,0.009061
3.873000,-0.847554
3.874000,-1.275225
3.875000,-1.617616
3.876000,-1.631617
3.877000,-1.276497
3.878000,-0.626081
3.879000,-0.557348
3.880000,-0.440248
3.881000,-0.405882
3.882000,-1.049934
3.883000,-1.844180
3.884000,-2.648608
3.885000,-5.059348
3.886000,-6.463280
3.887000,-5.758132
3.888000,-3.437763
3.889000,-1.518335
3.890000,-0.479706
3.891000,0.393456
3.892000,0.935681
3.893000,1.113877
3.894000,0.989140
3.895000,-0.148770
3.896000,-1.497970
3.897000,-1.541246
3.898000,-1.766537
3.899000,-3.246838
3.900000,-3.757243
3.901000,-3.832340
3.902000,-2.658791
3.903000,-1.083027
3.904000,-0.138587
3.905000,0.179620
3.906000,-0.371515
3.907000,-1.352867
3.908000,-1.310864
3.909000,-1.203946
3.910000,-1.562884
3.911000,-1.193763
3.912000,-1.394871
3.913000,-1.001566
3.914000,-2.121657
3.915000,-2.878990
3.916000,-2.154750
3.917000,-1.000293
3.918000,-0.007486
3.919000,0.299266
3.920000,0.043427
3.921000,-0.245505
3.922000,-0.432611
3.923000,-0.852645
3.924000,-1.399962
3.925000,-2.517507
3.926000,-3.050822
3.927000,-3.720331
3.928000,-4.392385
3.929000,-3.993989
3.930000,-3.411033
3.931000,-2.322764
3.932000,-1.623980
3.933000,-1.293044
3.934000,-1.275225
3.935000,-1.229403
3.936000,-1.051207
3.937000,0.081612
3.938000,0.634020
3.939000,0.571652
3.940000,0.259808
3.941000,-0.517891
3.942000,-0.969745
3.943000,-1.541246
3.944000,-3.755970
3.945000,-4.466209
3.946000,-4.424206
3.947000,-4.135274
3.948000,-4.327471
3.949000,-4.015628
3.950000,-3.454310
3.951000,-2.985908
3.952000,-2.292216
3.953000,-1.533609
3.954000,-1.206492
3.955000,-1.681257
3.956000,-2.224756
3.957000,-1.649437
3.958000,-0.366424
3.959000,1.070601
3.960000,2.158871
3.961000,1.588643
3.962000,0.023062
3.963000,-1.081754
3.964000,-2.149659
3.965000,-3.450491
3.966000,-3.792882
3.967000,-3.879435
3.968000,-5.579936
3.969000,-5.969422
3.970000,-3.906164
3.971000,-1.594705
3.972000,0.211441
3.973000,1.328986
3.974000,1.605190
3.975000,1.615372
3.976000,1.574642
3.977000,1.242433
3.978000,0.931863
3.979000,-0.683359
3.980000,-1.828906
3.981000,-2.186571
3.982000,-2.247667
3.983000,-3.096644
3.984000,-3.656690
3.985000,-3.566319
3.986000,-4.649497
3.987000,-5.145901
3.988000,-4.709320
3.989000,-3.725422
3.990000,-3.198471
3.991000,-3.271022
3.992000,-2.047832
3.993000,-0.497525
3.994000,0.982776
3.995000,1.917033
3.996000,1.895395
3.997000,1.773203
3.998000,1.829208
3.999000,1.644647
4.000000,0.641657
4.001000,-0.063490
4.002000,-0.558621
4.003000,-0.971018
4.004000,-1.172125
4.005000,-1.150487
4.006000,-1.063935
4.007000,-1.542519
4.008000,-2.004556
4.009000,-1.962553
4.010000,-1.910367
4.011000,-2.077107
4.012000,-2.089836
4.013000,-2.100018
4.014000,-2.040195
4.015000,-2.152204
4.016000,-2.661336
4.017000,-2.974453
4.018000,-3.092826
4.019000,-3.310480
4.020000,-4.258738
4.021000,-5.648668
4.022000,-5.565934
4.023000,-5.676671
4.024000,-8.432348
4.025000,-8.082319
4.026000,-6.129798
4.027000,-3.677055
4.028000,-1.631617
4.029000,-0.214957
4.030000,0.411275
4.031000,0.421458
4.032000,-1.029568
4.033000,-0.451704
4.034000,0.574197
4.035000,2.086319
4.036000,3.542437
4.037000,4.460147
4.038000,3.906466
4.039000,2.372706
4.040000,0.942045
4.041000,-0.278599
4.042000,-0.698633
4.043000,-1.016840
4.044000,-1.139032
4.045000,-1.127576
4.046000,-1.861999
4.047000,-1.804722
4.048000,-1.719442
4.049000,-1.394871
4.050000,-1.091937
4.051000,-0.918832
4.052000,-0.740636
4.053000,-0.833553
4.054000,-1.265042
4.055000,-1.678712
4.056000,-1.844180
4.057000,-2.392769
4.058000,-2.774618
4.059000,-2.880263
4.060000,-3.066096
4.061000,-2.782255
4.062000,-2.834441
4.063000,-2.992272
4.064000,-3.525588
4.065000,-4.883698
4.066000,-5.719947
4.067000,-5.565934
4.068000,-4.948612
4.069000,-4.057631
4.070000,-3.338482
4.071000,-2.572238
4.072000,-2.209482
4.073000,-1.623980
4.074000,-0.995202
4.075000,-0.442794
4.076000,0.029426
4.077000,0.473644
4.078000,0.938227
4.079000,1.397718
4.080000,1.616645
4.081000,1.056600
4.082000,-1.027023
4.083000,-3.217563
4.084000,-4.559126
4.085000,-6.902406
4.086000,-8.860018
4.087000,-8.848563
4.088000,-6.682206
4.089000,-3.371576
4.090000,-0.384244
4.091000,1.448632
4.092000,2.312883
4.093000,2.604361
4.094000,2.029042
4.095000,1.040053
4.096000,1.498272
4.097000,2.045589
4.098000,2.176690
4.099000,1.869938
4.100000,1.209340
4.101000,0.410002
4.102000,0.011607
4.103000,-0.436430
4.104000,-1.431783
4.105000,-1.794539
4.106000,-1.921822
4.107000,-1.855635
4.108000,-1.593432
4.109000,-1.780538
4.110000,-1.458512
4.111000,-1.490333
4.112000,-1.911640
4.113000,-4.602402
4.114000,-5.716128
4.115000,-4.454754
4.116000,-2.884082
4.117000,-1.881092
4.118000,-1.738535
4.119000,-2.324037
4.120000,-2.523871
4.121000,-2.690612
4.122000,-2.555692
4.123000,-2.080926
4.124000,-1.707987
4.125000,-1.277770
4.126000,-1.632890
4.127000,-1.145396
4.128000,-0.543347
4.129000,-0.101675
4.130000,0.183439
4.131000,0.068884
4.132000,-0.214957
4.133000,-0.352423
4.134000,-0.839917
4.135000,-1.514517
4.136000,-1.701623
4.137000,-1.817450
4.138000,-1.876000
4.139000,-1.774174
4.140000,-1.699077
4.141000,-1.721988
4.142000,-1.777992
4.143000,-1.886183
4.144000,-2.005829
4.145000,-1.977827
4.146000,-2.028740
4.147000,-2.638426
4.148000,-3.377940
4.149000,-3.235383
4.150000,-2.780982
4.151000,-2.479322
4.152000,-3.472129
4.153000,-3.748333
4.154000,-2.871353
4.155000,-1.690167
4.156000,-0.300237
4.157000,0.371817
4.158000,-0.394426
4.159000,-1.094483
4.160000,-1.469968
4.161000,-1.305773
4.162000,-1.070299
4.163000,-0.992656
4.164000,-1.816177
4.165000,-2.722432
4.166000,-4.356746
4.167000,-5.242636
4.168000,-4.282922
4.169000,-3.071188
4.170000,-1.846725
4.171000,-0.884466
4.172000,-0.422429
4.173000,-0.400790
4.174000,-0.939197
4.175000,-1.434328
4.176000,-1.688894
4.177000,-1.735989
4.178000,-1.201400
4.179000,-0.426247
4.180000,-0.505162
4.181000,-0.682086
4.182000,-1.519608
4.183000,-1.641800
4.184000,-1.621434
4.185000,-1.360504
4.186000,-1.023204
4.187000,-1.524699
4.188000,-1.489060
4.189000,-1.189945
4.190000,-0.712634
4.191000,-2.900628
4.192000,-3.199744
4.193000,-2.498414
4.194000,-1.374505
4.195000,-0.088947
4.196000,0.095613
4.197000,-0.614626
4.198000,-1.340139
4.199000,-2.896810
4.200000,-3.248111
4.201000,-2.550600
4.202000,-1.420327
4.203000,-0.508981
4.204000,0.245807
4.205000,0.947137
4.206000,0.922953
4.207000,1.001868
4.208000,0.724391
4.209000,0.392183
4.210000,-0.180591
4.211000,-0.801732
4.212000,-1.520881
4.213000,-2.577330
4.214000,-3.001182
4.215000,-3.139921
4.216000,-3.943076
4.217000,-3.759789
4.218000,-3.524315
4.219000,-3.264658
4.220000,-3.277386
4.221000,-3.077552
4.222000,-2.882809
4.223000,-4.457300
4.224000,-4.523487
4.225000,-4.013082
4.226000,-2.581148
4.227000,-1.413963
4.228000,-0.748273
4.229000,-1.197582
4.230000,-1.588341
4.231000,-1.107211
4.232000,-0.347332
4.233000,0.165619
4.234000,0.132525
4.235000,0.012879
4.236000,-0.340967
4.237000,-0.571350
4.238000,-0.618444
4.239000,-0.458068
4.240000,-0.503890
4.241000,-0.894648
4.242000,-1.411417
4.243000,-1.811086
4.244000,-1.772901
4.245000,-2.110201
4.246000,-3.081370
4.247000,-3.731786
4.248000,-3.850160
4.249000,-3.143739
4.250000,-2.350766
4.251000,-1.009203
4.252000,-0.422429
4.253000,-0.484797
4.254000,-1.685076
4.255000,-1.408872
4.256000,-1.528518
4.257000,-0.969745
4.258000,0.075248
4.259000,0.039609
4.260000,0.219078
4.261000,-0.543347
4.262000,-1.319774
4.263000,-1.692713
4.264000,-2.316400
4.265000,-4.223099
4.266000,-5.049166
4.267000,-4.564217
4.268000,-3.645234
4.269000,-2.539145
4.270000,-1.781811
4.271000,-0.983747
4.272000,-0.813187
4.273000,-1.371960
4.274000,-1.888729
4.275000,-1.682530
4.276000,-1.195036
4.277000,-2.122929
4.278000,-3.605776
4.279000,-2.763163
4.280000,-1.864545
4.281000,-1.621434
4.282000,-2.023649
4.283000,-2.368586
4.284000,-2.187844
4.285000,-1.575612
4.286000,-1.743626
4.287000,-3.930348
4.288000,-4.179823
4.289000,-3.360120
4.290000,-2.316400
4.291000,-0.572622
4.292000,0.901315
4.293000,2.688368
4.294000,3.623898
4.295000,2.802923
4.296000,2.003585
4.297000,1.215704
4.298000,0.738392
4.299000,0.459643
4.300000,-0.148770
4.301000,-0.410973
4.302000,-1.010476
4.303000,-2.162387
4.304000,-2.422044
4.305000,-3.101736
4.306000,-3.713967
4.307000,-3.851432
4.308000,-3.641416
4.309000,-3.232837
4.310000,-2.731342
4.311000,-2.068198
4.312000,-1.443238
4.313000,-1.014294
4.314000,-0.493707
4.315000,-0.365151
4.316000,-0.626081
4.317000,-1.090664
4.318000,-1.374505
4.319000,-1.452148
4.320000,-1.710532
4.321000,-1.965098
4.322000,-2.078380
4.323000,-2.572238
4.324000,-2.808985
4.325000,-2.667701
4.326000,-2.488232
4.327000,-2.200572
4.328000,-2.166206
4.329000,-1.971463
4.330000,-1.579431
4.331000,-1.709260
4.332000,-1.892547
4.333000,-2.791165
4.334000,-2.955360
4.335000,-3.106827
4.336000,-3.674509
4.337000,-3.570137
4.338000,-4.055085
4.339000,-4.195097
4.340000,-6.596927
4.341000,-6.664387
4.342000,-5.162447
4.343000,-3.031730
4.344000,-1.312137
4.345000,-2.087290
4.346000,-5.094987
4.347000,-4.986797
4.348000,-2.815349
4.349000,-0.244232
4.350000,1.831753
4.351000,2.767283
4.352000,3.074035
4.353000,3.242049
4.354000,3.986655
4.355000,4.043932
4.356000,2.664184
4.357000,1.201703
4.358000,1.415538
4.359000,1.335350
4.360000,1.433358
4.361000,1.138061
4.362000,0.888586
4.363000,0.367999
4.364000,-0.458068
4.365000,-1.113575
4.366000,-2.158569
4.367000,-3.271022
4.368000,-3.631233
4.369000,-3.678328
4.370000,-3.960896
4.371000,-3.960896
4.372000,-4.568036
4.373000,-4.201461
4.374000,-3.495040
4.375000,-2.724978
4.376000,-2.028740
4.377000,-1.758900
4.378000,-2.548055
4.379000,-2.410589
4.380000,-1.819996
4.381000,-1.933278
4.382000,-1.832724
4.383000,-1.669802
4.384000,-1.427964
4.385000,-0.999020
4.386000,-0.704997
4.387000,-0.358787
4.388000,-0.363878
4.389000,-0.615899
4.390000,-0.829734
4.391000,-0.884466
4.392000,-0.969745
4.393000,-1.239585
4.394000,-1.369414
4.395000,-1.158124
4.396000,-1.137759
4.397000,-1.326138
4.398000,-1.566703
4.399000,-1.835270
4.400000,-2.189117
4.401000,-2.677883
4.402000,-3.055914
4.403000,-3.795428
4.404000,-5.341916
4.405000,-6.427640
4.406000,-5.960512
4.407000,-4.869696
4.408000,-3.744515
4.409000,-2.793711
4.410000,-2.629516
4.411000,-2.634607
4.412000,-2.634607
4.413000,-2.709704
4.414000,-2.152204
4.415000,-1.520881
4.416000,-2.732615
4.417000,-4.215462
4.418000,-5.144628
4.419000,-3.255748
4.420000,-0.371515
4.421000,1.677741
4.422000,2.488534
4.423000,3.342603
4.424000,3.530981
4.425000,2.685822
4.426000,1.521183
4.427000,0.432913
4.428000,0.226715
4.429000,0.197440
4.430000,-0.689723
4.431000,-1.391052
4.432000,-1.167034
4.433000,-1.019386
4.434000,-0.590442
4.435000,-0.422429
4.436000,-0.228958
4.437000,-0.136042
4.438000,-0.693541
4.439000,-1.445784
4.440000,-1.509425
4.441000,-2.229847
4.442000,-3.150103
4.443000,-4.464937
4.444000,-4.695319
4.445000,-3.651598
4.446000,-2.492050
4.447000,-1.615070
4.448000,-1.464876
4.449000,-1.452148
4.450000,-1.018113
4.451000,-0.640082
4.452000,-0.801732
4.453000,-0.920105
4.454000,-1.916731
4.455000,-2.660064
4.456000,-2.639698
4.457000,-2.516234
4.458000,-2.390224
4.459000,-2.108928
4.460000,-1.788175
4.461000,-1.422873
4.462000,-1.298136
4.463000,-1.203946
4.464000,-1.210310
4.465000,-1.576885
4.466000,-2.423317
4.467000,-2.490777
4.468000,-2.262941
4.469000,-1.742353
4.470000,-1.266315
4.471000,-1.293044
4.472000,-1.867091
4.473000,-1.994374
4.474000,-1.890001
4.475000,-1.769083
4.476000,-1.989282
4.477000,-3.334664
4.478000,-3.432671
4.479000,-3.005001
4.480000,-2.250212
4.481000,-1.473786
4.482000,-0.981201
4.483000,-0.841190
4.484000,-0.620990
4.485000,-0.613353
4.486000,-0.889557
4.487000,-1.149214
4.488000,-1.444511
4.489000,-2.784801
4.490000,-5.424650
4.491000,-8.273244
4.492000,-8.078501
4.493000,-7.448450
4.494000,-7.972856
4.495000,-5.539205
4.496000,-2.484413
4.497000,0.194894
4.498000,1.869938
4.499000,2.676913
4.500000,3.026941
4.501000,3.053670
4.502000,3.266233
4.503000,3.351512
4.504000,3.077854
4.505000,2.283608
4.506000,0.944591
4.507000,-0.435157
4.508000,-0.669358
4.509000,-0.277326
4.510000,-0.141133
4.511000,-0.106767
4.512000,-0.202229
4.513000,-0.964654
4.514000,-1.562884
4.515000,-2.083472
4.516000,-2.252758
4.517000,-2.021103
4.518000,-1.687622
4.519000,-1.506880
4.520000,-1.380869
4.521000,-1.546337
4.522000,-3.395759
4.523000,-3.593048
4.524000,-3.265931
4.525000,-4.214189
4.526000,-4.308378
4.527000,-4.331289
4.528000,-4.398749
4.529000,-3.274841
4.530000,-3.425034
4.531000,-3.005001
4.532000,-1.948552
4.533000,-0.652811
4.534000,0.226715
4.535000,0.730755
4.536000,0.785487
4.537000,0.478735
4.538000,0.143981
4.539000,-0.027851
4.540000,-0.127132
4.541000,-0.001122
4.542000,-0.003667
4.543000,-0.171681
4.544000,-0.599352
4.545000,-1.091937
4.546000,-1.462331
4.547000,-1.635435
4.548000,-1.630344
4.549000,-1.706714
4.550000,-1.951097
4.551000,-2.114020
4.552000,-2.344402
4.553000,-2.704613
4.554000,-2.870081
4.555000,-3.103008
4.556000,-3.203562
4.557000,-3.133556
4.558000,-3.547226
4.559000,-4.379657
4.560000,-4.766597
4.561000,-6.929135
4.562000,-7.547731
4.563000,-7.066601
4.564000,-4.828966
4.565000,-2.260395
4.566000,-0.414792
4.567000,0.621292
4.568000,1.045144
4.569000,1.196611
4.570000,1.213158
4.571000,-0.753364
4.572000,-1.704168
4.573000,-1.061389
4.574000,-0.090220
4.575000,1.032416
4.576000,1.094785
4.577000,0.665841
4.578000,-0.104221
4.579000,-0.941743
4.580000,-1.379597
4.581000,-1.463603
4.582000,-2.087290
4.583000,-2.806439
4.584000,-3.077552
4.585000,-2.862444
4.586000,-2.918448
4.587000,-2.936268
4.588000,-2.985908
4.589000,-2.223483
4.590000,-1.387234
4.591000,-0.302782
4.592000,0.082885
4.593000,-0.967200
4.594000,-1.052479
4.595000,-0.960836
4.596000,-1.165761
4.597000,-1.158124
4.598000,-0.484797
4.599000,0.033245
4.600000,-1.550156
4.601000,-3.263385
4.602000,-3.243020
4.603000,-2.918448
4.604000,-4.130182
4.605000,-5.209542
4.606000,-4.177277
4.607000,-2.779710
4.608000,-1.373233
4.609000,0.085431
4.610000,0.804580
4.611000,1.006960
4.612000,1.069328
4.613000,1.010778
4.614000,0.877131
4.615000,0.813489
4.616000,0.799488
4.617000,0.446914
4.618000,-0.440248
4.619000,-1.219220
4.620000,-2.724978
4.621000,-4.690227
4.622000,-6.036882
4.623000,-6.946955
4.624000,-5.635940
4.625000,-3.917620
4.626000,-2.383860
4.627000,-0.761001
4.628000,0.023062
4.629000,0.297993
4.630000,0.472371
4.631000,0.771486
4.632000,1.094785
4.633000,1.339168
4.634000,0.705299
4.635000,0.202531
4.636000,-0.127132
4.637000,-0.529346
4.638000,-0.766093
4.639000,-1.021931
4.640000,-1.327411
4.641000,-1.550156
4.642000,-1.719442
4.643000,-2.010920
4.644000,-2.232393
4.645000,-2.294761
4.646000,-2.110201
4.647000,-2.264214
4.648000,-2.996091
4.649000,-3.432671
4.650000,-3.985080
4.651000,-4.688955
4.652000,-5.277002
4.653000,-5.461562
4.654000,-7.724654
4.655000,-8.498535
4.656000,-7.300802
4.657000,-4.442026
4.658000,-1.798358
4.659000,0.049791
4.660000,1.325167
4.661000,1.470270
4.662000,1.157153
4.663000,1.652284
4.664000,1.872484
4.665000,1.244979
4.666000,1.036235
4.667000,0.897496
4.668000,0.560196
4.669000,-0.073673
4.670000,-0.633718
4.671000,-1.747445
4.672000,-2.695703
4.673000,-3.323208
4.674000,-4.014355
4.675000,-3.730514
4.676000,-3.273568
4.677000,-2.415680
4.678000,-1.646891
4.679000,-1.159397
4.680000,-0.676995
4.681000,-0.267143
4.682000,0.086703
4.683000,0.494009
4.684000,0.928044
4.685000,0.607291
4.686000,-0.002395
4.687000,-0.651538
4.688000,-0.795368
4.689000,-1.327411
4.690000,-1.720715
4.691000,-1.989282
4.692000,-2.493323
4.693000,-3.128465
4.694000,-6.395820
4.695000,-9.563893
4.696000,-9.525709
4.697000,-6.694935
4.698000,-3.418670
4.699000,-0.845008
4.700000,0.571652
4.701000,0.373090
4.702000,0.031972
4.703000,-0.170408
4.704000,-0.169135
4.705000,-0.576441
4.706000,-0.183136
4.707000,0.962411
4.708000,1.074420
4.709000,1.227159
4.710000,1.362079
4.711000,1.388809
4.712000,0.301812
4.713000,-0.269689
4.714000,-1.769083
4.715000,-2.528962
4.716000,-2.247667
4.717000,-1.835270
4.718000,-1.818723
4.719000,-1.811086
4.720000,-3.418670
4.721000,-4.360564
4.722000,-4.102180
4.723000,-3.195925
4.724000,-1.578158
4.725000,-0.514072
4.726000,0.025608
4.727000,0.044700
4.728000,-0.277326
4.729000,-0.517891
4.730000,-0.581532
4.731000,-0.864101
4.732000,-1.331229
4.733000,-1.909094
4.734000,-2.288397
4.735000,-2.934995
4.736000,-4.051267
4.737000,-4.697864
4.738000,-5.110261
4.739000,-5.065712
4.740000,-4.948612
4.741000,-4.855695
4.742000,-3.950713
4.743000,-2.588785
4.744000,-1.632890
4.745000,-0.603170
4.746000,0.152891
4.747000,0.572925
4.748000,1.514819
4.749000,2.390526
4.750000,2.222512
4.751000,0.002697
4.752000,-1.104665
4.753000,-1.303227
4.754000,-1.814905
4.755000,-1.477605
4.756000,-0.887011
4.757000,-0.884466
4.758000,-1.546337
4.759000,-1.659619
4.760000,-1.420327
4.761000,-1.378324
4.762000,-1.587068
4.763000,-1.797085
4.764000,-1.440693
4.765000,-1.865818
4.766000,-2.373677
4.767000,-1.890001
4.768000,-1.203946
4.769000,-0.563713
4.770000,-0.290054
4.771000,-0.226413
4.772000,-0.400790
4.773000,-0.750819
4.774000,-1.240858
4.775000,-1.641800
4.776000,-1.966371
4.777000,-2.409316
4.778000,-2.868808
4.779000,-4.346563
4.780000,-4.877333
4.781000,-4.499303
4.782000,-3.838704
4.783000,-3.113191
4.784000,-3.366484
4.785000,-3.338482
4.786000,-2.815349
4.787000,-2.298580
4.788000,-1.641800
4.789000,-1.145396
4.790000,-0.682086
4.791000,-0.417337
4.792000,0.062520
4.793000,0.257263
4.794000,0.297993
4.795000,0.014152
4.796000,-0.377879
4.797000,-0.735545
4.798000,-1.051207
4.799000,-1.463603
4.800000,-1.864545
4.801000,-3.094099
4.802000,-3.744515
4.803000,-3.836159
4.804000,-4.066541
4.805000,-5.741585
4.806000,-8.405618
4.807000,-8.079774
4.808000,-5.996151
4.809000,-3.185742
4.810000,-0.730453
4.811000,1.019688
4.812000,2.111776
4.813000,2.645092
4.814000,2.692186
4.815000,2.601816
4.816000,2.356159
4.817000,1.521183
4.818000,1.069328
4.819000,0.140162
4.820000,-0.372788
4.821000,-0.712634
4.822000,-1.287953
4.823000,-2.172570
4.824000,-5.999970
4.825000,-7.750111
4.826000,-7.093330
4.827000,-4.904063
4.828000,-2.610423
4.829000,-0.692268
4.830000,-0.217503
4.831000,0.332360
4.832000,0.678569
4.833000,1.326440
4.834000,1.596280
4.835000,1.586097
4.836000,2.002313
4.837000,2.054499
4.838000,1.592461
4.839000,0.506737
4.840000,-0.985019
4.841000,-1.755082
4.842000,-1.818723
4.843000,-1.499243
4.844000,-0.881920
4.845000,-0.618444
4.846000,-0.985019
4.847000,-3.089007
4.848000,-5.299913
4.849000,-4.690227
4.850000,-3.355029
4.851000,-1.932005
4.852000,-1.523426
4.853000,-1.960007
4.854000,-2.069471
4.855000,-1.805995
4.856000,-1.312137
4.857000,-1.289226
4.858000,-1.974008
4.859000,-2.355857
4.860000,-2.247667
4.861000,-2.079653
4.862000,-1.693986
4.863000,-1.319774
4.864000,-1.392325
4.865000,-1.637981
4.866000,-1.940915
4.867000,-2.422044
4.868000,-2.352039
4.869000,-2.372404
4.870000,-2.242575
4.871000,-1.979100
4.872000,-2.013466
4.873000,-2.164933
4.874000,-2.325309
4.875000,-2.166206
4.876000,-1.957461
4.877000,-2.097473
4.878000,-4.849331
4.879000,-6.045791
4.880000,-4.995707
4.881000,-3.416125
4.882000,-1.893820
4.883000,-0.918832
4.884000,-0.782639
4.885000,-1.746172
4.886000,-2.718614
4.887000,-3.113191
4.888000,-3.104281
4.889000,-2.448774
4.890000,-1.249768
4.891000,0.067611
4.892000,1.121514
4.893000,1.068055
4.894000,0.751121
4.895000,0.607291
4.896000,0.254717
4.897000,-0.085129
4.898000,0.073975
4.899000,-1.797085
4.900000,-2.167478
4.901000,-1.946006
4.902000,-1.413963
4.903000,-0.837371
4.904000,-1.585795
4.905000,-2.450047
4.906000,-2.304944
4.907000,-1.902730
4.908000,-1.271406
4.909000,-0.558621
4.910000,0.136344
4.911000,0.490191
4.912000,0.178347
4.913000,-0.171681
4.914000,-0.936652
4.915000,-1.579431
4.916000,-1.909094
4.917000,-2.313854
4.918000,-2.242575
4.919000,-2.007102
4.920000,-1.827633
4.921000,-1.439420
4.922000,-1.505607
4.923000,-1.851817
4.924000,-2.126748
4.925000,-2.335492
4.926000,-2.640971
4.927000,-2.635880
4.928000,-2.812803
4.929000,-4.359292
4.930000,-4.645678
4.931000,-4.033447
4.932000,-3.199744
4.933000,-2.531508
4.934000,-1.660892
4.935000,-0.454249
4.936000,0.407457
4.937000,-0.090220
4.938000,-1.975281
4.939000,-2.218392
4.940000,-1.201400
4.941000,0.230533
4.942000,0.404911
4.943000,-3.087735
4.944000,-4.430570
4.945000,-3.459401
4.946000,-1.422873
4.947000,0.522011
4.948000,1.476634
4.949000,1.825389
4.950000,1.666285
4.951000,1.348078
4.952000,0.821126
4.953000,-0.024033
4.954000,-0.676995
4.955000,-0.972291
4.956000,-1.035933
4.957000,-1.055025
4.958000,-1.388506
4.959000,-1.499243
4.960000,-2.089836
4.961000,-2.522598
4.962000,-2.632061
4.963000,-2.868808
4.964000,-3.281205
4.965000,-3.361393
4.966000,-3.320662
4.967000,-3.173014
4.968000,-3.127192
4.969000,-3.282477
4.970000,-3.148830
4.971000,-2.875172
4.972000,-2.512415
4.973000,-3.841250
4.974000,-4.793327
4.975000,-5.364827
4.976000,-5.424650
4.977000,-3.333391
4.978000,-1.415236
4.979000,-0.124586
4.980000,0.543649
4.981000,0.396001
4.982000,0.353998
4.983000,-0.012577
4.984000,-0.458068
4.985000,-1.625253
4.986000,-2.206936
4.987000,-2.296034
4.988000,-1.990555
4.989000,-2.265486
4.990000,-2.700794
4.991000,-4.051267
4.992000,-3.973624
4.993000,-4.190005
4.994000,-3.768699
4.995000,-3.225200
4.996000,-2.278215
4.997000,-1.006657
4.998000,0.357816
4.999000,0.893678
5.000000,1.360806
5.001000,1.584824
5.002000,1.855937
5.003000,2.001040
5.004000,0.924226
5.005000,-0.352423
5.006000,-0.002395
5.007000,0.143981
5.008000,0.155436
5.009000,0.142708
5.010000,0.099432
5.011000,-0.769911
5.012000,-1.469968
5.013000,-1.373233
5.014000,-1.312137
5.015000,-2.819167
5.016000,-2.788619
5.017000,-2.789892
5.018000,-2.153477
5.019000,-1.556520
5.020000,-1.590886
5.021000,-1.233221
5.022000,-1.678712
5.023000,-2.222210
5.024000,-3.940531
5.025000,-6.498919
5.026000,-5.945238
5.027000,-3.944349
5.028000,-2.024921
5.029000,-0.778821
5.030000,-0.189501
5.031000,0.212714
5.032000,-0.057126
5.033000,-0.379152
5.034000,-0.538256
5.035000,-0.833553
5.036000,-0.945562
5.037000,-0.413519
5.038000,-0.410973
5.039000,-0.489889
5.040000,-0.749546
5.041000,-0.747000
5.042000,-0.880647
5.043000,-1.337593
5.044000,-1.657074
5.045000,-1.869636
5.046000,-2.144567
5.047000,-2.324037
5.048000,-2.388951
5.049000,-2.744070
5.050000,-3.853978
5.051000,-4.136546
5.052000,-4.296923
5.053000,-4.968977
5.054000,-5.251545
5.055000,-5.753040
5.056000,-6.038154
5.057000,-5.079713
5.058000,-3.384304
5.059000,-1.701623
5.060000,-0.573895
5.061000,-0.102948
5.062000,0.037063
5.063000,-1.113575
5.064000,-1.989282
5.065000,-1.721988
5.066000,-1.084300
5.067000,-0.720271
5.068000,-0.102948
5.069000,0.109614
5.070000,0.183439
5.071000,-0.004940
5.072000,-0.493707
5.073000,-1.655801
5.074000,-2.172570
5.075000,-1.556520
5.076000,-0.547166
5.077000,0.171983
5.078000,0.775305
5.079000,0.870767
5.080000,0.875858
5.081000,-1.569248
5.082000,-2.243848
5.083000,-1.687622
5.084000,-1.086846
5.085000,-0.580259
5.086000,-3.220109
5.087000,-4.962613
5.088000,-4.467482
5.089000,-3.148830
5.090000,-1.402508
5.091000,-0.031670
5.092000,-0.487343
5.093000,-0.848827
5.094000,-0.701178
5.095000,0.194894
5.096000,0.688752
5.097000,1.155881
5.098000,1.425721
5.099000,0.700208
5.100000,0.012879
5.101000,-0.109312
5.102000,-0.576441
5.103000,-1.089391
5.104000,-1.845452
5.105000,-2.268032
5.106000,-2.705886
5.107000,-2.658791
5.108000,-2.637153
5.109000,-2.759344
5.110000,-4.229463
5.111000,-5.128081
5.112000,-5.224816
5.113000,-5.353372
5.114000,-4.545125
5.115000,-3.481039
5.116000,-2.308763
5.117000,-1.338866
5.118000,-0.576441
5.119000,-0.349877
5.120000,-0.614626
5.121000,-1.168307
5.122000,-1.788175
5.123000,-3.405942
5.124000,-3.757243
5.125000,-3.316844
5.126000,-2.640971
5.127000,-1.907821
5.128000,-1.578158
5.129000,-1.131395
5.130000,-0.780094
5.131000,-0.623536
5.132000,-0.680813
5.133000,-0.824643
5.134000,-0.339695
5.135000,0.382000
5.136000,0.491463
5.137000,-0.151316
5.138000,-0.408427
5.139000,-0.469523
5.140000,-0.358787
5.141000,-0.613353
5.142000,-1.140305
5.143000,-1.477605
5.144000,-1.729625
5.145000,-2.107655
5.146000,-2.900628
5.147000,-3.202289
5.148000,-3.053368
5.149000,-2.920994
5.150000,-3.442854
5.151000,-3.749606
5.152000,-3.341028
5.153000,-4.524760
5.154000,-4.070359
5.155000,-2.213300
5.156000,-0.497525
5.157000,0.243262
5.158000,0.310722
5.159000,0.328541
5.160000,0.375636
5.161000,0.188530
5.162000,-0.853918
5.163000,-3.108100
5.164000,-3.383031
5.165000,-2.815349
5.166000,-2.423317
5.167000,-1.538700
5.168000,-2.821713
5.169000,-2.731342
5.170000,-1.870909
5.171000,-0.827188
5.172000,0.282719
5.173000,0.611109
5.174000,0.518193
5.175000,0.093068
5.176000,-0.881920
5.177000,-1.379597
5.178000,-1.933278
5.179000,-2.578603
5.180000,-3.220109
5.181000,-4.312197
5.182000,-4.025810
5.183000,-2.895537
5.184000,-1.970190
5.185000,-1.520881
5.186000,-1.315955
5.187000,-1.030841
5.188000,-0.374061
5.189000,0.339997
5.190000,0.337451
5.191000,0.129980
5.192000,-0.148770
5.193000,-0.468250
5.194000,-0.558621
5.195000,-0.584078
5.196000,-2.108928
5.197000,-2.555692
5.198000,-2.558237
5.199000,-2.651154
5.200000,-2.588785
5.201000,-2.457684
5.202000,-2.409316
5.203000,-1.804722
5.204000,-1.487787
5.205000,-1.349049
5.206000,-1.635435
5.207000,-2.140749
5.208000,-2.458956
5.209000,-2.396588
5.210000,-2.341856
5.211000,-2.511143
5.212000,-3.134829
5.213000,-3.016456
5.214000,-2.905720
5.215000,-2.704613
5.216000,-1.995646
5.217000,-1.342685
5.218000,-0.668085
5.219000,-0.291327
5.220000,0.099432
5.221000,0.033245
5.222000,0.094340
5.223000,0.215259
5.224000,-0.699905
5.225000,-0.890830
5.226000,-2.492050
5.227000,-3.019002
5.228000,-2.316400
5.229000,-1.420327
5.230000,-0.810642
5.231000,-0.578987
5.232000,-0.404609
5.233000,-0.536983
5.234000,-0.680813
5.235000,-0.771184
5.236000,-1.100847
5.237000,-1.920549
5.238000,-2.820440
5.239000,-4.335108
5.240000,-3.929075
5.241000,-2.988454
5.242000,-2.140749
5.243000,-1.308318
5.244000,-0.715179
5.245000,-0.572622
5.246000,-0.400790
5.247000,-2.623152
5.248000,-4.149275
5.249000,-3.995262
5.250000,-3.879435
5.251000,-3.321935
5.252000,-2.280760
5.253000,-1.788175
5.254000,-1.061389
5.255000,-0.767365
5.256000,-0.687177
5.257000,-0.487343
5.258000,-0.628627
5.259000,-0.931561
5.260000,-0.820824
5.261000,-1.211583
5.262000,-0.923924
5.263000,-1.336320
5.264000,-2.310035
5.265000,-2.530235
5.266000,-3.026639
5.267000,-2.960452
5.268000,-2.714795
5.269000,-2.537872
5.270000,-2.316400
5.271000,-1.967644
5.272000,-1.317228
5.273000,-0.642628
5.274000,-0.073673
5.275000,-0.045671
5.276000,-0.564985
5.277000,-0.675722
5.278000,0.121070
5.279000,0.812217
5.280000,0.956046
5.281000,-1.419054
5.282000,-2.171297
5.283000,-2.204390
5.284000,-1.940915
5.285000,-2.339310
5.286000,-3.019002
5.287000,-2.974453
5.288000,-3.693602
5.289000,-4.234554
5.290000,-6.688571
5.291000,-5.936328
5.292000,-3.917620
5.293000,-1.553974
5.294000,0.421458
5.295000,1.406628
5.296000,2.253060
5.297000,2.427438
5.298000,2.054499
5.299000,1.257707
5.300000,0.660750
5.301000,0.389637
5.302000,0.247080
5.303000,0.065065
5.304000,-0.034215
5.305000,-0.633718
5.306000,-1.254859
5.307000,-1.663438
5.308000,-2.100018
5.309000,-2.404225
5.310000,-2.848442
5.311000,-3.363939
5.312000,-4.326198
5.313000,-5.927418
5.314000,-5.880323
5.315000,-4.620222
5.316000,-3.181924
5.317000,-2.009648
5.318000,-1.394871
5.319000,-1.000293
5.320000,-0.626081
5.321000,-0.594261
5.322000,-0.959563
5.323000,-1.237040
5.324000,-1.671075
5.325000,-2.269305
5.326000,-2.653699
5.327000,-3.867979
5.328000,-5.521385
5.329000,-4.979160
5.330000,-3.405942
5.331000,-1.603615
5.332000,-0.090220
5.333000,0.939500
5.334000,1.210612
5.335000,1.135515
5.336000,0.584380
5.337000,0.255990
5.338000,0.117251
5.339000,-0.538256
5.340000,-1.125031
5.341000,-1.842907
5.342000,-2.307490
5.343000,-2.750435
5.344000,-3.190834
5.345000,-3.730514
5.346000,-3.981261
5.347000,-4.368201
5.348000,-4.921883
5.349000,-4.258738
5.350000,-3.860342
5.351000,-2.642244
5.352000,-1.335048
5.353000,-0.440248
5.354000,0.187257
5.355000,-0.054581
5.356000,-0.696087
5.357000,-0.155134
5.358000,0.626383
5.359000,1.407901
5.360000,1.853392
5.361000,1.209340
5.362000,0.203804
5.363000,-0.465705
5.364000,-2.746616
5.365000,-2.892992
5.366000,-2.205663
5.367000,-1.210310
5.368000,-0.246778
5.369000,-0.203502
5.370000,-0.069855
5.371000,-0.734272
5.372000,-1.100847
5.373000,-1.742353
5.374000,-2.630789
5.375000,-3.197198
5.376000,-3.516678
5.377000,-5.301186
5.378000,-4.626586
5.379000,-3.001182
5.380000,-1.589614
5.381000,-0.277326
5.382000,0.229260
5.383000,-0.029124
5.384000,-0.654084
5.385000,-0.799186
5.386000,-0.601898
5.387000,-0.521709
5.388000,-0.712634
5.389000,-1.287953
5.390000,-1.789448
5.391000,-2.596422
5.392000,-2.618060
5.393000,-3.300297
5.394000,-3.267204
5.395000,-3.067369
5.396000,-2.928631
5.397000,-2.793711
5.398000,-3.397032
5.399000,-2.336765
5.400000,-1.220493
5.401000,-0.791549
5.402000,-0.562440
5.403000,-0.296418
5.404000,-0.757183
5.405000,-1.114848
5.406000,-1.370687
5.407000,-1.005385
5.408000,-0.673176
5.409000,-0.752091
5.410000,-1.290499
5.411000,-1.616343
5.412000,-1.641800
5.413000,-1.753809
5.414000,-1.865818
5.415000,-2.591331
5.416000,-3.750879
5.417000,-3.974897
5.418000,-4.132728
5.419000,-4.016900
5.420000,-4.145456
5.421000,-3.688510
5.422000,-2.652427
5.423000,-1.776720
5.424000,-0.953199
5.425000,-0.258233
5.426000,-0.032943
5.427000,0.118524
5.428000,0.552559
5.429000,0.771486
5.430000,0.878404
5.431000,0.560196
5.432000,-0.375334
5.433000,-1.356686
5.434000,-1.952370
5.435000,-1.878546
5.436000,-1.527245
5.437000,-1.070299
5.438000,-0.534438
5.439000,-0.645174
5.440000,-1.075390
5.441000,-1.469968
5.442000,-2.047832
5.443000,-2.307490
5.444000,-3.355029
5.445000,-5.189177
5.446000,-7.340259
5.447000,-6.244353
5.448000,-3.992717
5.449000,-2.008375
5.450000,-0.408427
5.451000,-1.140305
5.452000,-1.118667
5.453000,-0.314238
5.454000,-0.007486
5.455000,0.516920
5.456000,0.705299
5.457000,0.352725
5.458000,0.112160
5.459000,-0.015123
5.460000,-0.558621
5.461000,-1.027023
5.462000,-1.928186
5.463000,-1.901457
5.464000,-1.354140
5.465000,-0.814460
5.466000,-0.166590
5.467000,-0.664266
5.468000,-2.251485
5.469000,-3.965987
5.470000,-4.630404
5.471000,-5.464108
5.472000,-6.086522
5.473000,-5.114080
5.474000,-3.120828
5.475000,-1.597251
5.476000,-0.302782
5.477000,0.683661
5.478000,1.377353
5.479000,1.591189
5.480000,1.465178
5.481000,1.439722
5.482000,1.171155
5.483000,0.929317
5.484000,0.281446
5.485000,-0.544620
5.486000,-1.643072
5.487000,-2.718614
5.488000,-3.114464
5.489000,-3.101736
5.490000,-3.047004
5.491000,-2.500960
5.492000,-2.156023
5.493000,-2.979544
5.494000,-3.073733
5.495000,-3.114464
5.496000,-2.970634
5.497000,-2.843351
5.498000,-2.574784
5.499000,-1.617616
5.500000,-1.692713
5.501000,-3.306661
5.502000,-2.635880
5.503000,-1.571794
5.504000,-0.349877
5.505000,0.556378
5.506000,0.603472
5.507000,0.460915
5.508000,0.516920
5.509000,0.178347
5.510000,-0.286236
5.511000,-0.927742
5.512000,-1.350322
5.513000,-1.961280
5.514000,-3.890890
5.515000,-4.373293
5.516000,-4.027083
5.517000,-4.967704
5.518000,-4.660952
5.519000,-3.404669
5.520000,-2.066925
5.521000,-1.056298
5.522000,-0.612080
5.523000,-0.436430
5.524000,-0.148770
5.525000,-0.267143
5.526000,-0.517891
5.527000,-0.641355
5.528000,-0.287509
5.529000,0.207622
5.530000,0.318359
5.531000,0.003970
5.532000,-1.976554
5.533000,-4.330017
5.534000,-4.419115
5.535000,-3.251930
5.536000,-2.064379
5.537000,-2.232393
5.538000,-2.472958
5.539000,-2.275669
5.540000,-2.061834
5.541000,-2.074562
5.542000,-1.901457
5.543000,-2.018557
5.544000,-1.819996
5.545000,-1.495424
5.546000,-1.496697
5.547000,-1.785629
5.548000,-1.919277
5.549000,-1.775447
5.550000,-1.774174
5.551000,-2.094927
5.552000,-2.579875
5.553000,-3.528134
5.554000,-3.873071
5.555000,-4.271466
5.556000,-3.398305
5.557000,-2.210755
5.558000,-1.156851
5.559000,-1.781811
5.560000,-1.240858
5.561000,-0.354969
5.562000,0.529648
5.563000,0.781669
5.564000,0.902588
5.565000,0.385819
5.566000,-0.371515
5.567000,-0.752091
5.568000,-1.164488
5.569000,-1.281589
5.570000,-1.797085
5.571000,-3.481039
5.572000,-2.680429
5.573000,-1.464876
5.574000,-0.007486
5.575000,0.618746
5.576000,-0.694814
5.577000,-2.485686
5.578000,-2.961724
5.579000,-2.329128
5.580000,-1.861999
5.581000,-1.436874
5.582000,-0.544620
5.583000,0.434186
5.584000,0.878404
5.585000,1.216977
5.586000,0.898769
5.587000,0.003970
5.588000,-1.808540
5.589000,-4.196369
5.590000,-5.060621
5.591000,-3.901073
5.592000,-2.887900
5.593000,-2.189117
5.594000,-1.593432
5.595000,-1.235767
5.596000,-0.990111
5.597000,-0.662993
5.598000,-0.340967
5.599000,-0.808096
5.600000,-1.504334
5.601000,-2.310035
5.602000,-2.080926
5.603000,-1.663438
5.604000,-1.509425
5.605000,-0.890830
5.606000,-0.435157
5.607000,-0.164044
5.608000,-0.494980
5.609000,-0.818279
5.610000,-1.660892
5.611000,-1.653255
5.612000,-1.608706
5.613000,-1.587068
5.614000,-1.686349
5.615000,-1.972735
5.616000,-2.970634
5.617000,-4.251101
5.618000,-4.504394
5.619000,-3.967260
5.620000,-3.805611
5.621000,-3.394487
5.622000,-3.318117
5.623000,-2.828077
5.624000,-2.121657
5.625000,-1.357959
5.626000,-0.615899
5.627000,-0.124586
5.628000,0.271264
5.629000,0.429095
5.630000,0.547468
5.631000,0.198713
5.632000,0.044700
5.633000,-0.198410
5.634000,-0.591715
5.635000,-0.930288
5.636000,-0.993929
5.637000,-1.265042
5.638000,-1.713078
5.639000,-1.779265
5.640000,-2.111474
5.641000,-3.389395
5.642000,-4.436934
5.643000,-5.809045
5.644000,-6.341088
5.645000,-7.284255
5.646000,-7.543912
5.647000,-5.210815
5.648000,-2.292216
5.649000,0.384546
5.650000,2.116867
5.651000,2.790194
5.652000,2.794013
5.653000,2.085047
5.654000,0.664568
5.655000,-0.186955
5.656000,-0.502617
5.657000,-1.014294
5.658000,-1.011749
5.659000,-1.144123
5.660000,-1.524699
5.661000,-2.441137
5.662000,-4.291832
5.663000,-4.757687
5.664000,-4.159457
5.665000,-3.066096
5.666000,-2.092381
5.667000,-1.335048
5.668000,-1.287953
5.669000,-1.828906
5.670000,-2.469139
5.671000,-2.598968
5.672000,-2.584967
5.673000,-2.988454
5.674000,-5.102624
5.675000,-4.247283
5.676000,-2.345675
5.677000,-0.752091
5.678000,0.366726
5.679000,1.481725
5.680000,2.127050
5.681000,1.787204
5.682000,1.356988
5.683000,0.710390
5.684000,0.002697
5.685000,-0.164044
5.686000,0.090522
5.687000,-0.295146
5.688000,-0.622263
5.689000,-1.976554
5.690000,-2.684247
5.691000,-2.588785
5.692000,-2.200572
5.693000,-1.481423
5.694000,-1.139032
5.695000,-0.768638
5.696000,-0.437702
5.697000,-0.241687
5.698000,-0.253142
5.699000,-0.614626
5.700000,-0.958290
5.701000,-1.291771
5.702000,-1.710532
5.703000,-2.293489
5.704000,-2.787347
5.705000,-3.071188
5.706000,-3.062278
5.707000,-3.114464
5.708000,-2.875172
5.709000,-2.978271
5.710000,-3.708876
5.711000,-3.543408
5.712000,-3.207381
5.713000,-2.702067
5.714000,-2.238757
5.715000,-2.100018
5.716000,-2.213300
5.717000,-1.996919
5.718000,-3.026639
5.719000,-5.751768
5.720000,-8.904568
5.721000,-7.738655
5.722000,-4.904063
5.723000,-1.408872
5.724000,0.790578
5.725000,1.848300
5.726000,2.534356
5.727000,2.320520
5.728000,2.115594
5.729000,1.988311
5.730000,1.830481
5.731000,0.865675
5.732000,-0.438975
5.733000,-1.341412
5.734000,-1.812359
5.735000,-1.845452
5.736000,-1.677439
5.737000,-1.692713
5.738000,-2.616787
5.739000,-2.863716
5.740000,-2.815349
5.741000,-3.064824
5.742000,-6.372909
5.743000,-7.139152
5.744000,-5.937601
5.745000,-4.365656
5.746000,-2.718614
5.747000,-0.959563
5.748000,1.092239
5.749000,2.211057
5.750000,2.696005
5.751000,2.844926
5.752000,2.512717
5.753000,1.779567
5.754000,1.286982
5.755000,0.608564
5.756000,0.210168
5.757000,0.254717
5.758000,-0.255688
5.759000,-0.582805
5.760000,-0.870465
5.761000,-1.373233
5.762000,-1.795812
5.763000,-2.499687
5.764000,-2.800075
5.765000,-2.965543
5.766000,-2.932449
5.767000,-2.996091
5.768000,-3.234110
5.769000,-3.072461
5.770000,-3.654144
5.771000,-4.407659
5.772000,-4.316015
5.773000,-3.566319
5.774000,-2.786074
5.775000,-3.431399
5.776000,-4.925701
5.777000,-4.477665
5.778000,-2.793711
5.779000,-1.049934
5.780000,0.641657
5.781000,1.638283
5.782000,1.606462
5.783000,1.303529
5.784000,0.883495
5.785000,0.252171
5.786000,-0.531892
5.787000,-3.161559
5.788000,-3.939258
5.789000,-3.721604
5.790000,-2.464048
5.791000,-0.995202
5.792000,-0.466978
5.793000,-0.320602
5.794000,-0.311692
5.795000,-0.414792
5.796000,-0.745727
5.797000,-1.025750
5.798000,-1.186127
5.799000,-1.741080
5.800000,-2.462775
5.801000,-1.979100
5.802000,-1.937096
5.803000,-2.674065
5.804000,-2.377495
5.805000,-1.436874
5.806000,-1.198855
5.807000,-1.527245
5.808000,-2.191662
5.809000,-2.541690
5.810000,-3.090280
5.811000,-2.946450
5.812000,-2.264214
5.813000,-1.678712
5.814000,-1.338866
5.815000,-1.186127
5.816000,-1.697804
5.817000,-2.624424
5.818000,-2.807712
5.819000,-2.357130
5.820000,-1.989282
5.821000,-2.139476
5.822000,-2.481867
5.823000,-2.195481
5.824000,-1.813632
5.825000,-1.542519
5.826000,-1.699077
5.827000,-3.785245
5.828000,-4.186187
5.829000,-3.324481
5.830000,-2.499687
5.831000,-1.525972
5.832000,-0.664266
5.833000,-0.333330
5.834000,-1.332502
5.835000,-1.373233
5.836000,-0.832280
5.837000,-0.883193
5.838000,-1.659619
5.839000,-2.942632
5.840000,-2.644790
5.841000,-1.678712
5.842000,-0.390608
5.843000,0.338724
5.844000,0.541104
5.845000,0.482554
5.846000,0.523284
5.847000,0.480008
5.848000,0.250899
5.849000,0.743484
5.850000,0.981503
5.851000,0.560196
5.852000,0.161800
5.853000,0.308176
5.854000,0.103250
5.855000,-0.506435
5.856000,-3.328299
5.857000,-4.057631
5.858000,-3.794155
5.859000,-2.661336
5.860000,-1.611252
5.861000,-1.352867
5.862000,-1.300681
5.863000,-1.765264
5.864000,-1.986737
5.865000,-2.344402
5.866000,-2.602786
5.867000,-3.302843
5.868000,-3.024093
5.869000,-1.752536
5.870000,-0.818279
5.871000,-0.465705
5.872000,-0.572622
5.873000,-0.944289
5.874000,-1.183581
5.875000,-1.385961
5.876000,-1.527245
5.877000,-1.840361
5.878000,-2.172570
5.879000,-2.269305
5.880000,-2.705886
5.881000,-4.435661
5.882000,-4.491666
5.883000,-5.249000
5.884000,-5.562116
5.885000,-5.457744
5.886000,-4.192551
5.887000,-2.811530
5.888000,-1.645618
5.889000,-0.878102
5.890000,-0.192046
5.891000,-0.277326
5.892000,-0.823370
5.893000,-0.973564
5.894000,-1.412690
5.895000,-3.052095
5.896000,-3.852705
5.897000,-4.732231
5.898000,-5.644850
5.899000,-5.128081
5.900000,-3.585411
5.901000,-1.805995
5.902000,-0.155134
5.903000,1.032416
5.904000,1.966673
5.905000,2.143597
5.906000,0.359089
5.907000,0.567833
5.908000,1.429539
5.909000,2.079955
5.910000,2.139778
5.911000,0.645476
5.912000,0.124888
5.913000,-0.674449
5.914000,-1.067753
5.915000,-0.972291
5.916000,-1.035933
5.917000,-1.128849
5.918000,-1.229403
5.919000,-1.467422
5.920000,-1.709260
5.921000,-2.191662
5.922000,-2.392769
5.923000,-2.228574
5.924000,-2.150932
5.925000,-1.943460
5.926000,-3.342301
5.927000,-2.688066
5.928000,-1.962553
5.929000,-1.035933
5.930000,-0.491161
5.931000,-0.223867
5.932000,0.063793
5.933000,-0.016396
5.934000,-0.123313
5.935000,-0.567531
5.936000,-1.928186
5.937000,-3.851432
5.938000,-6.374182
5.939000,-7.380990
5.940000,-7.695379
5.941000,-6.165437
5.942000,-3.997808
5.943000,-1.844180
5.944000,-0.155134
5.945000,0.860584
5.946000,1.393900
5.947000,1.418084
5.948000,0.793124
5.949000,0.687479
5.950000,0.942045
5.951000,0.580562
5.952000,0.515647
5.953000,0.207622
5.954000,-0.395699
5.955000,-0.829734
5.956000,-1.230676
5.957000,-2.299853
5.958000,-3.495040
5.959000,-3.528134
5.960000,-3.459401
5.961000,-2.828077
5.962000,-2.329128
5.963000,-2.047832
5.964000,-2.199299
5.965000,-2.586239
5.966000,-2.626970
5.967000,-2.550600
5.968000,-3.921438
5.969000,-4.677499
5.970000,-4.571854
5.971000,-4.326198
5.972000,-3.678328
5.973000,-2.777164
5.974000,-1.963826
5.975000,-1.187399
5.976000,-0.488616
5.977000,0.191076
5.978000,0.325996
5.979000,0.508010
5.980000,-1.005385
5.981000,-1.019386
5.982000,-0.913741
5.983000,-0.818279
5.984000,-0.147497
5.985000,0.047246
5.986000,-0.208593
5.987000,-0.986292
5.988000,-1.486514
5.989000,-2.999909
5.990000,-3.398305
5.991000,-2.926085
5.992000,-2.691884
5.993000,-2.680429
5.994000,-4.575673
5.995000,-3.852705
5.996000,-1.919277
5.997000,-0.511527
5.998000,0.742211
5.999000,1.372262
6.000000,1.992130
6.001000,1.573369
6.002000,0.865675
6.003000,0.855493
6.004000,1.083329
6.005000,0.641657
6.006000,-0.152589
6.007000,-0.664266
6.008000,-1.237040
6.009000,-2.194208
6.010000,-2.646063
6.011000,-2.761890
6.012000,-2.817895
6.013000,-4.238373
6.014000,-5.987241
6.015000,-8.877838
6.016000,-9.677175
6.017000,-8.291063
6.018000,-5.736494
6.019000,-2.998636
6.020000,-1.280316
6.021000,-0.627354
6.022000,-0.722816
6.023000,-0.391881
6.024000,0.359089
6.025000,1.475361
6.026000,2.310337
6.027000,2.772375
6.028000,2.981119
6.029000,2.110503
6.030000,1.250070
6.031000,0.100705
6.032000,-0.469523
6.033000,-0.828461
6.034000,-1.086846
6.035000,-1.010476
6.036000,-0.926469
6.037000,-0.902285
6.038000,-1.565430
6.039000,-2.346947
6.040000,-2.367313
6.041000,-2.156023
6.042000,-1.968917
6.043000,-1.742353
6.044000,-1.517062
6.045000,-1.243404
6.046000,-1.214129
6.047000,-1.249768
6.048000,-1.660892
6.049000,-2.758072
6.050000,-3.772517
6.051000,-4.967704
6.052000,-5.218452
6.053000,-5.114080
6.054000,-5.629576
6.055000,-6.658023
6.056000,-5.899416
6.057000,-4.263829
6.058000,-2.260395
6.059000,-0.641355
6.060000,0.446914
6.061000,1.209340
6.062000,0.042154
6.063000,0.263627
6.064000,0.550014
6.065000,0.789306
6.066000,0.978957
6.067000,0.595835
6.068000,-0.049489
6.069000,-0.208593
6.070000,-0.727908
6.071000,-3.356302
6.072000,-4.629132
6.073000,-4.150548
6.074000,-2.506051
6.075000,-1.141577
6.076000,-0.361333
6.077000,0.385819
6.078000,0.592017
6.079000,0.611109
6.080000,0.497828
6.081000,0.282719
6.082000,-0.081310
6.083000,-0.540802
6.084000,-1.884910
6.085000,-3.255748
6.086000,-3.422489
6.087000,-2.788619
6.088000,-2.374950
6.089000,-2.465321
6.090000,-3.535771
6.091000,-3.647780
6.092000,-3.669418
6.093000,-3.468311
6.094000,-3.202289
6.095000,-2.704613
6.096000,-2.391497
6.097000,-1.968917
6.098000,-1.419054
6.099000,-1.056298
6.100000,-0.684631
6.101000,-0.008759
6.102000,-0.287509
6.103000,-0.753364
6.104000,-0.590442
6.105000,-0.510254
6.106000,-0.692268
6.107000,-0.521709
6.108000,-0.167863
6.109000,-0.563713
6.110000,-1.164488
6.111000,-1.310864
6.112000,-1.206492
6.113000,-1.419054
6.114000,-2.993545
6.115000,-3.523042
6.116000,-3.045731
6.117000,-2.128021
6.118000,-1.565430
6.119000,-1.713078
6.120000,-2.367313
6.121000,-2.359676
6.122000,-2.046560
6.123000,-2.252758
6.124000,-3.090280
6.125000,-4.585855
6.126000,-4.803509
6.127000,-4.263829
6.128000,-3.531952
6.129000,-2.604059
6.130000,-1.541246
6.131000,-0.823370
6.132000,-0.445339
6.133000,-2.068198
6.134000,-2.396588
6.135000,-2.073289
6.136000,-0.852645
6.137000,0.457097
6.138000,1.481725
6.139000,2.202147
6.140000,1.849573
6.141000,1.239887
6.142000,0.555105
6.143000,-0.773730
6.144000,-1.802176
6.145000,-2.894264
6.146000,-3.075006
6.147000,-2.232393
6.148000,-3.506496
6.149000,-4.760233
6.150000,-4.220553
6.151000,-2.723705
6.152000,-1.132668
6.153000,-0.030397
6.154000,0.014152
6.155000,-0.227686
6.156000,-0.577714
6.157000,-0.794095
6.158000,-0.165317
6.159000,0.234352
6.160000,0.068884
6.161000,-0.305328
6.162000,-0.402063
6.163000,-0.899740
6.164000,-1.466149
6.165000,-1.884910
6.166000,-2.802621
6.167000,-3.688510
6.168000,-4.237100
6.169000,-3.978715
6.170000,-3.540862
6.171000,-3.027911
6.172000,-2.371131
6.173000,-2.492050
6.174000,-2.756799
6.175000,-2.175115
6.176000,-1.441965
6.177000,-0.654084
6.178000,0.226715
6.179000,0.779123
6.180000,0.858038
6.181000,0.527103
6.182000,-0.419883
6.183000,-2.461502
6.184000,-2.415680
6.185000,-1.688894
6.186000,-0.945562
6.187000,-0.099130
6.188000,-0.006213
6.189000,-0.214957
6.190000,-1.317228
6.191000,-2.633334
6.192000,-3.013910
6.193000,-3.150103
6.194000,-3.417397
6.195000,-3.701239
6.196000,-4.027083
6.197000,-4.770416
6.198000,-4.890062
6.199000,-4.440753
6.200000,-3.579047
6.201000,-2.410589
6.202000,-0.876829
6.203000,0.379454
6.204000,1.046417
6.205000,0.761303
6.206000,0.396001
6.207000,0.388364
6.208000,-0.148770
6.209000,-0.279872
6.210000,-0.221321
6.211000,-0.255688
6.212000,-0.348604
6.213000,-0.701178
6.214000,-1.592159
6.215000,-3.050822
6.216000,-4.002899
6.217000,-5.194268
6.218000,-5.330461
6.219000,-4.522214
6.220000,-3.206108
6.221000,-4.926974
6.222000,-5.954148
6.223000,-5.130627
6.224000,-2.485686
6.225000,0.054883
6.226000,1.592461
6.227000,2.527991
6.228000,2.498716
6.229000,2.191964
6.230000,1.435903
6.231000,-0.993929
6.232000,-2.399133
6.233000,-2.624424
6.234000,-2.522598
6.235000,-1.412690
6.236000,-0.655356
6.237000,-0.305328
6.238000,-0.353696
6.239000,-0.717725
6.240000,-0.838644
6.241000,-1.060116
6.242000,-1.457239
6.243000,-1.715624
6.244000,-2.278215
6.245000,-2.955360
6.246000,-2.996091
6.247000,-2.876445
6.248000,-2.371131
6.249000,-1.905275
6.250000,-1.044842
6.251000,-0.747000
6.252000,-0.586624
6.253000,-0.670630
6.254000,-0.944289
6.255000,-0.640082
6.256000,0.143981
6.257000,-0.136042
6.258000,-0.524255
6.259000,-0.606989
6.260000,-0.767365
6.261000,-0.740636
6.262000,-0.755910
6.263000,-1.121212
6.264000,-1.551429
6.265000,-1.921822
6.266000,-2.252758
6.267000,-2.798802
6.268000,-4.543852
6.269000,-7.599917
6.270000,-9.497706
6.271000,-8.428529
6.272000,-5.852321
6.273000,-3.161559
6.274000,-1.338866
6.275000,0.124888
6.276000,0.950955
6.277000,1.138061
6.278000,1.120241
6.279000,1.125333
6.280000,0.788033
6.281000,0.393456
6.282000,0.290356
6.283000,-0.008759
6.284000,-2.046560
6.285000,-2.955360
6.286000,-2.819167
6.287000,-2.260395
6.288000,-1.814905
6.289000,-1.505607
6.290000,-1.435601
6.291000,-1.289226
6.292000,-1.408872
6.293000,-2.042741
6.294000,-7.084421
6.295000,-10.239766
6.296000,-10.419235
6.297000,-7.696652
6.298000,-3.677055
6.299000,-0.356241
6.300000,2.029042
6.301000,3.146587
6.302000,3.245868
6.303000,3.165679
6.304000,3.081672
6.305000,2.802923
6.306000,2.571268
6.307000,2.082501
6.308000,1.932307
6.309000,1.793568
6.310000,1.171155
6.311000,-0.277326
6.312000,-0.909922
6.313000,-1.019386
6.314000,-1.323592
6.315000,-1.422873
6.316000,-1.347776
6.317000,-1.813632
6.318000,-2.047832
6.319000,-1.975281
6.320000,-2.172570
6.321000,-2.390224
6.322000,-2.075835
6.323000,-1.561611
6.324000,-1.758900
6.325000,-2.004556
6.326000,-2.171297
6.327000,-2.313854
6.328000,-2.367313
6.329000,-2.436046
6.330000,-2.578603
6.331000,-3.059732
6.332000,-4.235827
6.333000,-5.098806
6.334000,-5.049166
6.335000,-6.328360
6.336000,-6.885859
6.337000,-5.647396
6.338000,-4.052540
6.339000,-2.297307
6.340000,-1.080482
6.341000,-0.106767
6.342000,0.810944
6.343000,1.066783
6.344000,1.224613
6.345000,1.406628
6.346000,1.106240
6.347000,0.485099
6.348000,0.017971
6.349000,-0.522982
6.350000,-0.823370
6.351000,-1.072845
6.352000,-1.433056
6.353000,-1.793266
