LabVIEW Measurement,
Writer_Version,2
Reader_Version,2
Separator,Comma
Decimal_Separator,.
Multi_Headings,No
X_Columns,Multi
Time_Pref,Absolute
Operator,Dymnz
Date,2017/09/12
Time,14:39:23.6539967833530322894
***End_of_Header***,
,
Channels,1,
Samples,1000,
Date,2017/09/12,
Time,14:39:23.6539967833530322894,
Y_Unit_Label,Volts,
X_Dimension,Time,
X0,0.0000000000000000E+0,
Delta_X,0.001000,
***End_of_Header***,,
X_Value,Voltage,Comment
0.000000,-0.389335
0.001000,-0.674449
0.002000,-0.869192
0.003000,-1.333775
0.004000,-1.221766
0.005000,-1.839088
0.006000,-2.162387
0.007000,-1.623980
0.008000,-1.020659
0.009000,-0.267143
0.010000,-0.298964
0.011000,-0.158953
0.012000,0.086703
0.013000,0.518193
0.014000,0.868221
0.015000,0.746029
0.016000,-0.071127
0.017000,-1.116121
0.018000,-1.127576
0.019000,-2.117838
0.020000,-2.891719
0.021000,-4.828966
0.022000,-7.060237
0.023000,-6.838764
0.024000,-4.918064
0.025000,-2.513688
0.026000,-0.167863
0.027000,1.440995
0.028000,1.844482
0.029000,2.202147
0.030000,2.356159
0.031000,1.365898
0.032000,0.714209
0.033000,0.220351
0.034000,-0.116949
0.035000,-0.421156
0.036000,-0.808096
0.037000,-1.144123
0.038000,-1.500516
0.039000,-2.073289
0.040000,-2.858625
0.041000,-4.346563
0.042000,-5.134445
0.043000,-5.112807
0.044000,-4.417842
0.045000,-3.697420
0.046000,-3.521770
0.047000,-3.164104
0.048000,-2.859898
0.049000,-2.531508
0.050000,-2.215846
0.051000,-2.096200
0.052000,-1.897638
0.053000,-1.413963
0.054000,-1.201400
0.055000,-1.407599
0.056000,-1.315955
0.057000,-1.467422
0.058000,-1.954916
0.059000,-2.252758
0.060000,-3.071188
0.061000,-3.398305
0.062000,-3.715240
0.063000,-3.514133
0.064000,-3.225200
0.065000,-2.276942
0.066000,-1.122485
0.067000,-0.856464
0.068000,-0.867919
0.069000,-0.664266
0.070000,-0.561167
0.071000,-0.176772
0.072000,-0.262052
0.073000,-0.559894
0.074000,-0.897194
0.075000,-2.196754
0.076000,-3.922711
0.077000,-4.611312
0.078000,-4.514577
0.079000,-5.292276
0.080000,-5.648668
0.081000,-4.014355
0.082000,-1.868363
0.083000,-0.198410
0.084000,0.984049
0.085000,1.116423
0.086000,1.205521
0.087000,1.316257
0.088000,0.758758
0.089000,1.111332
0.090000,0.367999
0.091000,-0.356241
0.092000,-0.604443
0.093000,-0.080037
0.094000,0.516920
0.095000,-0.506435
0.096000,-1.063935
0.097000,-0.913741
0.098000,-0.730453
0.099000,-0.587896
0.100000,-0.273507
0.101000,-0.337149
0.102000,-0.911195
0.103000,-1.561611
0.104000,-2.060561
0.105000,-2.246394
0.106000,-2.791165
0.107000,-4.288013
0.108000,-4.886243
0.109000,-4.883698
0.110000,-5.171357
0.111000,-4.956249
0.112000,-3.748333
0.113000,-2.376223
0.114000,-1.524699
0.115000,-0.999020
0.116000,-1.067753
0.117000,-1.086846
0.118000,-0.754637
0.119000,-1.244677
0.120000,-1.613797
0.121000,-2.136931
0.122000,-3.293933
0.123000,-4.170913
0.124000,-3.931621
0.125000,-2.983362
0.126000,-2.055469
0.127000,-0.764820
0.128000,-0.017669
0.129000,0.613655
0.130000,1.522456
0.131000,1.742655
0.132000,1.770658
0.133000,2.011222
0.134000,2.232695
0.135000,1.372262
0.136000,0.212714
0.137000,-1.047388
0.138000,-1.457239
0.139000,-1.368141
0.140000,-1.565430
0.141000,-1.590886
0.142000,-1.303227
0.143000,-1.562884
0.144000,-1.678712
0.145000,-1.424146
0.146000,-1.739808
0.147000,-2.058015
0.148000,-1.961280
0.149000,-1.823814
0.150000,-2.139476
0.151000,-2.243848
0.152000,-2.444955
0.153000,-2.647335
0.154000,-2.494596
0.155000,-2.483140
0.156000,-2.684247
0.157000,-2.898083
0.158000,-3.537043
0.159000,-4.524760
0.160000,-6.701299
0.161000,-7.563005
0.162000,-8.858746
0.163000,-10.419235
0.164000,-10.419235
0.165000,-10.419235
0.166000,-6.155255
0.167000,-0.273507
0.168000,4.453783
0.169000,6.137737
0.170000,6.200106
0.171000,6.210289
0.172000,6.039729
0.173000,4.460147
0.174000,3.914103
0.175000,3.235685
0.176000,2.317974
0.177000,1.785932
0.178000,1.396446
0.179000,0.361635
0.180000,-0.450431
0.181000,-1.797085
0.182000,-2.903174
0.183000,-3.815793
0.184000,-4.219280
0.185000,-4.183641
0.186000,-3.979988
0.187000,-3.400851
0.188000,-2.629516
0.189000,-1.892547
0.190000,-2.338038
0.191000,-2.304944
0.192000,-1.349049
0.193000,-0.451704
0.194000,-0.153861
0.195000,-0.582805
0.196000,-1.069026
0.197000,-1.282862
0.198000,-1.659619
0.199000,-2.004556
0.200000,-2.004556
0.201000,-2.381314
0.202000,-2.754253
0.203000,-2.871353
0.204000,-2.975725
0.205000,-3.470856
0.206000,-4.607494
0.207000,-5.316460
0.208000,-5.249000
0.209000,-5.283366
0.210000,-6.692389
0.211000,-9.240595
0.212000,-8.583814
0.213000,-6.624929
0.214000,-4.094543
0.215000,-1.480150
0.216000,1.116423
0.217000,3.108402
0.218000,3.760091
0.219000,3.900102
0.220000,3.520799
0.221000,3.347694
0.222000,4.028658
0.223000,3.576803
0.224000,2.393071
0.225000,1.153335
0.226000,0.031972
0.227000,-0.595533
0.228000,-2.502233
0.229000,-3.545953
0.230000,-3.591775
0.231000,-3.301570
0.232000,-2.815349
0.233000,-2.152204
0.234000,-1.567976
0.235000,-0.898467
0.236000,-0.685904
0.237000,-0.690996
0.238000,-0.436430
0.239000,-0.473342
0.240000,-1.910367
0.241000,-2.500960
0.242000,-2.229847
0.243000,-1.818723
0.244000,-1.393598
0.245000,-1.112302
0.246000,-0.986292
0.247000,-1.112302
0.248000,-1.501788
0.249000,-2.736433
0.250000,-3.599412
0.251000,-4.580764
0.252000,-8.868928
0.253000,-9.594441
0.254000,-8.419619
0.255000,-6.515466
0.256000,-4.108544
0.257000,-3.918892
0.258000,-2.831896
0.259000,-0.682086
0.260000,1.575915
0.261000,2.613271
0.262000,3.193681
0.263000,4.569611
0.264000,4.894182
0.265000,4.064297
0.266000,3.282780
0.267000,2.226331
0.268000,0.253444
0.269000,-0.669358
0.270000,-1.445784
0.271000,-2.330401
0.272000,-2.663882
0.273000,-3.015183
0.274000,-3.155194
0.275000,-3.402124
0.276000,-4.243464
0.277000,-5.675398
0.278000,-5.439924
0.279000,-4.779326
0.280000,-4.121272
0.281000,-3.133556
0.282000,-1.949824
0.283000,-0.939197
0.284000,-0.419883
0.285000,-0.363878
0.286000,0.020516
0.287000,0.641657
0.288000,0.609837
0.289000,0.329814
0.290000,-0.456795
0.291000,-1.281589
0.292000,-2.946450
0.293000,-3.408488
0.294000,-3.517951
0.295000,-3.414852
0.296000,-2.718614
0.297000,-2.313854
0.298000,-2.082199
0.299000,-1.686349
0.300000,-1.590886
0.301000,-1.622707
0.302000,-1.700350
0.303000,-4.755142
0.304000,-6.129798
0.305000,-4.603675
0.306000,-2.493323
0.307000,-0.290054
0.308000,1.579733
0.309000,3.030759
0.310000,3.416427
0.311000,2.527991
0.312000,1.565732
0.313000,0.628929
0.314000,0.068884
0.315000,-0.169135
0.316000,-0.086401
0.317000,-1.146669
0.318000,-2.308763
0.319000,-3.086462
0.320000,-4.316015
0.321000,-4.762779
0.322000,-4.531124
0.323000,-3.988898
0.324000,-3.273568
0.325000,-2.746616
0.326000,-2.625697
0.327000,-3.131011
0.328000,-3.678328
0.329000,-4.422933
0.330000,-4.102180
0.331000,-4.123818
0.332000,-3.428853
0.333000,-2.716068
0.334000,-1.753809
0.335000,-0.396972
0.336000,1.094785
0.337000,2.218694
0.338000,3.267506
0.339000,3.420245
0.340000,2.604361
0.341000,1.523729
0.342000,0.696389
0.343000,-0.206047
0.344000,-2.245121
0.345000,-3.867979
0.346000,-4.454754
0.347000,-4.841694
0.348000,-3.927802
0.349000,-2.478049
0.350000,-0.931561
0.351000,-0.030397
0.352000,0.250899
0.353000,0.115979
0.354000,-0.074946
0.355000,-0.459341
0.356000,-2.248940
0.357000,-4.860787
0.358000,-6.119616
0.359000,-5.354645
0.360000,-3.957077
0.361000,-2.633334
0.362000,-1.579431
0.363000,-2.312581
0.364000,-1.974008
0.365000,-1.896366
0.366000,-0.792822
0.367000,0.441823
0.368000,1.414265
0.369000,1.868665
0.370000,1.685378
0.371000,1.009505
0.372000,0.107069
0.373000,-0.759728
0.374000,-1.405053
0.375000,-1.290499
0.376000,-1.813632
0.377000,-2.322764
0.378000,-3.019002
0.379000,-3.262112
0.380000,-3.100463
0.381000,-2.908265
0.382000,-2.975725
0.383000,-3.963442
0.384000,-4.534942
0.385000,-4.929519
0.386000,-4.209098
0.387000,-3.283750
0.388000,-2.511143
0.389000,-1.888729
0.390000,-1.007930
0.391000,-0.741909
0.392000,-0.847554
0.393000,-1.276497
0.394000,-1.431783
0.395000,-1.410145
0.396000,-0.748273
0.397000,-0.423701
0.398000,-0.460613
0.399000,-0.394426
0.400000,-0.272235
0.401000,-0.200956
0.402000,-0.144952
0.403000,0.150345
0.404000,-0.082583
0.405000,-1.088119
0.406000,-1.906548
0.407000,-2.873899
0.408000,-4.099634
0.409000,-4.392385
0.410000,-4.498030
0.411000,-3.943076
0.412000,-3.045731
0.413000,-2.391497
0.414000,-1.895093
0.415000,-1.383415
0.416000,-0.701178
0.417000,0.093068
0.418000,0.429095
0.419000,1.041326
0.420000,0.415094
0.421000,-0.529346
0.422000,-2.494596
0.423000,-3.204835
0.424000,-3.370303
0.425000,-3.927802
0.426000,-4.538761
0.427000,-4.820056
0.428000,-4.808601
0.429000,-6.506556
0.430000,-5.187904
0.431000,-2.802621
0.432000,-1.267588
0.433000,0.552559
0.434000,2.049407
0.435000,2.675640
0.436000,2.469441
0.437000,2.270880
0.438000,1.424448
0.439000,1.400264
0.440000,0.589471
0.441000,0.203804
0.442000,0.431640
0.443000,0.198713
0.444000,-0.288781
0.445000,-2.772073
0.446000,-3.640143
0.447000,-3.584138
0.448000,-2.868808
0.449000,-1.844180
0.450000,-1.800903
0.451000,-2.675338
0.452000,-3.628687
0.453000,-5.172630
0.454000,-6.047064
0.455000,-5.578663
0.456000,-4.739868
0.457000,-2.933722
0.458000,-0.867919
0.459000,0.676024
0.460000,1.320076
0.461000,1.214431
0.462000,1.550458
0.463000,1.821571
0.464000,1.707016
0.465000,0.709117
0.466000,-0.435157
0.467000,-1.041024
0.468000,-1.354140
0.469000,-1.943460
0.470000,-2.425863
0.471000,-2.721159
0.472000,-2.912084
0.473000,-2.728796
0.474000,-2.194208
0.475000,-1.789448
0.476000,-1.753809
0.477000,-1.419054
0.478000,-1.346503
0.479000,-1.519608
0.480000,-1.774174
0.481000,-1.457239
0.482000,-1.296863
0.483000,-1.160670
0.484000,-1.491606
0.485000,-2.779710
0.486000,-4.044903
0.487000,-4.562944
0.488000,-4.701683
0.489000,-4.916791
0.490000,-4.674953
0.491000,-4.380930
0.492000,-3.562500
0.493000,-2.406770
0.494000,-1.570521
0.495000,-0.641355
0.496000,0.314540
0.497000,-0.328239
0.498000,-0.414792
0.499000,0.059974
0.500000,0.999323
0.501000,2.209784
0.502000,2.049407
0.503000,1.365898
0.504000,0.410002
0.505000,-0.458068
0.506000,-1.830178
0.507000,-2.380041
0.508000,-2.610423
0.509000,-2.634607
0.510000,-2.425863
0.511000,-2.136931
0.512000,-2.013466
0.513000,-2.973180
0.514000,-4.728412
0.515000,-4.047448
0.516000,-2.966816
0.517000,-1.865818
0.518000,-0.974837
0.519000,-0.985019
0.520000,-0.873010
0.521000,-0.181864
0.522000,0.052337
0.523000,0.089249
0.524000,0.110887
0.525000,-0.085129
0.526000,-0.287509
0.527000,-0.599352
0.528000,-0.754637
0.529000,-1.407599
0.530000,-2.166206
0.531000,-2.612969
0.532000,-3.147558
0.533000,-4.293105
0.534000,-5.191722
0.535000,-5.218452
0.536000,-4.786963
0.537000,-4.326198
0.538000,-3.698693
0.539000,-2.570966
0.540000,-1.281589
0.541000,-2.532781
0.542000,-2.374950
0.543000,-1.086846
0.544000,0.026880
0.545000,0.739665
0.546000,1.458814
0.547000,1.462633
0.548000,0.362908
0.549000,-0.258233
0.550000,-0.988838
0.551000,-1.298136
0.552000,-1.919277
0.553000,-2.359676
0.554000,-3.330845
0.555000,-3.422489
0.556000,-3.992717
0.557000,-5.140809
0.558000,-4.646951
0.559000,-2.713522
0.560000,-1.088119
0.561000,-0.292600
0.562000,0.404911
0.563000,1.484271
0.564000,3.266233
0.565000,2.926387
0.566000,1.920851
0.567000,0.975139
0.568000,0.245807
0.569000,-0.053308
0.570000,-0.445339
0.571000,-1.881092
0.572000,-2.774618
0.573000,-2.318945
0.574000,-3.211199
0.575000,-3.937985
0.576000,-3.845068
0.577000,-3.290114
0.578000,-2.751707
0.579000,-2.097473
0.580000,-1.916731
0.581000,-1.861999
0.582000,-1.674893
0.583000,-1.576885
0.584000,-1.127576
0.585000,-0.422429
0.586000,-0.041852
0.587000,0.226715
0.588000,-0.260779
0.589000,-1.132668
0.590000,-1.453421
0.591000,-1.510698
0.592000,-1.900184
0.593000,-2.187844
0.594000,-2.194208
0.595000,-2.339310
0.596000,-2.489504
0.597000,-2.292216
0.598000,-2.338038
0.599000,-2.391497
0.600000,-2.612969
0.601000,-2.718614
0.602000,-3.103008
0.603000,-4.994434
0.604000,-5.368646
0.605000,-4.858241
0.606000,-3.601958
0.607000,-2.476776
0.608000,-1.445784
0.609000,-0.819551
0.610000,-1.238313
0.611000,-2.005829
0.612000,-1.986737
0.613000,-1.742353
0.614000,-1.607433
0.615000,-0.934106
0.616000,-0.862828
0.617000,-0.776275
0.618000,-0.400790
0.619000,0.007788
0.620000,0.392183
0.621000,0.723118
0.622000,0.945864
0.623000,0.421458
0.624000,-0.862828
0.625000,-1.662165
0.626000,-2.082199
0.627000,-2.658791
0.628000,-3.072461
0.629000,-3.456855
0.630000,-4.368201
0.631000,-4.813692
0.632000,-5.672852
0.633000,-9.178226
0.634000,-8.431075
0.635000,-5.387738
0.636000,-2.178934
0.637000,0.621292
0.638000,2.142324
0.639000,3.145314
0.640000,4.223401
0.641000,3.706632
0.642000,2.893294
0.643000,1.998494
0.644000,0.926771
0.645000,0.425276
0.646000,0.487645
0.647000,1.242433
0.648000,2.113049
0.649000,2.715097
0.650000,1.978129
0.651000,0.860584
0.652000,-0.062218
0.653000,-1.077936
0.654000,-1.676166
0.655000,-2.170024
0.656000,-2.446228
0.657000,-2.671519
0.658000,-3.159013
0.659000,-3.450491
0.660000,-3.607049
0.661000,-3.927802
0.662000,-4.960067
0.663000,-6.027972
0.664000,-6.332178
0.665000,-5.945238
0.666000,-5.581208
0.667000,-4.240918
0.668000,-3.161559
0.669000,-2.471685
0.670000,-1.729625
0.671000,-1.256132
0.672000,-1.195036
0.673000,-0.831007
0.674000,-0.879374
0.675000,-1.109757
0.676000,-0.962108
0.677000,-1.707987
0.678000,-2.124202
0.679000,-2.324037
0.680000,-1.682530
0.681000,-0.985019
0.682000,-0.633718
0.683000,-1.094483
0.684000,-1.588341
0.685000,-1.860726
0.686000,-2.441137
0.687000,-3.231564
0.688000,-4.870969
0.689000,-5.957966
0.690000,-7.365716
0.691000,-7.141698
0.692000,-5.653760
0.693000,-4.056358
0.694000,-2.199299
0.695000,-0.310419
0.696000,-0.930288
0.697000,-0.353696
0.698000,1.065510
0.699000,2.249242
0.700000,2.839835
0.701000,4.391414
0.702000,5.445318
0.703000,5.022738
0.704000,3.711723
0.705000,2.349795
0.706000,1.314984
0.707000,0.156709
0.708000,-2.616787
0.709000,-4.004172
0.710000,-3.855251
0.711000,-2.845897
0.712000,-1.667256
0.713000,-0.943016
0.714000,-0.874283
0.715000,-0.690996
0.716000,-0.708815
0.717000,-1.239585
0.718000,-1.275225
0.719000,-1.956189
0.720000,-2.223483
0.721000,-2.579875
0.722000,-3.027911
0.723000,-3.842523
0.724000,-4.856968
0.725000,-6.170529
0.726000,-7.438267
0.727000,-7.447177
0.728000,-7.239706
0.729000,-5.240090
0.730000,-3.099190
0.731000,-1.621434
0.732000,0.089249
0.733000,1.447359
0.734000,3.032032
0.735000,3.867009
0.736000,2.965845
0.737000,2.670548
0.738000,2.049407
0.739000,0.982776
0.740000,0.300539
0.741000,-0.584078
0.742000,-3.080098
0.743000,-5.591391
0.744000,-7.821389
0.745000,-10.419235
0.746000,-10.419235
0.747000,-8.643637
0.748000,-4.340199
0.749000,-0.337149
0.750000,2.594179
0.751000,4.200490
0.752000,5.078743
0.753000,5.223845
0.754000,4.891637
0.755000,4.209400
0.756000,2.735463
0.757000,1.424448
0.758000,0.558923
0.759000,-0.410973
0.760000,-1.371960
0.761000,-2.502233
0.762000,-3.391941
0.763000,-3.674509
0.764000,-4.043630
0.765000,-4.205279
0.766000,-4.610039
0.767000,-4.489120
0.768000,-4.256192
0.769000,-3.647780
0.770000,-3.049550
0.771000,-2.709704
0.772000,-2.250212
0.773000,-1.971463
0.774000,-1.761446
0.775000,-1.816177
0.776000,-1.683803
0.777000,-1.487787
0.778000,-0.982474
0.779000,-0.921378
0.780000,-1.104665
0.781000,-1.135213
0.782000,-0.935379
0.783000,-1.191218
0.784000,-1.697804
0.785000,-2.140749
0.786000,-2.754253
0.787000,-3.403396
0.788000,-3.566319
0.789000,-3.246838
0.790000,-5.094987
0.791000,-4.484029
0.792000,-2.660064
0.793000,-0.878102
0.794000,-0.339695
0.795000,0.205077
0.796000,0.738392
0.797000,0.940772
0.798000,0.715481
0.799000,0.278901
0.800000,-0.228958
0.801000,-0.935379
0.802000,-1.384688
0.803000,-1.654528
0.804000,-1.224311
0.805000,-0.948107
0.806000,-0.934106
0.807000,-0.981201
0.808000,-1.071572
0.809000,-0.750819
0.810000,-0.142406
0.811000,-1.267588
0.812000,-2.948996
0.813000,-4.414023
0.814000,-4.145456
0.815000,-3.119555
0.816000,-1.970190
0.817000,-3.192107
0.818000,-3.174287
0.819000,-3.162831
0.820000,-3.291387
0.821000,-2.427136
0.822000,-1.876000
0.823000,-1.324865
0.824000,-1.119939
0.825000,-0.944289
0.826000,-0.464432
0.827000,-0.143679
0.828000,-0.026578
0.829000,-0.204775
0.830000,-0.530619
0.831000,-0.456795
0.832000,-0.777548
0.833000,-1.579431
0.834000,-1.734716
0.835000,-1.612525
0.836000,-1.709260
0.837000,-2.705886
0.838000,-3.500131
0.839000,-3.183197
0.840000,-2.514961
0.841000,-1.635435
0.842000,-1.299408
0.843000,-1.173398
0.844000,-0.800459
0.845000,-0.408427
0.846000,-0.450431
0.847000,-0.806823
0.848000,-1.150487
0.849000,-1.300681
0.850000,-1.327411
0.851000,-1.108484
0.852000,-1.290499
0.853000,-1.425419
0.854000,-1.425419
0.855000,-1.785629
0.856000,-1.833997
0.857000,-2.105110
0.858000,-3.403396
0.859000,-4.238373
0.860000,-4.025810
0.861000,-3.456855
0.862000,-2.792438
0.863000,-2.502233
0.864000,-2.290943
0.865000,-1.836543
0.866000,-2.027467
0.867000,-2.166206
0.868000,-1.901457
0.869000,-2.055469
0.870000,-2.794984
0.871000,-3.059732
0.872000,-4.975341
0.873000,-6.341088
0.874000,-6.907497
0.875000,-7.776840
0.876000,-5.490838
0.877000,-2.339310
0.878000,1.437176
0.879000,4.271768
0.880000,4.887818
0.881000,4.400324
0.882000,3.532254
0.883000,2.301428
0.884000,0.765122
0.885000,0.887314
0.886000,-0.778821
0.887000,-3.691056
0.888000,-4.648224
0.889000,-4.713138
0.890000,-3.869252
0.891000,-2.542963
0.892000,-1.109757
0.893000,0.404911
0.894000,1.998494
0.895000,2.782557
0.896000,3.263687
0.897000,3.266233
0.898000,3.611170
0.899000,3.571712
0.900000,1.922124
0.901000,0.500373
0.902000,-0.688450
0.903000,-1.690167
0.904000,-2.329128
0.905000,-2.696976
0.906000,-2.975725
0.907000,-3.194652
0.908000,-3.306661
0.909000,-3.282477
0.910000,-3.170468
0.911000,-3.103008
0.912000,-3.013910
0.913000,-2.931176
0.914000,-2.330401
0.915000,-2.078380
0.916000,-2.559510
0.917000,-2.943905
0.918000,-2.787347
0.919000,-2.792438
0.920000,-2.945178
0.921000,-3.166650
0.922000,-3.307934
0.923000,-3.206108
0.924000,-2.829350
0.925000,-2.532781
0.926000,-2.630789
0.927000,-3.838704
0.928000,-3.859069
0.929000,-3.267204
0.930000,-2.424590
0.931000,-1.833997
0.932000,-1.247222
0.933000,-0.950653
0.934000,-1.019386
0.935000,-0.867919
0.936000,-1.225584
0.937000,-2.628243
0.938000,-4.442026
0.939000,-5.251545
0.940000,-4.582037
0.941000,-3.624869
0.942000,-2.383860
0.943000,-1.000293
0.944000,-0.032943
0.945000,0.396001
0.946000,0.313267
0.947000,0.336178
0.948000,0.562742
0.949000,-0.035488
0.950000,-0.506435
0.951000,-1.043570
0.952000,-1.304500
0.953000,-2.100018
0.954000,-3.358847
0.955000,-5.055530
0.956000,-5.747949
0.957000,-5.521385
0.958000,-4.590947
0.959000,-3.475948
0.960000,-1.867091
0.961000,-0.256961
0.962000,0.695116
0.963000,0.664568
0.964000,1.054054
0.965000,2.706188
0.966000,1.993403
0.967000,1.526274
0.968000,1.432085
0.969000,1.297165
0.970000,1.115150
0.971000,0.870767
0.972000,0.519466
0.973000,0.110887
0.974000,0.109614
0.975000,-0.208593
0.976000,-0.925196
0.977000,-1.607433
0.978000,-1.954916
0.979000,-2.838260
0.980000,-6.013971
0.981000,-7.983039
0.982000,-8.185419
0.983000,-10.132848
0.984000,-9.255869
0.985000,-6.397092
0.986000,-3.482312
0.987000,-0.405882
0.988000,1.710835
0.989000,2.662911
0.990000,2.820742
0.991000,3.593350
0.992000,4.455056
0.993000,3.697722
0.994000,2.277244
0.995000,0.472371
0.996000,-0.419883
0.997000,-1.210310
0.998000,-2.028740
0.999000,-3.618505
1.000000,-3.950713
1.001000,-3.334664
1.002000,-2.395315
1.003000,-1.878546
1.004000,-1.529791
1.005000,-1.142850
1.006000,-1.009203
1.007000,-1.281589
1.008000,-0.888284
1.009000,-0.503890
1.010000,-1.058844
1.011000,-1.595978
1.012000,-1.961280
1.013000,-2.158569
1.014000,-1.976554
1.015000,-1.844180
1.016000,-2.068198
1.017000,-2.257849
1.018000,-2.413135
1.019000,-2.521325
1.020000,-2.595149
1.021000,-2.539145
1.022000,-2.548055
1.023000,-2.840805
1.024000,-2.777164
1.025000,-2.549327
1.026000,-2.241303
1.027000,-3.655417
1.028000,-4.057631
1.029000,-3.464492
1.030000,-2.560783
1.031000,-1.954916
1.032000,-1.607433
1.033000,-2.345675
1.034000,-3.141193
1.035000,-3.937985
1.036000,-4.560399
1.037000,-4.046175
1.038000,-3.216290
1.039000,-2.035104
1.040000,-0.750819
1.041000,0.338724
1.042000,1.266617
1.043000,1.551731
1.044000,1.382444
1.045000,1.154608
1.046000,0.715481
1.047000,0.093068
1.048000,-0.487343
1.049000,-0.833553
1.050000,-1.519608
1.051000,-2.228574
1.052000,-3.502677
1.053000,-5.199359
1.054000,-6.904952
1.055000,-6.656750
1.056000,-5.992333
1.057000,-5.996151
1.058000,-3.808156
1.059000,-1.114848
1.060000,0.838946
1.061000,2.146142
1.062000,2.828379
1.063000,2.296336
1.064000,0.495282
1.065000,-1.547610
1.066000,-2.719887
1.067000,-2.822986
1.068000,-2.242575
1.069000,-1.650709
1.070000,-0.734272
1.071000,0.033245
1.072000,0.732028
1.073000,0.942045
1.074000,1.188974
1.075000,1.616645
1.076000,1.502090
1.077000,1.542821
1.078000,1.457541
1.079000,1.252616
1.080000,0.883495
1.081000,0.224169
1.082000,-0.374061
1.083000,-1.140305
1.084000,-1.758900
1.085000,-3.006273
1.086000,-4.111090
1.087000,-4.820056
1.088000,-4.957522
1.089000,-5.035164
1.090000,-7.704289
1.091000,-8.000858
1.092000,-6.743302
1.093000,-5.117898
1.094000,-2.877718
1.095000,-0.819551
1.096000,0.632748
1.097000,1.924670
1.098000,2.455440
1.099000,1.639556
1.100000,0.860584
1.101000,0.459643
1.102000,0.351452
1.103000,0.091795
1.104000,0.079067
1.105000,-0.032943
1.106000,-0.806823
1.107000,-1.657074
1.108000,-2.587512
1.109000,-3.535771
1.110000,-5.495929
1.111000,-6.035609
1.112000,-5.637213
1.113000,-5.341916
1.114000,-4.486575
1.115000,-3.217563
1.116000,-1.886183
1.117000,-0.892103
1.118000,0.042154
1.119000,0.387091
1.120000,0.552559
1.121000,0.603472
1.122000,0.515647
1.123000,0.320904
1.124000,0.151618
1.125000,-0.124586
1.126000,-0.521709
1.127000,-0.690996
1.128000,-1.234494
1.129000,-1.443238
1.130000,-1.529791
1.131000,-1.840361
1.132000,-2.758072
1.133000,-3.694874
1.134000,-3.715240
1.135000,-3.768699
1.136000,-3.685965
1.137000,-3.516678
1.138000,-3.335936
1.139000,-3.123374
1.140000,-3.150103
1.141000,-3.090280
1.142000,-2.665155
1.143000,-2.500960
1.144000,-2.152204
1.145000,-1.878546
1.146000,-1.214129
1.147000,-1.161943
1.148000,-1.025750
1.149000,-0.832280
1.150000,-0.605716
1.151000,0.017971
1.152000,0.020516
1.153000,-0.032943
1.154000,-0.550984
1.155000,-1.630344
1.156000,-2.880263
1.157000,-3.253202
1.158000,-2.985908
1.159000,-2.446228
1.160000,-1.301954
1.161000,-1.113575
1.162000,-1.618889
1.163000,-1.935823
1.164000,-4.172186
1.165000,-5.676671
1.166000,-5.951602
1.167000,-4.789508
1.168000,-3.129738
1.169000,-1.734716
1.170000,-2.010920
1.171000,-3.699966
1.172000,-1.772901
1.173000,0.569106
1.174000,2.707460
1.175000,4.233584
1.176000,4.729987
1.177000,4.446146
1.178000,3.513162
1.179000,1.727381
1.180000,0.555105
1.181000,0.533467
1.182000,0.122343
1.183000,0.122343
1.184000,0.561469
1.185000,0.101977
1.186000,-0.507708
1.187000,-0.789004
1.188000,-0.853918
1.189000,-1.070299
1.190000,-2.036377
1.191000,-2.961724
1.192000,-3.678328
1.193000,-5.156083
1.194000,-5.277002
1.195000,-4.601129
1.196000,-3.766153
1.197000,-2.864989
1.198000,-2.282033
1.199000,-2.026194
1.200000,-1.746172
1.201000,-1.817450
1.202000,-2.192935
1.203000,-1.716897
1.204000,-1.509425
1.205000,-1.818723
1.206000,-2.050378
1.207000,-2.878990
1.208000,-3.114464
1.209000,-3.062278
1.210000,-2.877718
1.211000,-2.815349
1.212000,-3.132284
1.213000,-3.111918
1.214000,-2.760617
1.215000,-2.134385
1.216000,-1.560339
1.217000,-1.163216
1.218000,-1.027023
1.219000,-0.666812
1.220000,-0.721544
1.221000,-0.267143
1.222000,-0.379152
1.223000,-0.636264
1.224000,-1.074117
1.225000,-1.550156
1.226000,-1.902730
1.227000,-2.148386
1.228000,-2.296034
1.229000,-2.558237
1.230000,-2.724978
1.231000,-3.227746
1.232000,-3.067369
1.233000,-2.494596
1.234000,-3.025366
1.235000,-4.027083
1.236000,-5.446288
1.237000,-5.390284
1.238000,-4.784417
1.239000,-4.408932
1.240000,-4.230736
1.241000,-3.608322
1.242000,-2.189117
1.243000,-0.670630
1.244000,0.014152
1.245000,0.550014
1.246000,1.643375
1.247000,1.806297
1.248000,1.673922
1.249000,-1.562884
1.250000,-2.270578
1.251000,-2.654972
1.252000,-1.627799
1.253000,-0.179318
1.254000,1.406628
1.255000,2.208511
1.256000,1.593734
1.257000,0.929317
1.258000,0.761303
1.259000,-0.034215
1.260000,-0.963381
1.261000,-0.968473
1.262000,-0.300237
1.263000,0.076521
1.264000,-0.071127
1.265000,0.100705
1.266000,-0.091493
1.267000,-0.603170
1.268000,-0.787731
1.269000,-0.981201
1.270000,-2.514961
1.271000,-2.952815
1.272000,-3.072461
1.273000,-2.332946
1.274000,-1.911640
1.275000,-1.685076
1.276000,-1.378324
1.277000,-1.081754
1.278000,-0.901013
1.279000,-0.747000
1.280000,-0.748273
1.281000,-1.314682
1.282000,-1.308318
1.283000,-1.300681
1.284000,-1.359231
1.285000,-1.555247
1.286000,-1.738535
1.287000,-2.008375
1.288000,-2.311308
1.289000,-2.236211
1.290000,-2.184025
1.291000,-2.158569
1.292000,-2.166206
1.293000,-2.142022
1.294000,-2.084744
1.295000,-2.162387
1.296000,-2.385132
1.297000,-2.700794
1.298000,-3.300297
1.299000,-3.521770
1.300000,-3.375394
1.301000,-3.348665
1.302000,-3.475948
1.303000,-3.383031
1.304000,-3.232837
1.305000,-3.047004
1.306000,-2.978271
1.307000,-2.947723
1.308000,-2.828077
1.309000,-2.926085
1.310000,-3.017729
1.311000,-2.885355
1.312000,-4.191278
1.313000,-4.128909
1.314000,-3.117010
1.315000,-1.835270
1.316000,-1.402508
1.317000,-1.077936
1.318000,-0.489889
1.319000,-0.377879
1.320000,-1.238313
1.321000,-2.428409
1.322000,-3.981261
1.323000,-5.563389
1.324000,-5.641031
1.325000,-4.710593
1.326000,-3.089007
1.327000,-0.996475
1.328000,1.229705
1.329000,2.766011
1.330000,4.064297
1.331000,4.676528
1.332000,3.721906
1.333000,2.012495
1.334000,2.426165
1.335000,2.581450
1.336000,2.389253
1.337000,1.726109
1.338000,0.669660
1.339000,-1.144123
1.340000,-2.268032
1.341000,-3.001182
1.342000,-3.850160
1.343000,-3.800519
1.344000,-3.390668
1.345000,-2.731342
1.346000,-2.145840
1.347000,-1.837815
1.348000,-1.326138
1.349000,-1.112302
1.350000,-1.271406
1.351000,-1.169580
1.352000,-0.534438
1.353000,0.048519
1.354000,-0.074946
1.355000,-0.491161
1.356000,-1.259951
1.357000,-2.152204
1.358000,-2.423317
1.359000,-2.344402
1.360000,-2.271850
1.361000,-2.470412
1.362000,-2.850988
1.363000,-2.760617
1.364000,-2.638426
1.365000,-2.476776
1.366000,-2.195481
1.367000,-2.285852
1.368000,-2.644790
1.369000,-2.579875
1.370000,-4.293105
1.371000,-5.499747
1.372000,-4.934611
1.373000,-3.554863
1.374000,-3.236656
1.375000,-2.811530
1.376000,-4.069086
1.377000,-3.916347
1.378000,-3.057187
1.379000,-2.012193
1.380000,-0.640082
1.381000,0.748575
1.382000,1.372262
1.383000,1.913215
1.384000,1.309893
1.385000,1.201703
1.386000,0.807125
1.387000,0.110887
1.388000,-0.113131
1.389000,-0.274780
1.390000,-0.460613
1.391000,-1.205219
1.392000,-1.946006
1.393000,-1.957461
1.394000,-1.562884
1.395000,-1.700350
1.396000,-1.783084
1.397000,-1.822541
1.398000,-3.083916
1.399000,-4.921883
1.400000,-5.716128
1.401000,-5.755586
1.402000,-5.269365
1.403000,-4.433116
1.404000,-3.291387
1.405000,-1.748717
1.406000,-0.618444
1.407000,-0.218776
1.408000,-0.085129
1.409000,0.245807
1.410000,0.075248
1.411000,-0.053308
1.412000,-1.147942
1.413000,-3.206108
1.414000,-3.090280
1.415000,-1.915458
1.416000,-0.622263
1.417000,0.502919
1.418000,1.386263
1.419000,1.229705
1.420000,0.812217
1.421000,0.683661
1.422000,-1.081754
1.423000,-3.489949
1.424000,-4.314743
1.425000,-4.001626
1.426000,-3.290114
1.427000,-2.517507
1.428000,-2.308763
1.429000,-2.182752
1.430000,-1.206492
1.431000,-0.394426
1.432000,-0.977382
1.433000,-0.963381
1.434000,-0.484797
1.435000,-0.572622
1.436000,-0.519164
1.437000,-0.768638
1.438000,-0.993929
1.439000,-0.898467
1.440000,-0.666812
1.441000,-0.548439
1.442000,-0.526801
1.443000,-0.646447
1.444000,-0.971018
1.445000,-1.058844
1.446000,-5.593937
1.447000,-7.557913
1.448000,-7.886304
1.449000,-6.239262
1.450000,-3.915074
1.451000,-1.653255
1.452000,-0.054581
1.453000,1.012051
1.454000,1.346805
1.455000,0.332360
1.456000,-0.222594
1.457000,-0.775002
1.458000,-0.629900
1.459000,0.617474
1.460000,1.480452
1.461000,0.684934
1.462000,-0.200956
1.463000,-0.810642
1.464000,-1.307045
1.465000,-1.867091
1.466000,-1.966371
1.467000,-1.925641
1.468000,-1.828906
1.469000,-2.373677
1.470000,-2.793711
1.471000,-2.983362
1.472000,-3.311753
1.473000,-3.241747
1.474000,-3.063551
1.475000,-2.573511
1.476000,-2.341856
1.477000,-2.121657
1.478000,-1.946006
1.479000,-1.911640
1.480000,-2.282033
1.481000,-2.288397
1.482000,-4.276558
1.483000,-4.730958
1.484000,-3.962169
1.485000,-3.416125
1.486000,-2.676610
1.487000,-2.105110
1.488000,-1.464876
1.489000,-0.580259
1.490000,-0.382971
1.491000,-0.636264
1.492000,-0.888284
1.493000,-0.688450
1.494000,-0.320602
1.495000,0.353998
1.496000,0.768940
1.497000,1.289528
1.498000,1.257707
1.499000,-0.256961
1.500000,-2.047832
1.501000,-2.830623
1.502000,-3.034276
1.503000,-3.024093
1.504000,-2.839533
1.505000,-2.646063
1.506000,-3.192107
1.507000,-3.977443
1.508000,-5.243909
1.509000,-5.507384
1.510000,-4.475119
1.511000,-3.862888
1.512000,-3.953259
1.513000,-2.457684
1.514000,-0.273507
1.515000,1.246252
1.516000,2.242877
1.517000,3.247140
1.518000,2.746918
1.519000,1.521183
1.520000,0.952228
1.521000,0.220351
1.522000,-0.105494
1.523000,0.012879
1.524000,0.462188
1.525000,-0.080037
1.526000,-1.086846
1.527000,-2.694430
1.528000,-3.712694
1.529000,-3.894709
1.530000,-3.866706
1.531000,-3.601958
1.532000,-2.900628
1.533000,-2.357130
1.534000,-2.178934
1.535000,-2.087290
1.536000,-1.733443
1.537000,-1.307045
1.538000,-1.102120
1.539000,-1.450875
1.540000,-1.758900
1.541000,-2.214573
1.542000,-2.377495
1.543000,-2.315127
1.544000,-1.822541
1.545000,-1.107211
1.546000,-1.011749
1.547000,-1.130122
1.548000,-1.132668
1.549000,-0.521709
1.550000,-0.226413
1.551000,-0.553530
1.552000,-2.003283
1.553000,-4.134001
1.554000,-4.429297
1.555000,-3.988898
1.556000,-2.892992
1.557000,-1.812359
1.558000,-0.996475
1.559000,-0.729181
1.560000,-0.500071
1.561000,-0.715179
1.562000,-0.200956
1.563000,0.602200
1.564000,-1.921822
1.565000,-2.089836
1.566000,-1.601069
1.567000,-1.635435
1.568000,-1.304500
1.569000,-0.690996
1.570000,-0.475887
1.571000,-0.172954
1.572000,-0.325693
1.573000,-1.175944
1.574000,-1.729625
1.575000,-2.191662
1.576000,-2.612969
1.577000,-2.344402
1.578000,-1.884910
1.579000,-2.863716
1.580000,-3.748333
1.581000,-3.395759
1.582000,-3.273568
1.583000,-3.346119
1.584000,-4.655861
1.585000,-4.686409
1.586000,-3.850160
1.587000,-3.153922
1.588000,-2.353312
1.589000,-1.315955
1.590000,0.031972
1.591000,0.888586
1.592000,0.838946
1.593000,0.345088
1.594000,-0.803005
1.595000,-1.489060
1.596000,-1.721988
1.597000,-1.685076
1.598000,-1.489060
1.599000,-0.930288
1.600000,-0.344786
1.601000,-0.064763
1.602000,0.031972
1.603000,-0.255688
1.604000,-0.021487
1.605000,0.402365
1.606000,0.165619
1.607000,-0.195865
1.608000,-0.279872
1.609000,-0.301510
1.610000,-0.680813
1.611000,-1.137759
1.612000,-1.258678
1.613000,-1.151760
1.614000,-1.435601
1.615000,-1.713078
1.616000,-2.128021
1.617000,-2.382587
1.618000,-2.397861
1.619000,-2.395315
1.620000,-2.582421
1.621000,-2.717341
1.622000,-2.811530
1.623000,-3.268476
1.624000,-3.698693
1.625000,-3.299024
1.626000,-3.286296
1.627000,-3.453037
1.628000,-2.794984
1.629000,-2.475503
1.630000,-2.434773
1.631000,-2.341856
1.632000,-2.339310
1.633000,-2.026194
1.634000,-2.485686
1.635000,-3.416125
1.636000,-4.130182
1.637000,-4.252374
1.638000,-4.165822
1.639000,-3.259567
1.640000,-2.148386
1.641000,-0.960836
1.642000,0.286538
1.643000,0.920407
1.644000,1.253889
1.645000,1.522456
1.646000,0.748575
1.647000,0.343815
1.648000,-0.572622
1.649000,-5.284639
1.650000,-6.896042
1.651000,-5.478109
1.652000,-5.293549
1.653000,-3.119555
1.654000,-0.545893
1.655000,1.229705
1.656000,2.451622
1.657000,2.359978
1.658000,1.545367
1.659000,1.075692
1.660000,0.285265
1.661000,0.183439
1.662000,0.376909
1.663000,0.399820
1.664000,-0.424974
1.665000,-0.867919
1.666000,-0.915014
1.667000,-1.318501
1.668000,-1.735989
1.669000,-1.933278
1.670000,-2.344402
1.671000,-3.064824
1.672000,-4.182368
1.673000,-3.923984
1.674000,-3.176833
1.675000,-2.472958
1.676000,-1.727079
1.677000,-1.047388
1.678000,-0.707542
1.679000,-0.379152
1.680000,-0.203502
1.681000,-0.039307
1.682000,-0.409700
1.683000,-0.860282
1.684000,-1.293044
1.685000,-2.167478
1.686000,-2.814076
1.687000,-3.465765
1.688000,-3.361393
1.689000,-4.476392
1.690000,-5.509930
1.691000,-5.305004
1.692000,-4.870969
1.693000,-3.893436
1.694000,-2.562056
1.695000,-1.570521
1.696000,-0.572622
1.697000,-0.576441
1.698000,-0.148770
1.699000,-0.067309
1.700000,0.196167
1.701000,0.939500
1.702000,0.378182
1.703000,-1.215402
1.704000,-2.110201
1.705000,-1.963826
1.706000,-1.505607
1.707000,-0.561167
1.708000,0.342542
1.709000,-0.447885
1.710000,-0.932833
1.711000,-0.761001
1.712000,-0.554803
1.713000,-0.153861
1.714000,-0.464432
1.715000,-0.898467
1.716000,-1.375778
1.717000,-1.602342
1.718000,-1.781811
1.719000,-2.311308
1.720000,-2.760617
1.721000,-4.403841
1.722000,-5.119171
1.723000,-4.383475
1.724000,-3.237928
1.725000,-1.598523
1.726000,-0.650265
1.727000,-0.422429
1.728000,-0.665539
1.729000,-1.018113
1.730000,-1.188672
1.731000,-1.323592
1.732000,-1.183581
1.733000,-1.580704
1.734000,-3.880708
1.735000,-4.055085
1.736000,-2.845897
1.737000,-1.123758
1.738000,-0.268416
1.739000,-0.195865
1.740000,0.133798
1.741000,0.005242
1.742000,-0.652811
1.743000,-1.578158
1.744000,-1.924368
1.745000,-2.334219
1.746000,-2.717341
1.747000,-3.486130
1.748000,-3.749606
1.749000,-4.223099
1.750000,-5.045347
1.751000,-4.774234
1.752000,-4.025810
1.753000,-3.594321
1.754000,-2.719887
1.755000,-3.143739
1.756000,-3.020275
1.757000,-2.409316
1.758000,-1.239585
1.759000,-0.469523
1.760000,0.618746
1.761000,2.429983
1.762000,2.654002
1.763000,2.213602
1.764000,2.708733
1.765000,3.272597
1.766000,2.703642
1.767000,1.699379
1.768000,0.767668
1.769000,-0.638810
1.770000,-2.717341
1.771000,-5.083532
1.772000,-6.437823
1.773000,-6.120888
1.774000,-4.980433
1.775000,-3.385577
1.776000,-1.935823
1.777000,-1.135213
1.778000,-0.818279
1.779000,-0.771184
1.780000,-0.334603
1.781000,0.112160
1.782000,0.597108
1.783000,1.468997
1.784000,1.227159
1.785000,0.482554
1.786000,-0.015123
1.787000,-0.711361
1.788000,-1.870909
1.789000,-2.316400
1.790000,-2.829350
1.791000,-3.561227
1.792000,-4.144183
1.793000,-4.279103
1.794000,-4.069086
1.795000,-3.943076
1.796000,-3.804338
1.797000,-3.246838
1.798000,-3.282477
1.799000,-3.814520
1.800000,-2.588785
1.801000,-1.231948
1.802000,-0.272235
1.803000,0.295448
1.804000,0.765122
1.805000,0.230533
1.806000,-0.660448
1.807000,-1.191218
1.808000,-1.842907
1.809000,-2.392769
1.810000,-2.962997
1.811000,-2.892992
1.812000,-2.751707
1.813000,-2.639698
1.814000,-2.591331
1.815000,-3.859069
1.816000,-4.482756
1.817000,-3.885799
1.818000,-3.129738
1.819000,-2.441137
1.820000,-1.158124
1.821000,0.184711
1.822000,1.503363
1.823000,1.989584
1.824000,1.467724
1.825000,-0.608262
1.826000,-1.198855
1.827000,-0.922651
1.828000,-0.512799
1.829000,-0.152589
1.830000,0.114706
1.831000,0.216532
1.832000,-0.557348
1.833000,-2.424590
1.834000,-3.377940
1.835000,-3.617232
1.836000,-3.636324
1.837000,-4.401295
1.838000,-4.207825
1.839000,-4.174731
1.840000,-3.906164
1.841000,-4.229463
1.842000,-3.299024
1.843000,-1.550156
1.844000,-0.260779
1.845000,-1.093210
1.846000,-1.276497
1.847000,-1.136486
1.848000,-0.456795
1.849000,0.045973
1.850000,0.723118
1.851000,1.521183
1.852000,1.616645
1.853000,1.342987
1.854000,0.847856
1.855000,0.313267
1.856000,0.189803
1.857000,0.319631
1.858000,-0.301510
1.859000,-1.118667
1.860000,-1.570521
1.861000,-1.910367
1.862000,-2.259122
1.863000,-2.604059
1.864000,-2.588785
1.865000,-2.396588
1.866000,-2.455138
1.867000,-3.038094
1.868000,-3.291387
1.869000,-3.985080
1.870000,-4.588401
1.871000,-5.979604
1.872000,-5.980877
1.873000,-5.536659
1.874000,-4.680045
1.875000,-3.703784
1.876000,-2.756799
1.877000,-1.483969
1.878000,-0.248051
1.879000,0.329814
1.880000,1.122787
1.881000,2.022678
1.882000,2.483442
1.883000,1.603917
1.884000,-0.237868
1.885000,-3.328299
1.886000,-3.982534
1.887000,-3.188288
1.888000,-2.098746
1.889000,-1.137759
1.890000,-0.468250
1.891000,-1.156851
1.892000,-2.372404
1.893000,-2.658791
1.894000,-3.321935
1.895000,-4.153093
1.896000,-4.135274
1.897000,-3.173014
1.898000,-2.236211
1.899000,-1.464876
1.900000,-0.873010
1.901000,-0.771184
1.902000,-1.695259
1.903000,-5.017345
1.904000,-4.616403
1.905000,-1.738535
1.906000,1.370989
1.907000,2.871655
1.908000,3.420245
1.909000,3.550074
1.910000,3.032032
1.911000,2.339613
1.912000,1.213158
1.913000,0.696389
1.914000,-0.153861
1.915000,-0.679540
1.916000,-1.187399
1.917000,-1.686349
1.918000,-2.528962
1.919000,-4.215462
1.920000,-6.428913
1.921000,-6.627475
1.922000,-5.997424
1.923000,-4.882425
1.924000,-3.847614
1.925000,-3.082643
1.926000,-2.691884
1.927000,-2.534053
1.928000,-1.662165
1.929000,-0.564985
1.930000,0.163073
1.931000,0.886041
1.932000,0.945864
1.933000,0.308176
1.934000,-0.609535
1.935000,-0.983747
1.936000,-1.206492
1.937000,-1.753809
1.938000,-2.185298
1.939000,-2.009648
1.940000,-1.841634
1.941000,-1.583249
1.942000,-2.259122
1.943000,-2.451320
1.944000,-1.574340
1.945000,-0.861555
1.946000,-2.859898
1.947000,-2.997364
1.948000,-2.472958
1.949000,-2.410589
1.950000,-2.443683
1.951000,-2.157296
1.952000,-1.583249
1.953000,-0.725362
1.954000,-0.064763
1.955000,-0.059672
1.956000,-0.104221
1.957000,-0.278599
1.958000,-0.958290
1.959000,-2.030013
1.960000,-3.552317
1.961000,-4.449663
1.962000,-4.375838
1.963000,-4.300741
1.964000,-3.962169
1.965000,-3.719058
1.966000,-2.920994
1.967000,-2.534053
1.968000,-2.051651
1.969000,-1.807268
1.970000,-0.682086
1.971000,0.197440
1.972000,0.399820
1.973000,0.127434
1.974000,-0.007486
1.975000,-0.175499
1.976000,-0.203502
1.977000,-0.242959
1.978000,-0.648992
1.979000,-1.458512
1.980000,-1.398689
1.981000,-0.885739
1.982000,-0.640082
1.983000,-0.293873
1.984000,-0.165317
1.985000,-0.624808
1.986000,-1.155579
1.987000,-1.744899
1.988000,-2.265486
1.989000,-2.394042
1.990000,-2.919721
1.991000,-3.608322
1.992000,-3.441581
1.993000,-3.529407
1.994000,-3.474675
1.995000,-4.052540
1.996000,-4.459845
1.997000,-5.755586
1.998000,-4.882425
1.999000,-2.858625
2.000000,-1.103393
2.001000,0.438005
2.002000,2.200874
2.003000,3.290417
2.004000,3.371878
2.005000,2.576359
2.006000,1.387536
2.007000,0.655658
2.008000,0.565288
2.009000,-0.269689
2.010000,-1.225584
2.011000,-2.752980
2.012000,-5.394102
2.013000,-6.441642
2.014000,-6.066157
2.015000,-4.191278
2.016000,-2.576057
2.017000,-1.513244
2.018000,-0.768638
2.019000,-0.357514
2.020000,-0.228958
2.021000,-0.249324
2.022000,-0.358787
2.023000,-0.925196
2.024000,-0.870465
2.025000,-0.790276
2.026000,-0.887011
2.027000,-0.312965
2.028000,0.145254
2.029000,0.091795
2.030000,-0.903558
2.031000,-1.433056
2.032000,-2.153477
2.033000,-2.875172
2.034000,-4.968977
2.035000,-4.971523
2.036000,-4.186187
2.037000,-2.999909
2.038000,-1.630344
2.039000,-0.996475
2.040000,-0.761001
2.041000,-1.481423
2.042000,-2.336765
2.043000,-2.752980
2.044000,-3.159013
2.045000,-4.462391
2.046000,-5.126808
2.047000,-4.263829
2.048000,-2.960452
2.049000,-2.059288
2.050000,-1.000293
2.051000,-0.702451
2.052000,-0.361333
2.053000,0.057428
2.054000,0.584380
2.055000,0.880949
2.056000,1.001868
2.057000,0.906406
2.058000,0.466007
2.059000,0.300539
2.060000,0.524557
2.061000,0.180893
2.062000,-0.268416
2.063000,-0.713907
2.064000,-0.976110
2.065000,-1.882365
2.066000,-2.901901
2.067000,-3.801792
2.068000,-4.971523
2.069000,-5.732675
2.070000,-5.610484
2.071000,-5.292276
2.072000,-5.195541
2.073000,-4.015628
2.074000,-2.825532
2.075000,-1.574340
2.076000,-0.287509
2.077000,0.588198
2.078000,1.592461
2.079000,1.904305
2.080000,2.026496
2.081000,1.831753
2.082000,1.001868
2.083000,0.233079
2.084000,-0.389335
2.085000,-1.561611
2.086000,-3.211199
2.087000,-3.598139
2.088000,-3.534498
2.089000,-2.926085
2.090000,-2.558237
2.091000,-2.285852
2.092000,-1.449602
2.093000,-1.158124
2.094000,-1.360504
2.095000,-1.375778
2.096000,-1.363050
2.097000,-1.296863
2.098000,-1.557793
2.099000,-1.266315
2.100000,-1.678712
2.101000,-4.522214
2.102000,-4.937156
2.103000,-4.136546
2.104000,-2.945178
2.105000,-1.896366
2.106000,-3.804338
2.107000,-5.601574
2.108000,-6.234170
2.109000,-5.135718
2.110000,-3.995262
2.111000,-3.677055
2.112000,-2.237484
2.113000,0.076521
2.114000,1.569550
2.115000,2.151234
2.116000,2.510172
2.117000,3.077854
2.118000,3.678630
2.119000,3.709178
2.120000,2.675640
2.121000,1.718472
2.122000,0.641657
2.123000,-0.529346
2.124000,-0.899740
2.125000,-0.822097
2.126000,-0.684631
2.127000,-1.550156
2.128000,-2.115292
2.129000,-2.275669
2.130000,-2.555692
2.131000,-2.792438
2.132000,-2.919721
2.133000,-2.624424
2.134000,-2.418226
2.135000,-2.479322
2.136000,-2.736433
2.137000,-2.886627
2.138000,-4.100907
2.139000,-4.655861
2.140000,-4.267648
2.141000,-4.070359
2.142000,-3.696147
2.143000,-3.030457
2.144000,-2.649881
2.145000,-2.327855
2.146000,-2.082199
2.147000,-2.308763
2.148000,-2.355857
2.149000,-1.743626
2.150000,-1.006657
2.151000,-0.482252
2.152000,0.030699
2.153000,0.602200
2.154000,0.751121
2.155000,0.748575
2.156000,0.255990
2.157000,0.108342
2.158000,0.199985
2.159000,0.285265
2.160000,-0.277326
2.161000,-0.881920
2.162000,-1.369414
2.163000,-2.049105
2.164000,-2.455138
2.165000,-3.929075
2.166000,-5.405558
2.167000,-5.498475
2.168000,-4.800964
2.169000,-3.586684
2.170000,-2.691884
2.171000,-1.869636
2.172000,-1.167034
2.173000,-0.890830
2.174000,-1.091937
2.175000,-1.071572
2.176000,-1.214129
2.177000,-0.629900
2.178000,-0.815733
2.179000,-0.577714
2.180000,-0.381698
2.181000,-0.702451
2.182000,-0.533165
2.183000,-0.478433
2.184000,-1.067753
2.185000,-1.525972
2.186000,-1.971463
2.187000,-2.405498
2.188000,-4.174731
2.189000,-4.911700
2.190000,-5.093715
2.191000,-5.060621
2.192000,-4.892607
2.193000,-4.215462
2.194000,-3.899800
2.195000,-5.890506
2.196000,-7.930853
2.197000,-6.451824
2.198000,-2.766981
2.199000,1.141880
2.200000,3.999383
2.201000,6.109735
2.202000,6.219198
2.203000,6.201379
2.204000,6.035911
2.205000,3.875918
2.206000,2.407073
2.207000,1.252616
2.208000,0.441823
2.209000,-0.307874
2.210000,-0.894648
2.211000,-1.424146
2.212000,-2.027467
2.213000,-2.311308
2.214000,-2.521325
2.215000,-2.903174
2.216000,-3.157740
2.217000,-3.198471
2.218000,-2.903174
2.219000,-2.940086
2.220000,-3.124647
2.221000,-3.403396
2.222000,-3.766153
2.223000,-4.130182
2.224000,-4.035993
2.225000,-3.330845
2.226000,-2.918448
2.227000,-2.699521
2.228000,-2.425863
2.229000,-2.425863
2.230000,-2.381314
2.231000,-2.233666
2.232000,-2.772073
2.233000,-3.727968
2.234000,-4.542579
2.235000,-5.820500
2.236000,-6.880768
2.237000,-6.697480
2.238000,-5.487019
2.239000,-4.206552
2.240000,-2.852261
2.241000,-1.823814
2.242000,-0.790276
2.243000,0.327268
2.244000,0.917861
2.245000,1.987039
2.246000,4.407961
2.247000,3.534800
2.248000,0.992958
2.249000,-1.780538
2.250000,-3.115737
2.251000,-2.462775
2.252000,-1.192491
2.253000,-0.055853
2.254000,0.590744
2.255000,0.707845
2.256000,0.306903
2.257000,-0.259506
2.258000,-0.839917
2.259000,-2.520052
2.260000,-3.127192
2.261000,-2.493323
2.262000,-1.877273
2.263000,-1.825087
2.264000,-1.649437
2.265000,-1.057571
2.266000,-0.720271
2.267000,-1.445784
2.268000,-1.818723
2.269000,-2.233666
2.270000,-2.396588
2.271000,-1.981645
2.272000,-1.126303
2.273000,-1.533609
2.274000,-2.971907
2.275000,-3.334664
2.276000,-3.502677
2.277000,-2.570966
2.278000,-1.243404
2.279000,-0.477160
2.280000,-0.866646
2.281000,-1.373233
2.282000,-3.652871
2.283000,-5.383920
2.284000,-4.704229
2.285000,-3.087735
2.286000,-0.926469
2.287000,0.426549
2.288000,0.735847
2.289000,0.533467
2.290000,0.305630
2.291000,-0.347332
2.292000,-0.375334
2.293000,-0.039307
2.294000,0.145254
2.295000,0.150345
2.296000,0.357816
2.297000,-0.085129
2.298000,-0.594261
2.299000,-0.965927
2.300000,-1.183581
2.301000,-1.513244
2.302000,-1.877273
2.303000,-2.352039
2.304000,-2.476776
2.305000,-2.401679
2.306000,-2.802621
2.307000,-4.150548
2.308000,-4.347836
2.309000,-3.834886
2.310000,-3.282477
2.311000,-2.691884
2.312000,-1.961280
2.313000,-1.368141
2.314000,-1.091937
2.315000,-1.023204
2.316000,-0.648992
2.317000,-0.304055
2.318000,-0.991384
2.319000,-1.825087
2.320000,-2.268032
2.321000,-2.755526
2.322000,-3.229019
2.323000,-2.878990
2.324000,-2.316400
2.325000,-1.775447
2.326000,-2.166206
2.327000,-2.531508
2.328000,-2.008375
2.329000,-0.814460
2.330000,-0.106767
2.331000,0.058701
2.332000,-2.402952
2.333000,-3.744515
2.334000,-3.314298
2.335000,-2.117838
2.336000,-1.094483
2.337000,-0.232777
2.338000,-0.031670
2.339000,-1.259951
2.340000,-3.433944
2.341000,-4.487847
2.342000,-4.268921
2.343000,-2.999909
2.344000,-1.781811
2.345000,-0.912468
2.346000,-0.564985
2.347000,-0.407155
2.348000,-0.304055
2.349000,0.640385
2.350000,2.008677
2.351000,1.428266
2.352000,0.618746
2.353000,0.799488
2.354000,0.611109
2.355000,0.510556
2.356000,0.720573
2.357000,0.621292
2.358000,-0.181864
2.359000,-1.944733
2.360000,-2.980817
2.361000,-4.574400
2.362000,-5.269365
2.363000,-5.531568
2.364000,-4.888789
2.365000,-3.805611
2.366000,-2.910811
2.367000,-1.998192
2.368000,-1.699077
2.369000,-1.196309
2.370000,-0.447885
2.371000,0.301812
2.372000,0.819854
2.373000,0.360362
2.374000,-0.553530
2.375000,-0.903558
2.376000,-3.539589
2.377000,-3.533225
2.378000,-2.430954
2.379000,-1.364323
2.380000,-0.256961
2.381000,0.328541
2.382000,0.309449
2.383000,-0.085129
2.384000,-1.019386
2.385000,-1.697804
2.386000,-2.035104
2.387000,-2.654972
2.388000,-2.042741
2.389000,-1.770355
2.390000,-1.816177
2.391000,-1.789448
2.392000,-2.010920
2.393000,-1.976554
2.394000,-2.191662
2.395000,-2.829350
2.396000,-3.165377
2.397000,-2.956633
2.398000,-2.647335
2.399000,-3.274841
2.400000,-4.146729
2.401000,-3.535771
2.402000,-2.863716
2.403000,-1.993101
2.404000,-1.575612
2.405000,-1.356686
2.406000,-1.564157
2.407000,-1.509425
2.408000,-2.714795
2.409000,-3.124647
2.410000,-2.584967
2.411000,-2.135658
2.412000,-1.966371
2.413000,-2.003283
2.414000,-1.753809
2.415000,-1.242131
2.416000,-0.930288
2.417000,-0.666812
2.418000,-0.617172
2.419000,-1.623980
2.420000,-2.185298
2.421000,-2.037650
2.422000,-1.625253
2.423000,-0.930288
2.424000,-0.099130
2.425000,-0.417337
2.426000,-0.636264
2.427000,-0.680813
2.428000,-0.139860
2.429000,-0.199683
2.430000,-0.819551
2.431000,-0.883193
2.432000,-1.043570
2.433000,-1.090664
2.434000,-1.635435
2.435000,-2.842078
2.436000,-5.208269
2.437000,-6.561288
2.438000,-6.320723
2.439000,-5.186631
2.440000,-3.545953
2.441000,-1.948552
2.442000,-0.963381
2.443000,-0.601898
2.444000,-0.502617
2.445000,-0.083856
2.446000,-0.036761
2.447000,-0.180591
2.448000,-2.241303
2.449000,-2.030013
2.450000,-1.020659
2.451000,-2.614242
2.452000,-2.376223
2.453000,-1.523426
2.454000,-0.463159
2.455000,0.770213
2.456000,1.658649
2.457000,1.591189
2.458000,1.350624
2.459000,0.819854
2.460000,-0.246778
2.461000,-0.517891
2.462000,-1.352867
2.463000,-2.209482
2.464000,-2.611696
2.465000,-2.876445
2.466000,-3.376667
2.467000,-3.096644
2.468000,-2.658791
2.469000,-2.248940
2.470000,-1.771628
2.471000,-1.483969
2.472000,-2.517507
2.473000,-3.132284
2.474000,-3.329572
2.475000,-2.416953
2.476000,-1.988009
2.477000,-0.948107
2.478000,-0.405882
2.479000,-0.356241
2.480000,-0.041852
2.481000,-0.296418
2.482000,-0.697360
2.483000,-0.318056
2.484000,0.623838
2.485000,0.370545
2.486000,-0.925196
2.487000,-1.565430
2.488000,-2.094927
2.489000,-2.408043
2.490000,-2.083472
2.491000,-1.417782
2.492000,-1.132668
2.493000,-1.135213
2.494000,-1.730898
2.495000,-2.089836
2.496000,-2.465321
2.497000,-3.092826
2.498000,-3.257021
2.499000,-2.732615
2.500000,-3.418670
2.501000,-3.337209
2.502000,-3.464492
2.503000,-3.699966
2.504000,-3.514133
2.505000,-2.985908
2.506000,-2.909538
2.507000,-2.863716
2.508000,-4.029629
2.509000,-4.926974
2.510000,-5.555752
2.511000,-4.205279
2.512000,-1.891274
2.513000,0.655658
2.514000,2.573813
2.515000,3.420245
2.516000,3.488978
2.517000,2.491079
2.518000,0.774032
2.519000,-0.162771
2.520000,-0.707542
2.521000,-0.694814
2.522000,-1.112302
2.523000,-2.395315
2.524000,-2.830623
2.525000,-2.892992
2.526000,-2.670246
2.527000,-2.021103
2.528000,-1.335048
2.529000,-0.987565
2.530000,-0.685904
2.531000,-0.510254
2.532000,-0.417337
2.533000,-0.511527
2.534000,-0.725362
2.535000,-1.149214
2.536000,-1.561611
2.537000,-3.957077
2.538000,-4.309651
2.539000,-4.888789
2.540000,-4.374566
2.541000,-2.906993
2.542000,-1.612525
2.543000,-0.982474
2.544000,-0.959563
2.545000,-1.070299
2.546000,-2.601513
2.547000,-2.988454
2.548000,-3.520497
2.549000,-3.696147
2.550000,-2.699521
2.551000,-1.830178
2.552000,-1.531063
2.553000,-1.511971
2.554000,-1.276497
2.555000,-1.238313
2.556000,-0.608262
2.557000,-0.441521
2.558000,-0.002395
2.559000,0.630202
2.560000,0.963683
2.561000,1.801205
2.562000,2.221239
2.563000,1.631919
2.564000,0.934408
2.565000,0.137617
2.566000,-0.587896
2.567000,-1.037205
2.568000,-1.394871
2.569000,-1.831451
2.570000,-2.311308
2.571000,-2.838260
2.572000,-2.960452
2.573000,-3.777608
2.574000,-5.077168
2.575000,-6.638930
2.576000,-6.557469
2.577000,-5.978331
2.578000,-5.191722
2.579000,-4.070359
2.580000,-2.970634
2.581000,-1.947279
2.582000,-1.373233
2.583000,-1.429237
2.584000,-1.197582
2.585000,-0.281144
2.586000,0.455824
2.587000,1.153335
2.588000,1.476634
2.589000,0.858038
2.590000,-0.043125
2.591000,-0.707542
2.592000,-1.379597
2.593000,-1.478877
2.594000,-1.247222
2.595000,-1.315955
2.596000,-1.441965
2.597000,-3.055914
2.598000,-4.862060
2.599000,-5.450107
2.600000,-4.482756
2.601000,-2.620606
2.602000,-0.856464
2.603000,0.780396
2.604000,1.187701
2.605000,0.897496
2.606000,0.329814
2.607000,-0.017669
2.608000,-0.293873
2.609000,-1.531063
2.610000,-4.730958
2.611000,-5.740312
2.612000,-5.073349
2.613000,-3.604503
2.614000,-2.163660
2.615000,-0.875556
2.616000,-0.027851
2.617000,-0.025306
2.618000,-0.697360
2.619000,-1.216674
2.620000,-1.029568
2.621000,-0.510254
2.622000,1.362079
2.623000,0.547468
2.624000,-1.482696
2.625000,-2.184025
2.626000,-2.252758
2.627000,-1.650709
2.628000,-1.051207
2.629000,-0.805550
2.630000,-0.878102
2.631000,-1.184854
2.632000,-1.487787
2.633000,-1.491606
2.634000,-1.905275
2.635000,-1.951097
2.636000,-1.580704
2.637000,-0.791549
2.638000,-0.838644
2.639000,-1.011749
2.640000,-2.759344
2.641000,-3.719058
2.642000,-4.080542
2.643000,-4.379657
2.644000,-3.637597
2.645000,-2.498414
2.646000,-1.727079
2.647000,-1.587068
2.648000,-2.512415
2.649000,-2.545509
2.650000,-2.486959
2.651000,-2.091109
2.652000,-1.508152
2.653000,-0.713907
2.654000,-0.352423
2.655000,-0.094038
2.656000,0.099432
2.657000,0.247080
2.658000,0.375636
2.659000,0.081612
2.660000,-0.750819
2.661000,-2.539145
2.662000,-4.420388
2.663000,-5.125535
2.664000,-4.480211
2.665000,-4.163276
2.666000,-3.769971
2.667000,-3.286296
2.668000,-3.509041
2.669000,-3.857797
2.670000,-4.967704
2.671000,-4.010536
2.672000,-2.114020
2.673000,-0.526801
2.674000,1.206794
2.675000,2.539447
2.676000,3.276415
2.677000,3.201318
2.678000,3.267506
2.679000,3.158042
2.680000,2.268334
2.681000,1.239887
2.682000,0.443096
2.683000,-0.320602
2.684000,-0.875556
2.685000,-1.350322
2.686000,-1.487787
2.687000,-1.686349
2.688000,-2.512415
2.689000,-3.068642
2.690000,-4.167094
2.691000,-5.861231
2.692000,-6.240534
2.693000,-5.969422
2.694000,-5.419559
2.695000,-4.616403
2.696000,-3.624869
2.697000,-2.777164
2.698000,-1.864545
2.699000,-0.894648
2.700000,-0.570077
2.701000,-0.300237
2.702000,0.206349
2.703000,0.650567
2.704000,0.632748
2.705000,0.338724
2.706000,-0.351150
2.707000,-1.130122
2.708000,-1.210310
2.709000,-1.352867
2.710000,-1.520881
2.711000,-1.953643
2.712000,-3.192107
2.713000,-3.571410
2.714000,-3.267204
2.715000,-3.674509
2.716000,-3.850160
2.717000,-3.604503
2.718000,-3.528134
2.719000,-3.316844
2.720000,-2.730069
2.721000,-1.422873
2.722000,0.174529
2.723000,0.486372
2.724000,-0.358787
2.725000,-1.711805
2.726000,-2.000738
2.727000,-1.009203
2.728000,0.561469
2.729000,1.158426
2.730000,-0.021487
2.731000,-1.676166
2.732000,-1.603615
2.733000,-1.051207
2.734000,-0.647719
2.735000,-0.099130
2.736000,-0.143679
2.737000,-0.114404
2.738000,-0.444067
2.739000,-1.276497
2.740000,-2.120384
2.741000,-3.478493
2.742000,-5.237544
2.743000,-4.991888
2.744000,-3.953259
2.745000,-2.382587
2.746000,-0.829734
2.747000,0.196167
2.748000,0.350179
2.749000,0.382000
2.750000,-0.318056
2.751000,-1.275225
2.752000,-2.378768
2.753000,-3.097917
2.754000,-2.842078
2.755000,-2.730069
2.756000,-3.124647
2.757000,-3.633779
2.758000,-3.782700
2.759000,-4.398749
2.760000,-4.923155
2.761000,-4.807328
2.762000,-4.162003
2.763000,-3.165377
2.764000,-2.070743
2.765000,-0.845008
2.766000,0.607291
2.767000,2.594179
2.768000,3.049852
2.769000,3.154224
2.770000,2.633636
2.771000,1.283164
2.772000,0.481281
2.773000,-0.460613
2.774000,-0.929015
2.775000,-1.291771
2.776000,-1.349049
2.777000,-1.289226
2.778000,-1.183581
2.779000,-1.191218
2.780000,-1.691440
2.781000,-2.028740
2.782000,-2.597695
2.783000,-3.260839
2.784000,-3.641416
2.785000,-4.347836
2.786000,-4.533669
2.787000,-4.550216
2.788000,-4.457300
2.789000,-3.498859
2.790000,-2.374950
2.791000,-1.471240
2.792000,-0.782639
2.793000,-0.072400
2.794000,0.432913
2.795000,0.258536
2.796000,0.252171
2.797000,-0.025306
2.798000,-0.150043
2.799000,-0.834825
2.800000,-1.231948
2.801000,-3.226473
2.802000,-3.397032
2.803000,-2.685520
2.804000,-2.338038
2.805000,-2.512415
2.806000,-1.934551
2.807000,-1.413963
2.808000,-0.791549
2.809000,-0.408427
2.810000,-1.522154
2.811000,-2.885355
2.812000,-3.389395
2.813000,-3.831067
2.814000,-3.188288
2.815000,-2.184025
2.816000,-1.436874
2.817000,-0.679540
2.818000,-2.698249
2.819000,-3.291387
2.820000,-3.646507
2.821000,-3.388122
2.822000,-2.931176
2.823000,-2.105110
2.824000,-1.046115
2.825000,-0.029124
2.826000,0.045973
2.827000,0.026880
2.828000,0.454551
2.829000,0.715481
2.830000,0.838946
2.831000,0.690025
2.832000,0.990413
2.833000,0.786760
2.834000,0.567833
2.835000,0.445642
2.836000,0.166892
2.837000,0.017971
2.838000,-0.416064
2.839000,-0.323148
2.840000,-0.712634
2.841000,-1.802176
2.842000,-3.003728
2.843000,-3.439036
2.844000,-3.655417
2.845000,-4.001626
2.846000,-3.913801
2.847000,-3.897254
2.848000,-3.853978
2.849000,-3.363939
2.850000,-2.483140
2.851000,-1.585795
2.852000,-0.846281
2.853000,-0.717725
2.854000,-1.295590
2.855000,-1.825087
2.856000,-2.437318
2.857000,-2.612969
2.858000,-2.456411
2.859000,-2.038923
2.860000,-1.892547
2.861000,-1.751263
2.862000,-1.700350
2.863000,-1.702895
2.864000,-1.291771
2.865000,-1.407599
2.866000,-1.369414
2.867000,-0.869192
2.868000,-0.496253
2.869000,-0.592988
2.870000,-0.935379
2.871000,-0.964654
2.872000,-1.578158
2.873000,-3.185742
2.874000,-3.851432
2.875000,-3.022820
2.876000,-1.648164
2.877000,-2.474230
2.878000,-2.466593
2.879000,-1.763991
2.880000,-1.282862
2.881000,-0.804278
2.882000,-0.465705
2.883000,-0.528073
2.884000,-0.781367
2.885000,-0.965927
2.886000,-1.472513
2.887000,-2.367313
2.888000,-3.029184
2.889000,-4.447117
2.890000,-4.438207
2.891000,-4.095816
2.892000,-2.968088
2.893000,-2.187844
2.894000,-2.335492
2.895000,-1.637981
2.896000,-0.745727
2.897000,0.016698
2.898000,0.387091
2.899000,-1.449602
2.900000,-1.986737
2.901000,-1.636708
2.902000,-1.025750
2.903000,-0.393153
2.904000,0.085431
2.905000,-0.263325
2.906000,-0.703724
2.907000,-0.839917
2.908000,-0.769911
2.909000,-0.480979
2.910000,-0.850099
2.911000,-0.843735
2.912000,-0.801732
2.913000,-1.018113
2.914000,-0.856464
2.915000,0.146526
2.916000,0.711663
2.917000,0.154163
2.918000,-0.852645
2.919000,-1.774174
2.920000,-2.761890
2.921000,-4.187460
2.922000,-4.884970
2.923000,-5.170084
2.924000,-4.869696
2.925000,-4.505667
2.926000,-3.744515
2.927000,-2.848442
2.928000,-2.448774
2.929000,-1.696531
2.930000,-0.750819
2.931000,0.556378
2.932000,-0.464432
2.933000,-0.926469
2.934000,-0.531892
2.935000,-0.627354
2.936000,-0.747000
2.937000,-2.168751
2.938000,-3.525588
2.939000,-3.878162
2.940000,-4.746232
2.941000,-4.972796
2.942000,-4.035993
2.943000,-2.923539
2.944000,-2.060561
2.945000,-0.864101
2.946000,-0.069855
2.947000,0.165619
2.948000,0.297993
2.949000,0.490191
2.950000,0.967502
2.951000,2.340885
2.952000,3.459703
2.953000,2.830925
2.954000,1.528820
2.955000,0.478735
2.956000,-0.301510
2.957000,-0.787731
2.958000,-1.233221
2.959000,-1.636708
2.960000,-2.206936
2.961000,-2.866262
2.962000,-3.059732
2.963000,-3.131011
2.964000,-3.251930
2.965000,-4.905336
2.966000,-5.583754
2.967000,-5.452653
2.968000,-4.671135
2.969000,-3.736878
2.970000,-2.521325
2.971000,-1.672348
2.972000,-1.295590
2.973000,-0.996475
2.974000,-0.771184
2.975000,-0.772457
2.976000,-0.747000
2.977000,-0.576441
2.978000,-0.820824
2.979000,-1.371960
2.980000,-1.716897
2.981000,-1.893820
2.982000,-2.107655
2.983000,-2.380041
2.984000,-2.466593
2.985000,-3.055914
2.986000,-4.321107
2.987000,-6.002515
2.988000,-5.317733
2.989000,-4.186187
2.990000,-3.278659
2.991000,-2.411862
2.992000,-2.651154
2.993000,-4.220553
2.994000,-6.143799
2.995000,-6.325814
2.996000,-4.492939
2.997000,-2.624424
2.998000,-1.159397
2.999000,0.800761
3.000000,2.553448
3.001000,3.724452
3.002000,4.564519
3.003000,4.918366
3.004000,4.476694
3.005000,3.446975
3.006000,3.210228
3.007000,2.135960
3.008000,0.836400
3.009000,-2.329128
3.010000,-2.998636
3.011000,-2.716068
3.012000,-2.499687
3.013000,-1.902730
3.014000,-1.062662
3.015000,-0.712634
3.016000,-0.926469
3.017000,-1.606160
3.018000,-1.911640
3.019000,-1.982918
3.020000,-2.055469
3.021000,-1.534882
3.022000,-0.879374
3.023000,-0.769911
3.024000,-1.378324
3.025000,-2.423317
3.026000,-2.195481
3.027000,-2.241303
3.028000,-2.896810
3.029000,-3.398305
3.030000,-3.573956
3.031000,-3.883253
3.032000,-4.015628
3.033000,-3.982534
3.034000,-3.906164
3.035000,-3.878162
3.036000,-2.620606
3.037000,-1.323592
3.038000,-0.501344
3.039000,-0.040580
3.040000,0.746029
3.041000,0.763849
3.042000,0.371817
3.043000,0.020516
3.044000,-0.352423
3.045000,-1.177217
3.046000,-1.709260
3.047000,-2.220937
3.048000,-2.316400
3.049000,-2.274396
3.050000,-2.173843
3.051000,-1.844180
3.052000,-1.525972
3.053000,-1.723261
3.054000,-1.887456
3.055000,-3.958350
3.056000,-6.646567
3.057000,-7.510819
3.058000,-6.476008
3.059000,-3.884526
3.060000,-1.098301
3.061000,0.669660
3.062000,1.474088
3.063000,0.816035
3.064000,-0.222594
3.065000,-2.054197
3.066000,-2.196754
3.067000,-1.496697
3.068000,-0.759728
3.069000,-0.254415
3.070000,0.235625
3.071000,0.417639
3.072000,0.632748
3.073000,0.267445
3.074000,-2.282033
3.075000,-2.045287
3.076000,-1.468695
3.077000,-0.795368
3.078000,0.445642
3.079000,0.989140
3.080000,-0.143679
3.081000,-0.979928
3.082000,-1.099574
3.083000,-1.588341
3.084000,-2.097473
3.085000,-1.697804
3.086000,-1.693986
3.087000,-1.562884
3.088000,-1.612525
3.089000,-1.630344
3.090000,-1.599796
3.091000,-1.256132
3.092000,-0.917559
3.093000,-0.971018
3.094000,-0.561167
3.095000,-0.379152
3.096000,-0.786458
3.097000,-0.725362
3.098000,-0.572622
3.099000,-1.454694
3.100000,-2.164933
3.101000,-2.584967
3.102000,-3.153922
3.103000,-3.249384
3.104000,-3.258294
3.105000,-3.608322
3.106000,-3.484857
3.107000,-3.725422
3.108000,-4.067814
3.109000,-4.760233
3.110000,-5.991060
3.111000,-6.208714
3.112000,-4.851877
3.113000,-3.414852
3.114000,-2.002011
3.115000,-0.475887
3.116000,-0.198410
3.117000,0.406184
3.118000,-0.060945
3.119000,-0.710088
3.120000,-0.646447
3.121000,-0.898467
3.122000,-0.785185
3.123000,-1.447057
3.124000,-1.895093
3.125000,-1.755082
3.126000,-3.258294
3.127000,-3.417397
3.128000,-2.956633
3.129000,-1.346503
3.130000,-0.259506
3.131000,-0.939197
3.132000,-3.797974
3.133000,-4.030902
3.134000,-2.898083
3.135000,-1.259951
3.136000,0.407457
3.137000,1.575915
3.138000,2.660366
3.139000,2.940388
3.140000,2.227604
3.141000,-0.147497
3.142000,-2.269305
3.143000,-3.409760
3.144000,-3.481039
3.145000,-3.668145
3.146000,-4.188732
3.147000,-4.182368
3.148000,-3.348665
3.149000,-2.643517
3.150000,-1.690167
3.151000,-0.699905
3.152000,-0.015123
3.153000,0.365453
3.154000,0.879677
3.155000,1.545367
3.156000,1.941217
3.157000,2.008677
3.158000,0.435459
3.159000,-2.102564
3.160000,-2.866262
3.161000,-3.185742
3.162000,-3.181924
3.163000,-2.406770
3.164000,-1.407599
3.165000,-1.025750
3.166000,-1.159397
3.167000,-1.384688
3.168000,-1.537428
3.169000,-1.230676
3.170000,-0.577714
3.171000,-0.659175
3.172000,-0.852645
3.173000,-1.150487
3.174000,-1.542519
3.175000,-1.858181
3.176000,-3.022820
3.177000,-2.873899
3.178000,-2.798802
3.179000,-5.391557
3.180000,-5.959239
3.181000,-6.899860
3.182000,-7.254980
3.183000,-4.798418
3.184000,-2.072016
3.185000,-0.034215
3.186000,1.430812
3.187000,2.125777
3.188000,1.624282
3.189000,1.614099
3.190000,1.462633
3.191000,1.519910
3.192000,0.415094
3.193000,-0.580259
3.194000,-0.935379
3.195000,-1.214129
3.196000,-1.603615
3.197000,-2.212027
3.198000,-2.611696
3.199000,-2.952815
3.200000,-3.268476
3.201000,-3.767426
3.202000,-4.032174
3.203000,-4.322380
3.204000,-4.190005
3.205000,-3.771244
3.206000,-3.159013
3.207000,-2.941359
3.208000,-2.469139
3.209000,-1.807268
3.210000,-1.020659
3.211000,-1.298136
3.212000,-2.313854
3.213000,-1.906548
3.214000,-1.132668
3.215000,-1.023204
3.216000,-0.547166
3.217000,0.389637
3.218000,0.980230
3.219000,0.656931
3.220000,-0.524255
3.221000,-1.200128
3.222000,-1.346503
3.223000,-1.203946
3.224000,-2.208209
3.225000,-3.334664
3.226000,-3.398305
3.227000,-3.553590
3.228000,-3.456855
3.229000,-3.201016
3.230000,-2.695703
3.231000,-2.205663
3.232000,-1.837815
3.233000,-3.398305
3.234000,-2.682975
3.235000,-1.552702
3.236000,-0.150043
3.237000,0.376909
3.238000,-0.092766
3.239000,-2.782255
3.240000,-4.517123
3.241000,-3.934166
3.242000,-2.490777
3.243000,-0.824643
3.244000,0.518193
3.245000,1.493181
3.246000,2.651456
3.247000,2.852563
3.248000,2.423619
3.249000,1.449904
3.250000,-1.125031
3.251000,-1.561611
3.252000,-1.271406
3.253000,-0.558621
3.254000,-0.305328
3.255000,-0.222594
3.256000,-0.227686
3.257000,-0.745727
3.258000,-1.793266
3.259000,-2.348220
3.260000,-2.274396
3.261000,-2.243848
3.262000,-2.564601
3.263000,-2.696976
3.264000,-2.387678
3.265000,-2.036377
3.266000,-2.096200
3.267000,-2.429681
3.268000,-2.526416
3.269000,-2.350766
3.270000,-2.036377
3.271000,-1.974008
3.272000,-2.696976
3.273000,-3.123374
3.274000,-3.279932
3.275000,-2.864989
3.276000,-2.268032
3.277000,-2.292216
3.278000,-2.049105
3.279000,-1.738535
3.280000,-1.783084
3.281000,-2.063106
3.282000,-1.783084
3.283000,-1.481423
3.284000,-1.559066
3.285000,-2.396588
3.286000,-2.545509
3.287000,-2.074562
3.288000,-1.345230
3.289000,-1.240858
3.290000,-1.010476
3.291000,-1.158124
3.292000,-1.552702
3.293000,-2.527689
3.294000,-3.198471
3.295000,-3.167923
3.296000,-3.257021
3.297000,-3.021547
3.298000,-2.584967
3.299000,-2.528962
3.300000,-3.204835
3.301000,-3.208653
3.302000,-2.304944
3.303000,-2.064379
3.304000,-2.413135
3.305000,-2.282033
3.306000,-1.934551
3.307000,-3.141193
3.308000,-3.771244
3.309000,-3.087735
3.310000,-1.665983
3.311000,0.303085
3.312000,2.157598
3.313000,2.578905
3.314000,2.130868
3.315000,-1.483969
3.316000,-3.959623
3.317000,-3.092826
3.318000,-1.076663
3.319000,1.726109
3.320000,2.986210
3.321000,3.015485
3.322000,2.396890
3.323000,1.405355
3.324000,0.151618
3.325000,-0.883193
3.326000,-0.967200
3.327000,-0.925196
3.328000,-0.421156
3.329000,-0.160226
3.330000,-0.396972
3.331000,-0.538256
3.332000,-0.884466
3.333000,-1.249768
3.334000,-2.938813
3.335000,-3.651598
3.336000,-3.314298
3.337000,-2.512415
3.338000,-2.436046
3.339000,-2.523871
3.340000,-2.750435
3.341000,-2.769527
3.342000,-2.946450
3.343000,-4.739868
3.344000,-4.994434
3.345000,-4.258738
3.346000,-3.412306
3.347000,-2.758072
3.348000,-2.938813
3.349000,-2.689339
3.350000,-1.687622
3.351000,-0.763547
3.352000,-0.137315
3.353000,0.375636
3.354000,0.695116
3.355000,0.938227
3.356000,0.012879
3.357000,-1.168307
3.358000,-1.928186
3.359000,-2.135658
3.360000,-1.929459
3.361000,-1.634163
3.362000,-1.646891
3.363000,-1.445784
3.364000,-1.327411
3.365000,-1.284134
3.366000,-1.520881
3.367000,-1.421600
3.368000,-2.040195
3.369000,-2.863716
3.370000,-3.398305
3.371000,-3.167923
3.372000,-2.912084
3.373000,-2.751707
3.374000,-2.629516
3.375000,-2.877718
3.376000,-2.726251
3.377000,-2.469139
3.378000,-2.416953
3.379000,-1.907821
3.380000,-1.920549
3.381000,-1.892547
3.382000,-1.841634
3.383000,-2.086017
3.384000,-4.027083
3.385000,-5.442470
3.386000,-7.355533
3.387000,-6.506556
3.388000,-3.327027
3.389000,-0.220049
3.390000,2.239059
3.391000,3.854280
3.392000,4.094845
3.393000,3.780456
3.394000,2.660366
3.395000,1.452450
3.396000,0.178347
3.397000,-0.412246
3.398000,-0.048216
3.399000,-0.174227
3.400000,-0.791549
3.401000,-0.985019
3.402000,-0.718998
3.403000,-0.600625
3.404000,-0.115676
3.405000,-0.823370
3.406000,-1.431783
3.407000,-1.237040
3.408000,-1.669802
3.409000,-2.317672
3.410000,-2.693157
3.411000,-2.794984
3.412000,-3.237928
3.413000,-4.079269
3.414000,-4.566763
3.415000,-5.068258
3.416000,-4.643133
3.417000,-4.261284
3.418000,-4.467482
3.419000,-3.758516
3.420000,-2.391497
3.421000,-2.408043
3.422000,-2.304944
3.423000,-1.420327
3.424000,-0.370242
3.425000,0.320904
3.426000,0.505465
3.427000,0.473644
3.428000,0.444369
3.429000,0.562742
3.430000,0.491463
3.431000,0.090522
3.432000,-0.244232
3.433000,-0.119495
3.434000,-0.678267
3.435000,-1.761446
3.436000,-2.289670
3.437000,-3.146285
3.438000,-3.497586
3.439000,-3.417397
3.440000,-3.136102
3.441000,-3.503950
3.442000,-4.471301
3.443000,-4.128909
3.444000,-3.367757
3.445000,-4.486575
3.446000,-4.196369
3.447000,-2.738979
3.448000,-0.965927
3.449000,0.632748
3.450000,1.047690
3.451000,1.285709
3.452000,1.084602
3.453000,0.562742
3.454000,-0.335876
3.455000,-1.319774
3.456000,-4.912973
3.457000,-6.118343
3.458000,-5.796317
3.459000,-4.380930
3.460000,-2.303671
3.461000,-0.427520
3.462000,0.477462
3.463000,0.660750
3.464000,0.303085
3.465000,0.720573
3.466000,1.900486
3.467000,2.072318
3.468000,1.606462
3.469000,-0.500071
3.470000,-2.302398
3.471000,-2.805166
3.472000,-3.584138
3.473000,-3.403396
3.474000,-2.508597
3.475000,-2.203118
3.476000,-1.919277
3.477000,-1.520881
3.478000,-1.224311
3.479000,-0.934106
3.480000,-1.205219
3.481000,-1.318501
3.482000,-1.262496
3.483000,-1.066480
3.484000,-0.927742
3.485000,-1.808540
3.486000,-2.495869
3.487000,-2.820440
3.488000,-2.666428
3.489000,-2.110201
3.490000,-1.514517
3.491000,-0.955744
3.492000,-0.706270
3.493000,-0.697360
3.494000,-0.764820
3.495000,-0.679540
3.496000,-1.433056
3.497000,-3.657962
3.498000,-5.683035
3.499000,-6.904952
3.500000,-8.177782
3.501000,-9.767546
3.502000,-9.845189
3.503000,-6.873131
3.504000,-3.482312
3.505000,-0.011304
3.506000,2.900931
3.507000,5.110563
3.508000,6.091915
3.509000,6.112281
3.510000,6.009181
3.511000,5.165295
3.512000,3.287871
3.513000,1.302256
3.514000,0.476189
3.515000,-0.069855
3.516000,-0.990111
3.517000,-2.350766
3.518000,-3.299024
3.519000,-3.554863
3.520000,-3.404669
3.521000,-3.061005
3.522000,-2.638426
3.523000,-2.131839
3.524000,-2.056742
3.525000,-3.487403
3.526000,-4.968977
3.527000,-4.284195
3.528000,-3.498859
3.529000,-3.810702
3.530000,-3.783973
3.531000,-2.768254
3.532000,-2.106383
3.533000,-1.710532
3.534000,-1.273952
3.535000,-0.563713
3.536000,-1.135213
3.537000,-1.578158
3.538000,-1.347776
3.539000,-0.894648
3.540000,-0.507708
3.541000,-0.879374
3.542000,-1.123758
3.543000,-1.123758
3.544000,-0.744455
3.545000,-0.634991
3.546000,-1.181035
3.547000,-1.240858
3.548000,-2.082199
3.549000,-3.570137
3.550000,-4.016900
3.551000,-3.654144
3.552000,-3.011365
3.553000,-2.265486
3.554000,-1.823814
3.555000,-1.382142
3.556000,-1.463603
3.557000,-1.496697
3.558000,-1.504334
3.559000,-1.384688
3.560000,-1.147942
3.561000,-1.890001
3.562000,-3.189561
3.563000,-4.156912
3.564000,-5.572299
3.565000,-5.745404
3.566000,-5.269365
3.567000,-3.547226
3.568000,-2.311308
3.569000,-2.184025
3.570000,-1.925641
3.571000,-1.807268
3.572000,0.159255
3.573000,1.486816
3.574000,1.206794
3.575000,1.122787
3.576000,1.082057
3.577000,0.982776
3.578000,-0.734272
3.579000,-5.651214
3.580000,-7.131515
3.581000,-5.685581
3.582000,-2.730069
3.583000,-0.078764
3.584000,1.812661
3.585000,2.890748
3.586000,3.210228
3.587000,2.664184
3.588000,1.821571
3.589000,1.699379
3.590000,0.847856
3.591000,0.686206
3.592000,-0.069855
3.593000,-0.533165
3.594000,-0.908650
3.595000,-1.015567
3.596000,-0.993929
3.597000,-1.019386
3.598000,-1.139032
3.599000,-1.397416
3.600000,-1.780538
3.601000,-2.098746
3.602000,-2.590058
3.603000,-2.623152
3.604000,-2.679156
3.605000,-2.661336
3.606000,-2.474230
3.607000,-2.746616
3.608000,-2.534053
3.609000,-2.586239
3.610000,-2.610423
3.611000,-2.831896
3.612000,-3.053368
3.613000,-4.384748
3.614000,-5.257910
3.615000,-5.209542
3.616000,-4.617676
3.617000,-3.473402
3.618000,-2.436046
3.619000,-1.775447
3.620000,-1.128849
3.621000,-0.626081
3.622000,-0.598079
3.623000,-0.735545
3.624000,-0.836098
3.625000,-1.415236
3.626000,-1.943460
3.627000,-2.110201
3.628000,-2.012193
3.629000,-2.752980
3.630000,-2.900628
3.631000,-3.173014
3.632000,-2.904447
3.633000,-1.897638
3.634000,-1.489060
3.635000,-1.108484
3.636000,-0.977382
3.637000,-1.581977
3.638000,-2.777164
3.639000,-2.299853
3.640000,-1.650709
3.641000,-1.020659
3.642000,-0.094038
3.643000,0.333632
3.644000,0.355271
3.645000,0.038336
3.646000,-2.891719
3.647000,-4.716957
3.648000,-4.330017
3.649000,-3.360120
3.650000,-1.606160
3.651000,0.141435
3.652000,0.938227
3.653000,-0.809369
3.654000,-1.313410
3.655000,-0.965927
3.656000,-0.324421
3.657000,0.269991
3.658000,1.138061
3.659000,1.698106
3.660000,1.467724
3.661000,0.831309
3.662000,-1.321046
3.663000,-3.446673
3.664000,-3.722877
3.665000,-3.516678
3.666000,-3.397032
3.667000,-2.984635
3.668000,-2.223483
3.669000,-1.499243
3.670000,-1.137759
3.671000,-0.703724
3.672000,0.392183
3.673000,1.129151
3.674000,0.639112
3.675000,-0.366424
3.676000,-0.717725
3.677000,-0.794095
3.678000,-1.049934
3.679000,-1.172125
3.680000,-0.861555
3.681000,-1.015567
3.682000,-1.744899
3.683000,-2.540418
3.684000,-2.425863
3.685000,-2.171297
3.686000,-2.316400
3.687000,-1.870909
3.688000,-1.529791
3.689000,-1.790721
3.690000,-2.523871
3.691000,-3.309207
3.692000,-3.819612
3.693000,-3.880708
3.694000,-3.813248
3.695000,-3.759789
3.696000,-5.845957
3.697000,-7.788296
3.698000,-6.856584
3.699000,-4.747505
3.700000,-2.469139
3.701000,-0.287509
3.702000,1.621736
3.703000,2.375252
3.704000,2.627272
3.705000,1.727381
3.706000,0.739665
3.707000,0.608564
3.708000,-0.097857
3.709000,-0.391881
3.710000,-2.005829
3.711000,-3.295206
3.712000,-4.593492
3.713000,-5.873959
3.714000,-4.938429
3.715000,-3.380485
3.716000,-1.919277
3.717000,-0.716452
3.718000,0.240716
3.719000,0.905133
3.720000,0.640385
3.721000,1.087148
3.722000,0.845310
3.723000,-0.002395
3.724000,-0.693541
3.725000,-1.326138
3.726000,-2.341856
3.727000,-3.511587
3.728000,-6.111979
3.729000,-6.702572
3.730000,-5.809045
3.731000,-4.566763
3.732000,-3.393214
3.733000,-2.503506
3.734000,-1.471240
3.735000,-0.494980
3.736000,0.126161
3.737000,0.145254
3.738000,-0.302782
3.739000,0.026880
3.740000,1.374807
3.741000,2.455440
3.742000,2.759646
3.743000,2.031588
3.744000,1.687924
3.745000,1.178792
3.746000,0.589471
3.747000,-0.094038
3.748000,-0.828461
3.749000,-3.290114
3.750000,-4.349109
3.751000,-4.755142
3.752000,-4.091997
3.753000,-3.445400
3.754000,-3.889617
3.755000,-4.533669
3.756000,-4.396204
3.757000,-3.444127
3.758000,-2.850988
3.759000,-2.247667
3.760000,-1.128849
3.761000,-1.424146
3.762000,-0.445339
3.763000,0.499100
3.764000,1.108786
3.765000,1.742655
3.766000,1.643375
3.767000,1.237342
3.768000,0.530921
3.769000,-0.538256
3.770000,-1.384688
3.771000,-2.009648
3.772000,-2.698249
3.773000,-4.053812
3.774000,-6.500192
3.775000,-6.920226
3.776000,-6.156528
3.777000,-4.939702
3.778000,-3.183197
3.779000,-1.234494
3.780000,0.109614
3.781000,0.674751
3.782000,0.996777
3.783000,1.149517
3.784000,1.148244
3.785000,1.465178
3.786000,1.043872
3.787000,-0.296418
3.788000,-2.093654
3.789000,-2.884082
3.790000,-2.918448
3.791000,-2.663882
3.792000,-2.228574
3.793000,-1.580704
3.794000,-1.093210
3.795000,-0.901013
3.796000,-0.972291
3.797000,-1.060116
3.798000,-3.651598
3.799000,-4.902790
3.800000,-5.508657
3.801000,-4.933338
3.802000,-3.702511
3.803000,-3.694874
3.804000,-4.332562
3.805000,-3.857797
3.806000,-3.566319
3.807000,-3.566319
3.808000,-2.635880
3.809000,-1.161943
3.810000,0.660750
3.811000,1.383717
3.812000,1.535184
3.813000,0.916589
3.814000,0.404911
3.815000,0.028153
3.816000,-0.287509
3.817000,-0.935379
3.818000,-0.827188
3.819000,-0.899740
3.820000,-1.486514
3.821000,-1.462331
3.822000,-3.002455
3.823000,-2.784801
3.824000,-2.181480
3.825000,-1.337593
3.826000,-0.748273
3.827000,0.193621
3.828000,0.122343
3.829000,-1.382142
3.830000,-2.276942
3.831000,-2.663882
3.832000,-2.700794
3.833000,-2.684247
3.834000,-3.934166
3.835000,-3.897254
3.836000,-3.640143
3.837000,-2.801348
3.838000,-1.902730
3.839000,-0.669358
3.840000,0.308176
3.841000,0.359089
3.842000,-0.409700
3.843000,-0.962108
3.844000,-0.862828
3.845000,-0.641355
3.846000,-0.015123
3.847000,0.922953
3.848000,1.264071
3.849000,0.789306
3.850000,-0.122041
3.851000,-0.777548
3.852000,-1.341412
3.853000,-2.131839
3.854000,-2.380041
3.855000,-2.817895
3.856000,-4.910427
3.857000,-4.769143
3.858000,-3.897254
3.859000,-2.522598
3.860000,-1.201400
3.861000,-0.469523
3.862000,-0.680813
3.863000,-1.097028
3.864000,-1.243404
3.865000,-1.537428
3.866000,-1.419054
3.867000,-1.791994
3.868000,-1.606160
3.869000,-1.415236
3.870000,-1.640527
3.871000,-2.696976
3.872000,-3.407215
3.873000,-3.740696
3.874000,-3.211199
3.875000,-2.882809
3.876000,-2.654972
3.877000,-2.128021
3.878000,-2.369858
3.879000,-2.248940
3.880000,-2.010920
3.881000,-1.771628
3.882000,-1.293044
3.883000,-1.018113
3.884000,-0.768638
3.885000,-1.466149
3.886000,-2.339310
3.887000,-3.582865
3.888000,-2.833169
3.889000,-1.896366
3.890000,-0.771184
3.891000,0.068884
3.892000,0.373090
3.893000,0.543649
3.894000,0.928044
3.895000,0.644203
3.896000,0.224169
3.897000,0.109614
3.898000,-0.010032
3.899000,-0.748273
3.900000,-1.497970
3.901000,-2.873899
3.902000,-3.643961
3.903000,-3.908710
3.904000,-4.170913
3.905000,-4.414023
3.906000,-4.853150
3.907000,-4.118727
3.908000,-3.213745
3.909000,-1.883637
3.910000,-0.329512
3.911000,0.726937
3.912000,1.242433
3.913000,1.101149
3.914000,-0.992656
3.915000,-1.461058
3.916000,-1.504334
3.917000,-1.667256
3.918000,-1.999465
3.919000,-1.475059
3.920000,-1.200128
3.921000,-1.355413
3.922000,-1.688894
3.923000,-1.924368
3.924000,-1.556520
3.925000,-1.363050
3.926000,-2.050378
3.927000,-3.763607
3.928000,-5.535387
3.929000,-4.995707
3.930000,-3.269749
3.931000,-0.992656
3.932000,0.253444
3.933000,-0.189501
3.934000,-0.351150
3.935000,-0.133496
3.936000,-0.615899
3.937000,-0.898467
3.938000,-1.326138
3.939000,-1.046115
3.940000,-0.699905
3.941000,-0.755910
3.942000,-0.343513
3.943000,0.005242
3.944000,0.201258
3.945000,-0.283690
3.946000,-0.654084
3.947000,-0.883193
3.948000,-1.051207
3.949000,-1.153033
3.950000,-1.079209
3.951000,-1.976554
3.952000,-2.873899
3.953000,-3.290114
3.954000,-4.277831
3.955000,-6.245626
3.956000,-5.744131
3.957000,-4.242191
3.958000,-2.597695
3.959000,-1.704168
3.960000,-0.726635
3.961000,-0.021487
3.962000,1.042599
3.963000,1.339168
3.964000,0.508010
3.965000,0.135071
3.966000,-0.809369
3.967000,-1.426691
3.968000,-1.659619
3.969000,-1.632890
3.970000,-1.874728
3.971000,-1.882365
3.972000,-1.967644
3.973000,-2.271850
3.974000,-2.560783
3.975000,-3.705057
3.976000,-6.091613
3.977000,-6.706390
3.978000,-5.539205
3.979000,-3.647780
3.980000,-2.130566
3.981000,-1.332502
3.982000,-0.736818
3.983000,-0.246778
3.984000,-0.940470
3.985000,-2.479322
3.986000,-5.907053
3.987000,-8.958026
3.988000,-8.184146
3.989000,-5.898143
3.990000,-2.700794
3.991000,0.622565
3.992000,2.652729
3.993000,3.515707
3.994000,4.075753
3.995000,4.928549
3.996000,4.934913
3.997000,5.088925
3.998000,4.561974
3.999000,3.867009
4.000000,2.216148
4.001000,0.973866
4.002000,0.192348
4.003000,-0.610807
4.004000,-1.271406
4.005000,-1.611252
4.006000,-1.682530
4.007000,-2.086017
4.008000,-2.405498
4.009000,-2.391497
4.010000,-2.772073
4.011000,-3.299024
4.012000,-3.511587
4.013000,-3.464492
4.014000,-3.285023
4.015000,-2.915902
4.016000,-3.152649
4.017000,-3.436490
4.018000,-3.730514
4.019000,-4.428024
4.020000,-5.717401
4.021000,-4.669862
4.022000,-2.685520
4.023000,-1.207765
4.024000,-0.150043
4.025000,0.506737
4.026000,0.776577
4.027000,0.165619
4.028000,-0.645174
4.029000,-1.005385
4.030000,-1.566703
4.031000,-2.559510
4.032000,-2.857352
4.033000,-2.447501
4.034000,-2.143295
4.035000,-2.260395
4.036000,-2.550600
4.037000,-2.299853
4.038000,-2.063106
4.039000,-2.215846
4.040000,-2.149659
4.041000,-2.579875
4.042000,-2.839533
4.043000,-2.948996
4.044000,-3.078825
4.045000,-2.553146
4.046000,-2.583694
4.047000,-3.431399
4.048000,-3.054641
4.049000,-3.622323
4.050000,-4.466209
4.051000,-4.028356
4.052000,-2.913357
4.053000,-1.503061
4.054000,-0.067309
4.055000,0.410002
4.056000,0.191076
4.057000,0.452006
4.058000,0.080339
4.059000,-0.371515
4.060000,-0.108040
4.061000,-0.293873
4.062000,-1.394871
4.063000,-1.999465
4.064000,-3.175560
4.065000,-3.691056
4.066000,-5.839593
4.067000,-5.212088
4.068000,-3.365211
4.069000,-2.152204
4.070000,-2.352039
4.071000,-1.634163
4.072000,-0.101675
4.073000,1.034962
4.074000,2.073591
4.075000,2.488534
4.076000,2.921296
4.077000,2.834743
4.078000,3.056216
4.079000,2.763465
4.080000,1.637010
4.081000,0.595835
4.082000,-0.385516
4.083000,-0.399518
4.084000,-0.370242
4.085000,0.124888
4.086000,-0.431338
4.087000,-1.187399
4.088000,-1.336320
4.089000,-1.377051
4.090000,-1.119939
4.091000,-0.973564
4.092000,-1.118667
4.093000,-2.780982
4.094000,-3.845068
4.095000,-4.373293
4.096000,-4.762779
4.097000,-4.864605
4.098000,-4.232009
4.099000,-3.523042
4.100000,-3.342301
4.101000,-3.321935
4.102000,-3.197198
4.103000,-3.491222
4.104000,-3.669418
4.105000,-3.230291
4.106000,-2.425863
4.107000,-1.898911
4.108000,-1.307045
4.109000,-0.712634
4.110000,-0.553530
4.111000,-0.368970
4.112000,-0.039307
4.113000,0.562742
4.114000,0.628929
4.115000,-0.281144
4.116000,-1.131395
4.117000,-1.706714
4.118000,-2.313854
4.119000,-2.806439
4.120000,-2.856079
4.121000,-2.782255
4.122000,-3.147558
4.123000,-3.194652
4.124000,-3.263385
4.125000,-4.118727
4.126000,-3.696147
4.127000,-2.730069
4.128000,-1.518335
4.129000,-0.978655
4.130000,-1.915458
4.131000,-2.722432
4.132000,-2.982090
4.133000,-2.665155
4.134000,-2.237484
4.135000,-3.677055
4.136000,-5.128081
4.137000,-5.208269
4.138000,-4.476392
4.139000,-5.896870
4.140000,-5.310096
4.141000,-2.885355
4.142000,-0.133496
4.143000,2.599270
4.144000,3.836461
4.145000,4.611614
4.146000,5.174205
4.147000,4.723623
4.148000,3.313327
4.149000,2.246696
4.150000,1.014597
4.151000,0.612382
4.152000,0.477462
4.153000,-0.842462
4.154000,-3.819612
4.155000,-4.658407
4.156000,-4.186187
4.157000,-3.173014
4.158000,-2.026194
4.159000,-1.265042
4.160000,-1.071572
4.161000,-0.948107
4.162000,-1.327411
4.163000,-2.004556
4.164000,-2.385132
4.165000,-2.522598
4.166000,-2.163660
4.167000,-1.743626
4.168000,-3.428853
4.169000,-4.523487
4.170000,-4.214189
4.171000,-3.414852
4.172000,-2.861171
4.173000,-2.504778
4.174000,-1.763991
4.175000,-1.891274
4.176000,-2.175115
4.177000,-2.005829
4.178000,-1.728352
4.179000,-1.174671
4.180000,-0.615899
4.181000,-0.318056
4.182000,-0.450431
4.183000,-0.703724
4.184000,-0.544620
4.185000,-0.671903
4.186000,-0.589169
4.187000,-0.582805
4.188000,-0.815733
4.189000,-1.140305
4.190000,-1.254859
4.191000,-1.254859
4.192000,-1.210310
4.193000,-1.266315
4.194000,-1.713078
4.195000,-1.976554
4.196000,-2.192935
4.197000,-3.215018
4.198000,-5.830683
4.199000,-9.108220
4.200000,-9.474795
4.201000,-7.961401
4.202000,-6.043246
4.203000,-3.720331
4.204000,-1.664711
4.205000,-0.003667
4.206000,0.855493
4.207000,1.807570
4.208000,2.632363
4.209000,1.695561
4.210000,0.557651
4.211000,-1.144123
4.212000,-1.676166
4.213000,-1.030841
4.214000,0.697662
4.215000,1.479179
4.216000,2.076137
4.217000,2.133414
4.218000,1.778295
4.219000,0.914043
4.220000,0.290356
4.221000,-0.175499
4.222000,-0.920105
4.223000,-3.017729
4.224000,-3.645234
4.225000,-3.519224
4.226000,-2.680429
4.227000,-1.785629
4.228000,-1.279043
4.229000,-2.038923
4.230000,-2.355857
4.231000,-2.138203
4.232000,-1.645618
4.233000,-0.781367
4.234000,-0.477160
4.235000,-0.365151
4.236000,-1.517062
4.237000,-2.222210
4.238000,-2.793711
4.239000,-3.025366
4.240000,-3.461947
4.241000,-3.342301
4.242000,-2.815349
4.243000,-2.176388
4.244000,-1.767810
4.245000,-1.860726
4.246000,-1.925641
4.247000,-1.257405
4.248000,-0.917559
4.249000,-0.874283
4.250000,-0.559894
4.251000,0.062520
4.252000,0.165619
4.253000,-1.360504
4.254000,-1.939642
4.255000,-2.092381
4.256000,-2.038923
4.257000,-1.847998
4.258000,-1.664711
4.259000,-1.715624
4.260000,-1.906548
4.261000,-2.027467
4.262000,-2.125475
4.263000,-1.865818
4.264000,-1.673620
4.265000,-1.980372
4.266000,-1.832724
4.267000,-2.740252
4.268000,-5.564662
4.269000,-6.269809
4.270000,-5.549388
4.271000,-4.743686
4.272000,-3.741969
4.273000,-2.452592
4.274000,-1.379597
4.275000,-0.623536
4.276000,0.079067
4.277000,0.509283
4.278000,1.153335
4.279000,2.023951
4.280000,3.012940
4.281000,3.122403
4.282000,2.185600
4.283000,0.821126
4.284000,-0.307874
4.285000,-2.626970
4.286000,-4.415296
4.287000,-5.526477
4.288000,-5.512476
4.289000,-4.042357
4.290000,-2.444955
4.291000,-1.276497
4.292000,-0.450431
4.293000,-0.049489
4.294000,-0.169135
4.295000,-0.175499
4.296000,-1.263769
4.297000,-4.545125
4.298000,-6.753485
4.299000,-9.078945
4.300000,-8.662730
4.301000,-6.099250
4.302000,-3.553590
4.303000,-1.593432
4.304000,0.044700
4.305000,1.178792
4.306000,1.707016
4.307000,2.197056
4.308000,3.029486
4.309000,3.326056
4.310000,2.909840
4.311000,1.839390
4.312000,1.314984
4.313000,0.578016
4.314000,0.048519
4.315000,-0.343513
4.316000,-1.172125
4.317000,-1.606160
4.318000,-1.784357
4.319000,-2.140749
4.320000,-2.089836
4.321000,-1.658346
4.322000,-0.792822
4.323000,0.009061
4.324000,-0.370242
4.325000,-1.575612
4.326000,-1.881092
4.327000,-2.558237
4.328000,-2.933722
4.329000,-3.001182
4.330000,-3.078825
4.331000,-4.183641
4.332000,-5.344462
4.333000,-4.870969
4.334000,-3.694874
4.335000,-2.214573
4.336000,-1.164488
4.337000,-1.159397
4.338000,-0.967200
4.339000,-0.822097
4.340000,-0.804278
4.341000,-0.570077
4.342000,-0.543347
4.343000,-0.775002
4.344000,-0.711361
4.345000,-1.188672
4.346000,-1.629071
4.347000,-2.036377
4.348000,-2.180207
4.349000,-1.472513
4.350000,-1.417782
4.351000,-1.795812
4.352000,-2.148386
4.353000,-2.031286
4.354000,-1.762718
4.355000,-1.742353
4.356000,-2.073289
4.357000,-2.070743
4.358000,-1.779265
4.359000,-2.105110
4.360000,-2.279487
4.361000,-2.500960
4.362000,-3.067369
4.363000,-6.784033
4.364000,-10.419235
4.365000,-10.419235
4.366000,-9.672084
4.367000,-7.631738
4.368000,-5.339371
4.369000,-2.811530
4.370000,-0.744455
4.371000,0.880949
4.372000,2.370160
4.373000,3.282780
4.374000,3.861917
4.375000,3.417700
4.376000,3.415154
4.377000,4.294679
4.378000,5.446591
4.379000,5.199662
4.380000,4.107573
4.381000,2.618362
4.382000,1.328986
4.383000,0.553832
4.384000,-0.155134
4.385000,-0.697360
4.386000,-1.016840
4.387000,-1.280316
4.388000,-1.831451
4.389000,-2.222210
4.390000,-2.569693
4.391000,-2.850988
4.392000,-2.730069
4.393000,-2.751707
4.394000,-2.885355
4.395000,-3.036821
4.396000,-2.952815
4.397000,-2.895537
4.398000,-3.379213
4.399000,-3.758516
4.400000,-4.114908
4.401000,-4.452208
4.402000,-4.536215
4.403000,-4.403841
4.404000,-3.811975
4.405000,-3.562500
4.406000,-4.543852
4.407000,-5.003344
4.408000,-4.011809
4.409000,-2.360949
4.410000,-1.170853
4.411000,-0.433884
4.412000,0.576743
4.413000,0.606018
4.414000,0.332360
4.415000,-0.385516
4.416000,-1.123758
4.417000,-2.156023
4.418000,-2.768254
4.419000,-2.436046
4.420000,-1.370687
4.421000,-1.145396
4.422000,-1.214129
4.423000,-1.271406
4.424000,-1.084300
4.425000,-0.908650
4.426000,-0.926469
4.427000,-3.013910
4.428000,-3.307934
4.429000,-2.863716
4.430000,-1.611252
4.431000,-0.026578
4.432000,0.919134
4.433000,1.054054
4.434000,1.169882
4.435000,0.734574
4.436000,0.170710
4.437000,0.282719
4.438000,0.159255
4.439000,-0.176772
4.440000,-0.501344
4.441000,-1.097028
4.442000,-1.902730
4.443000,-2.727524
4.444000,-2.796256
4.445000,-2.946450
4.446000,-3.870525
4.447000,-4.160730
4.448000,-5.502293
4.449000,-4.537488
4.450000,-2.868808
4.451000,-0.918832
4.452000,0.576743
4.453000,0.706572
4.454000,0.613655
4.455000,-0.046944
4.456000,-0.979928
4.457000,-1.817450
4.458000,-3.161559
4.459000,-4.790781
4.460000,-4.770416
4.461000,-4.232009
4.462000,-3.831067
4.463000,-3.531952
4.464000,-4.660952
4.465000,-4.659680
4.466000,-3.573956
4.467000,-2.073289
4.468000,-1.093210
4.469000,-0.884466
4.470000,-0.343513
4.471000,0.481281
4.472000,0.922953
4.473000,1.181337
4.474000,1.423175
4.475000,1.816479
4.476000,2.051953
4.477000,1.382444
4.478000,0.718027
4.479000,-1.037205
4.480000,-3.403396
4.481000,-4.111090
4.482000,-4.472574
4.483000,-4.624040
4.484000,-3.607049
4.485000,-2.620606
4.486000,-1.389779
4.487000,-0.522982
4.488000,-0.292600
4.489000,-0.582805
4.490000,-0.368970
4.491000,0.373090
4.492000,0.765122
4.493000,0.842764
4.494000,0.548741
4.495000,0.401092
4.496000,-0.134769
4.497000,-1.098301
4.498000,-1.533609
4.499000,-1.635435
4.500000,-2.164933
4.501000,-5.187904
4.502000,-5.549388
4.503000,-4.976614
4.504000,-3.978715
4.505000,-2.737706
4.506000,-1.771628
4.507000,-1.158124
4.508000,-1.091937
4.509000,-1.335048
4.510000,-1.562884
4.511000,-1.261223
4.512000,-0.803005
4.513000,-0.650265
4.514000,-0.413519
4.515000,-0.562440
4.516000,-1.266315
4.517000,-1.629071
4.518000,-1.925641
4.519000,-2.116565
4.520000,-2.203118
4.521000,-3.230291
4.522000,-3.688510
4.523000,-3.453037
4.524000,-2.946450
4.525000,-2.176388
4.526000,-1.616343
4.527000,-1.440693
4.528000,-2.357130
4.529000,-4.150548
4.530000,-4.333835
4.531000,-3.731786
4.532000,-2.752980
4.533000,-1.890001
4.534000,-1.279043
4.535000,-0.861555
4.536000,-1.296863
4.537000,-1.769083
4.538000,-1.785629
4.539000,-1.595978
4.540000,-1.650709
4.541000,-1.328683
4.542000,-2.000738
4.543000,-2.302398
4.544000,-2.598968
4.545000,-2.716068
4.546000,-3.152649
4.547000,-4.263829
4.548000,-3.795428
4.549000,-3.113191
4.550000,-2.206936
4.551000,-1.338866
4.552000,-0.666812
4.553000,0.397274
4.554000,1.789750
4.555000,2.446530
4.556000,2.777466
4.557000,2.895839
4.558000,2.521627
4.559000,1.951399
4.560000,1.065510
4.561000,0.510556
4.562000,0.438005
4.563000,-1.588341
4.564000,-3.190834
4.565000,-3.892163
4.566000,-3.696147
4.567000,-3.052095
4.568000,-1.856908
4.569000,-0.584078
4.570000,-0.018941
4.571000,-0.486070
4.572000,-1.056298
4.573000,-1.972735
4.574000,-2.786074
4.575000,-3.664326
4.576000,-3.503950
4.577000,-3.673236
4.578000,-3.721604
4.579000,-3.405942
4.580000,-2.877718
4.581000,-2.555692
4.582000,-2.016012
4.583000,-2.100018
4.584000,-1.755082
4.585000,-1.387234
4.586000,-0.883193
4.587000,-0.517891
4.588000,-0.664266
4.589000,-0.620990
4.590000,-0.530619
4.591000,-0.694814
4.592000,-0.528073
4.593000,-0.454249
4.594000,-1.112302
4.595000,-2.206936
4.596000,-2.587512
4.597000,-3.413579
4.598000,-3.347392
4.599000,-2.774618
4.600000,-2.656245
4.601000,-2.637153
4.602000,-2.862444
4.603000,-4.700410
4.604000,-4.192551
4.605000,-3.930348
4.606000,-2.969361
4.607000,-1.391052
4.608000,-0.319329
4.609000,0.357816
4.610000,0.756212
4.611000,0.556378
4.612000,0.231806
4.613000,0.095613
4.614000,-0.124586
4.615000,0.170710
4.616000,0.303085
4.617000,-0.204775
4.618000,-1.139032
4.619000,-1.802176
4.620000,-2.853534
4.621000,-3.248111
4.622000,-3.408488
4.623000,-3.423762
4.624000,-3.591775
4.625000,-3.199744
4.626000,-3.827249
4.627000,-4.938429
4.628000,-3.769971
4.629000,-2.475503
4.630000,-1.585795
4.631000,-0.990111
4.632000,-0.519164
4.633000,0.026880
4.634000,0.203804
4.635000,0.528375
4.636000,0.478735
4.637000,0.269991
4.638000,0.754939
4.639000,0.687479
4.640000,0.771486
4.641000,0.432913
4.642000,0.336178
4.643000,0.160528
4.644000,-1.107211
4.645000,-1.921822
4.646000,-2.458956
4.647000,-2.497141
4.648000,-2.312581
4.649000,-2.144567
4.650000,-1.890001
4.651000,-1.786902
4.652000,-2.483140
4.653000,-4.359292
4.654000,-4.037266
4.655000,-3.474675
4.656000,-2.945178
4.657000,-2.234938
4.658000,-1.755082
4.659000,-1.707987
4.660000,-1.529791
4.661000,-1.366868
4.662000,-2.103837
4.663000,-2.078380
4.664000,-2.128021
4.665000,-1.501788
4.666000,-0.510254
4.667000,0.026880
4.668000,-0.006213
4.669000,-0.381698
4.670000,-0.853918
4.671000,-0.825916
4.672000,-1.538700
4.673000,-3.288842
4.674000,-5.679216
4.675000,-6.632566
4.676000,-6.371636
4.677000,-4.597311
4.678000,-2.793711
4.679000,-1.121212
4.680000,0.355271
4.681000,1.227159
4.682000,1.904305
4.683000,2.347250
4.684000,2.300155
4.685000,2.017587
4.686000,1.261526
4.687000,0.007788
4.688000,-0.944289
4.689000,-1.622707
4.690000,-2.213300
4.691000,-2.987181
4.692000,-3.268476
4.693000,-3.414852
4.694000,-5.224816
4.695000,-6.386910
4.696000,-6.469644
4.697000,-5.481928
4.698000,-4.249828
4.699000,-2.620606
4.700000,-1.086846
4.701000,-0.273507
4.702000,0.770213
4.703000,1.500818
4.704000,1.629373
4.705000,1.969219
4.706000,2.415982
4.707000,2.316702
4.708000,1.647193
4.709000,0.710390
4.710000,0.084158
4.711000,-0.650265
4.712000,-1.590886
4.713000,-2.362221
4.714000,-2.820440
4.715000,-3.265931
4.716000,-5.697036
4.717000,-5.873959
4.718000,-5.121717
4.719000,-4.380930
4.720000,-3.286296
4.721000,-2.840805
4.722000,-1.788175
4.723000,-1.108484
4.724000,-1.771628
4.725000,-2.980817
4.726000,-3.519224
4.727000,-3.474675
4.728000,-2.926085
4.729000,-2.182752
4.730000,-1.448329
4.731000,-0.880647
4.732000,-0.506435
4.733000,-0.367697
4.734000,-0.507708
4.735000,-0.608262
4.736000,-0.631173
4.737000,-0.348604
4.738000,-0.492434
4.739000,-0.889557
4.740000,-0.976110
4.741000,-0.516618
4.742000,-2.451320
4.743000,-5.297367
4.744000,-5.676671
4.745000,-4.671135
4.746000,-3.361393
4.747000,-3.953259
4.748000,-2.413135
4.749000,-0.590442
4.750000,0.780396
4.751000,1.861028
4.752000,2.839835
4.753000,3.548801
4.754000,2.805468
4.755000,1.863574
4.756000,1.103695
4.757000,0.210168
4.758000,-0.755910
4.759000,-1.234494
4.760000,-1.575612
4.761000,-2.097473
4.762000,-3.201016
4.763000,-5.147173
4.764000,-5.903234
4.765000,-5.292276
4.766000,-4.650770
4.767000,-3.724149
4.768000,-2.724978
4.769000,-1.769083
4.770000,-0.820824
4.771000,-0.964654
4.772000,-0.850099
4.773000,-0.577714
4.774000,-0.402063
4.775000,0.175802
4.776000,0.338724
4.777000,0.193621
4.778000,-0.209866
4.779000,-0.869192
4.780000,-1.205219
4.781000,-1.234494
4.782000,-1.509425
4.783000,-1.867091
4.784000,-2.247667
4.785000,-2.942632
4.786000,-2.970634
4.787000,-2.884082
4.788000,-2.794984
4.789000,-2.774618
4.790000,-2.478049
4.791000,-2.173843
4.792000,-1.788175
4.793000,-1.854362
4.794000,-2.157296
4.795000,-3.873071
4.796000,-3.729241
4.797000,-3.055914
4.798000,-2.798802
4.799000,-2.022376
4.800000,-1.695259
4.801000,-1.934551
4.802000,-2.031286
4.803000,-2.922267
4.804000,-3.374121
4.805000,-2.918448
4.806000,-1.901457
4.807000,-0.525528
4.808000,0.557651
4.809000,0.388364
4.810000,0.045973
4.811000,-0.245505
4.812000,-0.934106
4.813000,-1.461058
4.814000,-2.238757
4.815000,-3.800519
4.816000,-3.540862
4.817000,-3.138648
4.818000,-3.552317
4.819000,-2.979544
4.820000,-2.439864
4.821000,-1.094483
4.822000,0.734574
4.823000,2.088865
4.824000,2.315429
4.825000,2.295064
4.826000,2.191964
4.827000,1.681559
4.828000,1.080784
4.829000,0.711663
4.830000,0.357816
4.831000,0.137617
4.832000,-0.692268
4.833000,-1.253586
4.834000,-1.786902
4.835000,-2.434773
4.836000,-2.719887
4.837000,-2.223483
4.838000,-2.182752
4.839000,-2.497141
4.840000,-2.497141
4.841000,-2.378768
4.842000,-4.285468
4.843000,-4.120000
4.844000,-3.917620
4.845000,-4.938429
4.846000,-5.672852
4.847000,-5.093715
4.848000,-4.020719
4.849000,-2.793711
4.850000,-1.492879
4.851000,-0.693541
4.852000,-0.249324
4.853000,-0.399518
4.854000,-0.567531
4.855000,-0.338422
4.856000,-2.531508
4.857000,-2.847170
4.858000,-2.083472
4.859000,-1.071572
4.860000,0.011607
4.861000,0.795670
4.862000,1.115150
4.863000,1.339168
4.864000,1.384990
4.865000,1.050236
4.866000,0.924226
4.867000,0.311994
4.868000,-0.283690
4.869000,-1.373233
4.870000,-2.817895
4.871000,-3.887072
4.872000,-4.714411
4.873000,-5.180267
4.874000,-7.985584
4.875000,-7.536275
4.876000,-5.490838
4.877000,-3.305388
4.878000,-1.417782
4.879000,0.248353
4.880000,1.542821
4.881000,2.512717
4.882000,2.995120
4.883000,2.356159
4.884000,1.162245
4.885000,0.096886
4.886000,-0.897194
4.887000,-1.813632
4.888000,-2.848442
4.889000,-3.684692
4.890000,-4.033447
4.891000,-4.046175
4.892000,-3.729241
4.893000,-3.920165
4.894000,-6.623656
4.895000,-9.243140
4.896000,-8.512536
4.897000,-6.521830
4.898000,-3.636324
4.899000,-0.200956
4.900000,2.464350
4.901000,3.373151
4.902000,3.399880
4.903000,3.510616
4.904000,3.541164
4.905000,2.180509
4.906000,1.150789
4.907000,1.117696
4.908000,0.852947
4.909000,-0.004940
4.910000,-0.847554
4.911000,-1.270133
4.912000,-2.192935
4.913000,-2.686793
4.914000,-3.235383
4.915000,-3.398305
4.916000,-3.204835
4.917000,-3.544680
4.918000,-3.733059
4.919000,-3.622323
4.920000,-4.286740
4.921000,-3.542135
4.922000,-1.989282
4.923000,-0.843735
4.924000,0.077794
4.925000,0.877131
4.926000,1.290801
4.927000,0.981503
4.928000,0.410002
4.929000,-0.618444
4.930000,-0.825916
4.931000,-1.198855
4.932000,-1.332502
4.933000,-1.455966
4.934000,-1.667256
4.935000,-1.799631
4.936000,-2.083472
4.937000,-2.380041
4.938000,-2.612969
4.939000,-2.905720
4.940000,-3.338482
4.941000,-3.432671
4.942000,-4.228190
4.943000,-5.279548
4.944000,-5.915963
4.945000,-6.514193
4.946000,-5.679216
4.947000,-3.890890
4.948000,-1.794539
4.949000,-0.456795
4.950000,0.863130
4.951000,1.468997
4.952000,1.377353
4.953000,0.956046
4.954000,0.149072
4.955000,-0.494980
4.956000,-0.535710
4.957000,-0.385516
4.958000,-0.535710
4.959000,-0.577714
4.960000,-0.800459
4.961000,-2.208209
4.962000,-3.287569
4.963000,-4.377111
4.964000,-5.619393
4.965000,-6.195985
4.966000,-6.758576
4.967000,-8.474351
4.968000,-7.272800
4.969000,-5.540478
4.970000,-2.684247
4.971000,0.632748
4.972000,2.773648
4.973000,3.677357
4.974000,4.887818
4.975000,5.318035
4.976000,4.401597
4.977000,3.154224
4.978000,2.349795
4.979000,2.260697
4.980000,1.827935
4.981000,1.214431
4.982000,0.119797
4.983000,-0.853918
4.984000,-1.821269
4.985000,-3.736878
4.986000,-6.758576
4.987000,-6.528194
4.988000,-4.999525
4.989000,-2.918448
4.990000,-1.230676
4.991000,-0.608262
4.992000,-0.694814
4.993000,-1.163216
4.994000,-1.506880
4.995000,-1.520881
4.996000,-1.622707
4.997000,-1.583249
4.998000,-1.244677
4.999000,-1.121212
5.000000,-1.042297
5.001000,-1.503061
5.002000,-1.882365
5.003000,-2.310035
5.004000,-3.047004
5.005000,-3.393214
5.006000,-3.565046
5.007000,-3.621050
5.008000,-4.063995
5.009000,-4.758960
5.010000,-4.771689
5.011000,-3.960896
5.012000,-2.731342
5.013000,-1.453421
5.014000,-0.529346
5.015000,0.287811
5.016000,0.751121
5.017000,0.189803
5.018000,-0.988838
5.019000,-1.732171
5.020000,-1.095756
5.021000,-0.381698
5.022000,-0.515345
5.023000,-0.557348
5.024000,-0.600625
5.025000,-0.521709
5.026000,-0.659175
5.027000,-0.811914
5.028000,-1.914185
5.029000,-3.156467
5.030000,-3.605776
5.031000,-3.824703
5.032000,-3.389395
5.033000,-3.433944
5.034000,-5.859958
5.035000,-5.569753
5.036000,-4.769143
5.037000,-3.530679
5.038000,-1.606160
5.039000,0.668387
5.040000,1.843209
5.041000,1.820298
5.042000,1.306075
5.043000,0.621292
5.044000,0.221623
5.045000,-0.039307
5.046000,0.459643
5.047000,0.365453
5.048000,-0.228958
5.049000,-1.158124
5.050000,-1.475059
5.051000,-2.219664
5.052000,-3.038094
5.053000,-3.573956
5.054000,-3.591775
5.055000,-3.444127
5.056000,-3.701239
5.057000,-3.571410
5.058000,-3.352483
5.059000,-2.700794
5.060000,-1.874728
5.061000,-3.095371
5.062000,-3.489949
5.063000,-2.430954
5.064000,-1.317228
5.065000,0.017971
5.066000,1.265344
5.067000,1.628101
5.068000,1.516092
5.069000,0.028153
5.070000,-2.274396
5.071000,-2.728796
5.072000,-2.278215
5.073000,-1.112302
5.074000,0.488918
5.075000,2.128323
5.076000,2.578905
5.077000,2.050680
5.078000,0.635293
5.079000,-0.566258
5.080000,-1.422873
5.081000,-2.212027
5.082000,-3.329572
5.083000,-4.238373
5.084000,-4.122545
5.085000,-3.907437
5.086000,-3.864161
5.087000,-3.651598
5.088000,-3.123374
5.089000,-2.182752
5.090000,-1.411417
5.091000,-1.077936
5.092000,-1.301954
5.093000,-1.523426
5.094000,-1.184854
5.095000,-1.294317
5.096000,-1.713078
5.097000,-1.435601
5.098000,-1.934551
5.099000,-3.310480
5.100000,-3.969806
5.101000,-3.365211
5.102000,-2.180207
5.103000,-1.433056
5.104000,-1.266315
5.105000,-1.817450
5.106000,-2.054197
5.107000,-2.411862
5.108000,-2.369858
5.109000,-3.292660
5.110000,-3.976170
5.111000,-3.241747
5.112000,-2.218392
5.113000,-0.581532
5.114000,-0.002395
5.115000,0.300539
5.116000,0.345088
5.117000,0.472371
5.118000,0.840219
5.119000,1.102422
5.120000,0.878404
5.121000,-0.012577
5.122000,-0.232777
5.123000,-0.592988
5.124000,-1.002839
5.125000,-0.676995
5.126000,-0.769911
5.127000,-1.361777
5.128000,-2.070743
5.129000,-4.442026
5.130000,-6.015243
5.131000,-5.546842
5.132000,-4.330017
5.133000,-2.830623
5.134000,-1.445784
5.135000,-0.304055
5.136000,0.103250
5.137000,-0.622263
5.138000,-1.573067
5.139000,-2.168751
5.140000,-3.876889
5.141000,-4.578218
5.142000,-4.638041
5.143000,-4.063995
5.144000,-3.165377
5.145000,-2.280760
5.146000,-1.539973
5.147000,-0.444067
5.148000,0.245807
5.149000,0.341269
5.150000,0.104523
5.151000,0.389637
5.152000,0.800761
5.153000,0.987867
5.154000,1.406628
5.155000,1.036235
5.156000,0.142708
5.157000,-0.548439
5.158000,-0.873010
5.159000,-1.984191
5.160000,-5.909599
5.161000,-8.628363
5.162000,-8.778557
5.163000,-7.220613
5.164000,-4.812419
5.165000,-2.518780
5.166000,0.132525
5.167000,1.691742
5.168000,1.993403
5.169000,1.919579
5.170000,2.217421
5.171000,2.193237
5.172000,2.123231
5.173000,2.165235
5.174000,1.777022
5.175000,0.669660
5.176000,-0.237868
5.177000,-0.887011
5.178000,-1.080482
5.179000,-1.598523
5.180000,-2.204390
5.181000,-2.567147
5.182000,-3.058459
5.183000,-3.333391
5.184000,-3.352483
5.185000,-3.269749
5.186000,-3.035548
5.187000,-2.671519
5.188000,-2.532781
5.189000,-2.756799
5.190000,-3.157740
5.191000,-3.506496
5.192000,-4.169640
5.193000,-4.366929
5.194000,-6.344906
5.195000,-5.988514
5.196000,-5.982150
5.197000,-5.288458
5.198000,-3.474675
5.199000,-1.849271
5.200000,-0.223867
5.201000,1.015869
5.202000,1.950127
5.203000,1.381172
5.204000,0.595835
5.205000,-0.109312
5.206000,-0.441521
5.207000,-0.295146
5.208000,-0.113131
5.209000,-0.357514
5.210000,-0.595533
5.211000,-0.717725
5.212000,-0.416064
5.213000,0.042154
5.214000,-0.057126
5.215000,-0.521709
5.216000,-0.958290
5.217000,-1.943460
5.218000,-3.809429
5.219000,-6.514193
5.220000,-7.900305
5.221000,-7.512092
5.222000,-6.131071
5.223000,-6.366545
5.224000,-4.938429
5.225000,-2.686793
5.226000,-0.552257
5.227000,1.629373
5.228000,3.769001
5.229000,4.628161
5.230000,4.717259
5.231000,4.265404
5.232000,3.163134
5.233000,1.773203
5.234000,0.910224
5.235000,-1.354140
5.236000,-2.367313
5.237000,-2.152204
5.238000,-1.994374
5.239000,-1.537428
5.240000,-0.969745
5.241000,-0.549712
5.242000,-0.488616
5.243000,-0.785185
5.244000,-1.490333
5.245000,-1.528518
5.246000,-2.212027
5.247000,-2.583694
5.248000,-3.089007
5.249000,-2.909538
5.250000,-2.745343
5.251000,-2.638426
5.252000,-2.719887
5.253000,-2.162387
5.254000,-1.525972
5.255000,-1.125031
5.256000,-1.481423
5.257000,-2.411862
5.258000,-3.128465
5.259000,-4.426752
5.260000,-6.108160
5.261000,-8.415801
5.262000,-8.366160
5.263000,-7.621555
5.264000,-5.185358
5.265000,-1.753809
5.266000,1.023506
5.267000,3.309509
5.268000,4.483058
5.269000,4.690530
5.270000,4.251403
5.271000,3.886101
5.272000,2.568722
5.273000,1.223341
5.274000,0.077794
5.275000,-0.505162
5.276000,-0.935379
5.277000,-1.468695
5.278000,-1.777992
5.279000,-1.580704
5.280000,-1.333775
5.281000,-1.522154
5.282000,-1.909094
5.283000,-2.282033
5.284000,-2.374950
5.285000,-2.587512
5.286000,-2.890446
5.287000,-2.680429
5.288000,-2.689339
5.289000,-3.898527
5.290000,-4.602402
5.291000,-4.780598
5.292000,-4.559126
5.293000,-4.076723
5.294000,-3.869252
5.295000,-3.759789
5.296000,-3.526861
5.297000,-3.240474
5.298000,-3.151376
5.299000,-3.810702
5.300000,-4.228190
5.301000,-3.968533
5.302000,-3.907437
5.303000,-6.156528
5.304000,-6.638930
5.305000,-5.681762
5.306000,-3.318117
5.307000,-0.526801
5.308000,1.961582
5.309000,3.627717
5.310000,4.961642
5.311000,5.239119
5.312000,5.183115
5.313000,3.959925
5.314000,2.323066
5.315000,1.258980
5.316000,0.390910
5.317000,0.100705
5.318000,0.749848
5.319000,0.348906
5.320000,-0.540802
5.321000,-1.355413
5.322000,-2.017284
5.323000,-2.318945
5.324000,-2.914630
5.325000,-3.469584
5.326000,-4.058904
5.327000,-4.149275
5.328000,-3.680873
5.329000,-3.390668
5.330000,-3.069915
5.331000,-2.392769
5.332000,-1.863272
5.333000,-5.190450
5.334000,-7.198975
5.335000,-6.314359
5.336000,-4.063995
5.337000,-1.702895
5.338000,0.287811
5.339000,0.968775
5.340000,0.833855
5.341000,-0.046944
5.342000,-1.415236
5.343000,-0.979928
5.344000,-0.913741
5.345000,-0.773730
5.346000,0.043427
5.347000,0.182166
5.348000,0.537285
5.349000,0.499100
5.350000,-0.034215
5.351000,-0.497525
5.352000,-0.486070
5.353000,-0.687177
5.354000,-0.929015
5.355000,-0.814460
5.356000,-0.978655
5.357000,-1.291771
5.358000,-1.688894
5.359000,-1.965098
5.360000,-2.002011
5.361000,-2.190389
5.362000,-2.416953
5.363000,-3.015183
5.364000,-3.183197
5.365000,-3.171741
5.366000,-3.033003
5.367000,-2.690612
5.368000,-2.268032
5.369000,-1.954916
5.370000,-1.763991
5.371000,-1.538700
5.372000,-1.205219
5.373000,-1.085573
5.374000,-1.748717
5.375000,-2.210755
5.376000,-2.700794
5.377000,-3.374121
5.378000,-4.105998
5.379000,-6.534558
5.380000,-6.757303
5.381000,-5.717401
5.382000,-4.625313
5.383000,-3.272295
5.384000,-3.245565
5.385000,-3.203562
5.386000,-3.067369
5.387000,-2.274396
5.388000,-0.991384
5.389000,0.562742
5.390000,1.412992
5.391000,1.440995
5.392000,1.911942
5.393000,2.074864
5.394000,1.596280
5.395000,-0.259506
5.396000,-0.946834
5.397000,-0.654084
5.398000,-0.498798
5.399000,-0.948107
5.400000,-0.402063
5.401000,0.170710
5.402000,1.079511
5.403000,1.491908
5.404000,1.082057
5.405000,0.160528
5.406000,-0.426247
5.407000,-0.899740
5.408000,-0.799186
5.409000,-0.860282
5.410000,-0.995202
5.411000,-1.122485
5.412000,-2.472958
5.413000,-4.799691
5.414000,-6.512920
5.415000,-7.806115
5.416000,-7.934671
5.417000,-6.785306
5.418000,-5.298640
5.419000,-3.192107
5.420000,-0.965927
5.421000,0.499100
5.422000,0.767668
5.423000,0.996777
5.424000,-0.105494
5.425000,0.758758
5.426000,1.084602
5.427000,1.355715
5.428000,1.770658
5.429000,1.475361
5.430000,0.529648
5.431000,0.135071
5.432000,-0.304055
5.433000,-1.221766
5.434000,-1.818723
5.435000,-2.727524
5.436000,-2.919721
5.437000,-3.019002
5.438000,-2.738979
5.439000,-2.634607
5.440000,-2.446228
5.441000,-2.091109
5.442000,-1.863272
5.443000,-1.807268
5.444000,-1.424146
5.445000,-2.424590
5.446000,-2.616787
5.447000,-3.096644
5.448000,-2.848442
5.449000,-2.084744
5.450000,-1.625253
5.451000,-1.607433
5.452000,-1.845452
5.453000,-2.163660
5.454000,-2.265486
5.455000,-1.881092
5.456000,-1.757627
5.457000,-2.218392
5.458000,-2.241303
5.459000,-3.145012
5.460000,-5.749222
5.461000,-6.131071
5.462000,-5.206996
5.463000,-4.379657
5.464000,-2.345675
5.465000,-0.526801
5.466000,0.710390
5.467000,1.279345
5.468000,1.290801
5.469000,1.043872
5.470000,1.270435
5.471000,-0.307874
5.472000,-1.282862
5.473000,-1.480150
5.474000,-1.061389
5.475000,-0.526801
5.476000,-0.039307
5.477000,0.216532
5.478000,-0.088947
5.479000,-0.269689
5.480000,-0.469523
5.481000,-1.150487
5.482000,-1.653255
5.483000,-1.598523
5.484000,-1.808540
5.485000,-2.008375
5.486000,-2.070743
5.487000,-2.056742
5.488000,-2.112747
5.489000,-2.124202
5.490000,-2.677883
5.491000,-2.564601
5.492000,-2.218392
5.493000,-2.008375
5.494000,-1.757627
5.495000,-2.563329
5.496000,-2.820440
5.497000,-3.419943
5.498000,-4.820056
5.499000,-5.651214
5.500000,-6.029245
5.501000,-5.600301
5.502000,-5.084805
5.503000,-5.298640
5.504000,-3.699966
5.505000,-1.420327
5.506000,0.379454
5.507000,1.723563
5.508000,2.839835
5.509000,3.089309
5.510000,3.530981
5.511000,3.581895
5.512000,2.431256
5.513000,1.257707
5.514000,0.282719
5.515000,-0.267143
5.516000,-1.109757
5.517000,-1.421600
5.518000,-1.583249
5.519000,-1.286680
5.520000,-1.375778
5.521000,-1.904003
5.522000,-2.469139
5.523000,-4.729685
5.524000,-6.943137
5.525000,-6.918953
5.526000,-5.460290
5.527000,-3.594321
5.528000,-1.872182
5.529000,-0.880647
5.530000,-0.707542
5.531000,-1.150487
5.532000,-0.775002
5.533000,-0.253142
5.534000,-1.368141
5.535000,-2.624424
5.536000,-3.369030
5.537000,-2.710977
5.538000,-1.369414
5.539000,0.109614
5.540000,0.990413
5.541000,0.738392
5.542000,-0.062218
5.543000,-0.468250
5.544000,-0.669358
5.545000,-1.229403
5.546000,-1.197582
5.547000,-0.455522
5.548000,-0.465705
5.549000,-1.140305
5.550000,-1.189945
5.551000,-1.578158
5.552000,-1.878546
5.553000,-1.986737
5.554000,-1.984191
5.555000,-1.478877
5.556000,-0.542075
5.557000,-0.357514
5.558000,-0.748273
5.559000,-0.811914
5.560000,-2.518780
5.561000,-2.747889
5.562000,-2.112747
5.563000,-2.066925
5.564000,-1.760173
5.565000,-1.435601
5.566000,-1.678712
5.567000,-1.910367
5.568000,-2.189117
5.569000,-2.453865
5.570000,-2.456411
5.571000,-2.794984
5.572000,-2.876445
5.573000,-2.619333
5.574000,-2.469139
5.575000,-2.824259
5.576000,-3.008819
5.577000,-3.030457
5.578000,-2.922267
5.579000,-3.383031
5.580000,-3.609595
5.581000,-3.236656
5.582000,-2.635880
5.583000,-1.809813
5.584000,-1.286680
5.585000,-0.822097
5.586000,-0.091493
5.587000,-0.492434
5.588000,-1.402508
5.589000,-1.593432
5.590000,-1.760173
5.591000,-2.178934
5.592000,-2.330401
5.593000,-3.063551
5.594000,-3.013910
5.595000,-3.554863
5.596000,-4.741141
5.597000,-4.035993
5.598000,-2.350766
5.599000,-2.100018
5.600000,-1.693986
5.601000,-0.520436
5.602000,0.552559
5.603000,1.486816
5.604000,1.777022
5.605000,1.457541
5.606000,1.166063
5.607000,1.204248
5.608000,1.101149
5.609000,1.234796
5.610000,0.663295
5.611000,0.389637
5.612000,0.308176
5.613000,-0.259506
5.614000,-0.839917
5.615000,-1.305773
5.616000,-1.444511
5.617000,-1.357959
5.618000,-1.552702
5.619000,-2.049105
5.620000,-2.115292
5.621000,-2.336765
5.622000,-3.194652
5.623000,-3.792882
5.624000,-4.594765
5.625000,-5.242636
5.626000,-5.326642
5.627000,-5.321551
5.628000,-7.261344
5.629000,-6.477281
5.630000,-4.690227
5.631000,-2.741525
5.632000,-0.771184
5.633000,0.856766
5.634000,2.124504
5.635000,2.914932
5.636000,3.164406
5.637000,3.343875
5.638000,3.145314
5.639000,1.983220
5.640000,0.879677
5.641000,0.100705
5.642000,-0.908650
5.643000,-2.334219
5.644000,-3.223927
5.645000,-3.918892
5.646000,-3.810702
5.647000,-3.411033
5.648000,-2.858625
5.649000,-2.492050
5.650000,-1.949824
5.651000,-1.281589
5.652000,-1.032114
5.653000,-0.913741
5.654000,-2.121657
5.655000,-2.646063
5.656000,-3.791609
5.657000,-4.272739
5.658000,-3.579047
5.659000,-2.705886
5.660000,-1.803449
5.661000,-1.097028
5.662000,-0.351150
5.663000,-0.234050
5.664000,-0.767365
5.665000,-1.343957
5.666000,-1.480150
5.667000,-1.590886
5.668000,-1.802176
5.669000,-1.662165
5.670000,-1.603615
5.671000,-1.581977
5.672000,-1.553974
5.673000,-1.749990
5.674000,-1.901457
5.675000,-2.111474
5.676000,-3.370303
5.677000,-3.091553
5.678000,-2.152204
5.679000,-1.518335
5.680000,-1.063935
5.681000,-0.595533
5.682000,-0.356241
5.683000,-0.222594
5.684000,-0.141133
5.685000,-0.624808
5.686000,-0.997748
5.687000,-1.308318
5.688000,-1.748717
5.689000,-2.089836
5.690000,-3.314298
5.691000,-5.277002
5.692000,-5.873959
5.693000,-5.212088
5.694000,-3.601958
5.695000,-1.963826
5.696000,-0.916287
5.697000,-0.363878
5.698000,-0.268416
5.699000,-0.379152
5.700000,-0.465705
5.701000,-0.869192
5.702000,-1.495424
5.703000,-1.420327
5.704000,-1.725806
5.705000,-2.839533
5.706000,-3.873071
5.707000,-3.721604
5.708000,-3.106827
5.709000,-2.912084
5.710000,-3.573956
5.711000,-2.731342
5.712000,-1.789448
5.713000,-1.272679
5.714000,-2.425863
5.715000,-3.589230
5.716000,-3.566319
5.717000,-2.604059
5.718000,-2.582421
5.719000,-2.548055
5.720000,-0.659175
5.721000,1.205521
5.722000,2.067227
5.723000,2.419801
5.724000,3.019304
5.725000,3.551347
5.726000,3.266233
5.727000,1.925943
5.728000,1.158426
5.729000,1.194066
5.730000,0.963683
5.731000,0.490191
5.732000,0.062520
5.733000,-0.338422
5.734000,-0.692268
5.735000,-1.201400
5.736000,-1.786902
5.737000,-2.218392
5.738000,-2.093654
5.739000,-2.201845
5.740000,-2.078380
5.741000,-2.637153
5.742000,-2.887900
5.743000,-3.115737
5.744000,-3.283750
5.745000,-3.320662
5.746000,-3.231564
5.747000,-2.920994
5.748000,-2.877718
5.749000,-3.599412
5.750000,-3.652871
5.751000,-3.240474
5.752000,-2.800075
5.753000,-4.410205
5.754000,-3.932894
5.755000,-2.960452
5.756000,-1.635435
5.757000,-0.206047
5.758000,0.026880
5.759000,-0.127132
5.760000,-0.617172
5.761000,-2.014739
5.762000,-2.789892
5.763000,-2.928631
5.764000,-2.984635
5.765000,-2.549327
5.766000,-2.176388
5.767000,-2.087290
5.768000,-2.789892
5.769000,-2.895537
5.770000,-3.255748
5.771000,-3.329572
5.772000,-2.385132
5.773000,-1.807268
5.774000,-1.617616
5.775000,-1.209037
5.776000,-1.206492
5.777000,-0.801732
5.778000,-0.199683
5.779000,-0.235323
5.780000,-0.240414
5.781000,0.285265
5.782000,-0.043125
5.783000,-1.015567
5.784000,-1.933278
5.785000,-2.410589
5.786000,-2.371131
5.787000,-2.129294
5.788000,-2.303671
5.789000,-2.698249
5.790000,-3.394487
5.791000,-4.725867
5.792000,-5.205724
5.793000,-4.114908
5.794000,-3.120828
5.795000,-1.965098
5.796000,-0.960836
5.797000,-0.136042
5.798000,0.595835
5.799000,0.753666
5.800000,0.872040
5.801000,1.871211
5.802000,2.960754
5.803000,3.286598
5.804000,2.615817
5.805000,1.553004
5.806000,0.502919
5.807000,-0.296418
5.808000,-2.362221
5.809000,-4.939702
5.810000,-7.923216
5.811000,-7.470088
5.812000,-5.359736
5.813000,-3.092826
5.814000,-0.973564
5.815000,0.508010
5.816000,0.828763
5.817000,0.749848
5.818000,-0.347332
5.819000,-0.536983
5.820000,-0.738090
5.821000,-1.245950
5.822000,-2.364767
5.823000,-2.306217
5.824000,-1.508152
5.825000,-1.384688
5.826000,-1.214129
5.827000,-0.309147
5.828000,-0.344786
5.829000,-0.954471
5.830000,-1.570521
5.831000,-1.489060
5.832000,-1.627799
5.833000,-1.565430
5.834000,-1.776720
5.835000,-1.859454
5.836000,-1.528518
5.837000,-1.410145
5.838000,-1.225584
5.839000,-1.699077
5.840000,-2.171297
5.841000,-2.621879
5.842000,-3.063551
5.843000,-3.039367
5.844000,-2.853534
5.845000,-2.764436
5.846000,-2.600241
5.847000,-2.100018
5.848000,-2.229847
5.849000,-2.494596
5.850000,-3.273568
5.851000,-3.510314
5.852000,-3.223927
5.853000,-3.405942
5.854000,-3.514133
5.855000,-3.847614
5.856000,-4.356746
5.857000,-4.005445
5.858000,-3.110645
5.859000,-1.737262
5.860000,-0.580259
5.861000,0.351452
5.862000,0.791851
5.863000,0.710390
5.864000,0.543649
5.865000,-1.677439
5.866000,-2.181480
5.867000,-1.833997
5.868000,-0.143679
5.869000,0.835128
5.870000,1.046417
5.871000,0.956046
5.872000,0.272537
5.873000,-0.396972
5.874000,-1.105938
5.875000,-1.559066
5.876000,-2.177661
5.877000,-3.344846
5.878000,-3.552317
5.879000,-2.938813
5.880000,-2.185298
5.881000,-1.515789
5.882000,-0.981201
5.883000,-0.094038
5.884000,-2.000738
5.885000,-2.558237
5.886000,-2.526416
5.887000,-1.690167
5.888000,-1.687622
5.889000,-1.713078
5.890000,-1.553974
5.891000,-1.154306
5.892000,-1.644345
5.893000,-1.949824
5.894000,-2.481867
5.895000,-2.900628
5.896000,-1.888729
5.897000,-0.530619
5.898000,0.449460
5.899000,0.655658
5.900000,0.525830
5.901000,-0.646447
5.902000,-1.351594
5.903000,-1.490333
5.904000,-1.505607
5.905000,-1.707987
5.906000,-1.649437
5.907000,-1.352867
5.908000,-0.342240
5.909000,0.094340
5.910000,-0.155134
5.911000,-0.268416
5.912000,0.310722
5.913000,-0.049489
5.914000,-0.818279
5.915000,-1.403780
5.916000,-2.777164
5.917000,-3.453037
5.918000,-3.153922
5.919000,-2.788619
5.920000,-2.293489
5.921000,-2.114020
5.922000,-1.956189
5.923000,-1.939642
5.924000,-2.042741
5.925000,-1.996919
5.926000,-1.977827
5.927000,-2.115292
5.928000,-2.646063
5.929000,-3.652871
5.930000,-3.801792
5.931000,-3.585411
5.932000,-3.361393
5.933000,-3.160286
5.934000,-2.548055
5.935000,-2.177661
5.936000,-2.145840
5.937000,-2.125475
5.938000,-1.920549
5.939000,-1.272679
5.940000,-0.469523
5.941000,-0.926469
5.942000,-2.409316
5.943000,-3.020275
5.944000,-3.945622
5.945000,-4.631677
5.946000,-5.072076
5.947000,-3.973624
5.948000,-2.335492
5.949000,-0.720271
5.950000,0.370545
5.951000,1.392627
5.952000,2.204693
5.953000,1.485544
5.954000,-1.683803
5.955000,-3.713967
5.956000,-4.769143
5.957000,-4.919337
5.958000,-4.517123
5.959000,-3.104281
5.960000,-1.993101
5.961000,-2.745343
5.962000,-1.942188
5.963000,-1.013022
5.964000,0.786760
5.965000,2.506353
5.966000,3.989200
5.967000,3.914103
5.968000,2.993847
5.969000,1.718472
5.970000,0.432913
5.971000,0.084158
5.972000,-1.118667
5.973000,-1.902730
5.974000,-1.433056
5.975000,-0.534438
5.976000,-0.281144
5.977000,-0.053308
5.978000,0.110887
5.979000,0.268718
5.980000,0.553832
5.981000,0.068884
5.982000,-1.772901
5.983000,-3.073733
5.984000,-3.470856
5.985000,-3.208653
5.986000,-2.150932
5.987000,-1.734716
5.988000,-1.716897
5.989000,-1.854362
5.990000,-2.004556
5.991000,-2.303671
5.992000,-2.726251
5.993000,-2.913357
5.994000,-3.104281
5.995000,-3.302843
5.996000,-3.333391
5.997000,-3.272295
5.998000,-3.159013
5.999000,-3.204835
6.000000,-3.576501
6.001000,-4.632950
6.002000,-6.265991
6.003000,-6.934227
6.004000,-7.067874
6.005000,-7.790841
6.006000,-8.722553
6.007000,-7.944854
6.008000,-4.654588
6.009000,-0.587896
6.010000,2.330703
6.011000,4.410507
6.012000,5.844986
6.013000,6.105916
6.014000,6.035911
6.015000,5.136020
6.016000,3.704086
6.017000,2.119413
6.018000,0.832582
6.019000,0.028153
6.020000,-0.492434
6.021000,-1.066480
6.022000,-1.533609
6.023000,-1.937096
6.024000,-2.074562
6.025000,-2.404225
6.026000,-2.452592
6.027000,-2.418226
6.028000,-2.918448
6.029000,-3.603231
6.030000,-3.559954
6.031000,-3.654144
6.032000,-3.665599
6.033000,-3.239201
6.034000,-2.255304
6.035000,-2.008375
6.036000,-2.049105
6.037000,-2.315127
6.038000,-2.588785
6.039000,-3.189561
6.040000,-6.167983
6.041000,-7.414084
6.042000,-7.596098
6.043000,-8.913477
6.044000,-7.911760
6.045000,-5.950329
6.046000,-3.805611
6.047000,-2.079653
6.048000,-0.190773
6.049000,1.553004
6.050000,2.636182
6.051000,3.142768
6.052000,3.520799
6.053000,3.247140
6.054000,3.949742
6.055000,4.217037
6.056000,3.341330
6.057000,2.684549
6.058000,2.207238
6.059000,1.281891
6.060000,1.372262
6.061000,0.957319
6.062000,0.062520
6.063000,-0.333330
6.064000,-0.711361
6.065000,-1.282862
6.066000,-1.800903
6.067000,-2.199299
6.068000,-2.604059
6.069000,-2.900628
6.070000,-3.309207
6.071000,-3.593048
6.072000,-3.628687
6.073000,-3.416125
6.074000,-3.254475
6.075000,-3.510314
6.076000,-4.067814
6.077000,-4.504394
6.078000,-7.719563
6.079000,-10.419235
6.080000,-10.108665
6.081000,-7.942308
6.082000,-5.066985
6.083000,-2.282033
6.084000,-0.100403
6.085000,1.222068
6.086000,1.792296
6.087000,2.124504
6.088000,2.650183
6.089000,2.422347
6.090000,2.179236
6.091000,2.088865
6.092000,1.527547
6.093000,0.603472
6.094000,-0.115676
6.095000,-0.901013
6.096000,-1.841634
6.097000,-2.142022
6.098000,-2.176388
6.099000,-2.121657
6.100000,-2.042741
6.101000,-2.133112
6.102000,-2.171297
6.103000,-2.346947
6.104000,-4.284195
6.105000,-4.173458
6.106000,-3.286296
6.107000,-2.306217
6.108000,-0.860282
6.109000,-0.314238
6.110000,-0.615899
6.111000,-1.221766
6.112000,-2.294761
6.113000,-3.047004
6.114000,-4.629132
6.115000,-5.798862
6.116000,-5.600301
6.117000,-4.888789
6.118000,-3.617232
6.119000,-1.654528
6.120000,0.221623
6.121000,1.517364
6.122000,1.850846
6.123000,2.324339
6.124000,2.580177
6.125000,2.830925
6.126000,3.012940
6.127000,3.581895
6.128000,3.020577
6.129000,1.005687
6.130000,-0.306601
6.131000,-0.972291
6.132000,-1.637981
6.133000,-2.121657
6.134000,-2.252758
6.135000,-2.810258
6.136000,-4.029629
6.137000,-4.657134
6.138000,-5.401739
6.139000,-6.897315
6.140000,-6.571470
6.141000,-5.331734
6.142000,-3.804338
6.143000,-2.246394
6.144000,-1.060116
6.145000,-0.628627
6.146000,-0.003667
6.147000,0.143981
6.148000,0.777850
6.149000,0.847856
6.150000,-1.809813
6.151000,-3.866706
6.152000,-4.136546
6.153000,-3.875616
6.154000,-2.764436
6.155000,-1.994374
6.156000,-1.534882
6.157000,-1.014294
6.158000,-0.543347
6.159000,-0.380425
6.160000,-0.268416
6.161000,-0.244232
6.162000,-0.049489
6.163000,0.015425
6.164000,-0.232777
6.165000,0.272537
6.166000,-0.099130
6.167000,-0.820824
6.168000,-1.322319
6.169000,-1.335048
6.170000,-1.322319
6.171000,-2.386405
6.172000,-3.985080
6.173000,-4.408932
6.174000,-4.011809
6.175000,-3.661781
6.176000,-4.513304
6.177000,-4.111090
6.178000,-3.052095
6.179000,-1.547610
6.180000,-0.344786
6.181000,0.892405
6.182000,1.384990
6.183000,1.561913
6.184000,1.857210
6.185000,0.939500
6.186000,-0.170408
6.187000,-1.357959
6.188000,-1.881092
6.189000,-2.355857
6.190000,-2.587512
6.191000,-2.914630
6.192000,-3.409760
6.193000,-5.148446
6.194000,-5.269365
6.195000,-5.106443
6.196000,-4.426752
6.197000,-2.905720
6.198000,-1.067753
6.199000,-0.282417
6.200000,-0.064763
6.201000,-0.100403
6.202000,-0.297691
6.203000,0.137617
6.204000,0.796943
6.205000,0.310722
6.206000,-0.394426
6.207000,-0.813187
6.208000,-1.259951
6.209000,-2.069471
6.210000,-2.229847
6.211000,-3.301570
6.212000,-4.431843
6.213000,-3.557409
6.214000,-4.808601
6.215000,-5.633394
6.216000,-4.543852
6.217000,-3.087735
6.218000,-1.654528
6.219000,-0.410973
6.220000,0.132525
6.221000,0.257263
6.222000,0.972593
6.223000,0.855493
6.224000,0.592017
6.225000,0.380727
6.226000,-0.766093
6.227000,-2.055469
6.228000,-2.913357
6.229000,-3.734332
6.230000,-3.846341
6.231000,-4.057631
6.232000,-4.364383
6.233000,-3.860342
6.234000,-2.984635
6.235000,-2.061834
6.236000,-1.201400
6.237000,-0.091493
6.238000,1.131697
6.239000,1.101149
6.240000,0.566560
6.241000,0.023062
6.242000,0.089249
6.243000,-0.120768
6.244000,-2.273123
6.245000,-2.324037
6.246000,-2.056742
6.247000,-1.196309
6.248000,-0.435157
6.249000,-0.016396
6.250000,-0.115676
6.251000,-0.507708
6.252000,-1.823814
6.253000,-2.765709
6.254000,-3.301570
6.255000,-3.576501
6.256000,-3.096644
6.257000,-2.089836
6.258000,-1.083027
6.259000,-0.249324
6.260000,-0.072400
6.261000,-0.213684
6.262000,-0.620990
6.263000,-0.251869
6.264000,0.241989
6.265000,0.280174
6.266000,-0.221321
6.267000,-0.869192
6.268000,-1.602342
6.269000,-2.175115
6.270000,-3.675782
6.271000,-4.436934
6.272000,-4.864605
6.273000,-4.744959
6.274000,-4.629132
6.275000,-4.962613
6.276000,-4.728412
6.277000,-4.445844
6.278000,-3.908710
6.279000,-3.307934
6.280000,-4.425479
6.281000,-4.452208
6.282000,-5.088623
6.283000,-2.942632
6.284000,-0.385516
6.285000,1.335350
6.286000,3.104583
6.287000,4.036295
6.288000,4.140667
6.289000,3.755000
6.290000,2.367615
6.291000,1.078238
6.292000,0.513102
6.293000,-0.536983
6.294000,-0.885739
6.295000,-1.310864
6.296000,-1.821269
6.297000,-2.987181
6.298000,-3.873071
6.299000,-3.976170
6.300000,-4.038539
6.301000,-4.007991
6.302000,-3.530679
6.303000,-3.486130
6.304000,-3.796701
6.305000,-3.598139
6.306000,-3.106827
6.307000,-2.180207
6.308000,-1.435601
6.309000,-0.622263
6.310000,0.355271
6.311000,1.087148
6.312000,1.556822
6.313000,1.676468
6.314000,1.368443
6.315000,1.486816
6.316000,1.087148
6.317000,0.431640
6.318000,-0.515345
6.319000,-1.865818
6.320000,-4.746232
6.321000,-4.946066
6.322000,-4.098362
6.323000,-2.905720
6.324000,-1.804722
6.325000,-1.055025
6.326000,-0.824643
6.327000,-0.727908
6.328000,-0.703724
6.329000,-1.098301
6.330000,-1.201400
6.331000,-1.268860
6.332000,-1.337593
6.333000,-1.688894
6.334000,-2.232393
6.335000,-2.623152
6.336000,-2.769527
6.337000,-3.063551
6.338000,-3.759789
6.339000,-3.990171
6.340000,-4.088179
6.341000,-4.265102
6.342000,-4.261284
6.343000,-5.541751
6.344000,-6.349998
6.345000,-6.498919
6.346000,-8.666548
6.347000,-10.419235
6.348000,-7.910487
6.349000,-4.285468
6.350000,-0.562440
6.351000,3.034578
6.352000,5.558600
6.353000,5.974815
6.354000,5.718976
6.355000,5.142384
6.356000,5.032921
6.357000,4.611614
6.358000,3.306963
6.359000,2.589087
6.360000,1.976856
