1
6140 1
0.280819	0.006532	0.017918	0.029414	0.020285	0.043451	0.025068	0.028203	0.040810	0.081565	0.062493	0.016427	0.002040	0.070400	0.044125	0.048356	0.047495	0.046463	0.011515	0.009157	0.041004	0.028472	0.036594	0.001384	0.088422	0.056066	0.004286	0.034863	0.053327	0.073617	0.098558	0.038781	0.067311	0.063487	0.053816	0.116730	0.028107	0.015385	0.003964	0.046833	0.215175	0.031358	0.051538	0.098944	0.051438	0.101415	0.005543	0.069354	0.349052	0.418927	0.118786	0.148019	0.150875	0.021273	0.013476	0.264962	0.348859	0.006386	0.057987	0.007872	0.088535	0.275949	0.334777	0.113893	0.115616	0.101228	0.074409	0.030111	0.117344	0.134808	0.002852	0.185772	0.102670	0.021491	0.034544	0.177046	0.134875	0.453954	0.306190	0.456987	0.170214	0.189733	0.123989	0.017625	0.127992	0.765668	0.872918	0.262174	0.471406	0.071669	0.024812	0.102215	0.147029	0.492891	0.405614	0.160156	0.340297	0.185340	0.053423	0.055810	0.111487	0.035254	0.041557	0.196374	0.051406	0.148420	0.278853	0.047665	0.251314	0.019096	0.178533	0.368385	0.111853	0.344835	0.397193	0.410287	0.170842	0.200096	0.061687	0.120352	0.067544	0.177538	0.081587	0.065263	0.364383	0.345543	0.024302	0.255279	0.313761	0.066707	0.021809	0.208298	0.153884	0.109726	0.181127	0.173287	0.151341	0.096220	0.065225	0.167134	0.176498	0.272957	0.189087	0.073867	0.120863	0.129261	0.291002	0.364275	0.098609	0.286782	0.252847	0.216775	0.199810	0.045891	0.136270	0.015186	0.286849	0.108782	0.109279	0.095110	0.062800	0.110825	0.039358	0.226096	0.151166	0.012401	0.257980	0.166588	0.061492	0.011963	0.258701	0.316472	0.305802	0.212063	0.069506	0.301504	0.073603	0.270087	0.170978	0.066749	0.074097	0.418218	0.774989	0.436531	0.409418	0.390702	0.012782	0.045757	0.135827	0.310379	0.298574	0.351313	0.016987	0.144716	0.211018	0.070109	0.123847	0.240248	0.131705	0.046586	0.381465	0.453258	0.494931	0.448469	0.387014	0.036356	0.179071	0.133265	0.000358	0.165989	0.013457	0.132003	0.091017	0.295138	0.331006	0.211314	0.038329	0.090085	0.076078	0.053608	0.521294	0.237806	0.020660	0.041729	0.237794	0.112951	0.280402	0.308510	0.258381	0.553827	0.282258	0.057436	0.013052	0.147501	0.053241	0.185118	0.095355	0.198795	0.107487	0.211209	0.358616	0.081240	0.002277	0.095025	0.246196	0.258757	0.022674	0.233514	0.220297	0.074015	0.078806	0.258294	0.132374	0.042462	0.172264	0.126353	0.011582	0.222762	0.211222	0.212988	0.309564	0.360319	0.490779	0.154303	0.319912	0.321330	0.146831	0.269935	0.521266	0.245053	0.006795	0.044159	0.055588	0.135153	0.377374	0.325671	0.359158	0.116912	0.057489	0.026222	0.137529	0.045111	0.255887	0.308575	0.368809	0.235029	0.054597	0.002558	0.121572	0.109340	0.306867	0.231100	0.094732	0.111710	0.231481	0.355265	0.276808	0.109311	0.066463	0.003383	0.025746	0.217986	0.498997	0.101035	0.149092	0.014248	0.045525	0.123719	0.001576	0.160954	0.020756	0.105694	0.039558	0.008260	0.050811	0.026265	0.026778	0.073470	0.089120	0.087593	0.052544	0.204041	0.037495	0.018113	0.063136	0.038823	0.001847	0.043942	0.121700	0.192554	0.072838	0.126391	0.116350	0.054788	0.006926	0.089191	0.122068	0.030540	0.077497	0.126070	0.099257	0.005257	0.060540	0.046245	0.080449	0.008150	0.026909	0.069613	0.010370	0.064311	0.018562	0.017326	0.077477	0.051029	0.060497	0.044844	0.025382	0.033097	0.064643	0.001126	0.031369	0.068915	0.024980	0.042026	0.028840	0.024652	0.079721	0.018481	0.077912	0.000867	0.021324	0.001043	0.002756	0.006020	0.021736	0.044782	0.146022	0.040911	0.005634	0.022991	0.057462	0.022382	0.010695	0.000328	0.032938	0.010613	0.012267	0.047243	0.073253	0.023801	0.031730	0.007316	0.056593	0.005570	0.007234	0.093413	0.001862	0.002765	0.008905	0.010888	0.026436	0.120050	0.007225	0.006606	0.016092	0.010161	0.001121	0.001958	0.007751	0.028151	0.004765	0.010719	0.041169	0.059699	0.035055	0.008509	0.013358	0.009640	0.010804	0.000327	0.010041	0.000558	0.004594	0.005020	0.010363	0.017034	0.031190	0.015816	0.028526	0.000152	0.005231	0.002689	0.001902	0.000359	0.013327	0.000201	0.010744	0.028333	0.011240	0.015421	0.005484	0.005402	0.001364	0.001527	0.000349	0.014805	0.015737	0.004670	0.007412	0.010010	0.001321	0.012507	0.010654	0.001612	0.000860	0.003830	0.008288	0.001080	0.003157	0.012969	0.006215	0.005767	0.001242	0.002146	0.008207	0.010430	0.010864	0.011211	0.000701	0.057061	0.131968	0.009940	0.038155	0.018630	0.024601	0.016740	0.004284	0.014804	0.002197	0.007545	0.007329	0.002158	0.028011	0.057125	0.039722	0.001604	0.045877	0.030834	0.018922	0.021333	0.066529	0.116403	0.034309	0.023731	0.025457	0.010654	0.011593	0.000774	0.003931	0.045787	0.047949	0.028619	0.021434	0.026146	0.001377	0.031766	0.045097	0.017292	0.026177	0.005025	0.056502	0.025323	0.050112	0.088075	0.123379	0.112237	0.035008	0.025175	0.019981	0.018733	0.093616	0.131500	0.000370	0.010076	0.000347	0.016725	0.024965	0.023466	0.010493	0.100155	0.072259	0.135485	0.099706	0.009867	0.035533	0.011202	0.001439	0.047510	0.012574	0.118953	0.014159	0.063548	0.025213	0.031085	0.018655	0.011692	0.021795	0.111216	0.190440	0.052007	0.004899	0.030661	0.037195	0.015507	0.045909	0.018747	0.065150	0.089810	0.056766	0.040444	0.040540	0.025961	0.062083	0.118237	0.084309	0.052921	0.026719	0.030549	0.001407	0.035390	0.071003	0.013106	0.012874	0.023641	0.033549	0.098168	0.060324	0.006678	0.039860	0.137760	0.076170	0.006299	0.097183	0.020514	0.053003	0.057021	0.042907	0.021565	0.061726	0.079660	0.060483	0.059863	0.069903	0.078461	0.006406	0.001474	0.054656	0.022866	0.073067	0.046259	0.089168	0.029614	0.029561	0.036544	0.055337	0.116913	0.194674	0.023877	0.065117	0.036891	0.038784	0.023032	0.067560	0.093343	0.107309	0.014872	0.100453	0.131469	0.072880	0.014043	0.046312	0.014949	0.050433	0.045100	0.006153	0.031415	0.009974	0.042151	0.066432	0.054850	0.057738	0.033525	0.102397	0.159193	0.079555	0.101196	0.104841	0.034433	0.000574	0.126851	0.084008	0.070338	0.141858	0.039661	0.166685	0.093299	0.020283	0.037633	0.074686	0.072745	0.170621	0.274492	0.134590	0.122518	0.226781	0.130321	0.053558	0.011389	0.054034	0.014382	0.130947	0.199883	0.024657	0.061239	0.061544	0.152517	0.111156	0.066622	0.035982	0.084466	0.112452	0.142049	0.101241	0.042432	0.033209	0.007559	0.025626	0.123623	0.060884	0.001115	0.041992	0.019812	0.051138	0.117421	0.035078	0.094370	0.188283	0.152738	0.090735	0.154224	0.125922	0.014626	0.083194	0.005785	0.032083	0.067441	0.084189	0.163649	0.005766	0.114886	0.048334	0.056737	0.036517	0.095901	0.095247	0.057509	0.151078	0.293385	0.059272	0.019253	0.054748	0.009732	0.000826	0.126588	0.011761	0.052659	0.015280	0.129984	0.035681	0.061853	0.079903	0.125165	0.011099	0.026398	0.060940	0.086881	0.027928	0.029002	0.060816	0.060145	0.028608	0.004542	0.083231	0.190117	0.081026	0.125198	0.043201	0.013521	0.089497	0.141833	0.138625	0.004484	0.026322	0.113058	0.295074	0.039067	0.060824	0.084600	0.082845	0.009478	0.079284	0.325397	0.058041	0.034545	0.053094	0.009518	0.053985	0.197743	0.103618	0.039984	0.034682	0.179146	0.109771	0.008206	0.072145	0.158331	0.148995	0.194073	0.159881	0.251799	0.480220	0.193552	0.184687	0.067013	0.060162	0.014174	0.020884	0.029983	0.136912	0.217497	0.207565	0.207538	0.223799	0.193897	0.073319	0.020042	0.050002	0.049907	0.351922	0.055188	0.040189	0.090782	0.028685	0.197626	0.042160	0.029147	0.125375	0.145008	0.109139	0.087691	0.068703	0.100596	0.023704	0.147315	0.141561	0.163653	0.007860	0.052341	0.105788	0.181125	0.137374	0.126146	0.039481	0.060693	0.126590	0.072228	0.038051	0.114825	0.162858	0.101546	0.028350	0.031064	0.138125	0.035844	0.187923	0.098364	0.034750	0.000385	0.156852	0.221783	0.184778	0.017864	0.061032	0.161050	0.153907	0.045594	0.062904	0.028749	0.041736	0.185670	0.134254	0.063661	0.100956	0.065646	0.022237	0.197658	0.256752	0.271190	0.079566	0.031987	0.108962	0.137031	0.019498	0.007715	0.187865	0.387290	0.207017	0.096806	0.008195	0.049463	0.008690	0.034917	0.112239	0.281559	0.047899	0.145976	0.026983	0.043215	0.058181	0.095412	0.087632	0.019578	0.158243	0.043982	0.224394	0.271790	0.294149	0.220437	0.037883	0.004117	0.073263	0.067105	0.090595	0.009640	0.192019	0.150191	0.287929	0.077419	0.194919	0.097310	0.048266	0.295321	0.532281	0.198637	0.070832	0.215293	0.027673	0.294269	0.083478	0.287476	0.003652	0.159600	0.198164	0.016516	0.115335	0.298695	0.217987	0.071794	0.005628	0.278391	0.311779	0.085418	0.019106	0.096906	0.195276	0.044522	0.199174	0.077924	0.155961	0.453349	0.493405	0.164196	0.240114	0.198332	0.081418	0.189653	0.023118	0.242956	0.105525	0.123848	0.195587	0.019766	0.085048	0.023992	0.055995	0.018730	0.356373	0.292159	0.254631	0.012270	0.131184	0.109101	0.043786	0.108901	0.015764	0.057204	0.162770	0.406742	0.239062	0.095989	0.137011	0.064761	0.002578	0.129035	0.103953	0.049100	0.037140	0.008998	0.045242	0.055685	0.088296	0.144774	0.104745	0.026576	0.053426	0.324590	0.348201	0.394190	0.364784	0.164347	0.133921	0.034128	0.069340	0.108718	0.115645	0.168768	0.013309	0.037665	0.001711	0.142949	0.027090	0.034089	0.125002	0.067790	0.025178	0.007748	0.286724	0.195249	0.152259	0.243789	0.118323	0.153848	0.229553	0.007970	0.111383	0.005627	0.073731	0.244180	0.041595	0.175756	0.288936	0.095624	0.024349	0.318453	0.184928	0.029167	0.047410	0.044253	0.085264	0.135109	0.453353	0.326733	0.287595	0.013545	0.120436	0.141539	0.001136	0.292866	0.608213	0.011862	0.299566	0.178139	0.116999	0.036935	0.106165	0.078795	0.350995	0.199283	0.385289	0.144772	0.157319	0.124614	0.090321	0.090500	0.121266	0.119375	0.126690	0.367350	0.226768	0.168554	0.104324	0.091767	0.123662	0.069269	0.085031	0.014384	0.059999	0.014696	0.107757	0.104328	0.156234	0.028530	0.073287	0.135182	0.185590	0.117406	0.194867	0.150954	0.066932	0.151009	0.112764	0.044871	0.072540	0.160429	0.198418	0.098663	0.184242	0.440181	0.286233	0.060216	0.183874	0.006349	0.055513	0.010364	0.312740	0.203866	0.062817	0.122304	0.042493	0.299484	0.098041	0.201463	0.274802	0.003466	0.058904	0.224868	0.229882	0.053883	0.084260	0.285693	0.165593	0.048163	0.129570	0.033931	0.150206	0.308921	0.290040	0.428299	0.023135	0.145591	0.081318	0.014483	0.019140	0.052300	0.067435	0.068361	0.022233	0.060836	0.055557	0.011585	0.029019	0.016770	0.000341	0.009899	0.008188	0.011245	0.008457	0.115335	0.137871	0.003834	0.067283	0.071350	0.007562	0.035397	0.006086	0.007434	0.016535	0.008244	0.019678	0.017904	0.060314	0.068881	0.055958	0.183641	0.077104	0.049658	0.020331	0.010539	0.032504	0.024338	0.014731	0.010659	0.018897	0.038043	0.043331	0.020676	0.119862	0.011868	0.047836	0.035294	0.018733	0.009378	0.025345	0.011843	0.074074	0.086159	0.040029	0.023716	0.011642	0.029900	0.057864	0.048402	0.065749	0.013515	0.091757	0.004297	0.049838	0.019881	0.002827	0.031082	0.066217	0.010271	0.037266	0.048096	0.023503	0.035269	0.001417	0.026465	0.059347	0.063211	0.041247	0.020851	0.029175	0.014558	0.006603	0.008706	0.029274	0.013148	0.096932	0.004604	0.033144	0.021739	0.007352	0.003125	0.025178	0.024035	0.005297	0.012557	0.027509	0.067630	0.113489	0.078710	0.081359	0.023740	0.033095	0.013242	0.007246	0.002664	0.014718	0.048487	0.015770	0.016056	0.059912	0.126744	0.023571	0.022480	0.005640	0.003671	0.000137	0.006209	0.014750	0.082646	0.136932	0.035949	0.071849	0.052715	0.012214	0.001297	0.011560	0.006436	0.048018	0.146982	0.060346	0.031061	0.049976	0.001155	0.000648	0.047221	0.052899	0.015447	0.008435	0.012498	0.001177	0.027363	0.015680	0.003245	0.030083	0.050232	0.001316	0.017187	0.008496	0.016332	0.018879	0.019249	0.019337	0.001691	0.054064	0.112025	0.053599	0.025467	0.021585	0.073408	0.097723	0.035891	0.007176	0.014467	0.070518	0.166359	0.029801	0.105540	0.202795	0.059009	0.097062	0.039467	0.001146	0.008276	0.058283	0.199004	0.025059	0.114492	0.201591	0.030624	0.115658	0.132716	0.054141	0.111581	0.162613	0.108445	0.081961	0.122452	0.039674	0.056235	0.088634	0.097299	0.094122	0.209081	0.209270	0.011473	0.072170	0.130997	0.101268	0.178287	0.159416	0.049381	0.124011	0.037275	0.143538	0.100793	0.137567	0.308338	0.061137	0.022913	0.221865	0.350218	0.064597	0.179569	0.058361	0.020471	0.012606	0.075886	0.009883	0.017203	0.034761	0.060205	0.020404	0.001439	0.079586	0.024048	0.022772	0.005314	0.130725	0.059087	0.036513	0.033273	0.025028	0.020557	0.012030	0.000527	0.000910	0.000492	0.002417	0.007605	0.016511	0.010678	0.008349	0.020636	0.022813	0.040880	0.012155	0.004273	0.000885	0.001088	0.008413	0.000331	0.003002	0.001329	0.009915	0.017353	0.003282	0.034590	0.019552	0.002991	0.009198	0.006190	0.003359	0.004009	0.005650	0.002077	0.005072	0.008641	0.024599	0.003132	0.004481	0.002350	0.010428	0.000115	0.002891	0.008828	0.002276	0.004744	0.009550	0.002437	0.009347	0.037023	0.006906	0.004662	0.011657	0.001056	0.001236	0.001753	0.005263	0.009942	0.000744	0.002454	0.002241	0.002824	0.002876	0.000609	0.000069	0.009765	0.004007	0.001847	0.000423	0.003163	0.020520	0.002176	0.000157	0.000409	0.005507	0.000258	0.004508	0.004606	0.027779	0.005438	0.002893	0.000405	0.003084	0.000993	0.008339	0.001530	0.001765	0.001146	0.004713	0.002130	0.008186	0.000347	0.001418	0.000860	0.007313	0.002593	0.004645	0.003347	0.001198	0.002887	0.002687	0.002956	0.003563	0.002668	0.005698	0.003365	0.000889	0.002138	0.002973	0.003414	0.004390	0.002351	0.000614	0.006547	0.000665	0.001658	0.005625	0.005057	0.007426	0.004636	0.001384	0.003496	0.004702	0.002274	0.000816	0.002063	0.005381	0.007665	0.004208	0.003374	0.004575	0.000590	0.010219	0.006944	0.002655	0.000625	0.003032	0.002109	0.003618	0.001098	0.001393	0.001240	0.003412	0.007394	0.007792	0.000861	0.005720	0.004969	0.002657	0.000747	0.004045	0.001644	0.007016	0.005537	0.003423	0.005530	0.003861	0.003170	0.003972	0.001843	0.002989	0.001163	0.012008	0.013637	0.001004	0.004201	0.000708	0.000565	0.001082	0.001257	0.004149	0.002877	0.000368	0.000436	0.003436	0.001490	0.000607	0.000287	0.001992	0.003457	0.000315	0.002697	0.008252	0.000267	0.003015	0.001072	0.002289	0.002556	0.004245	0.001351	0.005482	0.002869	0.004421	0.002522	0.001463	0.004063	0.008197	0.000075	0.000236	0.000054	0.003667	0.002536	0.000726	0.001918	0.002540	0.000097	0.005836	0.007039	0.002636	0.003779	0.003569	0.001812	0.004251	0.000455	0.004311	0.003988	0.000922	0.003920	0.004811	0.002319	0.000519	0.001896	0.004968	0.002833	0.001636	0.000520	0.000866	0.000392	0.006041	0.011299	0.003543	0.003631	0.001363	0.005329	0.006278	0.004607	0.001800	0.005024	0.005580	0.006140	0.004664	0.005827	0.004093	0.001363	0.018210	0.011436	0.041015	0.052290	0.036796	0.089393	0.090312	0.005744	0.019959	0.059279	0.048418	0.057398	0.159161	0.232840	0.014854	0.067436	0.021086	0.060349	0.039403	0.036939	0.089712	0.191862	0.078620	0.068138	0.047371	0.033591	0.135404	0.196858	0.074514	0.043674	0.045644	0.005931	0.034081	0.003189	0.127332	0.025885	0.171034	0.078442	0.105149	0.085786	0.046945	0.042551	0.066786	0.021256	0.075310	0.037520	0.081978	0.079185	0.171930	0.114125	0.028331	0.106214	0.058256	0.015913	0.020517	0.050364	0.004131	0.098763	0.013165	0.017493	0.113756	0.031676	0.018837	0.038105	0.057546	0.049329	0.077805	0.122428	0.075489	0.238633	0.114499	0.169062	0.084170	0.017433	0.108024	0.236026	0.066341	0.166137	0.313195	0.161421	0.185670	0.052877	0.065962	0.243940	0.221679	0.198280	0.316869	0.047028	0.067625	0.051308	0.097702	0.029202	0.287955	0.416013	0.264593	0.047301	0.073796	0.002438	0.055517	0.112854	0.164839	0.185825	0.155107	0.140489	0.013976	0.188192	0.099877	0.023586	0.021620	0.230303	0.069003	0.097548	0.076917	0.262258	0.055697	0.050847	0.098181	0.042957	0.143046	0.288873	0.175047	0.013547	0.244813	0.240389	0.049634	0.132668	0.198742	0.077945	0.000294	0.014957	0.416089	0.569904	0.206773	0.207843	0.217891	0.219243	0.262841	0.122353	0.008986	0.204881	0.287693	0.051630	0.243217	0.185718	0.059562	0.078455	0.100633	0.042583	0.321894	0.183716	0.254149	0.021393	0.133805	0.052368	0.297216	0.530286	0.167178	0.115691	0.197383	0.061271	0.002566	0.122277	0.099033	0.256897	0.254990	0.230075	0.160496	0.186075	0.025155	0.118098	0.326119	0.087436	0.151560	0.017343	0.293035	0.697053	0.017940	0.185456	0.284582	0.363461	0.029060	0.177757	0.429115	0.165214	0.143477	0.161838	0.120360	0.045959	0.204263	0.116257	0.085287	0.063896	0.006436	0.003576	0.101453	0.127736	0.336302	0.520240	0.154217	0.291817	0.191918	0.188691	0.377555	0.271006	0.166584	0.097041	0.011021	0.119323	0.371756	0.159125	0.257163	0.334959	0.307436	0.071094	0.069821	0.069121	0.050238	0.002242	0.327751	0.403035	0.264876	0.141413	0.070760	0.023032	0.297939	0.308685	0.189755	0.156977	0.068750	0.036009	0.099892	0.000430	0.093427	0.079412	0.139745	0.230434	0.089809	0.056095	0.202990	0.031348	0.079828	0.015569	0.211411	0.294784	0.455963	0.658314	0.167901	0.096141	0.023149	0.074439	0.119030	0.130263	0.155905	0.004874	0.317553	0.118416	0.049510	0.153983	0.150020	0.044433	0.121967	0.250181	0.469419	0.076722	0.162511	0.037575	0.290222	0.120253	0.067474	0.136441	0.031490	0.311975	0.385998	0.116960	0.378774	0.382488	0.227130	0.107974	0.076786	0.193325	0.148321	0.062827	0.078222	0.211174	0.009900	0.001128	0.249980	0.000041	0.049147	0.364660	0.558040	0.198130	0.042949	0.006808	0.130531	0.031334	0.026025	0.094336	0.164981	0.194447	0.373863	0.451744	0.078703	0.159036	0.133130	0.124059	0.003775	0.094360	0.494678	0.911423	0.268360	0.011889	0.205209	0.147908	0.080146	0.196656	0.067292	0.007893	0.328715	0.014060	0.024511	0.113956	0.061360	0.116549	0.129387	0.132781	0.512270	0.673214	0.231561	0.147430	0.417856	0.258838	0.061408	0.096178	0.156474	0.007226	0.137115	0.601020	0.154964	0.039422	0.003172	0.027068	0.099090	0.163539	0.115892	0.402950	0.252110	0.217714	0.306306	0.234462	0.023987	0.036329	0.212078	0.684644	0.068062	0.243322	0.160013	0.474061	0.366403	0.106284	0.177792	0.344054	0.309235	0.391938	0.720583	0.070547	0.035505	0.217474	0.032990	0.181213	0.337907	0.577307	0.025955	0.177657	0.213382	0.175843	0.146951	0.211217	0.092802	0.456552	0.282493	0.023989	0.037420	0.069625	0.134275	0.359654	0.122516	0.189651	0.321867	0.367001	0.222543	0.166918	0.075012	0.040651	0.014959	0.115860	0.055790	0.015010	0.353080	0.158167	0.085802	0.111350	0.047903	0.065196	0.102876	0.086400	0.262509	0.200167	0.152694	0.041250	0.078172	0.000296	0.036024	0.179594	0.238968	0.101422	0.194957	0.148969	0.092080	0.010156	0.001286	0.002611	0.080983	0.027572	0.200936	0.280917	0.054941	0.105025	0.063057	0.105981	0.041817	0.018695	0.006850	0.079572	0.038838	0.100231	0.030235	0.011917	0.052432	0.025557	0.009022	0.063142	0.052765	0.013338	0.338742	0.340215	0.028611	0.242861	0.250614	0.011230	0.067051	0.043599	0.256054	0.392994	0.029652	0.130048	0.036420	0.003482	0.118963	0.195820	0.140330	0.099596	0.229419	0.105396	0.068571	0.036682	0.080535	0.107037	0.040116	0.006929	0.158437	0.178749	0.107039	0.137901	0.008275	0.014932	0.036640	0.020239	0.005489	0.057967	0.061756	0.036195	0.012568	0.055741	0.115761	0.047489	0.034422	0.009544	0.170017	0.199968	0.041367	0.285600	0.063313	0.030335	0.081058	0.072273	0.118695	0.141081	0.098339	0.013062	0.074684	0.085807	0.064998	0.055956	0.045229	0.140664	0.036243	0.190842	0.136807	0.222325	0.241883	0.048390	0.031256	0.177755	0.036681	0.087383	0.245510	0.137367	0.334429	0.306833	0.238117	0.118136	0.260057	0.258381	0.274931	0.009636	0.351287	0.294106	0.106174	0.195351	0.152837	0.088932	0.013131	0.020987	0.018431	0.142917	0.294925	0.140052	0.234394	0.244183	0.071293	0.052634	0.056221	0.289592	0.303943	0.433779	0.136354	0.287194	0.523449	0.173024	0.059203	0.106467	0.085605	0.431915	0.695551	0.079934	0.099695	0.075166	0.143656	0.177600	0.114702	0.205516	0.035498	0.123437	0.237742	0.035044	0.076889	0.293093	0.361785	0.031370	0.254001	0.184648	0.037147	0.141857	0.074578	0.219014	0.146594	0.146736	0.006210	0.079389	0.134761	0.116526	0.155821	0.032926	0.321087	0.346514	0.075900	0.131086	0.136541	0.048286	0.290715	0.255252	0.198148	0.011503	0.110751	0.024922	0.247607	0.273146	0.512997	0.208061	0.270565	0.442097	0.146940	0.472047	0.384800	0.052913	0.057268	0.098485	0.082846	0.013233	0.445611	0.153364	0.164692	0.004371	0.062663	0.018680	0.298040	0.239882	0.138487	0.095202	0.125570	0.042609	0.208252	0.122287	0.280380	0.237120	0.007659	0.086389	0.219701	0.460472	0.135893	0.186027	0.099590	0.126985	0.132098	0.002326	0.009253	0.099093	0.059136	0.057586	0.083075	0.011450	0.038028	0.079429	0.108221	0.050343	0.002461	0.022263	0.015368	0.120131	0.086635	0.004046	0.010410	0.085988	0.071375	0.033754	0.186498	0.157493	0.026405	0.006847	0.060477	0.077879	0.065815	0.175257	0.004408	0.042155	0.019668	0.092716	0.093727	0.000355	0.003605	0.057376	0.213190	0.213550	0.159044	0.076578	0.110247	0.024895	0.144873	0.019936	0.016922	0.076979	0.312137	0.176912	0.131150	0.048294	0.180917	0.030544	0.095707	0.067762	0.000280	0.057096	0.082434	0.045557	0.074334	0.083966	0.018088	0.010847	0.037273	0.073632	0.078752	0.006247	0.125968	0.004519	0.114611	0.081984	0.001785	0.022082	0.021198	0.005851	0.118945	0.109144	0.169978	0.033445	0.098288	0.104023	0.000097	0.044754	0.029540	0.092615	0.038396	0.537795	0.131016	0.071777	0.062237	0.004595	0.016799	0.024777	0.031427	0.061339	0.133203	0.008079	0.073753	0.025668	0.114878	0.062349	0.043027	0.018319	0.017121	0.000628	0.063691	0.055934	0.061626	0.163751	0.119355	0.002716	0.073213	0.031819	0.019462	0.157278	0.055446	0.028172	0.083520	0.259793	0.108837	0.009833	0.049962	0.068815	0.164879	0.093374	0.113673	0.335032	0.371734	0.078530	0.236206	0.147203	0.106805	0.014405	0.064691	0.157366	0.148035	0.042861	0.311954	0.400484	0.044620	0.200112	0.166182	0.039350	0.212404	0.159165	0.127241	0.140581	0.062179	0.100740	0.373354	0.229899	0.418206	0.247550	0.083359	0.034875	0.212167	0.400722	0.120490	0.010724	0.040573	0.152284	0.086043	0.080102	0.111291	0.168887	0.156811	0.028535	0.065249	0.366554	0.436524	0.183351	0.218059	0.186707	0.004527	0.025287	0.184609	0.214954	0.139099	0.019621	0.313161	0.176452	0.028733	0.081633	0.167648	0.104994	0.075546	0.215459	0.146529	0.100584	0.086921	0.058601	0.006117	0.334712	0.531846	0.090802	0.053685	0.194955	0.005096	0.134631	0.135078	0.016920	0.126427	0.250426	0.124039	0.272275	0.214980	0.212708	0.110854	0.197510	0.273861	0.235777	0.214208	0.071261	0.032558	0.299674	0.344702	0.157045	0.069577	0.150503	0.184451	0.095338	0.049575	0.181353	0.264823	0.106244	0.123872	0.203393	0.007749	0.181491	0.008469	0.292338	0.050430	0.114528	0.180408	0.048553	0.258196	0.188353	0.101398	0.037923	0.056138	0.007755	0.138261	0.252931	0.034129	0.035716	0.039567	0.025932	0.008509	0.013815	0.021118	0.034313	0.030836	0.131074	0.044743	0.000264	0.028344	0.006125	0.020183	0.004767	0.097910	0.104478	0.034009	0.006630	0.013964	0.021600	0.020622	0.019089	0.062967	0.012608	0.021725	0.018152	0.009057	0.019780	0.006357	0.044000	0.051373	0.005597	0.019850	0.011613	0.017469	0.023926	0.022537	0.026917	0.041312	0.022724	0.043462	0.069259	0.086937	0.107499	0.045038	0.034100	0.115015	0.009368	0.058705	0.036526	0.036440	0.004716	0.003348	0.013173	0.003500	0.040104	0.015463	0.012954	0.019594	0.034718	0.032015	0.000042	0.004694	0.004606	0.030848	0.030549	0.031310	0.031856	0.028901	0.052557	0.013395	0.019524	0.010226	0.008900	0.007557	0.003605	0.025125	0.002176	0.006467	0.009573	0.008239	0.040699	0.083271	0.005132	0.024125	0.048905	0.020323	0.015624	0.007486	0.010582	0.008042	0.002452	0.015606	0.007442	0.004532	0.019133	0.011769	0.008440	0.012533	0.007237	0.004635	0.015483	0.057980	0.110415	0.014535	0.064964	0.031608	0.059418	0.018876	0.009563	0.056053	0.026178	0.063776	0.042440	0.033132	0.006348	0.046724	0.038399	0.011791	0.000171	0.015173	0.007645	0.008829	0.014660	0.021027	0.022190	0.008771	0.009689	0.000788	0.024764	0.043577	0.017897	0.005409	0.001370	0.002238	0.006175	0.018426	0.048298	0.001722	0.000903	0.010929	0.003614	0.016732	0.040764	0.009135	0.011888	0.005490	0.001583	0.017644	0.025766	0.002747	0.010149	0.005313	0.005962	0.008582	0.039524	0.015295	0.014011	0.015820	0.019321	0.034436	0.006947	0.000462	0.003042	0.007236	0.051896	0.057012	0.001081	0.001436	0.005860	0.004298	0.042048	0.069149	0.017045	0.011192	0.008892	0.050447	0.071538	0.023271	0.002280	0.012369	0.041455	0.057541	0.013154	0.009395	0.029001	0.079318	0.095852	0.016540	0.019577	0.015188	0.015820	0.044479	0.002564	0.005627	0.013759	0.028859	0.076642	0.012142	0.006039	0.044988	0.060281	0.001146	0.015899	0.017995	0.008261	0.019409	0.007171	0.020912	0.022148	0.019794	0.004351	0.023993	0.040083	0.105369	0.031088	0.002845	0.015870	0.002068	0.012412	0.020737	0.003587	0.016696	0.008090	0.007471	0.005986	0.068691	0.026040	0.024872	0.020938	0.009689	0.022262	0.032035	0.002396	0.016099	0.023420	0.005194	0.005529	0.002908	0.020442	0.113791	0.154312	0.013687	0.015127	0.004635	0.031190	0.009164	0.087437	0.020340	0.109951	0.107929	0.107034	0.022503	0.105883	0.169069	0.164500	0.084507	0.077468	0.017719	0.227350	0.164705	0.005515	0.309655	0.292053	0.212620	0.125051	0.017904	0.084410	0.115586	0.127352	0.055592	0.079659	0.072441	0.289150	0.013733	0.434120	0.170780	0.025164	0.002969	0.226279	0.079864	0.015071	0.023168	0.062690	0.071884	0.017162	0.006663	0.033872	0.110261	0.008353	0.015031	0.025816	0.069105	0.033747	0.119087	0.254459	0.315251	0.375183	0.054826	0.203822	0.026728	0.008979	0.031845	0.022152	0.009957	0.022768	0.111359	0.280073	0.118293	0.243725	0.032008	0.014057	0.027323	0.285398	0.385239	0.036024	0.217881	0.340810	0.042454	0.116657	0.065514	0.056913	0.048136	0.232172	0.084762	0.041071	0.026064	0.046019	0.002724	0.005547	0.123180	0.176159	0.045264	0.161961	0.008870	0.006245	0.046195	0.031505	0.002785	0.075665	0.012815	0.002904	0.104011	0.068090	0.042614	0.058144	0.074181	0.036812	0.000281	0.002306	0.009184	0.060069	0.062850	0.055128	0.022192	0.015139	0.042744	0.045153	0.042030	0.009922	0.026448	0.028456	0.030987	0.011435	0.095542	0.022279	0.018183	0.024506	0.032931	0.014200	0.031394	0.024227	0.000114	0.065584	0.028530	0.118005	0.039117	0.018370	0.051532	0.056749	0.079173	0.195073	0.038000	0.083787	0.070619	0.006858	0.007900	0.010097	0.001874	0.056501	0.079334	0.025711	0.002960	0.034434	0.165105	0.075078	0.070727	0.034091	0.112832	0.019690	0.132417	0.214736	0.037623	0.182200	0.196040	0.070258	0.062136	0.058932	0.138492	0.267042	0.028832	0.216715	0.103165	0.396930	0.151631	0.046007	0.293223	0.049133	0.174361	0.068863	0.095620	0.104170	0.060983	0.124782	0.317046	0.048383	0.077501	0.037998	0.052247	0.198678	0.212339	0.060050	0.099728	0.089565	0.002294	0.071469	0.044662	0.154592	0.249910	0.011495	0.008141	0.174514	0.000323	0.120486	0.104639	0.100537	0.005246	0.127804	0.010212	0.059172	0.087027	0.015157	0.064986	0.016976	0.001502	0.098394	0.027255	0.124628	0.007430	0.156338	0.113923	0.169614	0.102820	0.001595	0.624286	0.095952	0.019442	0.066377	0.054516	0.000338	0.378841	0.516160	0.046941	0.261836	0.109046	0.065545	0.098316	0.025648	0.045982	0.009471	0.055765	0.057952	0.077135	0.053009	0.165413	0.095439	0.006784	0.010402	0.020539	0.009252	0.056028	0.039955	0.023552	0.064188	0.009630	0.030024	0.033796	0.074871	0.086528	0.007894	0.027639	0.017593	0.014506	0.044753	0.002734	0.049765	0.009124	0.033436	0.004967	0.048203	0.040388	0.031268	0.026136	0.006047	0.003438	0.001072	0.003036	0.011494	0.037800	0.025512	0.043953	0.024996	0.014232	0.070249	0.119877	0.019448	0.043879	0.036330	0.010095	0.002451	0.012850	0.043931	0.002412	0.029912	0.018132	0.115032	0.064527	0.017172	0.039952	0.009793	0.031490	0.018522	0.085767	0.011423	0.065635	0.058202	0.042769	0.042409	0.060004	0.027371	0.000677	0.028998	0.000860	0.038579	0.007506	0.067254	0.020426	0.036214	0.011755	0.033801	0.003701	0.017844	0.055640	0.066246	0.003606	0.069608	0.039124	0.012169	0.034751	0.012535	0.021723	0.001353	0.044874	0.054573	0.022350	0.000665	0.006702	0.008286	0.147890	0.180462	0.039950	0.096378	0.083713	0.026497	0.060665	0.024304	0.016475	0.000503	0.067776	0.057130	0.199422	0.145710	0.050276	0.234949	0.022813	0.265076	0.041678	0.131813	0.053504	0.131343	0.072113	0.037308	0.065112	0.183655	0.340032	0.063329	0.253715	0.021180	0.148609	0.102641	0.144210	0.201428	0.235507	0.185918	0.086523	0.049466	0.016291	0.121868	0.148182	0.048478	0.228789	0.125147	0.116658	0.065379	0.185339	0.338868	0.288372	0.032453	0.078978	0.047198	0.248023	0.299713	0.489585	0.011360	0.069161	0.197252	0.086720	0.403027	0.062293	0.141012	0.147098	0.081571	0.179027	0.490842	0.585479	0.148613	0.132766	0.130500	0.170712	0.130758	0.252727	0.314662	0.017057	0.050030	0.006850	0.030765	0.074951	0.274024	0.248145	0.297072	0.190043	0.050900	0.013773	0.038680	0.082963	0.152023	0.089822	0.213612	0.199557	0.033488	0.104508	0.240984	0.411074	0.122953	0.151217	0.119709	0.020583	0.141468	0.111309	0.045890	0.056772	0.057157	0.009410	0.070001	0.011120	0.028859	0.004295	0.041979	0.052273	0.014145	0.001294	0.002583	0.000281	0.001126	0.008651	0.001637	0.008358	0.006455	0.005455	0.003584	0.071771	0.008883	0.009490	0.072595	0.016084	0.000722	0.011316	0.039645	0.065223	0.014429	0.032256	0.031647	0.028091	0.074378	0.001397	0.064431	0.070061	0.010376	0.018703	0.015788	0.007592	0.021065	0.022113	0.024066	0.084775	0.041277	0.042392	0.031936	0.049447	0.014772	0.000750	0.049792	0.025642	0.006848	0.048760	0.060303	0.018003	0.095511	0.124531	0.012424	0.027992	0.003872	0.001473	0.030090	0.085327	0.183891	0.023380	0.056342	0.021774	0.006556	0.008577	0.029820	0.011099	0.008387	0.006782	0.004632	0.006284	0.015998	0.023434	0.045065	0.008841	0.019086	0.020771	0.029080	0.070233	0.038401	0.023221	0.056286	0.031976	0.046869	0.100335	0.053639	0.024163	0.012071	0.014144	0.020119	0.000902	0.041995	0.043215	0.019020	0.004511	0.063021	0.054710	0.050011	0.017291	0.007897	0.028915	0.009311	0.080230	0.095100	0.079613	0.038232	0.098607	0.137104	0.144676	0.115284	0.049563	0.066877	0.109225	0.048800	0.201698	0.034476	0.189356	0.100779	0.162465	0.039977	0.121023	0.013736	0.164951	0.042362	0.101439	0.142952	0.021751	0.026029	0.016383	0.021009	0.005213	0.054131	0.000553	0.007890	0.007294	0.075774	0.054122	0.021713	0.060583	0.112393	0.096626	0.093071	0.009087	0.004833	0.001855	0.025866	0.008968	0.027737	0.106711	0.008220	0.279530	0.333008	0.107481	0.391634	0.624108	0.148654	0.190223	0.193864	0.279134	0.016333	0.116034	0.375095	0.352104	0.164904	0.180536	0.068931	0.166609	0.060192	0.148073	0.125477	0.285471	0.107275	0.082085	0.020175	0.091082	0.102374	0.044737	0.010684	0.012466	0.025627	0.009528	0.007848	0.057740	0.011343	0.034805	0.075044	0.002620	0.072664	0.013399	0.030309	0.043781	0.057903	0.037891	0.052936	0.051951	0.033146	0.148778	0.166388	0.261773	0.089688	0.002287	0.045513	0.127232	0.220236	0.113354	0.317401	0.148145	0.375839	0.493735	0.717698	0.545950	0.379204	0.294350	0.707311	1.000000	0.116537	0.054186	0.002614	0.159279	0.098928	0.012422	0.113884	0.015657	0.171145	0.104625	0.021398	0.330253	0.357755	0.053023	0.022802	0.138607	0.110130	0.053198	0.013779	0.057080	0.025971	0.111390	0.021992	0.029208	0.039024	0.095220	0.109126	0.095391	0.054230	0.021970	0.082542	0.001783	0.150392	0.486102	0.597755	0.043555	0.022503	0.211201	0.272119	0.038430	0.150335	0.075900	0.020461	0.059382	0.259641	0.125694	0.038107	0.099762	0.010194	0.239434	0.352629	0.069358	0.207227	0.122047	0.092667	0.093063	0.063110	0.033517	0.000573	0.014640	0.015976	0.057418	0.011980	0.119880	0.058170	0.021188	0.101268	0.010220	0.002213	0.060790	0.013103	0.044462	0.006420	0.024094	0.171557	0.072297	0.038780	0.071237	0.216250	0.066158	0.202178	0.067190	0.171566	0.339237	0.308162	0.148028	0.068281	0.143354	0.183681	0.402885	0.121102	0.106176	0.322262	0.363022	0.656151	0.391676	0.324075	0.032909	0.310770	0.522434	0.326284	0.173553	0.197638	0.035509	0.080359	0.033053	0.034358	0.029869	0.083961	0.114750	0.010576	0.036350	0.029669	0.050472	0.117617	0.073312	0.031288	0.022998	0.010001	0.042945	0.036553	0.065782	0.056054	0.025614	0.041269	0.038913	0.053907	0.024254	0.044229	0.148791	0.156804	0.120868	0.060338	0.020468	0.225201	0.034952	0.167244	0.012436	0.519476	0.201280	0.037517	0.073120	0.066890	0.139698	0.109613	0.049624	0.483710	0.140487	0.157789	0.120053	0.087994	0.268446	0.025131	0.001183	0.066398	0.141771	0.098199	0.029398	0.045771	0.040536	0.001284	0.082071	0.011462	0.290931	0.034683	0.061759	0.142944	0.036210	0.021734	0.067163	0.030085	0.132519	0.015335	0.233630	0.162641	0.121469	0.096674	0.042660	0.038944	0.062006	0.345414	0.072150	0.482475	0.016829	0.452054	0.136066	0.343877	0.119868	0.123676	0.150767	0.884792	0.311919	0.079306	0.077408	0.185937	0.055165	0.006690	0.019253	0.123387	0.080271	0.055298	0.086117	0.168573	0.017985	0.092503	0.191798	0.248564	0.036673	0.053995	0.034145	0.138234	0.052371	0.014046	0.039948	0.120040	0.017091	0.172607	0.063281	0.070413	0.071222	0.085122	0.115722	0.022024	0.358499	0.061882	0.169184	0.074694	0.220378	0.087975	0.060989	0.083314	0.015538	0.053234	0.097822	0.096984	0.023434	0.140815	0.428543	0.011168	0.142506	0.069014	0.342331	0.576970	0.241963	0.003634	0.071047	0.039185	0.003238	0.072192	0.077570	0.013767	0.053166	0.055521	0.006619	0.066918	0.036643	0.142579	0.095664	0.105338	0.093381	0.072539	0.017124	0.134379	0.070131	0.038270	0.118397	0.002524	0.061155	0.016093	0.018798	0.078600	0.066596	0.009411	0.024561	0.141165	0.014560	0.018823	0.190724	0.212361	0.064483	0.040920	0.283356	0.012804	0.440522	0.032423	0.090785	0.135171	0.151524	0.667158	0.431557	0.281839	0.266208	0.159795	0.305420	0.296891	0.037376	0.150108	0.034437	0.156195	0.024418	0.115855	0.084938	0.049857	0.016581	0.038012	0.049451	0.048026	0.123385	0.078558	0.063091	0.024069	0.122766	0.038572	0.035853	0.016490	0.083186	0.095477	0.067811	0.007471	0.038650	0.061502	0.045240	0.143292	0.274976	0.378752	0.028771	0.144709	0.104558	0.354026	0.140027	0.531095	0.199279	0.520060	0.464620	0.027895	0.378501	0.607760	0.082975	0.172970	0.234015	0.216236	0.216754	0.083914	0.188454	0.167292	0.028625	0.091664	0.025071	0.297919	0.482710	0.074924	0.073588	0.329895	0.220338	0.160661	0.246476	0.066495	0.846200	0.210300	0.052623	0.113545	0.299189	0.021422	0.120970	0.216334	0.311777	0.205107	0.145780	0.057053	0.216406	0.095062	0.076388	0.068559	0.573279	0.803109	0.129429	0.522832	0.778415	0.593731	0.298477	0.260889	0.012289	0.098536	0.136374	0.022884	0.013052	0.051568	0.118040	0.088140	0.039109	0.040266	0.100571	0.158011	0.029111	0.164233	0.064883	0.070938	0.039155	0.209454	0.220211	0.073812	0.077697	0.054073	0.068255	0.038176	0.017168	0.180406	0.202571	0.069430	0.106781	0.113186	0.034452	0.098648	0.065379	0.014816	0.119921	0.156527	0.104177	0.330657	0.016272	0.134360	0.063463	0.075928	0.012069	0.042332	0.255890	0.154093	0.445316	0.467322	0.255002	0.388207	0.131488	0.147180	0.379000	0.274408	0.035609	0.071733	0.198531	0.022232	0.190496	0.126668	0.485994	0.233405	0.176252	0.019636	0.077299	0.136003	0.186871	0.156956	0.078901	0.079642	0.414247	0.060204	0.217747	0.442628	0.365793	0.232590	0.291047	0.237776	0.260647	0.796896	0.281625	0.367010	0.411521	0.548227	0.538184	0.305888	0.059597	0.227290	0.403709	0.370383	0.337319	0.636035	0.140018	0.094394	0.120085	0.360962	0.266917	0.183038	0.466168	0.939985	0.047588	0.426257	0.017687	0.013100	0.018648	0.093317	0.115715	0.057435	0.125163	0.071540	0.027215	0.119863	0.123463	0.148868	0.046761	0.160886	0.341570	0.016522	0.150235	0.045464	0.058076	0.082713	0.110154	0.011020	0.054721	0.099517	0.026664	0.010891	0.039928	0.044812	0.007211	0.085654	0.020133	0.002021	0.090636	0.031861	0.002714	0.150106	0.080213	0.007196	0.034395	0.064944	0.026011	0.098428	0.072163	0.109649	0.084850	0.005070	0.230089	0.086266	0.090065	0.084453	0.068845	0.042361	0.012552	0.087367	0.051118	0.068754	0.036445	0.037218	0.069199	0.028796	0.029994	0.031598	0.018263	0.177662	0.031308	0.027153	0.044517	0.071070	0.020969	0.021376	0.027343	0.183307	0.210480	0.507168	0.404764	0.110739	0.078759	0.159318	0.444869	0.243496	0.444227	0.049193	0.090533	0.177034	0.139432	0.020080	0.103206	0.096459	0.166130	0.039154	0.081764	0.297003	0.492050	0.164872	0.282178	0.156575	0.011450	0.188706	0.076549	0.376478	0.539159	0.214342	0.264228	0.089341	0.146246	0.042125	0.243718	0.222108	0.367839	0.263072	0.044538	0.044134	0.260038	0.090200	0.227914	0.158462	0.017560	0.205889	0.361398	0.004734	0.130501	0.109078	0.286585	0.379878	0.228250	0.624677	0.453378	0.010984	0.050536	0.164074	0.272464	0.238782	0.211694	0.213452	0.398573	0.181907	0.289907	0.202093	0.117464	0.035856	0.054295	0.113074	0.002654	0.075998	0.211328	0.238454	0.264059	0.373036	0.165202	0.272182	0.337693	0.338465	0.317152	0.041462	0.108135	0.031341	0.246436	0.146689	0.152375	0.129890	0.249826	0.361653	0.011968	0.311532	0.234159	0.211805	0.526712	0.773823	0.125876	0.137004	0.392473	0.584749	0.369344	0.451900	0.171552	0.052142	0.127272	0.083296	0.079011	0.019029	0.043112	0.170857	0.118762	0.041206	0.018578	0.035812	0.102493	0.053752	0.004006	0.007110	0.113363	0.244951	0.082559	0.064239	0.027009	0.009013	0.109762	0.013479	0.005467	0.063869	0.008527	0.252588	0.024521	0.014537	0.035499	0.104723	0.005609	0.007390	0.015844	0.011945	0.318963	0.369287	0.007339	0.112535	0.068494	0.004849	0.069718	0.055844	0.121731	0.065155	0.076543	0.094275	0.015247	0.035238	0.041844	0.026172	0.015580	0.030708	0.032826	0.092007	0.024797	0.074566	0.047954	0.081187	0.049194	0.015932	0.098704	0.039155	0.062133	0.100792	0.203511	0.017572	0.039609	0.235855	0.105594	0.203956	0.283952	0.113931	0.031612	0.162603	0.033866	0.006448	0.058290	0.015517	0.015011	0.123422	0.208135	0.087116	0.114941	0.009715	0.019513	0.016170	0.333868	0.367407	0.103851	0.137853	0.024185	0.022459	0.093106	0.130152	0.034324	0.101953	0.197515	0.113352	0.039254	0.039387	0.114817	0.164474	0.262764	0.417122	0.288788	0.055335	0.046674	0.162163	0.272761	0.191689	0.111775	0.029201	0.000430	0.024800	0.063632	0.088968	0.082759	0.049238	0.017672	0.037641	0.023158	0.007344	0.016898	0.171686	0.006221	0.066540	0.046398	0.017621	0.036978	0.142647	0.004836	0.231251	0.113663	0.048006	0.371921	0.477928	0.294755	0.179688	0.242741	0.151308	0.026756	0.168766	0.007394	0.011814	0.184256	0.656474	0.682822	0.487189	0.163456	0.266553	0.071326	0.040033	0.007204	0.015438	0.005449	0.151711	0.063625	0.000845	0.051550	0.028263	0.087583	0.017577	0.047664	0.023055	0.070966	0.089097	0.038601	0.092519	0.040689	0.052692	0.056345	0.009899	0.061975	0.258327	0.621358	0.267643	0.445925	0.484575	0.444869	0.015682	0.019196	0.123461	0.365039	0.084338	0.236103	0.204950	0.259188	0.065122	0.051647	0.008334	0.312914	0.305071	0.072562	0.220103	0.121516	0.022236	0.091675	0.137400	0.002688	0.022153	0.061814	0.098025	0.030099	0.020877	0.115914	0.037555	0.055895	0.017441	0.099658	0.004577	0.037728	0.045962	0.108146	0.025885	0.258434	0.038149	0.156926	0.095283	0.057761	0.127239	0.462305	0.313009	0.137498	0.292876	0.399223	0.136636	0.380869	0.094476	0.139919	0.065454	0.372220	0.223665	0.125752	0.476052	0.096895	0.049103	0.146473	0.087254	0.186604	0.689281	0.035157	0.248515	0.030260	0.013596	0.095628	0.009323	0.035512	0.073034	0.081752	0.101715	0.061427	0.058164	0.018892	0.059226	0.006207	0.044750	0.041736	0.031251	0.038535	0.166882	0.074467	0.223983	0.055254	0.521948	0.332438	0.007917	0.085772	0.327908	0.285808	0.133539	0.021386	0.000722	0.082403	0.041000	0.053601	0.127797	0.171187	0.274874	0.475553	0.113745	0.019453	0.024899	0.309426	0.204872	0.365008	0.384862	0.263448	0.110670	0.067756	0.287091	0.226878	0.042639	0.047138	0.007296	0.005090	0.127776	0.022014	0.024551	0.009193	0.012062	0.078434	0.046217	0.031665	0.116772	0.151644	0.284344	0.087027	0.306871	0.245598	0.269967	0.653511	0.224710	0.171174	0.126193	0.030977	0.013310	0.069754	0.053835	0.507543	0.136336	0.293024	0.024744	0.002552	0.074079	0.064463	0.143705	0.097257	0.289486	0.035744	0.075616	0.104828	0.111847	0.091732	0.270846	0.023603	0.083868	0.075827	0.152203	0.426819	0.030212	0.149503	0.090057	0.031599	0.137997	0.054976	0.018699	0.058090	0.017497	0.041475	0.005774	0.018870	0.030574	0.026259	0.107219	0.093440	0.002585	0.024988	0.039081	0.045906	0.012597	0.008055	0.038977	0.143064	0.087366	0.103129	0.028878	0.061182	0.021811	0.040252	0.023795	0.090244	0.051546	0.034209	0.017921	0.066961	0.055737	0.003321	0.026318	0.016229	0.069523	0.074911	0.014179	0.061427	0.012660	0.026184	0.011299	0.069635	0.079295	0.122438	0.013647	0.057434	0.012661	0.059565	0.187442	0.100324	0.047242	0.122119	0.074405	0.008943	0.048005	0.031551	0.061480	0.006109	0.014471	0.018520	0.017454	0.038549	0.001380	0.034832	0.021838	0.019262	0.044528	0.014386	0.012414	0.040876	0.024445	0.056109	0.079553	0.204058	0.017137	0.072189	0.042711	0.000943	0.051910	0.006739	0.121579	0.125729	0.150519	0.130794	0.043132	0.035794	0.045900	0.007290	0.000839	0.035640	0.082713	0.002978	0.174346	0.093576	0.109514	0.045470	0.245615	0.387466	0.387227	0.276657	0.078064	0.208326	0.041669	0.035542	0.467229	0.559870	0.026866	0.097240	0.036062	0.187627	0.120357	0.021179	0.061278	0.047495	0.005833	0.121039	0.146569	0.070873	0.094274	0.287690	0.103305	0.157617	0.175377	0.190760	0.392227	0.170240	0.162384	0.355282	0.156216	0.227896	0.181120	0.097630	0.019025	0.399222	0.244921	0.152093	0.219143	0.041865	0.098057	0.064102	0.266403	0.708469	0.003893	0.207320	0.186853	0.123367	0.055965	0.182947	0.403763	0.102116	0.000097	0.173162	0.167581	0.204080	0.018798	0.089727	0.039375	0.175280	0.351552	0.336281	0.075597	0.021324	0.091153	0.029389	0.101103	0.133928	0.029458	0.026102	0.172693	0.236947	0.017405	0.349753	0.067957	0.049866	0.172138	0.041055	0.022689	0.071845	0.247879	0.267522	0.097104	0.010172	0.208620	0.093131	0.125161	0.128049	0.058673	0.092501	0.066394	0.063240	0.001963	0.041112	0.023092	0.041299	0.039809	0.040990	0.090072	0.001689	0.030627	0.033125	0.034405	0.000565	0.036072	0.025736	0.019740	0.043673	0.088128	0.087805	0.056338	0.221434	0.107942	0.050160	0.045043	0.022018	0.006340	0.029970	0.107867	0.061766	0.085084	0.135621	0.096343	0.058163	0.070538	0.012929	0.022699	0.002840	0.032750	0.081453	0.061633	0.044025	0.021802	0.014733	0.109327	0.072719	0.050146	0.000605	0.056144	0.011294	0.132661	0.208466	0.056283	0.032264	0.045989	0.003831	0.000299	0.022484	0.024172	0.048501	0.020494	0.153475	0.223290	0.000696	0.023851	0.037273	0.015288	0.082304	0.129395	0.010434	0.037297	0.073555	0.008460	0.019963	0.021224	0.010326	0.049602	0.001033	0.030931	0.080748	0.254953	0.134506	0.019331	0.057810	0.039601	0.005652	0.036858	0.055465	0.081712	0.006169	0.045430	0.018663	0.024297	0.064437	0.047007	0.114927	0.072641	0.068015	0.014448	0.073787	0.035200	0.090485	0.083014	0.017017	0.000149	0.033499	0.090691	0.021202	0.008659	0.029101	0.044220	0.144204	0.110789	0.051156	0.000083	0.043520	0.088171	0.004190	0.069271	0.118670	0.130859	0.005760	0.143834	0.001790	0.033055	0.066254	0.029649	0.022094	0.102977	0.019196	0.017010	0.043203	0.033982	0.000752	0.003307	0.121096	0.206011	0.098554	0.112825	0.070746	0.004601	0.016968	0.062770	0.026031	0.087316	0.005624	0.017434	0.004249	0.002269	0.018487	0.013688	0.019785	0.023905	0.012217	0.025845	0.099363	0.157853	0.041911	0.053952	0.035053	0.007554	0.008438	0.023837	0.003598	0.003865	0.007389	0.004538	0.003377	0.011790	0.022999	0.001413	0.002511	0.023798	0.034952	0.038707	0.007476	0.061108	0.107843	0.011029	0.028984	0.012057	0.012052	0.017089	0.007784	0.004928	0.027105	0.009820	0.140055	0.118572	0.005489	0.030121	0.013361	0.003073	0.008294	0.003798	0.030191	0.006382	0.015913	0.092782	0.009977	0.005175	0.019699	0.014299	0.001682	0.001318	0.011066	0.003768	0.008134	0.000007	0.000138	0.013595	0.051454	0.020359	0.004577	0.026069	0.096527	0.001374	0.015792	0.000813	0.013589	0.002325	0.000967	0.007326	0.015936	0.020083	0.003183	0.006382	0.005205	0.010837	0.001159	0.017768	0.009245	0.002690	0.002540	0.006000	0.002672	0.001556	0.003070	0.009049	0.004425	0.001794	0.018242	0.012918	0.000952	0.001647	0.006720	0.003036	0.009055	0.001509	0.001703	0.000854	0.006525	0.000413	0.001541	0.003656	0.000008	0.000431	0.005663	0.002365	0.011317	0.005464	0.002989	0.001916	0.006752	0.011712	0.001476	0.001524	0.007107	0.002925	0.002093	0.002008	0.001306	0.000544	0.002329	0.005025	0.004555	0.001792	0.004074	0.003268	0.001114	0.004744	0.002116	0.009386	0.002231	0.001837	0.000488	0.000567	0.000249	0.003867	0.004558	0.004523	0.003756	0.014224	0.015348	0.009247	0.006899	0.004508	0.005343	0.001348	0.006382	0.002330	0.001747	0.002632	0.003215	0.001062	0.000553	0.001114	0.001241	0.013092	0.002762	0.007258	0.002269	0.045870	0.040768	0.013040	0.011677	0.073335	0.079878	0.078749	0.039571	0.066698	0.119217	0.017687	0.119242	0.016316	0.001962	0.023901	0.031590	0.081676	0.167227	0.035320	0.114162	0.123240	0.242519	0.123515	0.007311	0.008883	0.041393	0.079083	0.321206	0.230082	0.122847	0.073855	0.188087	0.296055	0.009086	0.402935	0.326807	0.044651	0.174168	0.075816	0.064559	0.036762	0.014629	0.010663	0.090859	0.389499	0.172766	0.046831	0.109141	0.040950	0.109656	0.052128	0.203934	0.095743	0.020329	0.158435	0.261222	0.096040	0.065007	0.147726	0.305247	0.208921	0.027016	0.139150	0.034753	0.242531	0.459900	0.082919	0.182107	0.268430	0.088492	0.265914	0.125709	0.318683	0.099711	0.082384	0.271665	0.254315	0.099931	0.403663	0.164399	0.038378	0.216412	0.305378	0.074381	0.265998	0.109634	0.156843	0.342837	0.346005	0.049063	0.398597	0.449015	0.080594	0.212858	0.402249	0.081063	0.190598	0.136212	0.459042	0.638432	0.057015	0.471652	0.614256	0.276035	0.131139	0.265836	0.184550	0.060353	0.124927	0.517232	0.429115	0.072497	0.061118	0.181098	0.180959	0.405705	0.404796	0.229535	0.210554	0.033579	0.021229	0.149875	0.204028	0.147152	0.092332	0.125005	0.011625	0.199837	0.332459	0.584945	0.022204	0.069370	0.037947	0.160992	0.173365	0.309502	0.072376	0.114362	0.040926	0.063822	0.116917	0.509882	0.285861	0.228461	0.039515	0.172495	0.266072	0.036519	0.274511	0.558328	0.308903	0.203194	0.150644	0.191492	0.096289	0.233301	0.187027	0.415057	0.397733	0.261381	0.182601	0.028374	0.319981	0.063075	0.060858	0.150604	0.228718	0.017348	0.075115	0.002303	0.099564	0.004534	0.200026	0.209538	0.009926	0.023524	0.139292	0.401821	0.418654	0.176216	0.069496	0.008459	0.406410	0.762402	0.183628	0.105235	0.195274	0.055835	0.042720	0.418128	0.806126	0.213118	0.117034	0.148577	0.230348	0.178814	0.398541	0.150927	0.323801	0.133870	0.242921	0.689527	0.596358	0.180947	0.094248	0.166042	0.000835	0.096172	0.111458	0.060254	0.491138	0.586492	0.168200	0.065432	0.107713	0.107175	0.345349	0.050767	0.139621	0.115618	0.030382	0.251433	0.113471	0.109659	0.070461	0.042500	0.016898	0.052086	0.176412	0.121147	0.178375	0.185061	0.025592	0.011081	0.003749	0.343166	0.222307	0.288047	0.065314	0.209885	0.184343	0.301541	0.271803	0.134430	0.020203	0.203105	0.039452	0.083610	0.008374	0.066981	0.140832	0.003389	0.092376	0.104786	0.244912	0.175386	0.012554	0.401925	0.166868	0.011447	0.230216	0.246209	0.080718	0.014902	0.231650	0.493934	0.009966	0.098180	0.194295	0.130954	0.072985	0.196974	0.349705	0.340850	0.343604	0.215672	0.090961	0.104999	0.382315	0.576238	0.479156	0.526042	0.008918	0.474125	0.158370	0.071565	0.207500	0.155094	0.042907	0.030345	0.103508	0.161179	0.387520	0.373529	0.243238	0.308505	0.143832	0.104992	0.064926	0.121140	0.192513	0.289710	0.063363	0.214079	0.128820	0.240120	0.250052	0.115608	0.111843	0.312004	0.672003	0.004197	0.143912	0.100469	0.061524	0.269780	0.546174	0.290018	0.287870	0.375436	0.106651	0.693845	0.044014	0.212739	0.244490	0.182186	0.007570	0.139564	0.149589	0.244264	0.412328	0.148021	0.036492	0.327833	0.266851	0.369880	0.323211	0.215785	0.179022	0.187277	0.199557	0.237890	0.226290	0.047330	0.234846	0.304053	0.333828	0.378390	0.280871	0.124745	0.025249	0.266314	0.067764	0.319405	0.249170	0.230430	0.288020	0.024209	0.237395	0.194148	0.367670	0.062485	0.048935	0.142536	0.565786	0.312131	0.090435	0.259964	0.275319	0.053273	0.006737	0.052064	0.083331	0.118141	0.032318	0.225309	0.163037	0.140879	0.122761	0.041359	0.152646	0.022091	0.198956	0.081746	0.138880	0.231229	0.217502	0.181542	0.066820	0.165845	0.119223	0.212715	0.073644	0.047655	0.080673	0.243398	0.267119	0.008932	0.229074	0.082421	0.004072	0.207030	0.054735	0.212051	0.144632	0.083986	0.057598	0.073069	0.034868	0.039674	0.087376	0.122880	0.149836	0.266437	0.303232	0.129471	0.163170	0.015900	0.149677	0.025554	0.229040	0.251932	0.259762	0.444099	0.178870	0.266387	0.288666	0.001496	0.277959	0.309377	0.413278	0.242688	0.067479	0.058344	0.031960	0.245634	0.060023	0.190594	0.077481	0.085563	0.522358	0.837495	0.131773	0.178998	0.023607	0.210669	0.190866	0.088201	0.094923	0.126988	0.132792	0.472694	0.328908	0.142152	0.239392	0.097066	0.064659	0.262020	0.309789	0.009486	0.194857	0.059962	0.027820	0.038343	0.100082	0.083734	0.038856	0.143550	0.002613	0.137713	0.041562	0.077421	0.199611	0.081497	0.077959	0.058541	0.134670	0.168317	0.109167	0.091150	0.094380	0.059756	0.149127	0.141713	0.159628	0.080682	0.180697	0.140079	0.007228	0.080587	0.035155	0.025107	0.013045	0.022296	0.087999	0.073025	0.045425	0.012462	0.024050	0.039580	0.147995	0.105248	0.054512	0.013250	0.033165	0.009524	0.023857	0.090837	0.045365	0.017760	0.080115	0.132703	0.013104	0.102787	0.054769	0.018558	0.070299	0.012444	0.037551	0.003530	0.017347	0.039969	0.047062	0.042941	0.001405	0.027117	0.007353	0.054585	0.088021	0.035656	0.006509	0.026611	0.001296	0.040133	0.045794	0.016007	0.087651	0.032569	0.027068	0.017624	0.030114	0.102707	0.022763	0.009354	0.012350	0.003628	0.067447	0.096648	0.004383	0.020819	0.003630	0.051826	0.003911	0.001035	0.002832	0.028965	0.012773	0.040716	0.010178	0.090513	0.063215	0.015832	0.014219	0.023308	0.022667	0.006802	0.004806	0.005091	0.041288	0.031836	0.008608	0.027145	0.040313	0.057823	0.010501	0.009567	0.052810	0.085852	0.032566	0.008398	0.040738	0.008204	0.057782	0.019943	0.007461	0.020340	0.018638	0.004076	0.008240	0.015473	0.020710	0.001328	0.026623	0.002628	0.020881	0.021317	0.016544	0.014219	0.008596	0.018911	0.019946	0.030523	0.007518	0.055046	0.006334	0.041571	0.009795	0.019849	0.002571	0.040151	0.015930	0.014333	0.001195	0.013947	0.003035	0.009672	0.032965	0.043480	0.001665	0.053875	0.044704	0.015022	0.008199	0.000325	0.002522	0.077478	0.002465	0.017099	0.001956	0.019552	0.004020	0.029303	0.050311	0.000388	0.020831	0.005031	0.004749	0.002220	0.003818	0.005902	0.007983	0.005384	0.004461	0.001258	0.004884	0.006105	0.005513	0.000533	0.004969	0.000667	0.001115	0.005249	0.000172	0.004539	0.002107	0.001028	0.000293	0.015493	0.016613	0.017022	0.063761	0.010597	0.028931	0.026401	0.020137	0.006832	0.005616	0.007062	0.000706	0.010162	0.000865	0.010415	0.041418	0.058347	0.007684	0.024350	0.020086	0.010864	0.007183	0.001664	0.017331	0.007904	0.003672	0.008616	0.019142	0.068059	0.008905	0.026754	0.003897	0.000741	0.002397	0.003017	0.006750	0.005171	0.004958	0.050906	0.065945	0.020839	0.020262	0.012275	0.014603	0.008517	0.011260	0.000791	0.000005	0.003328	0.008664	0.006543	0.005392	0.038958	0.008561	0.016786	0.014061	0.010095	0.009404	0.000839	0.003244	0.012422	0.017103	0.010273	0.003348	0.004925	0.001225	0.054888	0.071744	0.014280	0.008133	0.002903	0.002866	0.001311	0.002393	0.007010	0.001471	0.005564	0.006403	0.011067	0.004103	0.038107	0.063348	0.017636	0.009375	0.010758	0.003997	0.003647	0.004521	0.012956	0.006380	0.026148	0.051901	0.017339	0.017465	0.005375	0.006300	0.007714	0.009806	0.011911	0.004709	0.003187	0.041559	0.064233	0.002212	0.001967	0.007451	0.005629	0.003844	0.002772	0.005543	0.009137	0.012379	0.008064	0.043452	0.050408	0.004915	0.010094	0.012917	0.000137	0.013723	0.001101	0.002986	0.002251	0.014734	0.036085	0.008603	0.012133	0.016453	0.005727	0.002269	0.003332	0.012355	0.004807	0.013812	0.005217	0.038929	0.080596	0.014530	0.016920	0.019459	0.005369	0.000908	0.001141	0.003565	0.006127	0.012054	0.013968	0.005345	0.051271	0.071318	0.028763	0.004831	0.009259	0.005282	0.006141	0.005374	0.001942	0.003158	0.007328	0.007763	0.005702	0.016650	0.003563	0.011673	0.000298	0.010458	0.004001	0.002448	0.002817	0.004490	0.007779	0.006939	0.024855	0.000657	0.066317	0.075860	0.016480	0.003563	0.005440	0.006177	0.001437	0.009548	0.007844	0.008858	0.004554	0.001713	0.012138	0.020246	0.002446	0.044817	0.071823	0.007224	0.018427	0.012916	0.006254	0.001750	0.000572	0.002770	0.018089	0.005701	0.012156	0.000890	0.003341	0.001920	0.000615	0.007031	0.006460	0.046010	0.077621	0.016002	0.005469	0.001005	0.012537	0.002345	0.002044	0.000022	0.001549	0.003010	0.009699	0.012424	0.012411	0.004315	0.003989	0.001726	0.003224	0.003482	0.007049	0.002207	0.009411	0.012752	0.010052	0.006303	0.023618	0.019217	0.007932	0.003371	0.005502	0.000002	0.006881	0.002323	0.000332	0.006482	0.005886	0.003086	0.009175	0.009175	0.000439	0.006515	0.000215	0.002601	0.006179	0.001549	0.003632	0.006272	0.003473	0.004888	0.037852	0.062048	0.007843	0.014046	0.001313	0.003878	0.000881	0.002589	0.000551	0.003148	0.008351	0.007538	0.000154	0.007994	0.004989	0.000450	0.016253	0.036919	0.020212	0.004204	0.003393	0.003435	0.006852	0.007751	0.016792	0.000708	0.009597	0.040115	0.073793	0.015641	0.006741	0.017014	0.002652	0.004860	0.009163	0.030151	0.006966	0.003229	0.018971	0.059334	0.026531	0.015943	0.011561	0.007584	0.013002	0.011359	0.000713	0.043580	0.065519	0.013540	0.006969	0.020373	0.013729	0.009290	0.004876	0.013182	0.024676	0.042203	0.015322	0.014910	0.009965	0.033883	0.003951	0.005108	0.015563	0.045122	0.090163	0.098790	0.012416	0.153775	0.051022	0.013898	0.020076	0.018793	0.083688	0.092726	0.034486	0.067495	0.166347	0.026826	0.148565	0.017120	0.071209	0.176209	0.153117	0.027817	0.103993	0.006328	0.120766	0.059545	0.206557	0.059758	0.028870	0.026310	0.053108	0.031660	0.120644	0.135134	0.393114	0.408270	0.296657	0.185202	0.042634	0.194285	0.101122	0.113284	0.056744	0.296845	0.204119	0.261138	0.294079	0.051863	0.052657	0.072838	0.183304	0.023216	0.235390	0.387527	0.232577	0.115262	0.174898	0.013737	0.412050	0.701140	0.088935	0.218753	0.310389	0.054454	0.115733	0.435312	0.230723	0.187510	0.109770	0.267657	0.175834	0.063319	0.084860	0.042106	0.012695	0.151538	0.124243	0.179793	0.078517	0.120593	0.054268	0.041034	0.213442	0.075677	0.245615	0.106362	0.059439	0.152633	0.292102	0.143381	0.263211	0.169391	0.075860	0.282500	0.278589	0.136335	0.217014	0.138094	0.049354	0.044894	0.337624	0.144810	0.144898	0.113762	0.013960	0.000095	0.035360	0.020954	0.180890	0.056595	0.062542	0.028390	0.030048	0.029315	0.000311	0.029148	0.121654	0.150935	0.044927	0.026410	0.061125	0.021658	0.033423	0.039493	0.000813	0.021056	0.001775	0.002984	0.033280	0.053693	0.000401	0.012948	0.005693	0.015634	0.007928	0.005469	0.005663	0.009831	0.005372	0.019437	0.004663	0.028899	0.007482	0.023692	0.059895	0.005374	0.002326	0.008687	0.003783	0.000799	0.021628	0.010233	0.013339	0.013976	0.004580	0.001843	0.011768	0.003594	0.019646	0.060529	0.006314	0.007505	0.001400	0.002266	0.001927	0.002118	0.009405	0.004497	0.005449	0.002004	0.002271	0.002766	0.006404	0.023680	0.022161	0.012380	0.004107	0.016218	0.004306	0.003446	0.002617	0.000376	0.010109	0.017340	0.001742	0.009647	0.020954	0.014456	0.007192	0.019774	0.028874	0.006167	0.025287	0.030982	0.035046	0.002259	0.004307	0.011444	0.001187	0.001425	0.042780	0.039403	0.006378	0.002205	0.011314	0.001836	0.004014	0.008155	0.002093	0.003749	0.001509	0.015313	0.004627	0.008076	0.001989	0.000540	0.000528	0.000919	0.007739	0.006170	0.008011	0.003059	0.004052	0.002321	0.008896	0.009034	0.004807	0.008999	0.003271	0.005667	0.011206	0.002078	0.000872	0.002048	0.000373	0.002997	0.002365	0.001368	0.000624	0.004623	0.003796	0.005217	0.007423	0.000935	0.000827	0.002742	0.010925	0.010038	0.005080	0.000719	0.002226	0.000331	0.005748	0.000236	0.006869	0.003605	0.006868	0.005144	0.001453	0.000197	0.005032	0.002868	0.001383	0.000259	0.005664	0.006626	0.003854	0.007581	0.000126	0.005964	0.002687	0.007109	0.003738	0.001927	0.001504	0.000761	0.000681	0.006478	0.006193	0.006189	0.004542	0.003088	0.005909	0.000570	0.005319	0.000221	0.001241	0.006723	0.010726	0.006814	0.001004	0.002535	0.006049	0.003577	0.000744	0.001331	0.005304	0.001627	0.002205	0.000521	
6140 1
-0.000235	-0.003442	-0.003327	-0.003236	-0.003146	-0.003056	-0.002966	-0.002876	-0.002785	-0.002695	-0.002465	-0.002209	-0.001954	-0.001698	-0.001442	-0.001186	-0.000931	-0.000675	-0.000412	0.000292	0.001048	0.001804	0.002560	0.003316	0.004072	0.004829	0.005585	0.006374	0.008088	0.009860	0.011633	0.013406	0.015179	0.016952	0.018725	0.020498	0.022373	0.025658	0.028984	0.032311	0.035639	0.038966	0.042294	0.045621	0.048948	0.052434	0.057244	0.062059	0.066875	0.071691	0.076507	0.081323	0.086139	0.090955	0.095932	0.101780	0.107619	0.113459	0.119298	0.125138	0.130977	0.136816	0.142656	0.148527	0.154519	0.160509	0.166498	0.172488	0.178478	0.184467	0.190457	0.196447	0.202358	0.208061	0.213769	0.219476	0.225184	0.230891	0.236599	0.242307	0.248014	0.253817	0.259807	0.265794	0.271780	0.277766	0.283753	0.289739	0.295725	0.301711	0.307287	0.312253	0.317233	0.322212	0.327191	0.332170	0.337149	0.342128	0.347107	0.351611	0.355580	0.359558	0.363537	0.367515	0.371494	0.375472	0.379450	0.383429	0.387455	0.391521	0.395587	0.399653	0.403720	0.407786	0.411852	0.415918	0.419984	0.424159	0.428406	0.432652	0.436898	0.441144	0.445390	0.449636	0.453882	0.458128	0.462986	0.468143	0.473298	0.478453	0.483608	0.488763	0.493919	0.499074	0.504229	0.509252	0.514227	0.519203	0.524179	0.529155	0.534131	0.539107	0.544083	0.549057	0.553175	0.557082	0.560988	0.564894	0.568800	0.572706	0.576612	0.580518	0.584423	0.588143	0.591833	0.595524	0.599214	0.602904	0.606595	0.610285	0.613976	0.617668	0.621472	0.625287	0.629101	0.632916	0.636730	0.640545	0.644360	0.648174	0.651966	0.655247	0.658503	0.661759	0.665015	0.668270	0.671526	0.674782	0.678037	0.681215	0.683483	0.685733	0.687983	0.690232	0.692482	0.694732	0.696981	0.699231	0.701486	0.703782	0.706078	0.708374	0.710670	0.712967	0.715263	0.717559	0.719855	0.722202	0.724798	0.727389	0.729981	0.732572	0.735164	0.737755	0.740347	0.742938	0.745301	0.746902	0.748519	0.750136	0.751752	0.753368	0.754985	0.756601	0.758218	0.759794	0.761272	0.762753	0.764234	0.765715	0.767196	0.768677	0.770158	0.771638	0.773106	0.774551	0.775996	0.777441	0.778886	0.780331	0.781776	0.783221	0.784666	0.785996	0.787170	0.788347	0.789524	0.790701	0.791878	0.793054	0.794231	0.795408	0.796453	0.797360	0.798270	0.799180	0.800090	0.801001	0.801911	0.802821	0.803731	0.804245	0.804447	0.804654	0.804861	0.805068	0.805275	0.805481	0.805688	0.805895	0.806289	0.806794	0.807298	0.807802	0.808306	0.808810	0.809314	0.809818	0.810322	0.810538	0.810626	0.810715	0.810804	0.810893	0.810981	0.811070	0.811159	0.811248	0.811072	0.810812	0.810553	0.810293	0.810033	0.809774	0.809514	0.809254	0.808993	0.808255	0.807413	0.806570	0.805728	0.804886	0.804043	0.803201	0.802359	0.801517	0.800758	0.800011	0.799264	0.798516	0.797769	0.797021	0.796274	0.795527	0.794760	0.793336	0.791859	0.790381	0.788903	0.787425	0.785947	0.784469	0.782992	0.781517	0.780107	0.778699	0.777291	0.775884	0.774476	0.773068	0.771660	0.770252	0.768972	0.768979	0.768998	0.769018	0.769038	0.769059	0.769079	0.769099	0.769119	0.769133	0.769103	0.769073	0.769044	0.769014	0.768985	0.768955	0.768926	0.768897	0.768759	0.768161	0.767572	0.766983	0.766393	0.765803	0.765214	0.764624	0.764035	0.763196	0.761608	0.760037	0.758466	0.756894	0.755323	0.753751	0.752180	0.750609	0.747833	0.742419	0.737067	0.731714	0.726360	0.721007	0.715654	0.710301	0.704948	0.699102	0.692448	0.685813	0.679177	0.672541	0.665905	0.659270	0.652634	0.645998	0.637445	0.626516	0.615631	0.604747	0.593862	0.582978	0.572094	0.561209	0.550325	0.536911	0.521107	0.505340	0.489573	0.473806	0.458039	0.442272	0.426505	0.410738	0.395650	0.381049	0.366443	0.351837	0.337230	0.322624	0.308018	0.293412	0.278805	0.266596	0.255685	0.244763	0.233841	0.222920	0.211998	0.201077	0.190155	0.179233	0.171324	0.164614	0.157899	0.151185	0.144470	0.137756	0.131041	0.124327	0.117612	0.112864	0.108668	0.104471	0.100275	0.096079	0.091883	0.087686	0.083490	0.079300	0.076394	0.073731	0.071069	0.068407	0.065744	0.063082	0.060420	0.057758	0.055106	0.053115	0.051201	0.049288	0.047374	0.045461	0.043548	0.041635	0.039722	0.037812	0.036005	0.034204	0.032404	0.030603	0.028803	0.027002	0.025202	0.023401	0.021615	0.020039	0.018468	0.016898	0.015328	0.013757	0.012187	0.010617	0.009047	0.007525	0.006413	0.005303	0.004193	0.003083	0.001973	0.000863	-0.000247	-0.001357	-0.002384	-0.002959	-0.003539	-0.004118	-0.004697	-0.005276	-0.005855	-0.006434	-0.007014	-0.007511	-0.007703	-0.007900	-0.008097	-0.008294	-0.008492	-0.008689	-0.008886	-0.009083	-0.009217	-0.009182	-0.009150	-0.009118	-0.009087	-0.009055	-0.009023	-0.008991	-0.008960	-0.008896	-0.008770	-0.008645	-0.008520	-0.008395	-0.008270	-0.008145	-0.008020	-0.007895	-0.007734	-0.007521	-0.007309	-0.007096	-0.006884	-0.006672	-0.006459	-0.006247	-0.006035	-0.005788	-0.005501	-0.005216	-0.004930	-0.004644	-0.004359	-0.004073	-0.003788	-0.003502	-0.003138	-0.002706	-0.002275	-0.001844	-0.001413	-0.000982	-0.000551	-0.000120	0.000311	0.001034	0.001949	0.002862	0.003774	0.004687	0.005600	0.006513	0.007426	0.008338	0.009566	0.010949	0.012330	0.013712	0.015093	0.016474	0.017856	0.019237	0.020619	0.022321	0.024138	0.025955	0.027772	0.029589	0.031406	0.033223	0.035040	0.036858	0.039165	0.041595	0.044025	0.046455	0.048884	0.051314	0.053744	0.056174	0.058604	0.061113	0.063634	0.066155	0.068676	0.071197	0.073718	0.076239	0.078760	0.081275	0.083500	0.085697	0.087894	0.090091	0.092288	0.094484	0.096681	0.098878	0.101070	0.103158	0.105240	0.107323	0.109405	0.111488	0.113570	0.115653	0.117735	0.119823	0.121976	0.124131	0.126286	0.128441	0.130596	0.132750	0.134905	0.137060	0.139178	0.141027	0.142877	0.144726	0.146575	0.148425	0.150274	0.152123	0.153973	0.155774	0.157339	0.158908	0.160477	0.162045	0.163614	0.165183	0.166752	0.168320	0.169999	0.172046	0.174086	0.176126	0.178165	0.180205	0.182245	0.184285	0.186325	0.188508	0.191040	0.193564	0.196088	0.198612	0.201136	0.203660	0.206184	0.208708	0.211261	0.213868	0.216473	0.219079	0.221684	0.224290	0.226895	0.229501	0.232106	0.234606	0.236960	0.239318	0.241676	0.244033	0.246391	0.248749	0.251107	0.253464	0.255833	0.258212	0.260592	0.262972	0.265351	0.267731	0.270110	0.272490	0.274869	0.277277	0.279706	0.282135	0.284564	0.286993	0.289422	0.291850	0.294279	0.296708	0.299155	0.301613	0.304070	0.306528	0.308985	0.311442	0.313900	0.316357	0.318815	0.321164	0.323466	0.325768	0.328070	0.330372	0.332674	0.334975	0.337277	0.339579	0.341942	0.344324	0.346707	0.349089	0.351471	0.353854	0.356236	0.358618	0.361001	0.363540	0.366113	0.368687	0.371260	0.373833	0.376406	0.378979	0.381552	0.384123	0.386436	0.388713	0.390989	0.393266	0.395543	0.397819	0.400096	0.402373	0.404635	0.406386	0.408095	0.409804	0.411513	0.413222	0.414931	0.416640	0.418349	0.420054	0.421681	0.423304	0.424928	0.426552	0.428175	0.429799	0.431423	0.433046	0.434707	0.436750	0.438796	0.440843	0.442889	0.444936	0.446983	0.449030	0.451076	0.453083	0.454835	0.456590	0.458344	0.460098	0.461852	0.463606	0.465360	0.467114	0.468769	0.470002	0.471243	0.472483	0.473723	0.474963	0.476203	0.477443	0.478683	0.479865	0.480869	0.481877	0.482884	0.483892	0.484900	0.485908	0.486915	0.487923	0.488919	0.489888	0.490857	0.491827	0.492796	0.493766	0.494735	0.495705	0.496675	0.497723	0.498901	0.500077	0.501253	0.502428	0.503604	0.504779	0.505955	0.507131	0.508363	0.509665	0.510965	0.512266	0.513567	0.514868	0.516169	0.517469	0.518770	0.519446	0.519527	0.519617	0.519708	0.519798	0.519889	0.519979	0.520070	0.520160	0.520320	0.520530	0.520740	0.520949	0.521158	0.521368	0.521577	0.521787	0.521996	0.522396	0.522899	0.523402	0.523905	0.524408	0.524910	0.525413	0.525916	0.526419	0.527186	0.528059	0.528932	0.529805	0.530678	0.531551	0.532424	0.533297	0.534170	0.535193	0.536258	0.537324	0.538389	0.539455	0.540520	0.541585	0.542651	0.543716	0.544778	0.545840	0.546902	0.547963	0.549025	0.550086	0.551148	0.552209	0.553271	0.554342	0.555413	0.556485	0.557557	0.558629	0.559700	0.560772	0.561844	0.562920	0.564124	0.565337	0.566550	0.567763	0.568976	0.570189	0.571402	0.572614	0.573819	0.574907	0.575990	0.577074	0.578158	0.579242	0.580326	0.581409	0.582493	0.583562	0.584505	0.585448	0.586391	0.587333	0.588275	0.589218	0.590160	0.591103	0.592056	0.593067	0.594077	0.595088	0.596098	0.597108	0.598119	0.599129	0.600139	0.601173	0.602294	0.603414	0.604533	0.605653	0.606772	0.607892	0.609011	0.610131	0.611203	0.612147	0.613094	0.614040	0.614987	0.615933	0.616880	0.617826	0.618773	0.619526	0.619891	0.620264	0.620638	0.621012	0.621385	0.621759	0.622133	0.622507	0.622781	0.622905	0.623032	0.623159	0.623286	0.623413	0.623541	0.623668	0.623795	0.624304	0.625250	0.626187	0.627125	0.628062	0.629000	0.629937	0.630875	0.631812	0.632821	0.633894	0.634965	0.636036	0.637107	0.638178	0.639249	0.640321	0.641392	0.642717	0.644210	0.645701	0.647192	0.648683	0.650174	0.651665	0.653156	0.654647	0.656120	0.657583	0.659046	0.660510	0.661973	0.663437	0.664900	0.666364	0.667827	0.669126	0.670366	0.671606	0.672846	0.674086	0.675326	0.676566	0.677805	0.679046	0.680428	0.681846	0.683264	0.684682	0.686100	0.687518	0.688936	0.690354	0.691771	0.693010	0.694220	0.695429	0.696639	0.697849	0.699058	0.700268	0.701478	0.702679	0.703485	0.704251	0.705017	0.705783	0.706548	0.707314	0.708080	0.708846	0.709589	0.709826	0.710038	0.710249	0.710459	0.710670	0.710881	0.711092	0.711303	0.711501	0.711545	0.711586	0.711627	0.711668	0.711708	0.711749	0.711790	0.711831	0.711908	0.712251	0.712595	0.712938	0.713281	0.713625	0.713968	0.714312	0.714655	0.714955	0.715040	0.715127	0.715215	0.715303	0.715391	0.715478	0.715566	0.715654	0.715716	0.715693	0.715672	0.715651	0.715630	0.715609	0.715588	0.715567	0.715545	0.715741	0.716470	0.717187	0.717903	0.718620	0.719336	0.720053	0.720770	0.721486	0.722343	0.723457	0.724565	0.725672	0.726780	0.727888	0.728996	0.730103	0.731211	0.732386	0.733655	0.734921	0.736188	0.737454	0.738721	0.739987	0.741254	0.742520	0.743873	0.745316	0.746757	0.748198	0.749640	0.751081	0.752522	0.753964	0.755405	0.756365	0.756941	0.757521	0.758102	0.758683	0.759264	0.759845	0.760426	0.761006	0.761688	0.762431	0.763174	0.763916	0.764658	0.765401	0.766143	0.766886	0.767628	0.768439	0.769281	0.770122	0.770964	0.771805	0.772647	0.773489	0.774330	0.775172	0.776262	0.777432	0.778602	0.779772	0.780942	0.782112	0.783282	0.784452	0.785622	0.786711	0.787782	0.788853	0.789923	0.790994	0.792065	0.793136	0.794207	0.795278	0.796425	0.797582	0.798739	0.799896	0.801053	0.802210	0.803367	0.804524	0.805682	0.806877	0.808075	0.809273	0.810471	0.811669	0.812867	0.814065	0.815263	0.816487	0.818174	0.819880	0.821586	0.823292	0.824999	0.826705	0.828411	0.830117	0.831348	0.827675	0.823948	0.820217	0.816487	0.812756	0.809025	0.805295	0.801564	0.795792	0.777066	0.758405	0.739736	0.721067	0.702398	0.683729	0.665060	0.646391	0.625912	0.597628	0.569475	0.541318	0.513162	0.485005	0.456848	0.428692	0.400535	0.374360	0.354220	0.333949	0.313679	0.293409	0.273139	0.252868	0.232598	0.212328	0.195616	0.186803	0.177808	0.168815	0.159821	0.150828	0.141834	0.132841	0.123848	0.117338	0.114953	0.112475	0.109998	0.107521	0.105045	0.102568	0.100091	0.097614	0.095782	0.094762	0.093725	0.092689	0.091653	0.090616	0.089580	0.088544	0.087507	0.086374	0.085147	0.083922	0.082696	0.081471	0.080246	0.079021	0.077795	0.076570	0.075358	0.074156	0.072953	0.071751	0.070549	0.069347	0.068144	0.066942	0.065740	0.064546	0.063356	0.062166	0.060976	0.059787	0.058597	0.057407	0.056218	0.055028	0.053973	0.052971	0.051970	0.050968	0.049967	0.048965	0.047964	0.046963	0.045961	0.045187	0.044477	0.043767	0.043057	0.042348	0.041638	0.040928	0.040218	0.039510	0.039084	0.038712	0.038340	0.037968	0.037596	0.037224	0.036852	0.036481	0.036113	0.036044	0.036011	0.035979	0.035946	0.035913	0.035881	0.035848	0.035816	0.035787	0.035880	0.035981	0.036083	0.036184	0.036285	0.036386	0.036488	0.036589	0.036694	0.036847	0.037002	0.037156	0.037311	0.037466	0.037621	0.037776	0.037931	0.038086	0.038244	0.038402	0.038560	0.038718	0.038876	0.039034	0.039192	0.039350	0.039510	0.039684	0.039858	0.040032	0.040206	0.040379	0.040553	0.040727	0.040901	0.041112	0.041464	0.041814	0.042164	0.042515	0.042865	0.043215	0.043565	0.043915	0.044858	0.047429	0.049961	0.052495	0.055028	0.057561	0.060095	0.062628	0.065161	0.070926	0.083202	0.095329	0.107457	0.119585	0.131712	0.143840	0.155968	0.168096	0.182658	0.200904	0.219072	0.237240	0.255408	0.273576	0.291744	0.309913	0.328081	0.343995	0.357320	0.370692	0.384064	0.397436	0.410808	0.424180	0.437552	0.450924	0.461182	0.468713	0.476283	0.483853	0.491423	0.498993	0.506563	0.514133	0.521703	0.524964	0.525360	0.525784	0.526210	0.526635	0.527060	0.527485	0.527911	0.528336	0.519841	0.506906	0.493998	0.481090	0.468182	0.455275	0.442367	0.429459	0.416552	0.394421	0.368940	0.343469	0.317998	0.292526	0.267055	0.241584	0.216113	0.190652	0.172676	0.156597	0.140520	0.124443	0.108366	0.092289	0.076212	0.060135	0.044124	0.038607	0.034833	0.031067	0.027300	0.023534	0.019768	0.016002	0.012236	0.008536	0.007930	0.007642	0.007357	0.007071	0.006786	0.006500	0.006215	0.005930	0.005654	0.005606	0.005569	0.005533	0.005497	0.005461	0.005425	0.005389	0.005352	0.005322	0.005361	0.005402	0.005442	0.005483	0.005523	0.005564	0.005605	0.005645	0.005685	0.005716	0.005748	0.005779	0.005811	0.005842	0.005874	0.005905	0.005937	0.005972	0.006023	0.006073	0.006124	0.006175	0.006225	0.006276	0.006326	0.006377	0.006419	0.006429	0.006440	0.006451	0.006462	0.006474	0.006485	0.006496	0.006507	0.006509	0.006489	0.006469	0.006450	0.006430	0.006410	0.006391	0.006371	0.006351	0.006347	0.006371	0.006394	0.006417	0.006440	0.006464	0.006487	0.006510	0.006533	0.006565	0.006610	0.006654	0.006698	0.006742	0.006786	0.006830	0.006874	0.006919	0.006962	0.007005	0.007048	0.007091	0.007133	0.007176	0.007219	0.007262	0.007305	0.007342	0.007374	0.007406	0.007438	0.007470	0.007502	0.007534	0.007566	0.007598	0.007626	0.007651	0.007676	0.007701	0.007726	0.007751	0.007776	0.007801	0.007826	0.007845	0.007861	0.007876	0.007892	0.007908	0.007924	0.007939	0.007955	0.007971	0.007979	0.007985	0.007990	0.007996	0.008001	0.008007	0.008012	0.008018	0.008023	0.008035	0.008048	0.008062	0.008075	0.008088	0.008101	0.008114	0.008127	0.008141	0.008161	0.008182	0.008203	0.008224	0.008244	0.008265	0.008286	0.008307	0.008328	0.008353	0.008379	0.008404	0.008430	0.008455	0.008480	0.008506	0.008531	0.008557	0.008582	0.008608	0.008633	0.008659	0.008685	0.008710	0.008736	0.008761	0.008787	0.008807	0.008827	0.008847	0.008868	0.008888	0.008908	0.008928	0.008948	0.008968	0.008982	0.008996	0.009009	0.009023	0.009037	0.009051	0.009065	0.009079	0.009094	0.009116	0.009137	0.009159	0.009180	0.009202	0.009224	0.009245	0.009267	0.009291	0.009325	0.009358	0.009392	0.009426	0.009459	0.009493	0.009526	0.009560	0.009599	0.009652	0.009704	0.009756	0.009809	0.009861	0.009913	0.009966	0.010018	0.010078	0.010152	0.010225	0.010298	0.010371	0.010445	0.010518	0.010591	0.010665	0.010858	0.011202	0.011544	0.011886	0.012228	0.012570	0.012911	0.013253	0.013595	0.015322	0.018384	0.021424	0.024465	0.027505	0.030545	0.033586	0.036626	0.039666	0.046837	0.057033	0.067194	0.077354	0.087515	0.097675	0.107836	0.117996	0.128157	0.140144	0.153139	0.166127	0.179114	0.192102	0.205089	0.218077	0.231065	0.244052	0.256214	0.268040	0.279867	0.291694	0.303521	0.315348	0.327175	0.339002	0.350829	0.361253	0.371274	0.381295	0.391315	0.401336	0.411357	0.421377	0.431398	0.441407	0.448885	0.455868	0.462850	0.469833	0.476815	0.483797	0.490779	0.497761	0.504721	0.510124	0.515337	0.520548	0.525760	0.530972	0.536183	0.541395	0.546607	0.551794	0.556257	0.560671	0.565085	0.569498	0.573912	0.578326	0.582739	0.587153	0.591497	0.594826	0.598122	0.601418	0.604713	0.608009	0.611304	0.614600	0.617895	0.621065	0.623125	0.625178	0.627231	0.629284	0.631337	0.633390	0.635443	0.637496	0.639551	0.641614	0.643678	0.645741	0.647804	0.649868	0.651931	0.653994	0.656058	0.658226	0.660801	0.663367	0.665934	0.668501	0.671068	0.673635	0.676202	0.678769	0.681199	0.683250	0.685310	0.687370	0.689429	0.691489	0.693549	0.695609	0.697669	0.699729	0.701789	0.703850	0.705910	0.707970	0.710031	0.712091	0.714152	0.716212	0.718181	0.720010	0.721842	0.723675	0.725507	0.727339	0.729172	0.731004	0.732836	0.734485	0.735922	0.737363	0.738804	0.740245	0.741686	0.743127	0.744568	0.746009	0.747321	0.748520	0.749720	0.750920	0.752120	0.753320	0.754520	0.755720	0.756920	0.758399	0.760064	0.761728	0.763391	0.765054	0.766718	0.768381	0.770044	0.771708	0.773234	0.774691	0.776149	0.777606	0.779064	0.780522	0.781979	0.783437	0.784895	0.786043	0.787079	0.788115	0.789151	0.790187	0.791223	0.792259	0.793295	0.794331	0.795164	0.795945	0.796726	0.797507	0.798288	0.799069	0.799850	0.800632	0.801411	0.801892	0.802324	0.802755	0.803186	0.803617	0.804048	0.804480	0.804911	0.805338	0.805593	0.805830	0.806067	0.806304	0.806541	0.806777	0.807014	0.807251	0.807467	0.807183	0.806873	0.806562	0.806251	0.805940	0.805629	0.805318	0.805008	0.804734	0.804913	0.805102	0.805291	0.805480	0.805670	0.805859	0.806048	0.806238	0.806445	0.806785	0.807126	0.807467	0.807807	0.808148	0.808489	0.808829	0.809170	0.809491	0.809712	0.809934	0.810156	0.810378	0.810600	0.810823	0.811045	0.811267	0.811438	0.811431	0.811428	0.811425	0.811422	0.811419	0.811416	0.811413	0.811410	0.811389	0.811324	0.811259	0.811194	0.811130	0.811065	0.811000	0.810935	0.810871	0.810764	0.810580	0.810398	0.810215	0.810033	0.809851	0.809668	0.809486	0.809304	0.808811	0.807888	0.806973	0.806058	0.805143	0.804227	0.803312	0.802397	0.801482	0.800691	0.800030	0.799368	0.798705	0.798042	0.797379	0.796716	0.796054	0.795391	0.795320	0.795726	0.796126	0.796526	0.796926	0.797326	0.797726	0.798126	0.798526	0.798929	0.799334	0.799739	0.800144	0.800549	0.800954	0.801358	0.801763	0.802168	0.802889	0.803753	0.804617	0.805481	0.806344	0.807208	0.808072	0.808935	0.809799	0.810451	0.811033	0.811615	0.812197	0.812779	0.813361	0.813943	0.814525	0.815108	0.815714	0.816326	0.816938	0.817549	0.818161	0.818773	0.819385	0.819997	0.820610	0.821373	0.822157	0.822942	0.823727	0.824511	0.825296	0.826081	0.826865	0.827652	0.828506	0.829367	0.830227	0.831087	0.831947	0.832808	0.833668	0.834528	0.835396	0.836389	0.837387	0.838386	0.839384	0.840383	0.841381	0.842380	0.843378	0.844266	0.843996	0.843711	0.843426	0.843140	0.842854	0.842569	0.842283	0.841998	0.841109	0.836320	0.831548	0.826773	0.821999	0.817224	0.812450	0.807675	0.802901	0.797728	0.790808	0.783916	0.777024	0.770132	0.763240	0.756347	0.749455	0.742563	0.736132	0.731126	0.726089	0.721052	0.716015	0.710979	0.705942	0.700906	0.695869	0.690001	0.682262	0.674565	0.666868	0.659171	0.651474	0.643777	0.636080	0.628383	0.620450	0.612119	0.603797	0.595476	0.587154	0.578832	0.570510	0.562188	0.553866	0.545407	0.536773	0.528143	0.519512	0.510882	0.502252	0.493622	0.484991	0.476361	0.467030	0.457020	0.447020	0.437021	0.427021	0.417022	0.407023	0.397023	0.387024	0.378390	0.370761	0.363120	0.355480	0.347839	0.340199	0.332558	0.324918	0.317277	0.312338	0.308901	0.305452	0.302003	0.298555	0.295106	0.291657	0.288208	0.284759	0.283084	0.282136	0.281186	0.280235	0.279284	0.278334	0.277383	0.276432	0.275482	0.275423	0.275624	0.275825	0.276025	0.276226	0.276427	0.276627	0.276828	0.277029	0.277227	0.277424	0.277622	0.277819	0.278017	0.278214	0.278412	0.278609	0.278803	0.278737	0.278640	0.278542	0.278444	0.278346	0.278248	0.278150	0.278052	0.277967	0.278255	0.278569	0.278884	0.279198	0.279513	0.279828	0.280142	0.280457	0.280803	0.281624	0.282461	0.283298	0.284135	0.284972	0.285809	0.286646	0.287483	0.288596	0.292180	0.295777	0.299377	0.302976	0.306575	0.310174	0.313773	0.317372	0.321706	0.330211	0.338677	0.347146	0.355615	0.364084	0.372552	0.381021	0.389490	0.398156	0.407587	0.417004	0.426421	0.435839	0.445256	0.454673	0.464091	0.473508	0.482259	0.489150	0.496084	0.503017	0.509951	0.516885	0.523818	0.530752	0.537685	0.544098	0.549446	0.554818	0.560191	0.565563	0.570935	0.576307	0.581680	0.587052	0.592081	0.596583	0.601096	0.605609	0.610122	0.614636	0.619149	0.623662	0.628175	0.632026	0.635105	0.638199	0.641292	0.644386	0.647479	0.650573	0.653667	0.656760	0.659383	0.661587	0.663798	0.666008	0.668219	0.670429	0.672640	0.674851	0.677061	0.679378	0.681766	0.684154	0.686542	0.688929	0.691317	0.693704	0.696092	0.698479	0.700597	0.702578	0.704560	0.706542	0.708524	0.710507	0.712489	0.714471	0.716453	0.717271	0.717661	0.718051	0.718442	0.718832	0.719223	0.719614	0.720004	0.720395	0.720997	0.721654	0.722310	0.722967	0.723624	0.724281	0.724937	0.725594	0.726246	0.726188	0.726009	0.725830	0.725651	0.725471	0.725292	0.725113	0.724933	0.724737	0.723713	0.722602	0.721491	0.720379	0.719267	0.718156	0.717044	0.715932	0.714758	0.712056	0.709272	0.706486	0.703701	0.700916	0.698130	0.695345	0.692560	0.689511	0.683208	0.676830	0.670450	0.664069	0.657689	0.651309	0.644928	0.638548	0.631844	0.622698	0.613549	0.604399	0.595248	0.586098	0.576948	0.567797	0.558647	0.549404	0.539697	0.529996	0.520295	0.510594	0.500893	0.491192	0.481491	0.471791	0.462784	0.456187	0.449542	0.442898	0.436254	0.429610	0.422966	0.416322	0.409678	0.403648	0.399159	0.394634	0.390110	0.385586	0.381062	0.376538	0.372013	0.367489	0.363225	0.359445	0.355654	0.351863	0.348071	0.344280	0.340489	0.336697	0.332906	0.329509	0.326662	0.323805	0.320947	0.318089	0.315232	0.312374	0.309516	0.306659	0.304440	0.302901	0.301351	0.299801	0.298251	0.296700	0.295150	0.293600	0.292050	0.290610	0.289259	0.287907	0.286556	0.285204	0.283852	0.282500	0.281148	0.279797	0.278526	0.277304	0.276082	0.274860	0.273638	0.272416	0.271194	0.269972	0.268750	0.268020	0.267514	0.267006	0.266499	0.265992	0.265485	0.264977	0.264470	0.263963	0.264622	0.265666	0.266709	0.267752	0.268795	0.269838	0.270881	0.271924	0.272976	0.277124	0.281977	0.286832	0.291687	0.296542	0.301397	0.306251	0.311106	0.315988	0.324397	0.333313	0.342233	0.351152	0.360071	0.368990	0.377910	0.386829	0.395757	0.405032	0.414337	0.423642	0.432947	0.442253	0.451558	0.460863	0.470168	0.479355	0.486351	0.493252	0.500150	0.507049	0.513948	0.520847	0.527745	0.534644	0.541309	0.545483	0.549624	0.553764	0.557904	0.562043	0.566183	0.570323	0.574463	0.578541	0.582217	0.585894	0.589572	0.593249	0.596927	0.600604	0.604281	0.607959	0.611458	0.614166	0.616888	0.619609	0.622330	0.625051	0.627773	0.630494	0.633215	0.635718	0.637544	0.639384	0.641223	0.643063	0.644903	0.646742	0.648582	0.650422	0.652102	0.653420	0.654747	0.656073	0.657400	0.658727	0.660053	0.661380	0.662706	0.663899	0.664864	0.665835	0.666805	0.667776	0.668746	0.669717	0.670687	0.671657	0.672561	0.673378	0.674197	0.675016	0.675835	0.676654	0.677473	0.678292	0.679111	0.679757	0.680233	0.680713	0.681193	0.681672	0.682152	0.682631	0.683111	0.683591	0.683620	0.683317	0.683017	0.682717	0.682418	0.682118	0.681818	0.681519	0.681219	0.679338	0.676573	0.673815	0.671056	0.668298	0.665540	0.662782	0.660023	0.657265	0.649026	0.638523	0.628029	0.617535	0.607041	0.596548	0.586054	0.575560	0.565066	0.548358	0.529829	0.511300	0.492772	0.474243	0.455714	0.437186	0.418657	0.400133	0.382717	0.365522	0.348327	0.331132	0.313938	0.296743	0.279548	0.262353	0.245248	0.234741	0.225055	0.215375	0.205695	0.196014	0.186334	0.176654	0.166974	0.157456	0.152879	0.148646	0.144418	0.140190	0.135962	0.131733	0.127505	0.123277	0.119195	0.117292	0.115462	0.113634	0.111806	0.109978	0.108150	0.106322	0.104494	0.102763	0.101918	0.101078	0.100238	0.099399	0.098559	0.097720	0.096880	0.096041	0.095279	0.094961	0.094640	0.094319	0.093998	0.093677	0.093356	0.093035	0.092714	0.092365	0.091906	0.091449	0.090992	0.090535	0.090078	0.089621	0.089164	0.088707	0.088190	0.087505	0.086823	0.086141	0.085460	0.084778	0.084096	0.083414	0.082733	0.081927	0.080865	0.079810	0.078754	0.077699	0.076643	0.075587	0.074532	0.073476	0.072105	0.070247	0.068399	0.066551	0.064703	0.062855	0.061007	0.059159	0.057311	0.055740	0.054492	0.053238	0.051984	0.050730	0.049477	0.048223	0.046969	0.045715	0.044977	0.044700	0.044416	0.044132	0.043848	0.043564	0.043281	0.042997	0.042713	0.042427	0.042139	0.041852	0.041565	0.041278	0.040990	0.040703	0.040416	0.040129	0.039849	0.039574	0.039298	0.039023	0.038748	0.038472	0.038197	0.037921	0.037646	0.037499	0.037401	0.037302	0.037203	0.037104	0.037005	0.036906	0.036808	0.036709	0.036686	0.036683	0.036681	0.036678	0.036675	0.036672	0.036670	0.036667	0.036665	0.036804	0.036968	0.037131	0.037295	0.037458	0.037622	0.037785	0.037949	0.038113	0.038308	0.038507	0.038705	0.038904	0.039102	0.039300	0.039499	0.039697	0.039894	0.040035	0.040173	0.040311	0.040449	0.040586	0.040724	0.040862	0.041000	0.041139	0.041287	0.041434	0.041582	0.041729	0.041877	0.042025	0.042172	0.042320	0.042470	0.042637	0.042803	0.042970	0.043137	0.043304	0.043471	0.043638	0.043805	0.043982	0.044212	0.044441	0.044671	0.044900	0.045129	0.045358	0.045587	0.045817	0.046075	0.046437	0.046797	0.047157	0.047517	0.047877	0.048237	0.048597	0.048957	0.049318	0.049681	0.050044	0.050407	0.050770	0.051133	0.051496	0.051859	0.052221	0.052612	0.053055	0.053496	0.053937	0.054379	0.054820	0.055262	0.055703	0.056144	0.056687	0.057372	0.058055	0.058737	0.059420	0.060102	0.060785	0.061467	0.062150	0.064214	0.067758	0.071277	0.074796	0.078315	0.081833	0.085352	0.088871	0.092390	0.101622	0.115520	0.129355	0.143191	0.157026	0.170861	0.184697	0.198532	0.212367	0.231096	0.252852	0.274579	0.296307	0.318034	0.339761	0.361489	0.383216	0.404943	0.423774	0.441270	0.458773	0.476276	0.493780	0.511283	0.528786	0.546289	0.563792	0.574602	0.583187	0.591775	0.600363	0.608952	0.617540	0.626128	0.634717	0.643290	0.646141	0.647677	0.649211	0.650745	0.652278	0.653812	0.655346	0.656879	0.658355	0.652073	0.644663	0.637246	0.629829	0.622412	0.614995	0.607578	0.600161	0.592566	0.578221	0.563281	0.548333	0.533386	0.518439	0.503491	0.488544	0.473597	0.458643	0.443565	0.428481	0.413397	0.398313	0.383229	0.368145	0.353061	0.337977	0.323306	0.313070	0.302895	0.292724	0.282552	0.272381	0.262210	0.252038	0.241867	0.232478	0.228252	0.224008	0.219767	0.215526	0.211285	0.207043	0.202802	0.198561	0.194671	0.192353	0.190009	0.187665	0.185322	0.182978	0.180635	0.178292	0.175948	0.173637	0.171426	0.169213	0.167000	0.164787	0.162574	0.160361	0.158148	0.155935	0.153834	0.151989	0.150139	0.148289	0.146438	0.144588	0.142738	0.140888	0.139037	0.137327	0.135854	0.134376	0.132898	0.131420	0.129943	0.128465	0.126987	0.125509	0.124292	0.123413	0.122526	0.121640	0.120754	0.119868	0.118981	0.118095	0.117209	0.116688	0.116527	0.116359	0.116192	0.116024	0.115857	0.115689	0.115522	0.115354	0.117639	0.121755	0.125849	0.129942	0.134036	0.138130	0.142224	0.146317	0.150411	0.161369	0.176194	0.190988	0.205782	0.220576	0.235370	0.250164	0.264958	0.279752	0.297330	0.316067	0.334799	0.353531	0.372262	0.390994	0.409726	0.428458	0.447190	0.459172	0.469160	0.479148	0.489136	0.499124	0.509112	0.519100	0.529089	0.539056	0.544330	0.548659	0.552985	0.557311	0.561638	0.565964	0.570290	0.574617	0.578924	0.581829	0.584558	0.587285	0.590012	0.592740	0.595467	0.598194	0.600922	0.603615	0.605256	0.606823	0.608389	0.609955	0.611520	0.613086	0.614652	0.616218	0.617702	0.617943	0.618142	0.618339	0.618537	0.618735	0.618932	0.619130	0.619328	0.619272	0.616892	0.614497	0.612101	0.609705	0.607309	0.604913	0.602517	0.600121	0.596590	0.586501	0.576468	0.566431	0.556394	0.546357	0.536321	0.526284	0.516247	0.503985	0.482930	0.462032	0.441131	0.420229	0.399328	0.378427	0.357525	0.336624	0.316314	0.297681	0.279009	0.260337	0.241665	0.222994	0.204322	0.185650	0.166978	0.152120	0.145158	0.138015	0.130873	0.123731	0.116589	0.109448	0.102306	0.095164	0.090284	0.088918	0.087476	0.086034	0.084592	0.083151	0.081709	0.080267	0.078826	0.078053	0.078069	0.078070	0.078071	0.078072	0.078073	0.078074	0.078075	0.078076	0.078183	0.078385	0.078586	0.078787	0.078987	0.079188	0.079389	0.079589	0.079790	0.079973	0.080145	0.080316	0.080488	0.080659	0.080831	0.081003	0.081174	0.081346	0.081483	0.081603	0.081723	0.081843	0.081963	0.082083	0.082203	0.082323	0.082443	0.082601	0.082773	0.082946	0.083118	0.083291	0.083463	0.083636	0.083808	0.083981	0.084358	0.084789	0.085220	0.085651	0.086082	0.086513	0.086944	0.087375	0.087814	0.089615	0.091653	0.093691	0.095730	0.097768	0.099807	0.101845	0.103884	0.106056	0.115051	0.124779	0.134513	0.144247	0.153982	0.163716	0.173450	0.183185	0.193318	0.213641	0.234519	0.255407	0.276295	0.297183	0.318071	0.338959	0.359847	0.380547	0.398864	0.417123	0.435380	0.453637	0.471894	0.490151	0.508408	0.526665	0.543642	0.550711	0.557767	0.564816	0.571866	0.578915	0.585964	0.593013	0.600062	0.606360	0.608808	0.611308	0.613807	0.616305	0.618803	0.621302	0.623800	0.626298	0.628719	0.630868	0.633022	0.635175	0.637329	0.639483	0.641637	0.643791	0.645945	0.648444	0.651821	0.655177	0.658534	0.661891	0.665248	0.668605	0.671962	0.675319	0.678924	0.682998	0.687062	0.691125	0.695188	0.699252	0.703315	0.707378	0.711442	0.714325	0.715536	0.716781	0.718027	0.719272	0.720517	0.721763	0.723008	0.724253	0.723836	0.721625	0.719445	0.717265	0.715085	0.712905	0.710726	0.708546	0.706366	0.697337	0.682680	0.668098	0.653517	0.638936	0.624355	0.609774	0.595193	0.580611	0.556690	0.526953	0.497271	0.467589	0.437908	0.408226	0.378544	0.348863	0.319181	0.295431	0.274430	0.253416	0.232401	0.211387	0.190372	0.169357	0.148343	0.127328	0.117742	0.111987	0.106226	0.100464	0.094702	0.088940	0.083178	0.077415	0.071664	0.070086	0.069476	0.068867	0.068259	0.067650	0.067042	0.066434	0.065825	0.065220	0.065134	0.065123	0.065113	0.065103	0.065093	0.065083	0.065073	0.065063	0.065056	0.065182	0.065320	0.065458	0.065596	0.065733	0.065871	0.066009	0.066147	0.066277	0.066267	0.066250	0.066233	0.066215	0.066198	0.066181	0.066164	0.066147	0.066112	0.065885	0.065654	0.065423	0.065193	0.064962	0.064731	0.064501	0.064270	0.064047	0.063878	0.063708	0.063539	0.063369	0.063200	0.063030	0.062861	0.062691	0.062602	0.062872	0.063137	0.063403	0.063668	0.063933	0.064198	0.064463	0.064729	0.065031	0.065451	0.065869	0.066286	0.066704	0.067122	0.067539	0.067957	0.068375	0.069452	0.072045	0.074604	0.077163	0.079722	0.082281	0.084840	0.087398	0.089957	0.097732	0.114461	0.130987	0.147514	0.164041	0.180568	0.197095	0.213622	0.230149	0.249739	0.273298	0.296779	0.320261	0.343742	0.367223	0.390705	0.414186	0.437667	0.447499	0.443854	0.440427	0.437000	0.433573	0.430146	0.426719	0.423293	0.419866	0.405869	0.383935	0.362094	0.340254	0.318414	0.296574	0.274733	0.252893	0.231053	0.218329	0.210774	0.203178	0.195581	0.187984	0.180388	0.172791	0.165194	0.157597	0.167898	0.185700	0.203472	0.221243	0.239014	0.256784	0.274555	0.292326	0.310097	0.331524	0.354041	0.376558	0.399075	0.421591	0.444108	0.466625	0.489141	0.511565	0.512015	0.508002	0.503975	0.499949	0.495922	0.491896	0.487870	0.483844	0.479588	0.457303	0.432730	0.408138	0.383547	0.358957	0.334366	0.309775	0.285184	0.260921	0.246903	0.233623	0.220353	0.207084	0.193814	0.180544	0.167275	0.154005	0.142257	0.153911	0.166382	0.178873	0.191364	0.203854	0.216345	0.228836	0.241327	0.255315	0.283213	0.311198	0.339194	0.367189	0.395185	0.423180	0.451176	0.479171	0.504466	0.514019	0.523699	0.533371	0.543042	0.552714	0.562385	0.572056	0.581728	0.584897	0.562157	0.539878	0.517589	0.495299	0.473009	0.450719	0.428429	0.406140	0.383890	0.361753	0.339614	0.317476	0.295337	0.273198	0.251059	0.228920	0.206781	0.193049	0.196848	0.200245	0.203643	0.207042	0.210440	0.213839	0.217238	0.220636	0.233371	0.260708	0.287728	0.314749	0.341770	0.368791	0.395812	0.422833	0.449854	0.472190	0.488971	0.505855	0.522739	0.539623	0.556508	0.573392	0.590276	0.607160	0.606260	0.589287	0.572552	0.555818	0.539084	0.522350	0.505617	0.488883	0.472149	0.449817	0.423641	0.397505	0.371370	0.345236	0.319101	0.292966	0.266831	0.240696	0.226615	0.218745	0.210834	0.202922	0.195011	0.187099	0.179187	0.171276	0.163364	0.172474	0.188007	0.203522	0.219035	0.234548	0.250061	0.265574	0.281087	0.296608	0.322523	0.351186	0.379852	0.408517	0.437182	0.465847	0.494513	0.523178	0.551743	0.563126	0.571494	0.579848	0.588202	0.596556	0.604911	0.613265	0.621620	0.629408	0.607659	0.582700	0.557711	0.532723	0.507735	0.482747	0.457759	0.432770	0.407854	0.384804	0.361857	0.338912	0.315967	0.293022	0.270077	0.247132	0.224187	0.202668	0.199411	0.196611	0.193826	0.191041	0.188257	0.185472	0.182687	0.179902	0.179775	0.200432	0.221125	0.241833	0.262540	0.283248	0.303955	0.324663	0.345370	0.366622	0.390687	0.414716	0.438745	0.462775	0.486805	0.510835	0.534864	0.558894	0.575420	0.565314	0.555725	0.546127	0.536529	0.526931	0.517333	0.507734	0.498136	0.484507	0.460533	0.436799	0.413063	0.389326	0.365590	0.341854	0.318117	0.294381	0.276329	0.269058	0.261540	0.254024	0.246507	0.238990	0.231474	0.223957	0.216440	0.219382	0.237251	0.254812	0.272372	0.289933	0.307493	0.325054	0.342614	0.360175	0.380173	0.402815	0.425411	0.448007	0.470603	0.493200	0.515796	0.538392	0.560988	0.568227	0.562766	0.557476	0.552187	0.546899	0.541610	0.536321	0.531032	0.525743	0.509861	0.487338	0.464878	0.442419	0.419960	0.397501	0.375041	0.352582	0.330123	0.314894	0.303039	0.291168	0.279297	0.267425	0.255553	0.243681	0.231810	0.219938	0.226091	0.238334	0.250566	0.262798	0.275029	0.287260	0.299491	0.311723	0.323988	0.349835	0.378861	0.407894	0.436926	0.465958	0.494990	0.524022	0.553054	0.581938	0.590499	0.596031	0.601544	0.607058	0.612572	0.618085	0.623599	0.629112	0.633966	0.612892	0.589463	0.566008	0.542554	0.519099	0.495645	0.472190	0.448736	0.425443	0.405318	0.385336	0.365358	0.345379	0.325400	0.305422	0.285443	0.265464	0.247279	0.248753	0.250524	0.252311	0.254097	0.255884	0.257670	0.259457	0.261243	0.265919	0.290040	0.314104	0.338179	0.362255	0.386330	0.410406	0.434481	0.458557	0.482952	0.508806	0.534637	0.560468	0.586299	0.612130	0.637961	0.663792	0.689623	0.706760	0.696209	0.686245	0.676272	0.666299	0.656326	0.646354	0.636381	0.626408	0.609894	0.578225	0.546907	0.515586	0.484265	0.452943	0.421622	0.390301	0.358979	0.333528	0.318221	0.302685	0.287149	0.271613	0.256077	0.240541	0.225005	0.209469	0.206022	0.218345	0.230357	0.242368	0.254380	0.266392	0.278403	0.290415	0.302427	0.325519	0.359619	0.393540	0.427461	0.461382	0.495303	0.529224	0.563145	0.597066	0.625043	0.648527	0.672065	0.695603	0.719141	0.742679	0.766217	0.789755	0.813294	0.827611	0.836664	0.845759	0.854855	0.863952	0.873048	0.882144	0.891240	0.900336	0.902397	0.901487	0.900589	0.899692	0.898794	0.897897	0.896999	0.896102	0.895205	0.887198	0.877054	0.866911	0.856769	0.846626	0.836484	0.826341	0.816199	0.806034	0.790503	0.773870	0.757235	0.740599	0.723964	0.707328	0.690693	0.674057	0.657228	0.624565	0.589871	0.555162	0.520453	0.485744	0.451035	0.416326	0.381617	0.347264	0.324193	0.301949	0.279716	0.257483	0.235250	0.213017	0.190784	0.168551	0.147252	0.140528	0.134323	0.128131	0.121939	0.115747	0.109555	0.103363	0.097170	0.091622	0.092138	0.092693	0.093253	0.093813	0.094373	0.094933	0.095492	0.096052	0.098145	0.109255	0.120295	0.131340	0.142386	0.153431	0.164476	0.175521	0.186566	0.200761	0.227614	0.254244	0.280879	0.307514	0.334149	0.360784	0.387419	0.414054	0.441092	0.469287	0.497455	0.525624	0.553793	0.581962	0.610130	0.638299	0.666468	0.690168	0.704487	0.719021	0.733554	0.748087	0.762620	0.777153	0.791686	0.806219	0.817536	0.823792	0.830157	0.836522	0.842887	0.849252	0.855617	0.861982	0.868347	0.872959	0.875481	0.878042	0.880603	0.883164	0.885725	0.888286	0.890847	0.893408	0.892594	0.888710	0.884871	0.881033	0.877195	0.873357	0.869520	0.865682	0.861844	0.848117	0.827559	0.807073	0.786589	0.766104	0.745620	0.725135	0.704650	0.684166	0.656592	0.625338	0.594110	0.562882	0.531654	0.500426	0.469198	0.437970	0.406742	0.382999	0.362102	0.341197	0.320291	0.299385	0.278479	0.257573	0.236667	0.215767	0.204529	0.195866	0.187205	0.178543	0.169882	0.161221	0.152559	0.143898	0.135261	0.130884	0.127263	0.123645	0.120028	0.116410	0.112792	0.109174	0.105556	0.101971	0.100106	0.098431	0.096757	0.095084	0.093410	0.091737	0.090063	0.088390	0.086805	0.087589	0.088505	0.089424	0.090342	0.091261	0.092180	0.093099	0.094017	0.095686	0.107080	0.118723	0.130375	0.142026	0.153678	0.165330	0.176981	0.188633	0.201792	0.226881	0.251995	0.277117	0.302239	0.327361	0.352483	0.377606	0.402728	0.427359	0.449432	0.471538	0.493643	0.515748	0.537852	0.559957	0.582062	0.604166	0.623922	0.635276	0.646791	0.658304	0.669816	0.681329	0.692841	0.704354	0.715866	0.726076	0.732916	0.739835	0.746752	0.753670	0.760588	0.767506	0.774424	0.781342	0.787075	0.790547	0.794071	0.797595	0.801118	0.804642	0.808165	0.811689	0.815213	0.818332	0.820872	0.823423	0.825975	0.828526	0.831078	0.833629	0.836181	0.838732	0.841344	0.844021	0.846696	0.849372	0.852048	0.854724	0.857399	0.860075	0.862751	0.864469	0.865391	0.866324	0.867257	0.868190	0.869123	0.870055	0.870988	0.871921	0.872428	0.872666	0.872907	0.873148	0.873388	0.873629	0.873870	0.874110	0.874351	0.872165	0.868838	0.865517	0.862195	0.858874	0.855553	0.852232	0.848911	0.845590	0.837014	0.826648	0.816285	0.805922	0.795560	0.785197	0.774835	0.764472	0.754096	0.737869	0.720260	0.702648	0.685036	0.667425	0.649813	0.632202	0.614590	0.596944	0.574530	0.551396	0.528258	0.505119	0.481981	0.458843	0.435705	0.412566	0.389570	0.372268	0.355490	0.338718	0.321945	0.305172	0.288400	0.271627	0.254855	0.238457	0.229525	0.220936	0.212354	0.203772	0.195191	0.186609	0.178027	0.169445	0.161192	0.156581	0.152027	0.147476	0.142926	0.138375	0.133824	0.129273	0.124722	0.120513	0.118627	0.116735	0.114844	0.112953	0.111063	0.109172	0.107281	0.105390	0.103835	0.103823	0.103786	0.103749	0.103713	0.103677	0.103640	0.103604	0.103568	0.104157	0.106754	0.109308	0.111863	0.114418	0.116973	0.119528	0.122083	0.124638	0.128561	0.135676	0.142717	0.149759	0.156801	0.163843	0.170885	0.177927	0.184969	0.192597	0.201244	0.209868	0.218492	0.227116	0.235740	0.244364	0.252988	0.261612	0.269201	0.275431	0.281688	0.287944	0.294201	0.300458	0.306715	0.312972	0.319229	0.325171	0.330797	0.336429	0.342061	0.347693	0.353325	0.358957	0.364589	0.370221	0.374646	0.378154	0.381673	0.385193	0.388712	0.392231	0.395750	0.399269	0.402788	0.398772	0.390424	0.382111	0.373799	0.365487	0.357175	0.348863	0.340550	0.332238	0.323146	0.313721	0.304298	0.294875	0.285452	0.276029	0.266605	0.257182	0.247759	0.254233	0.265528	0.276819	0.288110	0.299401	0.310692	0.321983	0.333274	0.344593	0.362751	0.382325	0.401904	0.421482	0.441061	0.460639	0.480218	0.499796	0.519126	0.517408	0.512962	0.508495	0.504029	0.499563	0.495097	0.490631	0.486165	0.481204	0.460387	0.438388	0.416373	0.394358	0.372343	0.350329	0.328314	0.306299	0.285565	0.285112	0.285393	0.285693	0.285993	0.286292	0.286592	0.286892	0.287192	0.289911	0.315717	0.341683	0.367667	0.393650	0.419634	0.445617	0.471601	0.497585	0.522251	0.539099	0.556006	0.572908	0.589811	0.606713	0.623615	0.640517	0.657419	0.668560	0.656347	0.644544	0.632731	0.620918	0.609105	0.597292	0.585479	0.573666	0.558006	0.531207	0.504663	0.478117	0.451570	0.425023	0.398476	0.371930	0.345383	0.326079	0.322088	0.317744	0.313403	0.309061	0.304720	0.300379	0.296038	0.291696	0.299077	0.325034	0.350586	0.376139	0.401692	0.427244	0.452797	0.478350	0.503902	0.528921	0.553297	0.577685	0.602074	0.626462	0.650851	0.675239	0.699628	0.724016	0.732477	0.726362	0.720465	0.714570	0.708674	0.702779	0.696884	0.690988	0.685093	0.664882	0.634716	0.604657	0.574600	0.544542	0.514485	0.484428	0.454370	0.424313	0.406434	0.394919	0.383361	0.371802	0.360243	0.348683	0.337124	0.325565	0.314006	0.323881	0.341969	0.360031	0.378091	0.396152	0.414212	0.432273	0.450333	0.468394	0.486335	0.504243	0.522152	0.540060	0.557969	0.575878	0.593786	0.611695	0.629544	0.636701	0.641941	0.647173	0.652404	0.657636	0.662868	0.668100	0.673332	0.678419	0.675601	0.671902	0.668195	0.664489	0.660783	0.657077	0.653370	0.649664	0.645975	0.642742	0.639536	0.636330	0.633124	0.629918	0.626712	0.623506	0.620300	0.617388	0.618335	0.619384	0.620436	0.621489	0.622541	0.623593	0.624646	0.625698	0.626953	0.629834	0.632719	0.635605	0.638490	0.641376	0.644262	0.647148	0.650034	0.652957	0.656078	0.659196	0.662315	0.665433	0.668552	0.671670	0.674789	0.677907	0.678525	0.670126	0.661901	0.653672	0.645443	0.637215	0.628986	0.620757	0.612528	0.599495	0.573946	0.548688	0.523428	0.498167	0.472906	0.447645	0.422384	0.397124	0.372642	0.349656	0.326636	0.303616	0.280596	0.257577	0.234557	0.211537	0.188517	0.171053	0.161620	0.152019	0.142419	0.132819	0.123219	0.113618	0.104018	0.094418	0.088022	0.085146	0.082209	0.079271	0.076334	0.073397	0.070459	0.067522	0.064584	0.062649	0.061554	0.060447	0.059341	0.058234	0.057127	0.056020	0.054914	0.053807	0.053603	0.053972	0.054336	0.054700	0.055064	0.055428	0.055792	0.056156	0.056519	0.057233	0.058112	0.058991	0.059869	0.060747	0.061625	0.062504	0.063382	0.064260	0.065629	0.067165	0.068701	0.070237	0.071774	0.073310	0.074846	0.076382	0.077920	0.080501	0.083331	0.086160	0.088990	0.091820	0.094649	0.097479	0.100309	0.103147	0.107149	0.111328	0.115509	0.119690	0.123871	0.128052	0.132233	0.136414	0.140689	0.148785	0.157238	0.165695	0.174151	0.182608	0.191065	0.199522	0.207978	0.216584	0.228205	0.239967	0.251733	0.263498	0.275263	0.287029	0.298794	0.310559	0.322266	0.333323	0.344370	0.355416	0.366462	0.377508	0.388554	0.399600	0.410646	0.421377	0.429938	0.438505	0.447070	0.455635	0.464200	0.472765	0.481330	0.489895	0.497948	0.503624	0.509337	0.515050	0.520762	0.526475	0.532188	0.537900	0.543613	0.548853	0.552565	0.556310	0.560054	0.563798	0.567543	0.571287	0.575031	0.578775	0.582051	0.584228	0.586430	0.588631	0.590833	0.593035	0.595236	0.597438	0.599640	0.601829	0.603998	0.606166	0.608335	0.610504	0.612673	0.614841	0.617010	0.619179	0.621453	0.623868	0.626279	0.628691	0.631103	0.633514	0.635926	0.638338	0.640749	0.640751	0.638329	0.635947	0.633565	0.631183	0.628800	0.626418	0.624036	0.621654	0.612315	0.597649	0.583049	0.568448	0.553848	0.539248	0.524647	0.510047	0.495447	0.474842	0.450762	0.426711	0.402660	0.378610	0.354559	0.330509	0.306458	0.282408	0.263312	0.246339	0.229357	0.212374	0.195392	0.178409	0.161427	0.144444	0.127462	0.119558	0.114431	0.109302	0.104172	0.099043	0.093913	0.088784	0.083654	0.078539	0.077129	0.076493	0.075859	0.075226	0.074592	0.073958	0.073324	0.072691	0.072072	0.072768	0.073637	0.074507	0.075377	0.076246	0.077116	0.077986	0.078856	0.079731	0.080792	0.081866	0.082941	0.084016	0.085090	0.086165	0.087240	0.088314	0.089360	0.089935	0.090493	0.091051	0.091608	0.092165	0.092723	0.093280	0.093838	0.094344	0.094356	0.094364	0.094371	0.094379	0.094387	0.094394	0.094402	0.094409	0.094409	0.094358	0.094308	0.094258	0.094208	0.094158	0.094108	0.094058	0.094008	0.094045	0.094437	0.094824	0.095210	0.095597	0.095983	0.096370	0.096756	0.097143	0.098060	0.100528	0.102960	0.105393	0.107825	0.110258	0.112691	0.115123	0.117556	0.120690	0.125319	0.129913	0.134508	0.139102	0.143696	0.148291	0.152885	0.157480	0.161688	0.165280	0.168885	0.172490	0.176095	0.179701	0.183306	0.186911	0.190516	0.193133	0.194554	0.195998	0.197441	0.198885	0.200329	0.201773	0.203217	0.204660	0.204436	0.202676	0.200938	0.199201	0.197464	0.195727	0.193990	0.192253	0.190515	0.185686	0.178692	0.171722	0.164752	0.157782	0.150812	0.143842	0.136872	0.129902	0.121677	0.112792	0.103912	0.095032	0.086151	0.077271	0.068391	0.059510	0.050630	0.045544	0.041922	0.038295	0.034668	0.031041	0.027414	0.023787	0.020160	0.016534	0.015345	0.014817	0.014289	0.013761	0.013233	0.012705	0.012177	0.011649	0.011123	0.011020	0.010993	0.010966	0.010939	0.010913	0.010886	0.010859	0.010833	0.010806	0.010793	0.010782	0.010770	0.010759	0.010747	0.010736	0.010724	0.010713	0.010703	0.010757	0.010814	0.010871	0.010928	0.010985	0.011042	0.011100	0.011157	0.011206	0.011159	0.011108	0.011058	0.011007	0.010957	0.010907	0.010856	0.010806	0.010752	0.010669	0.010587	0.010504	0.010422	0.010339	0.010257	0.010174	0.010092	0.010007	0.009912	0.009818	0.009723	0.009629	0.009534	0.009440	0.009345	0.009250	0.009171	0.009144	0.009117	0.009090	0.009062	0.009035	0.009008	0.008981	0.008953	0.008950	0.009008	0.009065	0.009121	0.009178	0.009235	0.009292	0.009348	0.009405	0.009472	0.009558	0.009644	0.009730	0.009816	0.009902	0.009988	0.010073	0.010159	0.010249	0.010345	0.010441	0.010537	0.010633	0.010729	0.010825	0.010921	0.011017	0.011121	0.011236	0.011350	0.011465	0.011579	0.011694	0.011808	0.011922	0.012037	0.012168	0.012313	0.012457	0.012602	0.012747	0.012891	0.013036	0.013181	0.013325	0.013462	0.013593	0.013724	0.013856	0.013987	0.014118	0.014249	0.014381	0.014512	0.014639	0.014765	0.014891	0.015016	0.015142	0.015267	0.015393	0.015518	0.015644	0.016137	0.016757	0.017377	0.017997	0.018617	0.019237	0.019857	0.020477	0.021101	0.023785	0.026963	0.030143	0.033322	0.036501	0.039680	0.042860	0.046039	0.049244	0.056077	0.063472	0.070870	0.078268	0.085666	0.093064	0.100462	0.107860	0.115305	0.124716	0.134312	0.143910	0.153508	0.163106	0.172704	0.182302	0.191900	0.201599	0.213393	0.225286	0.237182	0.249077	0.260972	0.272867	0.284763	0.296658	0.308396	0.318353	0.328280	0.338206	0.348131	0.358057	0.367983	0.377908	0.387834	0.397229	0.402951	0.408679	0.414405	0.420131	0.425857	0.431582	0.437308	0.443034	0.448404	0.452102	0.455827	0.459551	0.463275	0.466998	0.470722	0.474446	0.478170	0.481919	0.485749	0.489577	0.493405	0.497233	0.501061	0.504889	0.508716	0.512544	0.516322	0.519982	0.523645	0.527307	0.530970	0.534633	0.538295	0.541958	0.545620	0.548854	0.551332	0.553828	0.556323	0.558818	0.561313	0.563809	0.566304	0.568799	0.571430	0.574241	0.577049	0.579856	0.582663	0.585471	0.588278	0.591086	0.593893	0.597263	0.601201	0.605131	0.609060	0.612990	0.616919	0.620849	0.624778	0.628707	0.632849	0.637154	0.641457	0.645760	0.650063	0.654366	0.658669	0.662971	0.667274	0.671387	0.675389	0.679392	0.683395	0.687398	0.691400	0.695403	0.699406	0.703409	0.706985	0.710377	0.713770	0.717162	0.720555	0.723948	0.727340	0.730733	0.734126	0.737401	0.740640	0.743878	0.747117	0.750356	0.753595	0.756834	0.760072	0.763308	0.765834	0.768210	0.770585	0.772960	0.775336	0.777711	0.780086	0.782462	0.784839	0.787403	0.789992	0.792581	0.795170	0.797760	0.800349	0.802938	0.805527	0.808122	0.810906	0.813705	0.816504	0.819303	0.822102	0.824901	0.827700	0.830499	0.833287	0.835879	0.838465	0.841051	0.843636	0.846221	0.848807	0.851392	0.853978	0.856486	0.858236	0.859981	0.861725	0.863469	0.865213	0.866957	0.868701	0.870445	0.872093	0.873160	0.874231	0.875301	0.876372	0.877443	0.878513	0.879584	0.880655	0.881668	0.882448	0.883232	0.884016	0.884799	0.885583	0.886367	0.887151	0.887934	0.888594	0.888891	0.889196	0.889500	0.889805	0.890110	0.890415	0.890719	0.891024	0.891628	0.892874	0.894104	0.895335	0.896566	0.897797	0.899028	0.900259	0.901489	0.902968	0.904844	0.906711	0.908578	0.910445	0.912312	0.914179	0.916047	0.917914	0.919854	0.921882	0.923909	0.925936	0.927963	0.929990	0.932016	0.934043	0.936070	0.938019	0.939896	0.941773	0.943651	0.945529	0.947407	0.949284	0.951162	0.953040	0.954638	0.956038	0.957441	0.958844	0.960246	0.961649	0.963052	0.964455	0.965858	0.967324	0.968824	0.970323	0.971823	0.973322	0.974822	0.976322	0.977821	0.979321	0.980869	0.982436	0.984003	0.985570	0.987137	0.988704	0.990272	0.991839	0.993405	0.993938	0.994188	0.994438	0.994688	0.994938	0.995188	0.995438	0.995688	0.995939	0.996359	0.996811	0.997262	0.997713	0.998165	0.998616	0.999068	0.999519	0.999963	1.000000	0.999990	0.999980	0.999970	0.999960	0.999949	0.999939	0.999929	0.999896	0.999237	0.998541	0.997844	0.997148	0.996451	0.995754	0.995057	0.994361	0.993697	0.993474	0.993264	0.993054	0.992844	0.992634	0.992424	0.992214	0.992004	0.991802	0.991658	0.991515	0.991372	0.991229	0.991085	0.990942	0.990799	0.990656	0.990479	0.990122	0.989768	0.989413	0.989059	0.988704	0.988350	0.987995	0.987640	0.987370	0.987406	0.987436	0.987467	0.987498	0.987528	0.987559	0.987589	0.987620	0.987673	0.987785	0.987896	0.988006	0.988117	0.988228	0.988339	0.988449	0.988560	0.988222	0.987008	0.985815	0.984622	0.983429	0.982236	0.981042	0.979849	0.978656	0.977621	0.976816	0.976007	0.975197	0.974388	0.973579	0.972769	0.971960	0.971151	0.970674	0.970567	0.970453	0.970339	0.970226	0.970112	0.969998	0.969885	0.969771	0.969476	0.969028	0.968582	0.968135	0.967689	0.967243	0.966797	0.966351	0.965904	0.965489	0.965093	0.964698	0.964302	0.963906	0.963510	0.963115	0.962719	0.962323	0.962014	0.961748	0.961481	0.961214	0.960947	0.960679	0.960412	0.960145	0.959878	0.959614	0.959352	0.959089	0.958826	0.958563	0.958300	0.958038	0.957775	0.957513	0.957524	0.957602	0.957680	0.957758	0.957836	0.957915	0.957993	0.958071	0.958148	0.958129	0.958096	0.958062	0.958028	0.957995	0.957961	0.957927	0.957893	0.957847	0.957268	0.956638	0.956007	0.955377	0.954746	0.954116	0.953485	0.952855	0.952202	0.951095	0.949965	0.948835	0.947705	0.946575	0.945445	0.944315	0.943185	0.941778	0.937202	0.932570	0.927934	0.923299	0.918664	0.914029	0.909393	0.904758	0.899130	0.886543	0.873968	0.861388	0.848808	0.836228	0.823648	0.811068	0.798488	0.785123	0.768044	0.751024	0.734002	0.716980	0.699958	0.682935	0.665913	0.648891	0.632370	0.617492	0.602581	0.587669	0.572758	0.557847	0.542936	0.528025	0.513114	0.499408	0.488574	0.477675	0.466775	0.455876	0.444977	0.434078	0.423179	0.412280	0.402109	0.393231	0.384323	0.375416	0.366509	0.357601	0.348694	0.339786	0.330879	0.322460	0.314695	0.306916	0.299138	0.291359	0.283580	0.275802	0.268023	0.260245	0.253168	0.246807	0.240434	0.234061	0.227688	0.221315	0.214941	0.208568	0.202195	0.196459	0.191216	0.185967	0.180718	0.175469	0.170220	0.164971	0.159722	0.154473	0.149950	0.145853	0.141752	0.137651	0.133549	0.129448	0.125347	0.121246	0.117145	0.113740	0.110639	0.107536	0.104433	0.101330	0.098227	0.095124	0.092021	0.088918	0.086851	0.085107	0.083363	0.081619	0.079875	0.078131	0.076386	0.074642	0.072899	0.071509	0.070193	0.068878	0.067562	0.066247	0.064931	0.063616	0.062300	0.060987	0.059872	0.058784	0.057696	0.056608	0.055520	0.054432	0.053344	0.052256	0.051196	0.051081	0.051041	0.051002	0.050962	0.050923	0.050883	0.050844	0.050804	0.050752	0.050486	0.050212	0.049938	0.049664	0.049390	0.049116	0.048841	0.048567	0.048274	0.047790	0.047304	0.046819	0.046333	0.045847	0.045362	0.044876	0.044390	0.043954	0.043820	0.043683	0.043547	0.043411	0.043275	0.043139	0.043003	0.042867	0.042715	0.042502	0.042290	0.042077	0.041865	0.041653	0.041440	0.041228	0.041016	0.040746	0.040305	0.039869	0.039432	0.038996	0.038559	0.038123	0.037686	0.037250	0.036821	0.036412	0.036001	0.035591	0.035181	0.034771	0.034360	0.033950	0.033540	0.033153	0.032804	0.032454	0.032103	0.031753	0.031403	0.031053	0.030703	0.030353	0.029994	0.029625	0.029257	0.028888	0.028519	0.028151	0.027782	0.027413	0.027045	0.026821	0.026732	0.026641	0.026550	0.026459	0.026368	0.026278	0.026187	0.026096	0.026243	0.026559	0.026873	0.027187	0.027502	0.027816	0.028130	0.028444	0.028758	0.029158	0.029604	0.030049	0.030494	0.030940	0.031385	0.031830	0.032275	0.032721	0.033053	0.033341	0.033629	0.033917	0.034205	0.034493	0.034781	0.035069	0.035357	0.035488	0.035576	0.035665	0.035753	0.035841	0.035930	0.036018	0.036106	0.036194	0.036163	0.036111	0.036059	0.036007	0.035954	0.035902	0.035850	0.035797	0.035744	0.035651	0.035553	0.035454	0.035356	0.035258	0.035159	0.035061	0.034963	0.034869	0.034898	0.034934	0.034970	0.035006	0.035042	0.035078	0.035114	0.035151	0.035188	0.035242	0.035296	0.035351	0.035406	0.035460	0.035515	0.035569	0.035624	0.035683	0.035779	0.035875	0.035971	0.036067	0.036163	0.036259	0.036355	0.036451	0.036550	0.036663	0.036775	0.036888	0.037001	0.037114	0.037226	0.037339	0.037452	0.037564	0.037673	0.037783	0.037892	0.038002	0.038111	0.038220	0.038330	0.038439	0.038538	0.038610	0.038682	0.038755	0.038827	0.038899	0.038972	0.039044	0.039116	0.039181	0.039232	0.039283	0.039335	0.039386	0.039437	0.039488	0.039539	0.039591	0.039630	0.039650	0.039672	0.039693	0.039714	0.039736	0.039757	0.039778	0.039800	0.039814	0.039820	0.039826	0.039833	0.039839	0.039845	0.039852	0.039858	0.039864	0.039876	0.039894	0.039911	0.039928	0.039946	0.039963	0.039980	0.039997	0.040015	0.040044	0.040082	0.040120	0.040157	0.040195	0.040233	0.040270	0.040308	0.040345	0.040339	0.040311	0.040283	0.040255	0.040227	0.040199	0.040171	0.040143	0.040115	0.040088	0.040063	0.040037	0.040012	0.039986	0.039960	0.039935	0.039909	0.039884	0.039856	0.039828	0.039800	0.039771	0.039743	0.039715	0.039687	0.039659	0.039630	0.039554	0.039469	0.039385	0.039301	0.039217	0.039133	0.039048	0.038964	0.038880	0.038807	0.038735	0.038663	0.038591	0.038519	0.038448	0.038376	0.038304	0.038231	0.038146	0.038060	0.037974	0.037888	0.037802	0.037716	0.037631	0.037545	0.037458	0.037361	0.037264	0.037167	0.037070	0.036973	0.036876	0.036779	0.036682	0.036586	0.036494	0.036401	0.036309	0.036216	0.036124	0.036032	0.035939	0.035847	0.035762	0.035715	0.035666	0.035618	0.035569	0.035521	0.035472	0.035424	0.035376	0.035330	0.035292	0.035254	0.035216	0.035179	0.035141	0.035103	0.035065	0.035027	0.035003	0.035009	0.035016	0.035022	0.035028	0.035034	0.035040	0.035046	0.035052	0.035065	0.035090	0.035114	0.035138	0.035162	0.035187	0.035211	0.035235	0.035260	0.035286	0.035314	0.035342	0.035370	0.035398	0.035426	0.035454	0.035482	0.035510	0.035574	0.035675	0.035776	0.035877	0.035977	0.036078	0.036179	0.036279	0.036380	0.036514	0.036675	0.036835	0.036995	0.037155	0.037315	0.037475	0.037635	0.037795	0.037996	0.038222	0.038448	0.038674	0.038899	0.039125	0.039351	0.039577	0.039802	0.040462	0.041311	0.042159	0.043007	0.043856	0.044704	0.045552	0.046400	0.047249	0.051440	0.056679	0.061918	0.067156	0.072394	0.077633	0.082871	0.088110	0.093371	0.105008	0.118017	0.131031	0.144044	0.157057	0.170070	0.183083	0.196096	0.209138	0.225126	0.241512	0.257900	0.274289	0.290677	0.307066	0.323454	0.339843	0.356130	0.368975	0.381546	0.394114	0.406682	0.419251	0.431819	0.444387	0.456955	0.469260	0.477148	0.484863	0.492574	0.500285	0.507997	0.515708	0.523419	0.531130	0.538578	0.543378	0.548156	0.552931	0.557707	0.562483	0.567258	0.572034	0.576810	0.581292	0.583971	0.586661	0.589350	0.592039	0.594728	0.597417	0.600106	0.602795	0.605285	0.606943	0.608614	0.610286	0.611957	0.613628	0.615300	0.616971	0.618642	0.620328	0.622055	0.623782	0.625508	0.627235	0.628962	0.630688	0.632415	0.634141	0.635775	0.637205	0.638640	0.640075	0.641510	0.642945	0.644380	0.645815	0.647250	0.647829	0.647013	0.646228	0.645444	0.644659	0.643874	0.643089	0.642304	0.641519	0.638085	0.631387	0.624752	0.618116	0.611481	0.604846	0.598210	0.591575	0.584939	0.572306	0.554043	0.535867	0.517691	0.499516	0.481340	0.463164	0.444989	0.426813	0.406647	0.385061	0.363491	0.341921	0.320351	0.298782	0.277212	0.255642	0.234072	0.218941	0.207267	0.195569	0.183870	0.172171	0.160472	0.148772	0.137073	0.125374	0.118723	0.114064	0.109398	0.104732	0.100066	0.095400	0.090734	0.086068	0.081402	0.078149	0.075288	0.072427	0.069566	0.066705	0.063844	0.060983	0.058123	0.055265	0.052982	0.050806	0.048631	0.046456	0.044281	0.042106	0.039931	0.037756	0.035594	0.034182	0.032857	0.031533	0.030209	0.028885	0.027561	0.026237	0.024913	0.023607	0.022793	0.022011	0.021229	0.020447	0.019665	0.018883	0.018101	0.017319	0.016544	0.015866	0.015192	0.014517	0.013843	0.013168	0.012494	0.011819	0.011145	0.010473	0.009828	0.009182	0.008537	0.007891	0.007246	0.006601	0.005955	0.005310	0.004708	0.004342	0.003973	0.003605	0.003236	0.002868	0.002499	0.002131	0.001762	0.001478	0.001506	0.001529	0.001551	0.001574	0.001597	0.001619	0.001642	0.001664	0.001709	0.001810	0.001911	0.002011	0.002112	0.002212	0.002313	0.002414	0.002514	0.002620	0.002738	0.002856	0.002974	0.003092	0.003210	0.003327	0.003445	0.003563	0.003698	0.003860	0.004022	0.004183	0.004344	0.004506	0.004667	0.004828	0.004990	0.005177	0.005394	0.005611	0.005827	0.006043	0.006260	0.006476	0.006693	0.006909	0.007122	0.007333	0.007544	0.007754	0.007965	0.008176	0.008386	0.008597	0.008808	
