1
20467 1
0.131512	0.062793	0.071058	0.024728	0.026195	0.000263	0.016531	0.017652	0.002893	0.015799	0.026337	0.055622	0.015384	0.016291	0.023396	0.008618	0.026155	0.053852	0.032519	0.020409	0.017801	0.021569	0.032984	0.016399	0.031119	0.023577	0.034482	0.013835	0.006452	0.026112	0.071421	0.022567	0.025792	0.046729	0.037355	0.019475	0.014501	0.000563	0.006722	0.008997	0.019648	0.041083	0.014961	0.047815	0.031780	0.062268	0.021719	0.039528	0.084959	0.038003	0.010354	0.006068	0.067894	0.012974	0.009602	0.004961	0.035042	0.016054	0.005863	0.023040	0.010264	0.022520	0.023617	0.004469	0.029417	0.033526	0.026397	0.056508	0.019220	0.006498	0.043989	0.009769	0.038221	0.014833	0.013674	0.021895	0.010011	0.014428	0.056928	0.122445	0.019177	0.063395	0.103941	0.003186	0.019139	0.039486	0.015337	0.035085	0.011132	0.000564	0.057415	0.054108	0.041395	0.022741	0.041907	0.067585	0.050024	0.037874	0.022826	0.035371	0.129965	0.155353	0.099936	0.089688	0.160732	0.099148	0.068451	0.029746	0.008423	0.039511	0.059862	0.111501	0.041810	0.034512	0.058123	0.120837	0.087598	0.036424	0.034892	0.014927	0.024403	0.043957	0.012192	0.013659	0.053039	0.016197	0.013518	0.007622	0.096683	0.033335	0.022803	0.052519	0.204752	0.105797	0.058417	0.063673	0.006475	0.024670	0.014312	0.035737	0.027876	0.015819	0.064219	0.065624	0.025542	0.055490	0.021382	0.037665	0.054711	0.113366	0.025439	0.036477	0.001120	0.011728	0.039356	0.039038	0.069623	0.014340	0.166177	0.314283	0.114078	0.111668	0.249502	0.289918	0.192060	0.031026	0.089585	0.110844	0.057488	0.054837	0.140810	0.011711	0.090997	0.086733	0.136794	0.118968	0.043240	0.011718	0.106963	0.026326	0.054336	0.150105	0.277078	0.137014	0.141846	0.206832	0.275807	0.067295	0.080809	0.037401	0.047409	0.168841	0.115610	0.020134	0.008560	0.054607	0.031192	0.077044	0.037013	0.069057	0.016875	0.026097	0.094302	0.225850	0.197024	0.108194	0.227515	0.198564	0.034647	0.011729	0.199691	0.223238	0.104048	0.157008	0.309838	0.144624	0.086936	0.115800	0.123425	0.075452	0.033645	0.011400	0.025618	0.013773	0.133082	0.096257	0.093004	0.186843	0.213106	0.027384	0.251920	0.224110	0.164993	0.069368	0.030292	0.143113	0.173622	0.018782	0.017817	0.090756	0.023361	0.048400	0.027503	0.040446	0.031240	0.028646	0.006114	0.091319	0.047594	0.131529	0.111088	0.057499	0.015045	0.151872	0.203726	0.062917	0.348348	0.258010	0.050011	0.251456	0.064628	0.114124	0.241402	0.348042	0.394422	0.069584	0.105620	0.163531	0.234842	0.180907	0.049833	0.019982	0.017180	0.134052	0.129929	0.047012	0.003911	0.033322	0.155103	0.128119	0.000890	0.086538	0.403803	0.584684	0.238686	0.203419	0.585784	0.779693	0.392700	0.307456	0.055847	0.181172	0.327434	0.314834	0.186978	0.011223	0.045076	0.074074	0.017113	0.046734	0.073129	0.229136	0.216823	0.013818	0.264644	0.315847	0.091610	0.005945	0.109751	0.356380	0.291825	0.126653	0.125019	0.341785	0.193563	0.155972	0.108658	0.045758	0.138397	0.241586	0.184583	0.197964	0.144381	0.104820	0.036248	0.098491	0.053125	0.031275	0.039226	0.064958	0.015535	0.013783	0.012391	0.115349	0.223003	0.154318	0.014142	0.162784	0.160153	0.088039	0.189127	0.357075	0.065766	0.202170	0.290664	0.184536	0.078434	0.002158	0.173470	0.000700	0.226112	0.107062	0.070378	0.231457	0.114447	0.111881	0.048446	0.091957	0.123890	0.191767	0.155168	0.054188	0.014929	0.001299	0.040341	0.055634	0.084750	0.177805	0.057133	0.237773	0.193213	0.076720	0.163090	0.190244	0.020562	0.007042	0.265467	0.241296	0.126335	0.160572	0.384913	0.143828	0.064121	0.356221	0.316098	0.071946	0.121358	0.162350	0.219790	0.180241	0.027438	0.064167	0.040818	0.082956	0.100839	0.199328	0.112080	0.111194	0.135391	0.023228	0.141190	0.144843	0.080035	0.111973	0.082087	0.156823	0.056622	0.050865	0.022783	0.094808	0.062941	0.090673	0.203442	0.250571	0.004029	0.200221	0.239304	0.138038	0.019438	0.019667	0.007730	0.041801	0.115661	0.194814	0.298367	0.128135	0.218665	0.365160	0.382540	0.047142	0.174202	0.048942	0.108706	0.062213	0.036215	0.005357	0.162768	0.070340	0.028961	0.074534	0.081549	0.150171	0.054355	0.082839	0.111226	0.058734	0.122534	0.148974	0.112787	0.053447	0.193248	0.095815	0.000591	0.156800	0.153218	0.016347	0.031931	0.102953	0.092667	0.145518	0.140524	0.329920	0.231368	0.286885	0.439560	0.337252	0.133318	0.024812	0.128106	0.162056	0.260904	0.056123	0.030099	0.170301	0.110148	0.029218	0.034537	0.103423	0.072667	0.122287	0.009938	0.080396	0.128316	0.085542	0.113248	0.239627	0.215889	0.103718	0.196056	0.280349	0.168831	0.142557	0.144248	0.031507	0.061568	0.106715	0.191047	0.208935	0.039767	0.164818	0.122807	0.008703	0.141027	0.145250	0.158119	0.010393	0.151034	0.148188	0.077321	0.070972	0.006313	0.001608	0.096344	0.090100	0.153701	0.117269	0.011999	0.165931	0.218478	0.265633	0.004622	0.502476	0.356947	0.300155	0.494479	0.344805	0.056504	0.015716	0.054877	0.050760	0.054812	0.001059	0.075068	0.036090	0.028723	0.110190	0.033423	0.169282	0.012969	0.002826	0.021823	0.069938	0.250719	0.084069	0.124296	0.258445	0.120743	0.020749	0.082265	0.038144	0.082461	0.158506	0.043848	0.276617	0.262220	0.061749	0.125408	0.136442	0.050324	0.042233	0.032148	0.051648	0.011138	0.002201	0.054856	0.138731	0.169421	0.179317	0.058696	0.185149	0.295180	0.137146	0.056085	0.252305	0.147090	0.066421	0.164118	0.054287	0.153349	0.016891	0.049657	0.007028	0.157953	0.235099	0.043845	0.122778	0.034135	0.052237	0.129601	0.208989	0.106407	0.030074	0.096679	0.123096	0.114039	0.026365	0.019142	0.177341	0.220727	0.055038	0.208810	0.245516	0.099003	0.378329	0.353035	0.146785	0.533642	0.594450	0.099997	0.353987	0.181804	0.164239	0.387067	0.190783	0.051168	0.210535	0.232063	0.215777	0.022561	0.018522	0.054397	0.045739	0.012413	0.033883	0.093359	0.077738	0.094296	0.084672	0.076996	0.182177	0.205843	0.120066	0.191200	0.197036	0.051781	0.150590	0.268165	0.119982	0.028737	0.026663	0.057990	0.163090	0.032097	0.128414	0.203311	0.051907	0.147707	0.093772	0.033191	0.033989	0.070447	0.091743	0.052691	0.099253	0.181494	0.072350	0.193668	0.185414	0.093126	0.066678	0.134311	0.227214	0.189465	0.001486	0.331216	0.604535	0.227002	0.005816	0.083652	0.247054	0.415223	0.444599	0.047316	0.442089	0.500239	0.070610	0.311503	0.362276	0.082871	0.204847	0.258183	0.132084	0.088794	0.021333	0.100858	0.111120	0.116221	0.186054	0.192027	0.167327	0.028377	0.114579	0.015449	0.025387	0.080011	0.091738	0.111622	0.110405	0.166888	0.108714	0.174362	0.152915	0.127656	0.088412	0.018885	0.094660	0.045907	0.063345	0.165488	0.219593	0.093175	0.140746	0.287074	0.197066	0.010541	0.074097	0.145244	0.162913	0.089504	0.048532	0.004530	0.043209	0.084496	0.051917	0.048634	0.062705	0.060011	0.017896	0.032379	0.162401	0.203725	0.283441	0.119859	0.438512	0.380256	0.019678	0.166820	0.058666	0.001169	0.023170	0.045613	0.119525	0.020392	0.047224	0.088318	0.151988	0.169178	0.095626	0.020928	0.060530	0.052452	0.066044	0.198670	0.174889	0.029561	0.223221	0.234011	0.040328	0.039911	0.077594	0.260056	0.170588	0.143786	0.472288	0.442837	0.032021	0.167918	0.274098	0.083448	0.012494	0.072439	0.005390	0.073221	0.020099	0.074422	0.073178	0.089160	0.112966	0.148992	0.069642	0.004814	0.163489	0.167730	0.109627	0.011218	0.066604	0.038995	0.185608	0.025341	0.121936	0.098395	0.165127	0.054651	0.072879	0.072350	0.054633	0.106823	0.296935	0.049440	0.187193	0.323389	0.202814	0.006395	0.054928	0.015354	0.025225	0.008247	0.024164	0.042571	0.092400	0.000402	0.156510	0.191801	0.134405	0.052295	0.221761	0.209086	0.006622	0.038475	0.000040	0.064895	0.231816	0.282161	0.099667	0.121111	0.183726	0.183582	0.072034	0.045690	0.075595	0.055904	0.143412	0.066713	0.068613	0.052179	0.129606	0.187960	0.052167	0.139519	0.097579	0.051225	0.020687	0.008984	0.045360	0.012182	0.185215	0.169098	0.143372	0.166213	0.125817	0.007776	0.207575	0.150897	0.077592	0.210523	0.166782	0.151075	0.349929	0.169963	0.095078	0.200058	0.227406	0.237610	0.115919	0.082084	0.184055	0.222350	0.251186	0.140170	0.125811	0.362724	0.293982	0.174021	0.363953	0.255464	0.015879	0.107676	0.065992	0.057678	0.180366	0.277330	0.280381	0.049971	0.315894	0.438659	0.199933	0.109632	0.166703	0.155841	0.219693	0.075256	0.026115	0.184797	0.416450	0.215935	0.038062	0.164714	0.222817	0.117486	0.059520	0.062031	0.043662	0.009848	0.025831	0.191915	0.081318	0.085279	0.159723	0.211694	0.007212	0.202499	0.009451	0.270924	0.234941	0.045340	0.200996	0.234240	0.106495	0.155590	0.256359	0.117675	0.001197	0.072337	0.082268	0.019309	0.101377	0.039251	0.057422	0.075120	0.017172	0.014621	0.050616	0.065633	0.097594	0.042243	0.044075	0.040169	0.078574	0.207080	0.285572	0.045852	0.370109	0.403997	0.120982	0.080557	0.178118	0.271478	0.074717	0.165897	0.128981	0.162514	0.080594	0.083168	0.006188	0.016369	0.007376	0.003743	0.031828	0.020377	0.074734	0.110998	0.077389	0.062446	0.089050	0.085140	0.016706	0.226558	0.196510	0.010064	0.153921	0.099365	0.115992	0.124015	0.035773	0.110461	0.005536	0.144409	0.073876	0.051560	0.125734	0.174332	0.092676	0.230870	0.233146	0.096017	0.227598	0.229908	0.002804	0.054749	0.063447	0.074712	0.065202	0.036078	0.049211	0.103108	0.109870	0.001326	0.086682	0.118023	0.044193	0.026260	0.043205	0.155036	0.144279	0.094731	0.155005	0.355986	0.321091	0.057211	0.038872	0.077460	0.063130	0.135894	0.083288	0.023402	0.017214	0.032150	0.137460	0.111478	0.026059	0.007322	0.000339	0.002202	0.122762	0.120319	0.036442	0.009422	0.080618	0.007126	0.092419	0.133382	0.112631	0.071854	0.025323	0.176898	0.100788	0.073055	0.028423	0.007090	0.026006	0.018084	0.103641	0.037969	0.007240	0.031392	0.107162	0.029957	0.014929	0.040533	0.027338	0.006935	0.018066	0.034846	0.010972	0.046840	0.072924	0.064879	0.046235	0.041564	0.011787	0.109475	0.052154	0.032989	0.052975	0.090106	0.174807	0.034906	0.072636	0.142169	0.171166	0.100092	0.124186	0.038473	0.035243	0.132352	0.031783	0.016979	0.005617	0.063769	0.062240	0.019035	0.025717	0.000838	0.050475	0.007548	0.036096	0.007787	0.011411	0.015088	0.021893	0.017384	0.060379	0.013797	0.118736	0.005731	0.053109	0.158901	0.110414	0.039386	0.037045	0.066974	0.075389	0.020258	0.117196	0.075897	0.056640	0.068536	0.071963	0.006363	0.043858	0.028726	0.010573	0.011211	0.020836	0.011831	0.058449	0.056656	0.039201	0.011966	0.068746	0.062773	0.079136	0.050870	0.058705	0.023375	0.064427	0.080854	0.027113	0.078927	0.045842	0.127788	0.010929	0.103206	0.047629	0.101693	0.022883	0.006065	0.025131	0.035704	0.041521	0.039542	0.042120	0.048266	0.024383	0.000090	0.005625	0.075148	0.032226	0.016951	0.003987	0.012772	0.015100	0.011786	0.019204	0.040235	0.032306	0.048539	0.037973	0.029284	0.013580	0.028398	0.163317	0.082605	0.089762	0.180763	0.124720	0.021687	0.005916	0.102779	0.018554	0.048338	0.047627	0.061082	0.050411	0.043003	0.060306	0.027531	0.018689	0.031360	0.052669	0.019694	0.021474	0.040379	0.017555	0.005466	0.004163	0.020716	0.009667	0.014359	0.017325	0.020829	0.013192	0.030948	0.049430	0.055664	0.011440	0.000027	0.008754	0.019238	0.015085	0.023848	0.011701	0.068692	0.037041	0.051148	0.062808	0.014317	0.021523	0.011065	0.022230	0.037561	0.032964	0.004434	0.022670	0.005849	0.057730	0.002389	0.035722	0.084352	0.000407	0.091614	0.090058	0.022886	0.023423	0.040912	0.054902	0.051378	0.032165	0.021283	0.005772	0.020858	0.018311	0.023810	0.014368	0.003056	0.003305	0.001075	0.008167	0.001929	0.003929	0.002263	0.010330	0.001844	0.005109	0.016686	0.003426	0.015338	0.005638	0.011830	0.002488	0.073884	0.146551	0.006809	0.141885	0.131536	0.069995	0.017612	0.044014	0.018462	0.004414	0.003170	0.028589	0.051209	0.063896	0.113779	0.010465	0.044971	0.012678	0.000942	0.015050	0.006688	0.002989	0.000302	0.010339	0.006802	0.002659	0.000960	0.002706	0.053103	0.019082	0.027978	0.001115	0.001640	0.011682	0.012031	0.015408	0.007771	0.002902	0.022533	0.006910	0.082886	0.017564	0.093534	0.033850	0.051658	0.005894	0.025213	0.017030	0.005298	0.013015	0.013542	0.018125	0.007607	0.014158	0.044768	0.009661	0.046059	0.000794	0.002215	0.001058	0.002382	0.014729	0.014967	0.006338	0.038503	0.008453	0.073310	0.020434	0.015723	0.016434	0.025347	0.003847	0.009774	0.007226	0.007357	0.010274	0.006076	0.002226	0.002066	0.015270	0.050238	0.021902	0.014172	0.032348	0.021191	0.032586	0.100807	0.012813	0.015329	0.004393	0.004654	0.000359	0.003166	0.005874	0.008281	0.010037	0.011068	0.011086	0.006977	0.004139	0.013073	0.005765	0.002533	0.003479	0.010684	0.000301	0.000445	0.001204	0.000511	0.000366	0.008116	0.015594	0.013492	0.038486	0.007812	0.003126	0.008081	0.003694	0.022565	0.005554	0.003264	0.051982	0.041977	0.009185	0.018257	0.012073	0.051558	0.010479	0.057506	0.043917	0.007538	0.004953	0.001545	0.007621	0.006493	0.045854	0.023281	0.003466	0.001654	0.001150	0.015445	0.010378	0.007290	0.006674	0.009871	0.007869	0.002096	0.003716	0.003587	0.009979	0.001411	0.000032	0.008846	0.005845	0.005630	0.000914	0.002706	0.004705	0.009127	0.010175	0.003177	0.003658	0.009133	0.006048	0.001243	0.010495	0.017925	0.004581	0.015515	0.046089	0.008757	0.021303	0.001747	0.007190	0.006255	0.003611	0.032897	0.002851	0.002940	0.007593	0.015060	0.003273	0.011582	0.002867	0.003552	0.006086	0.003600	0.011312	0.007358	0.000207	0.002330	0.006162	0.002790	0.002142	0.002656	0.006452	0.009976	0.002408	0.008375	0.001998	0.005187	0.002566	0.000968	0.013844	0.011872	0.011839	0.025365	0.016436	0.010174	0.006460	0.008869	0.005805	0.008349	0.009474	0.004665	0.003012	0.004862	0.002620	0.001228	0.002713	0.002292	0.000702	0.004844	0.000863	0.002442	0.001041	0.000975	0.002195	0.003118	0.001907	0.012169	0.005106	0.001607	0.016156	0.001427	0.008384	0.011515	0.006651	0.014031	0.000322	0.012394	0.002173	0.001541	0.009921	0.019457	0.020394	0.017997	0.055402	0.028278	0.000844	0.004213	0.001367	0.009433	0.008303	0.004103	0.004853	0.006721	0.002096	0.000529	0.007352	0.003860	0.006612	0.002379	0.000693	0.004871	0.001076	0.007633	0.003221	0.002422	0.006273	0.003228	0.001149	0.005677	0.001418	0.003433	0.000098	0.004199	0.002904	0.002981	0.006791	0.005935	0.000493	0.004731	0.003667	0.006698	0.005385	0.004348	0.000323	0.011590	0.000903	0.001166	0.003604	0.002845	0.000476	0.001938	0.002710	0.006458	0.006668	0.010255	0.001086	0.007380	0.001754	0.008639	0.003106	0.001063	0.002824	0.007179	0.010866	0.002585	0.007484	0.021217	0.069697	0.067635	0.023975	0.063768	0.097614	0.106882	0.017538	0.019665	0.002011	0.014752	0.018367	0.014598	0.030681	0.013659	0.015499	0.014525	0.006199	0.017549	0.018265	0.017174	0.009044	0.006306	0.017559	0.014716	0.006157	0.003135	0.003928	0.003369	0.010828	0.000840	0.003584	0.000612	0.001919	0.007271	0.003964	0.008372	0.007166	0.000809	0.010694	0.005392	0.037162	0.045393	0.015584	0.057841	0.048655	0.021488	0.007745	0.015387	0.030756	0.050660	0.044943	0.007416	0.028422	0.061661	0.031801	0.008127	0.028501	0.041576	0.050909	0.003101	0.032234	0.032126	0.010451	0.016458	0.002586	0.013685	0.000964	0.011164	0.009856	0.016077	0.066271	0.083970	0.026886	0.055471	0.071043	0.091166	0.013734	0.028657	0.029828	0.000773	0.048912	0.043775	0.008784	0.038272	0.044161	0.015461	0.011020	0.007855	0.001494	0.018329	0.029124	0.020111	0.021733	0.035530	0.006911	0.001325	0.003063	0.011740	0.008326	0.001558	0.025347	0.066190	0.004905	0.040010	0.094855	0.034754	0.019606	0.064535	0.040165	0.009034	0.049746	0.048727	0.001467	0.003632	0.022266	0.015689	0.023660	0.003814	0.011564	0.020540	0.031708	0.006399	0.028205	0.001219	0.016542	0.027893	0.045479	0.025654	0.010125	0.013677	0.027931	0.037465	0.002893	0.009847	0.001513	0.002961	0.004504	0.020386	0.050148	0.021402	0.035329	0.044045	0.002594	0.046539	0.079665	0.038051	0.055182	0.104406	0.100936	0.012574	0.039125	0.088305	0.076351	0.024803	0.050103	0.074734	0.075035	0.036887	0.024215	0.021128	0.004340	0.003269	0.025374	0.028097	0.020841	0.015237	0.023446	0.020299	0.002798	0.024274	0.009380	0.028244	0.082950	0.043513	0.033484	0.088864	0.075768	0.047146	0.031572	0.029782	0.004179	0.014727	0.006206	0.036639	0.003506	0.005161	0.016939	0.007520	0.014513	0.004096	0.002360	0.013943	0.017752	0.033646	0.041910	0.006029	0.027319	0.023292	0.019371	0.001909	0.004018	0.065985	0.068304	0.034497	0.113071	0.066981	0.075990	0.168679	0.128150	0.023715	0.032636	0.049062	0.074097	0.039915	0.011468	0.005820	0.004202	0.034635	0.024918	0.010164	0.028113	0.002705	0.009805	0.007624	0.007580	0.003504	0.015404	0.007254	0.022057	0.049343	0.053618	0.000087	0.010414	0.042974	0.081473	0.104049	0.014797	0.004795	0.001755	0.038437	0.011182	0.063677	0.034601	0.012443	0.000156	0.017584	0.035348	0.001160	0.009227	0.040354	0.082159	0.026129	0.025665	0.017901	0.031707	0.003810	0.001983	0.004354	0.010326	0.021360	0.008947	0.066886	0.081360	0.019167	0.128872	0.125874	0.081670	0.009469	0.019193	0.041445	0.058748	0.026551	0.002046	0.016578	0.002694	0.024421	0.012732	0.017773	0.027285	0.015944	0.044818	0.019360	0.012100	0.021198	0.046638	0.021279	0.048065	0.033513	0.008535	0.041985	0.112036	0.028213	0.072567	0.027533	0.016676	0.064023	0.054125	0.020834	0.045089	0.026346	0.068352	0.067610	0.008140	0.039422	0.027549	0.028433	0.006642	0.012532	0.000831	0.046110	0.021822	0.061044	0.029306	0.075125	0.133729	0.075625	0.029011	0.049822	0.048743	0.069965	0.084548	0.044091	0.071393	0.114736	0.009083	0.031915	0.005969	0.009880	0.011074	0.034866	0.089460	0.012623	0.000655	0.015439	0.008251	0.037956	0.015470	0.012279	0.020568	0.104474	0.066731	0.041908	0.007327	0.006614	0.010083	0.022383	0.048726	0.084444	0.052196	0.048765	0.098405	0.047832	0.010644	0.046918	0.078375	0.078907	0.010884	0.026126	0.043075	0.036532	0.060141	0.034912	0.024949	0.077082	0.086140	0.028892	0.019704	0.078278	0.083136	0.083951	0.012691	0.018522	0.069084	0.072630	0.074487	0.001718	0.011908	0.022625	0.056460	0.070217	0.047527	0.016892	0.003655	0.007887	0.004993	0.038921	0.049212	0.080581	0.004839	0.092022	0.082556	0.037318	0.055973	0.064308	0.002664	0.018645	0.032786	0.002282	0.038350	0.034249	0.025201	0.040858	0.060084	0.005507	0.039138	0.054376	0.017696	0.047878	0.021195	0.046195	0.028497	0.016050	0.071741	0.127537	0.023509	0.055483	0.077565	0.071828	0.001564	0.009185	0.003659	0.001396	0.000696	0.064383	0.043075	0.039494	0.002380	0.004895	0.009889	0.031798	0.023584	0.069934	0.022556	0.005225	0.027240	0.025231	0.050955	0.015901	0.070914	0.043007	0.028504	0.021458	0.044437	0.004954	0.002600	0.027449	0.013239	0.029111	0.020426	0.046141	0.012238	0.038924	0.028908	0.006639	0.001524	0.086498	0.064047	0.103718	0.179435	0.033428	0.026618	0.095660	0.016767	0.108333	0.055463	0.054861	0.039940	0.046157	0.011270	0.040079	0.081491	0.075625	0.012354	0.093161	0.033653	0.018503	0.006045	0.035360	0.031901	0.060851	0.046848	0.010884	0.086704	0.162229	0.027002	0.085097	0.068810	0.007849	0.029184	0.005432	0.065348	0.050891	0.078948	0.003709	0.059461	0.074729	0.075183	0.011850	0.069219	0.028661	0.018425	0.014123	0.018378	0.029757	0.000759	0.041138	0.003810	0.002619	0.001942	0.040763	0.029127	0.054965	0.038813	0.018100	0.060608	0.046836	0.067837	0.060342	0.020057	0.008134	0.084836	0.036317	0.019113	0.019516	0.059490	0.006872	0.080695	0.094431	0.017780	0.043514	0.036855	0.067104	0.028784	0.006055	0.031401	0.039839	0.011172	0.011218	0.020980	0.052512	0.025496	0.006116	0.031433	0.082954	0.073731	0.054589	0.186332	0.074417	0.115245	0.093914	0.038799	0.054300	0.058944	0.064089	0.087420	0.069980	0.058746	0.048979	0.089614	0.057141	0.007489	0.035928	0.020761	0.007932	0.027630	0.014032	0.031577	0.004328	0.104094	0.049754	0.017682	0.015971	0.081284	0.001938	0.034434	0.060169	0.019439	0.005218	0.126601	0.044167	0.057692	0.031002	0.029635	0.017495	0.144011	0.111439	0.040046	0.018878	0.093473	0.041563	0.002938	0.034063	0.038236	0.088957	0.098202	0.033872	0.098942	0.121143	0.068050	0.025644	0.011128	0.013473	0.055441	0.109908	0.157721	0.139746	0.001455	0.143241	0.222590	0.101919	0.000103	0.048297	0.099624	0.133317	0.185314	0.109580	0.108246	0.294253	0.198633	0.088144	0.045372	0.086182	0.087813	0.042324	0.007116	0.046178	0.006759	0.036123	0.019631	0.011675	0.021542	0.003241	0.049804	0.042188	0.019029	0.026081	0.004811	0.073279	0.155558	0.016832	0.067217	0.167271	0.128157	0.074026	0.069593	0.013830	0.060669	0.051291	0.017772	0.081454	0.020577	0.091528	0.017190	0.037527	0.086613	0.109226	0.070863	0.013425	0.023616	0.142731	0.009994	0.001556	0.071334	0.034585	0.087012	0.008041	0.163065	0.192786	0.086904	0.004981	0.085589	0.065412	0.083866	0.146348	0.080613	0.092627	0.205935	0.096707	0.039511	0.084798	0.108561	0.113069	0.007638	0.054647	0.068335	0.031728	0.016779	0.016314	0.009307	0.039692	0.019149	0.003198	0.019054	0.081971	0.035570	0.084474	0.020008	0.071714	0.054862	0.013940	0.033644	0.053151	0.014820	0.061059	0.045338	0.015488	0.084381	0.185781	0.082917	0.153570	0.219472	0.022907	0.038476	0.076859	0.060731	0.088254	0.025285	0.036766	0.014553	0.050790	0.120860	0.092400	0.065385	0.041801	0.235455	0.138900	0.006790	0.085130	0.108540	0.078393	0.010270	0.060067	0.058130	0.034274	0.109948	0.135250	0.027102	0.030507	0.062740	0.103771	0.111498	0.013895	0.001714	0.004727	0.080841	0.075947	0.061132	0.115373	0.045590	0.071895	0.084220	0.009992	0.027505	0.008204	0.036334	0.067533	0.048539	0.028264	0.027831	0.100468	0.052042	0.109330	0.097338	0.056303	0.015566	0.006326	0.087658	0.019731	0.092064	0.074471	0.042329	0.061842	0.011793	0.039179	0.028240	0.062778	0.082994	0.120929	0.085889	0.057539	0.171621	0.143886	0.035827	0.058482	0.077330	0.081929	0.017721	0.172033	0.077622	0.038301	0.125718	0.112959	0.103574	0.062409	0.138754	0.198937	0.198272	0.000778	0.013115	0.058680	0.119921	0.017406	0.009749	0.003670	0.011137	0.031054	0.085522	0.085594	0.029048	0.082371	0.082199	0.036806	0.010453	0.063995	0.030550	0.097463	0.090085	0.086018	0.103383	0.144366	0.345067	0.141565	0.089870	0.036451	0.017351	0.008674	0.011118	0.106451	0.106373	0.014059	0.072901	0.073494	0.009490	0.014293	0.002235	0.041564	0.059881	0.042359	0.025284	0.099894	0.141840	0.013338	0.125341	0.212339	0.172229	0.020386	0.066098	0.202424	0.066384	0.149045	0.169555	0.027060	0.071801	0.147905	0.061190	0.084463	0.042964	0.010598	0.054933	0.096792	0.130154	0.031422	0.025936	0.006441	0.049001	0.038686	0.070934	0.071761	0.041554	0.031971	0.004117	0.043586	0.021122	0.023871	0.046856	0.009673	0.088556	0.067460	0.049979	0.032879	0.202917	0.257258	0.076676	0.011755	0.059904	0.080184	0.054351	0.103637	0.085612	0.090848	0.061908	0.000764	0.038339	0.025451	0.116304	0.026894	0.031281	0.007711	0.023817	0.106573	0.078945	0.065156	0.093060	0.084509	0.001860	0.083298	0.174871	0.154549	0.070023	0.088198	0.151143	0.195998	0.070171	0.078616	0.035969	0.061131	0.200301	0.031329	0.191656	0.212884	0.115451	0.021153	0.037231	0.039565	0.052208	0.035278	0.064622	0.087047	0.075401	0.021888	0.005119	0.039700	0.070155	0.031189	0.032692	0.009228	0.007212	0.056109	0.024276	0.072213	0.059340	0.137653	0.262795	0.083670	0.048251	0.014845	0.123823	0.048479	0.070363	0.024388	0.039248	0.006632	0.050801	0.120131	0.100836	0.018510	0.104003	0.151821	0.101069	0.059442	0.119169	0.034169	0.189067	0.069030	0.008988	0.087298	0.064096	0.080300	0.082790	0.013979	0.064391	0.096638	0.006821	0.047962	0.087501	0.165282	0.031304	0.205307	0.149729	0.034557	0.207854	0.162280	0.052128	0.179980	0.217821	0.062424	0.036638	0.073692	0.092842	0.116028	0.091815	0.168369	0.060362	0.209162	0.212699	0.145019	0.057254	0.055880	0.111965	0.093521	0.112061	0.104366	0.213922	0.121275	0.265110	0.307945	0.172565	0.015956	0.193176	0.023654	0.004331	0.082979	0.144667	0.032578	0.044654	0.027306	0.052330	0.011393	0.042386	0.068422	0.037149	0.006437	0.004881	0.042164	0.030523	0.017376	0.003500	0.067509	0.033143	0.065954	0.008332	0.000032	0.133627	0.037658	0.084256	0.165580	0.057117	0.027965	0.134652	0.177619	0.141876	0.046234	0.163426	0.130981	0.066372	0.160811	0.173843	0.095871	0.165747	0.026455	0.167943	0.097264	0.036648	0.059621	0.094179	0.006977	0.018578	0.095186	0.046977	0.009003	0.142993	0.082023	0.012370	0.067870	0.180782	0.270954	0.125258	0.013439	0.052779	0.028464	0.112699	0.011625	0.040796	0.027787	0.026437	0.056998	0.126833	0.137747	0.065023	0.054420	0.105773	0.150936	0.125641	0.042928	0.024480	0.021713	0.080200	0.024349	0.005399	0.071600	0.158616	0.092214	0.063176	0.077190	0.092472	0.115762	0.032751	0.076805	0.091431	0.077414	0.100631	0.131521	0.019720	0.067844	0.076798	0.060689	0.015630	0.016290	0.066400	0.113308	0.110262	0.116283	0.086497	0.073903	0.197494	0.112046	0.033323	0.015003	0.091191	0.097044	0.092041	0.000416	0.151359	0.051686	0.043433	0.047609	0.202497	0.177600	0.060827	0.160522	0.150606	0.058808	0.084790	0.005262	0.187943	0.114393	0.025413	0.034559	0.113454	0.063517	0.124955	0.010947	0.126923	0.102727	0.021728	0.034640	0.041289	0.051018	0.066538	0.013639	0.103710	0.044221	0.105823	0.050739	0.098156	0.059025	0.171788	0.104192	0.013495	0.037448	0.019357	0.136757	0.040883	0.083143	0.009118	0.148403	0.057231	0.064144	0.096781	0.003264	0.127634	0.111950	0.013334	0.067285	0.104687	0.035630	0.052783	0.022249	0.027369	0.127020	0.057529	0.059005	0.009240	0.064916	0.090541	0.131439	0.076586	0.053525	0.014805	0.188942	0.136886	0.085657	0.008715	0.092353	0.017015	0.028892	0.118185	0.243625	0.178440	0.002952	0.263824	0.251167	0.087313	0.023808	0.028004	0.117852	0.170339	0.126785	0.017713	0.028127	0.059858	0.064992	0.028195	0.019766	0.031156	0.115884	0.154989	0.006962	0.123459	0.094952	0.027207	0.004745	0.059793	0.152251	0.033106	0.022528	0.115063	0.045043	0.031949	0.010306	0.100470	0.044331	0.020789	0.009583	0.083908	0.132837	0.102746	0.010077	0.025164	0.176269	0.186538	0.038727	0.066708	0.230250	0.098606	0.088039	0.059866	0.058958	0.094360	0.037652	0.062062	0.004559	0.018897	0.043423	0.132762	0.103191	0.163219	0.027784	0.166482	0.177736	0.129339	0.050608	0.264850	0.160697	0.081721	0.056530	0.091739	0.062097	0.018865	0.038553	0.087751	0.096039	0.066800	0.000889	0.100519	0.109850	0.022269	0.009636	0.015474	0.019321	0.032659	0.013848	0.014843	0.053962	0.022433	0.160337	0.092503	0.061402	0.235553	0.294589	0.168321	0.128095	0.123469	0.097964	0.139336	0.076386	0.082931	0.145040	0.055117	0.021591	0.082501	0.058195	0.019020	0.064249	0.059050	0.003261	0.053342	0.034898	0.009571	0.049527	0.040701	0.083352	0.077474	0.063482	0.090445	0.226217	0.051539	0.039083	0.042474	0.017486	0.000527	0.000772	0.139443	0.098292	0.209872	0.023429	0.002558	0.034352	0.035724	0.032836	0.045627	0.051008	0.040134	0.086087	0.093152	0.073843	0.030831	0.104488	0.126707	0.044890	0.251754	0.111513	0.018145	0.095262	0.147879	0.128852	0.043623	0.258209	0.147950	0.150794	0.013730	0.154318	0.154181	0.007440	0.206790	0.203946	0.125257	0.039374	0.069401	0.329927	0.244569	0.044238	0.174391	0.083928	0.045308	0.066052	0.058469	0.097048	0.012022	0.014636	0.113932	0.088625	0.037874	0.029352	0.022499	0.031984	0.100046	0.016655	0.054407	0.032858	0.058857	0.006927	0.006033	0.070061	0.184053	0.150301	0.039895	0.153814	0.110465	0.119191	0.022822	0.125769	0.233090	0.162705	0.145481	0.072569	0.072225	0.093196	0.111636	0.145224	0.054554	0.080368	0.081502	0.105897	0.044504	0.028736	0.076653	0.146766	0.230469	0.128603	0.162694	0.530863	0.229335	0.106343	0.041457	0.159557	0.073575	0.005025	0.039139	0.038259	0.022786	0.097660	0.167798	0.040079	0.005618	0.001417	0.141952	0.238962	0.103303	0.318567	0.253385	0.070216	0.067238	0.025483	0.189872	0.220962	0.011454	0.126190	0.005272	0.053551	0.060872	0.141227	0.084145	0.032004	0.023482	0.146772	0.128022	0.107596	0.024460	0.099632	0.144331	0.114851	0.076380	0.124924	0.127725	0.211978	0.192218	0.050278	0.168676	0.062080	0.072902	0.045628	0.093622	0.150235	0.099959	0.014200	0.013251	0.055197	0.187076	0.203439	0.124957	0.002803	0.279409	0.150535	0.000062	0.041810	0.022948	0.116675	0.072576	0.119871	0.162574	0.009987	0.079944	0.157625	0.074325	0.090329	0.351327	0.160867	0.009639	0.086926	0.068742	0.108922	0.151005	0.138692	0.146329	0.070368	0.092840	0.170308	0.158461	0.020286	0.187251	0.361076	0.280331	0.302982	0.453185	0.382811	0.006984	0.071676	0.120578	0.064131	0.044623	0.006661	0.257861	0.084574	0.179074	0.131865	0.014397	0.009165	0.050085	0.050473	0.129567	0.136059	0.130402	0.055639	0.035515	0.023433	0.051260	0.129131	0.204638	0.048158	0.038835	0.123505	0.043940	0.220906	0.016513	0.057479	0.202427	0.155868	0.106682	0.165449	0.111030	0.057993	0.022442	0.099639	0.056201	0.064565	0.040007	0.041128	0.016873	0.005037	0.017294	0.032453	0.039128	0.037452	0.054908	0.016991	0.171751	0.061260	0.251561	0.210095	0.001666	0.291036	0.140441	0.135118	0.359528	0.186199	0.097764	0.176362	0.114294	0.173226	0.171129	0.029808	0.107888	0.100706	0.095295	0.068071	0.078541	0.018348	0.016084	0.099262	0.062136	0.100218	0.066016	0.012676	0.083614	0.007332	0.026650	0.076364	0.029607	0.058072	0.033465	0.166880	0.071501	0.081572	0.187473	0.300447	0.207510	0.062741	0.138106	0.184594	0.173939	0.038582	0.094314	0.120885	0.053242	0.070060	0.140264	0.073091	0.022534	0.071722	0.018783	0.031908	0.013690	0.008096	0.010654	0.099720	0.076477	0.020111	0.072281	0.057907	0.041891	0.006345	0.039140	0.075015	0.114167	0.041726	0.120419	0.156487	0.064286	0.071241	0.000831	0.050623	0.071023	0.128348	0.259843	0.045370	0.084024	0.068774	0.073697	0.012928	0.057267	0.066425	0.111020	0.071606	0.073650	0.083406	0.069630	0.011750	0.019921	0.005376	0.056284	0.116533	0.006616	0.161307	0.026293	0.231423	0.253351	0.077168	0.153264	0.255450	0.026478	0.195916	0.289686	0.033368	0.248396	0.279143	0.013485	0.272573	0.197046	0.021564	0.126042	0.069874	0.109140	0.015776	0.047523	0.028866	0.019692	0.039930	0.059238	0.073960	0.108604	0.058161	0.101368	0.029209	0.112553	0.084799	0.052389	0.126446	0.098529	0.193226	0.192655	0.228294	0.060658	0.254802	0.190945	0.051003	0.233231	0.255002	0.113969	0.126195	0.020885	0.042049	0.129696	0.055468	0.026517	0.018903	0.041601	0.011330	0.032382	0.008966	0.006458	0.063002	0.096289	0.154903	0.167373	0.064046	0.158010	0.108977	0.055564	0.006549	0.149843	0.054238	0.034588	0.031905	0.141463	0.205002	0.092121	0.069492	0.088320	0.194017	0.037946	0.039039	0.126674	0.268874	0.073508	0.184223	0.157720	0.045621	0.085177	0.031904	0.081663	0.071557	0.131225	0.062242	0.108377	0.160893	0.159940	0.157098	0.016824	0.008816	0.110018	0.024650	0.095847	0.128156	0.064221	0.000447	0.025385	0.008316	0.085946	0.039394	0.030204	0.210078	0.122164	0.051528	0.006332	0.042216	0.062946	0.153607	0.151682	0.119224	0.154880	0.158426	0.183346	0.292774	0.208076	0.047359	0.231259	0.226909	0.000456	0.040799	0.009858	0.048263	0.313809	0.166001	0.089127	0.119519	0.067254	0.008132	0.000143	0.031633	0.058159	0.004144	0.045899	0.098755	0.119075	0.040558	0.039072	0.000464	0.012088	0.091946	0.203585	0.356066	0.048871	0.343632	0.447959	0.314487	0.032145	0.143881	0.223252	0.194021	0.127875	0.350791	0.137750	0.200173	0.200138	0.014957	0.114501	0.040206	0.053811	0.114425	0.082403	0.081028	0.112595	0.113422	0.020182	0.021020	0.011042	0.065442	0.233215	0.165372	0.068915	0.364309	0.404342	0.369514	0.294031	0.025463	0.120143	0.189276	0.186026	0.228316	0.193577	0.109008	0.222667	0.469973	0.204454	0.102842	0.159335	0.176094	0.015788	0.087825	0.044742	0.053002	0.090848	0.093343	0.001700	0.060720	0.071920	0.078016	0.281426	0.124479	0.181762	0.226752	0.082201	0.260069	0.062959	0.220941	0.599621	0.390677	0.022021	0.214737	0.054007	0.093540	0.103332	0.174134	0.083308	0.095653	0.072179	0.008323	0.048071	0.069565	0.018133	0.100133	0.040997	0.004401	0.012791	0.069526	0.171753	0.079093	0.097882	0.073370	0.010600	0.031444	0.134150	0.152324	0.186501	0.270339	0.195697	0.109743	0.121300	0.185188	0.160507	0.032209	0.133512	0.127070	0.102991	0.105504	0.039567	0.072491	0.094660	0.036833	0.031304	0.076160	0.086115	0.202937	0.007276	0.022724	0.020758	0.174545	0.058201	0.264480	0.398117	0.162887	0.039241	0.133169	0.058151	0.069123	0.005216	0.075164	0.083652	0.149029	0.073199	0.022729	0.065346	0.066201	0.208517	0.095093	0.228393	0.150825	0.109573	0.093450	0.053178	0.062579	0.010316	0.046853	0.025923	0.052967	0.015147	0.025064	0.043783	0.195715	0.264534	0.061787	0.183641	0.174281	0.091808	0.078401	0.179922	0.094207	0.095995	0.191308	0.207210	0.142862	0.096478	0.061785	0.017691	0.049166	0.003762	0.054605	0.064906	0.148545	0.013334	0.028741	0.109789	0.095646	0.188983	0.035758	0.128627	0.119938	0.035050	0.080371	0.193069	0.258405	0.036866	0.183678	0.203377	0.118353	0.230368	0.181522	0.005542	0.156557	0.045446	0.072584	0.131402	0.006138	0.127547	0.302480	0.418341	0.372640	0.018524	0.507974	0.630291	0.310165	0.059263	0.148781	0.300615	0.131747	0.061789	0.029189	0.002807	0.030901	0.068409	0.005552	0.050512	0.066272	0.072530	0.025156	0.019840	0.155637	0.260366	0.118792	0.045221	0.056580	0.179890	0.343862	0.297833	0.025418	0.022462	0.154963	0.053284	0.164738	0.048564	0.063698	0.095673	0.023867	0.069861	0.229551	0.199027	0.210409	0.159679	0.109660	0.520655	0.279034	0.084736	0.031609	0.123138	0.227764	0.066226	0.058138	0.024241	0.033176	0.295643	0.142409	0.015210	0.088216	0.101971	0.142477	0.274181	0.214522	0.153668	0.160354	0.207491	0.038170	0.033915	0.282252	0.069102	0.046944	0.120236	0.069336	0.195118	0.166627	0.123191	0.085504	0.111425	0.016423	0.028715	0.039929	0.006418	0.046249	0.078710	0.121352	0.135089	0.047951	0.027828	0.021457	0.112511	0.115077	0.013499	0.194805	0.294630	0.128582	0.077294	0.188901	0.179129	0.174402	0.010180	0.316607	0.345369	0.265929	0.091718	0.067995	0.101044	0.086391	0.107338	0.111525	0.108464	0.056933	0.031756	0.004193	0.004924	0.032604	0.023305	0.038090	0.002282	0.055441	0.065477	0.046396	0.011157	0.018310	0.018954	0.080575	0.004262	0.004822	0.066269	0.022889	0.046090	0.045352	0.041349	0.091223	0.086831	0.006579	0.010348	0.034074	0.043656	0.059459	0.011097	0.007384	0.036393	0.014662	0.009434	0.027801	0.002532	0.006824	0.013432	0.022014	0.021838	0.001947	0.018183	0.001503	0.012727	0.011358	0.014942	0.014664	0.002389	0.009990	0.008818	0.007372	0.003296	0.028354	0.010935	0.004709	0.043527	0.107451	0.064724	0.088372	0.137224	0.103128	0.035634	0.031094	0.019728	0.004038	0.010771	0.021346	0.059413	0.086794	0.049101	0.051577	0.074145	0.050997	0.001314	0.002705	0.018192	0.023427	0.027134	0.024390	0.001927	0.004552	0.022679	0.010417	0.007951	0.005635	0.007137	0.002148	0.016083	0.043725	0.009224	0.001832	0.013578	0.005883	0.019310	0.008018	0.036644	0.033946	0.003460	0.048264	0.010775	0.048705	0.050611	0.046104	0.008580	0.148360	0.066039	0.029953	0.029876	0.059226	0.029738	0.128003	0.111563	0.013179	0.037499	0.054879	0.059566	0.050736	0.025139	0.010698	0.012260	0.019537	0.015880	0.001953	0.007514	0.005012	0.018628	0.008214	0.034446	0.037852	0.006712	0.013235	0.032738	0.040120	0.027067	0.009964	0.034602	0.010598	0.011983	0.033402	0.004447	0.024163	0.016277	0.032509	0.012274	0.041938	0.055712	0.013950	0.032226	0.024533	0.017569	0.013402	0.020121	0.013911	0.098833	0.066653	0.021065	0.006758	0.019304	0.020536	0.026268	0.031253	0.015525	0.029613	0.011867	0.030300	0.020622	0.004905	0.014555	0.029982	0.019262	0.011635	0.014587	0.029009	0.019124	0.026353	0.034007	0.021027	0.017981	0.011980	0.049689	0.050903	0.018717	0.056251	0.061237	0.042237	0.014341	0.037806	0.019971	0.005266	0.001241	0.029215	0.004879	0.004497	0.007374	0.026385	0.036039	0.017773	0.029959	0.000768	0.053129	0.038459	0.000452	0.019226	0.013171	0.061362	0.086345	0.022186	0.068923	0.158895	0.076528	0.003470	0.002672	0.024747	0.067568	0.049935	0.024508	0.011129	0.001871	0.017145	0.025385	0.030672	0.042752	0.015034	0.018146	0.012838	0.013916	0.009576	0.003379	0.019345	0.004162	0.028078	0.018767	0.015698	0.048055	0.034946	0.021809	0.008639	0.005273	0.017444	0.009889	0.019507	0.031842	0.012139	0.035374	0.017233	0.001671	0.019506	0.017015	0.062921	0.066348	0.017860	0.091339	0.080615	0.016908	0.010547	0.016896	0.018371	0.019070	0.016360	0.024258	0.046236	0.037585	0.006779	0.041345	0.049793	0.029529	0.028668	0.026083	0.004602	0.023443	0.015991	0.024531	0.025339	0.019301	0.019663	0.031804	0.015440	0.019584	0.020093	0.009138	0.006908	0.001824	0.019652	0.000801	0.001853	0.010282	0.018125	0.023956	0.058574	0.020991	0.014582	0.029704	0.036797	0.051247	0.091030	0.055111	0.008264	0.004030	0.026232	0.020377	0.030292	0.036483	0.035315	0.028046	0.007016	0.001898	0.006085	0.001374	0.009399	0.004187	0.002239	0.010707	0.069432	0.020697	0.079357	0.086195	0.007421	0.017533	0.006902	0.010047	0.011957	0.000438	0.043880	0.012721	0.010085	0.014822	0.024747	0.015168	0.014701	0.054744	0.050970	0.019189	0.038317	0.088985	0.054339	0.034359	0.030708	0.057350	0.069653	0.027867	0.046930	0.075059	0.018261	0.002278	0.020432	0.010410	0.022837	0.022451	0.007966	0.012665	0.020743	0.003449	0.000721	0.004790	0.007267	0.004314	0.005799	0.001447	0.005879	0.007980	0.000237	0.028200	0.008142	0.005508	0.053316	0.032943	0.003806	0.017714	0.022472	0.005917	0.006281	0.026962	0.041601	0.061273	0.023010	0.085358	0.099181	0.083453	0.020748	0.006119	0.013843	0.025843	0.037689	0.021761	0.008795	0.007067	0.003729	0.002890	0.001981	0.005458	0.003193	0.001557	0.001921	0.004738	0.005387	0.001459	0.004438	0.006801	0.012829	0.015365	0.013976	0.007581	0.008343	0.061620	0.035209	0.051390	0.120434	0.075633	0.007727	0.031412	0.020894	0.016205	0.017469	0.048389	0.048862	0.007417	0.029853	0.033446	0.037638	0.018430	0.020045	0.004556	0.013456	0.002360	0.012051	0.008333	0.001482	0.010587	0.010505	0.008209	0.002886	0.008763	0.006402	0.027820	0.047474	0.042597	0.047470	0.120341	0.059628	0.013844	0.042477	0.024127	0.002208	0.022310	0.019000	0.006021	0.035315	0.035677	0.007055	0.013965	0.008752	0.001194	0.020119	0.007613	0.012099	0.008416	0.013316	0.041364	0.037596	0.009610	0.036718	0.039415	0.028340	0.011978	0.002605	0.008841	0.006732	0.003386	0.004961	0.000895	0.012218	0.000560	0.001626	0.007277	0.005868	0.017742	0.024939	0.017358	0.032025	0.030234	0.014312	0.014399	0.002372	0.006390	0.005596	0.004493	0.008180	0.025662	0.058349	0.050251	0.029780	0.089230	0.067390	0.022017	0.019249	0.046831	0.055248	0.007421	0.065785	0.052472	0.010402	0.022275	0.023035	0.009661	0.013487	0.017370	0.010253	0.017808	0.035392	0.020091	0.008627	0.048531	0.028327	0.009812	0.010848	0.004983	0.007235	0.001459	0.016569	0.004222	0.039071	0.043109	0.018856	0.078117	0.064764	0.002560	0.031731	0.034563	0.018663	0.020229	0.017603	0.001681	0.009069	0.008800	0.018472	0.039364	0.063021	0.046077	0.074289	0.102033	0.080683	0.009955	0.009234	0.028066	0.024632	0.018705	0.005601	0.006161	0.002393	0.006876	0.012582	0.006384	0.020212	0.042980	0.053524	0.052042	0.061009	0.132817	0.050731	0.015644	0.016115	0.024274	0.044016	0.084504	0.038367	0.028915	0.138943	0.137985	0.049559	0.018543	0.036299	0.054875	0.082281	0.087119	0.039930	0.055104	0.053059	0.005650	0.035143	0.069376	0.007879	0.015658	0.080966	0.030135	0.068275	0.011286	0.002677	0.048960	0.076441	0.038792	0.160609	0.045169	0.093141	0.063823	0.056812	0.169382	0.116412	0.066042	0.128296	0.269434	0.175214	0.091590	0.176445	0.024695	0.018590	0.054657	0.007672	0.128080	0.151270	0.072088	0.103147	0.135536	0.130000	0.001884	0.086088	0.062231	0.087504	0.068277	0.167528	0.126887	0.112320	0.255337	0.208825	0.133178	0.034428	0.014312	0.059410	0.057618	0.055943	0.039606	0.094464	0.070724	0.082053	0.042705	0.022050	0.030239	0.089740	0.082518	0.149868	0.014142	0.055053	0.034712	0.075240	0.055461	0.115312	0.139564	0.095527	0.140046	0.230104	0.016130	0.143499	0.136792	0.015435	0.149209	0.133852	0.091550	0.081005	0.038639	0.101948	0.132320	0.060196	0.075918	0.040650	0.101357	0.084147	0.101432	0.118944	0.036255	0.103508	0.175460	0.138334	0.083471	0.006314	0.081365	0.133441	0.233662	0.154181	0.033820	0.076917	0.197649	0.088995	0.035972	0.036853	0.051491	0.020818	0.029066	0.109524	0.093024	0.039202	0.008046	0.056668	0.123221	0.039247	0.026213	0.175324	0.131233	0.160561	0.205513	0.078641	0.039841	0.025666	0.071115	0.056173	0.013708	0.048561	0.026548	0.098914	0.172202	0.214896	0.025175	0.259823	0.270916	0.242749	0.069196	0.008465	0.086496	0.075745	0.156597	0.168446	0.212471	0.037570	0.259719	0.189653	0.046609	0.024866	0.046335	0.027116	0.000707	0.053757	0.086881	0.048529	0.025684	0.019071	0.010188	0.017180	0.013060	0.029408	0.023622	0.006257	0.081114	0.032309	0.008673	0.012524	0.026793	0.045564	0.042005	0.066129	0.007717	0.004979	0.004782	0.010880	0.037197	0.029870	0.069773	0.037520	0.008623	0.004804	0.021976	0.013208	0.009777	0.018925	0.013839	0.005854	0.003724	0.013933	0.022501	0.068083	0.090272	0.078542	0.100910	0.023718	0.039149	0.017599	0.043313	0.021246	0.045024	0.022590	0.013283	0.046382	0.000025	0.007013	0.030766	0.013490	0.015556	0.013768	0.015975	0.015655	0.004230	0.008687	0.001734	0.001233	0.003714	0.007950	0.005269	0.002603	0.001989	0.002406	0.000014	0.001205	0.003401	0.001669	0.003142	0.006517	0.005560	0.009274	0.012967	0.009131	0.013685	0.006447	0.000663	0.010235	0.004391	0.013261	0.010784	0.013328	0.003383	0.024434	0.005695	0.000007	0.005542	0.008559	0.017890	0.003893	0.025071	0.013114	0.009730	0.001561	0.011846	0.006394	0.003052	0.001618	0.010275	0.009380	0.000454	0.001352	0.004960	0.007350	0.001299	0.007512	0.003844	0.003277	0.012333	0.011702	0.005645	0.007920	0.000843	0.004131	0.003976	0.002912	0.016978	0.001360	0.015142	0.004821	0.006369	0.007855	0.008348	0.034662	0.001971	0.014158	0.016648	0.000520	0.004065	0.019455	0.019924	0.022973	0.005245	0.006045	0.021009	0.010132	0.009620	0.000500	0.003869	0.007274	0.006591	0.004604	0.003818	0.006637	0.004214	0.010217	0.004999	0.004411	0.005516	0.006251	0.003718	0.014658	0.000170	0.002278	0.005243	0.006902	0.000048	0.000658	0.000811	0.009691	0.003384	0.001173	0.000188	0.001025	0.006389	0.033775	0.008522	0.007925	0.008725	0.005018	0.015577	0.007389	0.004914	0.008724	0.002293	0.005086	0.002233	0.003031	0.001805	0.000158	0.002119	0.011028	0.002673	0.000454	0.001371	0.005460	0.003816	0.003505	0.002846	0.024102	0.000092	0.020609	0.004791	0.001632	0.003343	0.003820	0.002561	0.000959	0.008504	0.003215	0.006461	0.007610	0.004013	0.003953	0.003250	0.002384	0.002461	0.001232	0.034223	0.000659	0.016834	0.010559	0.001683	0.001966	0.005354	0.000375	0.002110	0.003664	0.004576	0.000705	0.009656	0.005041	0.006528	0.002179	0.003443	0.006000	0.004367	0.000637	0.002541	0.002270	0.002121	0.001093	0.001136	0.002129	0.004327	0.001766	0.004936	0.003040	0.007128	0.001171	0.002604	0.007798	0.008400	0.006239	0.001066	0.001365	0.000035	0.001274	0.000495	0.002888	0.000205	0.002329	0.000870	0.002441	0.003038	0.004795	0.000018	0.000628	0.000359	0.000345	0.003690	0.003998	0.008243	0.001251	0.009783	0.002157	0.005645	0.006091	0.003857	0.004454	0.003619	0.001664	0.000479	0.001597	0.002053	0.010879	0.010632	0.004253	0.004851	0.010274	0.012608	0.011102	0.000585	0.003692	0.000681	0.000056	0.007267	0.002961	0.002116	0.000611	0.002257	0.000151	0.002584	0.004129	0.005231	0.000238	0.004598	0.002348	0.000822	0.003243	0.002086	0.002229	0.001632	0.002341	0.004237	0.016807	0.011634	0.023718	0.029169	0.010069	0.010096	0.002544	0.003161	0.000312	0.001277	0.005685	0.002623	0.000932	0.003275	0.000365	0.000246	0.003141	0.003593	0.000474	0.000427	0.002331	0.004681	0.006995	0.000777	0.005858	0.001091	0.000938	0.008280	0.005550	0.004480	0.005890	0.003737	0.000217	0.000122	0.000847	0.005441	0.000877	0.001408	0.001008	0.000399	0.003734	0.004549	0.004905	0.008817	0.008617	0.001087	0.001581	0.000931	0.002583	0.000464	0.002301	0.001783	0.000162	0.001843	0.003940	0.003198	0.007999	0.004428	0.002613	0.000607	0.004382	0.000751	0.001303	0.001249	0.001154	0.002815	0.007206	0.001121	0.002203	0.003056	0.000210	0.001971	0.003672	0.000280	0.003309	0.001114	0.001257	0.002901	0.000959	0.002477	0.002249	0.001353	0.001394	0.002288	0.003974	0.001800	0.003972	0.005048	0.003068	0.003988	0.004881	0.000050	0.002412	0.005711	0.002360	0.002867	0.002303	0.005138	0.000081	0.000989	0.002867	0.001831	0.002288	0.000293	0.001411	0.004145	0.012390	0.003682	0.004009	0.003835	0.003862	0.001497	0.001475	0.001083	0.000881	0.001809	0.000933	0.000306	0.003005	0.003231	0.001398	0.001970	0.002172	0.001421	0.004452	0.001679	0.003299	0.005763	0.004139	0.003451	0.001904	0.000821	0.003693	0.002850	0.008840	0.005142	0.003797	0.000881	0.001605	0.000488	0.005126	0.002324	0.000426	0.000628	0.005159	0.004194	0.002116	0.002745	0.003191	0.002249	0.000305	0.000399	0.002884	0.002531	0.003697	0.001780	0.001220	0.001374	0.001146	0.003012	0.004564	0.002380	0.003027	0.006133	0.003580	0.008003	0.002244	0.004694	0.002556	0.003342	0.001004	0.002242	0.002462	0.001798	0.005482	0.001372	0.004216	0.002203	0.000528	0.004497	0.003620	0.001447	0.003876	0.005470	0.006036	0.008364	0.001280	0.002702	0.002735	0.003283	0.001014	0.000172	0.000070	0.000455	0.002167	0.002562	0.000902	0.001308	0.000828	0.002564	0.000886	0.002945	0.003397	0.001083	0.001868	0.001944	0.000319	0.002794	0.000377	0.000998	0.004747	0.001184	0.000188	0.002810	0.001823	0.000784	0.000240	0.000903	0.004303	0.006580	0.005538	0.000191	0.009474	0.003919	0.002836	0.001036	0.001656	0.005940	0.002545	0.005987	0.002496	0.003026	0.004588	0.004734	0.003159	0.000579	0.002993	0.002357	0.002179	0.000226	0.002238	0.001757	0.003121	0.002709	0.003381	0.000595	0.000244	0.001687	0.006140	0.005649	0.001123	0.001259	0.005720	0.001527	0.000788	0.001592	0.003044	0.001985	0.000518	0.003565	0.002877	0.003049	0.000141	0.003875	0.006612	0.001310	0.001990	0.004804	0.003897	0.002410	0.001831	0.001144	0.001315	0.004786	0.001729	0.001849	0.007889	0.000199	0.000270	0.002888	0.000473	0.000277	0.011630	0.008119	0.001360	0.016035	0.001099	0.000374	0.001750	0.000477	0.001982	0.002406	0.003875	0.000972	0.001342	0.000178	0.000652	0.003730	0.000109	0.000562	0.000935	0.002277	0.000267	0.002288	0.000638	0.002962	0.000361	0.004342	0.000969	0.002796	0.000861	0.001358	0.004134	0.006917	0.003523	0.000497	0.000438	0.000414	0.004320	0.001203	0.000397	0.000269	0.003113	0.000363	0.000442	0.001566	0.002165	0.002523	0.000263	0.000233	0.000247	0.002002	0.000072	0.000195	0.007591	0.001441	0.000710	0.000159	0.000517	0.003704	0.005391	0.003483	0.001182	0.002266	0.001194	0.000351	0.000139	0.002200	0.005761	0.008061	0.001533	0.000811	0.001424	0.006831	0.002296	0.002182	0.001302	0.002688	0.001762	0.000438	0.001446	0.001381	0.000493	0.002056	0.002742	0.002319	0.000513	0.000864	0.008768	0.001972	0.000060	0.001321	0.002038	0.002097	0.000988	0.010339	0.000490	0.003098	0.000128	0.003492	0.003289	0.002537	0.003442	0.004931	0.000102	0.004182	0.000491	0.000057	0.000488	0.001756	0.002402	0.000694	0.000554	0.001897	0.002570	0.003912	0.004650	0.005671	0.000542	0.000109	0.002613	0.000924	0.000179	0.002238	0.000024	0.003622	0.001232	0.001248	0.004941	0.002886	0.002049	0.000899	0.001968	0.003634	0.002737	0.001839	0.000347	0.005001	0.000038	0.001108	0.001078	0.001387	0.002485	0.000161	0.005078	0.003007	0.005300	0.000032	0.003267	0.002698	0.003384	0.002331	0.005962	0.005801	0.000804	0.000590	0.001820	0.001356	0.001982	0.002855	0.002831	0.000512	0.001146	0.003805	0.002508	0.001693	0.000862	0.000343	0.000558	0.003992	0.003416	0.001535	0.000780	0.002835	0.003355	0.003165	0.002171	0.000308	0.004848	0.003590	0.009350	0.002205	0.000555	0.004142	0.003051	0.003180	0.002983	0.002679	0.000252	0.003983	0.004045	0.003827	0.001934	0.002226	0.000039	0.003289	0.002713	0.002618	0.001096	0.001772	0.007927	0.009127	0.001634	0.001674	0.005210	0.000226	0.003318	0.005618	0.003422	0.000205	0.001389	0.000906	0.001242	0.003922	0.002150	0.000592	0.001904	0.000430	0.000393	0.001105	0.001815	0.002302	0.006567	0.000282	0.000522	0.009758	0.003385	0.009930	0.000901	0.004807	0.005167	0.001747	0.004948	0.000357	0.000948	0.001198	0.002393	0.005218	0.001552	0.006669	0.005668	0.001605	0.007031	0.002701	0.001504	0.003585	0.000441	0.000359	0.001283	0.003797	0.002331	0.002954	0.006209	0.004411	0.001360	0.002275	0.002789	0.005333	0.006602	0.005915	0.000770	0.002455	0.003639	0.002895	0.001566	0.004466	0.002225	0.000592	0.000974	0.003760	0.000024	0.002532	0.000739	0.000543	0.008813	0.012939	0.010544	0.001935	0.005797	0.009417	0.006069	0.001133	0.020889	0.072530	0.046363	0.007031	0.075241	0.052414	0.034380	0.015373	0.104893	0.095270	0.063544	0.012200	0.053787	0.058731	0.041127	0.012895	0.025565	0.016930	0.039021	0.038535	0.003949	0.032763	0.041835	0.020385	0.062080	0.046418	0.055196	0.016782	0.040682	0.033072	0.045920	0.014904	0.055847	0.125467	0.086105	0.041133	0.172715	0.134812	0.073757	0.082619	0.010945	0.068389	0.064258	0.058174	0.033975	0.005119	0.028974	0.039572	0.022750	0.025212	0.047699	0.008971	0.010273	0.020729	0.024992	0.043752	0.031528	0.032562	0.024531	0.090409	0.044455	0.049217	0.031941	0.127608	0.142759	0.069838	0.008491	0.062708	0.090909	0.053332	0.053479	0.040602	0.008693	0.036966	0.024343	0.017187	0.026600	0.024910	0.047362	0.008091	0.093039	0.088590	0.062490	0.151183	0.106044	0.055168	0.065423	0.039200	0.049236	0.028896	0.042417	0.029160	0.050854	0.006869	0.077352	0.128832	0.075071	0.043665	0.015141	0.004508	0.021400	0.055308	0.059696	0.017536	0.009998	0.039376	0.107626	0.074848	0.047167	0.055701	0.052497	0.010702	0.034868	0.094655	0.137093	0.139772	0.126234	0.047284	0.044396	0.066856	0.071231	0.019258	0.028341	0.038019	0.096826	0.088372	0.012714	0.045875	0.050133	0.053688	0.005092	0.077022	0.035462	0.002477	0.096633	0.109199	0.013138	0.003234	0.006269	0.014082	0.072985	0.059674	0.093441	0.017651	0.048492	0.049578	0.056992	0.054518	0.002101	0.072386	0.061381	0.009331	0.016780	0.120148	0.112268	0.065307	0.108231	0.046609	0.066646	0.036199	0.031842	0.019764	0.029645	0.105456	0.010066	0.164427	0.159166	0.017020	0.145674	0.154297	0.028496	0.035939	0.063768	0.043281	0.021601	0.073624	0.016619	0.050633	0.037781	0.017913	0.032020	0.131108	0.037944	0.114664	0.012838	0.058271	0.020024	0.022666	0.013304	0.003309	0.015059	0.086202	0.185670	0.020893	0.139263	0.162423	0.195973	0.135625	0.126688	0.102109	0.015052	0.188390	0.174306	0.029733	0.038105	0.123944	0.117156	0.002223	0.030033	0.080845	0.022324	0.013393	0.052001	0.071686	0.031497	0.051506	0.126744	0.064374	0.037338	0.005146	0.075327	0.020219	0.031497	0.208910	0.059208	0.244111	0.159056	0.035448	0.104990	0.018347	0.133771	0.107184	0.001556	0.083827	0.028779	0.058755	0.023163	0.033406	0.093540	0.055055	0.062823	0.109791	0.029400	0.161558	0.135016	0.046758	0.001403	0.049413	0.050010	0.129729	0.103971	0.117254	0.015368	0.171393	0.233094	0.198242	0.016843	0.124227	0.166621	0.067337	0.128642	0.000225	0.136233	0.084189	0.030215	0.118676	0.074740	0.034971	0.059870	0.112129	0.177994	0.084770	0.070086	0.140371	0.127920	0.017669	0.032731	0.197050	0.215355	0.129044	0.204737	0.218777	0.021190	0.000175	0.032177	0.113235	0.087417	0.034244	0.057420	0.053947	0.022416	0.167944	0.140635	0.006941	0.151242	0.104209	0.009276	0.036452	0.052135	0.108667	0.226599	0.081712	0.113392	0.282010	0.247891	0.061192	0.263250	0.106211	0.029455	0.002301	0.021696	0.011442	0.043591	0.049328	0.026817	0.089254	0.033304	0.012010	0.032859	0.080051	0.071681	0.001395	0.059720	0.103805	0.046550	0.113053	0.166391	0.074673	0.011857	0.175814	0.132302	0.053508	0.037284	0.099975	0.067310	0.008185	0.014412	0.113895	0.159039	0.063291	0.008710	0.024347	0.105072	0.131689	0.103221	0.047634	0.053951	0.056704	0.050965	0.140856	0.000960	0.170431	0.126107	0.070404	0.110612	0.088241	0.157798	0.108990	0.003183	0.115577	0.048840	0.015690	0.003708	0.039767	0.088436	0.045402	0.035289	0.113705	0.102242	0.130728	0.187513	0.304918	0.157133	0.055860	0.102564	0.100184	0.043783	0.049717	0.160286	0.073174	0.060708	0.141882	0.043011	0.000486	0.061207	0.073602	0.075410	0.110446	0.081746	0.105427	0.198422	0.204264	0.031209	0.171174	0.026564	0.024107	0.003228	0.000405	0.037205	0.035414	0.169619	0.262985	0.185893	0.163636	0.145248	0.154724	0.118423	0.118537	0.149126	0.032792	0.123896	0.077007	0.049830	0.165608	0.098959	0.083726	0.074279	0.037919	0.031415	0.065038	0.017880	0.069034	0.091506	0.021225	0.020489	0.120784	0.420901	0.214028	0.285882	0.616969	0.411001	0.076330	0.016338	0.126469	0.157490	0.163633	0.114152	0.167870	0.164655	0.056042	0.172286	0.156425	0.045583	0.096644	0.156397	0.015674	0.019242	0.277752	0.236922	0.018833	0.091340	0.034726	0.153923	0.028036	0.092726	0.148912	0.096053	0.158037	0.111073	0.082684	0.187925	0.193177	0.031843	0.046424	0.012759	0.124826	0.089152	0.205800	0.182627	0.263571	0.152074	0.042291	0.188514	0.112811	0.053946	0.029134	0.084707	0.026340	0.019043	0.003633	0.049457	0.222870	0.164329	0.059940	0.152218	0.338415	0.079069	0.365268	0.219363	0.031345	0.162387	0.043101	0.000246	0.176760	0.142794	0.203580	0.064734	0.013814	0.199291	0.205400	0.067565	0.075757	0.033609	0.039378	0.020974	0.087268	0.201405	0.214210	0.015653	0.187643	0.451928	0.012319	0.196462	0.167436	0.054763	0.314733	0.253964	0.016637	0.216270	0.239984	0.135224	0.081029	0.023600	0.009875	0.052462	0.001983	0.054073	0.028508	0.062486	0.001989	0.091187	0.113848	0.056199	0.050394	0.154332	0.078347	0.084793	0.189841	0.290241	0.014642	0.211636	0.047008	0.082676	0.138188	0.258712	0.048270	0.050805	0.121270	0.054682	0.085189	0.146508	0.069200	0.044218	0.037140	0.014397	0.270624	0.014005	0.115653	0.024342	0.177595	0.282513	0.065359	0.066794	0.080020	0.042449	0.075933	0.150277	0.090524	0.016521	0.027650	0.020583	0.036258	0.126730	0.052641	0.413763	0.368362	0.364003	0.475203	0.486480	0.179312	0.048477	0.081206	0.152510	0.126910	0.151567	0.192349	0.263685	0.175986	0.103050	0.185226	0.272669	0.242826	0.053976	0.031422	0.082438	0.106974	0.118144	0.115527	0.084958	0.014503	0.331253	0.307462	0.074381	0.074063	0.188350	0.394011	0.203057	0.222486	0.477707	0.249350	0.163572	0.010232	0.005302	0.104856	0.092222	0.139473	0.032316	0.045096	0.139844	0.078421	0.148358	0.217961	0.095500	0.024414	0.131763	0.055495	0.005628	0.077493	0.187260	0.077202	0.056123	0.003626	0.031833	0.034697	0.009043	0.010207	0.108058	0.059077	0.078137	0.009177	0.085617	0.033281	0.080439	0.043995	0.116327	0.081274	0.191445	0.246569	0.078945	0.328794	0.347132	0.204684	0.100587	0.073618	0.197864	0.325797	0.016491	0.262860	0.253911	0.035942	0.138382	0.101009	0.024276	0.117851	0.116908	0.088495	0.178984	0.281351	0.105429	0.052946	0.198635	0.142122	0.000380	0.111859	0.108010	0.069164	0.077328	0.058784	0.111152	0.153223	0.009730	0.076340	0.256479	0.182161	0.075410	0.189373	0.276951	0.242716	0.137111	0.069955	0.142013	0.109076	0.143646	0.197900	0.110730	0.081966	0.084102	0.282549	0.342119	0.170782	0.231730	0.235396	0.130642	0.126399	0.073051	0.148001	0.050217	0.092314	0.038915	0.004343	0.059396	0.085599	0.017140	0.051464	0.131316	0.111239	0.033481	0.009991	0.001527	0.035915	0.279114	0.044931	0.353488	0.354877	0.097262	0.146942	0.165431	0.181813	0.048600	0.285096	0.095359	0.150780	0.207097	0.144950	0.066323	0.053860	0.012078	0.035461	0.033030	0.120088	0.230978	0.004302	0.188266	0.238892	0.133740	0.008051	0.100192	0.145029	0.124400	0.044590	0.150044	0.006951	0.093525	0.009476	0.099499	0.207787	0.129296	0.085080	0.179241	0.097654	0.061816	0.157621	0.011404	0.067336	0.066711	0.140680	0.134244	0.045525	0.021234	0.021466	0.050168	0.176722	0.097989	0.215636	0.062804	0.332650	0.219733	0.138081	0.044973	0.025371	0.081637	0.027349	0.078419	0.050203	0.034970	0.091418	0.240716	0.107928	0.094183	0.194926	0.002410	0.069091	0.037668	0.080557	0.007414	0.136908	0.109109	0.073249	0.079043	0.053324	0.181319	0.046336	0.155349	0.244882	0.138227	0.053848	0.220648	0.340741	0.055607	0.386259	0.515302	0.163055	0.061237	0.090032	0.123387	0.146712	0.099921	0.072317	0.019935	0.054046	0.001844	0.144237	0.151348	0.046394	0.009863	0.070274	0.093622	0.154220	0.165027	0.105885	0.077555	0.144496	0.176955	0.090467	0.112137	0.014832	0.093701	0.015197	0.215023	0.255922	0.274977	0.079692	0.291120	0.112716	0.058150	0.110290	0.132906	0.129127	0.053789	0.050711	0.117089	0.138140	0.047113	0.119051	0.049331	0.083337	0.101913	0.004035	0.041772	0.087330	0.099763	0.006754	0.013645	0.133142	0.224073	0.149410	0.246033	0.316222	0.223062	0.094965	0.053452	0.015657	0.125096	0.092762	0.121496	0.081874	0.006570	0.072546	0.097697	0.057291	0.232067	0.293693	0.207733	0.070692	0.105365	0.189668	0.109598	0.035703	0.076980	0.045805	0.095269	0.190441	0.315906	0.022206	0.075606	0.165562	0.166565	0.252587	0.091719	0.188360	0.286039	0.209862	0.137939	0.028735	0.140426	0.167046	0.243525	0.267273	0.135938	0.377211	0.264191	0.039098	0.110769	0.203977	0.071727	0.005802	0.081496	0.050765	0.096703	0.092600	0.063122	0.021223	0.043308	0.145861	0.148314	0.225370	0.135025	0.210035	0.235874	0.048975	0.009775	0.169365	0.134143	0.031140	0.073494	0.043836	0.070301	0.174626	0.097196	0.017917	0.044119	0.158260	0.167293	0.035965	0.070234	0.196130	0.270801	0.109975	0.136503	0.098774	0.007281	0.040919	0.129882	0.086919	0.072658	0.096234	0.192275	0.250142	0.122650	0.192614	0.358082	0.480404	0.127983	0.003215	0.307018	0.486706	0.242711	0.145541	0.541256	0.355179	0.010305	0.138731	0.132625	0.118490	0.062635	0.411287	0.252542	0.145350	0.335112	0.213710	0.023021	0.086387	0.058706	0.023398	0.157578	0.185717	0.016774	0.152488	0.173479	0.001186	0.145467	0.252210	0.004967	0.170266	0.365444	0.230996	0.083283	0.400346	0.285371	0.088756	0.015187	0.292486	0.444617	0.089469	0.436887	0.534577	0.039438	0.089880	0.158504	0.072426	0.096763	0.082131	0.144534	0.122554	0.167346	0.036853	0.040623	0.075867	0.057721	0.183729	0.310537	0.460830	0.232218	0.574319	0.663661	0.358687	0.067152	0.260902	0.199680	0.108573	0.009211	0.233112	0.157381	0.060133	0.200913	0.163290	0.105129	0.076678	0.047155	0.018423	0.038792	0.087591	0.124669	0.185214	0.023012	0.008338	0.058786	0.047589	0.028457	0.131541	0.001644	0.089745	0.129438	0.229334	0.214637	0.090722	0.022935	0.036065	0.003807	0.215520	0.047665	0.187861	0.106012	0.111920	0.000124	0.070520	0.192449	0.021886	0.090653	0.037070	0.085005	0.080467	0.035741	0.104812	0.066354	0.062589	0.057260	0.097511	0.037180	0.250849	0.395221	0.000745	0.320848	0.418015	0.422437	0.025111	0.044626	0.212726	0.156783	0.123837	0.105855	0.031735	0.113041	0.286845	0.212246	0.133537	0.331071	0.066846	0.067380	0.228102	0.060068	0.168166	0.012384	0.116894	0.000953	0.040875	0.076863	0.131954	0.142730	0.085131	0.007929	0.075388	0.023588	0.111228	0.077853	0.153362	0.396224	0.390137	0.217463	0.054162	0.068108	0.234777	0.174910	0.001996	0.099885	0.014097	0.013810	0.006937	0.041938	0.118536	0.015641	0.159253	0.191082	0.207984	0.159756	0.341768	0.231423	0.061907	0.045023	0.040465	0.072317	0.185521	0.298195	0.368213	0.112272	0.292466	0.187786	0.176394	0.332268	0.049604	0.176487	0.041864	0.163013	0.236764	0.080115	0.056084	0.071276	0.220256	0.215477	0.104748	0.050332	0.055898	0.044706	0.032671	0.029186	0.108489	0.161504	0.149249	0.093879	0.234596	0.546281	0.166341	0.014169	0.039899	0.017582	0.098480	0.139046	0.147473	0.104500	0.236850	0.128639	0.064096	0.261576	0.453709	0.106782	0.328753	0.446139	0.123261	0.028167	0.107311	0.109396	0.071889	0.039473	0.104008	0.152499	0.173410	0.241948	0.244882	0.007053	0.274058	0.221884	0.045486	0.190613	0.280301	0.280206	0.312977	0.430555	0.524616	0.100175	0.177454	0.004094	0.080433	0.019750	0.014908	0.015552	0.149800	0.198182	0.122526	0.044778	0.016472	0.030509	0.020305	0.055428	0.132029	0.079454	0.101844	0.183389	0.236374	0.180805	0.253632	0.386000	0.407946	0.049628	0.012142	0.001709	0.047269	0.083576	0.130204	0.233380	0.242488	0.169396	0.099263	0.222547	0.204485	0.001642	0.050160	0.065673	0.115111	0.144725	0.035835	0.130378	0.206266	0.102306	0.079095	0.039755	0.104549	0.250617	0.326520	0.007189	0.248652	0.198001	0.048995	0.096421	0.035750	0.112196	0.105938	0.029474	0.050270	0.121836	0.115686	0.042423	0.208644	0.170552	0.019939	0.174724	0.166296	0.181049	0.237209	0.052217	0.090906	0.103919	0.131350	0.026077	0.089068	0.138417	0.141398	0.290927	0.177160	0.063399	0.259150	0.249994	0.066348	0.032386	0.175473	0.116615	0.009135	0.058031	0.131798	0.177693	0.164615	0.091574	0.112278	0.116371	0.011731	0.069174	0.145845	0.123091	0.058581	0.257177	0.271529	0.100773	0.070747	0.114969	0.109145	0.024374	0.092410	0.077236	0.023498	0.083520	0.085908	0.247847	0.252599	0.016702	0.073139	0.127169	0.216338	0.197634	0.014544	0.148659	0.212032	0.068810	0.028445	0.045949	0.046814	0.033802	0.077712	0.024718	0.066769	0.020004	0.039702	0.051683	0.125588	0.215939	0.179932	0.122834	0.290582	0.311129	0.102545	0.022312	0.005366	0.155591	0.140081	0.026314	0.009278	0.236635	0.016138	0.016685	0.010221	0.046234	0.028562	0.058436	0.050239	0.037727	0.022235	0.029302	0.005345	0.006237	0.036309	0.000031	0.084471	0.140138	0.047223	0.093383	0.149780	0.146959	0.003375	0.047750	0.070354	0.074397	0.108083	0.190399	0.093704	0.244902	0.239454	0.097838	0.028502	0.015079	0.080724	0.029465	0.072743	0.022736	0.067304	0.036752	0.018222	0.014670	0.009532	0.006706	0.002049	0.027611	0.058524	0.054771	0.033829	0.008984	0.023790	0.009856	0.015677	0.151070	0.123771	0.031303	0.033851	0.201172	0.159254	0.004262	0.055093	0.017547	0.130510	0.167931	0.015217	0.210014	0.145555	0.066970	0.053365	0.012499	0.053005	0.091197	0.048924	0.049839	0.016189	0.053561	0.095890	0.008034	0.060051	0.003708	0.019818	0.042547	0.002689	0.082247	0.027953	0.070544	0.072282	0.025038	0.110288	0.118368	0.108025	0.020860	0.075902	0.008232	0.016528	0.036600	0.009122	0.016909	0.030810	0.037978	0.035297	0.039938	0.056582	0.169832	0.052755	0.250380	0.117372	0.002469	0.046886	0.019201	0.042388	0.043192	0.079030	0.011267	0.059559	0.107637	0.023667	0.008179	0.004927	0.194046	0.280179	0.103638	0.211951	0.312988	0.203835	0.024406	0.023135	0.039350	0.022599	0.035667	0.132269	0.217392	0.181190	0.012665	0.214091	0.219798	0.151846	0.005038	0.091743	0.068545	0.052457	0.026371	0.009745	0.011829	0.023720	0.034680	0.137079	0.183779	0.048846	0.134478	0.308474	0.128559	0.020917	0.004433	0.011347	0.032763	0.072623	0.086722	0.134121	0.060765	0.045083	0.020186	0.034813	0.005835	0.004606	0.172747	0.219190	0.075963	0.076037	0.177912	0.158551	0.079311	0.114120	0.158653	0.052904	0.047384	0.097139	0.102072	0.046981	0.033318	0.162542	0.155861	0.014845	0.046542	0.075023	0.079351	0.054091	0.051233	0.024373	0.016074	0.007586	0.042701	0.019002	0.048387	0.056473	0.038952	0.041225	0.067395	0.035831	0.033118	0.010173	0.054998	0.005135	0.101752	0.033726	0.108823	0.076844	0.082204	0.242124	0.153284	0.183812	0.031747	0.050757	0.061219	0.070417	0.038463	0.003023	0.098191	0.097606	0.117575	0.040442	0.037974	0.047053	0.000873	0.024297	0.022277	0.013974	0.037821	0.014602	0.117505	0.056943	0.068580	0.052356	0.023697	0.015870	0.010616	0.065731	0.072284	0.071962	0.075917	0.083698	0.020854	0.074750	0.011467	0.056559	0.078073	0.046827	0.025053	0.071535	0.049795	0.006624	0.096243	0.079580	0.087279	0.073360	0.021739	0.054620	0.028116	0.016146	0.002140	0.017715	0.044695	0.032753	0.002099	0.013755	0.123143	0.256675	0.150421	0.189805	0.379426	0.286462	0.074751	0.162619	0.035158	0.030476	0.130820	0.027043	0.196424	0.163438	0.037035	0.012281	0.061330	0.085042	0.012224	0.026202	0.049052	0.056751	0.050356	0.063958	0.075827	0.070361	0.002343	0.143379	0.159309	0.051794	0.004207	0.067385	0.082468	0.105743	0.011053	0.085450	0.031625	0.001542	0.017050	0.012475	0.018143	0.012915	0.094204	0.015298	0.012706	0.082310	0.017775	0.061507	0.109915	0.004272	0.160110	0.148187	0.031766	0.001911	0.040295	0.014723	0.115321	0.141451	0.173224	0.058367	0.106045	0.153929	0.008672	0.045011	0.061870	0.052158	0.228158	0.208326	0.081056	0.142055	0.286634	0.240640	0.197186	0.044945	0.124758	0.127342	0.192325	0.140600	0.020996	0.049359	0.052640	0.066462	0.064620	0.145385	0.176877	0.030395	0.294616	0.262158	0.211944	0.039678	0.270671	0.332779	0.061175	0.129302	0.145459	0.231205	0.127997	0.034819	0.095512	0.093143	0.100359	0.228110	0.251999	0.015416	0.326669	0.302636	0.041743	0.110713	0.120431	0.182516	0.015346	0.192806	0.065347	0.013970	0.024064	0.216472	0.101860	0.084095	0.056825	0.219763	0.216758	0.085739	0.234871	0.149794	0.008667	0.022967	0.033314	0.049236	0.209478	0.239731	0.050471	0.168631	0.195894	0.158047	0.145026	0.151445	0.028183	0.163029	0.140360	0.144373	0.000537	0.172420	0.080844	0.042785	0.026935	0.067907	0.069417	0.080697	0.113507	0.085305	0.040422	0.060406	0.007233	0.115273	0.156962	0.039158	0.086493	0.171247	0.200290	0.071717	0.203920	0.186471	0.248090	0.017848	0.107207	0.130774	0.055793	0.009312	0.049703	0.213268	0.123734	0.018635	0.155837	0.264780	0.140197	0.007482	0.121667	0.103448	0.018609	0.027867	0.060443	0.093079	0.034238	0.036212	0.072866	0.136858	0.245870	0.082286	0.092974	0.247672	0.246366	0.073913	0.334797	0.207941	0.070546	0.017603	0.124658	0.091877	0.186915	0.205438	0.306550	0.180487	0.347387	0.342122	0.097092	0.058201	0.160409	0.198419	0.000568	0.042180	0.054113	0.111947	0.078674	0.071652	0.196915	0.115385	0.036123	0.065813	0.189056	0.329697	0.231994	0.299960	0.512280	0.332593	0.094896	0.057230	0.006332	0.087803	0.027004	0.096378	0.158646	0.147199	0.015636	0.093665	0.029000	0.050376	0.145286	0.060528	0.092300	0.128394	0.102636	0.104672	0.076324	0.023890	0.152086	0.132521	0.133584	0.038563	0.028580	0.087780	0.096890	0.144401	0.100910	0.019043	0.081953	0.174280	0.173040	0.062055	0.005913	0.021653	0.051781	0.017926	0.022070	0.078682	0.158604	0.219460	0.125469	0.127028	0.292369	0.190531	0.156137	0.062910	0.019884	0.026303	0.166443	0.197618	0.135810	0.091684	0.042340	0.183460	0.113299	0.108504	0.023605	0.093841	0.160090	0.032906	0.177324	0.175073	0.046279	0.076390	0.092128	0.108781	0.158817	0.136616	0.129377	0.032322	0.133247	0.146239	0.119227	0.105053	0.109857	0.126078	0.016002	0.176978	0.227311	0.049193	0.028144	0.006508	0.018173	0.129487	0.184854	0.004572	0.068829	0.125371	0.156631	0.079767	0.185941	0.207848	0.194752	0.014140	0.343443	0.247132	0.245977	0.089790	0.078565	0.284226	0.135250	0.026451	0.112105	0.012483	0.055376	0.135155	0.097728	0.062951	0.009781	0.048041	0.081462	0.066125	0.066173	0.023963	0.065583	0.098381	0.224231	0.176231	0.096268	0.069009	0.274562	0.069167	0.097102	0.131224	0.069202	0.079503	0.018053	0.020000	0.088803	0.069235	0.057956	0.098778	0.171460	0.058090	0.059724	0.089926	0.189626	0.167273	0.044090	0.138157	0.200555	0.209165	0.241244	0.340381	0.197156	0.028146	0.152948	0.163093	0.259343	0.167058	0.142803	0.225998	0.395207	0.233925	0.021079	0.075965	0.117409	0.058202	0.125779	0.314388	0.306405	0.149577	0.368840	0.178967	0.045467	0.042656	0.040018	0.059186	0.058835	0.015472	0.104578	0.278988	0.077384	0.146956	0.279245	0.147878	0.059294	0.061097	0.068565	0.101164	0.143950	0.451438	0.108165	0.461293	0.492257	0.140645	0.107258	0.123241	0.165697	0.109829	0.100177	0.111130	0.016811	0.006528	0.031806	0.077049	0.044683	0.008829	0.062873	0.038880	0.082640	0.258238	0.381509	0.117835	0.058951	0.230149	0.179432	0.000596	0.145215	0.144616	0.016438	0.005315	0.083856	0.046939	0.139582	0.054255	0.091172	0.037332	0.003145	0.078822	0.044159	0.010931	0.145797	0.135754	0.033471	0.094603	0.089779	0.048794	0.265002	0.280306	0.009145	0.429810	0.275627	0.108698	0.056128	0.090912	0.023292	0.161198	0.139357	0.036965	0.053879	0.017448	0.038983	0.193698	0.136195	0.088018	0.366515	0.204934	0.096633	0.072171	0.123304	0.100436	0.120955	0.153378	0.078859	0.068596	0.086581	0.081621	0.133090	0.065217	0.148284	0.163202	0.097075	0.073981	0.023075	0.045059	0.000078	0.062804	0.075859	0.011718	0.051108	0.217396	0.175668	0.020751	0.028791	0.044075	0.043013	0.078132	0.006932	0.020081	0.067558	0.043585	0.032113	0.070711	0.081641	0.002116	0.008859	0.069521	0.042847	0.057665	0.010522	0.203755	0.257130	0.061609	0.216535	0.105011	0.085001	0.119562	0.093376	0.041042	0.035842	0.078225	0.121968	0.062346	0.191947	0.148992	0.002305	0.131792	0.067308	0.003794	0.035797	0.087786	0.091092	0.067766	0.029684	0.054052	0.035625	0.079932	0.001759	0.003532	0.014600	0.113397	0.102485	0.069545	0.060236	0.000449	0.061758	0.005155	0.027967	0.053759	0.039938	0.048769	0.072298	0.066790	0.169184	0.227399	0.121206	0.000255	0.162142	0.143372	0.043226	0.026041	0.035020	0.041157	0.010073	0.012517	0.012724	0.022289	0.054265	0.032079	0.032125	0.081726	0.018656	0.051155	0.019261	0.050925	0.053100	0.116319	0.059376	0.087656	0.176878	0.062331	0.051675	0.011395	0.020642	0.011682	0.031865	0.033752	0.017570	0.016446	0.001791	0.034954	0.082262	0.057468	0.032051	0.012692	0.059959	0.060853	0.122166	0.077879	0.141539	0.133470	0.110656	0.052047	0.004836	0.017407	0.060033	0.040625	0.170609	0.201038	0.054469	0.197405	0.254576	0.082011	0.023303	0.147582	0.115258	0.057323	0.050135	0.093437	0.041125	0.089702	0.099427	0.054748	0.060421	0.031296	0.007181	0.075475	0.015676	0.080482	0.139821	0.030570	0.028063	0.003882	0.008553	0.007138	0.008000	0.036912	0.033584	0.029929	0.079264	0.125595	0.073550	0.275874	0.059354	0.106930	0.111366	0.062155	0.073643	0.087956	0.084540	0.147690	0.125221	0.003093	0.073189	0.009075	0.155056	0.079477	0.015631	0.041645	0.003556	0.034467	0.021604	0.081747	0.074925	0.025951	0.051280	0.010374	0.013741	0.017744	0.038109	0.029486	0.050782	0.022491	0.052150	0.044252	0.041417	0.112125	0.104297	0.000570	0.073416	0.018472	0.039952	0.054008	0.070504	0.018028	0.072430	0.048147	0.037367	0.030486	0.001157	0.113820	0.023402	0.018353	0.000615	0.021610	0.029591	0.069161	0.037200	0.038470	0.072853	0.034034	0.031696	0.055897	0.028166	0.082761	0.022624	0.142922	0.259838	0.163116	0.044508	0.046794	0.050379	0.028725	0.000618	0.037899	0.090673	0.051041	0.048577	0.045035	0.081289	0.011267	0.010996	0.011696	0.002078	0.010723	0.010971	0.015244	0.008216	0.001286	0.032699	0.006352	0.054883	0.017996	0.104836	0.005875	0.145983	0.163423	0.342531	0.001174	0.206720	0.074333	0.110100	0.099796	0.106897	0.064466	0.001022	0.011813	0.031559	0.076024	0.062613	0.035299	0.058165	0.068569	0.013591	0.043718	0.017367	0.015065	0.006733	0.009287	0.055779	0.002242	0.031395	0.016926	0.003399	0.074780	0.038578	0.082837	0.058065	0.048179	0.061659	0.000930	0.353578	0.361928	0.113949	0.035890	0.088115	0.072326	0.101352	0.061496	0.021005	0.041369	0.063117	0.029763	0.024414	0.033339	0.001698	0.010519	0.029251	0.000517	0.024294	0.002064	0.002155	0.026831	0.010821	0.016900	0.023737	0.021755	0.029409	0.021571	0.066621	0.068742	0.025320	0.118478	0.179669	0.056714	0.014834	0.067918	0.056979	0.111448	0.025787	0.200064	0.059256	0.011543	0.006108	0.066795	0.077733	0.077817	0.041466	0.050183	0.036026	0.026465	0.045964	0.023073	0.005983	0.003050	0.014935	0.014453	0.007671	0.010281	0.015081	0.007408	0.055810	0.023198	0.099010	0.055310	0.054928	0.037407	0.063090	0.069908	0.016438	0.038919	0.054546	0.033371	0.058837	0.002455	0.132473	0.065478	0.019835	0.092310	0.063385	0.020521	0.024858	0.019688	0.015819	0.031670	0.053304	0.069804	0.017723	0.023805	0.010257	0.070522	0.031534	0.009896	0.041524	0.105959	0.137625	0.001301	0.051024	0.017347	0.125030	0.173450	0.108404	0.074524	0.166514	0.090180	0.019844	0.136128	0.162150	0.182741	0.105993	0.062458	0.074614	0.084674	0.050312	0.095635	0.030029	0.079677	0.052426	0.057794	0.005048	0.056800	0.055541	0.022818	0.012014	0.083322	0.147004	0.016438	0.042103	0.072497	0.050114	0.118625	0.180986	0.033094	0.128062	0.190581	0.257671	0.082500	0.169770	0.274592	0.187986	0.043695	0.107429	0.050776	0.133438	0.179739	0.183259	0.063194	0.065063	0.049663	0.176893	0.145097	0.084617	0.125574	0.091277	0.003090	0.004947	0.059531	0.181753	0.079087	0.036104	0.141025	0.177650	0.078997	0.083577	0.154105	0.101511	0.012681	0.034047	0.031687	0.097500	0.103751	0.019690	0.285568	0.297200	0.089606	0.295877	0.137776	0.022270	0.058110	0.004345	0.012730	0.068312	0.148755	0.144150	0.065607	0.105920	0.231806	0.174360	0.019323	0.070343	0.162369	0.223748	0.102062	0.009247	0.187881	0.104547	0.030628	0.008547	0.136075	0.048394	0.010866	0.051085	0.109687	0.124694	0.014329	0.049094	0.004338	0.050341	0.076995	0.091864	0.011694	0.278187	0.233486	0.030217	0.035826	0.176767	0.119738	0.054471	0.374286	0.099199	0.134259	0.189247	0.159428	0.020994	0.019190	0.062568	0.058747	0.036567	0.062495	0.050424	0.013150	0.160104	0.141661	0.000080	0.139159	0.308394	0.166318	0.010331	0.091109	0.070560	0.121318	0.019500	0.001431	0.038632	0.057886	0.015208	0.018876	0.093094	0.146871	0.011842	0.283668	0.257466	0.048573	0.103665	0.024927	0.049103	0.138468	0.219654	0.044178	0.113476	0.052496	0.115946	0.123237	0.082699	0.063477	0.082987	0.203606	0.177745	0.025853	0.066816	0.062511	0.078427	0.020414	0.094478	0.283738	0.309308	0.068273	0.197597	0.342071	0.216453	0.180585	0.049113	0.125771	0.063308	0.017908	0.174805	0.120606	0.075870	0.174378	0.080320	0.009469	0.022113	0.001801	0.166884	0.188225	0.040400	0.097271	0.130192	0.039503	0.218486	0.073834	0.076099	0.162335	0.258406	0.149861	0.098997	0.211191	0.288595	0.041896	0.028086	0.016541	0.133789	0.235275	0.113112	0.015818	0.100184	0.136101	0.118926	0.112592	0.141461	0.147497	0.032023	0.073979	0.040578	0.066668	0.131328	0.076765	0.043422	0.030281	0.116152	0.178896	0.079527	0.076108	0.136305	0.053474	0.153915	0.189012	0.075362	0.049777	0.148206	0.106685	0.084984	0.067342	0.012980	0.093891	0.050315	0.003828	0.032744	0.043881	0.022759	0.115722	0.027715	0.011609	0.144618	0.102060	0.253544	0.346608	0.086633	0.240589	0.516399	0.117737	0.096718	0.019818	0.028677	0.027068	0.015806	0.123988	0.004362	0.191347	0.060777	0.032600	0.015974	0.010688	0.013560	0.057656	0.104789	0.126717	0.243059	0.043581	0.236672	0.173858	0.135544	0.016348	0.029837	0.047710	0.102328	0.060843	0.029534	0.093275	0.280353	0.139515	0.056485	0.079166	0.160635	0.092625	0.211563	0.203252	0.112710	0.142834	0.157406	0.150983	0.036215	0.163231	0.082466	0.042489	0.081684	0.053388	0.048247	0.141228	0.123489	0.096858	0.108266	0.209837	0.041465	0.137312	0.193265	0.051308	0.091403	0.142010	0.220087	0.276590	0.056532	0.075973	0.125134	0.013965	0.019497	0.013692	0.046396	0.250160	0.153973	0.083788	0.233270	0.205254	0.023632	0.035324	0.114848	0.121049	0.071540	0.067967	0.014600	0.026403	0.104812	0.100217	0.079896	0.046042	0.133027	0.138101	0.132674	0.036708	0.222764	0.166658	0.152193	0.010179	0.069151	0.009885	0.135474	0.089615	0.134321	0.185313	0.155326	0.060085	0.051325	0.072781	0.064878	0.023891	0.071107	0.159966	0.029748	0.161531	0.101845	0.043552	0.003029	0.007774	0.066659	0.034781	0.127125	0.129538	0.087806	0.064174	0.129368	0.207148	0.064521	0.225956	0.383222	0.251958	0.031245	0.062550	0.102782	0.083957	0.060868	0.081111	0.060197	0.152390	0.231722	0.108924	0.007128	0.179295	0.224701	0.152052	0.215557	0.125645	0.053999	0.148167	0.113848	0.107861	0.077553	0.010224	0.056803	0.023543	0.024491	0.050564	0.082556	0.004542	0.011400	0.020106	0.011294	0.058317	0.066947	0.052383	0.118343	0.061744	0.122888	0.199740	0.008039	0.046956	0.025217	0.005561	0.040266	0.020188	0.082483	0.106697	0.068532	0.073190	0.064806	0.035014	0.009504	0.044293	0.059440	0.018624	0.018509	0.042425	0.008362	0.017344	0.025105	0.028741	0.005596	0.015862	0.069688	0.007968	0.062185	0.051607	0.071757	0.074320	0.054736	0.110788	0.080684	0.025631	0.025819	0.038389	0.008072	0.000785	0.000684	0.001392	0.030350	0.025717	0.015567	0.008226	0.024216	0.022551	0.015542	0.037225	0.090717	0.018125	0.045246	0.028365	0.004851	0.004460	0.014119	0.138167	0.025508	0.113299	0.049884	0.129529	0.122370	0.010998	0.020803	0.029844	0.035489	0.001057	0.004215	0.001486	0.007929	0.002502	0.032527	0.020134	0.018291	0.010403	0.005222	0.015887	0.011161	0.009665	0.007781	0.021828	0.017120	0.011819	0.055574	0.044553	0.024174	0.001128	0.038209	0.055615	0.019945	0.026244	0.022743	0.034137	0.010753	0.017500	0.026750	0.006383	0.019550	0.012260	0.014078	0.012159	0.006935	0.012588	0.006847	0.014847	0.003507	0.018576	0.043774	0.008311	0.027843	0.034434	0.057285	0.038245	0.005338	0.000899	0.011593	0.023676	0.003442	0.018505	0.018671	0.006683	0.001939	0.010244	0.013173	0.000842	0.019432	0.022898	0.011551	0.003982	0.011500	0.017531	0.033013	0.029087	0.027756	0.032854	0.055176	0.037502	0.014513	0.011502	0.005701	0.021160	0.005552	0.006694	0.026904	0.062257	0.056865	0.027865	0.078019	0.062878	0.025307	0.070525	0.036169	0.033870	0.068396	0.074060	0.036092	0.014995	0.056447	0.045504	0.007393	0.032704	0.087349	0.005114	0.076277	0.158973	0.019805	0.003391	0.025310	0.016512	0.045389	0.038797	0.030627	0.030384	0.029830	0.014346	0.013609	0.026169	0.024839	0.003096	0.012994	0.003457	0.000226	0.013646	0.001392	0.014594	0.041693	0.025269	0.000414	0.016981	0.025194	0.013948	0.058058	0.073019	0.022298	0.109833	0.083905	0.037899	0.017677	0.001708	0.012967	0.008041	0.019975	0.036598	0.018393	0.026058	0.005442	0.026103	0.022655	0.008920	0.035992	0.011057	0.003727	0.001055	0.002589	0.034306	0.032013	0.002311	0.025941	0.022704	0.004233	0.003395	0.008682	0.013175	0.021871	0.021159	0.027757	0.016608	0.018331	0.008118	0.012812	0.034474	0.015375	0.044863	0.019286	0.002463	0.057689	0.036905	0.022691	0.088258	0.073749	0.013792	0.023267	0.052671	0.007844	0.014868	0.019010	0.008161	0.010869	0.018920	0.015410	0.002152	0.003631	0.015352	0.004894	0.001537	0.001505	0.007410	0.003343	0.009272	0.004813	0.004339	0.003917	0.004341	0.013676	0.020910	0.031604	0.006424	0.029573	0.076466	0.015069	0.001205	0.018421	0.017170	0.007553	0.011002	0.007109	0.004875	0.006737	0.022125	0.026730	0.027496	0.028946	0.018349	0.053497	0.045803	0.050326	0.004826	0.026668	0.034417	0.041040	0.022335	0.023587	0.011059	0.046219	0.009511	0.054462	0.037563	0.018313	0.084991	0.021851	0.000657	0.000668	0.000186	0.004569	0.000396	0.005029	0.008533	0.006650	0.007608	0.004570	0.005916	0.002330	0.003570	0.002760	0.013402	0.001941	0.006275	0.026048	0.029073	0.024239	0.000114	0.003397	0.004506	0.004599	0.071958	0.024812	0.001856	0.007531	0.005542	0.006469	0.009769	0.007400	0.012754	0.004100	0.012290	0.008855	0.013874	0.002404	0.007079	0.013429	0.006672	0.007358	0.025910	0.005227	0.044054	0.006152	0.016413	0.010306	0.009559	0.043571	0.028814	0.028552	0.040981	0.091300	0.028773	0.004387	0.029363	0.008586	0.025218	0.070737	0.028951	0.038284	0.003372	0.016886	0.021419	0.001208	0.031478	0.042648	0.004525	0.018513	0.006887	0.009643	0.012385	0.001366	0.014918	0.023424	0.067486	0.006805	0.044357	0.029062	0.009053	0.002725	0.005671	0.067105	0.031690	0.004491	0.004580	0.060387	0.056131	0.067104	0.001802	0.016959	0.022746	0.003322	0.016541	0.056649	0.031383	0.020421	0.026760	0.033831	0.022398	0.001520	0.016802	0.007830	0.018411	0.034901	0.006681	0.004390	0.002660	0.010304	0.009655	0.000162	0.002984	0.002532	0.010803	0.001162	0.004489	0.005176	0.007600	0.014718	0.005800	0.015391	0.029139	0.011281	0.038159	0.004926	0.018501	0.013616	0.001525	0.002880	0.011863	0.012589	0.009905	0.005256	0.002612	0.017086	0.034322	0.036982	0.016789	0.048687	0.004195	0.038002	0.009615	0.029012	0.047830	0.046740	0.010869	0.016848	0.006973	0.008162	0.002965	0.010777	0.002696	0.000469	0.001969	0.001907	0.004682	0.002127	0.004878	0.002628	0.008072	0.002437	0.009199	0.019214	0.000745	0.002455	0.030880	0.032051	0.009021	0.012567	0.004075	0.013513	0.015040	0.007923	0.009658	0.002832	0.003590	0.002388	0.012461	0.003008	0.002697	0.001597	0.003034	0.008603	0.046635	0.027479	0.025120	0.028738	0.030265	0.012061	0.003218	0.028796	0.024992	0.008857	0.018325	0.004182	0.004406	0.002045	0.022080	0.013895	0.009002	0.016871	0.013159	0.000768	0.003256	0.009902	0.009242	0.013762	0.004594	0.007817	0.000409	0.000142	0.006668	0.010410	0.006289	0.001232	0.006890	0.004497	0.014537	0.009540	0.008059	0.026574	0.023770	0.003113	0.034511	0.049292	0.042966	0.001324	0.003826	0.005710	0.015812	0.003766	0.013864	0.011231	0.006856	0.026849	0.013663	0.006053	0.035170	0.006024	0.014680	0.014164	0.034750	0.023714	0.002322	0.008640	0.009160	0.002340	0.001279	0.007499	0.003714	0.003792	0.003515	0.002951	0.000660	0.006135	0.000854	0.012563	0.023897	0.027430	0.038446	0.019907	0.032653	0.030768	0.060176	0.006538	0.014590	0.008730	0.006955	0.008278	0.000202	0.013628	0.009985	0.004071	0.005420	0.003861	0.001028	0.013055	0.011788	0.036010	0.022357	0.007392	0.061145	0.039813	0.044838	0.002401	0.002698	0.015050	0.006868	0.007684	0.009285	0.003851	0.006079	0.005510	0.010313	0.007042	0.030412	0.033701	0.006422	0.036157	0.050521	0.034227	0.013520	0.016166	0.000927	0.004645	0.003330	0.003163	0.009192	0.000549	0.015278	0.005282	0.021682	0.026063	0.025419	0.045060	0.039696	0.017830	0.003285	0.010195	0.005556	0.004308	0.016012	0.008858	0.008817	0.019094	0.027409	0.011625	0.002235	0.039435	0.061251	0.003984	0.052142	0.065080	0.048773	0.008462	0.014247	0.000410	0.006768	0.008494	0.017313	0.002019	0.011176	0.007270	0.004231	0.007879	0.005566	0.014087	0.021522	0.040201	0.025238	0.011372	0.001775	0.003407	0.012522	0.004260	0.010950	0.000016	0.006897	0.017225	0.005946	0.007652	0.036717	0.029430	0.026954	0.071119	0.083758	0.017071	0.000818	0.006880	0.005929	0.022255	0.008854	0.006493	0.000348	0.008301	0.033568	0.028229	0.010586	0.029859	0.046471	0.027698	0.003673	0.003855	0.000321	0.011513	0.009359	0.011465	0.019613	0.026964	0.002286	0.012924	0.007300	0.003856	0.029258	0.028405	0.018032	0.011445	0.003852	0.003431	0.004881	0.018640	0.045421	0.014218	0.017396	0.000066	0.025577	0.006811	0.001243	0.007864	0.015419	0.012488	0.004353	0.002125	0.013766	0.018277	0.029005	0.003966	0.012765	0.014126	0.034219	0.038861	0.042469	0.073194	0.061550	0.031378	0.008951	0.024262	0.027121	0.028424	0.009137	0.008062	0.012208	0.010786	0.011153	0.006594	0.001627	0.012176	0.005995	0.008844	0.005532	0.004162	0.004158	0.014381	0.001395	0.013277	0.008750	0.006295	0.001589	0.027779	0.003850	0.023963	0.034541	0.006328	0.018908	0.026169	0.003073	0.019417	0.041522	0.006739	0.006307	0.001817	0.038852	0.055652	0.001812	0.067156	0.030589	0.006943	0.038492	0.008757	0.014077	0.014174	0.023771	0.015284	0.006619	0.021345	0.009444	0.002894	0.014176	0.004117	0.023179	0.006566	0.003358	0.019961	0.054774	0.002270	0.008880	0.015602	0.032663	0.002035	0.007290	0.003220	0.003182	0.022828	0.000826	0.008907	0.000182	0.002072	0.011469	0.000619	0.005572	0.007860	0.001458	0.002042	0.012505	0.002466	0.010870	0.001844	0.019615	0.051169	0.086531	0.001925	0.070934	0.107758	0.083028	0.075811	0.018331	0.004602	0.056472	0.051988	0.008691	0.013842	0.027641	0.013060	0.007164	0.017529	0.028924	0.008135	0.006355	0.012329	0.002540	0.031525	0.021166	0.077679	0.041004	0.017633	0.001166	0.035051	0.025466	0.028028	0.098216	0.008570	0.036839	0.070642	0.058629	0.020112	0.027951	0.108971	0.104612	0.070874	0.059945	0.120471	0.165658	0.065445	0.016902	0.151989	0.150278	0.040401	0.033631	0.061203	0.132692	0.160726	0.065337	0.027248	0.190750	0.113224	0.067172	0.022223	0.029066	0.048623	0.028180	0.005204	0.189987	0.147498	0.065075	0.001014	0.092243	0.142108	0.068259	0.018945	0.006776	0.064944	0.150996	0.249909	0.035028	0.121417	0.223714	0.145288	0.088661	0.086890	0.177831	0.222935	0.025537	0.093724	0.060714	0.048708	0.017460	0.002263	0.062458	0.020152	0.066390	0.121054	0.161154	0.083320	0.051912	0.126678	0.081180	0.058409	0.147359	0.066994	0.095190	0.062229	0.085362	0.013782	0.094360	0.049078	0.026130	0.040740	0.015815	0.126001	0.205209	0.110143	0.003765	0.049017	0.078582	0.020464	0.250493	0.316597	0.205077	0.033618	0.141726	0.233355	0.030302	0.053121	0.011611	0.048614	0.045443	0.043580	0.079037	0.217246	0.125390	0.083948	0.158580	0.020191	0.069981	0.089936	0.026756	0.032989	0.227964	0.144807	0.038787	0.255716	0.036588	0.063350	0.075817	0.061781	0.098646	0.039028	0.085907	0.017239	0.000688	0.162457	0.100199	0.031808	0.171479	0.188091	0.035460	0.013439	0.103225	0.060531	0.133786	0.211475	0.185083	0.025618	0.100772	0.160044	0.024999	0.084337	0.173201	0.113661	0.053283	0.113581	0.191134	0.029151	0.013995	0.020351	0.042515	0.104081	0.068840	0.067980	0.077957	0.260181	0.197187	0.195104	0.306267	0.137140	0.153533	0.265412	0.147065	0.078591	0.306902	0.353336	0.115877	0.028041	0.080423	0.107215	0.107941	0.183169	0.108522	0.001346	0.055679	0.018285	0.084137	0.002754	0.048193	0.057285	0.050900	0.014445	0.067901	0.023412	0.016197	0.000737	0.021604	0.001438	0.010426	0.036847	0.018768	0.013243	0.003334	0.060086	0.098892	0.045335	0.097790	0.219967	0.059503	0.015778	0.029924	0.138192	0.260220	0.000193	0.237342	0.233362	0.103675	0.016531	0.093036	0.069294	0.005242	0.035370	0.062639	0.039329	0.003518	0.010857	0.066224	0.203774	0.134032	0.111226	0.253090	0.261489	0.086999	0.015380	0.016573	0.069628	0.177708	0.125724	0.128355	0.126516	0.271878	0.104706	0.039358	0.011187	0.040183	0.051533	0.108695	0.088415	0.074600	0.000122	0.074416	0.003887	0.054467	0.072181	0.034513	0.039965	0.050021	0.045642	0.051046	0.140674	0.235711	0.051665	0.022606	0.029270	0.070715	0.045237	0.021419	0.037393	0.027958	0.018412	0.018407	0.006532	0.035042	0.005635	0.041840	0.011943	0.000237	0.008986	0.004110	0.054627	0.002917	0.003212	0.048407	0.091691	0.064841	0.075498	0.115089	0.112200	0.191197	0.128140	0.034405	0.031288	0.088920	0.131674	0.088704	0.013580	0.078199	0.022571	0.003369	0.070304	0.005297	0.012437	0.062359	0.032519	0.040052	0.027260	0.075673	0.033758	0.039478	0.025404	0.002487	0.015591	0.029702	0.015203	0.058054	0.018809	0.004311	0.004598	0.030243	0.065774	0.047400	0.045467	0.078616	0.094308	0.068147	0.049164	0.005598	0.059779	0.040855	0.007262	0.017265	0.057175	0.015390	0.020191	0.058637	0.015435	0.069777	0.051106	0.006323	0.069814	0.021882	0.027087	0.002268	0.018637	0.015827	0.030781	0.007386	0.007232	0.053687	0.026438	0.006622	0.008126	0.040183	0.010075	0.058263	0.076863	0.052440	0.045168	0.025894	0.012223	0.038651	0.041529	0.005463	0.000016	0.022982	0.020314	0.043993	0.008775	0.053930	0.012558	0.053904	0.011784	0.059682	0.045051	0.027355	0.002242	0.009977	0.020470	0.071532	0.067840	0.018269	0.010770	0.042923	0.018749	0.024076	0.024890	0.017291	0.041613	0.094073	0.182282	0.043790	0.015137	0.038187	0.035795	0.009886	0.019355	0.045019	0.083104	0.025878	0.024908	0.028171	0.008040	0.021102	0.003263	0.012271	0.004040	0.007561	0.018163	0.005662	0.015199	0.014781	0.013512	0.012294	0.031943	0.041547	0.046397	0.036884	0.017246	0.004795	0.018627	0.046024	0.035282	0.052109	0.007972	0.000797	0.023016	0.075078	0.039797	0.015257	0.012095	0.024736	0.097521	0.026715	0.106576	0.056370	0.014090	0.035618	0.018907	0.020391	0.031038	0.009324	0.022513	0.001965	0.032399	0.034672	0.045618	0.016688	0.038837	0.075461	0.019959	0.036181	0.063966	0.020547	0.100401	0.138817	0.097757	0.034155	0.027663	0.020573	0.029952	0.062431	0.076511	0.071590	0.041758	0.046582	0.011662	0.028978	0.006155	0.001288	0.000599	0.002599	0.012717	0.028798	0.013003	0.008777	0.009328	0.032469	0.003855	0.021523	0.018956	0.026291	0.034397	0.089285	0.012140	0.090711	0.052233	0.043867	0.024114	0.042341	0.037672	0.003662	0.003087	0.062396	0.043029	0.011898	0.006383	0.107805	0.098859	0.095179	0.016487	0.067815	0.020049	0.018945	0.051477	0.045590	0.026663	0.029300	0.022716	0.100088	0.055180	0.033299	0.152864	0.142853	0.038108	0.023901	0.030366	0.072553	0.097249	0.079969	0.013664	0.098120	0.182354	0.091665	0.030214	0.008208	0.004523	0.080049	0.131698	0.137419	0.013857	0.112366	0.196162	0.139414	0.015821	0.045506	0.082694	0.093873	0.022546	0.026593	0.070535	0.112392	0.041438	0.022615	0.000817	0.152566	0.073845	0.066640	0.188781	0.086944	0.054711	0.073004	0.025924	0.063191	0.074538	0.182110	0.337002	0.322571	0.047717	0.016009	0.034680	0.242468	0.288215	0.241842	0.036105	0.135241	0.221210	0.159554	0.025587	0.008081	0.223451	0.252317	0.056736	0.189952	0.161901	0.026737	0.111499	0.020475	0.125616	0.074215	0.022599	0.094029	0.026512	0.016438	0.087458	0.046505	0.067072	0.147121	0.045701	0.270667	0.041759	0.022319	0.113828	0.182118	0.121324	0.063785	0.024730	0.285131	0.221418	0.093468	0.084315	0.032224	0.021074	0.021254	0.089892	0.018624	0.006386	0.011182	0.007293	0.106557	0.096970	0.084036	0.009567	0.174761	0.181501	0.113377	0.010747	0.064645	0.180236	0.042992	0.018476	0.068847	0.009170	0.051322	0.051808	0.060084	0.112872	0.050158	0.076524	0.018913	0.003538	0.042162	0.070097	0.136367	0.061627	0.032964	0.042113	0.077803	0.039772	0.040006	0.113671	0.166886	0.020748	0.046335	0.142075	0.197449	0.024371	0.041310	0.020261	0.083786	0.020098	0.059768	0.119669	0.156373	0.177998	0.089309	0.010596	0.051454	0.020980	0.027408	0.092491	0.130416	0.006370	0.166939	0.184078	0.004413	0.327556	0.215141	0.096306	0.063484	0.112648	0.009179	0.034657	0.037378	0.105504	0.064833	0.039321	0.033026	0.018715	0.008976	0.028424	0.016388	0.073644	0.018543	0.020146	0.065080	0.055507	0.035973	0.001933	0.070203	0.070864	0.004582	0.088208	0.035083	0.007806	0.013242	0.053046	0.023779	0.019075	0.075228	0.000625	0.051093	0.090131	0.116198	0.098421	0.020042	0.102680	0.192666	0.095961	0.098265	0.058406	0.005129	0.000640	0.051728	0.005753	0.162075	0.093328	0.037939	0.070614	0.144052	0.148999	0.149709	0.056892	0.108545	0.123691	0.168899	0.070571	0.143061	0.043287	0.319071	0.052670	0.455212	0.294722	0.001946	0.053691	0.055137	0.016838	0.026403	0.009974	0.138222	0.079580	0.111112	0.013276	0.026989	0.020937	0.045726	0.040831	0.040381	0.013680	0.013856	0.102547	0.274509	0.186667	0.159705	0.363411	0.336625	0.241927	0.152949	0.043478	0.151039	0.197965	0.247723	0.041824	0.082006	0.110386	0.059882	0.058687	0.026729	0.050976	0.060730	0.062598	0.102805	0.027626	0.051090	0.019320	0.012238	0.008817	0.020835	0.037732	0.011402	0.035877	0.002894	0.006325	0.042201	0.105333	0.012127	0.040143	0.069690	0.051633	0.011662	0.046478	0.076687	0.035122	0.015898	0.035869	0.028739	0.042677	0.006372	0.115614	0.126401	0.022296	0.029689	0.088927	0.113817	0.032546	0.000985	0.005838	0.011193	0.012703	0.009074	0.007028	0.020606	0.001888	0.012107	0.004154	0.007886	0.021667	0.024915	0.023561	0.064313	0.030126	0.061590	0.035862	0.011463	0.017019	0.013845	0.023938	0.057389	0.039244	0.097984	0.040714	0.004534	0.013965	0.024406	0.019800	0.021775	0.000494	0.005552	0.023785	0.023665	0.048621	0.029525	0.077817	0.053312	0.012869	0.083426	0.020191	0.009547	0.013322	0.013242	0.029637	0.020413	0.023825	0.015296	0.003173	0.022349	0.007277	0.027579	0.004925	0.000307	0.004818	0.030660	0.020044	0.002941	0.024916	0.004133	0.098090	0.039230	0.032954	0.089138	0.082128	0.006559	0.008332	0.002143	0.010963	0.033563	0.027035	0.002170	0.013406	0.009617	0.024041	0.004650	0.084432	0.047106	0.031919	0.049000	0.094707	0.074889	0.022592	0.013739	0.044847	0.002956	0.012023	0.025826	0.003738	0.001721	0.007916	0.004619	0.011450	0.033775	0.026219	0.012983	0.025599	0.002738	0.005660	0.005766	0.017036	0.002224	0.010983	0.011919	0.007290	0.042026	0.007320	0.025670	0.022627	0.014009	0.035040	0.012072	0.028032	0.034442	0.006730	0.027137	0.019625	0.060616	0.064303	0.025715	0.057486	0.043193	0.033689	0.102288	0.092806	0.125382	0.004388	0.017798	0.017619	0.026794	0.046540	0.003908	0.041598	0.005253	0.030307	0.016154	0.027887	0.010448	0.011760	0.004339	0.025007	0.013001	0.010015	0.010736	0.009296	0.018673	0.003209	0.001826	0.041488	0.019533	0.011025	0.005161	0.004432	0.004994	0.053186	0.036476	0.001217	0.032023	0.082937	0.008167	0.031701	0.069351	0.085712	0.030859	0.040013	0.031787	0.054548	0.039499	0.044385	0.003479	0.028184	0.002967	0.048766	0.063836	0.074833	0.014330	0.007029	0.018306	0.019121	0.021732	0.017443	0.011876	0.011797	0.026469	0.004016	0.039920	0.065696	0.011811	0.003426	0.001648	0.028337	0.044786	0.053852	0.003618	0.055371	0.044447	0.030229	0.021268	0.020986	0.027907	0.013314	0.014374	0.047334	0.051847	0.069354	0.074784	0.012577	0.077153	0.006227	0.030486	0.007607	0.007771	0.000677	0.013667	0.001620	0.009492	0.025518	0.015756	0.005161	0.000185	0.023000	0.020072	0.012454	0.057566	0.035780	0.014044	0.028542	0.058513	0.016525	0.066197	0.073782	0.009260	0.011820	0.018142	0.015782	0.020514	0.027191	0.003074	0.013649	0.007763	0.004514	0.016726	0.030118	0.025491	0.067617	0.026438	0.021515	0.004375	0.023039	0.011081	0.002139	0.064722	0.042355	0.026743	0.090361	0.054818	0.022645	0.036404	0.029706	0.008777	0.014925	0.024046	0.048457	0.033534	0.013110	0.030283	0.013084	0.015379	0.005207	0.016768	0.002634	0.001999	0.027247	0.029793	0.067199	0.036968	0.094293	0.120198	0.028559	0.032112	0.029681	0.035121	0.000746	0.027304	0.032692	0.033736	0.035801	0.018457	0.017801	0.066168	0.027265	0.015211	0.012932	0.046459	0.045462	0.024618	0.040744	0.073658	0.013001	0.004996	0.012046	0.011992	0.001465	0.037222	0.074694	0.075731	0.114957	0.068277	0.157006	0.101464	0.010412	0.021701	0.036879	0.018070	0.052912	0.062612	0.076548	0.061718	0.012805	0.071223	0.096032	0.054558	0.018449	0.050154	0.032247	0.042509	0.032914	0.052931	0.053817	0.001234	0.089361	0.110316	0.015921	0.113726	0.079500	0.042077	0.057749	0.080749	0.098641	0.022393	0.046925	0.091198	0.066899	0.094519	0.155913	0.188584	0.049231	0.074792	0.000664	0.155550	0.209946	0.095571	0.068643	0.022373	0.073972	0.170505	0.134719	0.020050	0.013066	0.024822	0.081429	0.188854	0.214524	0.030571	0.012841	0.047661	0.069113	0.048562	0.100334	0.071629	0.075269	0.180314	0.024755	0.076723	0.165165	0.099361	0.014352	0.255445	0.117830	0.112903	0.253670	0.181854	0.002271	0.007147	0.165586	0.080378	0.035889	0.074405	0.046106	0.140307	0.083935	0.085237	0.270502	0.123304	0.004423	0.086474	0.062971	0.048952	0.145494	0.158182	0.037633	0.000359	0.014288	0.104886	0.065384	0.039436	0.151067	0.006358	0.092348	0.059370	0.052014	0.100357	0.132189	0.032762	0.030120	0.069990	0.179622	0.013370	0.229388	0.144346	0.219860	0.067000	0.109409	0.158161	0.048706	0.100567	0.042921	0.023733	0.019660	0.068454	0.007675	0.076470	0.009019	0.035765	0.204672	0.147138	0.011795	0.016737	0.093757	0.100081	0.134099	0.202161	0.025948	0.113483	0.226340	0.233936	0.011535	0.238374	0.200903	0.032302	0.002487	0.022367	0.088420	0.209936	0.330915	0.192326	0.180406	0.229487	0.145599	0.140801	0.169969	0.032316	0.235493	0.290279	0.114327	0.137540	0.244114	0.044428	0.060575	0.003085	0.042304	0.038573	0.094578	0.033421	0.117313	0.008318	0.083700	0.033808	0.151910	0.153613	0.097958	0.174642	0.223571	0.106903	0.089026	0.378864	0.201400	0.144575	0.045810	0.015428	0.077464	0.138154	0.017228	0.164780	0.110278	0.149944	0.150149	0.202986	0.031173	0.091958	0.028655	0.008170	0.288645	0.410170	0.325409	0.001013	0.068074	0.192374	0.124463	0.088792	0.060328	0.107702	0.089554	0.151324	0.097127	0.114353	0.038910	0.221136	0.160132	0.104329	0.032805	0.337060	0.375428	0.048083	0.413643	0.448423	0.244693	0.104467	0.085826	0.083773	0.116995	0.096312	0.083882	0.180722	0.096543	0.007932	0.215954	0.247238	0.008515	0.143221	0.174889	0.125673	0.076060	0.174381	0.092680	0.206120	0.117645	0.088344	0.376873	0.101484	0.040534	0.122662	0.024021	0.092936	0.049248	0.015679	0.053045	0.054561	0.055630	0.030679	0.102284	0.081132	0.027739	0.007775	0.027241	0.019476	0.113576	0.043482	0.184055	0.156081	0.009638	0.136859	0.222488	0.033867	0.211446	0.287321	0.031499	0.077125	0.223233	0.087619	0.024830	0.023074	0.022488	0.124737	0.036814	0.004989	0.009662	0.041002	0.008782	0.031171	0.002173	0.066860	0.082162	0.020702	0.231623	0.270364	0.091423	0.255950	0.154385	0.009455	0.111099	0.058052	0.161215	0.114348	0.015602	0.149235	0.056273	0.233853	0.186669	0.110917	0.272062	0.256682	0.094610	0.106607	0.186283	0.172805	0.146957	0.145899	0.087708	0.351917	0.219265	0.071000	0.089114	0.005855	0.075825	0.111625	0.090109	0.019492	0.030661	0.098827	0.010102	0.001782	0.013193	0.004387	0.036384	0.065651	0.150160	0.100897	0.042037	0.109619	0.245912	0.110564	0.031973	0.022597	0.001327	0.020297	0.054527	0.030558	0.046302	0.038833	0.026587	0.001347	0.002852	0.022928	0.023918	0.038520	0.044833	0.017824	0.008283	0.007406	0.038424	0.000779	0.010282	0.044525	0.034571	0.004540	0.000914	0.010903	0.025931	0.029604	0.011472	0.049692	0.039241	0.003264	0.004452	0.013587	0.012792	0.001196	0.001762	0.002862	0.001597	0.000510	0.003292	0.001631	0.010984	0.002856	0.000027	0.000390	0.006538	0.000748	0.005593	0.005763	0.006502	0.009932	0.004718	0.005652	0.000486	0.000969	0.005135	0.005110	0.017419	0.004969	0.003533	0.011326	0.016155	0.002982	0.000568	0.012320	0.021156	0.005799	0.046257	0.004556	0.063731	0.027192	0.004605	0.008071	0.019391	0.074351	0.039905	0.007744	0.030220	0.033944	0.052436	0.040279	0.024500	0.018154	0.002143	0.022287	0.000340	0.000408	0.001954	0.016666	0.005550	0.007846	0.015985	0.025153	0.036107	0.010389	0.061089	0.025664	0.017657	0.018294	0.012843	0.005388	0.004439	0.020959	0.027029	0.011202	0.007845	0.029766	0.013329	0.027767	0.021617	0.004509	0.043868	0.047193	0.049083	0.014491	0.008587	0.001085	0.021492	0.042530	0.045548	0.040372	0.015650	0.049181	0.037530	0.007976	0.010514	0.005223	0.013886	0.011162	0.012657	0.008349	0.014209	0.006073	0.018858	0.006305	0.000873	0.006097	0.001989	0.000259	0.011989	0.019921	0.004086	0.013803	0.011666	0.000740	0.013109	0.028185	0.032500	0.014467	0.060997	0.061945	0.026562	0.024499	0.025281	0.030154	0.022193	0.030129	0.031303	0.044492	0.032731	0.031908	0.024071	0.008384	0.060555	0.037027	0.003543	0.019768	0.007204	0.008351	0.003207	0.019636	0.045034	0.041064	0.013396	0.000040	0.017348	0.017474	0.027088	0.002809	0.003571	0.009532	0.021183	0.040983	0.011868	0.042475	0.046225	0.036409	0.008913	0.003033	0.009027	0.019214	0.032020	0.056451	0.057846	0.031081	0.099037	0.071524	0.015454	0.025018	0.017431	0.004225	0.017776	0.010621	0.018908	0.004287	0.017062	0.006462	0.012236	0.013688	0.003435	0.009323	0.002814	0.033880	0.007687	0.009266	0.019397	0.081248	0.048085	0.033240	0.125780	0.138744	0.009038	0.010077	0.004273	0.018562	0.040362	0.037772	0.026679	0.007747	0.015782	0.007773	0.000998	0.001743	0.010055	0.000031	0.004728	0.006753	0.018840	0.016428	0.015467	0.057779	0.006792	0.004428	0.001749	0.018893	0.004795	0.009244	0.004739	0.006187	0.004825	0.010718	0.009061	0.006559	0.000041	0.015677	0.002267	0.005398	0.001250	0.005714	0.011204	0.008139	0.002278	0.001529	0.039757	0.027525	0.005940	0.037420	0.043670	0.044645	0.004997	0.025792	0.033742	0.027612	0.005142	0.017675	0.007370	0.017370	0.018465	0.019768	0.019552	0.003849	0.053411	0.054204	0.024694	0.016648	0.021233	0.027376	0.052011	0.058454	0.027879	0.059171	0.059336	0.060143	0.012030	0.004834	0.011743	0.025483	0.024549	0.014333	0.022881	0.065279	0.005800	0.050269	0.089294	0.057887	0.023350	0.037527	0.000296	0.020755	0.024017	0.010845	0.008762	0.002382	0.018825	0.016905	0.015305	0.004967	0.018363	0.002020	0.014434	0.000471	0.001393	0.005689	0.002011	0.032535	0.020441	0.051409	0.060993	0.039922	0.031903	0.033924	0.023929	0.010338	0.037914	0.000906	0.012155	0.011831	0.054484	0.043831	0.044789	0.004004	0.028325	0.048120	0.013636	0.005110	0.030843	0.030485	0.006394	0.019891	0.015663	0.000724	0.002170	0.011865	0.004345	0.005347	0.023592	0.024165	0.002726	0.026307	0.004529	0.018170	0.006564	0.052683	0.055171	0.027896	0.031481	0.080674	0.069484	0.029666	0.061376	0.007487	0.057212	0.038086	0.003913	0.002250	0.020183	0.090553	0.141513	0.052881	0.071610	0.239237	0.169951	0.047497	0.156241	0.231725	0.200960	0.010459	0.082514	0.167802	0.032414	0.117461	0.289119	0.087351	0.018834	0.001459	0.043190	0.060817	0.017337	0.091967	0.030190	0.018297	0.005126	0.158763	0.110195	0.011375	0.085539	0.025478	0.077104	0.127034	0.141414	0.034408	0.111270	0.020273	0.083178	0.115794	0.036188	0.119501	0.005697	0.021278	0.046715	0.165801	0.084667	0.121374	0.029624	0.196774	0.066274	0.011897	0.040702	0.064526	0.123948	0.114861	0.091070	0.034133	0.039075	0.057058	0.097552	0.048128	0.078436	0.142445	0.096569	0.098268	0.000302	0.000297	0.024336	0.035249	0.025930	0.010354	0.012907	0.015231	0.010507	0.015855	0.032214	0.010576	0.023273	0.042015	0.005578	0.003704	0.072551	0.006528	0.034886	0.113307	0.064879	0.005121	0.009633	0.009798	0.004488	0.010534	0.028041	0.053112	0.002669	0.060034	0.002646	0.044054	0.051796	0.018341	0.025200	0.036568	0.040669	0.047767	0.034780	0.016848	0.000591	0.040357	0.032255	0.033822	0.068647	0.081987	0.120056	0.188120	0.048870	0.034841	0.017136	0.070514	0.020023	0.041793	0.005398	0.017945	0.003609	0.016030	0.012814	0.011388	0.005148	0.005287	0.000944	0.028249	0.017249	0.018706	0.006553	0.009985	0.002298	0.028977	0.056193	0.037401	0.007236	0.010720	0.067438	0.069198	0.085104	0.012494	0.005616	0.012478	0.053142	0.173006	0.214443	0.207040	0.066453	0.258151	0.252015	0.038538	0.116447	0.093750	0.286961	0.408103	0.048565	0.449305	0.577534	0.344540	0.055519	0.040326	0.101832	0.130124	0.031803	0.125500	0.143874	0.142679	0.224303	0.106109	0.031606	0.156756	0.195277	0.111806	0.092751	0.042523	0.084824	0.093837	0.077731	0.081892	0.073694	0.090301	0.291621	0.146081	0.016005	0.229387	0.259925	0.164415	0.044344	0.135123	0.239113	0.035791	0.147537	0.009322	0.006124	0.059575	0.015820	0.070205	0.083840	0.123892	0.019576	0.042405	0.057772	0.004925	0.055864	0.079823	0.136093	0.082917	0.155867	0.043741	0.099509	0.199880	0.235659	0.044069	0.001524	0.068164	0.088814	0.047311	0.074467	0.046984	0.020297	0.026170	0.021524	0.077058	0.009628	0.014509	0.089622	0.026090	0.111203	0.043518	0.124145	0.046794	0.049604	0.006167	0.027474	0.019443	0.041822	0.014996	0.038909	0.034484	0.044686	0.000449	0.021958	0.012074	0.001562	0.008013	0.002486	0.018639	0.002015	0.001358	0.025586	0.008197	0.042179	0.007307	0.010973	0.010947	0.007479	0.015692	0.045010	0.009959	0.030407	0.046530	0.046140	0.027984	0.069948	0.011843	0.017378	0.011397	0.031595	0.064903	0.014030	0.013134	0.015669	0.019998	0.004019	0.024552	0.013655	0.003388	0.020156	0.032774	0.029033	0.000702	0.039355	0.048429	0.040777	0.004154	0.068261	0.075891	0.013216	0.044804	0.034211	0.014793	0.025640	0.078334	0.086921	0.026578	0.005820	0.125765	0.119234	0.094376	0.081267	0.133870	0.124970	0.000044	0.149936	0.137523	0.138474	0.087413	0.105195	0.043343	0.040397	0.121152	0.035977	0.162770	0.120071	0.004917	0.080790	0.031528	0.069693	0.087503	0.034073	0.055368	0.154483	0.226307	0.265562	0.185974	0.064518	0.189127	0.284844	0.208294	0.061853	0.222957	0.126521	0.259079	0.353343	0.190192	0.307937	0.313115	0.018851	0.505083	0.124745	0.215393	0.586898	0.054268	0.752930	0.651787	0.001045	0.099695	0.163443	0.275818	0.102614	0.151546	0.252402	0.055861	0.279937	0.444429	0.473473	0.126122	0.535491	0.707236	0.253456	0.110740	0.046011	0.266433	0.269755	0.143506	0.116540	0.136442	0.015553	0.018469	0.001090	0.043856	0.126544	0.110573	0.044054	0.051214	0.058733	0.064785	0.022837	0.012667	0.018014	0.055822	0.077303	0.060308	0.028087	0.013997	0.014108	0.056190	0.155674	0.074117	0.004210	0.118877	0.084935	0.062664	0.075117	0.055392	0.028079	0.065383	0.177229	0.260887	0.136893	0.426535	0.257500	0.014598	0.049297	0.004660	0.112111	0.061984	0.036302	0.015778	0.013470	0.057958	0.098576	0.085142	0.013626	0.057012	0.103217	0.005038	0.011811	0.067469	0.052297	0.001633	0.011231	0.014993	0.010220	0.041137	0.015218	0.070764	0.027640	0.028916	0.013535	0.026999	0.088910	0.001716	0.022116	0.002376	0.003621	0.062039	0.051673	0.000513	0.056964	0.075669	0.031145	0.057905	0.059369	0.034317	0.087371	0.047210	0.020542	0.092211	0.026993	0.045025	0.081578	0.014995	0.085837	0.033411	0.038531	0.019567	0.004414	0.022486	0.013785	0.141975	0.051677	0.023451	0.099383	0.051708	0.051554	0.103940	0.139767	0.093439	0.193198	0.289269	0.355930	0.207676	0.199925	0.336319	0.432638	0.029774	0.182837	0.058535	0.205697	0.148111	0.019919	0.199129	0.353709	0.013987	0.346721	0.303910	0.174839	0.143058	0.137634	0.104322	0.012727	0.022828	0.034897	0.124945	0.078370	0.051465	0.096475	0.017489	0.184317	0.347919	0.004812	0.269417	0.605319	0.190399	0.205260	0.205202	0.113399	0.192095	0.070584	0.090891	0.102762	0.051863	0.095462	0.042146	0.028444	0.102005	0.030254	0.059397	0.003682	0.011719	0.014966	0.084522	0.141529	0.147946	0.191238	0.087268	0.223873	0.228027	0.021190	0.130217	0.035687	0.053311	0.089560	0.167558	0.091467	0.059653	0.071224	0.082205	0.013228	0.014849	0.072690	0.058622	0.002901	0.077460	0.045757	0.018726	0.045207	0.030181	0.029490	0.005484	0.024037	0.040186	0.026926	0.001130	0.009078	0.012800	0.012130	0.005984	0.032959	0.004005	0.017078	0.007168	0.033753	0.049690	0.015264	0.059493	0.013026	0.000865	0.071580	0.002955	0.091708	0.059809	0.009008	0.035883	0.059101	0.022948	0.009297	0.031706	0.009085	0.055272	0.084940	0.023504	0.094914	0.012471	0.009808	0.066319	0.017009	0.004340	0.008565	0.060584	0.048962	0.006415	0.043489	0.002955	0.009785	0.012017	0.013192	0.037443	0.021049	0.019882	0.023987	0.048269	0.053767	0.000538	0.055719	0.150436	0.009477	0.167536	0.121551	0.005776	0.048278	0.020195	0.016106	0.031039	0.013387	0.185822	0.165976	0.007064	0.213517	0.256920	0.158438	0.021543	0.042501	0.044308	0.045957	0.082377	0.095969	0.159655	0.131387	0.035864	0.047342	0.099691	0.006662	0.092378	0.138492	0.153954	0.067924	0.293157	0.282102	0.038642	0.243046	0.067574	0.049091	0.028967	0.244219	0.110929	0.141986	0.032103	0.050622	0.145546	0.097262	0.284339	0.033772	0.100223	0.111448	0.158755	0.308341	0.251582	0.012522	0.008068	0.050820	0.298806	0.208245	0.064516	0.239524	0.211876	0.154790	0.249541	0.034522	0.289868	0.177286	0.377712	0.499620	0.614845	0.162108	0.069061	0.181749	0.299519	0.300844	0.317991	0.214998	0.175343	0.030092	0.019892	0.054731	0.090606	0.309366	0.168127	0.340675	0.361995	0.389748	0.152499	0.106668	0.115112	0.359609	0.261435	0.047306	0.129947	0.102784	0.165665	0.134952	0.040784	0.085522	0.056107	0.009605	0.035675	0.038954	0.064316	0.065019	0.082964	0.023170	0.007143	0.035076	0.016760	0.028821	0.022668	0.003262	0.025092	0.037425	0.064310	0.061179	0.002726	0.010777	0.071547	0.060976	0.052785	0.014724	0.004906	0.045008	0.038146	0.035031	0.030681	0.024147	0.016083	0.026451	0.013858	0.005100	0.051555	0.023808	0.058541	0.091891	0.007163	0.042518	0.007033	0.110165	0.123790	0.013475	0.059978	0.087678	0.084006	0.001662	0.126639	0.093981	0.022093	0.040846	0.012175	0.023551	0.004720	0.084563	0.034467	0.032392	0.008139	0.013912	0.045316	0.042097	0.062914	0.042618	0.038468	0.012159	0.042010	0.031188	0.014559	0.009055	0.020172	0.027533	0.021966	0.059788	0.009055	0.061257	0.072376	0.055538	0.054631	0.050129	0.050512	0.041277	0.080728	0.073848	0.085520	0.157452	0.034794	0.091142	0.166945	0.070454	0.056512	0.126746	0.071557	0.121860	0.056903	0.024151	0.036115	0.069849	0.068610	0.059350	0.002357	0.029969	0.064863	0.116283	0.148484	0.150311	0.050993	0.012003	0.100856	0.086881	0.046760	0.148704	0.114122	0.007445	0.007859	0.339739	0.294021	0.372204	0.232894	0.066778	0.068915	0.409854	0.312791	0.181881	0.016735	0.213261	0.111318	0.059506	0.179165	0.253253	0.095965	0.156871	0.194479	0.060220	0.143688	0.232998	0.178395	0.159177	0.204030	0.161483	0.084928	0.214474	0.520307	0.577562	0.202690	0.069149	0.080839	0.102664	0.103786	0.143495	0.093629	0.151915	0.115085	0.057004	0.093942	0.138265	0.145242	0.051074	0.071898	0.010889	0.152627	0.210030	0.139452	0.050106	0.027675	0.051040	0.021855	0.000386	0.038538	0.137568	0.002241	0.096211	0.061675	0.041138	0.128055	0.026303	0.044788	0.102332	0.050539	0.022366	0.002522	0.007649	0.031850	0.012977	0.065566	0.053042	0.075813	0.026230	0.002608	0.055803	0.018274	0.024270	0.022692	0.024822	0.077785	0.267198	0.291303	0.040321	0.240453	0.303298	0.207451	0.118285	0.071691	0.010262	0.025337	0.010983	0.047504	0.053702	0.022049	0.076473	0.104861	0.095625	0.092758	0.063916	0.009879	0.000121	0.041269	0.014722	0.005858	0.076271	0.007388	0.072381	0.039465	0.030125	0.060120	0.050849	0.006475	0.087976	0.031966	0.016905	0.011545	0.000473	0.250383	0.233534	0.125120	0.016891	0.047908	0.116375	0.096739	0.110698	0.085863	0.086589	0.030659	0.071741	0.055375	0.036472	0.020956	0.019862	0.102629	0.133705	0.057163	0.140962	0.100687	0.009969	0.065041	0.058044	0.119698	0.276258	0.088770	0.001506	0.003696	0.064156	0.158031	0.190963	0.420102	0.388119	0.040420	0.005819	0.006169	0.287994	0.374212	0.154964	0.037140	0.057743	0.113875	0.039920	0.278449	0.257783	0.043768	0.146257	0.077826	0.055336	0.070127	0.082712	0.096879	0.008997	0.046734	0.061338	0.438664	0.443903	0.342237	1.000000	0.876476	0.008800	0.246081	0.304011	0.139476	0.051464	0.048077	0.072041	0.115259	0.023532	0.013423	0.077079	0.152691	0.088352	0.091047	0.029572	0.106735	0.071901	0.036499	0.039588	0.025213	0.008724	0.016880	0.013513	0.076789	0.099870	0.117498	0.029997	0.044818	0.041212	0.010852	0.010063	0.058563	0.016333	0.045996	0.034804	0.109331	0.104729	0.199388	0.018779	0.028235	0.012136	0.011467	0.004493	0.025123	0.088006	0.005185	0.096682	0.161355	0.054850	0.109520	0.233923	0.124791	0.018574	0.035360	0.026599	0.075147	0.055151	0.014801	0.013357	0.061014	0.079524	0.007041	0.079012	0.162390	0.110441	0.029604	0.264007	0.072051	0.013954	0.022233	0.016443	0.015695	0.033036	0.018493	0.033819	0.047670	0.026332	0.099517	0.062854	0.018136	0.081551	0.020467	0.050229	0.093101	0.140786	0.003716	0.085417	0.000714	0.093427	0.044849	0.026505	0.032694	0.018762	0.015316	0.064872	0.001158	0.059128	0.073572	0.056545	0.075712	0.052379	0.077087	0.006563	0.013178	0.011904	0.131444	0.105392	0.220554	0.249206	0.134668	0.076293	0.003654	0.052744	0.145836	0.138520	0.043743	0.001054	0.056903	0.049526	0.114100	0.012586	0.218608	0.239771	0.072272	0.007807	0.160146	0.088133	0.113979	0.030653	0.152653	0.123967	0.028908	0.138060	0.093175	0.000550	0.081771	0.015629	0.135321	0.263947	0.335826	0.116868	0.107688	0.362436	0.021257	0.023543	0.132986	0.088293	0.063610	0.034804	0.043106	0.014402	0.144638	0.170180	0.256736	0.302741	0.012955	0.203462	0.037219	0.111796	0.176321	0.016378	0.151975	0.011234	0.111531	0.072416	0.066308	0.247334	0.184557	0.248635	0.089501	0.436714	0.360124	0.041914	0.271309	0.158473	0.022846	0.226822	0.023112	0.020228	0.109086	0.022541	0.079463	0.058258	0.054790	0.011532	0.056887	0.130237	0.075572	0.142434	0.100836	0.045786	0.049965	0.020572	0.024808	0.034371	0.121213	0.138529	0.062885	0.033600	0.055753	0.043034	0.036090	0.095230	0.077750	0.032038	0.007686	0.028890	0.018844	0.019389	0.020255	0.056136	0.036240	0.003477	0.103438	0.031840	0.078503	0.002989	0.136734	0.021637	0.045464	0.080398	0.069844	0.090978	0.013664	0.094391	0.022778	0.047810	0.040806	0.032081	0.051546	0.016805	0.061979	0.081927	0.081933	0.000414	0.060174	0.060555	0.064034	0.141814	0.071781	0.009573	0.055934	0.121640	0.014492	0.007210	0.080177	0.028412	0.112994	0.024066	0.045183	0.009729	0.001225	0.032375	0.042539	0.050216	0.122261	0.042447	0.009358	0.014937	0.117513	0.129284	0.032061	0.169285	0.051420	0.047995	0.130465	0.063114	0.025856	0.033069	0.090717	0.060526	0.041291	0.029113	0.025140	0.019167	0.034182	0.036226	0.089010	0.091560	0.025534	0.006534	0.018621	0.058032	0.024300	0.003539	0.022492	0.026161	0.074262	0.162402	0.040556	0.227195	0.104217	0.092849	0.234464	0.064036	0.189046	0.210104	0.049831	0.048693	0.002775	0.149839	0.214665	0.243407	0.007422	0.018992	0.186286	0.282398	0.183084	0.436841	0.435935	0.021765	0.029716	0.058470	0.100925	0.046318	0.193938	0.171256	0.103157	0.137522	0.083886	0.183392	0.086426	0.192524	0.012213	0.552822	0.352769	0.219549	0.319982	0.181548	0.002410	0.148589	0.180781	0.046463	0.102189	0.204709	0.095719	0.056522	0.097506	0.170312	0.232230	0.003647	0.269129	0.229382	0.067223	0.230309	0.031874	0.075520	0.028266	0.122865	0.098137	0.090333	0.107023	0.025886	0.034339	0.026078	0.050840	0.072843	0.150041	0.027342	0.108660	0.085669	0.002754	0.005858	0.028773	0.118430	0.039929	0.063951	0.059648	0.036419	0.037795	0.028385	0.023693	0.049883	0.029234	0.016382	0.037923	0.125899	0.087120	0.033482	0.075017	0.032780	0.044613	0.035165	0.008200	0.030477	0.065713	0.087402	0.005251	0.133642	0.087395	0.045203	0.058483	0.016352	0.050329	0.032383	0.089634	0.036872	0.013974	0.012590	0.030695	0.078132	0.094349	0.137110	0.037861	0.010502	0.036784	0.115130	0.075858	0.036452	0.024675	0.026669	0.044311	0.057477	0.071578	0.058267	0.060217	0.132737	0.083418	0.056903	0.040465	0.030544	0.046689	0.052559	0.006614	0.008114	0.013374	0.070185	0.030280	0.026800	0.013680	0.022959	0.046428	0.007536	0.048436	0.016907	0.061440	0.108257	0.031505	0.146509	0.029851	0.016141	0.292579	0.069800	0.220606	0.243460	0.213472	0.200120	0.082524	0.037647	0.033003	0.099708	0.092747	0.131176	0.157402	0.080823	0.057826	0.047624	0.213939	0.265360	0.262130	0.147217	0.139208	0.680396	0.736910	0.402645	0.087698	0.350151	0.184083	0.022177	0.110340	0.192792	0.424031	0.108400	0.387022	0.352596	0.045045	0.123152	0.041095	0.007915	0.232742	0.261053	0.257371	0.245440	0.044593	0.442866	0.453071	0.208560	0.115741	0.006733	0.024802	0.127325	0.087504	0.085863	0.140970	0.188365	0.100680	0.037449	0.179514	0.087221	0.096856	0.120568	0.154330	0.032444	0.105413	0.032567	0.148716	0.018709	0.131029	0.100653	0.144500	0.006397	0.148203	0.094683	0.115541	0.034162	0.088630	0.072806	0.044826	0.059033	0.121653	0.041122	0.011439	0.035671	0.174716	0.249076	0.000687	0.192531	0.315145	0.347290	0.105284	0.127757	0.045227	0.093428	0.152869	0.058004	0.282747	0.149129	0.085280	0.295200	0.257661	0.069229	0.158515	0.204738	0.178707	0.094290	0.084744	0.007136	0.144627	0.204365	0.127227	0.218639	0.051428	0.071337	0.156109	0.675016	0.520119	0.247222	0.059115	0.295995	0.682818	0.387057	0.235943	0.883887	0.448262	0.116330	0.160405	0.214574	0.209534	0.199147	0.070447	0.006635	0.038995	0.040697	0.034465	0.096403	0.094423	0.217956	0.260320	0.024329	0.250732	0.371644	0.124085	0.055690	0.020388	0.102087	0.185970	0.078604	0.150948	0.001909	0.083099	0.072090	0.011291	0.056003	0.122515	0.168281	0.061798	0.008641	0.044257	0.124296	0.023132	0.087814	0.020263	0.029584	0.020647	0.058925	0.052221	0.159951	0.418242	0.296792	0.072194	0.595565	0.454336	0.108671	0.007129	0.054571	0.272221	0.335211	0.396281	0.267420	0.077542	0.475767	0.552712	0.338070	0.268004	0.441714	0.106435	0.170903	0.268299	0.096734	0.024119	0.100893	0.206970	0.006297	0.049110	0.047624	0.096745	0.122147	0.002565	0.128822	0.005704	0.136325	0.050969	0.011912	0.009238	0.015895	0.007168	0.007675	0.009198	0.004678	0.060876	0.001064	0.055515	0.064791	0.055897	0.096849	0.071887	0.004796	0.059557	0.034335	0.031624	0.061392	0.000273	0.007345	0.004384	0.001644	0.106045	0.024713	0.111806	0.020625	0.102153	0.000159	0.118668	0.026981	0.085278	0.019982	0.045231	0.176516	0.164479	0.019524	0.017585	0.013820	0.058715	0.054225	0.048858	0.044637	0.066569	0.047865	0.032871	0.005062	0.010816	0.012530	0.220569	0.099748	0.041050	0.128089	0.172299	0.106127	0.063211	0.029357	0.042426	0.007189	0.106802	0.004674	0.083734	0.039292	0.009710	0.049479	0.042698	0.042501	0.075367	0.020731	0.034291	0.004105	0.018664	0.008283	0.013015	0.001479	0.069343	0.156903	0.060095	0.191572	0.113948	0.092347	0.017239	0.057206	0.012907	0.015614	0.066251	0.083727	0.021406	0.005666	0.128281	0.058284	0.006544	0.021370	0.025358	0.053930	0.023589	0.125602	0.020999	0.059746	0.043412	0.020288	0.030626	0.018515	0.009936	0.061792	0.108388	0.040211	0.010329	0.123584	0.105472	0.001712	0.074802	0.089426	0.124772	0.029590	0.218442	0.184265	0.128085	0.059534	0.018237	0.060179	0.055601	0.113884	0.033357	0.049875	0.071576	0.009652	0.059175	0.029382	0.082399	0.036707	0.031619	0.010084	0.027620	0.001047	0.005968	0.042493	0.029089	0.189917	0.153233	0.103448	0.132351	0.089574	0.303284	0.522515	0.373011	0.187512	0.044048	0.206190	0.349684	0.178258	0.004752	0.209441	0.060006	0.102688	0.215864	0.319859	0.234274	0.090750	0.140437	0.319979	0.381728	0.100303	0.050644	0.229971	0.274121	0.214923	0.006190	0.113167	0.230684	0.189214	0.000487	0.037363	0.098725	0.209883	0.049356	0.230585	0.178480	0.221686	0.093340	0.270173	0.318781	0.048920	0.071684	0.080826	0.175004	0.122699	0.119598	0.032030	0.086223	0.159827	0.112308	0.405430	0.296158	0.064785	0.142189	0.191357	0.265743	0.116188	0.245028	0.198999	0.293486	0.046432	0.146541	0.127618	0.072755	0.087628	0.152941	0.146785	0.201089	0.245252	0.179153	0.159103	0.244235	0.058293	0.110186	0.091720	0.080156	0.002026	0.084843	0.082809	0.033618	0.080372	0.105887	0.015301	0.348655	0.166915	0.004168	0.023511	0.024120	0.024207	0.073955	0.147347	0.029162	0.267335	0.377994	0.184293	0.214807	0.329998	0.201600	0.038181	0.099027	0.202383	0.013455	0.055881	0.223694	0.169929	0.007459	0.064688	0.202157	0.025934	0.031807	0.161564	0.393129	0.331190	0.362477	0.798444	0.480815	0.018398	0.233142	0.249841	0.132175	0.355315	0.001730	0.199365	0.423792	0.079897	0.148267	0.346799	0.386589	0.151525	0.397518	0.338415	0.140186	0.023501	0.126587	0.263213	0.054501	0.070608	0.032255	0.052483	0.131179	0.135227	0.085150	0.055546	0.253766	0.256852	0.041424	0.111859	0.295804	0.212690	0.132770	0.214105	0.442476	0.322053	0.380296	0.522650	0.294961	0.073318	0.069472	0.271913	0.315865	0.013291	0.024756	0.271767	0.173016	0.030226	0.094696	0.178655	0.272505	0.123612	0.184418	0.203589	0.052929	0.112007	0.125884	0.082493	0.063858	0.093415	0.427991	0.288880	0.327895	0.698668	0.423920	0.185586	0.132133	0.053743	0.119318	0.306461	0.290382	0.130237	0.060528	0.008896	0.009762	0.022942	0.018773	0.001877	0.049965	0.054439	0.009999	0.025601	0.018096	0.088492	0.011700	0.002758	0.024641	0.167448	0.034204	0.176953	0.034057	0.027955	0.121895	0.074517	0.065361	0.126296	0.053555	0.037036	0.111762	0.121551	0.094184	0.127852	0.026734	0.084668	0.083264	0.086299	0.095272	0.017942	0.062712	0.065134	0.112578	0.006336	0.023590	0.057892	0.003010	0.036056	0.070693	0.145147	0.013493	0.279630	0.167513	0.076284	0.036566	0.004129	0.038817	0.071527	0.135851	0.043333	0.056679	0.025201	0.036047	0.053372	0.027830	0.036237	0.054948	0.082245	0.056458	0.079171	0.094390	0.014090	0.086163	0.006354	0.048832	0.034365	0.149453	0.036150	0.106624	0.102654	0.127835	0.027596	0.098582	0.029615	0.023939	0.020081	0.021339	0.025068	0.007230	0.023782	0.034946	0.004736	0.044057	0.048821	0.011811	0.024531	0.049846	0.010445	0.003371	0.004059	0.005200	0.012156	0.086032	0.091419	0.012176	0.004870	0.099417	0.076465	0.060025	0.083626	0.067902	0.031683	0.040445	0.000053	0.009408	0.032931	0.004695	0.104146	0.119457	0.123353	0.014598	0.013038	0.137183	0.134313	0.020119	0.065040	0.056051	0.015154	0.001298	0.024700	0.030288	0.042736	0.025037	0.062507	0.015764	0.067089	0.016385	0.051418	0.020272	0.002696	0.067044	0.035045	0.079884	0.037430	0.038285	0.025953	0.071113	0.006324	0.060565	0.113275	0.039646	0.078050	0.035936	0.055853	0.027453	0.018629	0.087561	0.319926	0.026492	0.318899	0.204792	0.158978	0.029099	0.028669	0.061222	0.060395	0.063583	0.045158	0.053290	0.073043	0.077655	0.013993	0.042863	0.033863	0.026247	0.020653	0.003758	0.023478	0.015899	0.039802	0.057791	0.033468	0.068510	0.006589	0.045156	0.050285	0.007737	0.157779	0.017819	0.100206	0.073557	0.008955	0.044629	0.066793	0.058962	0.010074	0.032880	0.032990	0.080145	0.014522	0.067420	0.054443	0.008229	0.013203	0.009600	0.022246	0.054379	0.024692	0.043118	0.060680	0.036091	0.022948	0.012094	0.014409	0.004254	0.127925	0.171912	0.079297	0.013595	0.070460	0.104726	0.074662	0.008462	0.022013	0.004523	0.040509	0.052826	0.176290	0.064329	0.034799	0.047704	0.046678	0.006966	0.175208	0.155915	0.026596	0.074956	0.083609	0.031880	0.005500	0.160264	0.014392	0.178195	0.415216	0.153798	0.197561	0.062323	0.281224	0.394631	0.255053	0.076800	0.465617	0.155269	0.130918	0.104562	0.059155	0.082104	0.022529	0.097332	0.053240	0.096762	0.004492	0.170854	0.277205	0.125708	0.297889	0.571308	0.496491	0.198399	0.107797	0.098888	0.240522	0.316393	0.262227	0.064111	0.063704	0.002439	0.124886	0.005253	0.094598	0.053971	0.105738	0.123592	0.075064	0.077473	0.124956	0.117248	0.083059	0.090454	0.068284	0.169804	0.109783	0.075561	0.047830	0.044366	0.081895	0.010963	0.003119	0.029209	0.217401	0.303287	0.243024	0.139692	0.400411	0.402687	0.060006	0.090264	0.152178	0.226769	0.161451	0.029439	0.188636	0.373632	0.192347	0.054185	0.103653	0.106772	0.133754	0.156782	0.234215	0.078784	0.256286	0.024187	0.035552	0.091704	0.019157	0.144539	0.124008	0.106857	0.188052	0.106180	0.081878	0.002482	0.066655	0.084293	0.237946	0.321072	0.195287	0.353074	0.280269	0.148700	0.243007	0.098631	0.125653	0.366149	0.207038	0.149483	0.259024	0.027289	0.111898	0.031211	0.014636	0.130556	0.243087	0.052463	0.022312	0.001891	0.016792	0.111763	0.222453	0.158460	0.117159	0.164994	0.139905	0.367708	0.276814	0.011227	0.177599	0.197757	0.116657	0.036793	0.073035	0.005150	0.036818	0.021868	0.049851	0.069801	0.170312	0.304267	0.009516	0.261184	0.265938	0.079367	0.110676	0.078955	0.126859	0.261002	0.157732	0.046729	0.269237	0.211544	0.133397	0.027206	0.167524	0.167003	0.117373	0.216175	0.092563	0.224552	0.258098	0.032318	0.094327	0.050469	0.260234	0.234599	0.112750	0.259919	0.164274	0.050661	0.095906	0.143200	0.162045	0.211099	0.291757	0.193097	0.274088	0.363442	0.464050	0.327340	0.071763	0.170758	0.376903	0.458576	0.002599	0.222954	0.353799	0.181343	0.010712	0.053405	0.003879	0.317485	0.351012	0.235608	0.487698	0.213475	0.144665	0.185983	0.310640	0.262056	0.071760	0.160006	0.193622	0.174982	0.207488	0.376234	0.157069	0.228924	0.519524	0.228068	0.017536	0.294688	0.529485	0.158836	0.463060	0.597740	0.056043	0.059030	0.100773	0.145431	0.248827	0.161478	0.011355	0.210063	0.057908	0.059734	0.082987	0.128765	0.222925	0.156250	0.180758	0.365043	0.195547	0.101361	0.056292	0.085191	0.081179	0.159504	0.061563	0.025671	0.011630	0.022671	0.120857	0.015261	0.141319	0.117454	0.181414	0.026856	0.108234	0.159649	0.158199	0.231793	0.380538	0.048011	0.513412	0.691947	0.252072	0.043492	0.204385	0.158867	0.017644	0.002945	0.189487	0.143508	0.146343	0.041987	0.235364	0.279186	0.093770	0.081461	0.403810	0.250777	0.077942	0.315072	0.281578	0.310085	0.084525	0.253485	0.159647	0.145430	0.017871	0.081851	0.128186	0.040385	0.078645	0.152204	0.168077	0.162361	0.116063	0.013117	0.239103	0.475883	