1
20467 1
-0.012064	-0.100629	-0.059149	0.038384	0.018205	-0.009822	-0.012064	-0.015427	-0.012064	0.027174	0.035021	0.050717	0.023811	-0.004216	-0.019912	0.000268	0.028295	0.049595	0.004752	-0.003095	-0.023275	-0.045696	-0.019912	-0.024396	-0.010943	0.012599	0.047353	0.026052	0.014842	-0.051302	-0.054665	-0.023275	0.038384	0.050717	0.041748	0.012599	0.020447	-0.010943	-0.008700	-0.009822	0.029416	0.029416	-0.046818	-0.060271	-0.015427	0.054079	0.021568	0.030537	-0.097266	-0.045696	-0.027759	0.008115	0.068654	-0.036727	0.008115	0.006994	0.048474	0.009237	0.011478	-0.017669	0.015963	0.036143	0.000268	0.000268	-0.036727	-0.024396	-0.021033	-0.064755	-0.014306	-0.005338	0.048474	-0.004216	0.055201	0.015963	-0.031122	-0.004216	0.010358	0.014842	0.079864	0.114618	-0.027759	-0.097266	-0.105113	-0.014306	-0.016548	0.067532	-0.035606	-0.034486	0.002510	0.015963	0.073138	0.046232	0.072016	0.015963	-0.050180	-0.071481	-0.050180	-0.027759	-0.021033	0.047353	0.154977	0.183003	0.092196	-0.110719	-0.195920	-0.084934	-0.041212	-0.050180	0.011478	0.050717	0.084348	0.113497	0.061927	0.033900	-0.063633	-0.144351	-0.078208	0.069775	0.036143	0.023811	0.039505	0.043990	-0.003095	0.021568	0.052958	0.014842	0.002510	0.027174	0.131434	0.028295	0.047353	-0.087176	-0.213857	-0.106235	-0.008700	0.054079	-0.007580	-0.004216	0.008115	0.052958	0.028295	-0.028880	-0.077086	-0.068117	0.052958	0.059685	0.042869	0.041748	0.035021	0.103407	0.022690	-0.041212	-0.009822	-0.003095	-0.022153	-0.055786	-0.045696	0.023811	0.243541	0.330985	0.075380	-0.169014	-0.292333	-0.318118	-0.166773	-0.017669	0.098922	0.128071	0.052958	-0.101750	-0.156683	0.017084	0.114618	0.079864	0.143765	0.098922	-0.031122	0.027174	-0.134261	-0.023275	0.074259	0.215515	0.287264	0.123586	-0.198163	-0.237400	-0.276638	-0.049059	-0.119688	-0.003095	0.056322	0.209909	0.080985	0.008115	-0.030001	-0.059149	0.017084	-0.086055	-0.017669	-0.103992	0.009237	0.032779	0.140402	0.268205	0.188609	-0.162288	-0.276638	-0.191436	-0.043454	0.014842	0.253631	0.251389	0.075380	-0.244127	-0.339418	-0.117445	0.110134	0.150492	0.134797	0.061927	0.046232	-0.036727	-0.024396	-0.054665	-0.164530	-0.083813	0.112375	0.221120	0.207667	-0.005338	-0.281122	-0.260943	-0.130898	0.084348	-0.016548	0.177398	0.142645	0.000268	-0.006459	-0.114081	-0.024396	0.042869	0.023811	-0.038970	-0.023275	0.028295	-0.061391	-0.069239	0.075380	0.144886	0.104528	0.064169	0.014842	-0.202647	-0.219463	0.117981	0.400492	0.236815	-0.133141	-0.297939	-0.010943	0.109013	-0.272154	-0.424620	-0.394351	-0.022153	0.143765	0.205425	0.256994	0.187488	0.031658	0.040627	0.012599	0.143765	0.126949	0.039505	-0.034486	-0.031122	-0.214979	-0.128656	0.024931	0.094438	0.481209	0.637039	0.157218	-0.256459	-0.653320	-0.764306	-0.430226	-0.284486	-0.030001	0.246905	0.379192	0.355649	0.132555	-0.052423	-0.052423	0.109013	-0.025517	-0.054665	0.106770	0.298474	0.199819	-0.026638	-0.311392	-0.299059	-0.086055	0.012599	0.141524	0.412824	0.291748	0.138160	-0.203768	-0.401077	-0.185831	-0.170136	-0.144351	-0.031122	0.183003	0.262599	0.157218	-0.280001	-0.175741	-0.083813	0.063048	0.061927	-0.052423	0.011478	0.042869	0.074259	-0.015427	-0.023275	0.018205	0.137039	0.278295	0.150492	-0.050180	-0.211616	-0.180225	-0.047939	0.249146	0.388160	-0.008700	-0.284486	-0.373050	-0.137625	0.074259	0.012599	-0.195920	0.072016	0.254752	0.106770	-0.123050	-0.253095	-0.137625	-0.112961	-0.049059	0.129192	0.152734	0.226725	0.184124	0.048474	-0.013185	-0.001974	0.066411	0.067532	0.169550	0.166187	0.060806	-0.346144	-0.145472	0.150492	0.104528	-0.209373	0.046232	-0.038970	-0.364082	-0.229553	-0.077086	0.249146	0.447577	0.094438	-0.139867	-0.403320	-0.296818	-0.071481	0.162824	0.178519	0.240178	0.208788	-0.017669	-0.072602	-0.027759	0.109013	0.133676	0.198698	0.091075	-0.108476	-0.143230	0.032779	-0.166773	-0.100629	0.135918	0.017084	-0.117445	-0.158925	-0.064755	0.060806	-0.004216	0.102286	-0.109597	-0.101750	-0.297939	-0.223948	0.027174	0.270447	0.251389	0.139281	0.011478	-0.019912	0.027174	0.061927	0.165066	0.241300	0.379192	0.096681	-0.286727	-0.399956	-0.376414	0.011478	0.254752	0.017084	-0.118566	0.045111	-0.031122	0.061927	0.189729	0.020447	-0.049059	-0.128656	-0.027759	-0.153320	-0.072602	-0.078208	-0.099508	0.088833	0.122465	0.153855	0.132555	0.069775	0.170671	0.097801	-0.014306	-0.170136	-0.154440	-0.000854	0.095560	0.066411	-0.145472	-0.123050	0.188609	0.393765	0.195335	-0.370809	-0.467221	-0.300180	-0.126414	0.104528	0.178519	0.156098	0.302958	0.013721	-0.028880	-0.190315	-0.119688	0.066411	0.020447	0.130312	0.067532	0.142645	-0.018790	-0.095023	-0.111840	-0.092782	0.176276	0.274932	0.186367	0.091075	-0.253095	-0.319238	-0.179105	0.202062	0.100044	-0.004216	0.054079	-0.127534	-0.240763	-0.201526	0.093317	0.190851	0.091075	-0.053544	-0.152199	-0.176862	-0.167893	0.042869	0.159461	0.175156	0.088833	0.070895	0.024931	0.005873	0.096681	0.124707	0.190851	0.092196	-0.022153	-0.244127	-0.230674	-0.320360	0.183003	0.532779	0.343317	-0.450404	-0.503096	-0.351750	-0.046818	0.045111	0.057442	0.076501	0.022690	0.035021	0.072016	0.015963	0.043990	0.107891	0.058564	0.149371	-0.018790	-0.016548	-0.000854	0.102286	0.286142	0.059685	-0.165652	-0.250853	-0.090539	-0.078208	-0.059149	-0.017669	0.144886	0.184124	-0.010943	-0.334934	-0.247490	-0.062512	0.163945	0.116859	0.043990	-0.052423	-0.031122	0.045111	-0.023275	-0.000854	0.080985	0.179640	0.203182	0.204304	0.058564	-0.222826	-0.337176	-0.155562	0.128071	0.239057	0.109013	-0.115203	-0.172378	-0.083813	-0.173499	-0.062512	-0.055786	0.022690	0.186367	0.263721	-0.001974	-0.129777	-0.027759	0.100044	-0.229553	-0.237400	-0.096145	0.052958	0.119102	0.114618	0.129192	0.023811	0.036143	0.176276	0.234573	0.010358	-0.249732	-0.284486	0.143765	0.431882	0.355649	-0.265428	-0.634262	-0.630898	-0.033365	0.378071	0.152734	-0.221705	-0.451526	-0.189194	0.111254	0.273811	0.315290	0.202062	-0.012064	-0.005338	0.048474	0.048474	0.023811	0.048474	0.119102	0.067532	0.105649	0.052958	0.032779	-0.274396	-0.218342	-0.105113	0.242420	0.197577	-0.123050	-0.164530	-0.287849	-0.100629	0.011478	-0.028880	0.085469	0.153855	-0.026638	-0.154440	-0.248611	0.147129	0.162824	0.095560	-0.034486	0.078743	0.101165	0.103407	0.069775	0.138160	0.188609	0.038384	-0.234037	-0.180225	-0.095023	0.079864	0.167308	0.253631	0.123586	-0.073724	-0.419014	-0.673499	-0.204889	0.076501	0.107891	0.309685	0.483452	0.462151	-0.136503	-0.544575	-0.470584	0.005873	0.366860	0.338833	0.052958	-0.310270	-0.255337	-0.135382	-0.072602	0.005873	0.110134	0.107891	0.142645	0.241300	0.222240	0.176276	-0.054665	-0.097266	0.030537	-0.012064	-0.103992	-0.092782	-0.144351	-0.112961	0.172914	0.101165	-0.202647	-0.206011	-0.119688	-0.114081	0.027174	0.119102	0.041748	0.078743	0.214394	0.262599	0.012599	-0.147714	-0.308028	-0.189194	0.031658	0.095560	0.157218	0.177398	0.073138	0.057442	0.017084	-0.060271	-0.082692	-0.017669	0.068654	0.083228	0.054079	0.017084	-0.068117	-0.188073	0.307443	0.258115	-0.249732	-0.503096	-0.429105	0.094438	0.178519	0.043990	-0.000854	-0.018790	-0.121929	-0.105113	-0.016548	0.056322	0.093317	0.199819	0.180761	0.109013	0.009237	-0.087176	-0.008700	0.097801	0.222240	0.190851	-0.042333	-0.305786	-0.236279	-0.038970	-0.068117	0.186367	0.270447	0.117981	-0.209373	-0.579329	-0.429105	0.020447	0.209909	0.280537	0.068654	-0.023275	-0.101750	-0.003095	-0.066997	0.039505	0.093317	0.079864	0.125828	0.115739	0.198698	0.043990	-0.014306	-0.214979	-0.162288	-0.116324	0.040627	0.084348	0.024931	0.188609	0.003631	-0.173499	-0.075965	-0.160046	0.069775	0.073138	0.067532	0.073138	0.171792	0.313048	-0.022153	-0.216100	-0.384262	-0.191436	0.030537	0.086591	-0.010943	-0.019912	0.006994	0.026052	-0.080450	-0.078208	0.060806	0.147129	0.261479	0.116859	-0.130898	-0.217221	-0.208252	0.009237	0.074259	-0.025517	0.111254	0.245784	0.308563	0.050717	-0.130898	-0.222826	-0.138746	-0.084934	-0.035606	0.072016	0.096681	0.140402	0.051837	0.049595	-0.080450	-0.121929	-0.237400	0.012599	0.176276	0.112375	0.039505	0.040627	-0.005338	-0.009822	-0.023275	-0.235158	-0.106235	0.166187	0.196456	0.110134	-0.037849	-0.273274	-0.115203	0.102286	0.270447	0.153855	-0.247490	-0.386503	-0.116324	0.129192	0.258115	0.272689	0.225604	0.104528	-0.175741	-0.145472	-0.275517	-0.294575	-0.123050	0.249146	0.447577	0.241300	-0.286727	-0.392108	-0.250853	0.001389	0.119102	0.028295	0.113497	0.225604	0.350043	0.281658	-0.013185	-0.407804	-0.431346	-0.158925	0.158339	0.193093	0.169550	0.280537	0.038384	-0.035606	-0.305786	-0.440315	-0.184710	0.065290	0.187488	0.262599	0.098922	0.038384	-0.074844	-0.040091	0.021568	0.033900	0.193093	0.082107	0.080985	-0.189194	-0.194799	0.045111	0.204304	-0.047939	-0.318118	-0.221705	0.102286	0.241300	0.235693	0.110134	-0.211616	-0.330450	-0.055786	0.028295	0.060806	0.057442	-0.035606	-0.101750	-0.009822	0.106770	0.067532	-0.017669	0.009237	0.083228	0.096681	0.125828	0.031658	-0.059149	-0.036727	0.120223	0.256994	0.286142	-0.179105	-0.403320	-0.421257	-0.051302	0.073138	0.245784	0.297353	-0.026638	-0.197042	-0.160046	-0.167893	-0.062512	0.107891	0.005873	0.018205	-0.005338	0.008115	0.042869	0.029416	0.093317	0.143765	0.083228	0.069775	0.091075	0.084348	-0.059149	-0.286727	-0.201526	0.064169	0.181883	0.050717	-0.144351	-0.130898	0.028295	0.137039	-0.030001	-0.114081	0.051837	0.049595	-0.192558	-0.172378	0.137039	0.279416	0.215515	-0.161167	-0.263185	-0.210495	0.008115	0.066411	0.084348	0.085469	0.057442	0.045111	0.067532	0.102286	0.125828	-0.008700	-0.093903	-0.112961	-0.032243	0.035021	0.080985	0.179640	0.177398	0.047353	-0.218342	-0.408925	-0.329329	-0.037849	0.051837	0.073138	0.072016	0.158339	0.120223	-0.000854	-0.012064	-0.036727	0.147129	0.109013	-0.058028	0.041748	0.017084	-0.022153	-0.135382	-0.101750	0.035021	0.004752	-0.092782	0.031658	0.111254	0.143765	0.117981	0.035021	-0.036727	-0.200404	-0.078208	-0.106235	-0.013185	0.021568	0.026052	0.000268	-0.086055	-0.036727	0.013721	0.039505	0.130312	0.014842	0.003631	0.018205	0.042869	-0.016548	0.029416	-0.041212	0.010358	0.070895	0.096681	0.043990	-0.071481	-0.050180	-0.027759	-0.106235	-0.053544	0.070895	0.070895	0.114618	0.195335	0.011478	-0.082692	-0.189194	-0.162288	-0.133141	-0.117445	-0.015427	0.054079	0.135918	0.006994	-0.004216	0.017084	0.058564	0.060806	0.020447	0.029416	-0.014306	0.056322	-0.004216	0.046232	-0.022153	-0.009822	0.022690	0.041748	0.024931	0.067532	-0.037849	-0.128656	0.054079	0.009237	-0.206011	-0.068117	0.038384	0.027174	0.075380	0.066411	-0.038970	-0.125293	-0.074844	0.092196	0.084348	0.073138	-0.000854	-0.045696	-0.025517	0.005873	0.012599	-0.016548	0.020447	0.065290	0.074259	0.041748	-0.021033	-0.088297	-0.031122	0.103407	0.046232	-0.086055	0.019326	-0.083813	-0.059149	0.031658	0.078743	-0.086055	-0.116324	0.018205	0.112375	0.030537	-0.110719	-0.014306	0.008115	0.028295	0.052958	0.051837	0.046232	0.051837	0.048474	0.026052	-0.008700	-0.034486	-0.058028	-0.035606	-0.032243	0.012599	0.023811	0.014842	0.019326	0.038384	0.036143	0.011478	-0.079329	-0.031122	-0.021033	0.008115	0.072016	0.176276	0.052958	-0.121929	-0.182467	-0.090539	0.039505	-0.038970	-0.100629	0.003631	0.061927	0.056322	0.067532	0.052958	0.046232	0.059685	0.040627	-0.003095	-0.037849	-0.055786	-0.009822	0.026052	-0.055786	-0.007580	0.005873	0.022690	0.020447	0.010358	0.014842	0.023811	0.017084	0.017084	-0.040091	-0.066997	-0.070360	-0.006459	0.018205	-0.000854	0.024931	0.017084	0.026052	0.023811	0.075380	0.033900	-0.070360	-0.056907	-0.012064	0.037264	0.022690	0.023811	0.045111	0.026052	-0.013185	-0.018790	0.014842	0.106770	-0.003095	-0.059149	-0.091660	-0.036727	-0.101750	-0.100629	-0.004216	0.019326	0.055201	0.057442	0.059685	0.012599	-0.037849	-0.010943	0.023811	0.028295	0.013721	0.012599	0.003631	0.001389	0.009237	-0.006459	-0.004216	-0.005338	0.004752	0.008115	0.002510	0.003631	-0.016548	-0.007580	-0.023275	0.000268	0.013721	0.013721	0.110134	0.150492	-0.018790	-0.177983	-0.134261	-0.058028	0.059685	0.026052	0.013721	0.019326	0.000268	-0.027759	-0.087176	0.091075	0.107891	-0.000854	-0.053544	-0.012064	0.010358	0.014842	-0.001974	-0.021033	0.003631	0.015963	-0.010943	-0.001974	0.008115	-0.001974	0.047353	-0.034486	-0.040091	0.005873	0.004752	0.018205	-0.006459	0.013721	0.009237	-0.003095	-0.014306	0.010358	0.092196	-0.045696	-0.097266	-0.012064	0.047353	-0.024396	-0.016548	0.013721	-0.007580	0.042869	0.012599	0.014842	0.005873	-0.014306	0.042869	-0.017669	-0.054665	0.003631	-0.003095	-0.001974	0.012599	0.011478	0.015963	-0.008700	0.038384	-0.032243	-0.080450	-0.008700	0.018205	0.013721	-0.015427	0.008115	0.012599	-0.009822	0.010358	0.008115	0.004752	0.005873	-0.014306	-0.019912	0.066411	0.012599	-0.012064	0.058564	-0.001974	-0.038970	-0.124172	-0.015427	-0.018790	0.005873	-0.006459	0.004752	-0.000854	0.009237	0.006994	0.011478	0.011478	0.011478	0.003631	0.002510	0.014842	0.006994	0.002510	0.005873	-0.015427	0.003631	0.000268	0.005873	-0.001974	-0.000854	-0.001974	0.035021	0.005873	-0.036727	0.006994	0.003631	-0.009822	-0.012064	-0.012064	0.012599	-0.021033	-0.044575	0.068654	0.024931	0.010358	0.019326	0.055201	-0.009822	-0.056907	-0.023275	-0.006459	0.002510	0.008115	0.008115	0.005873	0.035021	-0.027759	-0.009822	0.012599	-0.010943	-0.016548	0.012599	0.010358	0.003631	0.011478	-0.010943	-0.000854	0.008115	-0.010943	-0.009822	0.004752	0.000268	-0.007580	0.009237	-0.004216	-0.003095	0.005873	0.002510	0.011478	0.004752	0.014842	0.001389	-0.003095	-0.007580	0.005873	-0.012064	-0.008700	0.005873	0.017084	0.040627	-0.017669	-0.036727	-0.023275	-0.005338	-0.016548	-0.001974	0.029416	0.000268	-0.004216	0.006994	-0.026638	0.008115	0.010358	-0.005338	0.008115	0.002510	0.010358	-0.012064	-0.007580	0.006994	-0.006459	-0.010943	-0.004216	0.002510	0.004752	0.013721	0.006994	0.003631	0.005873	-0.003095	0.001389	-0.000854	0.002510	-0.015427	0.002510	-0.001974	-0.034486	-0.019912	0.006994	0.005873	0.013721	0.003631	0.017084	0.013721	0.002510	0.003631	0.005873	0.008115	0.003631	-0.006459	-0.000854	-0.000854	-0.003095	0.000268	0.002510	-0.001974	-0.005338	-0.000854	-0.005338	-0.004216	0.021568	0.006994	-0.000854	-0.016548	0.003631	0.012599	0.008115	0.006994	-0.006459	-0.006459	0.015963	0.000268	0.004752	-0.005338	0.023811	0.042869	-0.003095	-0.054665	-0.037849	0.002510	0.006994	0.001389	0.008115	0.006994	0.004752	0.004752	0.014842	-0.003095	0.004752	0.002510	-0.000854	0.005873	0.002510	0.003631	0.008115	0.005873	-0.004216	0.002510	0.004752	0.009237	0.001389	0.005873	0.001389	0.003631	-0.006459	0.006994	-0.006459	0.002510	-0.001974	-0.014306	-0.005338	-0.000854	-0.008700	0.003631	0.004752	0.012599	-0.000854	0.000268	-0.012064	0.001389	-0.000854	-0.000854	0.002510	0.001389	0.005873	0.002510	0.013721	-0.018790	-0.007580	0.009237	0.006994	-0.013185	-0.013185	0.000268	-0.000854	0.002510	0.010358	0.014842	0.004752	-0.010943	0.036143	0.077622	0.074259	0.018205	-0.082692	-0.112961	-0.105113	-0.022153	-0.017669	0.002510	0.020447	0.020447	0.021568	0.038384	0.013721	0.018205	0.015963	0.008115	0.019326	0.026052	0.018205	0.011478	-0.005338	-0.021033	-0.018790	0.001389	-0.003095	-0.000854	-0.006459	0.021568	-0.006459	0.003631	-0.005338	0.009237	0.002510	0.005873	0.010358	-0.007580	-0.009822	0.012599	0.014842	0.043990	0.041748	-0.038970	-0.061391	-0.051302	-0.015427	0.008115	0.020447	0.031658	0.059685	0.045111	-0.017669	-0.031122	-0.078208	-0.025517	-0.007580	0.023811	0.039505	0.057442	-0.013185	-0.037849	-0.043454	-0.000854	0.027174	-0.007580	-0.024396	0.001389	0.015963	0.013721	0.020447	0.079864	0.084348	0.011478	-0.075965	-0.074844	-0.100629	0.008115	0.040627	0.031658	-0.012064	-0.051302	-0.038970	-0.003095	0.049595	0.049595	0.014842	0.011478	0.004752	-0.000854	0.021568	0.028295	0.012599	-0.027759	-0.035606	-0.009822	0.003631	0.000268	0.005873	-0.000854	0.003631	0.036143	0.080985	0.010358	-0.071481	-0.090539	-0.022153	0.033900	0.067532	0.040627	-0.010943	-0.074844	-0.041212	0.019326	-0.003095	0.024931	0.010358	0.022690	-0.014306	-0.012064	0.014842	0.038384	-0.018790	-0.024396	0.004752	0.026052	0.035021	0.055201	0.017084	-0.010943	-0.019912	-0.032243	-0.049059	-0.005338	0.011478	-0.005338	0.001389	-0.008700	0.019326	0.054079	0.013721	-0.044575	-0.043454	0.013721	0.078743	0.077622	0.040627	-0.098387	-0.101750	-0.091660	-0.000854	0.060806	0.105649	0.079864	0.018205	-0.070360	-0.083813	-0.080450	-0.028880	0.024931	0.010358	0.005873	0.008115	0.032779	0.042869	0.020447	0.010358	0.032779	0.020447	-0.004216	-0.024396	0.008115	0.038384	0.080985	0.045111	-0.056907	-0.114081	-0.078208	-0.041212	-0.021033	0.037264	0.008115	0.010358	0.006994	0.028295	-0.001974	0.005873	-0.015427	-0.006459	-0.017669	0.000268	0.005873	0.012599	0.026052	0.035021	0.045111	0.008115	0.023811	-0.024396	-0.010943	-0.000854	-0.014306	-0.081570	-0.046818	0.064169	0.128071	0.042869	-0.101750	-0.202647	-0.126414	-0.005338	0.048474	0.066411	0.087712	0.035021	-0.018790	0.013721	0.004752	0.042869	0.031658	-0.004216	-0.021033	0.006994	0.012599	-0.009822	0.001389	-0.001974	-0.013185	-0.005338	0.021568	0.056322	0.041748	0.004752	-0.015427	-0.060271	-0.090539	-0.096145	0.028295	0.006994	0.005873	-0.041212	0.020447	0.063048	0.042869	0.003631	-0.000854	0.018205	0.036143	0.005873	-0.014306	-0.063633	-0.086055	-0.016548	0.029416	0.019326	0.036143	0.008115	-0.003095	0.006994	0.015963	0.022690	0.004752	0.083228	0.084348	0.001389	-0.153320	-0.138746	-0.073724	0.018205	0.021568	0.046232	0.068654	0.024931	0.005873	-0.018790	0.011478	0.033900	0.030537	-0.028880	-0.027759	-0.021033	-0.041212	-0.009822	-0.006459	0.024931	0.051837	0.026052	0.054079	0.035021	-0.004216	-0.063633	-0.129777	0.000268	0.078743	0.024931	-0.032243	-0.072602	-0.051302	0.000268	0.049595	0.029416	0.079864	0.065290	0.017084	-0.054665	-0.045696	-0.027759	-0.005338	-0.005338	0.006994	0.057442	0.039505	0.074259	0.017084	-0.115203	-0.145472	-0.077086	-0.005338	0.057442	0.059685	0.089954	0.088833	0.039505	-0.108476	-0.105113	-0.017669	-0.033365	-0.010943	0.014842	0.008115	0.043990	0.102286	-0.005338	0.000268	0.015963	0.014842	0.031658	0.029416	0.020447	-0.033365	-0.126414	-0.053544	-0.056907	0.014842	-0.017669	-0.010943	-0.009822	0.077622	0.085469	0.061927	-0.060271	-0.109597	-0.052423	0.002510	0.059685	0.095560	0.083228	0.014842	-0.035606	-0.037849	-0.027759	-0.068117	-0.035606	0.032779	0.089954	0.076501	0.023811	-0.032243	-0.099508	-0.106235	-0.065876	0.019326	0.022690	0.077622	0.092196	0.064169	-0.012064	0.008115	0.002510	-0.077086	-0.077086	-0.049059	0.043990	-0.003095	-0.010943	0.000268	0.040627	0.054079	0.092196	-0.019912	-0.103992	-0.064755	-0.032243	0.076501	0.059685	-0.008700	0.038384	0.037264	-0.005338	-0.062512	-0.034486	-0.014306	0.051837	0.042869	-0.000854	-0.051302	-0.036727	0.029416	0.052958	-0.059149	-0.038970	-0.037849	-0.005338	0.086591	0.124707	0.017084	-0.071481	-0.090539	-0.069239	0.002510	-0.001974	-0.009822	-0.012064	0.020447	0.078743	0.049595	0.048474	-0.005338	-0.025517	0.023811	0.037264	-0.063633	-0.092782	-0.018790	0.010358	0.013721	0.048474	0.052958	-0.030001	-0.075965	-0.034486	0.031658	0.011478	-0.050180	0.002510	0.009237	0.028295	-0.027759	-0.018790	0.014842	0.047353	0.032779	0.052958	0.023811	-0.021033	0.018205	0.092196	0.049595	-0.124172	-0.207131	-0.009822	0.039505	0.084348	-0.045696	-0.135382	-0.034486	0.057442	0.021568	-0.035606	0.035021	0.055201	0.091075	0.065290	-0.018790	-0.103992	-0.023275	-0.036727	0.010358	0.047353	0.055201	0.078743	0.075380	-0.019912	-0.117445	-0.163409	0.002510	0.088833	0.082107	0.010358	0.023811	0.015963	-0.083813	-0.062512	-0.080450	0.009237	0.066411	0.107891	0.045111	-0.041212	-0.042333	-0.026638	0.023811	0.001389	0.032779	0.043990	0.000268	-0.054665	-0.007580	0.008115	0.000268	-0.041212	0.040627	0.040627	0.047353	-0.017669	-0.072602	-0.038970	0.075380	0.064169	0.011478	-0.006459	-0.086055	-0.030001	-0.016548	0.023811	0.059685	-0.025517	-0.103992	-0.090539	0.026052	0.035021	0.052958	0.084348	0.020447	-0.015427	0.042869	0.037264	0.004752	0.011478	-0.035606	-0.054665	0.027174	-0.007580	-0.036727	-0.124172	-0.044575	0.096681	0.209909	0.032779	-0.112961	-0.086055	-0.054665	-0.068117	-0.027759	0.082107	0.115739	0.076501	0.057442	0.038384	-0.109597	-0.063633	0.001389	-0.041212	-0.003095	0.011478	0.032779	-0.025517	-0.019912	-0.000854	0.124707	0.047353	0.010358	-0.021033	-0.084934	0.005873	0.046232	0.054079	0.020447	-0.031122	-0.149956	-0.043454	-0.081570	-0.021033	-0.025517	0.020447	0.184124	0.104528	0.028295	-0.024396	-0.089418	-0.033365	-0.026638	-0.027759	0.048474	0.119102	0.107891	-0.063633	-0.106235	-0.135382	-0.063633	-0.016548	-0.019912	0.036143	0.046232	0.138160	0.184124	0.129192	-0.012064	-0.203768	-0.250853	-0.080450	0.011478	0.078743	0.097801	0.175156	0.187488	0.100044	-0.163409	-0.341660	-0.180225	-0.062512	0.028295	0.106770	0.079864	0.047353	-0.037849	-0.038970	0.019326	0.019326	0.031658	0.002510	0.002510	0.022690	0.057442	0.052958	0.020447	-0.006459	0.000268	0.104528	0.158339	-0.043454	-0.083813	-0.171257	-0.140987	-0.084934	-0.062512	0.042869	0.070895	0.042869	0.030537	0.087712	-0.044575	-0.086055	-0.023275	0.056322	0.101165	0.132555	0.077622	-0.041212	-0.033365	-0.146594	0.004752	-0.000854	0.091075	0.057442	0.079864	-0.025517	-0.206011	-0.202647	-0.087176	0.017084	0.109013	0.074259	0.092196	0.175156	0.069775	-0.124172	-0.231795	-0.069239	0.065290	0.097801	0.123586	0.105649	-0.022153	-0.073724	-0.073724	-0.015427	-0.005338	-0.009822	-0.024396	0.052958	0.031658	-0.013185	-0.041212	-0.078208	0.075380	0.101165	-0.026638	-0.066997	-0.044575	0.035021	0.037264	0.032779	-0.030001	-0.056907	-0.024396	0.037264	0.092196	0.214394	0.037264	-0.193678	-0.217221	0.011478	0.070895	0.051837	-0.092782	-0.088297	0.043990	0.048474	0.015963	0.082107	0.143765	0.082107	0.052958	-0.055786	-0.280001	-0.101750	0.008115	0.092196	0.133676	0.094438	-0.004216	-0.077086	-0.035606	-0.090539	-0.128656	-0.117445	0.057442	0.028295	0.093317	0.122465	0.117981	-0.018790	0.022690	0.006994	-0.093903	-0.055786	0.106770	0.133676	0.030537	-0.110719	-0.074844	0.005873	0.012599	0.017084	0.011478	-0.051302	-0.070360	0.000268	0.035021	0.106770	0.046232	-0.153320	-0.089418	0.073138	0.043990	-0.009822	-0.105113	0.000268	0.084348	0.092196	0.050717	-0.066997	-0.015427	0.064169	0.009237	-0.082692	0.110134	0.139281	0.064169	-0.066997	-0.189194	-0.142109	-0.010943	0.061927	0.083228	0.073138	-0.028880	-0.172378	-0.068117	0.070895	0.126949	0.138160	0.143765	0.035021	-0.170136	-0.221705	-0.185831	0.019326	0.031658	0.100044	0.105649	0.024931	0.008115	-0.008700	0.021568	0.032779	0.100044	0.095560	0.028295	-0.112961	-0.093903	-0.032243	0.010358	-0.073724	0.042869	0.079864	0.079864	0.111254	0.078743	-0.213857	-0.392108	-0.063633	0.092196	0.020447	0.014842	-0.016548	0.041748	0.135918	0.104528	-0.035606	-0.114081	-0.061391	-0.005338	-0.028880	-0.008700	0.056322	0.045111	0.028295	0.049595	0.138160	0.150492	-0.010943	-0.184710	-0.210495	-0.162288	0.036143	0.097801	0.216635	0.026052	-0.190315	-0.169014	-0.021033	0.120223	0.179640	0.068654	-0.099508	-0.036727	0.024931	0.010358	-0.127534	-0.130898	-0.005338	0.005873	0.003631	0.042869	0.029416	0.069775	0.087712	0.038384	0.027174	-0.001974	0.020447	0.043990	-0.060271	-0.013185	-0.004216	0.116859	0.077622	0.077622	-0.016548	-0.257580	-0.247490	-0.055786	-0.014306	-0.073724	-0.071481	0.068654	0.114618	0.086591	0.105649	0.069775	-0.006459	-0.047939	0.039505	0.122465	-0.045696	0.046232	-0.014306	-0.036727	-0.109597	-0.084934	0.106770	0.109013	0.100044	-0.018790	-0.103992	-0.188073	-0.191436	-0.050180	0.085469	0.206546	0.175156	-0.108476	-0.078208	-0.023275	0.084348	0.237936	-0.022153	-0.207131	-0.234037	-0.140987	-0.021033	-0.031122	0.042869	0.074259	0.030537	0.088833	0.088833	0.070895	-0.000854	0.000268	0.038384	0.069775	-0.054665	-0.043454	0.029416	-0.009822	-0.028880	0.051837	0.079864	0.049595	-0.192558	-0.311392	-0.045696	0.011478	0.023811	0.131434	0.033900	-0.064755	0.014842	0.040627	0.013721	0.092196	0.141524	0.089954	0.023811	-0.120808	-0.183589	-0.072602	0.088833	0.114618	-0.058028	-0.229553	-0.065876	0.024931	0.076501	0.064169	0.069775	0.056322	-0.000854	-0.109597	-0.081570	0.013721	0.070895	0.106770	0.153855	-0.073724	-0.234037	-0.124172	0.065290	0.259237	0.123586	-0.084934	-0.207131	-0.194799	-0.031122	0.029416	0.077622	0.120223	0.110134	0.125828	0.199819	0.030537	-0.249732	-0.248611	-0.115203	-0.066997	0.068654	0.124707	0.084348	0.135918	0.126949	0.269326	0.086591	-0.358476	-0.357356	-0.134261	0.066411	0.177398	-0.006459	-0.008700	-0.110719	-0.140987	0.017084	0.058564	0.026052	0.035021	0.012599	0.040627	0.101165	0.008115	0.028295	0.032779	0.042869	0.013721	-0.027759	-0.000854	-0.068117	0.002510	0.057442	0.015963	-0.023275	-0.154440	-0.001974	0.117981	0.180761	0.033900	-0.056907	-0.145472	-0.240763	-0.102871	0.095560	0.199819	0.154977	0.008115	-0.213857	-0.181346	0.175156	0.171792	-0.014306	-0.193678	-0.091660	-0.043454	0.095560	0.091075	-0.009822	-0.006459	0.089954	0.066411	0.036143	0.174035	0.079864	0.012599	-0.151078	-0.226189	-0.292333	-0.103992	0.008115	0.038384	0.057442	0.114618	0.003631	0.068654	0.028295	0.028295	0.091075	0.150492	0.124707	0.050717	-0.108476	-0.167893	-0.175741	-0.124172	-0.037849	0.022690	0.019326	0.085469	-0.037849	0.030537	0.123586	0.144886	-0.117445	-0.077086	-0.016548	0.114618	0.097801	0.027174	-0.100629	-0.064755	-0.096145	-0.106235	-0.147714	0.013721	0.078743	0.072016	0.059685	-0.034486	0.020447	0.061927	0.161703	0.123586	0.109013	-0.082692	-0.103992	-0.240763	-0.079329	0.050717	0.036143	0.134797	0.138160	0.091075	-0.043454	-0.152199	-0.033365	0.089954	0.002510	-0.222826	-0.183589	-0.030001	0.175156	0.196456	0.064169	0.114618	-0.038970	-0.216100	-0.102871	0.006994	0.048474	0.133676	0.076501	0.111254	-0.026638	-0.135382	-0.100629	-0.032243	0.036143	0.061927	0.074259	0.063048	0.006994	-0.123050	0.080985	0.111254	0.068654	0.100044	-0.081570	-0.213857	-0.105113	0.008115	0.052958	-0.049059	-0.160046	-0.028880	0.083228	0.018205	0.176276	0.051837	-0.075965	-0.116324	0.039505	0.156098	0.087712	-0.041212	-0.078208	-0.069239	0.035021	0.063048	-0.044575	-0.077086	-0.119688	-0.037849	0.060806	0.002510	0.068654	0.122465	0.159461	0.066411	0.065290	-0.022153	-0.229553	-0.143230	-0.090539	0.009237	-0.069239	-0.005338	0.002510	0.196456	0.286142	0.163945	-0.024396	-0.308028	-0.287849	-0.061391	0.030537	0.066411	0.140402	0.153855	0.107891	0.005873	-0.007580	-0.091660	-0.071481	-0.033365	-0.045696	0.043990	0.130312	0.159461	-0.023275	-0.100629	-0.091660	0.002510	0.003631	-0.064755	-0.182467	-0.040091	0.042869	0.119102	0.032779	-0.027759	-0.019912	0.105649	0.032779	0.057442	-0.005338	-0.110719	-0.158925	-0.114081	0.046232	0.043990	0.208788	0.187488	0.031658	-0.132019	-0.235158	-0.072602	0.096681	0.055201	0.048474	0.129192	-0.025517	0.063048	-0.009822	0.012599	0.057442	-0.202647	-0.110719	-0.175741	-0.017669	0.205425	0.191972	0.100044	-0.056907	-0.296818	-0.180225	-0.065876	0.061927	0.097801	0.079864	0.019326	0.076501	0.120223	0.111254	0.093317	-0.013185	-0.147714	-0.095023	0.021568	0.023811	0.035021	-0.044575	-0.021033	-0.015427	0.041748	-0.066997	0.011478	0.200941	0.113497	0.006994	-0.278881	-0.305786	-0.119688	0.158339	0.144886	0.122465	0.125828	0.101165	-0.147714	-0.144351	0.006994	0.036143	0.077622	0.067532	0.023811	0.064169	0.058564	-0.005338	-0.040091	-0.040091	0.008115	0.039505	0.078743	0.084348	0.100044	0.037264	-0.137625	-0.248611	-0.042333	-0.019912	0.043990	0.002510	-0.038970	0.080985	0.102286	-0.119688	-0.170136	-0.000854	-0.059149	-0.015427	-0.015427	-0.024396	0.057442	0.047353	0.054079	0.123586	0.077622	0.104528	0.052958	0.137039	0.131434	-0.066997	-0.287849	-0.084934	0.061927	0.085469	0.187488	0.125828	-0.087176	-0.300180	-0.108476	0.186367	-0.018790	-0.160046	-0.200404	0.060806	0.183003	0.226725	0.139281	0.035021	-0.152199	-0.358476	-0.186951	0.075380	0.190851	0.030537	-0.036727	0.045111	-0.109597	-0.059149	0.009237	-0.023275	0.129192	0.079864	0.024931	-0.022153	0.022690	0.050717	0.093317	0.051837	0.079864	0.010358	-0.077086	0.000268	-0.024396	-0.088297	-0.223948	-0.143230	0.048474	0.177398	0.101165	0.131434	-0.026638	-0.143230	-0.231795	-0.191436	-0.156683	-0.049059	0.106770	0.120223	0.140402	0.149371	0.056322	0.048474	0.097801	0.100044	0.056322	-0.064755	-0.054665	0.198698	0.236815	0.092196	-0.256459	-0.612961	-0.229553	-0.030001	0.046232	0.171792	0.047353	0.039505	-0.077086	-0.023275	-0.025517	0.126949	0.157218	0.036143	-0.010943	0.059685	0.227847	0.199819	-0.165652	-0.336055	-0.245248	-0.078208	-0.045696	0.075380	0.217756	0.234573	-0.075965	-0.103992	-0.038970	0.083228	0.023811	-0.158925	-0.096145	-0.005338	0.041748	0.191972	0.140402	0.116859	0.011478	-0.163409	-0.179105	-0.097266	-0.088297	-0.130898	0.144886	0.243541	0.185245	0.035021	-0.203768	-0.003095	0.069775	0.042869	-0.110719	-0.171257	-0.105113	0.020447	0.023811	0.105649	0.206546	0.230088	0.104528	-0.078208	-0.313633	-0.124172	-0.010943	0.117981	-0.010943	-0.107356	-0.081570	0.181883	0.107891	-0.061391	-0.047939	0.179640	0.095560	-0.207131	-0.336055	-0.163409	-0.003095	0.098922	0.083228	0.140402	0.178519	0.143765	0.176276	0.047353	-0.137625	-0.219463	-0.152199	-0.009822	0.225604	0.420671	0.269326	-0.461616	-0.515427	-0.374172	0.013721	0.148250	0.119102	0.032779	-0.071481	0.035021	0.276052	0.045111	-0.207131	-0.121929	0.077622	0.015963	0.079864	0.055201	0.152734	0.150492	0.107891	0.068654	-0.053544	-0.038970	0.027174	-0.121929	-0.269912	0.001389	-0.071481	-0.140987	-0.032243	0.286142	-0.044575	-0.064755	-0.231795	-0.098387	0.117981	0.166187	0.097801	0.045111	-0.033365	-0.121929	0.070895	0.056322	0.048474	0.065290	0.043990	0.017084	0.020447	0.036143	0.005873	-0.050180	-0.078208	0.030537	0.222240	0.013721	-0.320360	-0.201526	0.074259	0.313048	0.105649	-0.240763	-0.377535	-0.179105	0.162824	0.196456	0.067532	-0.202647	-0.167893	0.048474	0.128071	0.114618	0.079864	0.104528	0.067532	-0.054665	0.023811	0.135918	0.028295	-0.083813	-0.035606	0.012599	0.087712	-0.015427	-0.047939	0.065290	-0.045696	-0.056907	-0.013185	0.212151	0.087712	-0.117445	-0.248611	-0.291212	-0.204889	-0.026638	0.165066	0.217756	0.177398	0.012599	0.135918	0.087712	-0.072602	-0.089418	-0.140987	0.085469	0.015963	0.091075	0.017084	-0.023275	0.026052	0.018205	-0.059149	-0.099508	-0.072602	-0.017669	0.091075	0.057442	0.049595	0.027174	0.020447	0.077622	0.147129	-0.005338	-0.143230	-0.137625	-0.051302	0.005873	0.013721	0.046232	-0.118566	-0.152199	-0.218342	-0.007580	0.077622	0.077622	0.109013	0.015963	0.051837	0.100044	0.096681	0.076501	0.072016	0.086591	0.092196	-0.016548	-0.024396	-0.013185	-0.084934	-0.097266	0.008115	0.239057	-0.028880	-0.299059	-0.262064	-0.023275	0.251389	0.218878	-0.008700	-0.260943	-0.273274	-0.014306	0.310806	0.262599	-0.040091	-0.334934	-0.173499	0.047353	0.135918	0.088833	0.130312	-0.003095	-0.032243	0.052958	0.004752	-0.053544	0.045111	0.097801	0.123586	0.056322	0.105649	-0.024396	-0.128656	-0.081570	0.080985	0.138160	-0.093903	-0.212737	-0.194799	-0.107356	0.093317	0.276052	0.224483	0.023811	-0.310270	-0.240763	-0.058028	0.138160	0.001389	0.082107	0.167308	0.073138	0.014842	0.029416	0.030537	0.035021	0.050717	0.000268	0.020447	0.072016	0.124707	0.174035	0.162824	-0.130898	-0.200404	-0.073724	-0.051302	-0.004216	-0.173499	-0.047939	0.028295	0.033900	-0.179105	-0.231795	-0.097266	-0.068117	0.122465	0.189729	-0.079329	0.073138	0.161703	0.304079	0.005873	-0.195920	-0.128656	0.137039	0.069775	0.021568	0.082107	0.094438	0.167308	0.023811	-0.118566	-0.191436	-0.190315	-0.151078	0.026052	0.000268	-0.077086	0.036143	0.106770	0.141524	0.048474	0.021568	-0.033365	0.033900	0.058564	0.098922	-0.026638	-0.256459	-0.121929	0.055201	-0.006459	0.035021	0.076501	0.172914	0.134797	0.160582	0.096681	-0.200404	-0.254216	-0.338297	-0.163409	0.120223	0.273811	0.200941	0.002510	0.037264	-0.034486	-0.063633	-0.359597	-0.153320	0.144886	0.113497	0.060806	0.022690	-0.033365	-0.045696	-0.059149	0.022690	0.087712	0.123586	0.122465	0.030537	-0.041212	0.002510	0.047353	0.101165	0.298474	0.348922	-0.170136	-0.462737	-0.564754	-0.329329	-0.005338	0.213272	0.234573	0.156098	-0.165652	-0.338297	-0.065876	0.213272	0.217756	-0.051302	-0.138746	0.008115	0.075380	0.131434	0.088833	0.080985	0.130312	0.105649	-0.022153	0.008115	-0.007580	0.056322	0.269326	0.190851	0.048474	-0.472826	-0.461616	-0.398835	-0.299059	0.070895	0.149371	0.234573	0.209909	0.264842	0.212151	0.074259	-0.310270	-0.485158	-0.180225	0.117981	0.200941	0.195335	0.001389	-0.091660	-0.023275	0.029416	0.124707	0.106770	0.013721	0.080985	0.082107	0.098922	0.339954	0.054079	-0.201526	-0.272154	0.002510	0.327622	0.018205	-0.324845	-0.662288	-0.398835	0.046232	0.219999	0.050717	0.147129	0.202062	0.177398	0.041748	-0.107356	-0.049059	0.031658	0.065290	0.058564	0.045111	0.111254	0.050717	-0.009822	0.006994	0.124707	0.189729	0.040627	-0.098387	-0.102871	0.055201	0.010358	0.111254	-0.211616	-0.229553	-0.290091	-0.185831	-0.111840	0.178519	0.232331	0.156098	-0.091660	-0.163409	-0.145472	-0.063633	0.125828	0.064169	0.078743	0.091075	0.046232	0.056322	0.074259	0.134797	0.214394	-0.042333	-0.043454	-0.014306	0.215515	0.012599	-0.336055	-0.425741	-0.072602	0.092196	0.158339	0.059685	0.050717	-0.030001	-0.098387	-0.043454	0.197577	0.068654	-0.082692	-0.065876	0.113497	0.213272	-0.173499	-0.263185	-0.119688	0.147129	0.089954	0.048474	-0.062512	0.027174	0.056322	-0.037849	-0.080450	-0.035606	0.061927	0.042869	0.252510	0.277173	-0.017669	-0.186951	-0.191436	-0.064755	0.105649	0.205425	0.093317	-0.118566	-0.197042	-0.210495	-0.169014	-0.096145	0.073138	0.024931	0.031658	-0.106235	-0.027759	0.067532	0.117981	0.024931	0.032779	0.128071	0.131434	0.187488	-0.110719	-0.161167	-0.117445	0.046232	0.076501	0.248026	0.268205	-0.006459	-0.222826	-0.197042	-0.101750	-0.272154	-0.140987	-0.007580	0.146008	0.020447	-0.108476	-0.132019	0.039505	0.147129	0.334348	0.431882	0.382555	-0.074844	-0.633140	-0.683588	-0.278881	0.156098	0.174035	0.345559	0.123586	-0.045696	-0.061391	-0.004216	0.048474	0.085469	-0.028880	-0.042333	0.078743	0.088833	-0.031122	-0.005338	0.151613	0.292869	0.058564	-0.098387	-0.074844	-0.190315	-0.379777	-0.322602	0.012599	-0.017669	-0.156683	0.075380	0.199819	0.002510	0.087712	-0.103992	0.023811	0.114618	0.241300	0.235693	0.197577	0.194214	-0.202647	-0.552423	-0.291212	-0.089418	0.074259	0.162824	0.233452	0.070895	-0.077086	0.010358	0.037264	-0.373050	-0.133141	0.029416	0.114618	0.096681	0.204304	0.317532	0.212151	-0.216100	-0.235158	-0.211616	-0.010943	0.032779	0.290626	0.059685	-0.084934	-0.118566	-0.033365	-0.287849	-0.199284	-0.124172	0.110134	0.091075	-0.019912	0.011478	-0.071481	-0.000854	0.069775	0.086591	0.154977	0.125828	0.027174	0.036143	0.018205	0.123586	0.126949	-0.017669	-0.216100	-0.273274	-0.095023	0.121344	0.236815	0.205425	0.172914	-0.073724	-0.375293	-0.406683	-0.228432	-0.073724	0.109013	0.119102	0.109013	0.109013	0.133676	0.102286	0.056322	0.029416	-0.030001	0.004752	0.036143	0.026052	0.041748	-0.007580	-0.060271	-0.064755	-0.049059	0.008115	-0.001974	0.038384	0.086591	-0.001974	-0.018790	-0.040091	-0.018790	-0.018790	0.037264	-0.060271	-0.106235	-0.092782	-0.015427	0.004752	0.039505	0.052958	0.061927	-0.043454	0.019326	0.047353	0.015963	0.018205	0.023811	0.011478	0.008115	0.012599	0.018205	0.023811	0.002510	-0.016548	-0.009822	0.000268	-0.003095	-0.000854	-0.007580	0.001389	0.015963	0.006994	0.005873	-0.009822	-0.025517	0.012599	0.013721	0.061927	0.116859	0.041748	-0.127534	-0.117445	-0.110719	-0.016548	0.038384	-0.015427	0.002510	0.008115	0.013721	0.069775	0.085469	0.040627	-0.071481	-0.070360	-0.043454	0.006994	0.004752	0.029416	0.022690	0.032779	0.023811	-0.017669	0.008115	0.030537	0.013721	0.005873	0.006994	0.009237	-0.001974	-0.014306	-0.041212	0.017084	-0.000854	0.021568	-0.001974	-0.021033	0.000268	0.058564	0.032779	-0.021033	-0.037849	-0.006459	0.048474	0.030537	0.077622	0.006994	-0.164530	-0.052423	0.031658	0.050717	0.042869	-0.059149	-0.157804	-0.100629	-0.000854	0.051837	0.051837	0.066411	0.057442	0.020447	0.005873	0.010358	0.021568	0.010358	0.010358	0.011478	0.003631	-0.000854	-0.019912	-0.037849	-0.050180	-0.003095	0.017084	0.041748	0.040627	0.026052	-0.012064	-0.033365	-0.000854	-0.022153	-0.024396	-0.001974	-0.036727	0.017084	0.030537	0.021568	0.052958	0.051837	-0.018790	-0.028880	-0.041212	0.015963	0.008115	0.026052	-0.004216	-0.110719	-0.074844	-0.024396	0.012599	-0.021033	-0.017669	0.036143	0.032779	0.014842	0.038384	0.017084	0.029416	0.015963	0.012599	0.021568	0.031658	0.018205	-0.017669	-0.021033	-0.019912	-0.009822	-0.034486	-0.025517	-0.013185	0.018205	-0.008700	0.061927	0.054079	0.013721	-0.075965	-0.065876	-0.041212	0.026052	0.043990	0.021568	-0.004216	-0.005338	-0.017669	-0.000854	0.006994	-0.000854	0.035021	0.037264	0.008115	0.033900	-0.009822	-0.077086	-0.034486	0.003631	-0.024396	0.026052	0.072016	0.087712	0.010358	-0.092782	-0.146594	-0.070360	-0.013185	0.015963	0.046232	0.074259	0.047353	0.027174	0.002510	0.000268	-0.021033	-0.041212	-0.034486	-0.035606	0.011478	0.011478	0.015963	0.014842	-0.006459	0.000268	0.015963	0.002510	0.036143	0.022690	0.011478	-0.064755	-0.034486	-0.019912	0.001389	0.008115	0.014842	0.015963	0.026052	0.020447	-0.023275	-0.040091	-0.008700	0.004752	-0.030001	-0.003095	0.074259	0.068654	-0.054665	-0.102871	-0.069239	-0.007580	0.013721	0.015963	0.018205	0.015963	0.022690	0.035021	0.045111	0.038384	-0.014306	-0.042333	-0.053544	-0.017669	0.035021	0.026052	0.004752	-0.031122	-0.010943	0.043990	0.017084	-0.021033	0.003631	0.023811	0.010358	-0.032243	-0.019912	-0.006459	0.010358	-0.000854	-0.015427	-0.007580	0.002510	0.005873	0.021568	0.020447	0.067532	0.009237	-0.023275	0.039505	0.036143	-0.072602	-0.102871	-0.051302	-0.004216	-0.017669	-0.030001	-0.027759	0.042869	0.042869	0.037264	0.023811	-0.014306	0.002510	0.012599	-0.004216	0.015963	-0.003095	-0.003095	0.023811	0.078743	0.008115	-0.095023	-0.079329	0.003631	0.010358	-0.000854	-0.012064	-0.004216	0.009237	-0.050180	0.017084	0.012599	0.023811	0.030537	0.008115	0.030537	0.061927	0.047353	0.014842	-0.061391	-0.089418	-0.054665	-0.030001	0.047353	0.072016	0.061927	-0.046818	-0.050180	-0.082692	-0.010943	0.006994	0.011478	0.020447	0.026052	0.027174	0.006994	0.014842	-0.013185	0.005873	0.003631	0.004752	0.008115	0.005873	0.001389	0.004752	0.010358	0.011478	0.008115	0.021568	0.013721	-0.038970	-0.053544	-0.043454	-0.006459	-0.019912	0.039505	0.004752	0.005873	0.026052	0.056322	0.056322	0.015963	-0.111840	-0.106235	-0.095023	-0.015427	0.003631	0.018205	0.029416	0.037264	0.020447	0.017084	0.001389	0.008115	-0.000854	-0.000854	0.006994	0.001389	-0.000854	-0.000854	-0.007580	0.002510	0.000268	-0.000854	0.014842	0.018205	0.017084	0.009237	-0.014306	0.001389	0.079864	0.023811	-0.079329	-0.132019	-0.072602	-0.000854	0.040627	0.014842	0.017084	0.028295	0.056322	0.045111	-0.003095	-0.037849	-0.041212	-0.035606	0.030537	-0.027759	0.017084	0.004752	-0.000854	-0.031122	-0.006459	0.003631	0.010358	0.014842	0.009237	0.001389	0.002510	0.008115	0.028295	0.059685	0.039505	-0.072602	-0.138746	-0.047939	0.029416	0.048474	0.026052	0.012599	0.024931	0.027174	-0.008700	-0.035606	-0.034486	-0.004216	0.017084	-0.007580	0.001389	0.014842	0.002510	-0.018790	0.013721	0.013721	0.050717	0.033900	-0.019912	-0.045696	-0.044575	-0.021033	0.012599	-0.001974	0.017084	0.009237	0.001389	0.000268	0.004752	0.011478	0.001389	-0.005338	-0.003095	0.008115	0.022690	0.029416	0.012599	-0.038970	-0.032243	-0.003095	0.021568	-0.001974	-0.009822	0.008115	0.005873	0.010358	0.036143	0.070895	0.040627	-0.060271	-0.098387	-0.068117	-0.004216	0.027174	0.064169	0.054079	-0.028880	-0.079329	-0.050180	0.002510	0.021568	0.020447	0.012599	0.013721	0.018205	0.002510	0.029416	0.035021	0.020447	-0.021033	-0.055786	-0.023275	0.019326	0.010358	0.004752	0.006994	0.000268	-0.007580	0.008115	0.047353	0.033900	-0.040091	-0.089418	-0.060271	0.009237	0.039505	0.035021	0.012599	-0.032243	-0.014306	-0.003095	0.010358	0.011478	0.011478	0.059685	0.069775	0.038384	-0.093903	-0.116324	-0.069239	0.013721	0.011478	0.030537	0.026052	0.018205	-0.000854	-0.000854	0.002510	0.003631	0.015963	0.008115	0.021568	0.052958	0.064169	0.052958	-0.087176	-0.136503	-0.027759	0.027174	0.014842	0.026052	0.059685	0.101165	0.032779	-0.080450	-0.151078	-0.154440	-0.035606	0.018205	0.045111	0.063048	0.096681	0.086591	0.039505	-0.079329	-0.064755	0.003631	0.050717	0.063048	-0.023275	0.006994	0.080985	0.020447	-0.069239	-0.017669	-0.046818	-0.016548	0.069775	-0.082692	-0.173499	-0.021033	0.101165	0.042869	-0.101750	-0.191436	-0.118566	-0.037849	0.190851	0.286142	0.134797	-0.125293	-0.155562	-0.049059	0.033900	-0.056907	0.004752	0.178519	0.160582	0.060806	-0.130898	-0.148835	-0.112961	0.022690	0.111254	0.070895	0.091075	0.092196	0.181883	0.112375	-0.172378	-0.296818	-0.213857	-0.115203	-0.050180	0.033900	0.049595	0.075380	0.035021	0.031658	0.111254	0.059685	0.068654	-0.037849	-0.034486	-0.000854	-0.063633	0.126949	0.146008	-0.032243	-0.060271	-0.024396	-0.088297	-0.038970	-0.140987	-0.137625	-0.097266	0.183003	0.223362	-0.041212	-0.180225	-0.152199	0.054079	0.135918	0.133676	0.113497	0.094438	-0.080450	-0.138746	-0.120808	0.111254	0.055201	0.033900	-0.121929	-0.102871	0.156098	0.129192	0.041748	-0.105113	-0.173499	-0.111840	-0.111840	0.019326	0.112375	0.166187	0.265963	0.158339	-0.078208	-0.106235	-0.195920	-0.066997	-0.055786	-0.033365	-0.061391	0.047353	0.030537	0.124707	0.100044	0.035021	-0.001974	-0.086055	-0.117445	-0.028880	0.077622	0.228967	0.104528	-0.239642	-0.241884	-0.062512	0.043990	0.038384	0.084348	0.072016	-0.015427	-0.055786	0.042869	0.124707	0.219999	0.237936	-0.049059	-0.283365	-0.287849	-0.236279	-0.071481	0.032779	0.092196	0.084348	0.172914	0.194214	0.221120	-0.099508	-0.329329	-0.175741	-0.044575	0.035021	0.045111	0.028295	0.009237	0.063048	0.087712	0.050717	0.014842	-0.017669	0.001389	0.011478	-0.000854	-0.005338	0.021568	-0.012064	-0.061391	-0.017669	0.004752	0.002510	0.056322	0.045111	-0.047939	-0.037849	0.028295	-0.004216	-0.009822	-0.005338	0.061927	0.026052	-0.070360	-0.051302	-0.004216	0.004752	0.023811	0.012599	0.010358	0.018205	0.009237	0.001389	-0.000854	0.012599	0.024931	0.120223	0.049595	-0.106235	-0.119688	-0.023275	-0.038970	0.033900	0.042869	-0.051302	-0.033365	0.045111	0.004752	-0.051302	0.019326	0.005873	0.026052	0.018205	0.015963	0.019326	0.018205	0.017084	0.001389	0.012599	0.000268	0.000268	0.003631	0.008115	0.000268	-0.003095	-0.005338	0.002510	0.003631	-0.000854	-0.000854	0.004752	0.002510	-0.001974	-0.000854	-0.007580	0.012599	-0.014306	-0.013185	-0.019912	0.001389	0.009237	0.006994	0.035021	0.015963	-0.023275	-0.014306	-0.031122	-0.003095	0.001389	0.008115	0.024931	0.013721	-0.006459	-0.050180	-0.015427	0.026052	-0.004216	0.008115	-0.009822	0.006994	-0.003095	0.012599	0.009237	-0.000854	-0.005338	0.006994	0.004752	0.000268	-0.000854	0.000268	0.006994	0.008115	0.008115	0.002510	-0.012064	0.000268	-0.006459	0.002510	0.003631	0.019326	-0.001974	-0.005338	0.003631	0.006994	0.008115	0.020447	0.035021	-0.008700	-0.040091	-0.006459	-0.000854	0.006994	-0.028880	0.035021	0.008115	-0.022153	-0.004216	-0.015427	0.012599	0.012599	-0.000854	0.008115	0.009237	0.010358	0.002510	0.008115	0.009237	0.002510	-0.008700	-0.010943	0.009237	-0.005338	-0.003095	0.005873	-0.014306	0.000268	0.003631	0.001389	0.005873	0.002510	0.002510	0.000268	0.010358	0.008115	-0.005338	0.005873	0.001389	0.008115	0.028295	-0.012064	-0.015427	-0.000854	0.010358	0.009237	0.001389	0.001389	-0.012064	-0.003095	0.006994	-0.003095	0.000268	0.000268	-0.001974	0.005873	0.012599	0.000268	0.003631	0.000268	0.001389	-0.001974	0.003631	-0.000854	0.024931	0.003631	-0.024396	-0.003095	-0.004216	0.005873	-0.000854	0.006994	0.001389	0.011478	0.003631	0.005873	0.011478	-0.012064	-0.001974	0.003631	0.001389	0.002510	-0.005338	0.035021	-0.010943	-0.032243	0.001389	0.000268	0.000268	0.003631	-0.000854	0.005873	0.005873	-0.006459	0.002510	0.012599	0.006994	-0.013185	-0.000854	0.004752	0.005873	0.008115	-0.003095	-0.000854	-0.007580	0.001389	-0.000854	0.006994	-0.004216	-0.003095	-0.004216	0.013721	0.004752	0.008115	0.000268	-0.005338	0.006994	-0.007580	-0.004216	0.001389	0.001389	0.002510	0.004752	0.001389	0.005873	0.001389	0.002510	-0.003095	0.000268	0.000268	-0.003095	-0.005338	0.002510	-0.000854	-0.000854	0.002510	-0.004216	0.009237	0.003631	0.009237	-0.003095	-0.001974	0.005873	-0.006459	0.008115	0.001389	0.006994	-0.005338	-0.000854	0.000268	0.018205	0.006994	0.002510	-0.008700	-0.012064	-0.018790	-0.008700	0.005873	0.001389	0.004752	0.002510	0.013721	-0.008700	0.003631	0.001389	0.001389	-0.003095	0.002510	-0.000854	0.002510	-0.000854	0.006994	-0.003095	0.005873	0.005873	0.002510	0.000268	-0.001974	0.002510	0.004752	0.040627	0.002510	-0.032243	-0.026638	0.001389	-0.000854	-0.003095	-0.000854	-0.000854	0.006994	0.003631	0.002510	-0.001974	-0.000854	0.000268	0.002510	0.003631	0.003631	0.002510	-0.000854	-0.000854	0.005873	0.006994	0.002510	0.003631	-0.000854	-0.004216	0.005873	0.008115	-0.007580	0.006994	-0.007580	0.001389	-0.001974	-0.000854	-0.007580	-0.003095	0.001389	0.002510	-0.000854	-0.003095	0.004752	0.005873	0.003631	-0.001974	-0.006459	0.002510	-0.000854	-0.000854	0.003631	-0.001974	0.001389	0.001389	0.000268	0.002510	0.003631	0.009237	-0.003095	0.003631	-0.004216	0.004752	0.004752	0.003631	-0.001974	-0.004216	0.000268	0.006994	0.004752	0.001389	0.003631	-0.004216	0.002510	-0.000854	0.002510	-0.005338	-0.003095	-0.003095	-0.005338	0.005873	0.003631	0.001389	-0.000854	0.005873	-0.010943	-0.001974	-0.005338	-0.005338	0.008115	0.006994	0.002510	0.006994	-0.000854	0.003631	0.003631	0.008115	-0.005338	0.002510	-0.005338	-0.003095	-0.006459	-0.000854	-0.003095	-0.005338	0.002510	-0.005338	0.004752	-0.008700	-0.000854	-0.004216	-0.012064	0.004752	-0.004216	-0.001974	-0.005338	0.003631	-0.000854	-0.003095	0.000268	-0.009822	0.000268	-0.000854	0.002510	-0.000854	-0.004216	-0.004216	0.000268	0.001389	0.010358	-0.006459	-0.000854	-0.006459	-0.000854	0.004752	0.003631	-0.008700	-0.005338	-0.004216	0.008115	0.003631	0.005873	-0.007580	-0.000854	-0.001974	0.005873	-0.000854	0.009237	-0.005338	0.000268	0.005873	0.003631	0.003631	0.000268	-0.001974	-0.006459	0.008115	0.002510	-0.000854	-0.007580	0.002510	-0.004216	0.000268	-0.005338	-0.000854	-0.006459	0.009237	0.006994	0.001389	0.001389	0.001389	-0.000854	0.001389	-0.000854	0.006994	-0.005338	-0.008700	0.002510	0.003631	0.000268	-0.000854	0.000268	-0.003095	0.003631	0.010358	0.003631	-0.005338	-0.004216	0.000268	0.000268	0.002510	-0.006459	0.001389	-0.003095	0.003631	-0.003095	0.004752	-0.005338	-0.004216	-0.004216	0.000268	-0.000854	-0.001974	-0.001974	-0.003095	-0.001974	0.003631	0.000268	0.000268	-0.006459	0.001389	-0.005338	0.008115	-0.009822	-0.000854	-0.001974	0.002510	-0.001974	-0.004216	-0.005338	-0.000854	-0.014306	0.005873	-0.000854	-0.008700	-0.010943	-0.001974	-0.000854	-0.001974	0.002510	-0.001974	-0.008700	-0.004216	0.000268	-0.006459	-0.003095	-0.001974	0.002510	-0.006459	0.000268	0.001389	-0.003095	-0.000854	-0.003095	0.002510	0.001389	0.002510	-0.005338	-0.001974	-0.000854	0.004752	0.010358	-0.001974	0.002510	-0.006459	0.002510	-0.004216	0.000268	-0.007580	-0.003095	-0.000854	-0.003095	-0.001974	0.003631	0.001389	0.005873	-0.003095	0.001389	0.002510	0.010358	-0.005338	-0.003095	-0.000854	0.006994	-0.000854	0.003631	-0.000854	-0.000854	0.006994	-0.001974	0.000268	-0.001974	-0.001974	0.001389	0.006994	0.010358	-0.006459	-0.015427	-0.000854	0.001389	-0.006459	0.001389	-0.003095	0.000268	0.002510	0.004752	-0.004216	0.002510	-0.001974	-0.007580	-0.000854	0.002510	-0.000854	0.004752	0.000268	-0.005338	-0.001974	0.001389	0.000268	-0.008700	0.004752	0.003631	0.005873	-0.000854	0.005873	-0.005338	0.004752	0.001389	0.003631	0.003631	0.000268	0.003631	-0.000854	0.000268	0.001389	-0.000854	0.003631	-0.003095	0.003631	-0.006459	0.002510	-0.005338	0.002510	-0.006459	-0.000854	0.001389	-0.008700	0.000268	0.003631	-0.001974	0.001389	0.004752	-0.001974	-0.000854	-0.001974	-0.000854	-0.001974	0.000268	-0.000854	-0.000854	0.002510	-0.000854	-0.000854	0.001389	0.002510	-0.007580	-0.001974	-0.005338	0.001389	0.003631	0.000268	-0.000854	0.004752	-0.000854	0.004752	0.004752	-0.004216	0.005873	-0.001974	0.001389	-0.007580	0.001389	-0.000854	-0.001974	-0.003095	0.000268	0.000268	-0.007580	0.001389	-0.006459	0.005873	-0.000854	-0.001974	0.002510	-0.000854	0.004752	0.002510	0.001389	-0.003095	0.003631	-0.000854	0.003631	0.003631	0.002510	0.000268	-0.000854	0.000268	-0.006459	-0.003095	-0.006459	-0.004216	0.002510	0.001389	0.001389	-0.000854	0.003631	0.000268	-0.003095	0.004752	-0.004216	0.003631	0.001389	0.003631	-0.001974	-0.001974	-0.001974	0.005873	0.000268	-0.003095	-0.006459	0.000268	0.000268	0.000268	-0.000854	-0.003095	-0.000854	-0.004216	-0.004216	0.005873	-0.000854	0.004752	0.001389	-0.004216	0.001389	0.006994	0.002510	-0.003095	0.000268	-0.001974	-0.000854	0.004752	0.000268	-0.003095	0.000268	0.003631	0.003631	0.004752	-0.001974	0.000268	0.003631	0.002510	0.002510	0.003631	0.002510	-0.000854	0.008115	-0.007580	-0.000854	0.001389	-0.001974	0.008115	0.000268	-0.005338	0.000268	0.000268	-0.001974	-0.000854	0.008115	0.002510	0.000268	-0.001974	0.004752	0.009237	0.001389	-0.003095	-0.005338	-0.001974	-0.003095	0.002510	0.000268	0.001389	-0.010943	-0.003095	0.014842	0.000268	-0.000854	0.003631	0.000268	0.000268	0.008115	-0.003095	0.000268	-0.004216	0.003631	-0.000854	0.005873	-0.000854	0.002510	-0.000854	0.000268	-0.000854	-0.000854	-0.001974	0.001389	-0.006459	-0.000854	0.003631	0.006994	0.002510	-0.014306	-0.000854	0.005873	0.001389	-0.001974	0.002510	0.001389	-0.000854	0.002510	-0.005338	0.006994	-0.003095	-0.006459	-0.008700	-0.001974	-0.005338	0.000268	0.003631	0.003631	-0.001974	0.003631	-0.000854	0.000268	-0.004216	0.003631	-0.008700	-0.004216	0.006994	0.000268	0.006994	0.003631	0.004752	0.002510	0.000268	0.002510	0.005873	0.002510	0.002510	0.001389	0.000268	-0.008700	0.003631	0.000268	0.003631	0.002510	0.001389	0.003631	0.011478	0.011478	0.003631	0.000268	-0.005338	-0.010943	-0.004216	0.010358	0.031658	0.092196	0.035021	-0.019912	-0.088297	-0.043454	0.043990	-0.003095	-0.114081	-0.105113	-0.069239	-0.000854	0.072016	0.073138	0.026052	-0.014306	-0.018790	0.028295	0.046232	0.043990	0.005873	0.045111	0.023811	-0.034486	-0.063633	0.059685	0.069775	-0.006459	-0.037849	-0.044575	-0.044575	-0.007580	0.088833	0.124707	0.087712	-0.091660	-0.201526	-0.136503	-0.089418	-0.074844	0.026052	0.088833	0.066411	0.061927	0.021568	0.010358	0.023811	-0.041212	-0.018790	0.031658	0.059685	0.008115	0.021568	0.022690	0.013721	-0.062512	-0.007580	-0.045696	0.037264	0.104528	0.054079	0.041748	-0.062512	-0.129777	-0.160046	-0.072602	0.028295	0.069775	0.110134	0.045111	-0.069239	-0.027759	0.013721	0.046232	0.028295	0.015963	0.035021	0.006994	-0.068117	0.020447	0.130312	0.076501	-0.103992	-0.158925	-0.129777	-0.064755	0.056322	0.042869	0.061927	0.010358	0.051837	0.043990	0.058564	-0.017669	-0.096145	-0.157804	-0.066997	0.011478	-0.014306	-0.000854	0.033900	0.079864	0.047353	-0.008700	0.013721	0.052958	0.124707	0.098922	0.023811	-0.065876	0.042869	-0.001974	-0.051302	-0.121929	-0.135382	-0.111840	-0.088297	-0.068117	0.067532	0.098922	0.083228	0.001389	-0.009822	0.054079	0.116859	0.077622	0.031658	0.047353	-0.086055	-0.051302	-0.023275	-0.066997	-0.059149	0.029416	0.084348	0.082107	-0.017669	0.004752	-0.007580	-0.009822	-0.073724	-0.096145	-0.109597	0.026052	0.060806	0.060806	0.069775	0.061927	-0.045696	-0.072602	-0.058028	-0.013185	0.032779	0.142645	0.116859	0.041748	-0.123050	-0.044575	-0.059149	-0.017669	0.022690	-0.038970	-0.027759	-0.092782	0.052958	0.191972	0.143765	-0.065876	-0.173499	-0.162288	0.089954	0.061927	0.074259	0.012599	-0.050180	-0.059149	0.008115	0.038384	-0.049059	-0.009822	-0.015427	0.146008	0.010358	-0.099508	0.003631	0.070895	-0.008700	0.021568	0.015963	-0.010943	0.000268	0.130312	0.168430	-0.086055	-0.155562	-0.199284	-0.191436	0.133676	0.135918	0.116859	-0.036727	-0.234037	-0.152199	0.037264	0.055201	0.157218	0.115739	-0.014306	-0.049059	-0.127534	0.005873	-0.013185	-0.044575	0.092196	0.024931	0.066411	0.138160	0.093317	-0.060271	-0.012064	-0.068117	-0.013185	0.061927	0.208788	-0.003095	-0.297939	-0.174620	-0.056907	0.120223	0.020447	-0.155562	-0.071481	0.028295	0.084348	0.048474	0.084348	-0.018790	0.048474	0.104528	0.079864	0.073138	0.107891	-0.065876	-0.177983	-0.135382	-0.034486	0.033900	0.068654	0.049595	0.138160	0.128071	0.128071	0.003631	-0.232916	-0.247490	-0.203768	0.091075	0.140402	0.199819	-0.101750	-0.198163	0.039505	0.128071	0.059685	-0.063633	-0.156683	-0.071481	-0.026638	0.091075	0.149371	0.194214	0.070895	-0.127534	-0.172378	-0.130898	0.001389	0.023811	0.259237	0.227847	-0.180225	-0.240763	-0.220584	0.023811	0.012599	0.042869	0.100044	0.083228	0.050717	0.073138	0.026052	-0.027759	-0.210495	-0.143230	0.026052	0.187488	0.075380	0.023811	0.029416	-0.054665	-0.121929	-0.266548	-0.025517	0.148250	0.346681	0.240178	-0.154440	-0.293454	-0.114081	0.035021	-0.041212	-0.034486	0.019326	0.066411	0.087712	0.046232	0.079864	0.023811	-0.000854	-0.064755	-0.065876	0.079864	-0.000854	-0.074844	-0.100629	-0.026638	0.148250	0.171792	0.084348	-0.015427	-0.189194	-0.154440	-0.077086	0.065290	0.134797	0.048474	0.017084	-0.058028	-0.140987	-0.143230	-0.055786	0.019326	0.039505	0.134797	0.150492	0.105649	0.038384	-0.093903	-0.069239	0.087712	0.101165	-0.047939	-0.198163	-0.132019	-0.031122	0.115739	0.087712	-0.258701	-0.119688	0.015963	0.140402	0.012599	-0.015427	0.012599	0.048474	0.082107	0.033900	-0.038970	0.137039	0.116859	0.084348	-0.245248	-0.305786	-0.125293	0.004752	0.119102	0.119102	0.000268	-0.056907	-0.214979	-0.051302	0.102286	0.151613	0.024931	0.015963	0.065290	0.084348	-0.092782	-0.162288	-0.065876	0.120223	0.241300	0.206546	-0.101750	-0.160046	0.008115	0.023811	-0.000854	0.015963	0.059685	-0.065876	-0.171257	-0.294575	-0.158925	0.223362	0.156098	0.167308	0.134797	-0.136503	-0.144351	-0.030001	-0.140987	-0.070360	-0.033365	0.181883	0.087712	0.074259	0.096681	0.011478	0.040627	0.049595	-0.018790	-0.079329	-0.096145	0.006994	0.008115	0.196456	0.444214	0.132555	-0.452647	-0.697041	-0.394351	-0.081570	0.040627	0.153855	0.189729	0.184124	0.125828	0.194214	0.143765	0.031658	-0.207131	-0.146594	0.097801	0.113497	0.111254	0.035021	-0.037849	-0.355113	-0.225069	0.001389	0.135918	-0.066997	-0.170136	-0.015427	0.134797	0.141524	0.133676	0.187488	0.084348	-0.129777	-0.219463	-0.161167	0.015963	0.042869	0.031658	0.159461	0.135918	0.203182	-0.239642	-0.264306	-0.119688	0.079864	0.199819	0.096681	-0.064755	0.040627	0.107891	0.028295	0.011478	0.014842	-0.080450	-0.259821	-0.152199	-0.028880	0.195335	0.384797	0.012599	-0.427983	-0.182467	0.098922	0.135918	-0.075965	0.026052	0.225604	0.133676	0.183003	0.020447	-0.025517	-0.221705	-0.193678	-0.106235	-0.079329	0.060806	0.046232	0.030537	0.066411	0.205425	0.232331	-0.072602	-0.284486	-0.477310	0.065290	0.223362	0.223362	-0.109597	-0.386503	-0.268790	0.079864	0.255873	0.276052	0.151613	0.101165	-0.045696	-0.014306	-0.031122	-0.058028	-0.036727	0.023811	0.093317	-0.003095	-0.079329	-0.090539	0.059685	-0.038970	-0.175741	-0.034486	0.138160	0.200941	0.327622	-0.044575	-0.239642	-0.032243	0.115739	-0.143230	-0.297939	-0.036727	0.068654	0.134797	0.070895	0.113497	0.157218	0.077622	0.068654	0.033900	-0.108476	-0.214979	0.032779	0.092196	0.002510	-0.260943	-0.219463	-0.060271	0.097801	0.066411	0.058564	0.095560	0.158339	0.085469	-0.013185	0.058564	-0.022153	-0.016548	-0.129777	0.150492	0.520447	0.322016	-0.488522	-0.521033	-0.479553	-0.162288	0.000268	0.084348	0.184124	0.115739	0.177398	0.242420	0.264842	0.196456	0.100044	-0.198163	-0.278881	-0.260943	-0.068117	-0.008700	0.097801	0.119102	0.140402	0.167308	0.079864	-0.061391	-0.405561	-0.294575	-0.063633	0.084348	0.279416	0.454303	0.132555	-0.283365	-0.578207	-0.160046	0.177398	-0.031122	0.043990	0.083228	0.124707	0.160582	-0.009822	-0.084934	-0.153320	-0.043454	0.188609	0.236815	0.072016	-0.046818	-0.108476	0.030537	-0.017669	-0.142109	-0.199284	-0.108476	-0.060271	-0.009822	0.061927	-0.025517	-0.077086	0.054079	0.074259	-0.042333	0.070895	-0.007580	-0.098387	0.012599	0.082107	0.080985	0.119102	0.124707	0.216635	0.273811	0.012599	-0.445920	-0.382019	-0.219463	-0.025517	0.084348	0.300717	0.359012	-0.071481	-0.330450	-0.211616	0.008115	0.159461	0.115739	-0.025517	-0.151078	-0.118566	-0.081570	0.240178	0.313048	0.080985	-0.095023	-0.225069	-0.127534	0.036143	0.116859	0.130312	0.072016	0.101165	0.045111	-0.162288	-0.161167	0.036143	0.131434	0.272689	0.156098	-0.127534	-0.234037	-0.296818	-0.225069	-0.115203	-0.073724	0.165066	0.111254	0.169550	0.226725	0.069775	0.079864	-0.153320	-0.308028	-0.403320	-0.099508	0.296232	0.223362	0.143765	0.125828	-0.136503	-0.164530	-0.024396	0.174035	-0.006459	0.013721	0.038384	0.088833	0.040627	-0.001974	-0.166773	-0.119688	-0.036727	-0.000854	-0.005338	0.068654	0.320896	-0.026638	-0.413409	-0.351750	-0.005338	0.183003	0.187488	0.166187	-0.133141	-0.285606	-0.100629	0.205425	0.206546	0.122465	-0.081570	-0.041212	-0.032243	0.074259	-0.049059	0.205425	0.223362	-0.117445	-0.204889	-0.264306	-0.088297	0.014842	0.109013	0.161703	0.120223	-0.063633	-0.154440	-0.018790	-0.107356	0.061927	0.132555	0.260358	0.112375	-0.183589	-0.119688	-0.101750	-0.062512	-0.183589	0.008115	-0.042333	0.097801	0.161703	0.115739	0.035021	-0.022153	-0.033365	0.093317	0.268205	0.138160	0.198698	-0.162288	-0.365203	-0.216100	-0.078208	-0.068117	-0.000854	-0.116324	0.004752	0.096681	0.037264	0.055201	0.165066	0.212151	0.076501	-0.158925	-0.181346	0.008115	0.084348	0.064169	0.088833	-0.032243	-0.145472	-0.105113	0.149371	0.054079	0.076501	0.168430	-0.012064	-0.179105	-0.267669	-0.140987	0.073138	0.285021	0.383676	-0.038970	-0.427983	-0.527759	-0.099508	0.096681	0.123586	0.149371	0.132555	0.095560	0.084348	-0.025517	-0.049059	0.004752	0.168430	0.122465	-0.086055	0.037264	0.082107	0.051837	-0.213857	-0.173499	-0.134261	0.190851	0.066411	-0.229553	-0.100629	-0.162288	-0.010943	-0.059149	0.038384	0.252510	0.291748	0.252510	-0.171257	-0.299059	-0.061391	-0.047939	0.156098	0.111254	-0.186951	0.080985	0.033900	-0.153320	-0.137625	-0.014306	0.135918	0.024931	-0.119688	-0.092782	0.065290	0.031658	0.097801	0.092196	-0.003095	0.022690	0.194214	0.281658	0.114618	-0.341660	-0.364082	-0.201526	-0.157804	-0.037849	-0.031122	0.138160	0.107891	0.147129	0.070895	-0.041212	0.128071	0.189729	0.003631	-0.241884	-0.349508	-0.195920	0.103407	0.147129	0.218878	0.074259	0.076501	0.069775	0.029416	-0.138746	-0.244127	-0.311392	0.010358	0.110134	0.227847	0.187488	0.299595	0.066411	-0.237400	-0.292333	-0.236279	-0.121929	0.055201	0.163945	0.168430	0.306322	0.253631	-0.238522	-0.444799	-0.248611	-0.001974	0.152734	0.227847	0.075380	-0.018790	-0.121929	-0.015427	-0.137625	-0.093903	-0.053544	0.057442	0.041748	0.165066	0.161703	0.277173	0.093317	-0.292333	-0.240763	-0.036727	0.057442	0.226725	0.141524	-0.050180	-0.026638	0.097801	-0.121929	-0.228432	-0.061391	0.040627	-0.001974	-0.136503	-0.163409	-0.016548	0.105649	0.214394	0.338833	0.022690	-0.098387	-0.099508	0.059685	0.052958	-0.161167	-0.072602	0.106770	0.116859	0.282779	0.267084	0.098922	-0.283365	-0.416773	-0.506459	-0.101750	0.048474	0.388160	0.526052	0.227847	-0.281122	-0.628655	-0.295696	0.035021	0.165066	0.149371	0.140402	0.115739	0.473362	0.206546	-0.202647	-0.417893	-0.171257	0.048474	0.084348	0.088833	-0.003095	0.194214	0.225604	-0.045696	-0.231795	-0.166773	0.039505	-0.221705	-0.277759	0.032779	0.194214	0.378071	0.199819	-0.171257	-0.457131	-0.303544	-0.081570	0.036143	0.387040	0.419551	0.017084	-0.614082	-0.497490	0.039505	0.098922	0.195335	0.077622	0.115739	0.112375	0.160582	0.112375	-0.125293	-0.001974	0.031658	0.086591	0.032779	0.255873	0.370223	0.444214	-0.355113	-0.636503	-0.751974	-0.334934	-0.004216	0.320896	0.160582	-0.161167	0.052958	0.298474	0.124707	-0.119688	-0.220584	-0.127534	0.135918	0.075380	0.055201	0.021568	0.084348	0.078743	0.175156	0.213272	0.006994	-0.036727	0.070895	0.091075	-0.023275	-0.169014	0.070895	0.061927	-0.109597	-0.271033	-0.214979	-0.090539	-0.075965	0.073138	-0.044575	-0.245248	0.080985	0.267084	0.046232	-0.149956	-0.007580	0.101165	0.148250	-0.024396	-0.108476	-0.022153	0.095560	0.070895	0.068654	0.114618	0.050717	-0.102871	-0.083813	-0.099508	-0.013185	0.371344	0.433004	-0.134261	-0.419014	-0.490763	-0.371929	0.028295	0.049595	0.243541	0.163945	0.147129	0.135918	0.036143	-0.185831	-0.336055	-0.139867	0.230088	0.365739	0.048474	-0.136503	-0.228432	-0.018790	0.221120	-0.043454	-0.086055	0.024931	-0.053544	0.080985	0.163945	0.175156	0.054079	0.009237	0.113497	0.031658	0.132555	0.073138	-0.240763	-0.488522	-0.370809	-0.202647	-0.036727	0.120223	0.239057	0.150492	-0.025517	0.101165	-0.016548	-0.015427	0.000268	0.047353	-0.119688	0.032779	0.184124	0.218878	0.166187	-0.296818	-0.348387	-0.249732	-0.037849	0.017084	0.043990	0.088833	0.227847	0.366860	0.375828	0.036143	-0.350629	-0.176862	-0.256459	-0.387624	0.024931	0.178519	-0.012064	-0.212737	-0.287849	-0.054665	0.070895	0.072016	0.261479	0.251389	0.066411	-0.036727	0.048474	0.045111	0.038384	0.064169	0.109013	0.166187	0.128071	0.026052	-0.379777	-0.571481	-0.130898	0.032779	0.084348	-0.027759	0.115739	0.214394	0.093317	-0.167893	-0.249732	-0.119688	0.065290	0.314170	0.477846	0.022690	-0.439194	-0.485158	-0.066997	0.075380	0.095560	-0.116324	-0.068117	0.018205	0.115739	0.156098	0.216635	0.259237	0.178519	-0.063633	-0.331571	-0.204889	-0.017669	0.245784	0.264842	0.256994	-0.419014	-0.486279	-0.544575	-0.026638	0.156098	0.030537	0.109013	-0.008700	0.052958	0.015963	0.206546	0.207667	0.107891	0.043990	0.028295	0.045111	-0.025517	-0.090539	-0.156683	-0.052423	0.141524	0.251389	0.276052	0.106770	-0.303544	-0.453768	-0.452647	-0.005338	-0.009822	0.000268	-0.033365	0.115739	0.150492	0.287264	0.285021	0.159461	-0.192558	-0.249732	-0.194799	0.012599	0.074259	0.075380	0.143765	0.143765	-0.008700	-0.165652	-0.204889	-0.083813	-0.100629	-0.015427	0.123586	0.323138	0.307443	-0.051302	-0.299059	-0.184710	-0.053544	-0.087176	-0.045696	0.117981	0.138160	-0.003095	-0.061391	0.159461	0.111254	-0.102871	-0.277759	-0.162288	0.085469	0.218878	0.105649	-0.260943	-0.195920	0.080985	0.041748	-0.119688	-0.139867	0.047353	0.126949	0.129192	0.194214	0.319775	0.180761	-0.014306	-0.325965	-0.276638	-0.007580	-0.074844	-0.209373	-0.111840	-0.008700	0.089954	0.166187	0.204304	0.165066	0.063048	-0.123050	-0.117445	0.014842	0.070895	0.189729	0.153855	-0.108476	-0.302423	-0.277759	-0.052423	0.087712	0.146008	0.074259	-0.010943	0.113497	0.061927	-0.030001	0.089954	-0.144351	-0.291212	-0.243006	0.020447	0.110134	0.158339	0.234573	0.171792	-0.041212	-0.211616	-0.209373	-0.078208	0.047353	0.073138	0.028295	0.057442	0.080985	-0.015427	-0.068117	0.014842	0.063048	0.077622	0.151613	0.235693	0.143765	-0.204889	-0.303544	-0.343903	-0.098387	0.017084	0.015963	0.184124	0.144886	0.045111	-0.013185	-0.214979	-0.008700	0.031658	-0.003095	-0.071481	0.052958	0.079864	0.066411	-0.092782	0.003631	0.033900	-0.001974	0.014842	0.033900	0.013721	0.111254	0.158339	0.027174	-0.124172	-0.186951	-0.110719	0.004752	0.060806	0.061927	0.092196	0.125828	0.169550	-0.169014	-0.272154	-0.201526	0.142645	0.013721	-0.036727	-0.102871	0.063048	0.069775	0.005873	-0.038970	-0.049059	-0.006459	0.009237	0.002510	-0.012064	-0.007580	0.031658	0.060806	0.060806	0.020447	-0.014306	-0.022153	0.000268	-0.003095	0.177398	0.122465	0.024931	-0.055786	-0.300180	-0.152199	0.013721	-0.072602	0.009237	0.190851	0.195335	-0.051302	-0.247490	-0.128656	-0.069239	0.043990	0.013721	0.084348	0.102286	0.009237	-0.041212	-0.017669	0.094438	0.079864	-0.028880	-0.044575	0.013721	0.003631	-0.068117	0.045111	0.101165	0.018205	0.093317	0.111254	-0.065876	-0.110719	-0.130898	-0.086055	-0.000854	-0.093903	0.023811	0.020447	0.041748	-0.004216	0.008115	0.036143	0.043990	0.028295	0.048474	0.087712	0.158339	-0.106235	-0.269912	-0.098387	0.004752	0.043990	0.021568	0.052958	0.029416	0.073138	0.005873	-0.081570	-0.133141	-0.037849	-0.016548	0.021568	0.248026	0.325380	0.068654	-0.283365	-0.302423	-0.153320	-0.047939	-0.016548	0.046232	-0.001974	0.047353	0.167308	0.259237	0.181883	-0.081570	-0.275517	-0.198163	-0.135382	0.027174	0.097801	0.092196	0.061927	0.028295	-0.003095	-0.041212	-0.010943	0.083228	0.174035	0.206546	0.012599	-0.198163	-0.369687	-0.088297	0.001389	0.010358	0.011478	0.018205	0.082107	0.093317	0.147129	0.060806	-0.052423	0.048474	0.015963	0.004752	-0.035606	-0.237400	-0.249732	-0.061391	0.125828	0.217756	0.161703	0.032779	-0.162288	-0.174620	-0.033365	0.059685	0.114618	0.065290	-0.030001	-0.064755	-0.171257	-0.149956	-0.004216	0.049595	0.080985	0.076501	0.058564	0.059685	0.020447	-0.022153	0.019326	0.028295	-0.019912	-0.058028	-0.074844	-0.052423	0.070895	0.079864	0.012599	0.065290	0.008115	0.051837	-0.008700	-0.070360	0.065290	0.105649	0.057442	-0.171257	-0.254216	-0.177983	-0.175741	-0.000854	0.080985	0.086591	0.051837	0.028295	0.035021	0.129192	0.101165	0.109013	0.023811	-0.051302	-0.036727	0.011478	-0.015427	-0.015427	0.020447	-0.050180	-0.003095	0.137039	0.035021	-0.105113	-0.047939	-0.026638	0.019326	-0.041212	-0.045696	-0.055786	0.115739	0.097801	0.074259	-0.032243	-0.049059	0.030537	-0.062512	-0.125293	-0.023275	0.026052	-0.095023	-0.050180	0.003631	0.116859	0.089954	0.105649	0.061927	-0.004216	-0.066997	-0.024396	0.024931	-0.014306	-0.008700	-0.034486	0.032779	-0.007580	0.003631	0.183003	0.290626	0.114618	-0.266548	-0.471705	-0.239642	0.120223	0.165066	0.032779	0.092196	0.161703	-0.074844	-0.251975	-0.121929	0.050717	0.022690	0.102286	0.084348	-0.008700	-0.025517	-0.032243	0.067532	0.059685	0.083228	0.073138	0.061927	-0.032243	-0.175741	-0.149956	-0.063633	0.023811	0.089954	0.119102	0.113497	-0.003095	-0.100629	-0.030001	-0.012064	-0.026638	0.033900	-0.003095	-0.010943	0.102286	0.003631	0.003631	-0.133141	0.035021	0.089954	0.137039	-0.016548	-0.193678	-0.148835	-0.023275	-0.005338	-0.049059	-0.005338	0.144886	0.177398	0.195335	-0.000854	-0.121929	-0.148835	0.018205	-0.068117	-0.054665	0.100044	0.239057	0.196456	0.008115	-0.200404	-0.323723	-0.271033	-0.161167	0.067532	0.174035	0.181883	0.232331	0.131434	0.011478	-0.038970	-0.062512	-0.065876	-0.024396	0.169550	0.183003	-0.058028	-0.336055	-0.302423	-0.184710	0.088833	0.344438	0.350043	0.010358	-0.147714	-0.194799	-0.219463	-0.137625	0.051837	0.096681	0.113497	0.105649	0.306322	0.240178	-0.077086	-0.359597	-0.306907	0.014842	0.129192	0.138160	0.181883	-0.107356	-0.199284	-0.030001	0.030537	-0.000854	-0.258701	-0.077086	0.103407	0.122465	0.278295	0.214394	0.056322	-0.305786	-0.179105	0.000268	-0.026638	0.051837	0.043990	0.268205	0.206546	0.000268	-0.190315	-0.214979	-0.126414	-0.155562	-0.144351	0.043990	0.228967	0.130312	0.128071	-0.028880	-0.226189	-0.090539	-0.049059	-0.001974	0.072016	0.079864	0.115739	0.097801	-0.086055	0.057442	0.029416	-0.015427	-0.126414	-0.182467	0.002510	0.114618	0.207667	0.196456	-0.017669	-0.218342	-0.229553	-0.251975	0.033900	0.103407	0.129192	0.095560	0.041748	-0.088297	-0.245248	-0.106235	-0.006459	0.202062	0.272689	0.093317	-0.019912	-0.170136	-0.077086	0.042869	0.043990	0.107891	0.069775	0.035021	0.036143	-0.061391	-0.222826	-0.293454	-0.038970	0.128071	0.338833	0.245784	-0.184710	-0.340539	-0.227310	-0.073724	0.084348	0.109013	0.132555	0.200941	0.264842	0.301837	-0.288970	-0.382019	-0.373050	-0.016548	0.083228	0.200941	0.197577	-0.027759	-0.038970	0.068654	0.124707	0.112375	-0.142109	-0.241884	-0.081570	0.060806	0.082107	0.273811	0.347801	0.186367	-0.351750	-0.590539	-0.348387	0.141524	0.046232	-0.004216	-0.074844	0.010358	0.151613	0.139281	0.156098	0.046232	0.088833	0.035021	-0.091660	-0.153320	-0.068117	0.116859	0.144886	0.128071	0.116859	0.100044	-0.103992	-0.163409	-0.149956	-0.106235	0.024931	0.075380	-0.164530	-0.084934	-0.172378	-0.054665	0.036143	0.063048	0.205425	0.206546	0.037264	-0.022153	-0.024396	0.087712	-0.042333	-0.072602	-0.059149	0.216635	0.256994	0.117981	-0.167893	-0.368566	-0.208252	-0.148835	-0.092782	-0.000854	0.057442	0.179640	0.216635	0.156098	0.065290	-0.034486	-0.144351	-0.155562	-0.082692	0.052958	0.137039	0.187488	-0.083813	-0.188073	-0.202647	-0.014306	0.075380	0.112375	0.125828	0.186367	0.158339	0.117981	-0.091660	-0.119688	-0.174620	-0.115203	-0.062512	0.119102	0.139281	-0.024396	-0.195920	-0.234037	0.098922	-0.005338	-0.009822	0.026052	0.207667	0.139281	-0.055786	-0.041212	-0.155562	-0.162288	0.088833	0.200941	0.244662	0.138160	-0.044575	-0.349508	-0.295696	-0.257580	-0.078208	0.148250	0.319775	0.085469	-0.059149	-0.119688	0.041748	0.069775	0.144886	0.098922	0.075380	-0.054665	-0.101750	-0.068117	0.089954	0.058564	0.046232	-0.084934	-0.101750	-0.293454	-0.202647	-0.078208	0.162824	0.293990	0.003631	-0.137625	-0.114081	0.088833	0.098922	-0.021033	0.038384	0.091075	0.068654	0.009237	0.133676	0.141524	-0.097266	-0.077086	-0.091660	-0.223948	-0.172378	-0.023275	0.225604	0.262599	0.144886	-0.373050	-0.359597	-0.140987	0.058564	0.151613	0.227847	0.267084	0.194214	0.052958	-0.322602	-0.419014	-0.209373	0.030537	0.093317	0.114618	0.073138	0.185245	0.371344	0.308563	-0.255337	-0.427983	-0.154440	0.064169	0.023811	0.057442	-0.096145	-0.032243	0.024931	0.156098	0.329864	0.061927	-0.214979	-0.327086	-0.052423	0.073138	0.065290	-0.102871	-0.068117	0.235693	0.528295	-0.023275	-0.531122	-0.491884	-0.084934	0.124707	0.140402	0.196456	0.125828	0.112375	0.120223	-0.003095	-0.014306	0.043990	0.091075	0.036143	-0.009822	0.075380	0.064169	-0.125293	-0.374172	-0.385382	-0.045696	0.093317	0.272689	0.170671	0.004752	-0.191436	-0.130898	-0.019912	-0.007580	0.085469	0.076501	0.149371	-0.021033	-0.112961	-0.016548	-0.065876	-0.056907	0.066411	-0.024396	0.183003	0.131434	-0.034486	-0.112961	-0.108476	0.073138	0.282779	0.315290	-0.072602	-0.516548	-0.287849	-0.073724	0.002510	-0.089418	0.015963	0.217756	0.169550	-0.065876	-0.006459	-0.018790	0.101165	0.198698	0.152734	-0.146594	-0.407804	-0.200404	-0.074844	0.083228	0.141524	0.116859	0.110134	0.178519	0.067532	-0.092782	-0.068117	0.140402	0.137039	-0.084934	-0.206011	-0.121929	0.098922	0.078743	-0.003095	-0.052423	0.027174	0.080985	0.105649	-0.003095	-0.099508	-0.256459	-0.166773	-0.016548	-0.053544	-0.023275	0.059685	0.085469	0.015963	0.023811	0.060806	0.030537	0.040627	0.087712	0.060806	-0.010943	0.017084	-0.080450	-0.045696	-0.044575	0.048474	0.256994	0.282779	-0.169014	-0.198163	-0.091660	-0.068117	-0.158925	-0.101750	0.064169	0.041748	0.107891	0.112375	-0.096145	-0.203768	-0.115203	0.035021	0.147129	0.058564	0.005873	0.050717	0.092196	0.129192	0.079864	-0.038970	-0.080450	-0.050180	-0.060271	0.014842	-0.001974	-0.003095	0.152734	0.094438	-0.105113	-0.074844	0.023811	0.065290	-0.007580	-0.063633	-0.041212	-0.004216	0.088833	0.051837	-0.109597	-0.197042	-0.264306	-0.146594	0.038384	0.190851	0.144886	0.041748	0.047353	0.020447	-0.038970	-0.013185	-0.006459	0.003631	0.010358	0.060806	0.050717	0.041748	0.084348	-0.056907	-0.060271	0.038384	-0.068117	0.076501	0.133676	0.042869	-0.118566	-0.208252	-0.054665	-0.013185	-0.005338	0.006994	0.004752	-0.049059	-0.042333	-0.000854	0.026052	-0.021033	0.078743	0.072016	0.037264	0.030537	0.012599	-0.077086	-0.000854	0.161703	0.046232	-0.189194	-0.157804	-0.095023	0.045111	-0.004216	0.046232	0.030537	0.069775	0.211030	0.211030	0.033900	-0.280001	-0.276638	-0.072602	0.032779	0.165066	0.097801	0.037264	-0.074844	-0.099508	0.078743	-0.111840	-0.117445	-0.079329	0.080985	0.028295	-0.012064	-0.077086	-0.010943	0.084348	0.159461	0.033900	-0.027759	0.026052	-0.007580	-0.010943	0.021568	0.045111	0.024931	0.039505	0.092196	0.119102	-0.130898	-0.301302	0.001389	0.153855	0.123586	0.052958	-0.112961	-0.083813	-0.103992	-0.184710	-0.116324	0.028295	0.070895	0.027174	0.185245	0.068654	-0.023275	-0.025517	-0.012064	-0.027759	0.037264	0.111254	0.066411	-0.051302	-0.051302	0.001389	-0.006459	-0.008700	0.058564	0.039505	0.075380	-0.005338	0.064169	0.041748	-0.073724	-0.088297	-0.153320	-0.007580	-0.115203	0.003631	-0.047939	-0.044575	-0.061391	0.006994	0.074259	0.054079	0.026052	0.024931	-0.000854	0.114618	0.003631	-0.036727	-0.009822	-0.036727	0.046232	0.066411	0.059685	0.046232	0.087712	-0.043454	-0.061391	-0.053544	-0.042333	0.080985	-0.017669	-0.202647	-0.267669	-0.169014	0.085469	0.024931	0.068654	-0.051302	0.004752	0.057442	0.092196	0.060806	0.054079	0.048474	0.084348	-0.000854	-0.012064	0.004752	0.011478	0.008115	0.019326	-0.003095	-0.032243	0.030537	0.049595	0.006994	0.054079	-0.031122	-0.108476	0.061927	0.098922	-0.234037	-0.332691	0.050717	0.244662	0.018205	-0.142109	-0.123050	-0.102871	0.070895	0.018205	0.015963	0.046232	0.078743	0.063048	0.038384	0.091075	0.076501	-0.008700	-0.038970	0.004752	-0.026638	0.020447	-0.019912	-0.055786	0.018205	0.005873	0.008115	-0.000854	0.087712	0.073138	0.074259	0.018205	-0.065876	0.103407	-0.046818	-0.399956	-0.364082	-0.086055	0.042869	0.107891	0.089954	0.113497	0.070895	0.010358	0.049595	0.067532	0.035021	0.026052	0.043990	0.001389	-0.008700	0.011478	-0.005338	-0.010943	-0.005338	-0.005338	-0.021033	-0.017669	-0.009822	0.033900	0.019326	0.026052	0.041748	0.075380	0.094438	-0.044575	-0.128656	-0.185831	0.065290	-0.043454	-0.070360	-0.008700	0.069775	-0.082692	-0.210495	-0.035606	-0.008700	0.001389	0.083228	0.082107	0.074259	0.037264	0.052958	0.029416	0.024931	0.052958	0.020447	0.002510	0.003631	0.022690	0.014842	-0.010943	0.012599	0.017084	0.004752	0.050717	-0.025517	-0.090539	-0.024396	0.046232	0.019326	-0.081570	-0.070360	0.018205	0.006994	-0.046818	-0.055786	-0.035606	0.017084	0.168430	0.052958	-0.055786	-0.090539	-0.065876	0.023811	0.030537	-0.016548	0.009237	0.045111	0.050717	0.093317	0.004752	-0.032243	0.039505	0.080985	0.015963	-0.001974	-0.068117	-0.095023	-0.175741	-0.007580	-0.066997	0.006994	0.179640	0.193093	0.091075	-0.121929	-0.193678	-0.036727	0.051837	0.109013	-0.203768	-0.221705	-0.088297	0.114618	0.058564	0.079864	0.066411	0.113497	-0.018790	-0.047939	0.048474	-0.068117	-0.008700	-0.051302	0.092196	-0.024396	0.001389	0.088833	0.140402	0.013721	-0.041212	-0.091660	-0.060271	-0.154440	-0.189194	-0.018790	0.148250	0.227847	0.276052	0.049595	-0.241884	-0.278881	-0.134261	-0.086055	-0.098387	-0.036727	0.190851	0.218878	0.166187	0.057442	0.046232	-0.052423	-0.174620	-0.144351	-0.042333	0.149371	0.092196	0.000268	0.017084	0.048474	-0.271033	-0.059149	0.032779	0.178519	0.179640	0.098922	-0.158925	-0.166773	-0.119688	-0.015427	-0.009822	0.015963	-0.091660	-0.097266	0.103407	0.366860	0.272689	-0.180225	-0.313633	-0.100629	0.021568	-0.058028	-0.004216	0.033900	0.102286	0.161703	0.134797	0.036143	-0.161167	-0.277759	-0.169014	0.011478	0.079864	0.227847	0.244662	0.077622	-0.041212	-0.251975	-0.056907	-0.018790	-0.055786	-0.095023	-0.034486	0.026052	0.065290	0.133676	0.096681	-0.016548	-0.054665	0.013721	0.058564	0.057442	0.103407	-0.088297	-0.318118	-0.203768	0.058564	0.060806	0.186367	0.074259	-0.117445	-0.438073	-0.040091	0.156098	0.218878	0.135918	0.026052	-0.014306	-0.072602	-0.058028	0.038384	0.060806	-0.091660	0.079864	0.165066	0.147129	-0.006459	-0.180225	-0.350629	-0.125293	0.061927	0.076501	0.086591	0.131434	0.019326	-0.031122	0.049595	-0.059149	-0.021033	-0.030001	-0.134261	-0.154440	0.050717	0.333228	0.264842	-0.123050	-0.070360	-0.018790	-0.089418	-0.194799	-0.201526	0.068654	0.100044	0.068654	0.126949	0.111254	0.048474	-0.080450	-0.078208	-0.226189	-0.186951	0.006994	0.074259	0.078743	0.096681	0.005873	0.135918	0.342196	0.278295	-0.130898	-0.208252	-0.395472	-0.220584	-0.198163	0.117981	0.143765	0.040627	0.038384	0.190851	0.102286	-0.125293	-0.172378	-0.082692	0.023811	-0.047939	0.000268	0.214394	0.194214	-0.062512	-0.096145	-0.167893	-0.074844	-0.227310	-0.035606	0.097801	0.217756	0.256994	0.141524	-0.190315	-0.244127	-0.297939	-0.012064	0.043990	0.037264	0.207667	0.250268	0.096681	-0.009822	-0.171257	-0.074844	0.197577	0.061927	-0.194799	-0.189194	0.011478	0.048474	0.068654	-0.120808	-0.129777	-0.098387	0.059685	0.057442	0.151613	0.202062	0.001389	-0.117445	-0.149956	-0.052423	-0.225069	-0.181346	-0.092782	0.101165	0.151613	0.126949	0.093317	0.052958	0.010358	0.102286	0.079864	-0.016548	-0.050180	-0.043454	-0.006459	0.121344	0.012599	-0.049059	-0.204889	-0.098387	0.310806	0.328743	-0.179105	-0.288970	-0.572602	-0.071481	0.088833	0.040627	0.031658	-0.013185	-0.022153	-0.108476	0.024931	0.191972	0.058564	-0.028880	0.046232	-0.041212	0.010358	0.066411	0.106770	0.169550	0.253631	-0.035606	-0.235158	-0.198163	-0.092782	0.005873	0.029416	0.061927	0.139281	0.102286	0.001389	-0.149956	-0.356235	-0.115203	0.084348	0.117981	0.214394	0.048474	-0.275517	-0.216100	-0.072602	0.150492	0.190851	0.113497	-0.084934	-0.162288	-0.053544	0.056322	0.083228	0.054079	0.052958	0.160582	0.142645	0.054079	-0.160046	-0.202647	-0.014306	0.190851	0.161703	0.061927	-0.102871	-0.108476	-0.282243	-0.272154	-0.021033	0.089954	0.165066	-0.004216	-0.018790	0.000268	0.094438	0.269326	0.183003	0.061927	-0.300180	-0.193678	0.038384	-0.025517	-0.171257	-0.123050	0.054079	-0.091660	-0.012064	0.065290	0.111254	0.112375	0.079864	0.063048	0.159461	0.130312	0.133676	-0.001974	-0.286727	-0.183589	-0.135382	0.010358	-0.106235	0.027174	0.167308	0.038384	-0.182467	-0.194799	-0.151078	0.054079	0.072016	0.094438	0.074259	0.020447	0.115739	0.149371	-0.049059	-0.164530	-0.079329	-0.049059	0.002510	-0.025517	-0.074844	0.076501	0.153855	0.154977	0.094438	-0.083813	0.190851	0.214394	-0.154440	-0.239642	-0.461616	-0.263185	-0.003095	0.083228	0.128071	0.092196	0.056322	0.096681	0.075380	0.188609	0.232331	0.094438	-0.040091	-0.226189	-0.207131	-0.179105	-0.235158	-0.105113	0.078743	0.161703	0.124707	0.111254	0.070895	-0.017669	-0.055786	-0.024396	-0.022153	0.068654	0.091075	-0.007580	0.024931	-0.034486	-0.006459	-0.101750	-0.037849	0.077622	0.098922	-0.089418	-0.126414	-0.226189	0.032779	0.052958	0.013721	-0.024396	-0.036727	0.000268	0.122465	0.105649	0.054079	-0.092782	-0.099508	-0.007580	0.010358	0.055201	0.055201	0.005873	0.041748	0.047353	0.002510	-0.034486	-0.006459	0.026052	0.006994	-0.016548	-0.114081	0.014842	0.066411	-0.064755	-0.073724	0.115739	0.008115	-0.148835	-0.071481	-0.019912	0.030537	0.046232	0.010358	-0.001974	0.000268	0.006994	0.036143	0.030537	0.022690	-0.000854	0.040627	0.019326	-0.008700	-0.056907	-0.080450	0.036143	0.033900	0.010358	0.023811	0.015963	-0.015427	-0.161167	0.026052	0.151613	0.020447	-0.163409	-0.139867	-0.010943	0.024931	0.030537	0.036143	-0.015427	0.005873	0.012599	0.015963	0.000268	0.036143	0.012599	0.024931	0.017084	0.003631	-0.012064	-0.005338	-0.013185	-0.000854	-0.015427	-0.023275	-0.004216	0.055201	0.037264	-0.024396	0.017084	-0.059149	-0.074844	-0.005338	0.031658	0.017084	-0.038970	-0.000854	0.031658	0.028295	-0.007580	-0.015427	0.019326	0.011478	0.012599	0.002510	-0.018790	-0.009822	0.010358	-0.000854	0.029416	0.043990	0.013721	-0.035606	-0.055786	-0.056907	-0.025517	-0.009822	-0.010943	0.001389	0.021568	0.013721	0.022690	0.014842	0.000268	0.005873	-0.015427	-0.004216	0.005873	-0.021033	0.021568	0.009237	0.005873	-0.017669	-0.003095	0.036143	0.032779	0.027174	-0.038970	-0.053544	-0.033365	-0.018790	0.003631	0.002510	0.022690	0.000268	0.008115	0.040627	0.074259	0.061927	-0.041212	-0.083813	-0.073724	0.037264	0.069775	0.021568	-0.047939	-0.092782	-0.070360	-0.030001	0.029416	0.086591	0.035021	0.006994	0.061927	0.080985	-0.008700	-0.084934	-0.181346	0.006994	-0.008700	-0.018790	-0.005338	0.042869	0.045111	0.021568	-0.041212	-0.019912	0.020447	0.012599	0.033900	0.026052	0.003631	0.020447	-0.003095	0.003631	-0.009822	-0.006459	-0.019912	-0.021033	0.002510	-0.005338	-0.019912	-0.018790	0.022690	0.082107	0.077622	-0.059149	-0.120808	-0.086055	-0.028880	0.015963	-0.009822	0.008115	0.023811	0.022690	0.035021	-0.014306	-0.024396	0.002510	0.027174	0.019326	-0.019912	-0.043454	-0.007580	0.001389	-0.000854	-0.008700	0.039505	0.030537	0.011478	-0.035606	-0.025517	-0.010943	0.000268	-0.005338	0.011478	0.030537	0.017084	-0.030001	-0.018790	-0.007580	-0.001974	0.004752	0.047353	0.017084	-0.047939	-0.014306	0.000268	0.060806	0.041748	-0.040091	-0.088297	-0.086055	-0.006459	0.037264	0.052958	0.002510	-0.009822	0.023811	0.012599	0.005873	-0.026638	-0.015427	0.000268	-0.000854	-0.010943	-0.005338	0.009237	0.001389	0.006994	0.005873	0.012599	-0.000854	0.001389	-0.000854	0.010358	0.028295	0.019326	0.043990	0.001389	-0.061391	-0.060271	-0.027759	0.005873	-0.028880	-0.015427	0.019326	0.011478	-0.018790	-0.000854	0.020447	0.031658	0.026052	0.028295	0.030537	-0.041212	-0.070360	-0.045696	-0.052423	0.001389	0.029416	0.043990	0.013721	0.022690	-0.010943	-0.026638	-0.043454	0.015963	0.068654	0.026052	-0.014306	-0.075965	-0.031122	0.000268	0.005873	-0.003095	0.011478	0.002510	0.001389	0.008115	0.005873	0.009237	0.002510	0.011478	-0.012064	0.012599	-0.008700	0.023811	-0.006459	0.005873	-0.019912	-0.036727	-0.016548	0.002510	0.014842	-0.005338	0.010358	-0.099508	0.028295	0.008115	0.000268	-0.018790	0.006994	0.002510	-0.004216	-0.003095	0.009237	0.018205	0.009237	0.020447	-0.009822	-0.007580	0.026052	-0.019912	-0.003095	0.024931	0.012599	-0.054665	-0.000854	-0.014306	-0.015427	0.021568	0.055201	0.030537	0.026052	-0.064755	-0.083813	-0.035606	0.038384	-0.027759	-0.024396	0.052958	0.075380	0.020447	-0.034486	-0.006459	-0.031122	-0.017669	0.002510	-0.050180	-0.038970	0.014842	0.014842	0.011478	0.010358	0.018205	0.004752	0.015963	0.032779	0.064169	-0.024396	-0.059149	-0.037849	-0.010943	-0.006459	0.004752	0.059685	0.037264	-0.008700	-0.005338	-0.064755	-0.063633	-0.071481	0.004752	0.026052	0.019326	0.003631	0.021568	0.055201	0.033900	0.010358	-0.034486	-0.042333	-0.018790	0.002510	0.023811	-0.001974	-0.040091	-0.036727	-0.001974	-0.001974	0.000268	0.014842	0.010358	0.000268	0.002510	0.006994	0.006994	-0.000854	0.006994	0.001389	0.001389	-0.013185	-0.007580	-0.028880	-0.026638	-0.008700	-0.034486	0.003631	0.021568	0.015963	0.004752	-0.000854	0.014842	0.015963	-0.019912	0.026052	-0.015427	-0.016548	-0.026638	0.030537	0.014842	-0.058028	0.026052	0.039505	0.004752	-0.043454	-0.055786	-0.038970	0.008115	0.020447	0.005873	0.003631	-0.000854	0.008115	-0.005338	0.004752	0.003631	-0.004216	0.002510	0.005873	0.005873	0.002510	-0.010943	0.000268	0.005873	-0.022153	0.005873	0.000268	-0.032243	-0.026638	0.013721	-0.008700	0.009237	0.012599	0.006994	-0.003095	0.004752	-0.000854	0.010358	-0.004216	-0.015427	0.005873	0.000268	0.001389	-0.013185	0.010358	0.050717	0.021568	-0.030001	-0.037849	-0.032243	-0.019912	-0.005338	-0.034486	-0.019912	0.014842	0.020447	0.005873	0.006994	0.002510	0.019326	0.010358	-0.008700	-0.000854	-0.015427	-0.006459	0.017084	0.009237	-0.036727	-0.016548	-0.003095	-0.008700	-0.001974	-0.001974	0.011478	-0.014306	-0.001974	0.001389	0.001389	0.005873	-0.017669	-0.007580	0.013721	0.029416	0.021568	-0.012064	-0.050180	-0.051302	-0.051302	0.010358	0.002510	0.009237	0.008115	0.005873	0.010358	0.013721	0.011478	0.036143	0.018205	-0.015427	-0.021033	0.009237	0.023811	-0.024396	-0.040091	-0.026638	-0.003095	0.009237	0.010358	0.000268	0.004752	-0.005338	-0.003095	0.005873	-0.007580	0.004752	-0.001974	-0.004216	-0.000854	-0.015427	-0.022153	0.027174	0.046232	0.011478	-0.040091	-0.038970	-0.065876	0.002510	-0.012064	0.009237	0.008115	-0.005338	0.002510	0.010358	0.010358	0.004752	-0.013185	0.008115	-0.000854	-0.014306	0.015963	0.040627	0.014842	-0.015427	-0.066997	-0.041212	-0.031122	0.003631	0.008115	0.014842	0.008115	0.003631	0.001389	0.008115	0.000268	-0.005338	-0.005338	0.012599	0.040627	0.033900	-0.019912	-0.046818	-0.056907	-0.015427	0.012599	0.020447	0.003631	0.004752	0.008115	-0.003095	-0.007580	-0.000854	-0.016548	-0.006459	0.028295	0.031658	0.021568	-0.055786	-0.050180	-0.010943	0.001389	0.014842	0.010358	0.003631	0.018205	-0.009822	-0.012064	-0.021033	-0.031122	-0.009822	0.005873	0.052958	0.059685	-0.013185	-0.056907	-0.079329	-0.032243	0.008115	0.013721	-0.001974	0.012599	0.006994	0.023811	0.000268	0.021568	0.008115	0.003631	0.005873	-0.010943	-0.012064	-0.030001	-0.044575	-0.023275	0.021568	0.000268	-0.000854	0.008115	-0.012064	-0.004216	-0.000854	0.009237	0.017084	0.005873	0.018205	0.036143	0.021568	-0.034486	-0.082692	-0.080450	-0.018790	0.002510	0.010358	0.006994	0.030537	0.002510	-0.008700	0.005873	0.014842	0.038384	0.035021	0.009237	-0.035606	-0.059149	-0.024396	-0.000854	0.002510	0.003631	0.015963	0.008115	0.018205	0.015963	-0.033365	0.008115	0.015963	-0.000854	-0.005338	-0.028880	-0.025517	0.021568	0.009237	-0.000854	0.004752	0.008115	-0.033365	-0.044575	-0.016548	0.023811	-0.009822	-0.023275	-0.007580	0.003631	0.011478	0.021568	0.013721	-0.007580	-0.007580	0.017084	0.015963	-0.034486	0.006994	0.000268	0.018205	0.045111	0.026052	-0.054665	-0.087176	-0.068117	-0.035606	0.019326	0.029416	0.030537	0.029416	-0.004216	-0.005338	-0.012064	-0.009822	-0.006459	0.002510	0.003631	-0.021033	0.001389	0.010358	0.009237	0.000268	-0.010943	-0.022153	0.008115	-0.018790	-0.005338	0.012599	-0.009822	-0.023275	0.000268	0.035021	0.035021	-0.007580	-0.023275	-0.031122	0.009237	-0.028880	-0.038970	0.000268	0.003631	0.015963	0.045111	0.059685	-0.026638	-0.066997	-0.026638	0.018205	0.028295	-0.021033	-0.019912	-0.010943	-0.027759	-0.014306	0.009237	0.026052	0.006994	0.011478	0.012599	0.005873	0.027174	0.006994	-0.007580	-0.016548	-0.063633	0.020447	-0.000854	-0.033365	-0.030001	0.010358	-0.003095	0.000268	-0.006459	0.026052	-0.004216	0.008115	-0.005338	0.005873	-0.015427	0.001389	0.008115	0.010358	-0.012064	0.008115	-0.015427	0.011478	0.012599	-0.012064	-0.013185	0.076501	0.092196	-0.019912	-0.099508	-0.107356	-0.090539	-0.080450	-0.013185	0.019326	0.064169	0.039505	-0.026638	-0.014306	0.030537	-0.012064	-0.006459	0.029416	0.027174	0.001389	0.015963	0.008115	-0.000854	0.040627	0.009237	-0.092782	-0.033365	-0.023275	0.004752	0.035021	0.030537	0.042869	0.101165	0.006994	-0.096145	-0.072602	-0.074844	0.046232	-0.080450	-0.108476	-0.100629	-0.087176	0.089954	0.120223	0.180761	0.075380	-0.058028	-0.180225	-0.167893	-0.025517	0.050717	0.080985	0.154977	0.171792	0.078743	-0.070360	-0.202647	-0.102871	0.083228	0.011478	-0.047939	0.027174	-0.004216	-0.005338	-0.221705	-0.155562	-0.044575	0.029416	0.101165	0.149371	0.040627	0.017084	-0.004216	0.129192	0.147129	0.291748	-0.016548	-0.185831	-0.225069	-0.144351	0.133676	-0.128656	-0.207131	-0.257580	0.026052	0.085469	0.050717	0.058564	0.045111	0.023811	0.088833	0.048474	0.089954	0.079864	0.252510	0.046232	-0.050180	-0.138746	-0.099508	-0.052423	-0.176862	-0.055786	0.105649	0.048474	-0.126414	-0.012064	-0.053544	-0.047939	0.084348	0.021568	0.017084	0.205425	0.187488	0.094438	-0.000854	0.031658	-0.097266	-0.054665	-0.333813	-0.301302	-0.192558	0.035021	0.170671	0.215515	-0.025517	0.050717	0.001389	-0.000854	0.018205	-0.013185	0.119102	0.233452	0.121344	-0.151078	-0.148835	-0.025517	-0.068117	-0.105113	-0.007580	0.089954	0.240178	0.124707	-0.084934	-0.296818	-0.038970	-0.045696	-0.088297	0.066411	0.100044	-0.055786	-0.055786	-0.045696	0.030537	0.198698	0.055201	0.026052	-0.190315	-0.173499	0.057442	-0.056907	-0.089418	-0.044575	0.204304	0.234573	0.170671	0.001389	-0.179105	-0.140987	-0.026638	0.110134	0.245784	0.041748	-0.066997	-0.133141	-0.197042	-0.004216	0.009237	-0.014306	-0.017669	0.123586	0.058564	-0.100629	-0.031122	0.334348	0.124707	-0.244127	-0.297939	-0.098387	0.187488	0.223362	0.110134	-0.155562	-0.345023	-0.334934	-0.082692	0.058564	0.100044	0.129192	0.141524	0.197577	0.088833	-0.010943	0.061927	-0.036727	-0.081570	0.037264	0.018205	-0.068117	0.060806	-0.041212	-0.060271	-0.019912	-0.017669	-0.001974	0.028295	0.001389	0.017084	0.042869	-0.028880	-0.005338	-0.008700	0.048474	0.109013	0.028295	-0.146594	-0.230674	-0.034486	0.033900	0.036143	0.140402	0.262599	-0.045696	-0.299059	-0.248611	-0.105113	0.040627	0.104528	0.078743	-0.004216	0.060806	0.075380	0.050717	-0.013185	0.026052	0.116859	0.259237	0.114618	-0.135382	-0.308028	-0.286727	-0.068117	0.014842	0.013721	0.107891	0.211030	0.144886	0.111254	-0.198163	-0.320360	-0.065876	-0.028880	-0.003095	0.066411	0.043990	0.116859	0.092196	0.116859	-0.028880	-0.061391	0.002510	0.080985	0.064169	0.038384	-0.035606	-0.059149	0.059685	0.026052	-0.198163	-0.234037	-0.051302	0.023811	0.050717	0.068654	0.028295	0.005873	0.041748	0.039505	0.024931	0.027174	-0.010943	0.021568	-0.026638	-0.054665	0.015963	0.001389	-0.013185	0.006994	0.056322	-0.005338	-0.012064	0.054079	0.135918	0.043990	-0.078208	-0.124172	-0.117445	-0.238522	-0.099508	0.033900	0.041748	0.112375	0.174035	0.089954	-0.038970	-0.046818	0.026052	-0.016548	-0.098387	0.008115	0.030537	0.069775	0.026052	0.042869	-0.047939	-0.065876	0.000268	0.049595	0.017084	-0.008700	0.005873	-0.040091	0.037264	0.036143	-0.041212	0.003631	0.008115	0.029416	0.084348	0.014842	-0.036727	-0.081570	-0.095023	-0.058028	-0.064755	-0.000854	0.057442	0.043990	0.005873	0.027174	0.058564	-0.014306	0.022690	0.075380	-0.054665	-0.087176	-0.051302	-0.013185	-0.082692	0.040627	0.020447	-0.007580	-0.024396	0.033900	0.036143	0.014842	-0.014306	0.066411	0.035021	0.010358	0.018205	0.045111	-0.009822	-0.086055	-0.043454	-0.075965	-0.031122	-0.014306	0.012599	0.040627	0.046232	-0.004216	0.010358	0.024931	0.052958	0.036143	-0.019912	-0.069239	-0.005338	0.047353	-0.023275	-0.072602	-0.038970	-0.025517	0.009237	0.012599	0.031658	0.087712	0.063048	-0.028880	0.010358	-0.040091	-0.013185	-0.032243	0.020447	0.021568	0.051837	-0.135382	-0.169014	-0.037849	0.020447	0.050717	0.038384	-0.005338	0.019326	0.066411	0.075380	0.027174	-0.038970	-0.028880	0.003631	0.014842	-0.008700	-0.005338	-0.001974	0.010358	0.020447	-0.003095	-0.018790	-0.036727	-0.019912	0.040627	0.038384	-0.068117	-0.055786	0.042869	0.022690	-0.006459	-0.015427	-0.059149	0.057442	0.043990	-0.001974	0.024931	-0.050180	-0.091660	-0.037849	0.036143	0.003631	-0.016548	0.120223	-0.009822	-0.124172	-0.054665	-0.006459	0.030537	0.030537	0.017084	-0.022153	0.012599	0.029416	-0.004216	0.038384	0.036143	0.047353	0.005873	-0.047939	-0.074844	0.038384	0.041748	0.058564	-0.012064	-0.132019	-0.151078	-0.091660	0.035021	0.030537	-0.033365	-0.018790	0.075380	0.131434	0.056322	-0.053544	-0.045696	0.023811	0.012599	0.010358	0.002510	0.000268	0.006994	0.021568	0.027174	-0.005338	-0.004216	0.000268	-0.017669	0.010358	0.039505	-0.003095	-0.042333	-0.033365	0.088833	0.001389	-0.108476	-0.056907	-0.058028	-0.018790	0.060806	0.043990	0.004752	0.014842	0.066411	0.043990	0.002510	-0.014306	-0.135382	-0.112961	-0.075965	0.005873	0.072016	0.018205	0.023811	0.057442	0.048474	0.014842	-0.027759	0.033900	0.124707	0.048474	-0.054665	-0.186951	-0.155562	-0.013185	0.032779	0.036143	0.088833	0.102286	0.102286	-0.009822	-0.147714	-0.199284	-0.068117	0.037264	0.000268	0.015963	0.102286	0.149371	0.167308	-0.024396	-0.112961	-0.244127	-0.103992	0.031658	0.051837	0.107891	0.103407	0.040627	0.003631	-0.079329	-0.088297	0.068654	0.012599	0.005873	-0.153320	-0.054665	0.139281	0.219999	0.052958	0.060806	0.010358	0.026052	0.048474	-0.091660	-0.173499	-0.387624	-0.306907	-0.028880	-0.014306	0.077622	0.328743	0.338833	0.241300	-0.028880	-0.171257	-0.267669	-0.138746	-0.010943	0.065290	0.295110	0.256994	-0.036727	-0.214979	-0.145472	0.093317	0.120223	-0.024396	-0.179105	-0.050180	0.021568	-0.082692	-0.042333	0.038384	0.101165	0.094438	0.060806	0.140402	-0.110719	-0.255337	-0.036727	-0.008700	0.167308	0.204304	0.126949	0.059685	-0.064755	-0.355113	-0.212737	-0.092782	0.142645	0.001389	0.020447	0.000268	0.123586	0.001389	-0.018790	0.003631	0.019326	0.129192	0.103407	0.045111	-0.054665	-0.199284	-0.186951	-0.100629	0.049595	0.105649	0.196456	0.024931	0.061927	0.065290	0.028295	-0.044575	-0.084934	-0.082692	-0.105113	-0.054665	0.124707	0.002510	-0.046818	-0.021033	0.097801	0.132555	-0.072602	-0.031122	0.039505	-0.092782	-0.003095	0.061927	0.161703	0.199819	-0.062512	-0.056907	-0.160046	-0.211616	-0.024396	0.039505	-0.014306	-0.118566	-0.010943	-0.070360	0.146008	0.160582	0.199819	0.074259	-0.004216	-0.053544	0.009237	-0.046818	-0.163409	-0.120808	-0.008700	0.187488	0.216635	-0.086055	-0.393230	-0.171257	-0.092782	0.080985	0.125828	0.003631	-0.014306	0.055201	0.128071	0.050717	0.022690	0.018205	-0.024396	-0.012064	-0.038970	-0.019912	-0.068117	0.008115	0.054079	0.075380	0.079864	0.027174	0.024931	-0.072602	-0.009822	-0.008700	-0.008700	-0.136503	-0.004216	0.026052	-0.098387	-0.008700	0.001389	0.109013	-0.027759	0.094438	0.110134	0.113497	0.098922	-0.064755	-0.151078	-0.226189	-0.052423	0.153855	0.045111	-0.003095	0.018205	-0.093903	-0.009822	-0.175741	-0.066997	-0.009822	0.084348	0.150492	0.204304	0.146008	0.023811	-0.115203	-0.092782	0.202062	0.027174	-0.153320	0.004752	0.375828	-0.204889	-0.544575	-0.299059	0.068654	0.064169	0.040627	-0.026638	-0.016548	0.003631	0.156098	0.074259	0.061927	-0.014306	-0.035606	0.021568	0.037264	0.058564	0.047353	0.004752	-0.015427	0.135918	0.335469	0.186367	-0.281122	-0.387624	-0.377535	-0.265428	-0.149956	0.020447	0.162824	0.244662	0.281658	-0.010943	-0.081570	-0.108476	-0.043454	-0.065876	-0.024396	0.060806	0.067532	0.066411	0.092196	0.022690	-0.056907	-0.034486	-0.004216	0.008115	0.015963	0.043990	0.009237	-0.047939	0.003631	-0.017669	-0.068117	-0.088297	-0.022153	0.063048	0.057442	0.046232	0.003631	-0.077086	-0.072602	-0.068117	0.000268	0.054079	0.045111	0.066411	-0.025517	-0.157804	-0.117445	-0.007580	0.056322	0.104528	0.107891	0.017084	-0.004216	-0.005338	-0.010943	-0.010943	0.008115	0.018205	-0.032243	-0.001974	0.011478	-0.003095	-0.010943	-0.025517	-0.027759	0.066411	0.048474	-0.051302	-0.056907	0.041748	0.017084	-0.026638	0.011478	0.057442	0.047353	-0.066997	-0.097266	-0.030001	-0.003095	0.013721	0.023811	0.024931	0.030537	-0.000854	0.015963	0.033900	0.033900	0.046232	-0.051302	-0.083813	-0.062512	0.012599	0.070895	-0.003095	0.011478	-0.003095	-0.018790	-0.024396	-0.018790	-0.018790	0.022690	-0.009822	0.029416	0.019326	-0.008700	-0.022153	0.000268	0.014842	0.039505	0.011478	-0.000854	-0.014306	0.006994	0.100044	0.040627	-0.044575	-0.093903	-0.081570	0.004752	-0.008700	-0.009822	0.018205	0.038384	0.027174	-0.003095	-0.001974	-0.003095	-0.019912	0.003631	0.095560	0.048474	0.017084	-0.062512	-0.101750	-0.079329	-0.004216	0.039505	0.052958	-0.023275	-0.009822	0.057442	-0.024396	0.012599	0.004752	0.010358	0.005873	0.038384	0.022690	0.006994	-0.041212	0.000268	0.005873	-0.013185	-0.018790	-0.001974	0.021568	-0.018790	0.005873	0.050717	0.005873	-0.046818	-0.023275	-0.031122	-0.033365	-0.015427	0.039505	0.021568	-0.030001	-0.038970	0.030537	0.073138	0.067532	-0.050180	-0.071481	-0.038970	0.075380	0.092196	-0.128656	-0.136503	0.012599	-0.003095	-0.012064	0.030537	0.047353	-0.009822	-0.036727	0.014842	0.031658	0.021568	0.022690	0.009237	0.014842	-0.000854	-0.026638	0.009237	-0.008700	0.012599	0.020447	0.011478	-0.000854	-0.009822	-0.051302	-0.013185	-0.016548	0.005873	-0.000854	-0.007580	0.055201	0.036143	0.008115	-0.034486	-0.063633	0.000268	0.002510	-0.090539	-0.080450	-0.016548	0.052958	0.037264	0.056322	0.033900	0.047353	-0.012064	-0.036727	0.027174	0.031658	-0.086055	-0.086055	-0.009822	0.009237	0.023811	0.023811	0.023811	0.020447	0.006994	0.019326	0.035021	-0.027759	-0.059149	-0.072602	-0.012064	0.004752	0.002510	0.033900	0.057442	0.058564	-0.012064	-0.070360	-0.044575	-0.028880	0.024931	0.033900	0.026052	0.015963	0.021568	0.046232	-0.066997	-0.068117	-0.077086	0.026052	0.070895	-0.004216	-0.012064	-0.006459	-0.010943	-0.014306	0.011478	0.003631	0.013721	0.023811	0.008115	0.000268	0.009237	0.027174	-0.026638	-0.024396	-0.053544	-0.037849	-0.007580	0.039505	0.056322	-0.005338	-0.066997	-0.080450	0.004752	0.008115	0.022690	0.017084	0.027174	0.026052	0.003631	0.012599	-0.000854	0.008115	0.024931	0.032779	-0.053544	-0.060271	-0.018790	0.014842	-0.026638	-0.007580	-0.016548	0.004752	0.070895	0.033900	-0.038970	-0.095023	-0.047939	-0.005338	0.045111	0.024931	-0.016548	-0.014306	0.039505	0.056322	0.029416	-0.031122	-0.030001	-0.012064	0.022690	0.010358	-0.018790	0.005873	0.000268	0.037264	0.033900	0.075380	0.028295	-0.127534	-0.128656	-0.022153	0.031658	-0.037849	-0.028880	0.006994	0.035021	0.037264	0.021568	0.030537	0.026052	0.002510	-0.059149	-0.032243	-0.017669	0.023811	0.057442	0.054079	0.022690	-0.056907	-0.080450	-0.003095	0.001389	-0.018790	-0.015427	0.015963	0.039505	0.089954	0.095560	0.101165	-0.097266	-0.169014	-0.081570	0.008115	-0.031122	-0.037849	0.029416	0.048474	0.068654	0.069775	0.070895	-0.036727	-0.089418	-0.098387	-0.047939	0.033900	0.057442	0.039505	0.055201	0.035021	0.067532	0.052958	-0.004216	-0.135382	-0.109597	-0.005338	0.147129	0.069775	0.042869	-0.079329	-0.089418	-0.110719	0.013721	0.063048	0.077622	0.049595	-0.112961	-0.173499	-0.214979	-0.051302	-0.116324	0.015963	0.181883	0.231209	0.088833	-0.074844	0.033900	0.068654	0.206546	0.117981	0.041748	0.017084	-0.034486	-0.069239	-0.235158	-0.180225	-0.034486	-0.000854	-0.004216	-0.054665	-0.021033	0.138160	0.085469	0.083228	0.171792	0.015963	-0.112961	-0.149956	-0.133141	0.113497	0.333228	0.073138	-0.188073	-0.301302	-0.181346	0.024931	0.036143	0.189729	0.042869	0.068654	0.066411	-0.096145	-0.165652	-0.051302	0.110134	0.298474	0.113497	-0.010943	-0.101750	0.104528	0.033900	-0.201526	-0.161167	-0.012064	0.055201	-0.045696	-0.117445	-0.071481	0.077622	0.149371	-0.005338	-0.101750	-0.065876	0.043990	0.123586	0.128071	-0.036727	0.001389	0.124707	0.151613	-0.058028	-0.225069	-0.091660	0.243541	0.006994	-0.135382	-0.117445	-0.054665	-0.139867	0.103407	0.027174	-0.013185	0.070895	-0.038970	-0.056907	0.027174	0.036143	0.241300	0.106770	0.006994	-0.049059	-0.106235	-0.161167	-0.157804	-0.222826	-0.007580	0.138160	0.250268	0.252510	-0.049059	-0.309149	-0.184710	-0.005338	-0.000854	0.030537	0.088833	0.290626	0.361254	0.157218	-0.260943	-0.213857	-0.161167	-0.197042	-0.183589	0.013721	0.300717	0.304079	0.057442	-0.189194	-0.245248	-0.012064	-0.105113	-0.028880	-0.054665	-0.007580	0.076501	-0.041212	-0.088297	-0.017669	-0.121929	-0.007580	0.200941	0.161703	0.122465	0.186367	0.239057	0.072016	-0.136503	-0.466100	-0.219463	-0.142109	-0.010943	0.015963	0.076501	0.152734	0.027174	0.195335	0.148250	0.141524	0.113497	-0.245248	0.021568	0.105649	-0.033365	-0.014306	-0.395472	-0.467221	-0.318118	0.066411	0.124707	0.217756	0.133676	0.084348	0.082107	0.075380	0.124707	0.163945	0.109013	0.129192	-0.077086	-0.229553	-0.182467	-0.118566	0.061927	0.418429	0.350043	-0.008700	-0.518790	-0.476190	-0.220584	-0.054665	0.119102	0.087712	0.137039	0.087712	0.097801	0.184124	0.092196	-0.019912	-0.250853	-0.278881	0.063048	0.189729	0.180761	0.088833	-0.126414	-0.156683	0.143765	0.216635	0.139281	-0.182467	-0.413409	-0.034486	0.100044	0.091075	-0.009822	-0.130898	-0.043454	0.026052	0.054079	0.048474	-0.063633	0.061927	0.119102	0.068654	0.012599	-0.014306	0.038384	0.011478	0.097801	-0.008700	-0.243006	-0.137625	0.031658	0.146008	0.203182	-0.080450	-0.311392	-0.308028	-0.019912	0.142645	0.215515	0.076501	-0.081570	0.061927	-0.082692	-0.167893	0.013721	-0.018790	0.028295	0.011478	0.023811	0.019326	0.020447	0.055201	-0.119688	0.049595	0.280537	0.198698	-0.103992	-0.296818	-0.146594	-0.061391	-0.101750	0.102286	0.179640	0.106770	-0.058028	-0.195920	-0.030001	0.258115	0.139281	-0.179105	-0.297939	-0.250853	-0.050180	0.140402	0.203182	0.179640	0.152734	0.106770	-0.166773	-0.383140	-0.189194	0.116859	0.065290	0.036143	0.091075	0.124707	0.089954	0.012599	-0.056907	-0.072602	-0.008700	-0.000854	-0.024396	0.008115	-0.036727	0.092196	0.171792	0.121344	0.012599	-0.184710	-0.263185	-0.082692	-0.054665	-0.018790	0.015963	0.026052	0.045111	0.038384	0.043990	0.041748	0.027174	0.008115	-0.000854	0.023811	0.012599	-0.053544	-0.032243	-0.018790	0.002510	0.006994	0.035021	0.000268	-0.017669	-0.027759	-0.036727	0.008115	0.002510	-0.000854	0.030537	0.029416	0.005873	-0.064755	-0.031122	0.010358	-0.007580	0.013721	0.018205	-0.004216	0.000268	0.000268	-0.000854	0.000268	0.004752	-0.003095	0.008115	-0.004216	0.002510	0.001389	0.006994	-0.001974	-0.005338	-0.003095	-0.005338	-0.010943	0.005873	-0.008700	-0.000854	-0.001974	0.008115	0.008115	-0.024396	-0.012064	0.000268	0.004752	-0.010943	0.004752	-0.003095	0.002510	-0.017669	0.012599	0.045111	-0.010943	-0.061391	-0.015427	-0.012064	-0.007580	0.021568	0.070895	0.030537	-0.004216	-0.035606	-0.040091	-0.064755	-0.045696	-0.016548	0.014842	0.001389	0.026052	0.000268	0.001389	0.006994	0.023811	-0.000854	0.010358	0.021568	0.020447	0.033900	0.012599	-0.075965	-0.027759	-0.019912	-0.016548	0.015963	-0.008700	0.002510	0.020447	0.032779	0.006994	-0.008700	-0.037849	-0.005338	0.026052	0.018205	-0.010943	-0.056907	-0.050180	-0.046818	-0.015427	-0.003095	0.000268	0.030537	0.050717	0.043990	0.045111	-0.024396	-0.055786	-0.026638	0.017084	-0.013185	-0.007580	-0.001974	0.009237	0.014842	-0.003095	-0.000854	0.002510	0.022690	0.002510	-0.004216	-0.007580	0.008115	-0.008700	-0.012064	-0.018790	0.012599	0.018205	0.011478	-0.001974	-0.005338	0.043990	0.029416	-0.041212	-0.062512	-0.075965	-0.012064	0.029416	0.029416	0.015963	0.035021	0.014842	-0.025517	-0.049059	-0.022153	0.031658	0.023811	-0.026638	-0.059149	-0.025517	-0.004216	-0.024396	0.005873	-0.023275	0.008115	0.030537	0.045111	0.052958	0.003631	0.015963	-0.023275	-0.012064	-0.036727	0.004752	-0.012064	-0.000854	0.033900	0.047353	-0.000854	-0.047939	-0.056907	-0.026638	0.008115	0.005873	0.017084	0.019326	0.041748	0.074259	0.042869	-0.051302	-0.117445	-0.050180	-0.016548	0.042869	-0.030001	0.014842	0.018205	0.023811	0.011478	-0.017669	-0.018790	0.010358	0.013721	0.019326	0.000268	-0.007580	0.001389	0.037264	0.017084	-0.009822	0.031658	0.092196	0.038384	-0.060271	-0.160046	-0.133141	-0.000854	0.019326	0.004752	0.026052	0.038384	0.045111	0.017084	-0.006459	-0.014306	-0.006459	-0.001974	-0.000854	0.008115	0.011478	0.006994	0.010358	0.026052	0.017084	-0.026638	-0.060271	0.005873	0.011478	-0.012064	-0.015427	-0.001974	0.015963	-0.023275	-0.004216	0.009237	0.023811	0.012599	0.005873	0.002510	-0.013185	0.001389	0.009237	0.000268	-0.004216	-0.014306	-0.009822	0.000268	0.002510	0.052958	0.027174	-0.019912	-0.043454	-0.051302	-0.035606	0.011478	0.020447	0.036143	0.022690	-0.008700	-0.018790	0.012599	0.003631	-0.031122	-0.004216	0.037264	-0.004216	-0.062512	-0.063633	-0.017669	0.027174	0.021568	0.036143	0.063048	0.067532	0.011478	-0.074844	-0.054665	-0.073724	-0.013185	0.002510	0.013721	0.027174	0.021568	0.012599	0.045111	0.075380	-0.021033	-0.068117	-0.106235	-0.046818	0.037264	0.043990	-0.004216	-0.025517	-0.022153	0.002510	0.002510	0.003631	0.021568	0.021568	0.015963	0.004752	0.023811	-0.014306	-0.009822	-0.004216	0.006994	-0.003095	-0.006459	0.032779	0.010358	-0.068117	-0.071481	-0.028880	0.048474	0.035021	0.032779	-0.005338	-0.041212	0.011478	0.014842	-0.023275	-0.051302	0.049595	0.051837	-0.013185	-0.044575	-0.058028	-0.022153	0.012599	0.038384	0.023811	0.006994	-0.018790	-0.010943	0.005873	0.005873	-0.008700	0.003631	0.000268	0.017084	0.021568	-0.001974	-0.021033	0.000268	-0.016548	-0.006459	0.067532	0.043990	0.027174	-0.042333	-0.090539	-0.087176	-0.040091	-0.081570	0.014842	0.050717	0.048474	-0.009822	0.014842	0.030537	0.119102	0.166187	0.041748	-0.121929	-0.278881	-0.124172	0.094438	0.183003	0.311927	0.206546	-0.060271	-0.139867	-0.184710	0.002510	-0.140987	-0.272154	-0.074844	0.020447	0.056322	-0.103992	-0.046818	-0.005338	0.097801	-0.007580	0.014842	0.012599	0.184124	0.077622	-0.015427	-0.072602	0.012599	0.113497	0.144886	0.142645	-0.014306	-0.120808	-0.052423	-0.073724	-0.117445	0.100044	0.112375	0.011478	-0.023275	-0.035606	-0.134261	-0.112961	-0.119688	-0.036727	-0.173499	-0.056907	0.027174	0.050717	0.074259	0.138160	0.133676	0.092196	0.011478	0.028295	0.064169	0.112375	0.001389	-0.137625	-0.112961	-0.117445	-0.108476	-0.003095	0.004752	0.032779	0.037264	0.042869	0.008115	-0.009822	0.022690	0.005873	0.026052	0.040627	-0.023275	-0.033365	-0.027759	-0.013185	0.017084	0.088833	0.018205	-0.054665	-0.129777	-0.077086	0.001389	0.014842	-0.005338	-0.006459	0.005873	0.043990	0.031658	0.003631	-0.072602	0.036143	0.055201	0.056322	0.019326	-0.034486	-0.040091	-0.025517	0.035021	-0.036727	-0.027759	0.017084	0.047353	0.036143	0.033900	0.083228	0.040627	-0.182467	-0.186951	-0.027759	-0.044575	0.052958	0.091075	-0.005338	-0.044575	-0.007580	0.021568	0.011478	-0.026638	0.014842	-0.017669	-0.001974	0.000268	-0.005338	0.030537	0.015963	0.021568	0.013721	0.005873	0.006994	0.042869	0.065290	0.031658	-0.018790	-0.010943	-0.086055	-0.089418	-0.089418	0.020447	-0.007580	-0.017669	0.084348	0.206546	0.225604	0.195335	-0.151078	-0.302423	-0.209373	-0.074844	-0.111840	0.162824	0.335469	0.427397	0.011478	-0.566997	-0.651077	-0.290091	0.056322	0.012599	0.126949	0.088833	0.020447	0.148250	0.166187	0.186367	0.214394	0.149371	-0.050180	-0.206011	-0.225069	-0.082692	0.088833	0.041748	-0.139867	-0.046818	0.046232	0.092196	0.088833	-0.154440	-0.324845	-0.110719	0.063048	0.269326	0.295110	0.169550	-0.040091	-0.162288	-0.275517	0.095560	0.124707	0.020447	0.008115	-0.097266	0.032779	-0.099508	-0.119688	-0.118566	-0.041212	-0.045696	-0.042333	0.003631	0.045111	0.120223	0.174035	0.107891	0.181883	0.011478	-0.139867	-0.249732	-0.244127	-0.056907	0.017084	0.069775	0.110134	0.056322	0.085469	0.050717	0.010358	-0.060271	-0.012064	0.093317	0.027174	-0.056907	-0.066997	-0.036727	0.131434	0.019326	-0.146594	-0.024396	-0.042333	0.037264	0.040627	0.005873	-0.063633	0.028295	0.033900	-0.045696	-0.027759	0.000268	0.024931	-0.024396	0.008115	0.010358	0.010358	0.022690	0.006994	0.001389	0.011478	-0.017669	-0.063633	-0.001974	-0.014306	0.004752	-0.000854	0.022690	0.051837	0.001389	0.050717	-0.080450	-0.050180	-0.027759	-0.055786	0.021568	-0.041212	-0.006459	0.030537	0.073138	-0.037849	0.011478	0.014842	-0.023275	0.003631	0.030537	0.012599	0.011478	0.024931	0.040627	0.023811	-0.004216	-0.056907	-0.037849	0.051837	-0.010943	-0.077086	-0.089418	0.023811	0.057442	0.028295	0.018205	0.052958	0.091075	0.084348	0.038384	-0.022153	-0.134261	-0.140987	-0.082692	0.123586	0.140402	0.133676	-0.045696	-0.163409	-0.206011	-0.080450	0.093317	0.112375	0.055201	0.055201	0.165066	-0.045696	-0.176862	-0.142109	-0.005338	-0.086055	-0.066997	-0.093903	-0.046818	-0.051302	0.087712	0.194214	0.308563	0.304079	0.142645	-0.105113	-0.277759	-0.273274	-0.226189	0.095560	0.290626	0.097801	-0.384262	-0.346144	0.317532	0.342196	0.304079	-0.089418	-0.573723	-0.080450	0.317532	0.643766	-0.075965	-0.996369	-0.522154	0.031658	0.133676	0.246905	0.301837	0.000268	-0.240763	-0.238522	0.068654	0.382555	0.528295	0.506994	0.019326	-0.681346	-0.700405	-0.206011	-0.098387	0.104528	0.348922	0.274932	0.124707	-0.172378	-0.132019	0.018205	-0.033365	-0.017669	0.079864	0.139281	0.134797	0.012599	-0.066997	-0.055786	-0.066997	-0.013185	0.004752	0.020447	0.069775	0.087712	0.049595	0.017084	0.001389	0.018205	-0.106235	-0.193678	-0.072602	0.043990	0.156098	0.057442	-0.090539	-0.058028	-0.027759	0.046232	0.084348	0.235693	0.271568	-0.244127	-0.476190	-0.234037	0.047353	0.026052	-0.000854	0.124707	0.061927	0.033900	0.033900	0.032779	0.066411	0.117981	0.077622	0.008115	-0.078208	-0.117445	0.021568	-0.003095	-0.074844	-0.059149	-0.001974	0.018205	-0.023275	0.026052	0.047353	-0.003095	-0.074844	-0.005338	0.029416	0.018205	0.049595	0.107891	-0.018790	-0.044575	0.043990	-0.021033	-0.084934	-0.046818	-0.013185	-0.072602	-0.078208	-0.025517	0.074259	0.061927	0.058564	0.082107	0.042869	-0.054665	-0.074844	0.031658	0.057442	0.084348	-0.045696	-0.097266	-0.026638	-0.028880	-0.022153	0.006994	0.014842	0.017084	0.169550	0.035021	-0.021033	-0.108476	-0.013185	0.038384	-0.145472	-0.158925	-0.053544	0.231209	0.327622	0.429640	0.190851	-0.290091	-0.421257	-0.469463	0.033900	0.157218	-0.135382	-0.220584	-0.140987	0.031658	0.233452	0.345559	-0.055786	-0.382019	-0.258701	0.245784	0.141524	0.120223	0.133676	-0.009822	-0.058028	0.093317	0.110134	0.092196	0.018205	-0.112961	0.006994	0.278295	0.335469	-0.107356	-0.411167	-0.728431	-0.100629	0.289505	0.191972	-0.153320	-0.238522	-0.070360	0.055201	0.109013	-0.112961	-0.071481	0.029416	0.026052	0.110134	-0.088297	-0.055786	0.006994	0.045111	-0.059149	0.123586	0.162824	0.169550	0.205425	0.058564	-0.288970	-0.226189	0.035021	0.144886	-0.005338	-0.083813	-0.137625	-0.184710	-0.084934	-0.061391	0.094438	0.079864	-0.010943	0.048474	0.070895	0.057442	0.017084	0.079864	0.042869	-0.034486	-0.070360	0.000268	0.024931	0.022690	-0.033365	-0.045696	-0.027759	0.003631	0.042869	0.006994	0.014842	0.006994	0.021568	0.003631	-0.021033	0.004752	-0.032243	-0.073724	-0.010943	0.063048	-0.025517	0.023811	0.066411	-0.042333	-0.097266	-0.066997	-0.005338	0.038384	0.083228	0.008115	0.000268	0.039505	0.012599	-0.064755	-0.073724	0.000268	0.103407	-0.035606	-0.025517	-0.081570	0.008115	0.011478	0.014842	0.066411	0.045111	-0.013185	-0.043454	0.003631	-0.006459	0.005873	0.021568	0.058564	0.027174	0.028295	0.003631	-0.055786	-0.051302	0.000268	0.084348	0.157218	-0.031122	-0.202647	-0.107356	0.020447	0.050717	0.006994	0.017084	-0.053544	0.064169	0.218878	0.174035	-0.058028	-0.251975	-0.296818	-0.136503	-0.022153	0.063048	0.037264	0.046232	0.096681	0.111254	0.174035	0.140402	0.026052	-0.041212	-0.100629	-0.049059	-0.142109	-0.162288	-0.157804	0.129192	0.370223	0.263721	-0.071481	-0.269912	-0.009822	0.052958	-0.061391	-0.312512	-0.005338	-0.121929	0.012599	0.026052	-0.151078	0.141524	0.290626	-0.007580	-0.132019	-0.098387	0.243541	0.355649	0.276052	-0.046818	-0.014306	-0.046818	-0.330450	-0.207131	0.012599	0.283900	0.200941	0.202062	0.234573	-0.037849	-0.416773	-0.171257	-0.493006	-0.543454	-0.666773	-0.069239	0.105649	0.232331	0.314170	0.370223	0.354528	0.243541	0.177398	-0.006459	0.040627	0.050717	0.161703	0.369102	0.091075	-0.377535	-0.416773	-0.408925	-0.111840	-0.087176	0.193093	0.421792	0.236815	-0.060271	-0.162288	-0.090539	-0.209373	-0.136503	0.002510	0.082107	0.030537	0.029416	0.043990	0.040627	0.076501	0.083228	0.087712	0.018205	-0.004216	0.019326	-0.019912	-0.027759	-0.001974	-0.010943	-0.017669	-0.053544	-0.077086	-0.068117	0.052958	-0.008700	-0.112961	-0.045696	0.055201	0.006994	0.011478	0.076501	0.035021	-0.045696	-0.032243	0.037264	0.009237	0.027174	0.003631	-0.015427	-0.056907	0.035021	0.103407	0.087712	-0.019912	0.051837	-0.033365	-0.139867	-0.109597	0.020447	-0.092782	-0.100629	-0.095023	0.043990	0.144886	0.094438	0.012599	-0.031122	0.023811	-0.060271	-0.063633	-0.062512	0.001389	0.021568	-0.003095	0.030537	0.055201	0.047353	0.065290	0.045111	0.029416	-0.017669	-0.042333	0.039505	0.011478	-0.010943	-0.033365	-0.031122	-0.012064	0.063048	-0.015427	-0.072602	-0.041212	0.050717	0.066411	0.040627	0.054079	-0.077086	-0.096145	-0.080450	0.097801	0.180761	0.017084	-0.148835	-0.189194	-0.049059	0.100044	0.115739	-0.095023	-0.143230	-0.041212	0.032779	0.042869	0.054079	-0.099508	-0.051302	0.010358	0.026052	0.070895	0.169550	0.178519	0.176276	0.038384	-0.009822	-0.157804	-0.061391	0.122465	0.172914	0.046232	0.017084	-0.015427	-0.413409	-0.348387	-0.439194	-0.202647	-0.106235	-0.034486	0.499147	0.306322	0.149371	-0.046818	-0.269912	-0.083813	0.063048	0.244662	0.287264	0.014842	-0.115203	-0.248611	-0.003095	0.176276	0.245784	0.218878	0.085469	-0.185831	0.223362	0.004752	-0.262064	-0.614082	-0.600629	-0.165652	-0.032243	0.083228	0.132555	0.132555	0.149371	0.106770	0.191972	0.138160	0.064169	0.106770	0.153855	0.144886	0.041748	0.077622	-0.023275	-0.219463	-0.231795	-0.146594	-0.019912	0.031658	0.059685	-0.001974	0.003631	0.072016	0.138160	-0.028880	-0.107356	0.088833	-0.079329	-0.136503	0.075380	0.035021	-0.102871	-0.052423	0.015963	0.018205	-0.000854	0.032779	-0.019912	0.103407	0.032779	-0.093903	0.001389	-0.005338	0.045111	-0.001974	-0.036727	-0.007580	-0.005338	0.100044	0.333228	0.308563	-0.081570	-0.292333	-0.378656	-0.240763	-0.097266	-0.046818	0.000268	0.050717	-0.026638	-0.054665	-0.052423	0.035021	0.096681	0.110134	0.106770	0.107891	0.055201	-0.003095	-0.000854	0.033900	-0.038970	0.004752	0.087712	-0.044575	-0.042333	0.124707	0.021568	-0.105113	-0.047939	-0.015427	0.161703	-0.032243	-0.023275	0.030537	-0.063633	-0.256459	-0.244127	-0.111840	0.047353	0.065290	0.142645	0.124707	0.129192	0.091075	0.091075	-0.001974	-0.084934	-0.040091	-0.060271	0.002510	0.008115	0.112375	0.142645	0.021568	-0.182467	-0.120808	-0.014306	-0.105113	-0.047939	0.196456	0.308563	0.102286	-0.031122	0.061927	0.002510	-0.174620	-0.189194	-0.508701	-0.318118	-0.058028	0.041748	0.000268	0.376949	0.404977	0.105649	-0.040091	0.080985	0.152734	0.037264	-0.342782	-0.244127	-0.061391	0.199819	0.072016	0.076501	0.116859	0.077622	0.066411	0.003631	-0.102871	0.186367	0.577622	0.372465	-0.558028	-1.234037	-0.825966	0.072016	0.330985	0.320896	0.153855	0.059685	0.014842	0.124707	0.097801	-0.032243	-0.027759	0.106770	0.177398	0.117981	0.073138	-0.047939	-0.092782	-0.065876	-0.027759	0.055201	0.037264	0.014842	0.026052	-0.023275	0.067532	-0.149956	-0.124172	0.076501	0.019326	0.017084	0.035021	-0.017669	-0.079329	0.038384	0.061927	0.036143	0.095560	-0.126414	-0.189194	0.049595	0.039505	0.012599	-0.014306	-0.016548	0.040627	0.077622	-0.004216	0.130312	0.188609	0.028295	-0.116324	-0.281122	-0.093903	0.052958	0.017084	0.026052	0.086591	-0.006459	-0.041212	0.019326	-0.063633	-0.079329	-0.027759	0.079864	0.163945	0.097801	-0.066997	-0.324845	-0.025517	-0.018790	-0.007580	0.004752	-0.015427	-0.022153	0.019326	0.020447	0.072016	0.015963	0.106770	0.061927	0.074259	0.077622	-0.026638	-0.050180	-0.114081	-0.162288	0.027174	0.060806	-0.007580	-0.066997	0.043990	0.064169	0.047353	-0.004216	0.012599	0.054079	-0.024396	-0.058028	0.077622	0.064169	0.098922	-0.086055	-0.060271	0.037264	-0.042333	0.052958	0.177398	0.057442	-0.313633	-0.269912	-0.106235	0.086591	-0.009822	0.085469	0.143765	0.126949	0.039505	0.006994	-0.079329	-0.078208	-0.124172	0.035021	0.268205	0.239057	0.063048	-0.087176	-0.149956	-0.012064	0.078743	-0.064755	-0.166773	-0.106235	-0.031122	-0.153320	-0.044575	0.026052	0.149371	-0.139867	-0.040091	0.326501	0.365739	0.041748	-0.183589	-0.411167	0.038384	0.041748	0.153855	0.089954	0.040627	-0.068117	0.063048	0.004752	0.218878	0.114618	-0.385382	-0.276638	0.047353	0.235693	0.023811	-0.198163	-0.190315	0.032779	0.174035	0.019326	0.091075	-0.077086	-0.065876	0.259237	0.221120	0.214394	-0.140987	-0.499732	-0.350629	0.017084	0.336591	0.122465	-0.089418	-0.247490	0.057442	0.030537	0.123586	0.017084	0.095560	0.080985	0.050717	0.026052	0.056322	0.178519	0.066411	-0.166773	-0.098387	0.049595	0.055201	0.000268	-0.022153	-0.049059	-0.130898	-0.132019	-0.018790	0.038384	0.065290	0.041748	0.058564	0.112375	-0.074844	-0.030001	-0.009822	-0.006459	0.001389	-0.017669	0.039505	0.063048	0.036143	-0.018790	-0.087176	0.042869	0.069775	-0.055786	-0.144351	0.040627	0.057442	0.075380	0.080985	0.100044	-0.024396	-0.108476	-0.023275	-0.049059	-0.074844	0.027174	0.059685	-0.034486	-0.066997	-0.112961	-0.040091	0.014842	0.063048	0.060806	0.070895	0.146008	0.086591	-0.016548	-0.070360	-0.110719	0.008115	-0.041212	-0.061391	0.042869	0.122465	0.002510	-0.019912	0.009237	0.012599	-0.040091	-0.043454	0.048474	0.146008	0.030537	-0.007580	-0.017669	-0.163409	-0.114081	0.065290	0.191972	0.049595	-0.084934	-0.162288	-0.044575	0.036143	0.010358	-0.112961	0.096681	-0.052423	-0.024396	0.004752	0.015963	-0.062512	-0.023275	0.124707	0.094438	-0.030001	0.005873	-0.032243	-0.040091	0.041748	0.001389	0.038384	0.011478	0.140402	0.142645	-0.106235	-0.229553	-0.090539	0.163945	0.232331	-0.152199	-0.228432	-0.210495	-0.012064	-0.081570	0.054079	0.171792	0.271568	0.256994	-0.016548	-0.023275	0.267084	0.250268	-0.283365	-0.476190	-0.410046	0.063048	-0.082692	-0.114081	-0.088297	0.086591	0.191972	0.188609	0.073138	0.135918	0.112375	0.125828	0.117981	0.230088	-0.082692	-0.637624	-0.366324	-0.152199	0.402734	0.140402	-0.033365	-0.226189	-0.177983	0.047353	0.177398	0.184124	0.105649	0.004752	-0.062512	-0.206011	-0.232916	0.084348	0.299595	0.206546	-0.093903	-0.299059	-0.005338	-0.073724	-0.042333	0.162824	0.098922	-0.106235	-0.117445	0.067532	0.012599	0.026052	0.074259	0.070895	0.200941	0.014842	-0.164530	-0.033365	0.024931	-0.030001	0.023811	0.104528	-0.066997	-0.115203	-0.066997	-0.036727	0.056322	0.051837	0.030537	0.022690	0.021568	0.024931	-0.068117	-0.116324	-0.068117	0.024931	0.094438	0.024931	0.073138	0.031658	0.026052	0.041748	0.100044	0.072016	-0.044575	-0.083813	-0.108476	-0.064755	-0.064755	-0.000854	0.041748	-0.065876	-0.063633	-0.043454	-0.028880	0.008115	-0.001974	0.068654	0.103407	0.124707	0.043990	0.054079	0.030537	-0.156683	-0.047939	0.036143	0.065290	0.030537	-0.070360	-0.061391	0.122465	0.061927	-0.082692	-0.143230	-0.071481	-0.061391	0.050717	0.047353	0.057442	0.036143	-0.003095	0.008115	0.009237	0.072016	0.015963	0.030537	0.006994	-0.038970	-0.051302	0.013721	0.067532	-0.003095	0.077622	0.095560	-0.070360	-0.129777	-0.004216	0.000268	0.278295	0.006994	-0.293454	-0.271033	-0.237400	-0.241884	-0.046818	0.036143	0.035021	0.114618	0.092196	0.157218	0.150492	0.063048	0.082107	0.097801	0.269326	0.304079	0.297353	0.039505	-0.263185	-0.790091	-0.753096	-0.410046	0.163945	0.398250	0.178519	-0.032243	-0.072602	0.272689	0.482331	0.002510	-0.425741	-0.333813	0.131434	0.063048	-0.028880	0.012599	0.322016	0.268205	0.330985	0.181883	-0.128656	-0.546817	-0.464978	-0.223948	-0.101750	0.004752	-0.010943	0.204304	0.076501	0.148250	0.190851	0.197577	0.075380	-0.068117	-0.198163	-0.063633	-0.081570	0.146008	0.186367	-0.118566	-0.072602	-0.043454	-0.175741	0.021568	0.160582	0.104528	0.168430	-0.056907	-0.145472	-0.130898	-0.071481	-0.003095	0.078743	0.096681	0.060806	0.043990	0.114618	0.054079	-0.007580	-0.050180	0.260358	0.234573	0.030537	-0.204889	-0.340539	-0.329329	-0.093903	0.194214	-0.078208	-0.114081	-0.179105	0.061927	0.360134	0.134797	-0.209373	-0.260943	-0.223948	0.111254	0.176276	0.231209	0.215515	0.057442	0.000268	0.057442	0.184124	0.293990	0.113497	0.240178	-0.095023	-0.112961	-0.234037	-0.737400	-0.544575	-0.204889	0.124707	0.475604	0.765963	0.406098	-0.438073	-0.932467	-0.394351	0.191972	0.217756	0.206546	0.253631	0.215515	0.061927	-0.017669	0.066411	0.037264	0.027174	0.129192	0.131434	0.281658	0.253631	-0.052423	-0.334934	-0.388746	-0.111840	0.046232	-0.090539	-0.154440	-0.138746	-0.095023	-0.181346	0.046232	0.134797	0.079864	0.015963	0.061927	0.153855	0.181883	0.063048	-0.018790	0.055201	0.128071	0.015963	-0.097266	-0.033365	-0.019912	-0.015427	0.065290	0.057442	0.228967	0.501389	0.290626	-0.059149	-0.773275	-0.338297	0.132555	-0.030001	-0.093903	-0.303544	-0.458252	-0.454889	-0.254216	0.113497	0.539505	0.620223	0.267084	-0.359597	-0.479553	-0.026638	0.197577	0.267084	0.073138	0.020447	0.159461	0.187488	-0.027759	-0.017669	0.043990	-0.121929	-0.107356	0.021568	0.115739	-0.052423	-0.179105	-0.108476	-0.042333	0.008115	0.013721	0.001389	0.012599	0.010358	0.012599	0.051837	-0.000854	-0.056907	0.086591	0.026052	-0.144351	-0.074844	0.029416	0.064169	0.018205	-0.060271	-0.059149	0.017084	0.031658	-0.021033	-0.007580	-0.105113	0.067532	0.069775	0.000268	-0.103992	0.080985	0.122465	-0.045696	-0.078208	0.021568	0.011478	-0.226189	-0.183589	-0.041212	0.005873	0.013721	0.067532	0.045111	0.048474	0.050717	0.074259	0.026052	0.054079	-0.014306	-0.007580	0.032779	0.256994	0.031658	-0.092782	-0.179105	-0.175741	-0.111840	-0.084934	-0.031122	0.054079	-0.018790	0.116859	-0.005338	-0.120808	0.002510	0.009237	-0.042333	0.070895	0.048474	0.075380	0.018205	0.040627	0.000268	0.020447	0.017084	0.021568	0.004752	0.096681	0.124707	-0.095023	-0.183589	-0.147714	-0.049059	0.039505	0.039505	-0.044575	-0.005338	0.085469	0.095560	0.008115	0.006994	-0.170136	-0.062512	0.002510	0.029416	0.035021	0.058564	0.024931	0.117981	0.008115	-0.053544	-0.021033	-0.006459	0.029416	-0.008700	0.017084	-0.087176	-0.105113	-0.037849	0.043990	0.131434	0.094438	-0.010943	-0.072602	0.120223	0.124707	-0.089418	-0.283365	-0.184710	-0.132019	-0.019912	0.049595	0.052958	0.106770	0.095560	0.043990	0.101165	0.067532	-0.031122	-0.055786	0.000268	0.102286	0.027174	-0.034486	0.006994	0.036143	-0.021033	0.048474	0.037264	0.058564	0.223362	0.142645	0.115739	0.122465	-0.165652	-0.348387	-0.610718	-0.389867	-0.200404	0.001389	0.277173	0.400492	0.133676	-0.024396	-0.225069	-0.015427	0.116859	0.256994	0.313048	0.243541	0.035021	-0.183589	-0.399956	-0.320360	-0.098387	0.067532	0.302958	0.288384	0.214394	-0.087176	-0.108476	-0.258701	-0.183589	0.032779	0.003631	-0.138746	-0.245248	-0.008700	0.280537	0.185245	0.273811	0.047353	-0.377535	-0.243006	0.068654	0.064169	0.111254	0.147129	0.165066	0.102286	-0.101750	-0.028880	0.226725	0.029416	-0.468342	-0.257580	-0.006459	0.144886	0.236815	0.289505	0.074259	-0.282243	-0.259821	-0.328207	0.091075	0.189729	0.103407	-0.028880	-0.127534	-0.203768	-0.097266	0.287264	0.287264	0.151613	-0.210495	-0.328207	0.005873	0.082107	0.061927	0.091075	-0.003095	0.105649	0.104528	0.022690	0.077622	0.143765	-0.110719	-0.392108	-0.132019	0.029416	