1
54254 2
-0.000101	-0.000089	0.010788	0.015310	0.000133	0.017312	-0.005953	-0.002585	-0.008258	0.012153	-0.004349	-0.012898	-0.007218	-0.024545	0.006835	0.004771	0.001188	0.005215	-0.019778	-0.001749	-0.013291	-0.018002	0.006288	-0.020963	-0.000671	-0.006090	-0.008692	0.005232	0.013171	0.014852	0.019925	-0.005250	-0.024422	-0.026684	-0.011979	0.031688	-0.003583	-0.031935	-0.012815	-0.087441	-0.007205	-0.002631	0.012694	0.008026	-0.010736	0.051745	-0.016878	0.011136	0.013808	0.086067	-0.004948	-0.001312	-0.003085	-0.042202	-0.001926	-0.007337	-0.002406	-0.004760	0.000815	0.016809	-0.004551	0.002337	0.007018	0.020678	-0.002760	-0.008880	-0.013492	0.010169	0.001512	0.020244	-0.011746	0.012319	0.009890	-0.019689	-0.005198	-0.020346	0.015035	-0.006274	-0.002860	0.015237	-0.012851	-0.015567	0.006581	0.013651	0.012099	0.029046	-0.007445	0.000228	-0.008136	0.024806	-0.004593	-0.025136	0.008027	-0.043772	-0.013778	-0.003994	0.000450	0.005231	0.015772	0.007498	-0.013682	-0.034560	-0.003031	0.032998	0.000664	-0.009342	0.001113	-0.017217	-0.013935	-0.008970	-0.009974	0.030528	0.006288	-0.002242	-0.007677	-0.015686	-0.008935	0.013832	0.001012	-0.004081	-0.014034	-0.004226	0.008892	0.009496	0.009121	0.008053	0.005847	0.008355	0.011155	0.024447	0.000257	0.055081	-0.015651	0.023875	-0.002308	-0.013627	-0.000303	-0.031435	-0.021476	-0.023534	0.021192	-0.007492	-0.006937	0.019611	-0.005192	0.001048	-0.000872	-0.003239	0.023737	-0.004055	0.013184	0.049788	-0.021566	0.016520	0.004148	-0.030603	-0.035551	0.004860	-0.017432	-0.014170	-0.001765	0.002150	0.013539	-0.016896	-0.018080	0.026529	0.017403	-0.039878	-0.006769	-0.004607	0.002273	0.017492	-0.008267	-0.015671	0.010718	0.038809	0.008452	0.005533	-0.013673	-0.074197	0.018387	0.003788	0.016949	0.029430	-0.015423	0.026362	0.016098	-0.009657	-0.003913	-0.021482	0.015660	0.012398	-0.011426	-0.005480	0.011032	0.044345	0.005688	-0.026351	-0.007281	-0.031027	0.013565	-0.044809	-0.031409	0.083401	-0.002380	0.003111	-0.028320	0.008123	0.003252	-0.020987	0.005672	0.020673	-0.006750	-0.021621	-0.000146	-0.019026	0.014421	0.001757	0.005542	0.007001	-0.026566	0.008218	0.003929	-0.012692	0.015718	0.010830	-0.023300	0.017678	-0.024096	0.023168	0.001233	-0.028292	-0.010178	-0.044310	-0.012060	0.009759	0.001392	0.016168	0.023568	0.034497	0.003244	0.074787	-0.002777	0.057747	-0.006930	-0.170695	-0.010727	-0.055888	-0.011622	-0.012494	0.005747	0.042589	-0.008292	-0.009559	-0.022744	0.022869	0.003785	0.025735	0.002510	0.031486	0.002050	-0.018850	0.019702	0.165382	-0.000860	0.058702	0.009875	-0.126719	-0.041423	-0.043046	-0.008842	0.018860	-0.014591	-0.015749	-0.008767	0.036061	0.002473	-0.037141	0.008996	0.025553	0.005148	-0.009821	0.007335	0.007087	0.017999	0.030891	-0.028065	0.060379	-0.013653	-0.018056	-0.002992	-0.035071	-0.018416	-0.004212	-0.020515	-0.024786	0.009334	0.069521	0.001209	0.045276	0.002205	-0.066547	-0.001947	0.023389	0.008821	0.013518	-0.002792	-0.041210	-0.013819	-0.007616	0.012025	0.011114	0.010112	0.040079	-0.000148	0.044178	0.002667	-0.039756	-0.004830	0.015464	-0.002521	-0.037777	0.016244	0.059684	-0.010889	0.066770	-0.006512	-0.014956	0.004808	-0.056240	-0.024218	-0.019397	0.016767	0.018653	-0.001955	0.010552	-0.005966	0.014498	0.004708	0.033522	0.028724	0.016533	-0.010231	0.004725	0.012808	-0.026788	0.052730	0.033282	0.036501	0.051132	-0.180970	-0.165277	0.011744	0.031342	0.001187	0.091865	-0.067432	-0.118758	0.012241	0.019454	-0.029784	-0.116384	0.014284	-0.048509	0.017264	0.016966	0.037026	0.003340	0.023539	0.059453	-0.018013	0.019313	0.014044	-0.002446	-0.000539	0.000596	-0.021092	-0.008796	0.024539	0.032659	0.081201	0.034916	-0.073503	-0.049796	-0.045898	-0.014072	-0.086638	-0.005030	-0.002362	-0.008940	0.016335	0.004444	0.018559	-0.002573	0.039603	0.043102	0.014471	0.006927	0.010517	-0.006092	0.019954	0.066822	-0.008874	0.107368	-0.023210	-0.140382	-0.014747	-0.105315	0.000858	-0.041411	-0.004707	0.038351	-0.005110	0.038894	0.006664	0.006160	0.002413	0.024369	-0.011401	0.022286	-0.002522	0.003181	-0.003532	0.016632	-0.002832	0.041981	0.008458	0.024915	0.019622	-0.046879	0.007244	-0.031684	0.019467	-0.004158	-0.022799	0.021590	-0.076213	-0.020806	-0.040659	0.003524	0.054538	0.008464	0.113163	0.007732	-0.062170	-0.009321	-0.133721	-0.005775	0.003780	-0.017436	0.021614	-0.023307	0.026961	0.055208	0.003442	0.021497	-0.007967	0.004215	0.017344	-0.041290	0.178763	-0.030152	0.058022	0.003464	0.126088	0.155777	-0.116816	0.031946	-0.217703	0.033356	0.091082	-0.271807	-0.016469	-0.158144	-0.480552	0.180378	0.088337	0.223554	0.262613	-0.042822	-0.315428	-0.131211	-0.095068	-0.022170	0.009489	0.006231	0.101660	0.086958	0.111800	-0.184314	0.371921	-0.008026	0.357071	-0.113873	0.168893	0.000841	-0.824276	0.521966	-0.367384	-0.285557	0.176870	-0.085886	0.218670	-0.096283	-0.389631	-0.015659	-0.414496	0.086561	-0.123945	0.056066	0.439839	0.060465	0.027423	0.017757	0.197455	-0.001170	-0.006610	-0.029497	0.115482	0.054095	0.101441	-0.032753	0.037751	0.004654	0.029183	0.030590	0.030846	0.034145	0.135917	-0.127604	-0.034141	0.040579	-0.165033	-0.047796	0.020935	0.015119	0.253461	-0.094556	-0.421099	0.005103	-0.305375	0.023422	-0.150357	0.013898	0.057951	0.053915	-0.018136	-0.053602	0.270411	-0.034078	0.096159	0.027177	0.105823	0.041534	-0.029246	0.012035	-0.140921	-0.037282	0.130656	0.054980	0.020449	-0.027454	-0.158709	0.010488	0.080400	0.046441	0.063116	0.024736	-0.004576	0.013620	0.019598	0.114728	-0.225199	0.284272	-0.071858	-0.356947	0.042247	-0.172230	0.183917	-0.020964	-0.134522	0.125849	-0.250031	-0.033955	-0.129045	-0.022237	0.159170	0.084053	0.156884	0.071668	0.051074	-0.028518	0.123080	0.047775	0.150522	0.005853	-0.230079	-0.011300	0.145075	0.008422	0.018875	-0.018378	0.077198	0.091513	-0.109247	-0.036215	-0.175467	0.043940	0.089202	-0.059242	0.216388	0.026827	-0.282548	0.039685	-0.098930	0.160528	-0.364005	-0.261094	0.136735	-0.043701	0.117236	0.087219	-0.068849	0.071538	0.118810	-0.004499	0.145525	-0.100501	0.125226	0.161828	-0.009256	0.079887	0.029110	-0.133603	0.069917	-0.008874	0.042794	0.184897	-0.137890	-0.030578	-0.067032	-0.235902	0.163439	-0.050610	0.053753	0.025153	-0.038681	0.050998	-0.477435	0.034087	-0.112364	-0.064946	0.050792	-0.081570	0.100808	0.078339	0.112949	0.026305	0.034728	-0.158715	0.162914	-0.005267	0.131125	-0.131626	0.027276	0.034439	0.128094	0.101793	0.066394	0.141946	-0.112336	-0.033162	-0.139279	-0.248281	0.186705	-0.014929	0.121235	0.005482	-0.302436	0.090125	0.010483	-0.008042	-0.134597	0.131005	-0.097711	0.083295	-0.149576	-0.056857	0.139404	-0.000564	0.115209	0.002789	-0.152366	0.019432	0.100883	0.010671	-0.141065	-0.012728	0.065426	0.015089	0.015189	0.023628	0.078732	-0.026971	0.035520	0.082298	0.128509	-0.068585	-0.054664	-0.079395	0.045018	0.004341	0.109884	-0.029479	-0.109626	0.037601	-0.284795	0.051895	0.066394	0.203114	0.016753	0.007302	0.132984	-0.272092	-0.180181	-0.048099	-0.090490	-0.023419	0.027138	0.061092	0.100214	0.062070	0.109016	0.049147	0.154640	0.008547	-0.052741	0.028641	0.023861	-0.001872	0.049033	0.003394	-0.331976	-0.000551	0.029586	-0.011939	0.082108	0.002077	0.219619	0.030272	0.054307	-0.013982	-0.257198	-0.000876	-0.074827	0.004101	0.223666	0.024723	0.076951	0.031504	-0.675031	-0.073438	-0.240776	0.082567	0.132965	-0.091597	0.074964	-0.114267	0.093121	-0.030516	0.160302	0.009244	0.158418	0.034537	0.105098	0.043703	-0.090236	-0.169723	0.033705	-0.020861	0.097515	0.041462	-0.120751	0.059224	-0.006556	0.067572	0.006828	0.068044	0.057837	0.090122	-0.012980	0.062293	-0.096368	-0.249199	-0.023827	-0.068168	-0.026048	0.049436	-0.050680	0.049286	-0.044129	-0.038108	0.032785	-0.026462	0.145556	0.065994	0.125074	-0.044281	-0.039600	0.034419	-0.011225	0.031602	0.037481	-0.017903	0.036035	-0.081196	0.015735	-0.004251	-0.032679	0.071668	0.019285	0.065516	0.045745	0.000507	-0.026636	-0.025250	0.083837	-0.033910	-0.007368	-0.003746	-0.035184	0.037309	-0.004906	0.039820	-0.163439	0.070083	-0.166339	0.026433	0.192603	-0.004696	-0.059630	-0.077439	0.046420	0.024011	-0.140042	0.013848	0.076803	0.042944	0.138482	-0.052663	0.023736	0.069193	-0.027765	0.012644	-0.059338	-0.094648	0.021234	0.046282	0.076852	0.087818	0.047626	-0.011121	0.120946	-0.034131	-0.071779	0.029355	-0.069462	-0.005847	0.010227	0.023818	-0.064485	0.002654	0.101587	0.129729	0.345532	0.045172	-0.012426	-0.301398	-0.394295	-0.092130	-0.566149	-0.082371	0.039875	0.063507	0.209206	0.038719	0.190963	0.082910	0.099326	0.025894	0.111599	0.027554	0.016504	0.041229	0.056711	0.025629	0.063597	-0.089743	0.047235	0.035567	-0.119982	0.039835	0.000733	0.003087	-0.182406	-0.091110	-0.018301	-0.058703	-0.007556	0.039149	0.151321	0.029177	0.098980	0.007922	-0.127340	0.014963	-0.072416	0.011995	-0.080727	-0.017374	0.083928	0.030650	0.201163	0.047377	-0.167437	-0.071283	-0.129693	0.006061	0.072799	-0.014412	0.070289	0.055351	-0.111949	0.061947	0.090500	0.035980	0.095030	-0.034412	-0.024851	-0.084214	-0.114422	-0.015567	0.013940	0.031997	0.081756	0.069388	0.078731	0.088577	-0.031256	0.017142	-0.006983	-0.077924	-0.223104	-0.016393	-0.045958	0.030423	0.119040	0.054210	-0.030298	-0.012977	0.098458	0.010336	-0.102267	0.009456	-0.012454	-0.014055	-0.099260	-0.093677	0.108486	0.050382	0.217820	0.017712	-0.098412	-0.038146	-0.053584	0.014411	0.056701	0.004114	0.057888	-0.043788	0.116875	0.027527	0.095625	0.053324	-0.217382	-0.076795	-0.065290	0.046513	-0.056156	0.011428	-0.009733	0.040775	0.115899	0.006119	0.088411	-0.050648	-0.017298	0.002761	-0.208962	0.054055	-0.024829	-0.025837	0.126480	0.010781	0.101424	0.000056	-0.080283	0.066543	-0.078945	0.033384	-0.092089	0.050665	0.035434	-0.105163	0.128495	-0.116016	0.144320	0.087702	-0.040636	0.033183	-0.131554	-0.043120	-0.062205	0.004967	0.040389	0.012906	-0.071373	0.009074	0.088154	0.023845	0.129534	0.074475	-0.040002	0.014495	0.015542	-0.068161	0.030089	0.032623	0.001735	-0.038858	0.141471	0.058328	0.159165	0.088900	-0.298428	0.068793	-0.345687	-0.114603	-0.030520	-0.062332	0.174629	-0.006620	0.157349	0.079312	0.146811	0.060345	-0.134863	-0.099841	-0.065098	0.000719	-0.152359	-0.107023	0.066541	0.016474	-0.018530	0.061825	0.055499	0.036027	0.042096	-0.060409	0.172000	0.004229	0.177089	0.056343	-0.293423	0.025547	-0.324184	-0.046705	-0.081004	0.038322	0.181760	-0.028003	0.299835	0.021981	-0.287947	0.061566	-0.083952	0.025991	-0.111349	-0.093849	0.039266	-0.041148	0.089936	0.010903	0.095597	-0.011005	0.090451	0.010641	0.090376	0.094625	0.052992	-0.037079	-0.187111	-0.080792	0.140589	-0.052265	-0.222394	-0.018734	0.063409	0.032079	0.075181	0.012192	-0.091350	-0.017778	-0.245940	-0.043094	-0.002728	-0.006466	0.020388	0.001839	0.086396	0.020891	-0.032269	0.059696	-0.122021	-0.057832	-0.050272	0.048747	0.062789	-0.065725	0.131642	0.034831	0.106559	0.045742	0.090490	-0.028431	-0.206144	-0.031419	0.073240	-0.000658	-0.152356	0.019510	0.038314	-0.098057	-0.035611	0.042784	-0.002888	0.117263	0.123497	-0.179244	-0.148941	-0.055462	0.210177	0.034667	-0.005774	0.037834	-0.153577	0.077517	0.012294	-0.066547	0.084029	0.014375	-0.101957	-0.017392	0.090251	-0.000562	0.045826	0.012347	-0.201007	0.056556	-0.015201	-0.022684	0.084515	0.059077	0.074758	-0.056324	0.023579	0.044657	0.133648	0.012450	-0.053028	-0.051807	0.009745	-0.006801	0.005666	-0.019717	-0.142178	-0.002912	0.079184	0.033132	-0.056215	0.061456	0.031534	-0.113235	-0.051309	0.040373	0.144637	0.073733	0.137490	-0.094571	-0.134599	-0.041353	-0.189943	0.028350	0.072422	-0.028413	0.119019	0.013469	-0.450260	-0.064480	0.033805	-0.053351	0.108595	0.007975	0.112354	0.045458	0.143205	0.020408	0.008181	0.008092	0.000815	0.068994	0.135274	-0.027546	-0.004467	-0.020644	-0.392678	0.006217	0.084992	-0.054991	0.017592	-0.032714	0.094372	0.031394	0.182417	-0.024226	0.201527	0.029848	-0.608509	0.011226	-0.298983	0.004221	0.029640	-0.030648	0.427818	-0.013289	-0.103116	0.043583	-0.157498	0.094728	0.015688	-0.198866	0.083775	0.009987	0.038582	-0.007559	0.145547	0.010631	-0.091650	0.022640	0.027321	-0.001664	0.024670	0.012110	0.016239	0.117030	0.015968	-0.004667	0.009804	-0.095432	0.167372	0.025635	-0.010909	0.047653	-0.070106	-0.049818	-0.120027	0.055182	-0.244825	-0.026047	-0.085494	-0.052775	0.126494	-0.022898	-0.044007	-0.020291	-0.393631	0.008003	0.079763	0.010881	0.179839	0.023537	0.167537	0.012621	-0.008231	0.002569	0.101513	0.023479	0.155421	0.047186	-0.148240	0.017557	-0.081555	0.036414	0.029981	0.002115	-0.110300	-0.147117	0.065291	-0.052346	-0.077733	-0.092139	0.049288	0.048227	0.061834	0.015941	-0.126419	-0.081248	-0.089758	0.056201	-0.090916	0.012841	0.284507	0.007982	0.170308	0.017583	-0.200407	0.039006	-0.009000	0.029356	-0.286745	-0.019404	0.019899	0.011051	0.049732	-0.013002	0.078233	-0.078440	0.193181	0.136001	-0.061118	0.078834	-0.244702	-0.145729	-0.026371	-0.016440	0.090527	0.065941	0.162093	-0.004477	0.196706	-0.012235	-0.267736	0.008322	-0.127609	-0.017768	-0.253101	0.071966	0.013917	-0.098039	0.074317	-0.062059	0.138562	0.026366	0.085059	0.054091	-0.079775	-0.037577	-0.036114	-0.012781	-0.000102	-0.062987	0.083397	-0.021718	0.059631	-0.019928	0.082887	0.029168	-0.108477	0.008231	0.186766	0.017015	-0.415917	-0.000498	-0.069799	0.018896	-0.022345	-0.007742	0.129747	0.093076	0.197662	-0.147987	-0.194099	-0.057624	-0.048028	-0.081885	-0.002197	0.017859	-0.082384	0.029812	0.114662	-0.001739	-0.016675	-0.081017	-0.071522	0.002038	-0.135152	0.033040	0.101016	-0.003573	0.021536	-0.047636	0.023169	0.095204	0.047446	-0.017364	-0.106913	0.011221	0.048150	0.085446	-0.066574	-0.022438	0.105125	0.021287	0.187375	0.064636	-0.010414	-0.071799	0.160022	-0.024620	-0.173965	-0.078933	-0.436885	-0.048178	-0.017722	0.021497	0.034575	0.044158	0.044726	0.022279	0.388462	0.022686	-0.036354	-0.005243	-0.132805	-0.013331	-0.038965	0.049363	0.060042	-0.077649	0.074220	0.020598	-0.530503	0.012449	-0.038625	0.096230	0.115018	0.067078	0.005250	-0.139902	0.140509	-0.058794	0.281705	0.052256	0.222690	0.042833	-0.379922	-0.003146	-0.123927	0.017285	0.150627	0.038985	0.186725	-0.095200	-0.048071	0.064852	-0.370159	-0.049068	-0.104192	0.077776	0.162918	0.046995	0.034926	-0.039888	0.129043	-0.052747	-0.220117	-0.010419	0.149442	0.192549	0.162325	-0.059122	-0.195458	0.020514	-0.306781	-0.227802	0.117651	0.017660	0.178944	-0.000999	0.170162	0.137002	-0.042945	0.079564	0.030964	-0.174439	0.037249	-0.065951	0.048883	-0.061152	-0.080835	-0.127525	-0.091841	0.038353	-0.155161	0.014295	0.208374	0.065947	0.306944	0.103994	-0.532362	-0.115431	-0.358726	-0.045838	0.135677	0.023558	0.209989	-0.008784	0.118226	0.080637	-0.145923	0.024632	-0.042956	-0.116566	0.093321	0.001330	0.083569	0.024963	0.037325	0.011909	0.012897	-0.043321	-0.109177	-0.012557	0.105940	-0.039024	-0.181448	0.012598	0.094332	0.017586	0.185125	-0.002464	0.029872	0.045540	-0.048773	0.021530	-0.371177	-0.050118	-0.114989	0.050218	0.049961	0.059057	0.050641	-0.101026	0.117269	-0.093347	0.023607	-0.006138	0.079276	-0.035707	0.037552	0.016718	0.098656	0.049032	0.221351	0.083897	-0.138834	-0.028887	-0.252450	0.036089	-0.103457	-0.030765	-0.222710	0.075753	0.043812	0.050875	0.143156	-0.055747	0.141757	-0.039800	0.057769	-0.001119	0.043286	-0.015246	0.202706	0.025278	-0.347007	-0.026964	0.067656	0.075768	-0.109496	0.046312	-0.088298	-0.098437	-0.084657	-0.009061	0.034435	0.037945	-0.001640	0.052620	-0.113148	-0.060577	0.011683	0.017118	0.233403	0.038418	0.135933	0.062303	-0.343625	-0.101923	-0.001572	-0.059348	0.177819	0.036245	-0.030926	-0.009611	-0.109744	-0.059394	0.185973	0.018428	-0.203429	0.117287	-0.248463	0.026042	0.111204	-0.182962	0.262314	-0.007472	-0.023568	0.045821	0.056798	0.050054	-0.013498	0.023279	0.167564	0.007508	-0.225100	-0.177647	-0.275266	0.000443	0.027864	0.016226	-0.068977	0.025141	0.258541	0.071875	0.210083	0.029697	-0.097622	-0.019770	-0.095497	0.010617	-0.036167	-0.043144	-0.013214	0.094196	0.030823	-0.056152	-0.196077	0.011911	0.017548	-0.020547	0.069805	0.079242	0.068374	-0.032019	0.087220	-0.162207	-0.249545	0.019393	0.143064	0.012602	0.063956	0.017063	-0.098716	0.046678	0.120913	0.053076	0.269346	-0.044041	-0.393727	0.028760	-0.090364	0.010462	0.050302	0.080487	-0.045587	0.000239	0.096753	-0.013439	0.073998	-0.049973	-0.054847	-0.171718	0.049206	0.017115	0.198933	0.075902	0.112363	0.003923	-0.254563	0.025237	-0.159811	-0.080645	-0.037103	-0.060258	-0.080595	0.032902	0.122900	0.017708	0.159764	0.061056	0.116186	-0.078071	0.069165	-0.039908	-0.028445	0.124545	-0.114078	0.001635	-0.100324	0.036621	-0.084886	-0.095124	0.191926	-0.077493	-0.087483	-0.046250	-0.445176	0.063707	0.014011	-0.018031	0.109669	0.064341	0.145275	-0.029761	0.254032	0.078684	0.132908	-0.091682	-0.188020	0.025753	-0.189772	0.025819	-0.163158	-0.130275	0.103119	0.023134	0.126761	0.011341	-0.005555	0.019959	0.055086	0.049136	0.066827	0.087718	-0.111880	-0.081731	-0.077638	-0.076173	0.378868	0.011840	0.101752	0.116294	-0.096336	0.049281	-0.223831	0.031365	-0.164559	-0.029143	-0.041140	-0.129216	0.161923	0.005053	-0.140015	0.075511	0.235268	0.056690	0.107956	0.001187	0.005174	-0.103959	-0.161844	0.006370	-0.054776	0.012672	0.099611	0.052501	0.025088	0.293126	0.247424	-0.061213	-0.045039	-0.056437	-0.136943	-0.098548	-0.048031	0.010941	0.047309	0.186320	0.273286	-0.023733	-0.088509	-0.079007	-0.195118	-0.067507	-0.159337	-0.020401	0.049795	0.083921	0.322011	0.034056	-0.021350	0.043991	-0.006932	0.049085	-0.142749	-0.041764	-0.156693	-0.031772	0.099211	0.088051	0.154706	0.102362	0.148017	-0.074271	-0.173411	0.051874	-0.180062	-0.081382	-0.031969	-0.047695	0.168149	-0.104685	0.069495	0.085829	0.129046	0.036095	-0.151174	0.091093	-0.287311	-0.091376	0.184913	0.100858	-0.105535	-0.017665	0.047414	0.026693	0.264454	0.018532	-0.348329	0.070017	-0.095370	-0.224650	-0.221038	-0.048166	0.024133	0.021710	0.136837	-0.019210	0.227770	0.074568	-0.030443	-0.000351	-0.100085	0.098757	-0.049853	-0.085109	0.219549	0.001313	-0.011152	0.003277	-0.204142	0.005578	0.063223	0.072114	-0.010652	-0.130722	-0.175942	-0.025102	-0.085404	0.033313	0.113221	0.059232	0.112199	0.083794	-0.123366	-0.119709	0.090555	0.009498	0.116369	-0.022227	0.102808	0.000342	0.158262	0.015578	0.048310	-0.008172	-0.226586	0.025230	-0.255711	-0.046963	-0.104296	-0.063429	-0.079612	0.051557	-0.062782	0.061623	0.110835	-0.168627	0.042535	-0.010263	0.102504	0.036714	0.054009	0.141480	0.084769	-0.071196	-0.052620	-0.107282	0.055666	-0.081258	0.042933	0.032065	-0.044163	0.248972	-0.434651	-0.283538	-0.063669	0.000887	0.094424	0.051171	0.091539	-0.006966	0.158881	-0.016663	0.066252	0.029430	0.266889	0.076294	-0.227821	0.045363	-0.177548	0.087704	0.118927	0.058163	0.133945	-0.149143	-0.082541	-0.016719	0.173618	0.035709	-0.587224	-0.021172	-0.052277	-0.010817	0.160312	0.015188	0.335178	0.053740	0.059830	0.035858	0.038148	-0.104773	-0.257060	-0.077211	-0.035166	0.167388	0.410081	-0.137128	-0.056975	-0.003611	-0.656877	0.145225	-0.173822	-0.074593	0.208236	-0.026023	0.092805	0.011020	-0.050734	-0.031136	0.155322	0.072827	0.096695	0.069125	0.125193	0.010631	-0.100312	0.055622	-0.093725	-0.081975	0.074028	0.081771	0.004229	0.003313	0.032025	0.013471	0.200661	0.087065	-0.343452	-0.118982	-0.362354	0.025514	0.075400	-0.083733	0.213628	0.089548	0.264758	-0.078438	-0.231208	0.069253	-0.189055	-0.051986	-0.038898	0.044709	0.256506	0.255710	0.145731	-0.204780	-0.313253	-0.066621	0.039556	0.035558	0.111152	-0.045671	0.115900	0.048829	-0.044181	-0.093611	-0.252130	0.062383	0.000744	0.021241	0.072325	0.000295	0.195541	0.020494	0.038168	0.061710	0.235765	-0.007487	-0.341094	0.013994	-0.151563	0.001903	0.246643	-0.077936	0.042725	0.155496	-0.040025	-0.165718	-0.139641	-0.015708	-0.104759	0.045067	-0.176608	-0.071585	0.004854	0.028445	0.171149	0.042553	0.181192	0.124086	0.050142	-0.048274	0.075465	-0.013027	-0.045989	0.022321	-0.218533	0.014081	0.037649	0.004265	0.122549	-0.058720	-0.144850	0.036516	0.173483	0.088995	0.116701	-0.076263	-0.231728	0.005116	0.148269	0.031057	-0.108385	-0.072380	-0.035986	0.048620	-0.113571	-0.002339	-0.145584	0.047200	0.285418	0.028427	-0.132094	0.020014	-0.071280	0.130434	-0.020383	-0.097578	-0.066828	-0.167656	0.125721	-0.023980	-0.030098	0.044970	0.102011	-0.017154	0.191377	0.093558	0.076676	-0.010185	-0.291947	-0.053238	-0.082383	0.050534	0.053954	-0.066279	0.104494	0.077131	-0.148607	-0.054923	0.019835	-0.005664	0.138210	0.107994	-0.257504	-0.098456	0.140295	0.057017	0.037140	0.019355	-0.154452	-0.064831	-0.012512	0.125809	0.140166	0.035660	0.019818	0.021441	0.046355	0.003061	0.097533	0.045915	0.115991	0.013280	0.067232	-0.066590	-0.032907	0.007521	-0.320102	-0.094388	-0.090706	0.039794	0.196298	-0.044734	-0.415965	-0.024373	-0.112636	-0.039765	0.380605	0.032570	-0.076137	0.132909	-0.163440	0.020329	0.004473	-0.056865	0.051937	0.059774	0.214622	-0.034887	0.191139	0.089382	0.259713	0.135667	0.012196	-0.145772	-0.731132	-0.102539	-0.502920	-0.087051	0.083155	-0.068461	0.329961	0.003050	0.303822	0.034655	0.124100	0.024585	-0.109634	-0.031338	-0.205564	-0.062057	0.032091	0.059022	0.148782	0.034652	0.093728	0.071557	0.344552	0.091066	-0.116365	-0.095314	-0.292596	0.031568	-0.614949	-0.026196	0.054917	0.009855	0.126639	0.010723	0.124656	-0.010610	0.023237	-0.107141	-0.064977	-0.026054	0.096759	0.016054	0.159234	0.008183	0.288898	0.089736	-0.100658	0.021593	-0.516015	-0.090305	-0.052258	0.088994	-0.061181	-0.091790	0.051306	-0.047304	0.302285	0.078585	0.022405	0.000434	-0.154576	-0.076725	-0.026124	-0.024213	-0.134087	0.028707	0.421794	0.089103	0.220837	0.078996	-0.514394	-0.167729	-0.574846	-0.150085	-0.208809	-0.079455	0.273741	0.032207	0.294944	0.061712	0.080015	0.070452	0.179413	0.054890	0.052803	-0.003209	-0.339252	-0.030517	0.008323	-0.039999	-0.272895	-0.003125	0.102430	0.004340	0.219214	0.014774	0.281453	0.132450	-0.435319	-0.089504	0.242061	-0.009542	-0.033989	0.101569	-0.389430	-0.007795	0.139980	-0.015508	0.033353	-0.079548	0.154331	0.071637	0.140161	0.030151	0.111526	-0.144502	-0.266842	0.029521	-0.296127	0.127071	-0.127670	-0.098878	-0.056738	-0.132981	0.373518	0.026087	0.230735	0.073423	-0.064519	-0.072532	-0.256145	-0.024257	-0.089875	0.062804	0.012808	-0.003903	0.294459	0.009916	0.182998	-0.035524	0.146077	-0.093293	-0.416977	-0.078017	-0.412766	0.041690	-0.015389	0.036763	0.444288	-0.080299	0.202251	0.073021	0.000866	0.028730	-0.365917	0.004264	0.036857	-0.025338	-0.192118	-0.030758	0.107964	0.119628	0.364046	-0.009542	-0.050994	0.048280	0.064140	0.002506	0.108912	-0.188979	-0.571663	0.010341	0.009402	-0.032231	0.049776	0.035164	-0.083925	-0.179753	-0.077128	0.007864	0.206995	0.026884	0.105976	0.130432	0.076246	-0.007325	-0.055239	0.084250	0.207693	0.024862	-0.233846	-0.170742	-0.019438	-0.036090	0.108875	0.044390	-0.131635	0.021443	-0.122427	-0.023823	0.056741	-0.017701	-0.198082	-0.115489	0.085457	-0.044155	0.204570	0.002951	0.033138	0.060671	-0.067052	0.079658	-0.081834	-0.035750	0.339156	0.150622	0.097967	-0.109998	-0.683951	-0.001106	-0.452612	-0.075357	0.115071	-0.003995	0.430449	0.055547	0.147368	0.048521	-0.036071	0.028725	-0.147918	-0.017907	0.193502	0.041533	-0.035727	0.095287	-0.171605	-0.168493	0.011879	0.010671	-0.013924	0.001701	0.212333	0.032039	0.127744	0.126871	-0.103956	-0.285185	-0.251941	-0.047860	0.086960	0.067229	-0.020344	0.003815	0.178511	0.013198	-0.176956	0.064996	0.092397	0.077587	0.006911	-0.021691	-0.073845	-0.012257	-0.091339	0.031779	0.211707	-0.000595	-0.137063	0.021085	-0.446771	-0.017484	-0.043134	0.000618	0.182682	0.085001	0.246677	-0.036494	0.124770	-0.152191	-0.281412	-0.024367	0.038577	0.023372	0.159183	0.032105	-0.165077	-0.014124	0.111438	0.036027	0.164592	0.061673	-0.008821	-0.074797	-0.308158	0.111144	-0.087059	-0.088223	0.049067	-0.029565	0.141805	0.059791	0.076932	0.089224	0.107132	-0.022685	-0.239823	0.065238	0.012436	-0.051830	0.141388	0.020291	0.268101	0.050369	-0.084331	0.126723	-0.564242	-0.107809	0.114566	-0.067358	0.054017	0.000249	0.144756	0.047713	0.009351	-0.050247	0.017903	0.090374	-0.239597	-0.002781	0.006677	-0.030651	-0.006286	0.069945	0.093092	-0.015477	0.134939	-0.062515	0.212657	0.037684	-0.148203	-0.030780	-0.240360	-0.074573	0.080047	-0.035497	0.045925	0.086964	-0.193701	0.039166	0.116392	0.005904	0.013816	-0.096208	-0.222606	-0.087333	-0.278331	-0.014659	0.151110	0.037684	0.204037	0.060580	0.196320	0.078908	-0.150618	-0.005168	0.087733	-0.081356	-0.038311	-0.025637	-0.115156	-0.013174	0.315645	0.017993	-0.140664	0.052400	-0.052762	-0.036753	0.002650	0.011037	0.089376	0.051982	-0.164356	-0.095208	-0.018496	0.089866	0.099542	-0.105760	-0.058751	-0.079967	-0.048803	0.004919	0.286400	-0.029200	0.213709	0.037822	-0.051096	0.083129	-0.290187	-0.071278	-0.228992	-0.036635	-0.166318	-0.132937	0.051276	0.035990	0.275101	0.051053	-0.086376	0.004627	-0.097834	-0.031505	0.023781	-0.018548	0.170957	0.007183	0.075513	0.018410	0.037763	-0.035253	-0.026370	0.092875	-0.003289	-0.020657	-0.001237	-0.069569	0.015994	-0.004621	0.141058	0.117482	-0.399678	-0.008385	-0.028558	-0.142110	-0.005116	0.060391	0.069391	0.001376	0.005363	-0.041873	-0.199815	-0.001804	0.147907	0.021340	0.100616	0.031451	0.094701	0.019310	0.074785	0.001441	-0.065360	0.077658	-0.224312	-0.056433	0.068399	-0.027356	0.057719	0.047659	-0.019878	0.071749	-0.026663	0.064946	0.133744	-0.087143	0.182475	-0.123210	0.019828	-0.029040	-0.103278	-0.050711	-0.321556	0.005157	-0.172186	0.008449	0.228174	0.046959	0.185924	0.033902	-0.035186	0.011993	0.171398	-0.073144	-0.278287	-0.019448	-0.112200	0.002881	0.102401	-0.005675	0.109630	0.086207	0.137085	0.097449	0.056349	-0.038696	-0.062020	-0.163682	0.175695	-0.035280	-0.204192	-0.050135	0.151460	0.003889	-0.023561	0.004635	-0.250853	0.074214	0.147275	0.059880	-0.068079	-0.112363	-0.381074	-0.017514	-0.004858	-0.011941	0.216022	0.039159	0.472919	0.088339	0.183191	0.271666	-0.507477	-0.122049	-0.129076	-0.003532	0.280862	-0.051287	-0.080466	-0.099782	0.046877	0.029323	-0.063536	0.022196	-0.157720	-0.005812	-0.054566	-0.089688	0.288609	0.051465	-0.108623	0.133431	0.016829	0.017143	-0.063859	-0.072063	0.022156	0.068825	-0.025535	0.035812	0.313327	0.002651	-0.332907	-0.066852	-0.173090	-0.099138	0.099739	0.031365	-0.238131	0.032145	0.143346	0.102497	0.055816	-0.048209	-0.029337	-0.041100	-0.195649	0.057877	0.101534	-0.074359	0.059382	0.001864	0.154099	0.086345	0.207925	0.050569	-0.080857	0.021681	0.076801	-0.070851	-0.051700	0.031141	-0.439462	0.030136	-0.081565	-0.037467	-0.111329	0.006802	0.294784	0.069262	0.359436	0.238331	-0.193688	-0.335822	-0.069646	-0.071140	0.256432	0.022572	-0.114102	0.032568	0.210416	0.061001	0.216848	0.116119	-0.483314	0.067532	-0.108976	-0.028351	0.072673	0.018009	0.392188	-0.011522	-0.164360	-0.058971	-0.450673	-0.104308	0.011343	0.012082	0.061468	-0.008953	0.123934	0.036124	0.041665	0.022706	0.370444	0.045442	0.118329	-0.053293	-0.181634	0.077491	-0.187977	-0.089113	0.065278	-0.009959	0.046437	0.046796	-0.043601	-0.028066	0.097972	-0.080104	-0.244284	0.027984	0.081412	-0.160000	0.163565	0.095780	0.102401	-0.058016	-0.238158	-0.006498	-0.125617	0.030741	0.052872	0.049810	-0.361522	-0.103025	0.028520	0.037465	0.268361	0.047842	0.101860	0.003257	0.073847	-0.084589	0.091061	0.003930	0.086670	0.063781	-0.258927	-0.031092	0.109066	0.034226	0.097076	-0.066530	0.038898	-0.015768	-0.071719	0.006495	-0.073183	-0.017331	-0.044242	0.014179	0.080132	0.083728	0.087748	0.103917	-0.051661	-0.033121	0.051161	-0.097685	-0.124195	-0.041433	0.120044	-0.000197	0.248620	0.084831	-0.137636	-0.068109	-0.320554	0.054906	0.006012	-0.155745	0.067044	0.037294	0.127070	0.023708	0.123061	0.027024	-0.022407	0.003479	0.024490	0.026865	0.010583	0.005735	0.006989	-0.006673	-0.014361	-0.003702	-0.003277	-0.002511	0.000465	-0.007650	0.007205	-0.011285	-0.022336	-0.006803	-0.000747	-0.018901	0.069072	-0.010467	-0.072044	0.012134	-0.013097	0.032780	-0.103580	-0.021363	0.093798	-0.000653	0.143893	-0.007374	0.269541	0.053452	-0.352356	-0.014928	-0.496797	-0.036162	0.085763	-0.001515	0.040549	-0.029372	0.060626	0.012220	0.015277	-0.009737	0.134711	0.006308	-0.008578	0.006238	0.008589	-0.000784	0.059740	0.005379	0.064360	0.003910	0.030667	0.014966	-0.061714	0.017525	0.056419	-0.025498	-0.039873	0.022483	-0.033713	-0.003154	-0.059844	-0.008484	-0.021523	0.060964	-0.006011	0.023479	0.028174	-0.012059	-0.005929	-0.047208	-0.000581	0.016006	-0.000559	-0.071812	0.033490	0.012683	0.025558	0.018593	-0.079495	-0.019832	0.035040	0.017464	0.033915	0.033968	-0.076948	0.019917	-0.027390	0.007646	0.037059	-0.005281	0.025095	-0.001120	-0.031100	-0.003424	-0.010154	0.021791	0.018710	-0.024985	0.002957	0.007005	-0.033082	-0.001234	-0.007684	-0.015171	0.008367	0.017071	0.005081	-0.018497	0.013224	0.020608	0.007109	-0.003142	0.001722	0.025095	0.012738	-0.013025	0.005809	0.008701	-0.007903	-0.020316	-0.003033	0.000203	-0.004888	0.002086	-0.012501	-0.002185	0.001147	0.007329	-0.001805	0.000210	-0.002469	-0.005827	-0.003465	-0.008383	-0.001474	-0.002905	0.000596	0.003927	-0.001181	-0.009530	0.004841	-0.017380	0.011082	0.028321	-0.001129	-0.020770	-0.031131	-0.003832	-0.005287	-0.000513	0.005931	0.006486	-0.007024	-0.002323	-0.001810	0.007257	0.004480	0.000099	-0.005035	0.015751	-0.004613	-0.015274	0.003098	0.011382	0.006104	-0.007657	-0.004945	-0.006446	-0.004838	0.004550	-0.003900	0.006580	-0.009929	-0.006347	0.002609	0.010083	0.005433	0.016362	-0.015521	-0.002064	0.004490	-0.009218	0.016294	0.014226	-0.003906	-0.000945	-0.013098	-0.006926	0.008787	-0.004932	0.002759	0.002435	-0.004444	-0.010591	-0.006282	-0.011638	0.015191	0.014277	-0.006029	0.003372	-0.007102	-0.001108	-0.000118	0.002313	0.012602	0.000668	-0.004179	0.021769	-0.026166	0.003740	-0.002129	0.011862	-0.004405	0.002503	-0.013202	0.002860	0.010221	0.010539	0.019062	0.007554	-0.009179	-0.012688	0.002939	0.003824	0.013111	0.008189	-0.007174	-0.009527	-0.004833	-0.004005	0.014925	0.005128	-0.003193	0.011516	-0.017097	-0.005291	-0.012691	-0.006330	0.006593	-0.004960	-0.010562	-0.015293	-0.007444	-0.008822	0.004926	-0.001240	-0.000673	-0.000364	-0.006048	0.010396	-0.002184	0.006961	0.000073	-0.008248	-0.003920	-0.017447	0.000175	0.001408	0.011514	0.002343	-0.005847	-0.001045	-0.011260	-0.012285	0.013068	0.011681	0.000776	0.003873	-0.005075	-0.010971	0.001237	0.008002	0.016262	-0.004689	-0.016636	-0.007067	0.000056	-0.023291	0.008933	-0.008102	-0.002921	-0.000400	-0.016702	-0.007760	0.005078	0.017059	0.007540	0.013083	-0.010756	-0.014388	0.018599	0.004725	0.022585	0.017412	-0.003255	-0.011200	-0.028040	-0.007779	-0.007244	0.001361	0.009562	0.005481	-0.000697	0.000930	0.006581	0.001137	0.014684	-0.000187	-0.003348	-0.021457	-0.013184	-0.000373	0.008048	0.000784	-0.005619	-0.007898	-0.006082	-0.003507	0.002592	0.010206	0.010205	-0.015350	0.003251	-0.005007	0.003710	0.011530	-0.001211	0.010284	-0.001781	-0.009062	-0.010986	-0.009670	0.018892	0.002881	-0.000726	0.012395	-0.012374	-0.021244	-0.018699	-0.001014	0.001164	0.004226	0.000208	0.006353	-0.005234	-0.004305	0.007620	0.017479	0.013765	-0.013328	0.003723	-0.002218	-0.007827	0.009900	0.001297	-0.002776	0.002055	-0.004079	-0.002126	-0.002048	0.011924	0.021897	-0.009390	-0.010995	-0.010692	-0.020028	0.004619	0.010923	0.002810	-0.016087	-0.004062	-0.004306	-0.008063	0.006606	0.002756	0.004584	0.008357	0.014540	-0.004527	-0.004483	0.003051	-0.003456	-0.003314	-0.001010	-0.003971	0.004816	0.006809	-0.014280	0.011610	0.012892	-0.005165	0.005813	0.000351	0.000895	0.005101	-0.000167	0.001219	0.002841	-0.004375	-0.006064	0.003366	-0.000714	0.003856	0.009192	-0.001971	-0.013057	-0.001312	-0.002667	0.002926	0.011366	0.002465	0.001224	-0.004621	-0.003701	0.001686	-0.006391	-0.000160	-0.019767	-0.000965	-0.000983	0.013605	-0.001397	0.021574	0.026180	0.006133	0.042212	0.009795	0.196111	0.025087	0.057792	-0.011675	-0.417814	-0.054972	-0.025589	-0.081304	0.016331	0.029801	-0.028332	0.121353	0.020931	0.055310	0.090911	-0.020436	0.102253	-0.007560	0.027751	0.052238	0.029741	0.240450	0.181416	0.236126	-0.166563	-0.221526	0.192808	-0.430029	0.104376	0.349313	-0.171036	-0.117885	-0.223876	-0.466250	-0.053548	-0.266637	-0.495716	0.024556	-0.115654	0.104784	0.163680	0.210306	0.098686	0.181205	0.155748	0.161101	0.001960	0.152799	0.054148	0.127321	0.163761	0.105104	-0.037860	-0.091645	0.201573	-0.087584	-0.092381	-0.067192	0.017081	0.318388	0.093073	-0.013727	-0.183839	-0.190496	-0.010083	-0.507459	0.016845	-0.251739	0.029070	0.103033	0.366032	0.171695	-0.197686	0.042651	0.196170	0.022834	-0.229236	0.183737	-0.149732	0.011263	0.569545	0.035455	-0.155594	0.002277	-0.591717	0.030440	-0.042765	-0.006682	0.021685	0.188081	0.092691	0.008951	0.154114	-0.265450	-0.036959	0.268043	0.122731	0.136650	0.038631	-0.731792	0.051452	-0.226610	-0.065145	0.067948	-0.005631	0.111219	0.105554	0.128307	-0.049624	0.215245	0.111292	0.118834	0.091650	-0.223607	-0.209897	0.056710	-0.135364	0.011485	0.075957	0.015025	-0.181873	-0.024507	0.023351	-0.026012	0.071913	-0.083861	-0.235904	0.188008	-0.053499	-0.151706	-0.016239	-0.015419	0.101020	-0.128117	0.068794	0.066969	0.064045	-0.097950	-0.231369	0.156364	0.162260	-0.012060	0.029736	0.144428	0.066294	-0.031718	-0.146921	-0.100291	0.192385	0.022097	-0.140700	0.024177	0.369895	0.223445	-0.369712	0.394272	-0.226139	-0.398459	-0.320123	-0.656754	-0.058580	0.251613	-0.138342	0.385867	0.229788	-0.067986	-0.087673	0.070386	0.159315	-0.507896	0.042497	-0.164573	0.030891	0.299193	0.028420	0.110963	0.153609	0.064966	-0.097832	-0.033331	-0.037728	-0.204752	-0.012173	-0.029998	0.324781	0.245310	0.124901	0.089362	-0.252248	-0.091115	0.080486	-0.013833	0.030106	0.173861	-0.247260	-0.085985	0.240861	0.299162	0.064237	0.047497	0.021848	-0.326889	-0.035058	-0.007819	0.335260	-0.165044	-0.403359	-0.066092	-0.221904	-0.243811	-0.184658	0.062437	0.126906	-0.005967	0.148583	0.307711	0.136395	-0.019503	0.148432	0.411696	0.104918	-0.090379	0.061800	0.232831	-0.086855	0.034048	0.335634	-0.262662	-0.377886	-0.149472	0.021901	-0.558181	-0.245712	0.141195	0.341302	0.621786	-0.558422	0.459828	-0.172817	-0.390722	-0.171417	-0.648688	0.180014	0.277909	-0.029664	0.076286	0.484065	0.198127	-0.180085	-0.012136	0.062357	-0.160115	0.127678	0.205439	0.273497	0.210149	-0.043298	0.176371	-0.012649	-0.052158	-0.239326	-0.183064	0.059546	0.555242	0.428845	0.001533	0.038063	-0.179679	-0.379398	-0.829150	-0.272452	-0.446199	-0.236649	-0.326806	0.031263	0.432764	0.096515	0.631193	0.063282	0.149472	0.320341	-0.272073	0.104758	-0.026001	-0.286223	0.161260	-0.010583	0.095121	0.019689	0.032276	0.253598	0.136458	0.196629	0.051722	-0.448192	0.372200	-0.161088	0.089207	-0.157232	0.233302	-0.155685	0.131359	-0.091519	-0.223786	0.002702	0.088487	-0.103491	-0.510366	0.042330	-0.049670	-0.374617	-0.912121	0.176487	-0.127652	0.020430	0.236862	-0.189084	0.396177	0.029793	0.180903	0.140883	0.072284	-0.001423	-0.007231	0.112363	-0.033611	-0.271719	-0.038906	0.024886	0.159947	0.292465	0.059534	-0.202420	-0.084872	-0.201106	-0.036866	-0.084990	0.047041	0.071506	0.336737	-0.009181	0.269698	0.249630	-0.171475	-0.022727	-0.077603	-0.110800	-0.469283	-0.167553	-0.140895	0.052638	-0.652370	0.316063	0.474400	-0.761847	0.136175	0.369864	0.154872	-0.090554	0.109243	-0.209440	-0.080595	0.029460	-0.043689	0.118432	0.170911	0.133522	0.078576	0.055709	0.025595	0.086435	0.120052	-0.011007	0.030453	0.179737	-0.045501	-0.029542	0.018382	-0.076059	0.031044	0.050311	-0.058326	-0.041211	0.355426	-0.032387	-0.187133	-0.038795	-0.144620	-0.020062	0.219486	0.033688	0.103873	-0.062497	0.182946	-0.057324	-0.679533	-0.330144	-0.417775	0.049248	0.175839	0.141200	-0.335537	0.166787	0.403944	-0.286433	0.066314	0.097102	0.339305	0.086453	-0.032833	-0.092738	-0.118962	-0.088622	0.143045	0.145620	0.211845	-0.171479	-0.148798	0.122595	-0.044685	-0.122215	0.019022	-0.129625	-0.171715	0.075115	-0.103370	0.081314	0.160002	0.036091	0.035898	0.079886	0.145743	0.120349	-0.262029	-0.087755	-0.334019	-0.004079	0.242719	-0.188105	0.260481	0.317621	-0.219041	-0.211420	-0.107271	0.033450	-0.076862	-0.076780	0.056224	-0.153923	-0.184796	0.060588	-0.077433	0.047846	0.225808	0.077402	0.213786	0.117223	-0.179775	0.021571	0.268910	0.079029	-0.047122	0.038734	-0.122991	-0.106213	0.112135	0.003215	-0.016666	0.115660	-0.015186	-0.054472	-0.297006	0.110555	0.062445	-0.138495	-0.154723	-0.058029	0.185380	0.084375	-0.236720	-0.129592	0.237260	0.061357	0.081795	0.021658	0.220726	0.073203	0.063409	0.196442	-0.315219	0.023522	-0.427381	-0.344663	-0.115661	0.150484	0.067840	-0.151154	0.554858	0.173807	-0.210881	0.017589	0.100100	-0.239333	-0.216921	0.026185	0.287406	0.015813	-0.238274	-0.028664	0.122141	0.067355	-0.007446	0.002630	0.142702	0.009517	-0.391132	-0.006796	-0.345103	-0.013698	0.200509	0.073252	0.457107	0.147753	-0.276662	-0.296254	-0.364334	-0.044399	0.014093	-0.000997	0.317620	0.098975	0.272763	0.073264	0.000496	0.194698	-0.040683	0.093024	-0.021282	-0.110570	-0.085670	-0.029602	0.416059	-0.270514	-0.123577	0.000951	-0.454115	0.215878	-0.396080	-0.021494	0.626210	0.032431	-0.357090	0.019084	-0.063235	-0.040005	-0.342067	0.139894	0.262644	0.095513	0.427882	-0.302457	0.022091	-0.045763	0.093689	0.171178	-0.176003	-0.103603	-0.155707	0.196805	0.274594	-0.167070	0.027781	-0.174375	0.025768	-0.143265	-0.498107	0.059929	0.077797	0.181148	0.026125	0.089878	0.311945	0.032306	0.086076	0.196262	-0.008271	-0.390148	-0.160534	0.031386	-0.030794	-0.041080	0.337888	-0.071765	-0.101337	0.193746	-0.219429	-0.044306	-0.040288	0.097955	-0.349261	-0.094782	0.362432	0.069034	0.130397	0.078166	-0.116360	0.026893	0.203864	-0.097235	0.090131	0.064515	-0.552165	0.094982	-0.098842	-0.069044	0.351263	-0.239292	0.326037	-0.074581	0.095398	0.137525	-0.349179	-0.143942	-0.011816	0.084427	0.096278	0.080799	-0.096318	0.022103	0.246192	0.110283	-0.223235	0.011922	-0.306717	0.023512	-0.284041	0.140679	0.163362	-0.124301	0.069485	-0.074328	0.231272	0.183669	0.157892	-0.378319	0.243288	-0.053416	-0.031938	0.091310	-0.411117	-0.144720	-0.300791	-0.202980	0.365563	0.176433	-0.202910	0.090605	-0.515537	-0.129087	-0.325112	-0.097871	0.195670	0.172131	0.408211	-0.173270	0.516167	0.090412	-0.190960	-0.075896	-0.392907	0.000586	-0.166169	0.007155	0.158170	0.019685	0.203756	0.021188	0.333812	0.234400	-0.256695	-0.082736	-0.545968	-0.078082	-0.249862	-0.001864	0.373333	-0.023943	0.062179	-0.148652	-0.080050	0.159767	-0.359902	-0.077303	0.285743	-0.201554	-0.003162	0.046203	0.336483	0.219715	-0.589204	-0.142869	-0.042442	0.049818	-0.245321	0.040618	0.265691	-0.098775	0.219002	0.021904	0.073106	0.052232	0.153741	0.288768	-0.559577	-0.460181	-0.029369	-0.071960	0.441387	0.252718	0.603292	-0.161464	-0.512807	-0.150804	-0.822109	-0.090794	0.038407	0.090616	0.283744	-0.024792	0.195712	0.141515	0.455051	0.068652	-0.338686	-0.168262	0.037473	-0.050521	-0.018176	0.124502	-0.109157	0.095817	0.439715	0.043152	0.663009	-0.246762	-0.620305	-0.131403	-0.929662	-0.083983	0.077418	0.086554	0.337572	0.063568	0.022290	0.170649	-0.021066	0.039700	0.054669	-0.004813	0.203492	-0.085042	-0.128664	0.070131	0.067873	-0.036537	0.309561	0.298377	-0.134478	-0.166468	-0.426577	-0.365043	0.144456	0.123877	0.025593	0.009802	-0.059684	0.056765	0.547566	0.055886	0.120090	0.222920	-0.744894	0.230484	-0.052939	-0.259353	0.399808	-0.074308	-0.073134	0.159347	-0.039868	-0.135246	0.162346	0.133324	0.097883	-0.046293	-0.064948	0.070714	-0.768206	-0.113728	0.181452	-0.076901	0.097420	0.254622	0.187605	0.399098	0.058078	-0.784099	-0.206889	0.101280	-0.381154	-0.067297	-0.000072	-0.199269	0.162377	0.082130	0.200670	0.159341	0.211300	-0.020503	0.094228	0.234962	0.017058	-0.274543	-0.139388	0.090292	-0.041172	-0.032833	0.484261	0.127599	-0.099554	0.114020	-0.058652	-0.102301	-0.340118	-0.305233	-0.161187	0.029224	0.499842	0.388740	-0.314981	-0.602714	-0.080424	0.076791	-0.204729	-0.072764	0.135335	0.090052	0.452401	0.042244	0.161154	0.228767	0.332430	-0.038649	-0.482845	-0.148146	-0.230690	-0.005547	-0.158361	0.041957	0.360486	-0.006988	0.363598	-0.014319	-0.223725	0.076458	-0.167388	-0.048915	-0.137111	0.073173	-0.084634	0.010614	0.573852	0.164176	0.076474	-0.099173	-0.608833	-0.330040	-0.145527	-0.010177	0.214026	0.295318	0.443051	0.090490	0.436578	-0.017566	-0.171861	-0.155739	-0.240602	-0.012130	0.015415	0.081784	0.029938	0.127461	0.101959	-0.005788	0.320633	0.000065	-0.306865	-0.064906	-0.281466	-0.129310	-0.031149	0.119849	0.337584	-0.051662	-0.515587	0.008952	0.186921	0.075253	0.553145	-0.009726	0.089826	-0.157227	-0.118814	0.077933	-0.393155	-0.168222	0.286957	0.060184	-0.312230	0.061380	0.029710	0.193513	-0.025949	0.329349	-0.290051	-0.236860	0.111358	-0.111745	0.156775	-0.283444	0.241291	0.039483	-0.094791	0.194926	0.049525	-0.163582	0.083836	0.036578	0.153396	0.092539	0.107274	-0.101666	-0.397740	0.065638	-0.558970	-0.083576	-0.131323	0.008209	0.322946	0.495726	-0.194019	-0.248933	0.030101	-0.149503	-0.153740	0.029490	0.307649	0.033412	-0.070042	-0.043438	0.242113	-0.013060	-0.199559	0.074876	0.205480	0.183761	0.082070	-0.119624	-0.324216	-0.014663	-0.022542	-0.006119	-0.255175	0.060161	0.174470	0.034310	-0.155893	0.064274	0.219269	-0.055986	0.155415	-0.054967	0.001377	0.022756	-0.029413	0.070051	0.009657	-0.156478	0.028396	0.176819	0.342888	-0.088778	-0.227543	-0.108047	-0.310089	0.009801	0.006371	0.030055	-0.009518	0.062117	-0.160341	-0.083898	0.143098	0.200495	0.265529	-0.269624	-0.021503	-0.040726	0.152225	-0.051048	0.044484	0.023575	0.696370	0.183177	-0.456952	0.027300	-0.665043	-0.140761	-0.205125	0.071932	0.305038	-0.110629	0.139130	0.093878	-0.177049	0.080074	-0.152864	-0.008952	-0.247650	-0.016184	-0.072516	-0.035826	0.686436	-0.138352	0.102128	0.127236	-0.616914	0.011886	0.034828	0.195304	0.126738	-0.101609	0.057559	-0.069095	-0.400324	-0.197373	-0.070114	-0.000713	-0.089970	-0.086230	0.209281	0.097448	0.348368	-0.013691	0.167624	0.140980	0.226576	0.276108	-0.467739	-0.364058	-0.355586	-0.129293	0.250649	0.010285	0.430612	0.072583	0.209510	0.178912	-0.923595	-0.268342	-0.105898	0.055685	0.348809	0.199527	0.415763	-0.098364	-0.274515	-0.027377	-0.151440	-0.150745	0.131789	0.030256	-0.335902	0.195140	-0.356187	0.005988	0.246626	-0.376796	0.459068	0.102715	-0.056225	-0.005368	0.009543	0.253473	-0.060698	-0.311025	0.038804	-0.010153	-0.079918	-0.016213	0.305059	0.040243	0.320234	0.054492	-0.046430	0.114890	0.010299	-0.045858	-0.424355	0.072905	-0.082837	-0.031002	-0.062983	-0.060441	0.020369	-0.125906	-0.151837	-0.243681	0.242230	0.007519	-0.009118	0.213050	0.063844	-0.225017	0.362264	-0.217563	-0.597220	0.231713	-0.252270	0.029170	0.180151	0.046488	0.023237	-0.115770	-0.150196	0.060177	0.265595	0.045844	0.244858	0.088188	-0.030220	-0.085764	0.104022	-0.091253	0.002015	0.054774	0.241120	0.113585	0.095150	-0.135986	-0.388042	0.009389	0.010496	0.026228	-0.265663	0.121707	-0.285899	-0.034383	0.185168	-0.121859	0.040265	-0.016161	-0.034878	-0.059086	0.409462	0.225549	-0.003339	-0.068326	-0.562964	-0.000706	-0.220119	0.126540	-0.006710	-0.241406	-0.098093	-0.026273	0.185840	0.050785	0.277927	0.182141	0.036777	-0.005442	0.186695	-0.062972	0.157366	-0.047946	0.020292	-0.061509	-0.422810	0.001477	0.281636	0.117506	0.308393	-0.160615	-0.519736	-0.089257	-0.238352	0.056434	-0.566857	0.026955	0.273107	0.108935	0.090434	0.170380	0.255870	-0.155939	0.130475	-0.097447	-0.025031	-0.022543	-0.121204	-0.115548	-0.464320	0.094787	0.227922	0.047231	0.034298	-0.123767	0.122568	-0.065591	-0.162400	-0.024005	0.170252	-0.034133	0.095537	0.083127	-0.056599	0.032531	0.048327	0.193069	-0.043663	-0.019455	0.102462	0.003699	0.355058	0.028509	0.276692	-0.167425	-0.618870	0.142288	-0.020906	-0.159641	0.358636	-0.060160	0.058943	0.032538	0.134583	-0.009884	-0.104117	-0.092124	-0.460798	0.172435	-0.123144	-0.345119	-0.080916	0.045514	0.302613	0.007816	-0.212938	0.187006	0.182612	0.189695	-0.068281	0.067319	-0.008255	-0.155947	-0.251859	-0.099065	0.200100	0.054539	0.322048	0.034604	0.031004	0.136124	0.283790	0.058963	-0.162342	0.034738	0.038313	-0.060923	-0.167415	0.000887	0.098425	-0.134056	-0.174213	0.146517	0.005761	0.048218	-0.295622	-0.176529	0.067243	-0.156743	0.136988	0.133274	0.397191	0.320156	0.222392	-0.410660	-0.384225	-0.217344	0.039764	0.014834	0.042212	0.230952	0.107388	-0.045175	-0.468964	0.140367	0.049411	-0.111678	0.220124	0.130311	-0.235748	0.045897	-0.197611	0.011758	-0.043288	0.006454	0.416701	0.027246	0.151363	-0.090728	0.191310	0.078561	0.190358	-0.317167	0.421574	0.001967	-0.558689	0.160992	-0.674224	-0.111730	0.033012	-0.309753	0.135852	0.215602	0.241145	0.030145	-0.020824	-0.060495	0.116607	0.076692	0.025145	-0.000057	0.173869	0.047642	0.134212	0.150953	-0.178734	-0.174522	-0.445963	-0.031431	-0.355181	0.121043	0.132685	0.042411	0.063172	-0.151612	0.265189	0.073460	0.182558	0.265731	0.172832	-0.292641	-0.254349	-0.168339	0.165719	0.073796	-0.099143	0.092388	0.457055	-0.005135	-0.023558	0.100890	-0.635719	0.074093	0.144519	0.118594	-0.085254	-0.235373	0.030888	0.080730	-0.447497	0.111515	0.279686	-0.088779	0.065029	-0.220133	0.175420	-0.036046	0.187321	0.146321	0.095265	0.058321	-0.303521	0.075374	0.081338	-0.031348	0.290448	0.024527	0.109824	0.017017	-0.321968	0.072926	0.089320	-0.026281	-0.455229	-0.139866	-0.191548	-0.117514	-0.119441	0.212064	0.257375	-0.070080	0.276392	0.032968	0.281986	0.151743	0.117617	-0.344519	0.108792	0.038687	-0.264931	-0.033513	-0.204020	0.025619	-0.096156	-0.119241	0.023683	0.162040	-0.081799	0.160796	0.287120	-0.220534	0.218437	-0.045968	-0.175995	-0.005685	0.144853	-0.003293	0.020751	0.033487	0.278754	-0.028112	-0.305681	0.059123	-0.093671	-0.019664	0.198306	0.038314	-0.114563	-0.016908	-0.480162	-0.069239	0.114090	0.138906	0.347003	-0.066515	0.592244	0.021933	-0.243548	-0.242797	-0.445808	-0.005753	-0.033046	0.117054	-0.056715	0.119171	0.387134	-0.092950	-0.164034	-0.004678	-0.458016	-0.074664	-0.174856	-0.150904	-0.027426	0.113252	0.214575	0.059017	0.360819	0.010446	-0.330693	-0.091625	-0.055968	-0.140688	-0.146830	-0.038339	0.117683	0.034635	0.067467	0.028459	0.562752	-0.064190	-0.452951	0.035117	-0.251436	0.149510	0.346375	0.042149	-0.209538	-0.099402	-0.310308	-0.078755	0.009964	0.022632	-0.289444	0.017058	0.278881	-0.180570	0.642677	0.108732	0.130737	0.003866	-0.414024	-0.132619	-0.334735	0.242708	0.123781	-0.123488	0.116840	-0.078157	0.109215	0.068980	0.118743	0.113607	-0.221488	-0.124854	-0.077455	0.079828	0.281520	0.023825	0.173370	-0.041309	-0.045783	-0.065564	-0.360052	-0.112596	-0.015607	0.072867	-0.168658	0.117447	0.343886	-0.203947	-0.146312	0.261014	-0.403678	-0.201662	-0.275712	0.066358	0.151818	-0.018583	0.152325	-0.331969	-0.083733	0.178294	0.186133	-0.127167	0.125903	0.018793	0.151841	-0.031121	0.249093	-0.005863	-0.068844	-0.110809	-0.415917	0.062487	0.127247	0.116485	0.097985	0.174039	0.083803	0.057716	-0.362897	-0.200775	-0.306627	0.104814	0.411519	-0.030908	-0.325020	-0.052023	0.077506	0.038817	-0.103739	0.069298	0.264350	-0.053896	-0.226787	-0.022176	0.168587	0.327238	0.304925	-0.313608	-0.440871	0.056551	-0.189339	0.002758	0.142381	0.100239	0.329728	0.001007	-0.093668	0.122058	0.134564	-0.007992	0.183189	-0.141748	-0.388263	0.024441	-0.074180	0.098348	-0.297113	-0.050308	-0.155234	-0.019750	0.470194	-0.031536	0.178095	0.039457	-0.235727	-0.052815	-0.460697	-0.042142	-0.117597	0.045928	0.261945	0.352201	0.469087	-0.130570	-0.123476	-0.157704	0.193745	-0.009508	-0.240105	0.134515	-0.027439	0.002364	0.344281	0.067234	0.005705	0.005131	0.007061	-0.181433	0.166450	0.029211	0.144652	-0.242282	-0.386772	0.172987	-0.223651	0.090881	-0.100999	-0.184375	0.023955	-0.095746	0.068688	0.219403	0.243893	0.157263	-0.224367	-0.117406	-0.050782	0.015238	0.378858	-0.106971	-0.005432	0.021779	-0.435987	-0.070344	0.115187	-0.018455	0.189867	0.224836	0.047311	-0.098027	0.119510	0.037659	0.171818	0.069858	0.072101	-0.022787	-0.367133	0.020882	0.096074	0.071912	0.002499	-0.101379	-0.220346	0.058331	0.020784	-0.178745	-0.213340	0.070573	0.015925	0.083680	0.142671	-0.025105	0.212219	0.028468	0.360615	-0.020020	-0.243949	0.041368	-0.231051	0.015041	-0.392861	-0.033949	-0.047192	0.005550	0.015409	0.110604	0.273490	0.014214	0.131060	0.068225	0.245403	0.071688	0.172351	0.169119	0.250789	-0.102992	0.224708	-0.037663	-0.323777	0.115028	-0.289914	0.026435	0.182009	-0.189020	-0.218399	-0.055957	-0.405112	0.299714	-0.068876	-0.362062	0.607383	0.096607	-0.424155	0.214969	-0.224332	-0.235897	-0.060206	0.022870	0.422355	-0.027050	0.173640	0.174905	-0.200095	0.025315	-0.127492	-0.011729	-0.008191	-0.100085	-0.116929	-0.062363	-0.032149	-0.110852	0.291043	0.103025	0.308331	0.196164	-0.114413	-0.244660	0.228914	-0.048942	-0.152420	0.020259	-0.216984	0.050559	-0.313048	0.000764	0.309374	-0.186419	0.054285	0.166242	0.278596	0.110241	0.225956	-0.131071	-0.633211	-0.182904	0.110482	-0.007726	-0.418888	0.053560	-0.040408	0.152524	0.299727	0.182291	0.046007	-0.301472	0.403442	-0.040405	0.085044	0.130034	-0.362126	0.035335	0.061514	0.072574	-0.288378	-0.264663	0.098499	0.126196	0.193898	0.257248	0.407000	-0.128489	0.177144	-0.167899	0.015096	-0.071405	-0.707191	0.088304	-0.007780	-0.065851	0.108937	0.091190	-0.081885	-0.005993	0.132928	-0.028802	0.327074	-0.060496	-0.230883	-0.005650	-0.262027	-0.032661	0.208564	0.000914	0.063310	0.085152	-0.106984	-0.098731	0.128748	0.109367	-0.256031	-0.120949	-0.104162	-0.003973	-0.003329	-0.157116	0.411100	0.048579	0.219441	0.109424	-0.100831	0.047718	-0.140842	-0.013852	0.045700	-0.110545	0.195378	-0.083385	-0.302580	0.168410	-0.303617	-0.143904	0.109027	-0.057780	0.427584	-0.024065	0.134188	0.016154	-0.576006	0.156726	0.146195	0.071202	-0.004832	-0.021369	-0.287227	0.115733	-0.305424	0.218888	0.029710	-0.358157	0.242952	-0.252475	0.103823	0.090722	-0.015565	0.206466	0.181452	-0.078286	0.190845	-0.057632	-0.049762	0.077927	0.129289	-0.066492	-0.274794	-0.081467	0.072823	-0.022579	-0.174049	0.022290	0.444871	0.040630	0.199812	0.156185	-0.765456	-0.243085	-0.205959	-0.065709	-0.033646	0.079845	0.211632	-0.099944	0.125419	-0.025128	0.155116	0.042970	0.566355	0.022610	0.077160	0.060890	-0.603051	-0.090346	-0.474703	0.020161	-0.347120	-0.046643	0.294416	0.006270	0.352131	0.131721	0.159177	-0.127824	0.146156	-0.016516	0.107159	-0.111623	-0.152523	-0.149259	0.189567	-0.025056	-0.166061	0.432106	0.171250	-0.293808	-0.890527	-0.037728	-0.061645	-0.046464	0.065048	0.050244	0.002766	0.046090	0.345583	0.024135	0.124110	0.127455	-0.073175	0.164183	-0.151696	-0.262535	0.113293	0.190770	0.347997	-0.123887	-0.042510	-0.015299	-0.497849	-0.019004	-0.248293	0.002641	-0.036183	0.156014	0.401826	0.059843	0.142563	0.016957	-0.151792	0.120974	0.103534	-0.128644	0.092192	0.038203	-0.559507	0.025955	0.378718	0.072786	0.247316	-0.100274	-0.831951	-0.027231	-0.300945	0.182200	0.096837	0.043926	0.198437	-0.070204	-0.111978	-0.107794	0.267469	0.225926	0.057163	-0.284266	-0.080661	-0.000203	-0.059966	-0.074856	0.464112	0.009286	-0.339768	0.076535	0.154621	0.142930	0.199730	0.038502	-0.296884	-0.067231	-0.371819	-0.083579	-0.475500	0.138113	0.151540	0.243527	0.236265	-0.294892	0.134543	0.091864	0.473685	-0.077688	-0.443972	-0.303934	0.268792	-0.025402	-0.139687	-0.056653	-0.629634	-0.059215	-0.210777	0.136396	0.166706	-0.106028	0.003565	0.082700	0.127922	0.193970	0.217680	0.390078	0.407038	-0.256453	-0.191381	-0.260352	-0.415069	-0.064248	-0.003469	0.013287	0.774875	0.138068	-0.338168	0.128163	-0.416882	-0.010692	-0.365145	0.103016	-0.275801	-0.003833	0.389649	0.159059	0.727904	-0.114066	-0.094280	-0.095033	-0.130723	0.118392	-0.033499	-0.003837	0.129180	0.117494	-0.111864	0.024973	-0.481686	-0.111928	0.043549	-0.120383	0.358262	-0.063156	-0.141037	-0.049478	-0.113772	-0.016683	0.248040	0.022748	-0.125716	0.079178	0.426782	0.351133	0.099998	-0.104155	-0.204374	-0.176553	-0.453891	0.022970	0.277053	0.030062	0.075054	0.136955	0.115421	0.088693	0.105986	-0.338341	-0.736466	-0.217397	0.160629	-0.035380	0.307529	-0.129882	0.121068	0.136614	-0.196454	0.077332	-0.085461	0.071741	0.049868	0.049911	-0.081574	0.006864	0.090137	-0.084331	-0.113880	-0.011361	0.021342	-0.127386	-0.139445	0.180940	0.241125	-0.277110	0.326198	0.060918	0.409781	0.047888	-0.486650	-0.201326	-0.391436	-0.066886	-0.265103	-0.147398	-0.095107	-0.107252	0.022414	0.029402	0.693986	0.166136	-0.013040	0.037468	-0.544379	-0.153101	-0.106170	0.057134	0.074676	-0.214777	0.027874	0.059208	-0.094678	-0.074730	0.420131	0.052408	0.217712	0.065603	-0.228329	-0.063047	0.100320	-0.106276	-0.148038	-0.050831	0.136707	-0.035408	0.185517	-0.084711	0.283154	0.125877	0.132689	-0.154768	-0.192170	0.158068	-0.903458	-0.010742	0.048579	0.026500	0.161428	-0.105085	-0.100088	0.020978	0.272350	-0.021600	0.051664	0.082284	0.447190	0.144388	0.081884	-0.197880	-0.460236	0.068088	-0.117105	-0.017243	0.279999	0.057476	-0.375508	0.119929	0.170761	-0.159961	-0.060470	-0.012961	0.197015	-0.062234	0.435818	0.293241	-0.271360	-0.049100	0.020828	-0.259472	-0.170033	0.048544	0.263648	0.024200	-0.262385	0.040042	-0.076100	-0.290064	0.239445	0.030036	-0.039593	0.089410	-0.105424	0.260184	0.083810	-0.151603	0.015356	-0.040117	-0.170985	-0.128204	0.237865	0.005941	0.371900	0.030896	-0.500830	0.073306	-0.118467	0.194026	0.383754	-0.159321	0.326376	0.034407	-0.455034	0.025299	-0.570238	-0.041174	0.228248	0.078774	0.364193	0.248308	0.097144	-0.122826	-0.038426	-0.036232	0.258433	0.030626	-0.230239	0.010377	0.093589	0.009879	-0.162197	-0.122062	-0.212142	-0.087051	0.358921	-0.007588	0.224058	-0.067548	-0.208013	0.122319	-0.011113	-0.160920	0.150483	-0.035666	-0.487808	0.062368	-0.078296	0.030329	0.282895	0.116658	0.060760	0.106118	0.388532	0.098322	-0.214931	0.075785	-0.034695	-0.171915	0.483477	-0.149412	0.241820	0.079717	-0.665182	0.056676	-0.524281	-0.071169	0.361312	-0.034177	-0.171623	-0.231172	0.146208	0.093744	0.149646	-0.170738	-0.102550	-0.105677	0.269625	0.177257	0.206190	0.008131	-0.120778	0.132351	-0.210840	-0.137345	-0.105561	0.015007	0.148717	0.050676	0.498342	0.041192	-0.214455	0.149895	-0.413926	-0.069097	-0.037386	0.054750	-0.091619	-0.009646	0.082317	-0.022340	-0.066973	0.017983	-0.159726	-0.285780	0.438933	0.040867	-0.016306	-0.022505	0.047047	0.049837	-0.272865	0.019058	0.151474	0.202010	-0.075408	-0.000775	-0.150223	-0.052533	0.001691	0.177271	0.454323	-0.283177	-0.411173	0.290755	-0.037143	0.097422	0.352821	-0.143090	-0.202245	-0.198357	-0.194399	-0.000514	0.058362	-0.033384	0.191366	0.040585	0.180706	0.027280	-0.430360	0.066739	0.143252	0.069655	-0.380071	-0.064359	0.061945	0.054483	0.188411	-0.088290	0.275434	-0.035684	-0.164018	0.098625	0.021913	-0.072335	0.089664	0.067526	-0.528196	-0.224769	-0.036578	0.053612	0.153139	0.129898	0.114500	0.093750	0.590815	-0.199805	-0.219431	-0.011911	-0.153284	0.076732	-0.416893	0.074265	-0.147957	-0.048960	0.155024	0.056048	0.017131	0.101632	-0.164699	-0.077800	0.010436	-0.006367	0.002667	0.062818	0.184429	0.036647	0.113074	-0.167661	0.075923	0.126436	0.370547	-0.129592	-0.275194	0.089458	0.090239	0.023256	-0.320593	-0.142514	-0.093046	0.054072	0.273025	0.142522	0.385142	0.064817	-0.355482	-0.202172	-0.554144	-0.131271	-0.114174	-0.008937	-0.284765	-0.106033	0.570550	0.034345	0.289465	-0.018570	0.023347	0.314575	-0.313705	-0.057779	-0.038379	-0.113060	-0.098510	0.018239	-0.345822	0.017938	0.115194	0.057221	0.437973	0.072845	-0.043380	-0.019073	0.280942	-0.280158	0.279809	0.190535	-0.129123	-0.141452	-0.279577	-0.145434	-0.730375	0.073300	-0.106320	0.029695	0.464993	0.326621	0.228059	-0.297546	-0.081877	-0.099838	-0.146203	-0.057109	-0.008246	-0.088846	0.694786	0.236410	0.500555	-0.124410	-0.950737	0.086600	-0.345387	-0.035561	0.103427	0.023223	0.189975	0.083238	0.339641	0.057523	-0.121747	0.034228	0.287335	0.034871	-0.505030	-0.008758	0.514063	0.135431	-0.113467	-0.059996	-0.250757	0.288897	-0.483510	-0.357788	-0.113320	-0.496259	0.161287	-0.060045	-0.062502	-0.036832	0.154660	0.025458	-0.196433	0.012340	0.427092	-0.032642	0.222641	0.131360	-0.266187	0.363220	-0.457549	-0.439010	0.283858	0.005091	0.048448	0.057253	-0.324577	0.068568	-0.189438	-0.009837	0.165304	0.119382	0.430759	-0.069329	0.259103	0.104623	0.059134	0.041728	-0.317895	0.098441	-0.099947	0.036685	0.068577	-0.061802	-0.229254	-0.195012	-0.452894	-0.105982	0.418243	-0.023334	0.247492	0.196193	-0.122269	-0.142098	0.129990	0.055723	-0.266650	-0.035750	-0.075751	-0.084622	0.323657	0.127834	0.375130	0.109962	-0.759850	-0.180598	0.099933	-0.040292	0.213379	0.101344	0.177978	-0.020514	0.466364	0.178500	-0.593952	0.046913	-0.087177	-0.151544	-0.132515	0.057146	0.134301	-0.145675	0.441624	0.263020	-0.026175	-0.159704	-0.264782	-0.251276	-0.399985	0.150892	-0.058968	-0.097061	0.495965	0.253806	0.363640	0.092211	0.224341	-0.434469	-0.989663	-0.051053	-0.541003	0.007453	0.524702	0.059432	0.754287	0.045599	0.012260	0.033751	-0.097905	0.229524	-0.055857	-0.281387	-0.319857	-0.098464	0.241847	0.084436	0.819042	-0.051987	0.011162	0.141563	0.358354	0.045810	-1.000101	0.038763	-0.496092	-0.256243	-0.059202	-0.096136	0.843309	0.109229	0.495197	0.331418	-0.222495	-0.269474	-0.466709	-0.153603	-0.126283	0.057621	0.180464	0.323384	0.103945	-0.263636	0.471989	0.048844	-0.852452	-0.205121	0.160083	-0.077859	-0.179596	0.111746	0.358915	-0.113349	0.804719	0.090910	-0.545250	0.098117	-0.320868	0.102791	0.067175	0.112311	-0.185716	-0.129609	0.543813	0.054574	0.163100	-0.089628	-0.600610	-0.083374	0.552938	0.219093	-0.636079	-0.004668	-0.507480	-0.196503	-0.444233	-0.014809	0.262821	-0.054398	0.680571	0.138642	0.168965	-0.016074	0.102865	0.084713	-0.102195	-0.067651	0.147962	0.002443	0.204178	-0.180206	0.033489	0.018579	-0.674193	0.099962	0.037366	-0.046097	0.005407	0.061984	0.074841	0.054492	0.019147	0.000595	0.046050	-0.004482	0.047754	0.008159	0.019420	-0.036720	-0.003691	-0.001325	0.014682	-0.033816	-0.017567	0.026972	-0.040273	-0.009311	-0.006541	0.015156	0.094323	0.001904	-0.054141	-0.031823	-0.011019	-0.001052	-0.021650	0.001833	0.022711	-0.021441	-0.049464	0.004888	0.194838	0.009221	-0.060379	-0.015066	-0.160502	-0.069326	-0.146750	-0.006634	-0.017553	-0.019045	0.014578	0.028452	0.021664	0.018184	0.030697	0.011166	0.033766	-0.018156	-0.001420	-0.004681	0.007844	0.011731	0.013078	0.002273	0.013336	-0.007549	-0.012709	-0.008923	0.038811	0.011951	0.018163	-0.059651	-0.025100	-0.011666	0.041552	0.058590	0.055235	-0.014109	-0.020603	0.019572	-0.125664	-0.084001	-0.048333	0.032956	-0.001650	-0.004390	-0.001433	-0.008346	0.014405	0.012657	0.031744	-0.005678	0.016199	-0.005365	0.006572	0.027615	-0.003166	-0.000491	0.030136	-0.010623	-0.006518	-0.004752	-0.010171	-0.009309	0.088570	0.008519	-0.051527	-0.004353	-0.033096	-0.012876	-0.029171	0.009616	-0.011216	0.004907	0.008478	-0.027917	0.012070	0.014151	0.010730	0.011961	-0.000479	0.006508	0.008289	0.002735	0.015615	-0.000061	-0.011608	-0.000424	-0.000849	-0.009442	0.006886	0.007512	0.016598	0.015372	-0.029186	0.003785	-0.000620	-0.003830	-0.001307	-0.053571	-0.020701	-0.002972	-0.016173	-0.033854	0.004501	0.018301	-0.008383	0.001993	0.010881	-0.003050	0.025437	0.030877	0.010109	-0.004429	-0.031702	0.014144	-0.015624	-0.037268	-0.034768	-0.023655	-0.000105	-0.007153	-0.002865	0.000875	0.008880	0.009256	0.011326	0.005881	0.010199	-0.014393	-0.002107	0.040368	0.013927	-0.014234	-0.004908	-0.005059	-0.014627	-0.006481	0.008046	0.004910	0.004889	-0.019840	-0.016325	-0.009733	0.004017	0.016894	0.000955	0.008691	-0.006901	-0.016154	0.000471	0.002185	0.011706	0.001299	0.004913	-0.000118	-0.014417	0.031925	-0.000483	0.004483	0.007389	-0.020911	-0.012833	0.010269	-0.005678	0.001261	-0.011091	-0.023393	0.003676	-0.009145	-0.001348	-0.021616	0.013959	0.012188	0.023477	-0.009583	-0.016135	0.024640	-0.028742	-0.008109	0.008785	0.010306	0.002337	-0.018384	0.012239	0.002300	0.007334	-0.011880	-0.017452	-0.011670	-0.008376	-0.008030	0.010433	0.001563	0.026716	0.018153	-0.008484	0.001412	-0.005749	0.003331	0.003928	0.002278	0.000099	-0.003939	-0.006140	-0.002020	0.009243	-0.028006	0.007362	-0.016914	-0.007221	0.010815	-0.011765	-0.021079	0.015380	0.012192	0.011340	0.027638	-0.022627	-0.022242	0.022144	0.008514	-0.011250	0.007920	-0.031806	0.013578	-0.005388	-0.017627	0.045041	0.013064	0.019831	0.021349	-0.017018	-0.028195	-0.025839	0.032949	0.015995	-0.012852	-0.019353	0.000942	0.019370	-0.003322	0.010339	-0.019900	-0.003344	-0.013179	-0.006455	0.039420	0.042807	0.019762	0.033689	0.000196	-0.046161	0.045025	-0.017168	-0.004596	-0.007752	-0.034685	-0.011047	-0.021253	0.008779	-0.014979	0.016784	-0.023912	-0.005895	0.040749	0.000055	0.011559	0.002454	-0.016120	0.005326	-0.012950	-0.006813	-0.011441	-0.001798	0.073154	0.004187	-0.027404	-0.025809	0.036775	-0.014952	0.013100	0.016894	-0.029100	-0.007192	-0.025418	0.006193	0.024347	0.025057	-0.010658	0.025871	0.032425	-0.045940	-0.029329	-0.017377	0.012290	-0.000251	-0.069882	-0.003900	-0.015266	-0.018227	0.018158	0.011056	0.061991	0.014852	-0.022463	-0.010141	-0.010012	0.006233	0.011848	-0.025766	0.023009	0.010864	0.007602	-0.006451	-0.028114	-0.005014	-0.049551	-0.010996	0.006563	-0.019691	-0.028347	-0.010882	0.015977	0.016600	-0.002718	0.004122	0.009262	-0.002653	-0.036000	0.014333	0.040322	-0.003444	0.003723	0.007233	0.084914	0.011192	-0.053709	-0.005920	0.100826	-0.005551	-0.017629	-0.003879	-0.299377	0.024971	0.042898	-0.043813	-0.030907	-0.030938	-0.022960	0.003383	0.012909	0.018391	-0.012538	-0.053703	-0.000477	0.001257	0.054349	0.031339	0.010681	0.028906	0.040609	0.018322	-0.003997	0.131258	0.054628	-0.128609	-0.001322	0.047956	-0.020686	-0.089267	0.011627	0.320783	0.159475	-0.192380	-0.021313	-0.080042	-0.065346	-0.437867	-0.329140	-0.229047	-0.121508	-0.005777	0.184341	0.429027	-0.473260	0.194717	0.019415	0.081162	0.235272	-0.001819	-0.262339	0.242223	-0.022523	-0.052505	0.020942	-0.395493	0.250749	-0.566230	0.044530	0.084983	0.068048	0.319741	0.068344	0.143410	0.327629	0.344316	-0.237237	0.024487	-0.327782	-0.200466	-0.025064	-0.157605	0.305855	0.239466	0.206113	0.491010	-0.410518	-0.249734	-0.106214	-0.142207	-0.511706	-0.359629	-0.079626	-0.416121	-0.037585	0.145794	0.280239	-0.105129	0.041884	0.097137	0.104010	0.155176	0.037694	0.256541	-0.096958	0.013653	-0.111695	0.045711	0.056091	-0.102118	0.115251	0.095459	0.034618	0.203871	-0.432555	-0.309330	0.216535	-0.134142	-0.115521	0.451959	0.029521	-0.775348	-0.479367	-0.186702	0.549580	0.733582	-0.134678	-0.703614	0.041010	0.207511	-0.222550	-0.118251	-0.003758	0.712709	0.245691	-0.042308	0.081324	-0.382663	0.198661	0.026126	-0.090360	-0.001129	-0.008813	-0.222548	0.055177	0.210561	0.281513	0.192880	0.240295	0.041655	-0.448787	-0.340551	-0.215574	-0.264719	-0.275914	0.110883	0.246107	0.008669	-0.391527	-0.530811	0.364443	0.124283	0.513348	0.148591	-0.136395	-0.017539	-0.432205	0.484883	-0.165199	-0.309805	0.274095	0.627949	-0.021026	-0.574488	0.036373	-0.370940	0.039847	0.138275	0.017264	0.398907	0.288995	0.272465	-0.183778	-0.055109	0.124790	-0.350948	0.093137	-0.114561	-0.192854	0.194130	0.004095	0.287677	0.571586	0.135660	-0.242021	0.293825	-0.718887	-0.254535	0.061349	-0.666441	0.231967	-0.453441	-0.235993	0.239211	-0.220098	0.505436	0.147259	-0.143169	0.502664	-0.253812	-0.605973	-0.261824	0.032813	0.320542	0.021597	0.465548	0.197511	0.032392	0.069478	0.009231	0.083109	-0.043868	-0.139925	0.017139	0.179643	-0.615351	-0.146914	0.188088	-0.075571	0.167164	0.058180	0.053338	0.232782	0.762313	0.434499	-0.861652	-0.577639	0.028240	-0.231470	0.299399	-0.180064	-0.255686	0.058687	-0.335246	0.069180	-0.057843	0.101893	-0.079268	0.467960	0.462481	-0.211622	-0.146003	-0.193009	-0.088385	0.287285	0.215758	-0.430078	-0.147644	0.099982	0.048925	0.031102	0.456309	0.152248	0.388709	0.214280	0.283795	0.025850	-0.528651	0.040986	-0.499921	-0.147346	-0.047798	0.232253	0.148063	0.476882	-0.039925	-0.763531	-0.027402	0.027139	0.397134	-0.042216	0.123097	0.540401	0.158990	-0.187798	-0.729740	-0.213987	-0.306996	-0.139099	0.131472	-0.307333	0.343644	0.278828	0.332224	-0.109481	0.445029	0.423438	0.269794	-0.102037	0.216499	0.080909	-0.014648	-0.261411	-0.449616	0.089996	-0.072914	0.079246	0.335732	0.293953	-0.381185	-0.207107	-0.390130	0.069026	-0.306733	-0.100451	0.969262	0.309091	0.409149	0.322205	-0.105440	-0.373017	-0.851817	-0.499766	-0.210019	0.293729	-0.180188	-0.430142	0.284791	0.144819	0.423565	0.247927	-0.078434	-0.308873	0.029108	0.138172	0.037897	-0.015861	0.402000	0.153657	0.382174	0.201572	0.090906	-0.079167	0.404074	-0.078634	-1.000101	0.296574	-0.315734	0.205302	-0.406320	-0.687999	-0.321615	-0.233913	0.554149	0.241063	0.617566	0.432642	0.679111	-0.315276	0.431562	0.330917	-0.505852	-0.315885	-0.905703	-0.644375	-0.067110	0.031247	0.398326	0.322095	0.522564	0.670399	0.481794	-0.692984	-0.114420	0.036392	0.143731	0.120224	0.044856	0.081030	0.500469	-0.000380	0.220909	0.142787	0.015041	0.203039	-0.845468	0.092119	-0.342223	0.033894	0.109513	-0.291374	0.488476	0.132452	0.387548	-0.341449	-0.753279	-0.582800	-0.794376	0.027289	0.130524	0.075692	0.475444	0.109678	0.383540	0.184523	0.135809	-0.018164	-0.236600	0.092402	-0.037924	0.084230	0.323990	0.113139	0.428957	0.024441	0.047791	0.236289	-0.351638	0.077301	-0.593232	-0.280396	0.393357	0.135804	0.974861	0.209688	0.518131	-0.481607	-1.000101	-0.284232	-0.254567	0.315432	-0.111341	0.187977	-0.460048	-0.181506	-0.188550	-0.223398	0.688791	0.152288	0.467989	0.113827	-0.020064	0.108407	0.159094	0.106242	0.208580	0.179241	0.112639	-0.117538	0.065310	0.038257	0.019197	-0.103483	0.202593	-0.005476	0.502066	0.360314	0.353212	-0.284861	-1.000101	-0.432099	-0.937621	-0.394558	-0.797791	0.140488	0.982607	0.353478	0.534246	-0.195663	-0.247384	-0.030037	-0.524958	-0.116920	0.221322	0.057617	0.103753	0.179983	0.032946	0.645446	0.015101	-0.708298	0.342496	-0.077415	0.043731	0.021666	0.142992	0.054423	0.006629	0.108509	0.052742	0.119849	0.366393	0.274879	0.716988	0.211739	-0.509967	-0.375706	-0.470665	-0.029633	-0.443156	-0.117123	0.056394	-0.008465	-0.092739	0.048005	0.489588	0.202077	-0.143389	-0.120801	-0.604956	-0.172893	0.131882	0.387115	0.166604	0.353480	-0.658545	-0.298407	0.085544	0.056166	0.835868	0.119924	0.122496	-0.055638	-0.141272	0.283678	0.246951	-0.230746	0.011607	0.014249	0.314426	0.243669	0.199577	0.037650	-0.154845	-0.298216	0.173053	0.049476	-0.641276	0.090104	0.018953	0.176138	0.589302	0.050367	-0.456433	0.205441	0.363054	0.025823	-0.406044	-0.546440	0.024010	0.001023	0.296753	0.357645	0.333303	0.052198	-0.017206	-0.265809	-0.911056	-0.097652	0.171818	0.096519	0.467515	-0.021448	0.369184	-0.043152	-0.239527	0.139568	0.124741	0.016043	0.264553	0.234321	-0.005046	-0.510154	0.005803	0.056302	0.154367	0.035612	0.426596	0.115740	0.518620	0.450713	-0.727262	-0.070085	-0.008960	-0.359362	-0.933274	-0.296185	-0.531842	-0.020032	0.302381	0.101549	0.053100	0.189180	0.589158	0.567068	0.676520	-0.097615	-0.995248	-0.192036	-0.378173	-0.384642	0.388579	0.201856	0.381824	0.124122	0.133155	-0.099943	0.200945	-0.032270	0.209600	-0.038144	0.036095	0.061370	0.071315	0.138494	0.465752	0.304564	0.432851	0.051731	-0.213342	-0.003690	-0.942540	-0.507061	-0.469620	-0.051717	0.062799	0.389728	0.179958	-0.281982	0.882693	0.712287	0.322143	-0.432258	-0.602700	-0.456094	0.034627	0.106562	-0.597009	-0.023032	-0.131103	0.478246	0.314617	-0.129003	0.171437	0.076411	0.453582	-0.129064	-0.054737	0.194830	0.162819	-0.182949	0.187372	0.122053	0.069857	0.302536	0.051870	-0.374207	0.378189	0.097832	0.056400	0.205655	0.099665	-0.399412	-0.841223	0.083733	-0.633736	-0.214646	0.321112	0.323036	0.180367	-0.337597	-0.055323	0.058332	0.094725	-0.240925	-0.357891	-0.094223	-0.307758	0.238821	0.226396	0.065188	0.054089	-0.306669	0.183978	0.132068	0.406859	0.033069	0.263179	0.166966	-0.014939	-0.047946	0.092321	0.082443	0.133509	-0.028794	0.337106	0.038352	0.363164	0.143051	-0.173007	-0.271974	-0.317414	-0.128421	-0.379700	0.062931	-0.036635	0.313014	0.397196	-0.389026	-1.000101	-0.469168	-0.725492	0.162144	0.523522	0.117544	0.476335	0.568328	0.171078	0.106756	0.142867	-0.339384	-0.377665	0.058342	0.154860	-0.030104	-0.110481	0.098191	0.126053	-0.066141	0.156507	0.140630	0.299645	0.201334	-0.037635	0.037122	0.368462	0.074591	0.377560	-0.175106	-0.243102	0.333743	-0.164328	0.168810	-0.279015	-0.243614	-0.944561	-0.693615	-0.803603	0.254164	0.329284	-0.382555	0.926134	0.250978	0.262973	0.318437	-0.169248	0.067725	-0.330027	-0.144553	-0.575859	-0.113249	0.204236	-0.051232	0.669631	0.528822	0.301607	-0.441217	-0.517695	0.037510	-0.455542	-0.158211	0.443419	0.081274	0.458875	0.157667	0.164675	0.051494	0.117811	0.172569	-0.630520	-0.093035	-0.726369	-0.234576	0.206283	-0.133783	0.616310	0.423374	0.604921	0.024037	-0.687042	-0.377474	-0.910789	-0.115680	0.496158	-0.246666	0.921560	0.542494	-0.261386	0.320574	-0.972304	-0.585576	0.095454	-0.269951	-0.069370	0.085073	0.344026	-0.087140	0.376540	0.364111	0.853704	0.225986	-0.618542	-0.451162	-0.033735	-0.160482	-0.185282	0.084433	0.189489	0.083198	0.043727	0.136157	0.982104	0.165754	-0.117822	0.274593	-0.410408	-0.491653	-0.668754	-0.110759	-0.045401	0.329486	0.066464	-0.091776	0.356025	-0.226232	-0.181069	0.019879	-0.173174	0.095452	0.685781	0.327703	-0.463147	-0.006771	-0.490859	-0.365129	0.219697	0.104611	0.440518	-0.013965	0.298988	0.101950	0.308145	0.520458	-0.167718	-0.770573	0.137353	-0.017543	-0.016757	0.086669	0.219133	0.258772	0.448742	0.335313	-0.090848	-0.355114	-0.790450	-0.440005	-0.642588	-0.113799	-0.398268	0.051357	0.036111	0.299366	0.392883	-0.061392	0.470925	0.114115	-0.227194	-0.273201	-0.343458	-0.001160	-0.039137	0.176261	-0.333904	-0.001728	0.579334	-0.067719	-0.156722	0.137912	-0.191539	0.142042	-0.313363	-0.298422	0.260209	0.162914	0.065384	-0.018558	0.213730	0.254893	0.684129	-0.035853	0.119385	0.006147	-0.543379	-0.074706	-0.504330	0.020854	-0.898293	-0.140376	0.617223	0.185847	-0.569485	-0.373655	0.270024	0.132588	-0.259532	-0.027392	-0.082884	-0.219818	0.326851	0.241771	0.327685	0.237894	-0.188321	-0.027067	-0.162622	0.139097	-0.080482	-0.227266	-0.365806	0.229750	0.108394	0.090072	0.345182	-0.078699	-0.094314	-0.095949	0.084242	-0.279458	0.293984	-0.091783	0.345026	0.171078	0.637052	-0.182570	-0.909057	0.502924	0.403266	-0.439164	-0.255710	0.144285	-0.222416	-0.350154	-0.335931	0.297385	0.410682	0.358229	0.232485	-0.542181	-0.097453	-0.174733	0.106072	0.148125	0.412857	0.282904	-0.158568	-0.118958	-0.559850	-0.057795	-0.387780	-0.090461	0.193652	0.157021	0.220731	-0.336850	0.261207	0.005371	0.377493	0.274002	0.665107	-0.052273	-0.747780	0.227164	-0.043540	-0.052423	-0.111323	-0.273279	0.278683	-0.097571	0.094130	0.453595	-0.280823	0.059845	-0.259510	-0.022148	-0.209806	-0.252566	-0.290593	0.080501	-0.660098	0.342753	0.919955	0.187874	0.455941	-0.473220	-0.612159	-0.051346	-0.181726	-0.068614	-0.627824	0.057671	0.326830	0.115994	0.474841	0.194492	0.500305	0.409467	0.178547	-0.223930	-0.047686	-0.156831	0.065749	-0.145609	0.014497	-0.368047	0.121367	0.144826	0.549291	-0.040005	-0.009762	0.205974	-0.135326	0.058064	-0.811339	-0.320626	-0.968337	-0.202956	-0.170919	0.137781	0.999899	0.320953	0.652012	-0.314777	-0.250447	0.014900	-0.650093	0.125660	0.479152	0.277688	0.398059	-0.196228	-0.131597	-0.119454	-0.238373	-0.018764	0.435621	0.336468	0.213183	-0.379816	-0.551287	0.272354	-0.040838	-0.229688	0.167174	0.092816	0.277042	-0.067541	0.108142	0.087296	0.114707	-0.096235	-0.906188	-0.016460	-0.033507	0.252098	-0.185946	0.153334	0.304199	-0.145261	0.063345	-0.282394	-0.360465	0.120077	0.938807	-0.059559	-0.348941	0.064688	-0.984426	-0.175992	-0.402442	-0.115219	0.385484	0.244526	0.292997	-0.006130	0.041328	0.013100	0.367776	0.219320	0.242159	-0.207464	0.161176	0.472287	0.044857	-0.482492	-0.253564	0.012453	0.504073	-0.055850	0.057121	-0.116880	0.113343	0.050350	-0.412348	0.605335	-0.918193	-0.665462	-0.297240	0.185138	0.018835	0.049758	0.173634	-0.207336	0.504542	0.221916	0.905803	-0.006277	0.677989	-0.326918	-1.000101	0.242746	-0.555464	-0.352183	0.004773	-0.005154	0.253577	0.077523	0.296715	0.118218	0.274947	0.375522	0.007124	-0.326587	-0.088487	0.005858	0.122204	0.093706	0.398825	0.054832	0.149884	0.283826	0.749694	-0.026071	-0.200277	-0.424941	-0.958285	0.040511	-0.831245	-0.202806	0.135977	-0.146963	0.043401	0.041050	0.342613	0.118549	0.590402	0.068124	0.771408	0.047676	-0.721800	-0.083691	-0.419943	-0.019086	-0.338976	0.246929	-0.180976	0.158978	0.398996	-0.439841	0.312495	-0.321238	0.091377	0.108490	0.228933	-0.025454	0.028720	-0.019116	0.168114	0.300317	-0.109424	-0.310951	0.279423	0.188400	-0.047188	-0.226761	0.425292	0.286811	0.191682	0.280637	-0.944335	-0.397791	-0.942644	-0.258592	0.358077	0.179009	0.019958	0.218549	0.146743	0.027544	-0.218260	-0.034019	0.907776	0.239954	0.694158	-0.098309	-0.919511	-0.330812	-0.438277	0.013305	0.090672	-0.060457	0.337731	-0.068421	0.282436	-0.077062	0.138598	0.243457	0.145435	-0.153069	0.479803	-0.227607	0.512394	-0.090524	-0.377039	0.111593	-0.430964	0.124725	-0.258261	0.033775	-1.000101	-0.351459	-0.357168	0.213997	0.423865	-0.006908	0.487476	0.294652	0.644679	-0.128401	0.256704	0.102278	0.108988	-0.228866	-0.361725	0.191751	-0.211830	0.236815	-0.371928	-0.502414	0.253947	0.072953	0.161935	0.192682	-0.058711	0.315559	-0.027471	-0.194229	0.323298	0.225476	0.016131	-0.108754	-0.189812	0.392566	0.113289	-0.432265	0.337971	0.201398	0.231540	0.249425	-0.605183	-0.250249	-0.266748	0.303533	0.211631	-0.172884	-0.708582	-0.169186	-0.127037	0.069539	0.439164	0.249532	0.312355	-0.420954	0.071115	-0.012696	-0.702788	0.208959	0.336400	0.040442	0.163085	0.071347	0.057125	0.230035	0.376002	-0.191396	0.296310	-0.024075	0.270254	0.012557	-0.155756	-0.126190	-0.082708	0.352660	-0.037842	-0.490283	-0.903163	-0.045960	0.502302	-0.144090	-0.399836	0.315413	0.130017	-0.022333	0.436102	0.124132	-0.795817	-0.073880	0.496741	0.074073	0.401763	-0.179743	-0.129980	0.390535	-0.822928	-0.249703	0.111827	-0.054185	0.144815	0.041790	0.266452	-0.106175	0.273777	0.375522	0.203885	-0.034138	0.104778	-0.079776	0.061782	-0.043418	-0.071566	-0.075820	0.522696	0.137011	-0.111985	0.431582	0.232741	-0.229701	-0.760499	-0.050887	-0.888989	0.038976	0.003337	-0.013778	0.514907	0.178810	0.669440	-0.104226	-0.448798	-0.406576	-0.554108	-0.040177	0.141367	0.381983	-0.461094	0.146509	-0.141988	-0.259259	0.563920	-0.057450	0.387657	-0.255749	0.233616	0.375869	-0.108347	-0.180879	0.006413	-0.036764	0.083084	0.115796	0.258255	-0.005698	0.359294	0.211663	0.068571	-0.203649	-0.670122	-0.115483	-0.111471	-0.120904	0.041308	0.259601	-0.436356	0.083779	-0.115202	-0.476575	0.512556	0.042726	-0.022204	-0.198117	-0.103879	-0.203184	-0.636597	0.423741	-0.218306	0.095527	-0.116938	-0.232913	-0.172748	-0.158312	0.405577	-0.053011	0.415424	0.127330	0.262058	-0.080446	0.413779	-0.041359	0.373663	0.277711	0.045566	0.002744	-0.403128	-0.212093	-0.505441	-0.150822	-0.299428	-0.149608	0.446006	0.248248	-0.533486	0.451975	0.287641	-0.386344	-0.774261	-0.253068	-0.272024	-0.433795	-0.941678	-0.089445	0.343981	0.015830	-0.038604	0.233300	0.931569	0.185898	0.688213	-0.080177	-0.604453	-0.309763	-0.216875	-0.181666	-0.355363	0.164082	0.322967	-0.047620	0.233113	0.351486	0.099889	0.211114	0.359640	-0.188393	0.053526	-0.221515	0.006576	-0.017183	-0.304034	0.063507	-0.029915	-0.112003	-0.505675	0.067532	-0.231947	0.016973	0.555304	0.038362	-0.980399	-0.058422	0.543051	-0.217579	0.496141	-0.073788	-0.458386	0.187293	-0.160836	-0.100761	0.388979	0.038058	0.204046	-0.085910	-0.584323	-0.404846	-0.036724	0.081796	0.435487	0.352189	0.298470	-0.143509	0.191403	0.038817	0.247077	0.091615	0.558215	-0.083881	-0.023116	-0.078896	-0.674876	0.033136	-0.002119	0.093968	0.191184	0.245989	-0.662153	-0.248052	-0.062913	-0.099232	0.524007	0.073271	-0.408860	0.265292	-0.130394	-0.109526	-0.412476	-0.212908	-0.233386	0.090101	0.160247	0.183758	0.244132	-0.142944	0.440948	0.120011	0.602782	0.327118	-0.460539	-0.394734	-0.364730	-0.031324	-0.106399	-0.085460	0.102609	0.132905	0.369715	0.520279	0.157803	-0.311851	-0.209906	-0.187959	-0.404370	0.163557	-0.284081	-0.342670	0.485592	0.001211	-0.357562	0.338813	0.230905	-0.070264	0.803360	0.215379	-0.308087	0.033051	-0.580807	-0.149928	0.137784	-0.071888	-0.170591	0.308700	0.358067	-0.030279	-0.547610	0.136169	0.215885	-0.244154	0.169917	-0.211401	0.609149	-0.001733	-0.094111	-0.137511	0.307229	0.220242	-0.434798	0.306887	-0.061013	-0.308295	-0.077940	0.022234	0.813050	-0.074660	0.013361	0.337005	-0.804548	-0.148574	-0.549247	0.153918	-0.440848	-0.439491	0.596336	-0.136158	0.898371	0.117203	-0.241733	0.162124	-0.410365	0.065446	-0.724055	-0.108976	0.192700	0.053496	-0.162457	0.346521	0.256249	-0.168674	0.397317	-0.043324	-0.028033	0.088959	-0.170378	0.023520	-0.019886	-0.372981	0.350848	0.125096	0.461240	-0.126033	-0.017192	0.069173	-0.310771	0.255276	-0.106871	-0.202708	-0.070269	0.063673	-0.238012	-0.018920	0.887287	0.227438	-0.396212	0.191835	-0.608356	-0.030388	-0.061375	-0.146800	0.807298	0.048711	-0.335353	0.203586	-0.027695	-0.173229	0.119184	0.284208	-0.969980	-0.232356	0.407236	0.116334	-0.037448	-0.196323	0.121202	-0.031044	0.108766	-0.079866	0.140438	0.165428	0.254481	0.012670	-0.094315	0.113015	0.259705	0.136961	0.152243	0.135664	-0.340352	0.176102	0.829303	-0.163361	-0.220428	-0.282577	-0.021062	0.276295	-0.832401	-0.072267	0.370233	-0.062192	-0.508017	0.200076	-0.099039	-0.404872	0.019095	0.037967	0.151056	0.129244	0.558006	0.096067	-0.585896	-0.052699	-0.753340	-0.346288	0.076494	-0.014821	0.406696	0.059026	0.384560	0.271417	0.045953	-0.346593	0.137797	0.166706	-0.022911	-0.014181	0.453097	0.242962	0.053114	-0.093679	-0.076318	0.126516	-0.355590	0.219967	0.515684	0.323400	-0.893144	-0.503303	-0.546436	-0.373476	0.669050	0.034550	0.588467	0.469259	-0.288763	-0.231525	-0.114993	0.198442	-0.116007	-0.373005	0.043654	0.056238	0.475690	0.385217	-0.301789	-0.262683	0.079609	-0.223346	0.236574	0.000296	0.319779	0.203242	-0.176296	0.316263	0.201258	-0.147476	-0.003054	-0.341430	0.807162	-0.151702	0.070411	0.102489	-0.868015	0.124824	-0.602975	-0.226742	-0.225205	0.238892	0.112034	-0.051760	0.047805	-0.107019	0.976413	0.082807	0.101636	0.265290	-0.275393	-0.033845	-0.655952	0.137297	-0.235855	-0.068388	0.189442	-0.081250	0.403812	0.231249	0.359545	-0.286287	0.281473	-0.006933	0.300839	0.628815	-0.201515	-0.474079	-0.461105	-0.254775	-0.041344	0.085038	0.140219	0.052329	0.596313	0.270956	0.507135	-0.045542	-0.367739	0.348928	-0.564187	-0.452221	-0.519519	-0.198292	-0.575991	0.038883	0.180666	0.078592	0.415608	0.287295	0.799341	-0.014690	-0.025701	0.116498	0.112889	0.345758	-0.901382	-0.567703	-0.029892	0.198630	-0.310614	-0.264987	0.458318	0.282869	0.208113	-0.209361	-0.210843	0.212641	-0.243380	-0.235549	0.075671	0.067139	-0.060060	-0.116194	0.276419	-0.021849	0.213930	0.230156	0.069477	-0.133298	-0.148974	0.034941	-0.019970	-0.084163	0.670878	0.064526	-0.432723	0.225026	-0.225680	-0.240824	-0.774403	-0.386351	-0.348505	-0.062776	-0.580873	0.234766	0.523590	-0.050682	0.763393	0.343529	0.507819	-0.041158	-0.854256	-0.154932	-0.240785	-0.109830	0.047724	0.259601	0.315703	-0.224528	0.566523	0.156798	0.294876	0.115445	-0.003605	-0.122732	0.010549	0.233850	0.082199	-0.156890	0.410876	-0.376733	-0.355446	0.146643	-0.383301	-0.177791	-0.251963	0.228962	-0.510120	0.070844	-0.084905	-0.377846	-0.307499	0.010382	0.211252	0.229748	0.847314	-0.006318	0.549567	0.056090	-0.302162	-0.042932	-0.908649	0.045983	-0.072213	0.123552	0.245679	-0.107702	0.338624	-0.042001	0.150494	0.121010	0.134008	0.039933	0.327053	-0.303242	0.212704	0.059273	0.003438	0.109322	-0.131970	0.152979	0.240391	-0.161432	0.153063	0.075400	-0.511312	0.130576	-0.360011	-0.486769	-0.420162	-0.015493	-0.039729	-0.093532	-0.137175	0.219135	0.781757	-0.094789	0.175805	-0.217891	-0.469781	-0.311936	-0.314500	0.277475	-0.141089	0.203980	0.316076	0.069703	0.058053	-0.190768	-0.118495	0.067675	0.107882	0.165681	0.212377	-0.396804	-0.217536	0.302617	0.026448	-0.215877	0.124657	0.111777	0.535782	0.172756	0.179353	-0.065468	-0.638185	-0.494859	-0.186841	0.005555	-0.411018	0.121959	0.052330	0.250238	0.296433	0.144097	0.234621	-0.153436	-0.130729	0.125788	-0.310230	0.139514	0.430822	-0.149472	0.180537	0.069150	0.057464	-0.201516	-0.250302	-0.166429	0.057057	0.399753	-0.066067	-0.029733	0.073950	-0.033768	-0.020682	-0.046897	-0.026727	-0.256708	0.158659	0.119346	0.261547	0.155787	-0.323162	0.136070	0.201663	-0.239597	0.053716	0.100781	-0.313903	0.183942	0.301642	-0.344257	-0.558133	-0.135188	-0.273258	-0.144931	-0.270504	-0.052587	-0.197799	0.042181	0.380445	0.046082	0.249202	0.062713	-0.315429	-0.209262	0.156545	0.091298	0.331340	-0.029759	-0.023104	0.085508	0.118691	0.163524	0.090681	-0.120530	0.003995	0.031735	0.028349	-0.165441	0.298643	0.073622	0.013722	0.037825	-0.365912	0.146377	0.410331	0.116532	-0.490101	-0.183193	-0.458186	-0.044863	0.263887	-0.052444	0.006311	0.313137	-0.228154	-0.160893	-0.016370	0.091921	-0.181864	-0.301035	-0.053642	-0.249729	0.181158	0.022692	-0.168154	0.034324	0.186166	0.145222	0.196411	0.217426	0.178252	0.059824	-0.036180	0.100044	0.366147	-0.338013	-0.234948	0.114615	-0.228673	-0.029539	-0.040469	-0.191284	-0.204589	-0.065911	0.059691	0.107473	0.512465	0.235697	-0.531351	-0.041366	-0.161531	-0.132406	0.024245	0.022882	0.401711	0.177926	-0.092909	-0.123836	-0.140520	-0.061324	-0.456948	0.000347	0.038840	0.092507	0.549402	0.279548	0.441664	-0.041066	-0.298397	-0.676180	-0.563779	0.001439	0.040224	0.055887	0.292509	0.103746	-0.064220	0.173444	0.329229	-0.152381	0.313806	-0.081632	-0.942858	0.119645	0.071612	-0.034960	0.147013	0.549165	-0.232906	-0.364821	0.149628	0.069752	0.339292	-0.095208	0.406812	-0.074883	-0.445371	-0.026846	0.224358	0.276044	-0.247411	0.002634	-0.487918	-0.053712	0.027764	0.006101	0.538955	0.264307	-0.277953	-0.249634	-0.166761	-0.196037	-0.005956	0.278300	-0.067945	-0.252265	-0.104456	0.118912	0.466434	-0.047554	0.572408	0.404772	-0.611611	-0.302424	-0.152693	-0.001792	-0.334387	0.082186	0.469084	0.169364	0.304937	-0.227633	0.271474	-0.094782	-0.205738	0.084778	-0.412901	-0.075309	0.415385	0.051558	0.342728	0.509018	0.727662	0.087785	-0.993104	-0.288967	-0.539374	-0.362510	-0.309637	0.153114	0.336512	0.141090	0.141385	0.252674	0.404015	-0.120425	0.340179	-0.364630	-0.182507	-0.069951	0.226389	-0.300872	-0.249480	0.237988	0.673733	0.325543	0.178962	-0.056764	-0.827493	0.329354	-0.677508	0.118180	-0.370453	-0.557325	0.169331	0.262808	0.967817	0.069635	0.883300	0.219604	0.583724	-0.547982	-1.000101	-0.392129	-0.941003	-0.134671	0.742690	0.140757	0.824156	0.964090	0.361686	-0.695392	-0.257932	0.101635	-0.189018	-0.153879	0.246606	-0.212144	0.158913	0.030093	0.202010	0.492439	0.886539	0.097571	-0.635407	-0.282377	-0.865138	-0.012560	-0.453443	-0.327471	0.276526	0.381963	0.542975	-0.131063	0.670145	-0.006965	-0.033956	-0.245143	-0.753862	-0.034449	-0.257983	0.505346	0.539627	0.350295	0.842124	0.193620	-0.418577	-0.622738	-0.302132	-0.273395	-0.833057	-0.058216	-0.058763	0.201786	0.546305	-0.022805	0.594229	0.556346	0.704474	-0.489705	-0.067230	0.380758	-0.676092	-0.105104	-0.272838	0.114718	0.897260	0.178623	0.762001	-0.028248	-0.897997	-0.161713	-0.436712	-0.684884	-0.833001	0.039771	0.286264	0.198094	-0.069457	0.759415	0.973371	-0.481440	0.655580	-0.143183	-0.207101	0.040807	-0.883054	-0.182156	-0.858151	0.094967	0.108643	0.221802	0.398855	0.247741	0.095488	0.054016	0.531056	-0.138763	0.306852	0.167040	-0.260814	0.013914	-0.125284	0.020672	0.104420	0.275223	0.938016	-0.236510	-0.603225	-0.204649	-0.879809	-0.414755	-0.823270	0.021746	0.035799	0.031554	0.598687	0.352953	0.762413	0.497360	-0.277209	-0.359481	-0.004760	0.046926	-0.104223	-0.320864	-0.382282	0.234873	0.203609	0.015595	0.289311	0.047197	0.355268	-0.331394	-0.348332	0.048512	0.499998	0.024255	-0.037132	0.122862	-0.472856	0.030296	0.493922	0.700311	0.591002	-0.387718	-0.357213	-0.291392	-0.400025	-0.376647	-0.172069	0.125567	0.036834	-0.079054	-0.059358	0.249487	0.390930	0.067389	-0.039442	-0.053035	-0.661549	-0.232305	0.392974	0.030145	0.297015	0.263858	-0.232204	0.132216	-0.255923	-0.190562	0.079826	0.458804	0.390936	-0.591231	0.310400	0.164150	-0.033320	0.081625	0.290699	-0.868265	0.367028	0.079765	-0.165752	0.425949	-0.144815	-0.134602	-0.363479	0.119588	-0.452752	0.005215	-0.467033	-0.025995	0.757387	0.175402	0.177195	0.337614	0.262397	-0.358089	-0.710451	0.030836	-0.394799	-0.077247	-0.526020	0.216579	0.489116	-0.586243	0.337617	0.194174	0.470572	0.223592	0.117052	-0.136573	0.186547	-0.000793	0.105011	0.051278	-0.175744	0.139596	-0.226452	0.126564	0.365667	0.061004	0.538547	-0.003773	-0.284152	0.507820	-0.893032	-0.488997	-0.227692	0.249460	0.037243	-0.413401	0.207929	-0.108807	0.129867	0.336004	0.708833	-0.093956	0.259481	-0.099224	-0.936325	-0.424430	-0.649701	0.148834	0.161285	-0.023458	0.283671	0.086610	0.287713	0.207471	0.076298	0.282274	0.253667	0.009960	0.305211	-0.160557	0.028529	-0.093418	-0.181592	0.253066	0.519748	-0.281914	0.445038	0.326618	-0.275247	-0.096278	-0.852110	0.108380	-0.566691	-0.109379	-0.054211	0.078360	0.281677	-0.011710	0.073666	0.068652	0.671971	0.014016	-0.169719	0.087483	-0.337488	-0.403962	-0.594934	-0.149747	-0.122497	-0.015250	0.270916	0.131805	0.274728	0.033690	0.258900	-0.082640	0.121306	-0.071512	-0.113899	0.210639	0.199032	0.093838	0.075712	0.039958	-0.214581	-0.180685	0.027773	0.181128	0.339792	0.130248	0.441491	-0.072954	-0.870838	0.070918	0.024588	-0.133969	-0.450727	-0.004053	-0.575288	-0.134454	0.495141	0.597144	0.455172	-0.086056	0.132207	-0.326848	-0.840133	-0.228609	0.003529	0.135815	0.278057	-0.140774	0.319372	0.228528	0.357206	0.090729	0.123257	0.214799	-0.277408	-0.422085	0.040960	0.121005	-0.012677	-0.095542	-0.003839	0.128516	0.812295	0.209175	0.132197	0.058376	-0.906756	-0.457661	-0.857124	0.048810	-0.067848	-0.052674	-0.027676	0.163254	0.244628	0.019796	-0.117854	-0.167514	0.212736	-0.020359	0.251565	-0.052949	0.594447	0.526397	-0.967148	-0.143600	0.146492	0.064416	-0.330974	-0.166480	-0.409588	-0.142396	0.080944	0.026838	0.456349	0.165448	0.503131	0.143270	0.120060	0.098210	0.101213	-0.682364	0.009344	0.213762	0.167688	-0.017865	-0.425405	0.208912	0.082326	-0.167130	0.725603	0.376072	-0.574907	0.084423	-0.974955	-0.492061	0.117394	-0.188246	0.104685	0.218848	0.338879	-0.141722	0.388332	0.364535	0.207373	-0.055336	-0.872186	-0.461101	-0.179130	-0.342246	0.089670	-0.035295	0.486588	0.384935	0.386223	0.101772	0.121872	-0.133096	0.076340	-0.051471	-0.167755	-0.141665	-0.043746	-0.067278	0.281398	0.023318	0.328404	0.630211	-0.040093	-0.276473	-0.210182	-0.218918	-0.251646	-0.119939	-0.912100	-0.174678	-0.284451	0.128966	0.678654	0.185657	0.888182	0.567366	-0.613140	-0.914131	-0.767598	-0.119704	-0.434022	0.031036	0.630617	0.145912	0.515440	0.272142	-0.347122	-0.169628	0.365327	0.001725	0.176616	0.204652	-0.082152	0.024026	0.092519	-0.418028	-0.116299	0.030160	0.145082	-0.060299	0.817086	-0.070557	-0.178210	-0.345135	-0.895835	0.074707	-0.685055	0.166493	0.363075	0.328182	0.270551	-0.049971	0.748658	-0.040548	-0.836241	-0.039672	-0.932160	-0.148238	0.689580	-0.057037	0.787960	0.347275	-0.493870	0.322914	-0.252717	-0.363238	0.440857	-0.139295	-0.040036	-0.293973	0.103517	0.242240	0.146319	0.159220	0.187926	0.138342	0.266423	0.044590	-0.162628	-0.247355	0.525987	0.530373	-0.227819	-0.366841	-0.901497	-0.315318	-0.551911	0.015486	0.152062	0.144468	0.349651	0.331290	0.418962	0.105701	-0.074634	-0.182078	0.227152	0.022401	-0.401069	-0.034444	-0.168717	0.097834	0.178061	0.079990	0.147466	-0.068022	0.414220	0.100313	-0.235090	-0.020176	-0.085346	-0.068660	-0.307858	0.124667	-0.020615	-0.198443	0.452657	0.167018	0.480317	0.269339	-0.235927	-0.269425	-0.848584	-0.001621	-0.208676	-0.114136	0.469972	-0.084353	-0.143761	-0.016400	0.136614	-0.077533	-0.071039	0.206040	0.108172	-0.070562	0.158088	-0.299612	-0.606267	-0.029773	0.061394	-0.147900	0.238582	0.325883	0.406553	0.196552	0.084502	-0.302281	-0.184765	0.397950	-0.156522	-0.356877	-0.001115	0.148639	0.277495	0.064248	-0.033724	0.299893	0.032528	-0.120639	-0.425305	-0.207374	-0.783390	-0.328887	0.175925	-0.047095	0.492598	0.159167	0.182696	0.295809	-0.231657	-0.323312	-0.422232	0.059702	0.163951	0.057146	0.114709	0.461351	0.055550	-0.430044	-0.339668	0.095705	0.142249	0.102544	0.237325	-0.195215	0.160992	0.295773	0.494008	-0.743457	-0.118320	0.130335	-0.717501	-0.198328	-0.202171	0.082181	-0.015694	0.148732	0.538549	0.260645	0.211404	0.188755	0.078307	-0.221075	0.089705	0.093178	-0.208049	-0.065605	0.317956	0.417260	-0.129190	-0.244805	-0.184772	-0.101251	-0.371760	-0.220499	0.471454	0.116385	-0.397615	-0.237128	0.211825	0.117887	0.426520	0.072244	0.076688	-0.181178	-0.504180	-0.131068	-0.298175	-0.036254	0.070979	0.117542	0.183187	0.079895	0.216381	0.092363	0.075926	0.078883	0.066829	0.047303	0.007513	0.002581	-0.018117	0.001557	-0.030026	-0.003089	-0.014239	-0.024040	-0.022351	-0.022671	-0.037302	-0.014541	-0.016052	-0.017482	-0.017381	-0.009741	-0.029037	-0.019945	-0.015546	0.025601	-0.001247	-0.014264	0.078750	0.030466	-0.190681	-0.019975	0.048403	-0.006917	-0.066143	0.008642	0.059279	-0.004420	-0.034661	-0.031723	0.069826	0.022440	-0.008237	-0.031528	0.013722	0.014572	-0.100010	0.006261	-0.067350	0.004308	0.011323	-0.007984	0.022041	0.018569	-0.006479	-0.024610	-0.003271	-0.002611	0.045456	-0.004754	0.017684	-0.010883	-0.109058	-0.002500	0.017154	-0.007792	0.028889	0.005042	0.022494	0.018035	0.002840	-0.005730	0.010542	-0.017113	0.017606	0.004613	0.006994	0.002242	0.005564	0.005791	-0.012975	-0.025844	-0.017744	0.006272	-0.011576	0.001444	-0.026748	-0.008491	-0.007283	-0.009569	0.000924	-0.023615	-0.012974	-0.021608	0.011275	-0.004590	0.013757	0.007820	-0.045361	0.000883	-0.007471	0.011129	-0.004084	0.006936	0.020418	0.005460	0.003605	-0.002758	-0.028539	0.001905	0.002008	0.006997	0.011532	-0.002940	0.001988	0.000019	0.003243	0.000776	0.002985	0.010493	-0.005939	-0.005545	-0.006277	-0.011830	0.006073	0.020173	-0.003383	-0.003960	-0.008125	-0.000786	-0.002469	-0.001075	0.005409	0.005042	-0.023781	0.004022	-0.006951	-0.009329	0.006491	0.011053	-0.007675	-0.000860	-0.007382	0.001986	0.002719	0.009598	0.005441	-0.000710	-0.008789	-0.014305	0.001486	-0.008914	0.005130	0.000731	-0.008398	-0.013982	-0.009298	0.010140	0.002112	0.015797	-0.005681	-0.003488	0.000263	0.001612	-0.010636	0.000194	-0.032887	0.016738	-0.011782	-0.010965	-0.003166	-0.024026	0.010365	-0.002136	0.005859	-0.004704	-0.008390	-0.000815	0.003036	-0.005260	0.010355	0.011784	-0.011915	-0.004591	-0.007394	-0.002702	0.007423	0.003067	-0.002557	-0.008406	-0.004103	0.005476	0.011050	0.003368	0.006697	-0.009368	-0.010416	-0.005793	-0.005916	-0.002292	-0.004782	-0.000237	-0.003726	-0.001861	-0.010553	-0.000034	0.008495	-0.007207	0.000955	-0.000894	-0.022928	-0.008043	-0.000564	0.010124	-0.005395	0.007444	-0.000709	0.008858	-0.015612	0.008148	-0.000012	0.010858	-0.006599	0.009991	-0.008352	-0.008918	0.006367	0.016002	-0.000239	-0.013340	-0.024620	-0.008546	-0.005235	0.015182	0.011088	-0.009798	-0.017142	-0.003373	-0.008735	-0.004356	0.010263	-0.012744	0.006881	-0.002664	-0.013147	-0.006120	0.001631	0.005796	0.009016	0.009245	-0.011729	0.002300	-0.007919	0.001548	0.007472	0.010779	-0.007012	-0.008953	-0.006179	-0.008017	0.006392	0.020760	-0.001390	-0.000410	-0.008659	-0.005422	-0.009318	0.002389	0.005727	-0.002122	-0.002092	-0.010902	-0.016278	-0.002171	-0.000533	0.009580	0.003560	0.009390	0.000938	-0.024549	-0.007871	0.016690	0.004983	-0.001677	-0.013329	-0.012124	-0.010983	0.005857	0.006009	0.009191	0.005731	0.004594	-0.008805	-0.003207	0.002372	0.003990	0.002995	0.003033	-0.006970	0.008560	-0.013037	-0.012992	0.000756	0.000341	0.001093	-0.009335	-0.039290	-0.006759	0.011416	0.015642	-0.004628	-0.002366	-0.012137	-0.017278	-0.007692	0.013990	0.001714	0.003216	-0.011781	-0.002230	-0.008931	-0.020336	-0.002563	0.000391	0.001062	-0.000151	-0.002994	-0.000956	0.000336	0.022470	0.012682	-0.006105	-0.005030	-0.006612	-0.012623	0.006465	0.007275	0.093952	0.008773	0.067912	-0.009984	-0.040623	0.029509	-0.085806	0.023197	0.186581	0.033565	-0.265683	0.219115	-0.146160	0.025058	0.139752	-0.738096	0.116544	0.097637	-0.150937	0.019606	0.126067	0.088964	-0.359923	0.202591	0.126268	-0.110054	-0.149815	-0.051077	0.190540	-0.200615	-0.087564	0.043788	0.247560	0.006656	0.330195	-0.483748	-0.487439	0.007421	0.566641	0.298572	-0.050615	0.141557	-0.804266	0.017392	-0.061211	-0.113817	0.528838	-0.128780	-0.450554	0.165140	-0.526083	-0.533131	0.152520	-0.041016	0.271120	0.175126	0.161309	-0.126121	0.243378	0.182394	0.471411	0.064579	-0.014847	-0.020093	-0.205826	0.490357	-0.019658	-0.056967	0.680871	0.115209	-0.098289	-0.265355	-0.982558	-0.296115	0.136602	-0.074947	0.350261	-0.078556	-0.715279	0.522645	0.340357	0.603669	0.819535	-0.436243	-0.949486	-0.476886	0.156236	0.098733	-0.235006	0.173463	0.174918	0.053205	0.061206	-0.636135	0.087526	0.067982	0.298992	0.538899	-0.068198	-0.415036	0.090305	0.327699	0.161789	0.471014	0.428885	0.702607	-0.352017	0.152559	-0.329582	-1.000044	-0.174249	-0.398664	0.193198	-0.449339	-0.004874	0.194563	-0.287759	0.364905	0.180655	0.315509	0.068804	0.042599	-0.377010	0.012894	0.216768	0.270494	-0.095414	-0.713562	-0.126417	0.105596	0.201307	0.050027	0.198738	0.020162	0.129178	0.501591	0.054188	0.146691	0.239178	-0.650327	-0.110254	0.086773	0.592031	-0.382457	-0.026819	0.157604	-0.402204	0.264432	-0.670409	0.236858	-0.537425	0.020038	0.639270	-0.017343	-0.174275	-0.291001	0.169655	-0.361093	-0.094120	-0.238228	-0.250989	0.594129	0.607743	0.155289	-0.163627	0.283725	0.140922	-0.931454	-0.192526	0.072593	0.115113	0.148554	0.183021	0.769900	0.532245	-0.187594	0.304170	-0.169074	-0.590610	-0.132672	0.105748	0.407184	0.708502	0.011610	-0.892275	-0.585011	-0.092475	-0.051175	-0.015091	0.139619	0.446583	-0.307353	-0.023671	0.186044	-0.426881	0.250305	0.631951	0.566374	-0.394394	0.317400	0.149522	-0.274143	0.164753	-0.774882	0.009385	-0.128709	0.077803	0.487507	0.140521	0.212936	-0.168597	0.234620	0.422218	-0.445951	-0.244198	0.086628	-0.312739	0.962764	0.763296	0.508868	0.155622	-0.515047	-1.000089	-0.885557	-0.386639	-0.546517	0.033120	0.295708	0.407302	0.439838	0.199768	0.712148	0.328447	-0.016745	-0.425843	-0.305643	-0.000566	-0.044151	-0.341783	0.030963	-0.072818	0.831258	0.388236	-0.183972	0.310069	0.220654	-0.101859	-0.283813	-0.122732	-0.970625	-0.087982	-0.006681	0.618723	0.287629	-0.003003	-0.019238	-0.681199	0.510635	-0.272372	-0.403893	0.741302	-0.399051	-0.580405	0.081940	-0.582048	0.516050	0.073156	-0.501310	0.017169	0.111495	0.130276	0.265494	-0.309090	0.443944	0.201527	0.356752	0.068517	0.488360	0.124973	-0.187174	0.553751	-0.301157	0.244828	-0.749938	-0.515847	-0.285129	-0.079980	0.475140	0.736143	0.852920	-0.835037	-0.717528	-0.857092	-0.731873	0.182787	-0.188467	0.287377	0.958687	0.934359	0.478757	-0.405875	-0.723118	-0.665198	-0.874660	-0.157539	0.210394	0.217429	0.397774	0.265603	0.800382	0.457263	-0.030353	0.340900	0.165413	-0.170550	0.312232	-0.204896	-0.573502	0.144319	0.229018	-0.192317	0.788597	0.930772	0.027252	-0.672360	-0.251264	-0.693381	-0.911261	0.083330	-0.299605	0.104080	0.838291	0.015395	0.788966	0.149000	-0.738296	-0.400286	-0.253701	0.229432	0.110358	0.073604	0.269330	0.314399	0.999899	0.456072	-0.831508	0.560030	-0.946931	-0.827949	0.209513	0.061433	0.374916	0.035877	0.830255	0.462955	0.602226	0.101383	0.058068	0.382127	-0.977754	-0.628066	-0.253140	-0.436090	0.476265	0.524217	0.850075	0.178786	-0.805640	-0.526957	-0.755779	0.306886	-0.161561	0.049945	-0.426962	-0.302295	0.362796	0.233651	0.743365	0.173149	0.819035	-0.044151	-0.024882	0.068261	0.130355	0.577984	-0.839911	-0.970781	0.367297	0.113949	-0.133265	0.133875	0.683875	0.469580	0.477684	0.058292	-0.983189	-0.543737	-0.593870	-0.216489	-0.125816	0.432181	0.210904	-0.152074	0.280563	0.270228	0.087185	0.144100	-0.082137	-0.260164	0.561684	0.089797	-0.358333	-0.113243	-0.058801	-0.223575	0.003799	0.474867	0.149479	0.424047	-0.078292	-0.385029	0.350726	-0.287132	0.521999	0.778859	-0.160901	-0.676567	-0.446919	-0.475638	-0.897826	0.051492	-0.097450	0.677944	0.616024	-0.189772	-0.912516	-0.447192	0.018934	-0.132576	0.419421	0.022073	0.054786	0.178828	0.065650	0.326295	0.015700	-0.207642	0.336135	0.096070	-0.337173	0.281278	0.159596	-0.441196	-0.033145	-0.135717	-0.027101	0.026322	0.012577	0.652207	0.512140	-0.665453	0.573260	0.593227	-0.369431	-0.516984	-0.928310	-0.093362	0.511988	0.429982	-0.283803	-0.142748	-0.646332	-0.232330	0.382891	0.109149	0.191335	0.555951	0.066465	-0.288585	0.343612	-0.070061	-0.603729	0.264359	-0.478632	-0.060644	0.257530	0.475218	-0.219120	-0.246490	0.113442	-0.139225	0.550563	0.065357	-0.235817	-0.076105	-0.255917	0.321395	0.529541	-0.235109	-0.302472	-0.268415	0.540326	0.330289	0.194340	-0.200011	-0.763539	0.088066	-0.206925	-0.225868	-0.294764	0.400574	0.546381	-0.236842	0.281109	0.636491	-0.010302	-0.488030	-0.662823	-0.137327	0.266191	0.169826	-0.096423	0.304489	-0.193742	-0.454580	0.053883	0.160559	0.134071	0.096884	0.421141	-0.005579	0.286864	0.016562	0.288487	-0.169721	-0.105744	0.016940	-0.159050	-0.302219	0.649686	0.051562	0.505469	0.689706	-0.148253	-0.273611	-0.847698	-0.349725	-0.639977	-0.196642	0.066107	0.152226	0.609923	0.219095	-0.030175	0.030660	-0.109450	-0.014655	0.486081	0.397098	-0.269177	-0.281449	0.355319	0.381928	-0.576975	-0.392213	-0.415780	-0.310885	0.204885	-0.334332	0.350985	0.299006	0.453598	0.106645	0.395639	0.472129	0.113873	-0.489447	-0.422212	-0.100523	0.061539	-0.009267	0.270356	-0.068891	-0.119715	0.230703	0.562576	0.303373	0.511021	-0.412176	-1.000101	-0.208343	-0.845727	0.068841	0.061997	-0.082547	0.745792	0.209266	0.805576	0.139354	0.683774	0.276957	-0.021739	-0.297146	-0.371228	-0.105161	-0.492889	0.012720	0.468561	0.099615	0.779437	0.478905	-0.181903	-0.108745	-0.884468	-0.292149	-0.192343	-0.003658	0.592477	0.376889	0.455999	-0.578163	0.205480	0.071306	0.767224	0.032172	-0.728220	0.061906	-0.795379	-0.091765	-0.570772	0.121824	0.683675	0.370851	-0.005446	-0.122942	-0.061365	-0.035746	0.673866	-0.619049	0.843743	0.286357	-0.457299	-0.013416	-0.562219	-0.211722	0.034576	0.158581	0.050430	0.106040	-0.017365	-0.196815	0.002280	-0.015209	-0.187710	0.404391	-0.134265	0.002168	-0.643455	0.052216	0.656389	0.935967	0.441432	-0.891616	-0.391900	-0.085755	-0.528087	-0.118394	-0.487759	0.016948	0.156597	0.428656	0.577373	0.162041	0.846581	0.004929	0.023607	-0.111642	0.083026	-0.080883	-0.328847	-0.136673	-0.449799	-0.126699	0.310578	-0.084290	0.158860	-0.130231	0.974567	0.502597	-0.896851	-0.056126	-0.723172	-0.700286	-0.100251	0.125407	0.999899	0.274675	-0.179471	0.937722	-0.048124	-0.931013	-0.975740	0.104984	-0.269321	-0.177649	-0.108402	0.065819	0.238731	0.136351	0.644065	0.490336	0.893883	0.159159	-0.143466	-0.745091	-0.540956	0.034591	-0.282165	0.007640	0.524915	0.184870	0.534806	0.308437	0.117140	-0.243696	-0.757897	-0.275601	-0.784374	0.118794	-0.228116	0.958389	0.102366	-0.541517	0.201802	-0.479209	0.446616	-0.195265	-0.216245	0.069969	-0.867448	0.063184	0.784926	0.853240	0.676365	-0.763045	-0.550520	-0.037131	-0.000086	0.000317	0.297860	0.151684	0.262002	-0.038654	0.268659	0.030130	0.214838	0.399915	0.266093	0.236644	0.109399	-0.929089	-0.817800	-0.297832	0.082987	-0.037910	0.999899	0.388442	0.109071	0.542359	-0.913327	-0.422395	-0.912701	-0.259750	0.088181	-0.145101	0.710224	0.168983	0.940954	0.467653	-0.045183	0.126344	-0.364614	0.010188	-0.559107	-0.386574	0.271532	-0.326549	0.737464	0.399395	0.497992	0.632152	-0.748588	-0.871690	-0.142494	0.133098	-0.119970	0.077588	0.088279	0.310891	0.767260	0.413794	0.259187	-0.325095	-0.875831	-0.518257	-0.205786	-0.116177	0.412828	0.112964	0.420235	0.198402	0.420914	0.215308	-0.268578	-0.062502	-0.511525	-0.152333	-0.444435	-0.029619	0.465756	0.276343	0.748803	0.141905	0.186983	-0.149365	-0.235074	-0.487259	-0.854980	-0.512294	0.070836	-0.175663	0.246304	0.133548	0.602271	0.300321	-0.087077	0.289353	0.555529	-0.140765	-0.355233	-0.132754	-0.708803	-0.062119	-0.359442	-0.073261	0.047285	0.043772	0.625730	0.050817	0.853221	0.408973	-0.540600	-0.401273	-0.488146	0.176559	0.825215	0.528024	-0.094097	-0.450975	-0.901674	-0.313844	-0.133397	-0.462799	-0.078661	0.435872	0.599304	-0.194620	0.581486	0.749128	0.612774	-0.557207	-1.000101	-0.585022	-0.585058	0.004360	0.248405	0.139579	0.435366	0.181693	0.062421	0.114317	0.965860	0.078059	0.643811	0.979331	-0.308922	-0.981218	-1.000101	-0.147963	-0.931396	-0.052582	-0.459687	-0.316779	0.897193	0.314305	0.858317	0.569005	-0.514648	-0.729562	-0.211351	0.078576	-0.500626	-0.213203	0.354128	0.176740	0.511645	0.042991	0.846384	0.732457	-0.026198	-0.433224	-0.613595	-0.067415	0.005678	-0.217391	-0.226350	-0.016924	-0.306958	0.082155	0.310676	0.314427	0.826127	0.242142	0.008894	-0.452283	-0.715995	-0.076283	-0.188053	-0.062385	-0.152148	-0.131049	-0.174666	0.096771	-0.355539	0.195557	-0.498564	0.190146	0.456969	-0.414456	0.665031	0.276723	0.305877	-0.079916	-0.352722	-0.069903	-0.313975	-0.256733	-0.009739	0.150606	0.205392	0.008436	0.209661	0.135546	0.465100	0.138071	0.099234	0.211552	-0.118244	0.023265	-0.374337	-0.153178	0.095946	-0.097723	0.510358	0.066482	-0.044871	0.117125	-0.771474	-0.040894	-0.383122	-0.037259	0.204982	0.291579	-0.117536	0.760653	0.119852	-0.991721	-0.057625	-0.445156	-0.012276	0.014653	0.110981	0.195351	0.343060	0.182589	-0.038010	0.166402	0.264012	0.196097	0.210117	0.131059	-0.502222	-0.017281	-0.189455	-0.027933	0.301313	-0.037436	0.729295	0.149114	-0.252645	-0.040207	-0.584590	-0.267921	-0.679371	0.479408	-0.325163	0.032447	0.014646	-0.767217	0.370099	-0.153893	0.355147	0.230545	-0.072605	0.072860	-0.012758	0.021730	-0.090289	0.135980	0.382714	0.155966	0.172568	-0.019991	-0.087949	-0.040113	-0.261043	0.015890	0.031564	0.029326	0.606435	0.021471	0.157258	0.025942	-0.426343	0.082986	-0.875914	-0.129109	0.013911	-0.155012	0.215171	-0.086641	-0.057547	0.321327	0.242373	-0.051923	-0.295812	-0.380646	-0.180839	-0.050584	0.132859	0.157636	0.347524	0.019712	0.303105	0.003495	0.019723	0.048892	-0.097679	0.061797	-0.136573	0.030327	0.135245	-0.032844	0.434300	0.086858	0.425979	0.101578	-0.944434	0.204959	-0.707493	-0.579757	-0.308016	-0.067705	0.350382	-0.027290	0.659900	0.297449	0.017571	-0.117567	-0.302820	0.021425	0.126403	0.089954	0.328089	-0.017359	0.354319	0.246227	-0.042507	-0.283902	-0.325827	-0.135516	-0.252893	0.025690	-0.115832	0.033891	0.075321	0.305227	0.438972	0.006396	-0.398549	-0.170032	-0.491914	-0.019045	0.133547	0.051258	0.153798	-0.027320	0.158132	0.192136	0.442697	0.189813	-0.080458	-0.206608	-0.408157	-0.264756	-0.263033	-0.046426	0.444005	0.106485	0.460152	0.364050	-0.828215	-0.186575	-0.512978	-0.171300	-0.128089	0.021002	0.150937	0.045480	0.512589	0.107851	0.582476	0.119559	-0.628652	-0.002024	-0.506531	-0.064533	-0.030027	-0.016294	0.116591	0.032314	0.246097	0.155964	0.199366	-0.082995	0.105249	-0.006872	-0.117736	0.000474	-0.112669	-0.009781	0.275287	0.096622	0.101522	0.054657	-0.382984	-0.100117	-0.387820	-0.046846	-0.317202	-0.064687	0.066928	-0.006035	0.205231	-0.004531	0.222533	0.122975	0.048217	-0.002673	0.076014	-0.331684	-0.341913	-0.026026	0.141849	0.030571	0.239978	0.018212	-0.130763	0.084221	-0.208445	0.019401	-0.089188	0.047830	0.109438	-0.005390	0.150857	0.170949	0.171944	-0.037375	-0.071986	-0.110849	-0.235549	-0.109037	-0.337823	-0.042666	0.022722	0.012680	0.336837	0.014259	0.224367	0.131094	-0.143822	-0.119491	-0.381598	0.007502	-0.085794	-0.101926	0.072472	-0.014343	0.173256	0.050388	0.152348	0.011870	0.051421	0.022985	-0.291042	-0.005036	-0.076728	0.002974	0.057167	0.004151	0.174750	0.011569	0.102540	-0.006946	-0.088098	0.030915	-0.122901	0.012161	-0.056653	-0.004985	0.084636	-0.015069	0.138623	0.037489	0.379321	0.039996	-0.079762	0.027922	-0.807180	-0.034550	-0.156183	-0.165928	0.125544	0.001959	0.221232	0.024706	0.245686	0.005550	0.107270	0.020158	-0.180217	0.041834	0.017853	0.003401	0.012661	-0.009955	0.030087	0.010810	0.018377	-0.014104	0.009725	0.004896	-0.028937	0.004462	-0.012017	-0.004001	0.004011	0.004684	0.015268	-0.020726	0.129020	0.002154	0.082183	-0.007010	-0.111222	-0.002214	-0.321027	-0.035026	0.093478	0.052909	-0.026283	0.008972	-0.169651	0.027685	-0.354837	-0.048718	0.104183	-0.011894	0.145661	0.058307	0.150555	-0.040712	0.153579	0.102675	0.062989	-0.013012	0.057852	-0.159525	0.072218	0.002882	-0.096771	0.022023	-0.060165	0.011904	0.006607	0.023548	0.070585	0.028612	-0.000042	0.030881	-0.096228	0.013860	-0.128342	0.001530	0.137247	-0.021087	0.059558	-0.005905	0.054451	0.037324	-0.064455	0.011293	-0.366531	-0.022036	-0.075232	0.015466	0.051556	0.002705	0.089840	-0.004025	0.079842	-0.006216	0.115720	0.023589	0.054041	-0.005809	-0.061909	-0.018549	-0.011915	-0.008033	0.034890	0.011732	0.038415	-0.006869	-0.006990	-0.013385	0.107940	0.033308	-0.149535	-0.014366	-0.206391	-0.009878	0.150292	0.017500	0.053038	0.004337	-0.080885	0.003341	-0.079893	-0.014121	-0.023461	-0.000070	0.088869	-0.009426	0.085817	0.000986	0.058163	0.023652	0.057156	0.027092	0.033100	0.003042	-0.000884	-0.006315	-0.030235	-0.000817	-0.007430	-0.002155	-0.017148	-0.005499	0.007912	0.009606	0.050436	-0.015656	-0.018631	0.002284	-0.061692	0.004094	0.021973	0.012825	0.013349	-0.013001	-0.024273	0.017473	-0.050086	0.009647	-0.007650	-0.049213	0.043392	-0.000975	-0.049976	0.024260	0.209715	-0.001993	0.050345	-0.069554	-0.208085	0.066034	-0.127191	-0.063767	0.049896	-0.103007	0.073086	-0.002001	0.047304	0.006730	0.084066	0.025591	0.081029	0.014009	0.031029	0.073715	-0.071817	-0.031208	-0.053526	-0.028507	-0.060924	0.005501	0.005468	0.098151	0.188825	-0.020021	0.070735	0.006039	-0.029245	0.024077	-0.088376	-0.161121	-0.086859	-0.062840	-0.343156	-0.115669	-0.110033	0.058754	0.134706	0.143204	0.073987	0.071336	-0.071359	-0.152859	0.126456	0.040136	0.280941	-0.125551	-0.270360	0.100740	0.193095	-0.116851	0.016153	-0.047283	0.201732	0.259208	-0.339785	-0.475446	-0.546922	-0.084778	0.220617	0.256152	0.507657	0.429590	0.165971	-0.188058	-0.344258	-0.342145	-0.482181	-0.183914	0.064917	0.234925	0.350526	-0.092602	-0.153032	0.393062	0.124549	-0.089895	-0.157653	0.008264	0.023344	0.070831	-0.152395	0.052997	0.200446	0.216614	0.241247	0.295966	0.076520	-0.196270	-0.127303	0.008650	-0.162053	-0.255790	-0.226192	-0.187721	0.080639	0.071539	0.731476	0.453646	0.220648	-0.157397	-0.773404	-0.218431	-0.384619	-0.024120	0.225624	0.093170	0.094761	0.108893	-0.071108	0.119232	0.478451	-0.212038	0.142313	0.184639	-0.618482	-0.182491	-0.032309	0.055050	0.332970	0.064505	-0.306984	0.020017	-0.020581	-0.029580	0.170491	-0.080500	0.097376	0.236569	-0.286020	-0.157989	0.450640	0.149020	0.287766	-0.205095	-0.148510	-0.191385	-0.769857	-0.158788	0.082022	0.285754	0.388833	0.007506	-0.428810	-0.127422	-0.367208	-0.092545	0.395243	0.002478	0.306222	0.148736	0.039634	-0.062362	0.043939	0.026998	0.046309	-0.198049	-0.435223	0.054558	-0.134039	0.149087	-0.218965	0.234559	-0.009640	-0.315636	0.287253	0.098456	0.203056	0.193757	0.130561	-0.474358	0.024705	0.162689	0.175511	0.189988	-0.202685	0.027650	-0.567105	0.006915	-0.420878	-0.035847	0.042337	-0.111015	0.286897	-0.080435	0.245914	0.726121	0.101513	-0.287484	0.096762	-0.264598	-0.106010	-0.176758	-0.057759	-0.263278	-0.232492	-0.069003	0.173795	0.253572	0.077409	0.279566	0.227208	-0.016525	-0.352016	0.034420	0.120624	-0.009134	0.277622	0.217051	0.281449	0.550890	-0.003579	-0.580233	-0.903600	-0.718212	-0.254426	-0.286568	-0.008618	0.190075	0.125161	-0.017311	0.648857	0.456172	0.003769	-0.123206	-0.184370	0.081545	-0.186812	-0.142746	0.224031	0.000034	0.184575	0.052056	0.243258	0.138266	0.211234	-0.031243	0.004764	0.299182	-0.191768	-0.489130	-0.407814	-0.314403	-0.082804	-0.060951	0.361907	0.122008	0.786151	0.128985	-0.380740	-0.317601	-0.314120	-0.102357	-0.233877	-0.006617	0.121248	0.194895	-0.414860	0.013089	0.388270	0.476971	0.501173	-0.071071	-0.075288	-0.134957	-0.811267	-0.304974	-0.499040	-0.129416	0.269585	0.162952	0.354581	-0.052041	0.505211	0.503851	-0.042361	-0.084380	0.239180	-0.054530	0.137008	-0.082364	-0.509775	-0.090167	-0.064714	0.075812	0.601119	0.189999	0.181218	0.045176	0.313495	-0.066800	-0.989074	-0.081198	-0.452776	0.082455	-0.418983	-0.569999	0.248128	0.000383	0.033935	0.331387	0.971714	0.498218	0.143708	-0.498320	-0.948486	-0.183310	0.021896	0.035906	0.296799	0.057025	0.340858	0.254802	0.335597	0.084552	0.120266	-0.033463	0.167244	0.113297	-0.053286	-0.078348	-0.084159	0.239483	0.197643	-0.493665	-0.207918	0.088211	-0.184312	-0.111961	0.147304	0.170942	0.305904	-0.221882	0.307832	0.581530	-0.631832	-0.565601	-0.894477	-0.266253	-0.056547	0.034926	0.362813	0.067531	0.299308	0.085404	0.242178	0.064380	0.167394	0.026032	0.117509	0.056474	0.023191	0.004380	0.087097	0.030503	-0.065830	-0.012486	0.094686	-0.005564	0.051367	-0.017156	-0.454963	-0.030261	-0.027540	-0.021597	0.043436	-0.004853	0.098330	-0.011865	-0.057775	-0.007969	0.027189	0.059310	0.301848	-0.008164	-0.069767	-0.024542	-0.028094	0.003914	-0.361224	-0.116012	-0.059039	0.001671	0.190419	0.038417	-0.140275	0.103333	-0.038975	-0.054591	-0.213748	0.115439	0.131896	-0.161511	0.208907	-0.011699	0.033570	-0.242032	-0.051025	0.139488	0.054162	0.008275	-0.003227	0.057660	0.011176	0.052897	0.189429	0.059239	0.257232	0.034204	-0.138911	0.007701	-0.566294	-0.026655	-0.017228	-0.001277	0.074942	0.029653	-0.008870	-0.040394	0.216291	-0.004218	-0.121698	-0.027986	-0.105057	-0.005553	0.227242	-0.021558	-0.230423	0.017454	-0.061816	-0.040924	0.040239	0.043574	0.091850	-0.124177	0.090899	0.045235	0.067826	0.022038	-0.022426	-0.030281	0.033422	-0.025551	-0.011100	0.011404	0.021885	0.037959	0.100086	0.052991	-0.064472	0.030439	-0.065580	0.065772	-0.082378	-0.021799	0.015739	0.012091	0.000412	-0.037921	0.046307	0.001551	-0.008335	0.032263	0.023751	0.070258	0.019724	0.005897	-0.114706	-0.023308	0.011696	-0.018172	0.089131	-0.026306	0.143855	0.026405	-0.332867	0.011071	-0.018451	-0.013220	-0.023938	-0.001997	0.039720	0.026211	0.002960	0.001031	0.015590	-0.032931	0.132259	0.059011	0.021421	0.020099	-0.115773	-0.046560	0.013769	0.034228	-0.030845	-0.068578	-0.010662	-0.015899	0.010984	0.006357	0.047303	-0.014431	0.120518	0.025043	-0.005556	0.041762	-0.001843	0.023241	-0.100373	0.045645	-0.131935	-0.227327	0.029275	-0.005978	-0.017945	-0.022509	0.021126	0.008197	0.049262	0.041267	0.095216	0.046854	0.026703	0.044286	-0.003323	-0.103160	0.001793	0.019473	0.074095	0.084511	0.163285	0.061757	-0.213350	0.065779	0.004114	-0.066694	-0.031299	0.259063	0.000380	-0.425791	-0.495232	0.163246	0.228749	0.140839	0.025807	-0.095253	-0.023605	0.205680	-0.106345	-0.275720	0.161840	-0.060789	0.319502	0.020919	0.319919	0.164089	-0.468981	0.096310	0.291630	0.231793	0.152715	-0.434952	-0.681665	0.127951	0.069046	0.197560	0.202689	0.322127	-0.227389	0.007709	0.135191	-0.063531	0.507941	0.182393	-0.550897	-0.303562	-0.022501	0.488912	-0.074401	-0.214736	0.150515	0.060085	0.467838	-0.036790	0.027096	0.167296	-0.053866	-0.029335	-0.361387	0.109516	-0.438280	0.087387	0.496228	-0.088178	0.083550	0.092125	-0.452222	-0.031868	-0.056004	-0.246190	-0.501905	0.327239	0.109612	-0.076701	0.476682	0.269605	0.082254	-0.299512	-0.037145	0.091928	-0.083847	-0.309689	-0.335503	0.195739	0.042510	0.256501	0.339649	-0.255432	-0.045790	0.350818	-0.011056	0.219539	-0.112099	-0.524418	-0.158835	0.026435	-0.183519	0.322876	0.481216	0.192830	-0.164506	-0.206947	-0.390322	0.036234	0.086529	-0.079717	0.532338	0.112743	0.341007	0.114624	0.276808	0.097009	-0.255210	-0.090703	-0.631554	-0.023571	-0.448471	-0.074891	0.191570	-0.189030	0.391093	-0.132426	-0.050353	-0.054642	0.139724	0.061269	0.088243	0.097244	0.056373	0.073688	0.167808	0.032869	-0.036980	-0.001565	0.080638	0.005384	-0.117487	-0.043422	-0.132328	0.030040	-0.068510	0.042316	0.048868	0.023477	0.121447	0.054192	0.060583	0.031085	0.174547	-0.399754	0.307790	0.029273	-0.465693	-0.016810	-0.747034	-0.039752	-0.385871	-0.091453	0.038544	-0.057605	0.236183	0.023617	0.265020	0.094549	0.180252	0.016598	0.131862	0.032463	0.103511	0.029517	0.086953	0.007874	-0.077957	-0.001920	0.041247	0.029939	-0.101109	0.002021	-0.099434	-0.022629	-0.083029	-0.027125	0.171339	0.018503	0.284383	-0.062833	-0.333707	0.015036	-0.162752	-0.039852	0.190323	-0.017535	-0.298993	0.064040	-0.010165	-0.003236	0.109038	-0.100303	-0.125837	-0.019326	0.058548	-0.034750	0.030153	-0.016846	0.115784	0.038283	-0.010253	0.012636	0.074761	0.000278	0.001761	0.021419	-0.073973	0.006997	-0.095896	-0.150619	0.025741	0.133717	-0.046004	-0.074405	0.063725	0.024623	0.050398	0.100237	0.046216	0.008326	-0.037063	-0.073374	-0.041008	-0.076968	0.108824	-0.004311	-0.000683	0.045853	-0.098095	0.041167	0.078870	-0.032441	0.128914	0.009043	-0.137130	0.063627	-0.081207	0.033743	-0.048674	-0.004606	0.087338	0.037625	0.208739	-0.092895	-0.028916	0.007337	-0.091520	0.160910	-0.025929	-0.229026	-0.039370	-0.141352	-0.272449	-0.041791	0.103771	0.234115	0.162381	-0.118543	0.134529	-0.037089	-0.097534	-0.104080	-0.176371	0.006186	0.057762	0.159529	0.087102	-0.032747	-0.019165	0.030829	0.089746	0.011181	0.243891	-0.015588	0.028702	0.117182	-0.145994	-0.127568	-0.489360	-0.170988	0.284723	0.178091	0.072165	0.002987	-0.199537	0.252308	-0.230094	-0.153603	0.005079	-0.062674	0.181082	-0.163156	-0.030331	-0.113000	-0.116952	-0.296952	0.180330	0.465988	0.542933	0.134532	-0.203047	0.033404	-0.695509	-0.078417	-0.232993	-0.282594	0.272017	-0.089515	0.144483	0.228323	0.423653	0.132840	0.380532	0.329418	-0.686698	-0.123487	-0.236168	-0.028480	0.127900	-0.291281	0.262182	0.295365	0.544573	0.207282	0.312384	0.002845	-0.857135	-0.106710	-0.453559	-0.383791	-0.263708	-0.319924	0.177446	0.029082	0.362152	0.088211	0.269026	0.339741	0.053122	0.023002	-0.020849	-0.148657	-0.263599	-0.169804	-0.307825	-0.061984	-0.036445	0.079644	0.166514	0.183529	0.549109	0.000543	0.397134	0.459700	-0.816831	-0.567101	-0.181754	0.028471	-0.022759	0.176987	0.007972	-0.019830	0.271332	0.183024	0.292391	-0.436933	-0.383373	-0.020720	-0.447238	-0.167796	0.185790	0.113271	-0.090070	0.129652	0.240398	0.182706	0.451466	0.123219	-0.035138	-0.003012	-0.137545	0.158697	-0.409312	-0.183362	0.095826	-0.044000	0.087561	-0.008954	-0.007225	-0.031879	0.112257	-0.028172	-0.115332	-0.011537	-0.020908	0.056917	0.087500	0.031170	0.006959	-0.003859	0.047413	0.020171	-0.016189	-0.055026	-0.011303	0.097566	0.013436	-0.133092	-0.180917	-0.056573	0.026161	-0.036224	-0.012913	0.006484	0.042265	0.031806	-0.018788	0.001531	0.075498	0.011814	-0.140108	-0.016536	0.071825	0.003996	0.064718	0.028153	-0.075171	-0.014708	-0.059974	0.000839	-0.029885	-0.026195	-0.008648	-0.017596	0.018851	-0.006341	0.017891	0.007338	0.022394	-0.008260	0.004118	-0.005196	-0.023652	0.013161	0.008845	-0.006400	-0.014989	0.002635	0.113119	-0.020360	-0.095495	0.005904	0.050901	0.001066	-0.064897	-0.015162	0.019971	-0.007402	0.034874	0.000061	0.009189	-0.015997	0.000238	-0.014896	-0.048624	0.032722	-0.028828	-0.000549	-0.014978	0.020171	0.024254	0.009557	0.002012	0.001604	0.006290	-0.019251	0.039674	-0.022230	0.051160	-0.000530	-0.086478	0.029615	-0.052764	0.001932	0.022405	-0.046480	0.071434	0.039583	0.000829	-0.020989	-0.055900	0.006881	-0.053254	-0.031296	-0.012878	0.000538	0.054957	0.022286	-0.027474	0.006993	0.010314	0.018280	0.010207	0.010550	0.080494	0.004353	-0.098066	0.011694	-0.007596	-0.001416	-0.002524	-0.004057	0.010636	0.001097	0.011848	-0.001320	-0.021319	-0.013554	0.013863	0.011087	-0.002393	0.011117	-0.010170	-0.030212	-0.002868	0.005427	-0.001157	0.006032	0.013346	-0.006396	-0.007552	-0.009399	-0.027690	-0.008613	-0.002033	0.008793	-0.006610	-0.000857	0.003328	0.010040	-0.021579	0.011034	0.016225	-0.007414	0.011306	-0.004557	0.003139	-0.009376	-0.026722	-0.007047	-0.015673	-0.009647	0.013831	0.003020	0.011606	0.003891	-0.002972	-0.004810	-0.019709	0.002271	0.027740	0.012351	-0.006591	-0.012711	0.009971	-0.009577	0.005221	-0.001064	0.012325	0.008432	-0.084464	-0.007187	-0.010658	-0.007312	0.007209	0.006179	-0.002497	0.001244	-0.005686	-0.000908	-0.001355	0.019911	0.003259	0.001547	-0.009903	-0.004436	0.012215	0.022901	-0.001387	-0.015806	-0.006643	-0.017443	-0.006743	0.005322	0.022164	-0.014520	-0.035787	0.004004	-0.027788	-0.010803	0.003672	0.010244	0.015696	-0.016633	-0.002271	-0.013688	0.004578	-0.004661	-0.011956	0.012858	0.010755	-0.006360	-0.032465	-0.015376	-0.008724	-0.001927	0.001243	0.001297	0.002384	-0.001169	0.003045	0.014851	-0.003164	-0.004382	-0.001224	-0.003259	-0.012826	-0.007954	-0.000151	-0.008040	0.007082	-0.002853	-0.016393	-0.018952	-0.003056	-0.000693	0.001358	0.001618	-0.005575	0.003181	-0.015106	-0.028984	0.002139	-0.002758	-0.006771	-0.015529	-0.013609	0.004591	-0.000362	-0.002859	0.000613	0.002858	-0.007932	-0.004850	-0.011891	0.003224	-0.006035	0.002165	0.026029	-0.002176	-0.016401	-0.015723	-0.000633	0.002496	-0.002548	-0.000443	-0.011408	-0.003031	-0.015350	-0.005683	-0.002808	-0.000603	-0.002622	0.006796	-0.009702	0.005648	0.001143	0.011937	0.004937	0.006270	-0.008336	-0.002366	-0.004918	0.001027	0.003254	-0.000171	-0.010309	-0.011366	-0.013277	-0.002609	0.012634	0.008963	-0.004993	-0.004758	-0.006855	-0.005572	0.005058	0.009779	0.007592	-0.009574	-0.014776	-0.000430	-0.020783	-0.020139	-0.007361	0.001542	-0.006884	0.002387	-0.013856	-0.003280	0.004252	-0.006213	0.008032	0.002986	-0.008375	-0.005294	-0.001443	-0.004331	0.006495	-0.001997	0.002781	0.000674	-0.008560	-0.004767	-0.006112	-0.001352	0.004508	0.001235	-0.015754	-0.003504	-0.015904	0.002774	0.009311	0.012077	-0.001022	-0.009509	-0.008859	0.000051	0.006450	0.005984	0.011354	0.006963	-0.012413	-0.003015	-0.001796	0.009825	0.003495	-0.008342	-0.007817	-0.001198	-0.011066	-0.005063	0.001724	-0.003579	-0.005409	0.000871	-0.016981	-0.006634	0.001594	0.001083	-0.002164	-0.001702	-0.008150	-0.002153	-0.004560	0.004192	0.001206	-0.004251	-0.004387	-0.011911	-0.002888	-0.002225	0.006614	0.008815	0.002455	-0.002428	-0.014013	-0.010702	-0.001727	0.003601	0.001769	0.001142	-0.006475	-0.007384	-0.014706	-0.005869	0.006533	0.002512	0.000148	-0.004459	-0.013225	-0.007308	-0.000570	0.004457	0.002437	-0.012800	-0.007020	-0.006890	-0.010020	-0.000885	0.005200	-0.002279	-0.016579	0.001844	-0.018075	-0.004342	-0.000009	0.006715	0.006065	0.006079	-0.006123	0.003781	-0.002265	0.003887	0.005858	0.002365	-0.005586	0.004374	-0.017774	-0.008905	-0.006632	0.000342	0.002456	-0.001917	-0.013205	-0.004667	-0.001290	0.000112	0.010243	0.003263	-0.007821	-0.011276	-0.007384	-0.009319	0.000768	0.005908	-0.005287	-0.006533	-0.015589	-0.003498	0.000517	0.001912	0.003540	0.006382	-0.006609	-0.001858	-0.009057	0.004953	0.002152	0.012907	0.000121	-0.005929	-0.007205	-0.002864	0.004474	0.000126	0.003483	-0.004092	-0.016728	-0.009069	-0.001811	-0.000034	-0.001143	0.001283	-0.004833	-0.002707	-0.016275	0.004582	0.007825	0.007005	-0.005633	0.007002	-0.006857	-0.009896	0.003729	0.001258	0.000288	0.000727	-0.000173	-0.000902	-0.015624	0.009485	0.003046	0.012236	-0.002404	-0.001737	-0.013639	0.000071	0.003946	0.012966	0.007414	0.002305	-0.002606	-0.009660	-0.008560	0.002716	0.003370	0.000632	-0.002182	-0.006095	-0.014671	-0.016977	-0.002121	-0.002760	-0.010892	0.002420	-0.005992	-0.020685	-0.013170	-0.005845	0.003478	0.005954	-0.003363	-0.001675	-0.013965	0.001312	0.002843	0.004341	-0.005578	-0.002972	-0.011484	-0.004336	-0.000713	0.005192	0.006850	0.005198	-0.017333	-0.004454	-0.010521	0.002786	-0.004571	0.000917	-0.001718	-0.003424	-0.007712	0.001974	0.009001	-0.003434	0.000840	-0.005329	-0.002642	-0.002553	-0.013682	-0.001148	-0.005713	0.003804	-0.010591	0.001364	-0.009450	0.008137	0.003786	0.000468	0.008533	0.003875	-0.002695	-0.007335	0.001605	0.009115	0.006195	0.003550	-0.003223	-0.003671	-0.005185	0.007696	-0.001633	-0.007327	0.005611	-0.005834	-0.014297	-0.000260	0.003740	0.000074	0.001437	-0.008695	-0.007659	-0.003030	-0.003135	-0.006808	0.003147	0.007151	-0.008091	-0.007800	-0.014740	-0.003277	-0.004257	0.012696	0.000301	-0.002334	-0.010938	-0.008519	-0.006242	-0.002668	0.005622	0.014597	0.003973	0.010759	-0.026927	-0.004405	0.004557	-0.004001	-0.005581	-0.015030	-0.013700	-0.007545	0.001889	0.003243	0.010892	0.007469	-0.003194	0.000018	-0.017677	-0.010870	0.001689	-0.004476	-0.002062	-0.000629	-0.015588	-0.007963	-0.001121	-0.000616	0.011984	0.016254	-0.011409	-0.020373	-0.004030	-0.008946	0.021524	-0.002756	0.044541	0.062862	0.012439	0.034923	-0.036370	-0.050355	-0.035989	-0.007575	0.064720	0.029018	0.130954	-0.056854	-0.243029	-0.109632	0.004549	0.043278	0.091304	0.043745	0.327364	0.302148	-0.057615	-0.073835	-0.369362	-0.280968	-0.323992	-0.095766	0.017727	-0.132394	0.028323	0.169953	0.181822	0.257968	0.515894	-0.297852	0.241985	-0.112281	-0.607991	-0.262253	-0.331730	-0.104008	0.189509	0.217133	0.341584	0.017982	0.119466	0.470173	-0.056240	-0.217131	-0.377690	0.083075	-0.101698	-0.178557	0.136257	0.266582	0.178447	-0.241927	0.131980	-0.249787	0.171575	-0.087133	-0.182650	0.182718	