76
531 3
0.240257	0.009595	-0.366470	-0.007301	-0.016739	-0.367100	-0.138843	0.009300	-0.366940	-0.042940	0.044385	-0.369755	0.010324	-0.033014	-0.379628	0.036083	-0.015650	-0.377949	0.032968	0.015395	-0.376989	-0.041319	0.078981	-0.377654	-0.092564	-0.001716	-0.378191	-0.022344	-0.092287	-0.389001	-0.029572	0.026980	-0.387321	0.027229	0.032718	-0.389344	-0.016601	-0.081682	-0.389519	-0.104526	-0.037816	-0.388775	0.048624	-0.025541	-0.377518	0.048153	0.031683	-0.379126	-0.148433	-0.008567	-0.380518	0.017844	0.012420	-0.390436	0.220250	-0.001225	-0.392490	0.008486	0.039790	-0.404733	0.092075	0.021606	-0.413217	0.060694	-0.008280	-0.410674	-0.051579	-0.004657	-0.410192	-0.056226	0.009649	-0.408057	0.001210	0.049196	-0.398510	0.036191	-0.004478	-0.388921	-0.060392	-0.030818	-0.390928	-0.047068	-0.014137	-0.388226	-0.086183	0.033709	-0.398863	-0.029790	0.011285	-0.398657	0.157051	-0.034383	-0.401252	0.019752	-0.046033	-0.400861	-0.167124	-0.048712	-0.385333	0.081043	-0.051016	-0.373256	-0.038745	0.028605	-0.360488	-0.011996	0.009838	-0.342886	0.029919	0.021776	-0.343949	0.037387	0.052816	-0.331604	-0.024671	0.016133	-0.331866	-0.010211	0.004908	-0.333613	0.030051	-0.005619	-0.344964	0.005904	0.006876	-0.354121	-0.002764	-0.026095	-0.365522	0.000632	-0.017929	-0.369592	0.013962	-0.029727	-0.380989	0.014670	-0.013560	-0.378099	-0.004474	0.011992	-0.376207	-0.061861	-0.008336	-0.377264	0.023502	-0.006722	-0.378476	0.079192	0.001413	-0.378364	0.006640	-0.022616	-0.377656	-0.021307	-0.031488	-0.377389	-0.013090	-0.038022	-0.374436	0.027116	0.036906	-0.364752	-0.039126	0.052286	-0.366605	-0.033667	0.043244	-0.378547	-0.064940	-0.029041	-0.376462	0.089782	0.006783	-0.377959	0.083860	0.007198	-0.378179	-0.100660	-0.036859	-0.377724	-0.022868	-0.009649	-0.377563	0.013126	-0.014998	-0.380956	-0.032159	0.020216	-0.391063	0.056331	0.008932	-0.389167	-0.003024	-0.010989	-0.387972	-0.050826	-0.001274	-0.388640	0.082144	-0.004132	-0.389309	0.010279	0.010374	-0.385969	0.016757	0.012520	-0.375603	0.043278	0.008360	-0.377354	-0.032971	-0.005921	-0.378622	-0.033905	-0.032111	-0.378071	-0.038996	-0.001105	-0.377420	0.011927	0.028236	-0.377489	-0.006423	-0.037227	-0.377857	0.009783	-0.001038	-0.388976	0.000428	0.002962	-0.387515	-0.007415	-0.008252	-0.389455	0.012311	-0.011304	-0.389464	0.010375	-0.001029	-0.388684	0.014097	0.010945	-0.391717	0.006663	0.008855	-0.402027	0.004948	0.003627	-0.400411	0.002397	-0.006240	-0.399231	0.002821	0.007075	-0.399751	-0.101021	0.022617	-0.400338	0.039261	0.006836	-0.400254	0.121463	-0.054977	-0.399915	0.035379	-0.000314	-0.399816	-0.014447	-0.028097	-0.399958	-0.044098	0.006851	-0.400082	-0.053174	-0.022296	-0.389065	-0.021550	0.006186	-0.390304	0.013992	0.006962	-0.388197	0.047146	0.009535	-0.388228	-0.027772	0.017958	-0.389119	-0.020562	0.009145	-0.378337	-0.000144	-0.010771	-0.379260	0.009635	-0.006921	-0.376898	-0.001134	-0.026315	-0.376988	-0.029689	0.012213	-0.367050	0.046908	0.038393	-0.368633	0.043504	0.023549	-0.366094	0.004133	-0.019963	-0.365752	-0.001446	-0.076572	-0.366707	-0.022392	0.014894	-0.370376	-0.014734	-0.048478	-0.380025	0.022777	0.010884	-0.377793	0.007466	0.058266	-0.376695	-0.016104	-0.029342	-0.377594	-0.021253	0.024544	-0.378322	0.014942	-0.011752	-0.378100	-0.005523	-0.046015	-0.374399	0.021713	0.025171	-0.364341	0.005309	0.045833	-0.366423	-0.054397	-0.000207	-0.367682	0.060882	0.003531	-0.363729	-0.040684	-0.033631	-0.353032	0.016482	0.000544	-0.351803	0.006913	-0.007464	-0.343382	-0.027325	0.027677	-0.344673	0.004594	-0.003221	-0.341741	0.036162	-0.019694	-0.331085	0.003743	-0.001590	-0.332739	-0.012556	0.003890	-0.334182	0.033492	-0.027086	-0.333743	0.001989	-0.017500	-0.344031	-0.026826	0.018716	-0.342689	-0.000134	0.031496	-0.345121	0.003743	0.027511	-0.345285	-0.024103	-0.047901	-0.344309	-0.041638	-0.065726	-0.343944	0.018493	0.004873	-0.355311	0.011392	0.017731	-0.354347	0.017081	0.022035	-0.356386	-0.018172	0.022748	-0.356170	0.029318	0.006527	-0.352010	0.050698	0.013433	-0.341907	-0.028842	-0.002033	-0.344226	-0.086131	-0.005169	-0.345599	0.008964	0.009213	-0.333777	0.022895	-0.014678	-0.334249	0.010977	-0.023500	-0.332295	0.034491	0.025502	-0.332798	-0.017166	0.058478	-0.322818	-0.072821	0.057983	-0.324152	0.073587	-0.043657	-0.332512	-0.001611	-0.141160	-0.330942	0.013472	0.005972	-0.334074	0.033540	0.049975	-0.334526	-0.003144	-0.016064	-0.333300	-0.049364	0.011455	-0.332683	-0.026213	0.001012	-0.344072	0.034473	0.023071	-0.343257	0.006810	0.018034	-0.345356	-0.022030	-0.006670	-0.348304	0.046155	-0.058678	-0.357262	0.033893	-0.055806	-0.355258	-0.031798	0.016360	-0.354653	0.005709	0.010367	-0.355642	-0.035956	0.060669	-0.356133	-0.069412	0.011086	-0.352529	-0.070575	-0.009532	-0.342129	-0.010152	0.004624	-0.344008	0.055214	-0.095921	-0.345359	0.160168	-0.049982	-0.341564	-0.053501	0.018260	-0.330893	0.029051	0.074422	-0.332808	-0.068037	0.048841	-0.334296	-0.018377	0.149831	-0.333741	0.073640	0.011138	-0.332964	0.002446	-0.136553	-0.332974	0.024752	-0.066868	-0.333383	-0.084015	-0.006435	-0.333556	-0.193667	0.185979	-0.333414	0.026707	0.023970	-0.333250	0.257147	-0.126952	-0.344246	0.091299	-0.223228	-0.343019	-0.051638	-0.165682	-0.345143	-0.066133	-0.003559	-0.348330	-0.134448	0.059519	-0.357392	0.157642	0.073371	-0.355310	0.072900	0.072474	-0.354608	-0.068575	0.130078	-0.355591	0.009545	-0.025177	-0.356132	0.013084	-0.102591	-0.352556	-0.082200	0.137668	-0.342143	-0.030674	0.051279	-0.340784	-0.038685	-0.009555	-0.332171	-0.135721	0.086972	-0.333461	0.084028	-0.043987	-0.322855	-0.047605	0.077477	-0.323528	-0.022788	0.128527	-0.321210	0.137878	-0.066727	-0.321513	0.057476	-0.107548	-0.322627	0.125151	-0.075371	-0.322784	0.043330	-0.216846	-0.322234	0.109574	-0.165360	-0.321907	-0.053772	0.026724	-0.322059	-0.194968	-0.073125	-0.322316	-0.080401	0.081593	-0.322359	-0.016311	-0.025343	-0.322240	-0.064357	0.046676	-0.333156	-0.019213	0.188611	-0.331864	-0.012061	0.045791	-0.333998	0.053011	0.049076	-0.337226	0.062614	0.031118	-0.346303	0.108759	-0.058340	-0.333207	-0.058132	-0.020596	-0.333804	-0.064261	-0.050207	-0.332710	-0.082750	0.157706	-0.333264	0.188304	0.025300	-0.333768	0.157461	-0.034542	-0.333532	-0.034074	-0.124582	-0.333148	-0.173886	-0.083293	-0.333123	-0.002830	0.005678	-0.333334	-0.254276	0.091392	-0.330236	0.168889	0.106153	-0.317002	0.219689	-0.158469	-0.308806	-0.011224	-0.157328	-0.314961	-0.093713	0.017526	-0.336365	-0.026092	0.075553	-0.346112	-0.010776	0.021451	-0.366263	-0.092502	0.010557	-0.377398	0.039324	0.029029	-0.374092	0.027255	0.042169	-0.362362	-0.021677	-0.028202	-0.342473	-0.018442	0.058839	-0.345964	-0.024297	0.021888	-0.333539	0.049905	-0.085652	-0.334078	-0.018795	0.091931	-0.332490	0.130572	0.048012	-0.333007	-0.055197	-0.235023	-0.333796	0.055834	-0.000521	-0.333699	0.206833	0.130716	-0.336432	-0.096447	-0.002612	-0.346239	-0.097725	-0.210602	-0.344582	-0.050305	-0.021871	-0.343671	-0.069736	-0.161625	-0.355346	0.008817	-0.018366	-0.343547	0.072306	0.047009	-0.346735	-0.088013	0.087732	-0.344291	-0.040214	0.095735	-0.343389	-0.302280	0.140201	-0.344215	0.080484	0.043384	-0.344923	0.413440	-0.113301	-0.344778	-0.062365	0.036513	-0.344336	0.013635	0.033523	-0.344207	0.032979	0.013227	-0.344387	0.020685	0.067572	-0.344546	-0.007905	-0.113888	-0.344527	-0.170570	0.033832	-0.341215	0.017881	-0.013505	-0.331216	0.065575	-0.092734	-0.333109	-0.085866	0.083157	-0.334243	-0.027933	0.339831	-0.333547	0.089263	0.036397	-0.332900	0.007008	-0.177124	-0.344049	-0.110343	-0.403884	-0.343140	-0.039610	-0.055385	-0.345313	0.141964	0.048540	-0.356130	0.082949	0.128999	-0.353812	-0.038123	-0.169135	-0.355702	0.070451	-0.138430	-0.356166	-0.049861	0.021665	-0.355611	-0.043232	0.096194	-0.355276	-0.050764	0.138343	-0.355427	-0.070691	0.108477	-0.355655	0.021967	-0.005953	-0.366672	0.059475	0.015939	-0.365240	-0.158878	0.144778	-0.367253	-0.006565	0.001650	-0.356282	0.104647	-0.145342	-0.356787	0.161179	0.025102	-0.354500	0.108263	-0.121139	-0.354857	-0.105176	0.059861	-0.355978	-0.142447	0.138565	-0.356117	0.083385	0.246021	-0.355559	-0.076206	-0.259392	-0.355237	-0.022282	-0.420447	-0.355396	0.030822	-0.055800	-0.355652	-0.086744	0.113365	-0.355692	0.054522	0.094042	-0.355572	0.182242	0.011462	-0.366489	-0.051707	-0.018874	-0.365197	0.015043	-0.022753	-0.367332	-0.033844	-0.011304	-0.367344	0.045685	0.030094	-0.366459	-0.025576	0.096162	-0.366222	-0.022986	0.035432	-0.366601	-0.020073	-0.010757	-0.366889	-0.013408	0.025481	-0.366811	0.006928	0.053596	-0.366615	-0.105872	-0.044623	-0.366561	0.050025	-0.018328	-0.366642	0.095954	-0.004050	-0.366712	-0.113465	-0.036126	-0.366703	-0.068393	0.020246	-0.366660	0.100106	-0.025713	-0.366644	0.144619	0.078815	-0.366659	-0.059746	0.055122	-0.366675	-0.005646	-0.066858	-0.366675	-0.130287	0.082985	-0.366666	0.132611	-0.025985	-0.366662	-0.066277	-0.192179	-0.366664	-0.021465	-0.229420	-0.366668	-0.062518	0.160177	-0.366669	-0.047262	-0.012708	-0.366667	0.052783	0.150867	-0.366666	0.164993	-0.089165	-0.366666	0.018366	-0.174258	-0.366667	-0.075204	-0.128499	-0.366667	0.005346	0.077536	-0.366667	0.070112	0.212100	-0.358883	-0.023803	0.028098	-0.370159	-0.035507	0.006250	-0.366222	-0.014460	0.023827	-0.365129	-0.019187	0.015933	-0.366686	-0.101124	0.102669	-0.367531	-0.079037	0.012591	-0.366994	0.113096	-0.040721	-0.366319	0.136038	-0.181525	-0.359206	0.063228	0.063788	-0.358472	-0.064197	-0.078273	-0.368510	0.026820	0.010421	-0.367087	0.017591	0.028771	-0.365916	-0.039477	0.028179	-0.366388	-0.218629	0.120791	-0.366984	0.116959	0.056566	-0.366935	0.000086	-0.110415	-0.366602	-0.100455	-0.335912	-0.366486	0.204378	-0.010829	-0.366615	-0.148282	0.121294	-0.366741	-0.075715	0.174445	-0.366733	0.061756	0.186239	-0.366659	0.123239	-0.249808	-0.366627	-0.039220	-0.106557	-0.366651	0.118064	0.027886	-0.366680	0.021586	0.023143	-0.366682	-0.042419	0.061458	-0.366667	-0.072324	-0.024696	-0.366659	-0.021060	0.030744	-0.366662	-0.039449	-0.021043	-0.366669	-0.052532	0.056920	-0.366670	0.045744	0.001006	-0.366667	0.026729	-0.010898	-0.366665	0.000621	-0.044938	-0.366666	-0.056247	0.036936	-0.366667	-0.021946	-0.024024	-0.366667	0.044021	0.056817	-0.366667	-0.138882	-0.135432	-0.366666	0.102368	-0.082810	-0.366666	0.178532	0.091144	-0.366667	-0.041278	0.191090	-0.366667	-0.073025	-0.133703	-0.366667	0.162171	0.028404	-0.366667	-0.101006	0.118217	-0.366667	-0.041683	-0.046622	-0.366667	-0.047122	-0.172351	-0.366667	-0.078744	0.012282	-0.366667	0.117159	-0.060298	-0.366667	0.045354	0.055687	-0.366667	-0.169834	0.015362	-0.366667	-0.024920	-0.084612	-0.366667	0.140028	-0.040923	-0.366667	0.045491	0.020243	-0.366667	-0.026896	0.060859	-0.366667	0.029040	0.073713	-0.366667	0.016231	0.031755	-0.366667	0.045524	0.004377	-0.366667	-0.043148	0.034578	-0.366667	-0.064843	0.000643	-0.366667	-0.033093	0.081294	-0.366667	0.120348	-0.061826	-0.366667	-0.046810	-0.032596	-0.366667	-0.044155	-0.060362	-0.366667	-0.018757	0.015753	-0.366667	0.054855	-0.013306	-0.366667	-0.008967	-0.024759	-0.366667	-0.036673	0.042967	-0.366667	-0.078151	0.060963	-0.366667	0.032961	-0.066577	-0.366667	-0.017497	-0.061094	-0.366667	0.025151	0.050392	-0.366667	0.126138	-0.038300	-0.366667	0.023125	0.033410	-0.366667	0.010610	0.015135	-0.366667	-0.093213	0.008245	-0.366667	-0.086972	-0.004084	-0.366667	0.092273	0.011037	-0.366667	0.012178	0.129497	-0.366667	0.066806	-0.117552	-0.366667	0.019287	-0.042097	-0.366667	-0.057022	0.070862	-0.366667	-0.132355	0.119869	-0.366667	0.099926	-0.009748	-0.366667	-0.005167	-0.150962	-0.366667	-0.034002	0.119062	-0.366667	-0.044573	-0.009475	-0.366667	0.001891	-0.039155	-0.366667	0.018345	0.077564	-0.366667	0.064949	-0.326069	-0.366667	-0.027315	0.020206	-0.366667	0.014484	0.025393	-0.366667	0.074469	-0.035651	-0.366667	0.044818	0.024320	-0.363451	-0.175990	0.086765	-0.353490	-0.024645	0.019417	-0.355350	0.147873	0.050920	-0.356446	-0.034698	0.017714	-0.355750	0.042120	-0.012399	-0.355123	-0.001052	0.002437	-0.355283	0.005591	-0.025036	-0.355683	-0.038436	0.025698	-0.355771	-0.064226	0.112966	-0.355590	0.026206	0.017066	-0.355453	0.003302	-0.142458	-0.358701	0.000365	0.072754	-0.368752	0.030068	0.128470	-0.366921	-0.001528	-0.041134	-0.365790	-0.017417	-0.103889	-0.363237	-0.000138	-0.069048	-0.353906	0.008331	-0.057430	-0.355624	0.020531	-0.073206	-0.356329	0.083163	-0.002619	-0.355539	-0.060971	0.001792	-0.355085	-0.050425	0.037908	-0.355381	-0.055809	0.011191	-0.355754	-0.103897	0.082526	-0.355753	0.061933	0.029315	-0.355543	0.097563	-0.064293	-0.355439	-0.007601	-0.024372	-0.355504	-0.082461	0.032155	-0.355593	0.018518	0.031851	-0.355602	-0.000473	0.002960	-0.352343	0.149498	-0.013109	-0.342355	-0.000562	-0.039409	-0.344225	0.034532	0.035551	-0.345341	0.005490	0.041224	-0.344650	-0.058458	0.002080	-0.344014	-0.034761	0.010177	-0.344167	-0.082535	-0.098745	-0.347784	0.037406	-0.029588	-0.357837	0.015595	-0.051146	-0.355798	0.031181	0.030792	-0.354564	0.024233	0.151013	-0.355289	-0.022339	0.061462	-0.356008	-0.073443	0.008625	-0.355877	-0.003111	-0.171382	-0.355442	0.016521	-0.188305	-0.355321	0.091294	0.047267	-0.355504	0.023076	-0.039000	-0.355660	0.030985	0.003198	-0.355636	-0.102489	0.056526	-0.355540	-0.126734	0.081968	-0.355504	-0.090251	0.040303	-0.355538	0.172116	0.001849	-0.355575	0.165148	-0.003289	-0.355575	-0.077623	-0.011640	-0.355555	0.000427	0.009643	-0.355545	0.081411	0.072424	-0.358766	0.008844	0.003553	-0.368735	-0.017114	-0.036261	-0.366877	0.009690	-0.008683	-0.365776	0.009764	0.044940	-0.366470	-0.122965	-0.020447	-0.367098	-0.007140	-0.046672	-0.366940	-0.045808	0.039077	-0.366540	-0.003017	-0.019865	-0.366452	0.033562	-0.105392	-0.366632	0.021164	-0.069872	-0.366769	0.044744	0.010018	-0.363522	-0.003296	0.012512	-0.353470	-0.052228	0.030787	-0.355301	-0.012773	0.039623	-0.356433	0.004223	0.035305	-0.355770	0.040939	0.135532	-0.355140	0.010150	-0.045845	-0.355281	0.004701	-0.048459	-0.355673	-0.036286	0.084256	-0.355767	0.025639	-0.107367	-0.355594	0.027280	-0.157395	-0.355457	-0.062600	0.042955	-0.355485	-0.004882	0.041879	-0.355574	0.167725	-0.037917	-0.355603	-0.038629	0.010742	-0.355570	-0.093877	-0.000398	-0.355537	-0.082153	0.045668	-0.355539	0.085175	0.012454	-0.355557	0.081166	0.003868	-0.355566	-0.043735	-0.045074	-0.355560	-0.011309	-0.007789	-0.355552	-0.002472	-0.040548	-0.355552	-0.007621	-0.017906	-0.355555	-0.018310	0.008858	-0.355558	0.003415	0.036863	-0.355557	-0.031198	0.120296	-0.355555	-0.018388	-0.020131	-0.355555	-0.030871	-0.123692	-0.366555	0.040245	0.037407	-0.365240	0.066799	0.119602	-0.367318	0.034948	-0.080587	-0.367314	-0.007334	-0.113734	-0.366452	0.004025	-0.035507	-0.366235	-0.027757	0.080912	-0.355612	-0.031639	0.007922	-0.357203	0.003257	0.014535	-0.355043	0.068551	-0.040814	-0.354854	-0.042522	0.018721	-0.355666	-0.019868	0.027083	-0.355965	-0.017117	0.014655	-0.355656	0.011990	0.007617	-0.355370	0.024566	0.013658	-0.355410	-0.069588	-0.011103	-0.355587	0.059038	0.017406	-0.355652	0.017814	-0.133476	-0.355587	-0.018106	-0.023376	-0.355519	-0.031087	0.011350	-0.355520	0.023766	0.032301	-0.355558	0.007619	-0.000772	-0.355576	-0.023218	0.017437	-0.355565	0.005873	0.005132	-0.355549	0.044586	-0.026839	-0.355547	-0.037569	-0.033202	-0.355555	-0.005315	0.035484	-0.355560	0.033500	0.061665	-0.355558	-0.014821	-0.043167	-0.355555	-0.018001	-0.033110	-0.366553	0.016766	-0.004565	-0.362023	0.020614	-0.004674	-0.361925	-0.063838	0.064071	-0.352505	
531 1
0.037613	0.038644	0.039564	0.040435	0.041290	0.042132	0.042959	0.043776	0.044441	0.045018	0.045592	0.046173	0.046803	0.047762	0.048671	0.049677	0.051223	0.052565	0.053153	0.053876	0.054559	0.055209	0.056185	0.057370	0.058601	0.060043	0.061350	0.062094	0.062943	0.063610	0.064155	0.064531	0.064828	0.065129	0.065432	0.065730	0.066397	0.067293	0.068158	0.068971	0.069438	0.069713	0.069989	0.070288	0.070578	0.070810	0.071046	0.071058	0.070936	0.070665	0.070322	0.069998	0.069804	0.069590	0.069380	0.069173	0.068936	0.068493	0.068080	0.067774	0.067533	0.067312	0.067185	0.067061	0.067067	0.067052	0.067002	0.066960	0.066914	0.066866	0.066799	0.066599	0.066420	0.066065	0.065645	0.065504	0.065337	0.065185	0.065036	0.064859	0.064541	0.064246	0.063967	0.063696	0.063424	0.063144	0.062888	0.062780	0.062650	0.062528	0.062422	0.062313	0.062202	0.062091	0.061836	0.061495	0.061218	0.060993	0.060769	0.060518	0.060293	0.060233	0.060150	0.060075	0.060003	0.059954	0.059917	0.059885	0.059889	0.059887	0.059843	0.059668	0.059628	0.059577	0.059505	0.059434	0.059354	0.059265	0.059171	0.059076	0.058916	0.058717	0.058586	0.058501	0.058417	0.058283	0.058141	0.058137	0.058118	0.058105	0.058101	0.058098	0.058094	0.058091	0.058089	0.058094	0.058098	0.058052	0.057977	0.057950	0.057957	0.057964	0.057967	0.057973	0.058019	0.058059	0.058175	0.058334	0.058486	0.058628	0.058810	0.059265	0.059649	0.059843	0.060075	0.060295	0.060504	0.060715	0.062275	0.062648	0.063380	0.063876	0.064439	0.066119	0.067000	0.067486	0.067955	0.068456	0.068963	0.069652	0.070452	0.071258	0.072212	0.073261	0.074433	0.076361	0.078185	0.080147	0.082122	0.084112	0.086222	0.088310	0.090410	0.092518	0.097350	0.103834	0.109888	0.115448	0.121263	0.129100	0.136119	0.139441	0.143354	0.147073	0.150656	0.156182	0.162938	0.170023	0.178858	0.186719	0.190578	0.195177	0.199545	0.203710	0.210444	0.218823	0.227065	0.233752	0.240575	0.247830	0.257796	0.266958	0.273651	0.280814	0.287264	0.293243	0.298759	0.301249	0.304234	0.307025	0.309683	0.312896	0.319502	0.325563	0.331416	0.336830	0.338441	0.340568	0.342522	0.344379	0.346289	0.349991	0.354740	0.358501	0.361520	0.364596	0.368332	0.371733	0.373200	0.374934	0.376583	0.378185	0.380273	0.385385	0.390112	0.395438	0.400629	0.404791	0.409076	0.412043	0.414223	0.416407	0.418705	0.421287	0.425626	0.429373	0.431277	0.433555	0.435686	0.437483	0.439328	0.441841	0.444740	0.446996	0.448805	0.450599	0.452470	0.454628	0.458503	0.462093	0.465949	0.469983	0.472288	0.473499	0.474674	0.476004	0.477410	0.479040	0.480592	0.482345	0.484237	0.485562	0.486510	0.487438	0.488420	0.489599	0.491943	0.494093	0.497003	0.500386	0.503336	0.505943	0.508531	0.511296	0.514153	0.516729	0.517566	0.518663	0.519694	0.520675	0.521362	0.521886	0.522257	0.521664	0.521215	0.520229	0.518915	0.517981	0.517331	0.516693	0.516431	0.516415	0.516423	0.516414	0.516487	0.517155	0.517736	0.518443	0.519807	0.520376	0.520544	0.520723	0.520611	0.520290	0.519942	0.519613	0.518952	0.518080	0.517205	0.516412	0.515616	0.514594	0.513433	0.512702	0.512252	0.511812	0.511332	0.510799	0.510001	0.509256	0.508873	0.508704	0.508542	0.508553	0.508636	0.508445	0.508286	0.508035	0.507306	0.506654	0.505984	0.505295	0.504609	0.503930	0.503130	0.501518	0.500027	0.498648	0.497336	0.496036	0.494426	0.492625	0.491114	0.489806	0.488595	0.487922	0.487154	0.486424	0.485721	0.484412	0.482726	0.481051	0.479443	0.477920	0.476852	0.475699	0.474573	0.473472	0.471235	0.468297	0.465498	0.462890	0.460125	0.456167	0.452656	0.451034	0.449098	0.447266	0.445509	0.443235	0.437705	0.432845	0.429070	0.425016	0.420840	0.415386	0.410128	0.405948	0.402432	0.398967	0.395452	0.391349	0.383519	0.376265	0.366596	0.355438	0.345096	0.335489	0.326307	0.319453	0.312160	0.305036	0.295192	0.283579	0.276369	0.272113	0.267993	0.263464	0.258416	0.250793	0.243679	0.235529	0.226688	0.219793	0.214225	0.208722	0.202375	0.195578	0.189296	0.186115	0.182478	0.178928	0.175457	0.169781	0.162738	0.157168	0.152703	0.148434	0.144890	0.141150	0.138833	0.137399	0.135967	0.134384	0.132707	0.130657	0.128709	0.126737	0.124732	0.123472	0.122684	0.121915	0.121084	0.120148	0.118659	0.117273	0.116008	0.114808	0.113614	0.112220	0.110706	0.109144	0.107308	0.105671	0.105020	0.104204	0.103441	0.102717	0.101630	0.100307	0.099382	0.098744	0.098141	0.097617	0.097115	0.096998	0.096842	0.096699	0.096560	0.096317	0.096014	0.095692	0.095241	0.094807	0.094336	0.093862	0.093505	0.093221	0.092939	0.092647	0.092317	0.091759	0.091238	0.090617	0.089931	0.089484	0.089195	0.088910	0.088754	0.088685	0.088626	0.088561	0.088488	0.088387	0.088290	0.088180	0.088070	0.087963	0.087858	0.087754	0.087649	0.087527	0.087288	0.087086	0.087008	0.086906	0.086842	0.086801	0.086760	0.086697	0.086624	0.086552	0.086483	0.086427	0.086378	0.086320	0.086208	0.086105	0.085969	0.085813	0.085736	
513 3
-0.063838	0.064071	-0.352505	-0.015380	-0.037530	-0.356676	0.065162	0.012467	-0.356856	0.037292	-0.056701	-0.355048	0.013400	-0.026354	-0.354639	-0.015318	0.047526	-0.355494	0.025545	-0.034655	-0.356065	-0.013534	0.047317	-0.355840	-0.057031	-0.004563	-0.355411	-0.011368	-0.117848	-0.355324	-0.025819	0.076694	-0.355517	0.050792	-0.009038	-0.355662	0.029732	-0.005901	-0.355630	-0.035032	0.011697	-0.355535	-0.009131	-0.006318	-0.355505	0.079743	0.031166	-0.355541	-0.045529	-0.006709	-0.355576	-0.010844	0.002439	-0.355573	-0.086075	0.022981	-0.355554	0.024342	-0.012239	-0.355545	0.099034	-0.033362	-0.355551	0.000582	0.007410	-0.355559	0.009206	0.003130	-0.366559	0.029687	0.036677	-0.365240	0.016085	-0.018713	-0.367315	-0.036433	-0.006049	-0.367313	-0.064712	-0.035618	-0.366453	0.023316	0.066266	-0.366236	-0.031818	0.041999	-0.366612	-0.033853	-0.104554	-0.366887	0.012640	-0.020388	-0.366805	-0.029500	0.006331	-0.366612	0.004499	-0.012272	-0.366563	0.037977	0.067104	-0.366644	0.041034	-0.028314	-0.366712	0.008893	-0.040741	-0.366702	0.010843	-0.037143	-0.366660	-0.099413	-0.011765	-0.366644	-0.017697	-0.038203	-0.366659	0.068554	0.006328	-0.363459	0.008824	0.013100	-0.353498	-0.034827	0.081315	-0.355349	0.092007	0.039923	-0.356441	0.037808	-0.080985	-0.355748	-0.065378	0.002407	-0.355124	-0.058266	0.042544	-0.355285	-0.012848	-0.016662	-0.355683	-0.001631	-0.034493	-0.358985	0.005307	0.004230	-0.368766	-0.049532	0.085168	-0.366770	0.029357	0.042105	-0.365706	0.053124	-0.150564	-0.366492	-0.010830	-0.029466	-0.367148	-0.031147	-0.007086	-0.366953	0.042564	0.028175	-0.366520	-0.028525	-0.004688	-0.366435	-0.001296	-0.007041	-0.366634	-0.012983	-0.015275	-0.366779	-0.050236	0.023314	-0.366741	0.077879	0.007844	-0.366643	0.062799	0.048489	-0.366614	0.006207	-0.042471	-0.366653	-0.140911	0.046141	-0.366688	0.041358	-0.001956	-0.366685	0.018348	-0.083987	-0.366664	-0.023961	-0.043117	-0.366656	0.015429	-0.003295	-0.366663	0.029441	-0.048015	-0.366671	-0.011835	0.017788	-0.366671	-0.066092	0.023505	-0.366667	0.025507	0.034700	-0.366664	0.064759	0.148971	-0.366666	-0.162729	-0.012443	-0.366667	-0.084475	-0.101450	-0.366668	0.148506	0.015775	-0.366667	0.140456	-0.018011	-0.366666	0.078382	0.018735	-0.366666	-0.086784	-0.093900	-0.366667	-0.029965	-0.061083	-0.366667	-0.108632	-0.073732	-0.366667	-0.057818	0.107289	-0.366667	0.054496	0.128520	-0.366667	-0.141518	0.008755	-0.366667	-0.043986	0.150407	-0.366667	0.278532	-0.169849	-0.366667	0.086730	-0.235356	-0.366667	0.076617	-0.007979	-0.366667	0.029445	0.069682	-0.366667	-0.066156	0.105720	-0.366667	-0.050235	0.097241	-0.366667	-0.075506	-0.001767	-0.366667	0.074196	0.035974	-0.369882	-0.074044	0.042184	-0.379843	-0.069976	-0.204795	-0.377983	0.027051	-0.214724	-0.376887	-0.005373	0.150329	-0.377583	-0.020225	0.028866	-0.378211	-0.055313	0.108582	-0.378050	0.115610	0.117077	-0.366651	0.137602	-0.155809	-0.367879	-0.072083	-0.129076	-0.365982	0.080937	0.004784	-0.366122	0.064583	0.011835	-0.366952	-0.123710	-0.003385	-0.367078	-0.063449	0.155505	-0.366673	-0.063095	0.034554	-0.366433	-0.003984	-0.054194	-0.366548	0.054214	-0.007729	-0.366738	0.056171	-0.034181	-0.366768	-0.001087	-0.089842	-0.366679	-0.034265	-0.061071	-0.366618	0.025042	-0.007623	-0.366635	0.048901	0.043857	-0.366677	0.021962	0.235925	-0.366689	-0.051341	-0.007083	-0.366672	-0.129921	-0.166701	-0.366657	0.012452	-0.064337	-0.366659	0.178113	0.082419	-0.366668	-0.054210	0.005974	-0.366671	-0.052996	0.004970	-0.366668	0.084728	0.068130	-0.366665	0.024001	-0.036126	-0.366665	-0.030304	0.024171	-0.366667	-0.092741	-0.047240	-0.366668	0.000620	-0.020747	-0.366667	0.175119	-0.200717	-0.366666	-0.198901	0.089134	-0.366666	-0.031613	0.002225	-0.366667	0.007265	-0.173177	-0.366667	0.049774	-0.029040	-0.366667	0.010969	0.114517	-0.366667	-0.062660	0.137887	-0.366667	-0.068932	0.001450	-0.366667	0.221120	0.071648	-0.366667	0.063297	0.070974	-0.366667	-0.038035	-0.013927	-0.366667	-0.047822	-0.131958	-0.366667	-0.023841	-0.070741	-0.366667	-0.016954	-0.015745	-0.366667	-0.017252	-0.025655	-0.366667	-0.036014	0.113242	-0.366667	0.017469	0.190506	-0.366667	-0.010878	0.003619	-0.369882	0.046691	-0.232077	-0.379843	-0.187137	0.069170	-0.377983	0.026615	-0.149573	-0.365888	0.168963	-0.039542	-0.367899	-0.061937	0.064985	-0.366449	-0.177844	0.043505	-0.366292	0.148456	0.069607	-0.366754	0.040833	-0.049920	-0.366883	0.226255	-0.068324	-0.366687	-0.092928	0.147850	-0.355549	-0.070765	-0.001239	-0.356915	-0.025793	-0.009858	-0.354939	-0.115761	-0.018786	-0.365963	0.004840	-0.023298	-0.365463	0.019172	0.063176	-0.367724	0.032392	0.003559	-0.367351	-0.061040	-0.074085	-0.366236	0.034110	-0.066029	-0.366109	0.059097	-0.030800	-0.366669	-0.104881	-0.005709	-0.366986	-0.049290	-0.000738	-0.366823	0.157570	0.020528	-0.366568	-0.014498	-0.059478	-0.366531	0.171772	0.051734	-0.366652	-0.018641	0.033924	-0.366733	-0.109457	-0.119667	-0.366708	-0.105587	-0.052536	-0.366651	0.017465	0.273612	-0.366637	-0.037940	0.055855	-0.366660	-0.074382	-0.028943	-0.366680	0.102835	-0.007043	-0.366677	0.141101	-0.184460	-0.366665	-0.079779	-0.077945	-0.366660	-0.064228	-0.007398	-0.366664	0.023913	-0.060827	-0.366669	0.046440	0.036443	-0.366669	-0.065075	0.077636	-0.366667	-0.044598	0.017936	-0.366665	0.077694	0.004079	-0.366666	0.019440	-0.042625	-0.366667	0.051676	0.006739	-0.366667	-0.005380	0.076854	-0.366667	-0.081974	0.106444	-0.366666	-0.035670	-0.089061	-0.366667	-0.079931	0.044798	-0.366667	0.009110	-0.000068	-0.366667	0.015586	-0.069810	-0.366667	0.147991	-0.052473	-0.366667	0.095036	-0.072007	-0.366667	0.013588	0.112064	-0.366667	-0.076895	0.126333	-0.366667	-0.055021	-0.065664	-0.366667	-0.186687	-0.131871	-0.366667	0.154456	0.110986	-0.366667	0.104239	0.086321	-0.366667	-0.002809	0.094667	-0.366667	-0.191318	-0.353394	-0.366667	0.057829	-0.266556	-0.366667	0.118965	-0.094641	-0.366667	0.014063	0.113176	-0.366667	0.009085	0.086127	-0.366667	-0.063319	0.080462	-0.366667	-0.043663	0.163420	-0.366667	0.049991	0.094508	-0.366667	-0.124807	-0.096606	-0.366667	0.015265	0.020716	-0.366667	0.141609	0.006774	-0.366667	-0.010892	-0.000042	-0.366667	0.010278	0.019016	-0.366667	0.004558	-0.012259	-0.366667	-0.053037	-0.022659	-0.366667	0.014613	-0.034794	-0.366667	-0.017060	-0.021049	-0.366667	0.010388	0.025212	-0.366667	-0.001129	0.005290	-0.366667	-0.066577	0.029149	-0.366667	0.056791	0.094904	-0.366667	0.051043	-0.111576	-0.366667	-0.037890	-0.181430	-0.366667	-0.059607	-0.008902	-0.366667	-0.232624	0.075653	-0.366667	0.081205	0.066121	-0.366667	0.118846	-0.021953	-0.366667	0.096270	-0.020444	-0.366667	-0.014100	-0.014221	-0.366667	-0.036381	-0.032837	-0.366667	0.016169	-0.017740	-0.366667	-0.016005	-0.011658	-0.366667	-0.021628	0.077837	-0.366667	0.035417	0.062723	-0.366667	0.042349	-0.077563	-0.366667	0.008393	0.023909	-0.366667	0.050467	0.003138	-0.366667	-0.034626	-0.004647	-0.366667	-0.007139	-0.021674	-0.363451	-0.083746	-0.009924	-0.353490	-0.047514	0.019388	-0.355350	0.029988	-0.037725	-0.356446	0.044738	-0.032740	-0.355750	0.016718	0.045995	-0.355123	-0.029626	-0.085320	-0.355283	-0.011402	0.016470	-0.355683	-0.022820	-0.009683	-0.355771	-0.075689	0.136146	-0.355590	0.054256	-0.051429	-0.355453	0.086800	0.002827	-0.355485	0.040866	0.226529	-0.355576	-0.029918	0.008670	-0.355604	-0.000657	-0.256352	-0.355569	-0.000703	-0.141515	-0.355536	0.008581	0.076715	-0.355539	-0.046600	-0.024760	-0.355558	-0.003844	0.063241	-0.355566	0.005592	-0.014178	-0.355560	0.031186	-0.004300	-0.366551	0.006549	0.028650	-0.365235	0.016869	0.038858	-0.367317	-0.024357	0.027059	-0.367316	-0.045947	0.023714	-0.355454	-0.029783	-0.014732	-0.356550	0.026035	0.023177	-0.354849	-0.042950	-0.008395	-0.355129	0.023838	0.008237	-0.355909	-0.021230	-0.013721	-0.355933	0.047011	-0.076738	-0.355507	0.020312	-0.029860	-0.355312	-0.039398	0.067925	-0.355462	0.005631	0.159830	-0.355645	-0.012869	-0.070171	-0.355653	-0.146537	-0.245987	-0.358772	0.043678	0.015595	-0.368680	0.129173	0.021275	-0.366846	0.012926	0.165106	-0.365791	0.014482	0.015514	-0.366494	0.004952	-0.202782	-0.356103	-0.011645	-0.098468	-0.357245	-0.007664	0.074197	-0.354771	-0.023937	-0.012088	-0.354696	0.041322	0.074592	-0.355740	-0.005497	-0.001734	-0.356091	0.002883	-0.011706	-0.355679	-0.006281	-0.043442	-0.352098	-0.067319	0.018351	-0.342193	-0.011593	0.011803	-0.344281	0.012525	0.023421	-0.356458	0.033070	0.036526	-0.354362	0.057585	0.037172	-0.355726	0.046206	-0.035914	-0.355885	-0.114316	-0.010034	-0.355472	-0.069832	-0.070855	-0.355365	0.001728	0.027783	-0.355546	0.089093	-0.005509	-0.355666	0.126074	-0.037526	-0.355613	-0.122804	0.016731	-0.355521	0.004193	-0.018027	-0.358721	0.043238	0.020064	-0.368726	-0.029116	0.063668	-0.366897	-0.051688	0.062202	-0.365792	0.032686	-0.069334	-0.366467	-0.023858	0.046411	-0.367088	-0.010219	-0.085135	-0.366937	-0.012349	-0.100329	-0.366544	0.004057	0.110862	-0.366455	0.058025	-0.109335	-0.366632	0.006999	-0.019384	-0.355767	0.033387	0.076306	-0.357053	0.046262	0.003137	-0.354886	-0.042817	-0.134993	-0.354861	-0.012218	-0.007808	-0.355757	-0.083064	0.058003	-0.356006	0.031491	0.006648	-0.355628	0.056506	0.006842	-0.355333	-0.006589	0.024577	-0.355407	0.021373	0.048853	-0.355606	-0.006117	-0.035643	-0.355663	-0.003514	-0.049328	-0.355582	-0.083189	0.016204	-0.355511	-0.022730	-0.000576	-0.366518	0.000071	0.060917	-0.365245	0.045205	-0.066803	-0.367340	0.015823	0.125196	-0.367322	0.017239	-0.074299	-0.366444	0.036245	-0.118109	-0.366226	-0.044813	0.004145	-0.366612	-0.000020	0.012446	-0.366892	0.029100	0.005695	-0.366807	0.033661	-0.013812	-0.366611	0.037753	0.021415	-0.366561	-0.071872	0.049046	-0.366644	-0.014906	0.073618	-0.363497	-0.013563	-0.083112	-0.353526	-0.087572	-0.038723	-0.355343	-0.015150	0.060623	-0.356423	0.020873	-0.062952	-0.355743	0.062866	-0.025129	-0.355131	-0.071854	0.017850	-0.355291	0.012579	0.002355	-0.355683	0.067650	-0.003783	-0.355766	0.009554	-0.101157	-0.355588	0.041700	0.117893	-0.355455	-0.010939	0.041965	-0.355487	0.016343	-0.050557	-0.355576	-0.028449	-0.005785	-0.355603	0.004183	0.104672	-0.355568	-0.021409	0.020284	-0.355536	0.015286	-0.040106	-0.355539	0.006517	-0.259550	-0.355558	0.019967	0.011194	-0.355566	0.001878	0.040135	-0.355559	-0.040547	0.009808	-0.355552	-0.029754	0.037271	-0.355552	0.012916	-0.011469	-0.355556	-0.009862	0.074241	-0.355558	0.059781	-0.028932	-0.355557	0.014944	-0.050866	-0.355555	0.000990	0.062584	-0.355555	-0.059392	0.056271	-0.355555	-0.103319	-0.028991	-0.355556	0.130636	-0.069205	-0.355556	0.042192	-0.020705	-0.355555	-0.007915	0.022912	-0.355555	-0.001882	-0.050406	-0.355556	-0.000091	0.007453	-0.355556	-0.027603	0.027729	-0.355556	-0.020024	-0.001989	-0.355556	0.031412	-0.026415	-0.355556	0.004874	0.101775	-0.355556	-0.015765	0.035135	-0.355556	-0.020199	-0.145583	-0.355556	0.010569	-0.042367	-0.355556	-0.024635	0.050992	-0.355556	-0.022152	0.030942	-0.355556	-0.019423	0.027557	-0.355556	0.043061	0.008343	-0.355556	0.044447	0.009936	-0.355556	-0.007265	-0.025524	-0.355556	0.009963	0.020226	-0.355556	0.057633	0.015288	-0.355556	-0.013365	0.010311	-0.355556	-0.037938	-0.002486	-0.355556	0.021821	-0.017535	-0.355556	-0.036093	0.011404	-0.358771	-0.041971	-0.020442	-0.368732	0.032533	0.010837	-0.363657	0.003374	-0.060966	-0.352600	-0.096597	-0.028507	-0.355155	0.000781	0.056991	-0.356879	0.090053	0.032717	-0.356023	0.016445	-0.011803	-0.354995	0.044904	0.004403	-0.355068	-0.129484	-0.080566	-0.355649	-0.025625	-0.003944	-0.355873	0.073877	0.005533	-0.355661	-0.044279	0.040141	-0.355433	0.017147	0.079953	-0.355437	0.038507	0.028379	-0.355562	0.033800	-0.134866	-0.355624	-0.037526	-0.068930	-0.355586	0.016539	0.014796	-0.355534	0.119772	0.084588	-0.355528	-0.081866	-0.050232	-0.355554	-0.073623	-0.039489	-0.355569	0.038776	-0.048405	-0.355564	0.020943	-0.037227	-0.355552	-0.037387	0.036477	-0.355549	0.032722	0.062719	-0.355554	-0.017990	0.042022	-0.355558	0.018066	0.016004	-0.355558	-0.048921	-0.056339	-0.355555	-0.065231	-0.008818	-0.355554	-0.001951	-0.054456	-0.355555	0.039138	0.036381	-0.355556	0.011726	-0.001260	-0.355556	0.051644	0.005361	-0.355556	0.046091	-0.026415	-0.355555	-0.012217	0.057331	-0.355555	-0.098940	0.013712	-0.355556	0.041075	-0.014247	-0.355556	0.026703	-0.050938	-0.355556	0.007549	0.075325	-0.355555	0.033592	0.013653	-0.355556	-0.023361	-0.130606	-0.355556	-0.033664	0.042907	-0.355556	0.023827	0.014352	-0.355556	-0.002709	0.000047	-0.355556	-0.053544	-0.031576	-0.355556	0.004873	0.042381	-0.355556	0.019776	0.097604	-0.355556	0.045599	-0.066979	-0.355556	-0.012185	-0.097516	-0.355556	-0.015756	-0.010596	-0.355556	-0.045882	0.001704	-0.355556	-0.011878	0.012696	-0.355556	0.041830	0.018461	-0.355556	0.003651	-0.010752	-0.355556	0.019302	0.000282	-0.352340	-0.033854	0.004788	-0.342379	-0.007937	-0.009495	-0.344239	-0.030154	0.026037	-0.345335	-0.043899	0.037625	-0.344639	0.021883	0.013174	-0.344012	0.002574	-0.055040	-0.347388	0.103909	-0.058655	-0.357748	-0.002944	0.030731	-0.355976	-0.012669	0.082265	-0.354699	0.004182	-0.099230	-0.355259	0.010118	-0.008540	-0.355918	-0.000407	0.055025	-0.355848	0.061692	-0.087187	-0.355477	-0.059706	0.009999	-0.355354	-0.027465	0.070220	-0.355502	-0.021080	-0.020189	-0.355641	-0.016721	-0.054061	-0.355628	-0.002173	0.019350	-0.355546	0.015647	0.038583	-0.355511	0.059856	0.052118	-0.344539	-0.002448	0.008984	-0.345887	-0.031373	-0.067080	-0.343811	-0.041302	0.024974	-0.343797	-0.025271	-0.055255	-0.347865	-0.025538	-0.006602	-0.358048	0.075378	-0.031209	-0.355819	0.063523	-0.008367	-0.354448	-0.004876	0.040523	-0.355223	0.015107	0.007909	-0.356041	-0.060176	0.025178	-0.355931	0.012498	-0.045538	-0.355451	0.057409	0.003667	-0.355296	-0.113810	0.021489	-0.355486	0.022210	-0.035550	-0.355664	0.054575	0.002029	-0.355648	-0.018195	0.081210	-0.355543	-0.013949	-0.033244	-0.355499	-0.010705	-0.112954	-0.355534	0.012942	0.037376	-0.355575	0.005988	0.028086	-0.355577	0.018119	-0.038271	-0.355556	-0.012430	0.060401	-0.355544	0.002787	0.043871	-0.355550	-0.022015	-0.043044	-0.355559	0.021315	-0.047806	-0.355560	0.011564	0.000303	-0.355556	0.044076	-0.017779	-0.355553	-0.001880	0.010092	-0.344555	-0.050545	0.011506	-0.353656	-0.029754	-0.072984	-0.340302	0.060423	-0.023842	-0.347458	-0.061728	0.016754	-0.359373	0.026945	0.027175	-0.356173	-0.000795	0.021038	-0.353856	0.012591	-0.023561	-0.354813	0.006106	0.020005	-0.356198	-0.015259	-0.010441	-0.356236	0.018649	0.058744	-0.355512	0.002430	-0.008558	-0.355157	-0.002537	0.031063	-0.355383	0.013477	-0.033077	-0.355688	0.010902	-0.079270	-0.355716	-0.031006	0.048363	-0.355564	0.013525	0.059188	-0.355473	0.031989	-0.093572	-0.355509	0.005812	-0.126347	-0.355577	-0.034481	-0.013100	-0.355592	0.014766	-0.011995	-0.355562	0.040872	-0.014895	-0.355539	0.000806	0.053643	-0.355544	-0.046498	0.026672	-0.355559	-0.080490	0.048397	-0.355563	0.001682	0.052758	-0.352342	0.128070	-0.049402	-0.342376	
513 1
0.085736	0.085711	0.085687	0.085656	0.085609	0.085472	0.085350	0.085244	0.085146	0.085116	0.085129	0.085148	0.085202	0.085248	0.085298	0.085351	0.085402	0.085453	0.085503	0.085606	0.085743	0.085850	0.085935	0.086010	0.086037	0.086069	0.086071	0.086075	0.086078	0.086081	0.086081	0.086045	0.086015	0.085984	0.085954	0.085959	0.085984	0.086011	0.086115	0.086269	0.086431	0.086631	0.086824	0.086924	0.086967	0.087008	0.087055	0.087099	0.087138	0.087177	0.087304	0.087486	0.087601	0.087667	0.087730	0.087802	0.087875	0.087941	0.088006	0.088054	0.088094	0.088150	0.088313	0.088474	0.088743	0.088999	0.091135	0.095413	0.095379	0.095963	0.096309	0.096535	0.096833	0.097206	0.097568	0.097887	0.098192	0.098513	0.099442	0.100730	0.102017	0.103254	0.105185	0.107560	0.109955	0.112684	0.115638	0.118618	0.123103	0.128505	0.134539	0.140828	0.144913	0.147660	0.150387	0.153290	0.156209	0.161309	0.167747	0.174592	0.183565	0.192033	0.199787	0.207774	0.216039	0.224432	0.232210	0.235932	0.240284	0.244438	0.248446	0.253026	0.261133	0.268727	0.277351	0.286617	0.293658	0.299238	0.304772	0.313994	0.328265	0.342592	0.342333	0.342645	0.345169	0.347761	0.349426	0.350731	0.352368	0.356746	0.362562	0.368323	0.374492	0.380186	0.383400	0.387080	0.390558	0.393828	0.397144	0.400811	0.404657	0.407452	0.409581	0.411699	0.413226	0.414352	0.415428	0.416533	0.417794	0.419955	0.421972	0.424233	0.426651	0.428925	0.430267	0.431740	0.433185	0.434608	0.441597	0.441975	0.444135	0.445213	0.445839	0.446882	0.448772	0.450530	0.452150	0.453745	0.455134	0.456414	0.457666	0.458798	0.459935	0.461147	0.462858	0.464364	0.465024	0.465827	0.466584	0.467305	0.468171	0.469935	0.471568	0.473420	0.475409	0.476486	0.476986	0.477469	0.478034	0.478569	0.478770	0.478999	0.479155	0.478877	0.478670	0.478345	0.477369	0.476532	0.475936	0.475281	0.475033	0.475041	0.475133	0.475709	0.476199	0.476727	0.477282	0.478302	0.479596	0.480823	0.481550	0.482347	0.482654	0.482658	0.482192	0.481484	0.480775	0.479883	0.478862	0.477830	0.476812	0.473797	0.453188	0.442536	0.441846	0.440980	0.438871	0.436770	0.435195	0.433785	0.432165	0.430364	0.427841	0.420532	0.414005	0.407839	0.401854	0.395934	0.390965	0.386543	0.382102	0.377569	0.371178	0.363700	0.351675	0.332905	0.332427	0.330858	0.326537	0.322302	0.319274	0.299895	0.298138	0.290913	0.286877	0.284380	0.278068	0.268986	0.261805	0.256540	0.251557	0.247126	0.243008	0.238983	0.235062	0.230445	0.225340	0.220178	0.213681	0.206369	0.200377	0.195295	0.190191	0.184596	0.179500	0.177543	0.175137	0.172868	0.170685	0.167585	0.163903	0.160189	0.156435	0.152918	0.150642	0.148142	0.146589	0.145631	0.144675	0.143620	0.142547	0.140572	0.138048	0.135781	0.133740	0.131769	0.130124	0.128412	0.126693	0.124742	0.122823	0.121360	0.120178	0.119012	0.117819	0.116288	0.114564	0.112883	0.111504	0.110083	0.108982	0.108078	0.107181	0.106351	0.105573	0.104886	0.104711	0.104454	0.104220	0.104004	0.103739	0.103173	0.102655	0.102157	0.101648	0.099920	0.099782	0.099230	0.098921	0.098715	0.098434	0.098042	0.097385	0.096813	0.096210	0.095386	0.094579	0.093654	0.092662	0.091931	0.091366	0.090804	0.090235	0.089671	0.089160	0.088929	0.088654	0.088388	0.088129	0.087861	0.087589	0.087312	0.087004	0.086703	0.086382	0.085943	0.085522	0.084985	0.084377	0.083971	0.083700	0.083434	0.083147	0.082794	0.082042	0.081400	0.081020	0.080580	0.080158	0.079705	0.079223	0.078730	0.078057	0.077279	0.076598	0.075989	0.075374	0.074687	0.073765	0.072722	0.072795	0.072817	0.072674	0.072532	0.072460	0.072411	0.072372	0.072329	0.072289	0.072306	0.072354	0.072409	0.072462	0.072515	0.072585	0.072665	0.072681	0.072655	0.072628	0.072597	0.072561	0.072522	0.072483	0.072445	0.072326	0.072160	0.071793	0.070991	0.070905	0.070770	0.070525	0.070285	0.069973	0.069603	0.069212	0.068820	0.068432	0.068159	0.067953	0.067747	0.067529	0.067292	0.066942	0.066612	0.066302	0.066003	0.065787	0.065622	0.065458	0.065263	0.065051	0.064841	0.064584	0.064297	0.064094	0.063947	0.063804	0.063652	0.063499	0.063216	0.062854	0.062537	0.062257	0.062053	0.061887	0.061720	0.061599	0.061509	0.061422	0.061331	0.061234	0.061114	0.060999	0.060864	0.060603	0.060365	0.060153	0.059932	0.059737	0.059559	0.059388	0.059257	0.059120	0.058985	0.058848	0.058677	0.058509	0.058339	0.058202	0.058086	0.057972	0.057869	0.057763	0.057649	0.057530	0.057415	0.057323	0.057235	0.057188	0.057136	0.057086	0.057036	0.056972	0.056814	0.056671	0.056487	0.056277	0.056067	0.055480	0.055455	0.055287	0.055199	0.055147	0.055043	0.054735	0.054552	0.054432	0.054326	0.054301	0.054259	0.054224	0.054196	0.054167	0.054143	0.054117	0.054085	0.054051	0.054012	0.053952	0.053895	0.053832	0.053765	0.053698	
661 3
0.128070	-0.049402	-0.342376	-0.036351	-0.044142	-0.344236	-0.008594	0.015127	-0.345335	-0.025094	0.031796	-0.344641	-0.026397	-0.022211	-0.344012	0.026654	0.000378	-0.355171	0.040566	0.018200	-0.354255	-0.011284	-0.008597	-0.356421	-0.012250	0.008721	-0.356238	-0.015613	0.022465	-0.355239	0.024559	0.006739	-0.355053	0.040613	0.027385	-0.355520	-0.013734	-0.059967	-0.355825	0.004870	-0.068408	-0.355707	-0.019284	0.018824	-0.355482	-0.017248	-0.000038	-0.355435	-0.020131	-0.000463	-0.355535	0.077156	-0.014235	-0.355611	-0.009701	0.011568	-0.355595	-0.081640	0.015268	-0.355545	-0.042787	0.017634	-0.355529	-0.038099	0.008436	-0.355548	0.097333	0.008983	-0.355566	0.058275	-0.005866	-0.344566	0.024989	-0.015475	-0.345871	-0.016126	-0.001382	-0.343788	-0.067897	0.026827	-0.343795	0.006462	0.065067	-0.344661	0.054899	-0.043821	-0.344878	-0.018168	-0.069434	-0.344500	-0.017411	-0.030278	-0.344223	0.002394	0.028389	-0.344306	0.018702	-0.015975	-0.344499	0.008455	0.021923	-0.355548	-0.008254	-0.005986	-0.354151	-0.037759	0.001812	-0.356161	0.002167	0.023458	-0.356168	-0.023947	0.000972	-0.355348	0.009347	0.018867	-0.355146	0.031132	-0.026262	-0.355508	0.011524	-0.001983	-0.355768	-0.024451	-0.011989	-0.355686	0.063904	-0.006874	-0.355502	0.002918	0.008526	-0.355456	-0.061984	0.037461	-0.347751	-0.036218	0.024501	-0.359092	0.041542	-0.046296	-0.355144	-0.002958	-0.031808	-0.354011	0.044274	-0.011778	-0.355554	-0.000555	0.048140	-0.356413	-0.051439	0.023593	-0.355891	0.043712	-0.088702	-0.355215	0.007612	-0.057129	-0.355202	-0.027797	0.032413	-0.355571	-0.010667	0.042741	-0.355759	-0.032599	0.019434	-0.355650	0.033656	-0.007329	-0.355492	0.006092	0.017483	-0.355472	-0.023551	0.008138	-0.355548	-0.009610	0.013458	-0.355597	-0.000003	-0.007852	-0.355580	0.017759	-0.004353	-0.355546	0.030824	0.013581	-0.355537	0.034558	-0.009817	-0.355552	-0.040670	-0.016765	-0.355564	-0.039291	0.007000	-0.355562	-0.040298	0.000797	-0.355554	0.038666	0.007814	-0.355552	-0.023952	0.011730	-0.355554	0.092157	-0.017684	-0.355557	0.032339	-0.041531	-0.355557	-0.058878	-0.012559	-0.355555	-0.013454	0.002464	-0.355555	0.024322	-0.021075	-0.355555	0.008707	0.012920	-0.355556	0.038015	-0.007316	-0.355556	-0.002637	0.085780	-0.355556	-0.025331	0.037826	-0.355555	-0.010574	-0.079311	-0.355555	-0.003067	-0.006214	-0.355556	-0.024835	0.016581	-0.355556	0.024821	-0.047621	-0.355556	-0.043129	0.003681	-0.355556	-0.014575	0.030251	-0.355556	0.008731	-0.016674	-0.355556	0.003616	-0.054703	-0.355556	0.041531	0.060625	-0.355556	0.028695	-0.016598	-0.355556	-0.048943	-0.045028	-0.355556	0.009209	0.029624	-0.355556	0.045728	0.088373	-0.355556	-0.054654	-0.011662	-0.355556	0.025875	-0.167154	-0.355556	0.008020	-0.001506	-0.355556	0.017416	0.003070	-0.355556	0.028662	0.044285	-0.355556	-0.039145	0.041272	-0.355556	-0.093310	0.006096	-0.355556	0.006195	0.028477	-0.355556	0.032037	-0.015190	-0.355556	-0.069008	0.004919	-0.355556	0.122352	-0.004579	-0.355556	0.006552	-0.004113	-0.355556	0.047262	-0.025240	-0.355556	-0.026156	0.015272	-0.355556	0.007767	-0.002862	-0.355556	0.025565	0.006122	-0.355556	-0.034080	0.005145	-0.355556	-0.019424	-0.016322	-0.355556	0.012464	0.010170	-0.355556	-0.018475	0.032784	-0.355556	-0.031205	-0.004162	-0.355556	0.020805	-0.061257	-0.355556	0.040185	0.005322	-0.355556	0.012919	0.035071	-0.355556	-0.063222	-0.009736	-0.352340	-0.084071	-0.042172	-0.353378	-0.001358	0.013084	-0.353923	-0.012420	0.015227	-0.357097	0.045009	-0.019371	-0.356397	0.033654	-0.034596	-0.354908	-0.006585	0.026745	-0.354851	0.047436	0.000713	-0.355628	-0.015484	-0.009868	-0.355991	-0.005025	0.022733	-0.355728	0.010936	-0.016060	-0.355399	-0.030194	-0.024995	-0.355381	0.018718	0.058782	-0.355553	0.039763	0.031989	-0.347865	0.023379	-0.056093	-0.359097	-0.102451	-0.037577	-0.355084	-0.008732	0.020882	-0.353978	0.088278	0.007562	-0.355570	-0.010024	-0.018314	-0.356439	-0.050655	0.003759	-0.355896	0.020922	0.000785	-0.355203	-0.009112	0.002739	-0.355194	-0.013981	-0.014642	-0.355573	-0.027010	0.026517	-0.355765	-0.004567	-0.010749	-0.355652	0.016052	0.005513	-0.355490	-0.018704	0.023240	-0.355470	0.059993	0.006708	-0.355548	0.029813	-0.048506	-0.355598	-0.003471	-0.019948	-0.355581	0.022653	0.004704	-0.355545	-0.015451	-0.004488	-0.355537	-0.028993	0.010034	-0.355552	0.039651	0.016312	-0.355564	0.042487	-0.001962	-0.355562	-0.037413	0.018848	-0.355554	-0.027836	0.013424	-0.355551	-0.033784	-0.030452	-0.355554	0.010506	-0.030430	-0.355557	0.006581	0.003359	-0.355557	0.011571	0.024882	-0.355555	-0.012518	-0.013673	-0.355555	0.008360	-0.009942	-0.344556	-0.010636	0.013877	-0.345872	0.019484	0.047491	-0.343794	-0.003693	0.016122	-0.343797	-0.071074	0.024697	-0.344659	0.053336	-0.025409	-0.344876	0.024915	-0.093660	-0.347715	-0.020267	-0.028232	-0.357400	0.019060	0.053124	-0.355623	0.037424	0.027406	-0.354719	-0.036645	-0.041629	-0.355465	-0.052716	0.021685	-0.356011	0.043761	-0.018507	-0.355783	-0.004891	0.027411	-0.355393	-0.011465	0.019129	-0.355347	0.075883	-0.009528	-0.344544	-0.008208	-0.006188	-0.345981	-0.050127	-0.011287	-0.343856	-0.006944	0.028290	-0.354768	0.045903	-0.006589	-0.354295	-0.030691	0.023195	-0.356629	0.085152	0.033632	-0.356280	-0.008649	0.020083	-0.355136	-0.099407	-0.105300	-0.354982	-0.011790	0.031966	-0.355544	-0.053428	0.037221	-0.355877	0.012440	-0.070584	-0.355721	-0.033514	-0.065182	-0.355460	0.032213	0.044339	-0.355416	0.024959	-0.050812	-0.355538	0.063495	-0.003436	-0.355622	-0.005688	0.006390	-0.355599	0.046524	-0.008333	-0.355541	0.026085	0.149734	-0.355525	-0.042873	0.104290	-0.355548	-0.009967	-0.089677	-0.355568	-0.004812	-0.076377	-0.355566	-0.059198	-0.073033	-0.355554	-0.054563	-0.034416	-0.355549	-0.012952	0.009683	-0.355553	-0.011757	0.135950	-0.355558	0.171936	-0.036644	-0.355558	0.025378	-0.137628	-0.355556	-0.111408	0.091892	-0.355554	0.001126	0.007797	-0.355555	0.080308	0.032379	-0.355556	0.026794	-0.041055	-0.355556	0.004713	0.025168	-0.355556	-0.059259	0.060686	-0.355555	-0.037146	-0.050542	-0.355555	-0.037864	-0.047385	-0.355556	-0.042284	0.013228	-0.355556	0.047215	-0.009950	-0.355556	-0.040723	-0.045871	-0.355556	0.017664	0.085763	-0.355556	0.061919	0.038715	-0.355556	-0.116384	-0.017980	-0.355556	-0.035929	0.026286	-0.355556	0.215265	-0.067599	-0.355556	-0.048748	0.049268	-0.355556	0.134491	-0.062840	-0.355556	-0.050343	-0.090090	-0.355556	-0.024821	0.045943	-0.355556	-0.043227	0.023394	-0.355556	0.044353	-0.012954	-0.355556	-0.102218	0.094042	-0.355556	-0.065185	-0.027732	-0.355556	0.079767	0.002888	-0.355556	-0.042622	-0.004759	-0.355556	-0.099822	-0.050997	-0.355556	0.150621	0.098488	-0.355556	0.003264	-0.127521	-0.355556	0.009028	-0.016456	-0.355556	-0.008381	-0.135127	-0.355556	0.048996	0.017697	-0.355556	-0.001260	0.107991	-0.355556	-0.077930	0.041869	-0.355556	0.024832	0.014068	-0.355556	0.031875	0.065930	-0.358771	-0.079899	-0.054554	-0.368732	0.075982	-0.062386	-0.366872	-0.100683	0.066553	-0.365776	-0.015494	0.031256	-0.366472	0.115142	-0.032749	-0.367099	-0.032934	-0.023565	-0.366939	-0.100792	0.051723	-0.366539	0.084824	0.049196	-0.366452	0.011668	-0.141362	-0.366632	-0.079133	0.106570	-0.366769	0.042332	0.042292	-0.366737	0.038660	-0.098070	-0.366647	0.016838	-0.059501	-0.366618	0.162076	0.021120	-0.355654	-0.120395	-0.029211	-0.357002	-0.218179	-0.019452	-0.354922	0.135491	0.022190	-0.354906	0.010316	0.042175	-0.358975	0.027453	-0.013549	-0.369160	-0.036496	-0.119750	-0.366931	0.088453	0.055710	-0.365559	-0.013125	0.124709	-0.366334	-0.027687	0.038497	-0.367152	-0.086353	0.047390	-0.363826	-0.023392	0.034122	-0.353386	0.028971	-0.067167	-0.355091	-0.042192	0.084789	-0.356377	0.092165	-0.105593	-0.355859	0.151972	0.042848	-0.355215	0.046763	-0.058188	-0.355270	-0.210578	0.012080	-0.355626	-0.055887	-0.083246	-0.355749	-0.060440	0.037173	-0.355610	-0.167044	-0.033219	-0.355475	0.316783	-0.049918	-0.355485	0.071291	0.082048	-0.355564	-0.246246	0.111310	-0.355598	-0.059712	-0.108736	-0.355572	0.305783	0.036086	-0.355541	0.030926	0.090016	-0.355539	-0.015126	-0.076604	-0.358771	0.098018	-0.044334	-0.368741	-0.085216	-0.048936	-0.366877	-0.020187	0.020404	-0.365774	-0.106055	0.046783	-0.366468	-0.006120	-0.108519	-0.367099	-0.022511	-0.073817	-0.366941	-0.027906	0.093789	-0.366540	0.087600	0.133361	-0.366451	-0.024135	0.065723	-0.366631	-0.074992	-0.014094	-0.366769	0.083183	-0.085880	-0.366738	-0.007117	-0.041688	-0.366647	-0.009962	0.002557	-0.366618	0.001601	0.040265	-0.366653	0.032142	0.002610	-0.366686	0.011309	0.000541	-0.366684	0.000236	-0.082649	-0.355665	-0.015360	0.079202	-0.356973	-0.126609	0.154389	-0.354901	-0.228632	-0.078869	-0.354912	0.177656	-0.107358	-0.358990	0.234921	-0.140806	-0.369164	-0.057503	0.021831	-0.366925	0.037163	0.082552	-0.365554	-0.044667	0.032427	-0.366334	-0.123468	0.005538	-0.367155	0.054740	0.045258	-0.367043	0.043143	-0.077785	-0.366561	-0.005588	-0.049387	-0.366406	0.108567	0.032357	-0.366597	0.006683	0.035179	-0.366776	-0.032286	-0.004145	-0.366760	-0.078207	-0.042906	-0.366654	-0.089979	0.061661	-0.366610	-0.023597	0.105623	-0.366645	0.144542	-0.027838	-0.366687	0.066149	-0.041590	-0.363473	-0.044963	-0.083356	-0.353490	-0.099338	-0.041146	-0.355338	-0.016475	-0.001283	-0.356440	0.037812	0.022923	-0.355754	-0.042615	0.129725	-0.355128	0.011613	0.077905	-0.355284	0.037731	-0.162140	-0.355681	-0.100852	-0.097306	-0.355769	-0.004206	-0.059622	-0.355591	0.055033	0.073039	-0.355454	0.061348	-0.023448	-0.366485	0.056303	0.100639	-0.365259	0.079800	-0.082949	-0.367365	-0.079309	0.016764	-0.367327	0.016779	-0.014019	-0.366433	-0.023127	-0.075374	-0.366218	0.006984	0.040299	-0.366613	-0.087396	0.069433	-0.366897	-0.091496	0.097443	-0.366809	0.163601	0.097225	-0.366609	-0.005340	0.018371	-0.366559	0.057613	-0.107457	-0.366644	-0.153310	0.050772	-0.363498	0.036994	-0.050502	-0.353526	0.054819	-0.062002	-0.355342	-0.206345	-0.054563	-0.356423	0.182089	0.076951	-0.358958	-0.130575	-0.002326	-0.368308	0.094735	0.052545	-0.366608	0.166484	0.028096	-0.365903	-0.133963	0.048051	-0.366682	-0.032869	0.142205	-0.367132	0.080709	0.037738	-0.366839	-0.010145	-0.254820	-0.366471	-0.107770	-0.197047	-0.366472	0.048188	-0.047591	-0.366680	-0.013773	-0.123618	-0.366782	0.025199	0.006336	-0.366718	0.007923	0.081929	-0.366630	0.017245	0.105066	-0.366620	0.109255	0.110479	-0.366663	-0.013048	0.061088	-0.366690	-0.030437	0.128651	-0.366680	0.041472	-0.011124	-0.366661	-0.001812	-0.007945	-0.366656	-0.102984	-0.039576	-0.366665	0.007566	-0.037701	-0.366671	0.101936	0.024630	-0.363454	-0.173077	0.005179	-0.353489	0.024367	-0.068385	-0.355348	-0.277801	-0.061125	-0.356445	0.191796	-0.069043	-0.355751	0.131669	0.050051	-0.355124	-0.036430	0.073175	-0.355283	0.144484	0.007372	-0.355683	0.065549	0.131526	-0.366770	-0.107547	0.103569	-0.365274	-0.106798	-0.198812	-0.367215	0.053641	-0.120830	-0.367243	0.168021	-0.269913	-0.366472	-0.062350	0.026199	-0.366283	-0.183177	0.065183	-0.366625	-0.037924	0.017595	-0.366868	0.099024	0.193482	-0.366788	-0.034506	0.132873	-0.366614	-0.197323	-0.139227	-0.366573	0.185200	0.012092	-0.366648	0.068976	0.079689	-0.366708	0.061999	0.048576	-0.366698	0.146417	0.007942	-0.366660	-0.126004	0.025454	-0.366646	-0.105789	0.084239	-0.363445	0.142980	-0.064863	-0.353498	0.052063	-0.142143	-0.355357	-0.139445	-0.074330	-0.356446	0.016498	-0.041972	-0.355746	-0.062705	-0.040189	-0.358337	-0.171791	0.208797	-0.368461	0.228239	0.008185	-0.367002	-0.027958	-0.025745	-0.365991	-0.113499	-0.078147	-0.363290	0.031641	-0.135755	-0.353820	0.016000	-0.011903	-0.358768	0.032364	0.096580	-0.369516	-0.091292	0.091488	-0.366901	0.014166	0.033395	-0.365322	0.210346	0.044501	-0.366282	0.004482	-0.150783	-0.367280	-0.040447	-0.036197	-0.367136	-0.013998	-0.047723	-0.366535	0.019974	-0.034070	-0.366340	-0.004230	0.003354	-0.366578	-0.007132	0.091001	-0.366802	0.054111	0.124175	-0.366784	-0.088358	0.061022	-0.366652	-0.118523	-0.010839	-0.366596	-0.012986	-0.134510	-0.366639	0.039564	0.101833	-0.366691	0.060453	0.032059	-0.363478	0.019727	-0.009566	-0.353490	0.088485	0.075121	-0.355335	0.082013	0.166246	-0.356439	-0.095225	-0.194156	-0.355754	-0.193334	-0.383215	-0.355129	-0.052455	0.104927	-0.355284	0.074432	-0.048466	-0.355680	0.092880	-0.017214	-0.355769	-0.045232	0.132085	-0.355591	0.011442	0.015153	-0.355455	-0.048876	0.018389	-0.355485	-0.035965	-0.059725	-0.355575	0.007553	0.074506	-0.355604	0.118886	0.053936	-0.355569	0.064715	-0.015021	-0.355536	-0.039666	-0.067555	-0.355539	-0.110972	0.028706	-0.355557	0.052799	0.060149	-0.355566	0.014101	-0.033906	-0.355560	0.042855	0.044570	-0.355552	0.072716	0.057039	-0.355552	-0.032816	0.095949	-0.355555	-0.075093	0.101408	-0.355558	0.017979	-0.163306	-0.355557	-0.105448	-0.218153	-0.355555	0.108675	-0.011378	-0.355555	0.049794	0.141366	-0.355555	0.015768	-0.154195	-0.355556	-0.069890	0.082494	-0.355556	0.039468	-0.052493	-0.355555	0.117562	-0.088915	-0.355555	-0.062615	0.020501	-0.355556	-0.137227	-0.010721	-0.355556	-0.093281	-0.050969	-0.355556	-0.129035	0.062509	-0.355556	0.046271	0.014448	-0.355556	0.167557	-0.032277	-0.355556	0.079014	0.039185	-0.355556	-0.090043	0.107074	-0.355556	-0.037284	0.060215	-0.355556	0.040861	-0.034661	-0.355556	0.118754	-0.040163	-0.355556	-0.015226	-0.007938	-0.355556	-0.031605	-0.050722	-0.355556	0.081536	0.011348	-0.355556	-0.013795	-0.013799	-0.355556	-0.034848	0.021970	-0.355556	-0.072824	0.154037	-0.355556	0.015544	0.171007	-0.355556	0.047469	-0.343927	-0.355556	-0.049329	-0.201907	-0.355556	0.027940	-0.002009	-0.355556	0.002605	0.087364	-0.355556	-0.041051	-0.012183	-0.355556	0.032041	-0.025146	-0.355556	-0.008773	0.056248	-0.355556	-0.106057	0.048881	-0.355556	0.017553	0.017983	-0.355556	0.042903	-0.027337	-0.355556	0.012618	0.051598	-0.355556	-0.085302	0.035962	-0.355556	0.056519	0.014697	-0.355556	0.090930	0.011182	-0.355556	-0.076877	0.032893	-0.355556	0.010193	-0.055796	-0.355556	0.036720	-0.079062	-0.355556	0.046108	0.007654	-0.355556	-0.027385	0.025616	-0.355556	-0.003644	0.047106	-0.355556	-0.136696	-0.109918	-0.355556	0.100147	-0.006525	-0.355556	0.008710	0.092327	-0.355556	-0.002465	-0.019844	-0.355556	-0.020625	-0.109462	-0.355556	-0.008240	0.172582	-0.355556	0.025522	0.005217	-0.355556	0.007340	0.189475	-0.355556	-0.052646	0.096078	-0.355556	-0.010520	-0.272803	-0.355556	-0.018088	-0.215403	-0.355556	0.002447	-0.091495	-0.355556	-0.020964	0.088500	-0.355556	0.091999	-0.021223	-0.355556	0.049242	0.098519	-0.355556	-0.018648	0.085883	-0.355556	-0.027926	-0.004589	-0.355556	0.049078	-0.013719	-0.355556	0.029974	-0.030013	-0.355556	0.035742	0.004643	-0.355556	0.027352	0.045770	-0.355556	-0.135551	0.033002	-0.344556	-0.030941	-0.006478	-0.345872	-0.033510	-0.019314	-0.343794	-0.032613	-0.025383	-0.343797	0.027084	-0.025448	-0.355658	-0.052924	-0.002157	-0.354560	0.098795	0.081938	-0.356261	0.013208	0.023631	-0.355982	0.003762	-0.074539	-0.355203	-0.003102	-0.063124	-0.355178	0.022553	0.008814	-0.355604	0.008977	0.018918	-0.355799	-0.023549	0.040253	-0.355649	0.009905	0.006055	-0.355466	0.037990	-0.018331	-0.355459	-0.011318	0.024847	-0.355555	-0.068969	0.022671	-0.355608	-0.010758	-0.076157	-0.355582	-0.033764	-0.021772	-0.355540	0.065600	-0.019834	-0.355534	0.026063	0.014241	-0.355553	0.028122	0.024328	-0.355566	0.007390	0.028087	-0.355562	-0.046158	0.011757	-0.355553	-0.037144	0.022450	-0.355551	-0.019961	0.005657	-0.355554	0.029456	0.066881	-0.355558	0.029394	-0.155976	-0.355557	0.000037	0.011004	-0.355555	0.007807	-0.004044	-0.355555	0.016020	-0.013304	-0.355555	-0.021459	0.006244	-0.355556	0.001180	-0.007061	-0.355556	-0.073995	0.046277	-0.355556	0.017973	0.022917	-0.355555	0.064910	0.032251	-0.355555	0.025479	0.021796	-0.355556	-0.025565	-0.107775	-0.355556	0.011412	0.025964	-0.355556	-0.006997	-0.005927	-0.355556	-0.042687	-0.016848	-0.355556	0.011258	0.077141	-0.355556	0.044260	0.034419	-0.355556	0.010149	-0.037804	-0.355556	0.008290	-0.070752	-0.355556	-0.029439	-0.065665	-0.355556	-0.009492	0.023055	-0.355556	0.007907	0.051894	-0.355556	0.016825	0.078699	-0.355556	0.012164	-0.031129	-0.355556	-0.068907	-0.050837	-0.355556	0.049339	0.001803	-0.355556	-0.032021	-0.041355	-0.355556	-0.075240	-0.040248	-0.355556	0.059078	-0.003754	-0.355556	0.044482	0.053142	-0.355556	0.065065	0.048940	-0.355556	-0.046882	0.076607	-0.355556	-0.010327	-0.071269	-0.355556	-0.048114	-0.055669	-0.355556	0.043053	0.000046	-0.355556	0.034975	0.012058	-0.355556	-0.059587	0.000869	-0.355556	0.008564	0.015951	-0.355556	-0.043012	0.012686	-0.355556	-0.011421	0.040225	-0.355556	0.052753	-0.051697	-0.355556	0.080251	0.041851	-0.355556	-0.013384	0.055960	-0.355556	-0.024831	-0.074153	-0.355556	-0.053688	-0.066010	-0.355556	-0.058836	0.027232	-0.355556	0.061098	-0.000021	-0.355556	-0.001796	0.039924	-0.355556	-0.018532	-0.035186	-0.355556	0.031198	0.046739	-0.344556	0.136483	0.001985	-0.345872	-0.066434	-0.092682	-0.343794	-0.074303	-0.018726	-0.343797	-0.046048	0.025320	-0.344659	-0.087296	-0.001438	-0.344876	0.035601	0.020082	-0.344500	0.175246	-0.050573	-0.344224	-0.178113	0.036140	-0.344306	-0.029334	0.037340	-0.344499	0.194172	-0.003451	-0.347764	0.104515	-0.056518	-0.357644	-0.002414	0.039815	-0.355716	-0.034199	0.023062	-0.354630	-0.059231	-0.045069	-0.355368	0.006572	0.003477	-0.356011	-0.005802	-0.010387	-0.355836	-0.011761	0.000199	-0.355420	-0.066493	0.013729	-0.355332	-0.007801	-0.065908	-0.355521	0.009032	0.041072	-0.355662	0.001459	0.072190	-0.355628	-0.016771	-0.120793	-0.355534	-0.017788	-0.051642	-0.355505	0.072190	0.045558	-0.355542	-0.013538	0.044687	-0.355576	0.014824	0.000459	-0.355573	-0.023090	-0.021389	-0.352338	0.017854	0.022215	-0.342368	-0.081154	0.065426	-0.344235	0.032534	0.008195	-0.345339	0.028870	-0.105419	-0.344643	-0.000215	-0.011585	-0.355011	0.026524	0.042398	-0.353854	-0.002583	0.032672	-0.356333	0.066446	-0.041588	-0.356418	-0.020129	-0.007933	-0.355376	-0.087670	0.037033	-0.355022	0.033694	-0.100114	-0.355429	0.029043	0.015750	-0.355796	-0.012723	0.002777	-0.355742	-0.061843	0.017686	-0.366514	-0.027012	0.026671	-0.365116	0.013534	0.031434	-0.367277	0.042868	-0.004674	-0.367361	0.026250	-0.030393	-0.366497	0.042410	0.010934	-0.355233	-0.000641	0.077613	-0.356902	0.040484	0.214155	-0.355114	-0.008553	-0.203418	-0.355055	-0.039951	-0.248181	-0.355726	0.039190	0.065894	-0.355884	-0.026809	-0.018365	-0.355583	-0.076979	-0.049998	-0.355377	-0.010434	0.034496	-0.355454	0.033363	0.051394	-0.355605	0.011501	0.070707	-0.355637	-0.015253	-0.007009	-0.358785	-0.058612	-0.016945	-0.368695	0.053716	0.023391	-0.366846	0.064942	0.012120	-0.365783	0.033945	0.019267	-0.366490	-0.007453	0.027914	-0.363889	-0.052709	-0.085948	-0.353756	-0.044902	-0.004884	-0.366215	-0.039609	-0.011600	-0.362700	0.028023	-0.015884	-0.357521	0.043548	-0.006821	-0.368844	0.020854	0.016858	-0.367345	0.021813	0.033779	-0.365645	-0.012767	-0.017308	-0.366151	-0.010636	-0.028764	-0.367069	-0.007140	0.002703	-0.367123	-0.025776	0.033258	-0.366646	-0.016330	0.020204	-0.366400	0.053773	-0.007741	-0.366545	-0.019146	0.039752	-0.366753	0.006920	-0.090308	-0.366776	-0.007657	0.002455	-0.366675	-0.051929	0.008974	-0.366611	-0.020715	-0.024575	-0.366634	-0.010276	0.036012	-0.366680	-0.005242	0.100066	-0.366691	
661 1
0.053698	0.053631	0.053540	0.053289	0.053076	0.052946	0.052797	0.052662	0.052585	0.052499	0.052412	0.052328	0.052245	0.052184	0.052135	0.052087	0.052038	0.051990	0.051944	0.051898	0.051841	0.051779	0.051721	0.051693	0.051661	0.051632	0.051602	0.051561	0.051512	0.051462	0.051414	0.051359	0.051259	0.051169	0.051102	0.051030	0.050967	0.050911	0.050843	0.050768	0.050692	0.050618	0.050539	0.050424	0.050314	0.050269	0.050262	0.050257	0.050250	0.050242	0.050238	0.050247	0.050253	0.050239	0.050214	0.050188	0.050164	0.050143	0.050145	0.050145	0.050156	0.050166	0.050156	0.050134	0.050149	0.050189	0.050229	0.050266	0.050294	0.050271	0.050256	0.050222	0.050176	0.050139	0.050112	0.050085	0.050057	0.050022	0.049950	0.049885	0.049820	0.049769	0.049716	0.049609	0.049486	0.049468	0.049437	0.049411	0.049388	0.049352	0.049242	0.049143	0.048965	0.048739	0.048521	0.048315	0.048122	0.047997	0.047860	0.047727	0.047598	0.047397	0.047151	0.046963	0.046817	0.046669	0.046484	0.046322	0.046289	0.046238	0.046211	0.046200	0.046187	0.046170	0.046154	0.046045	0.045880	0.045773	0.045710	0.045652	0.045608	0.045559	0.045513	0.045470	0.045417	0.045356	0.045295	0.045235	0.045176	0.045148	0.045139	0.045142	0.045223	0.045288	0.045335	0.045388	0.045432	0.045425	0.045425	0.045425	0.045423	0.045423	0.045429	0.045434	0.045405	0.045354	0.045308	0.045268	0.045228	0.045116	0.044977	0.044953	0.044917	0.044888	0.044860	0.044830	0.044777	0.044713	0.044681	0.044669	0.044657	0.044642	0.044629	0.044606	0.044565	0.044524	0.044484	0.044443	0.044401	0.044363	0.044353	0.044350	0.044419	0.044477	0.044521	0.044556	0.044591	0.044625	0.044660	0.044771	0.044929	0.045096	0.045262	0.045430	0.045614	0.045796	0.045979	0.046162	0.046765	0.047623	0.048572	0.050037	0.051414	0.053068	0.054892	0.056750	0.058836	0.060878	0.062556	0.064013	0.065457	0.066920	0.069124	0.071770	0.074598	0.078496	0.082133	0.085288	0.088574	0.090976	0.092821	0.094657	0.096583	0.098780	0.102588	0.106124	0.109425	0.112599	0.115754	0.120049	0.125041	0.128399	0.130665	0.132891	0.135276	0.138193	0.144302	0.149769	0.154673	0.159821	0.166058	0.172902	0.177427	0.180489	0.183523	0.186758	0.190225	0.194953	0.199437	0.204092	0.209362	0.214538	0.220251	0.226307	0.231477	0.236057	0.240326	0.242796	0.245569	0.248225	0.250799	0.254856	0.259846	0.264868	0.269793	0.274682	0.280286	0.286330	0.290988	0.294729	0.298437	0.301205	0.303352	0.305436	0.307568	0.309723	0.313178	0.317416	0.321686	0.325931	0.330152	0.333366	0.335964	0.338534	0.341169	0.352471	0.354954	0.359943	0.368896	0.368332	0.370423	0.371736	0.372432	0.373229	0.374305	0.375691	0.378612	0.381201	0.383942	0.386822	0.389511	0.390921	0.392495	0.394031	0.395547	0.397335	0.399291	0.401247	0.403227	0.405233	0.407374	0.410321	0.413115	0.415760	0.418459	0.420351	0.421742	0.423122	0.424572	0.426198	0.428851	0.431328	0.433440	0.435342	0.437227	0.439417	0.441789	0.443684	0.445266	0.446787	0.448019	0.449310	0.450512	0.451321	0.452194	0.453063	0.453983	0.455303	0.456564	0.457911	0.459695	0.461409	0.463370	0.465488	0.467027	0.468188	0.469335	0.470162	0.470773	0.471359	0.471961	0.472601	0.473429	0.474225	0.474845	0.475362	0.476039	0.476953	0.477189	0.477459	0.477828	0.478197	0.479598	0.481640	0.483144	0.484233	0.485300	0.486432	0.487584	0.489789	0.492629	0.495091	0.497239	0.499414	0.501921	0.504133	0.504574	0.505276	0.505895	0.506462	0.507051	0.508122	0.509403	0.510251	0.511121	0.512582	0.514421	0.515854	0.516980	0.518086	0.519238	0.520495	0.522306	0.524017	0.525841	0.528236	0.530350	0.531200	0.532258	0.533164	0.533427	0.533794	0.533754	0.533453	0.533140	0.532862	0.532518	0.531673	0.530938	0.530469	0.529946	0.529318	0.527887	0.526681	0.526109	0.525405	0.524747	0.524129	0.523437	0.522684	0.521806	0.520171	0.518586	0.516467	0.514391	0.512018	0.507804	0.503877	0.498695	0.492738	0.486993	0.482761	0.478337	0.473928	0.469537	0.461572	0.451429	0.440569	0.425665	0.412042	0.401928	0.391038	0.380051	0.366992	0.354248	0.341565	0.328950	0.317412	0.312423	0.306444	0.300730	0.295213	0.289253	0.280687	0.272493	0.264136	0.255092	0.246157	0.236442	0.226236	0.218590	0.212577	0.206617	0.198890	0.190178	0.184811	0.181613	0.178462	0.174977	0.171258	0.166581	0.162148	0.157587	0.152628	0.147717	0.142487	0.137053	0.133006	0.129828	0.126676	0.124226	0.122253	0.120335	0.118376	0.116089	0.111810	0.108016	0.105250	0.102243	0.099136	0.095997	0.093697	0.091890	0.090086	0.088747	0.087725	0.086736	0.085713	0.084593	0.082955	0.081405	0.079969	0.078594	0.077243	0.076014	0.074768	0.073930	0.073339	0.072753	0.072134	0.071511	0.070138	0.068456	0.067726	0.066902	0.066122	0.065278	0.064425	0.063560	0.062702	0.062212	0.061939	0.061668	0.061365	0.061060	0.060611	0.060072	0.059515	0.058882	0.058303	0.057974	0.057603	0.057235	0.056812	0.056396	0.055931	0.055438	0.055157	0.055009	0.054864	0.054700	0.054533	0.054316	0.054069	0.053814	0.053524	0.053263	0.053149	0.053012	0.052882	0.052758	0.052639	0.052522	0.052404	0.052129	0.052110	0.052028	0.051980	0.051943	0.051864	0.051779	0.051687	0.051544	0.051420	0.051349	0.051266	0.051186	0.051110	0.051031	0.050936	0.050842	0.050769	0.050709	0.050651	0.050591	0.050531	0.050439	0.050327	0.050222	0.050161	0.050102	0.050094	0.050079	0.050066	0.050055	0.050031	0.049930	0.049841	0.049776	0.049731	0.049711	0.049687	0.049658	0.049599	0.049545	0.049489	0.049432	0.049338	0.049222	0.049106	0.048993	0.048881	0.048772	0.048689	0.048597	0.048466	0.048354	0.048320	0.048272	0.048228	0.048188	0.048140	0.048043	0.047952	0.047878	0.047815	0.047752	0.047654	0.047545	0.047508	0.047462	0.047421	0.047381	0.047338	0.047286	0.047236	0.047180	0.047118	0.047097	0.047099	0.047103	0.047119	0.047143	0.047139	0.047116	0.047092	0.047070	0.047049	0.047027	0.047005	0.046977	0.046915	0.046859	0.046799	0.046737	0.046680	0.046646	0.046609	0.046572	0.046495	0.046314	0.046276	0.046235	0.046212	0.046185	0.046169	0.046157	0.046139	0.046105	0.046074	0.046026	0.045966	0.045932	0.045915	0.045899	0.045865	0.045823	0.045790	0.045763	0.045737	0.045709	
811 3
-0.005242	0.100066	-0.366691	0.040037	0.091990	-0.366671	0.004613	-0.244189	-0.366656	0.014983	-0.104186	-0.366659	0.027456	0.054566	-0.366669	0.011109	0.010452	-0.366672	-0.044844	-0.017192	-0.366668	-0.033933	0.033410	-0.366665	-0.041848	0.087812	-0.366665	0.003594	0.056531	-0.366667	0.044383	-0.041622	-0.366668	0.120766	-0.008702	-0.363452	-0.006780	-0.006090	-0.353490	-0.031104	0.012818	-0.355349	-0.044266	-0.050289	-0.356446	-0.021220	0.027057	-0.355751	0.005354	-0.008722	-0.358339	-0.000545	-0.047897	-0.368459	0.006111	0.021009	-0.367000	-0.027896	0.014245	-0.365991	-0.035378	0.006860	-0.366506	0.037261	-0.006659	-0.366997	0.001432	0.012946	-0.366869	0.027564	0.015355	-0.366559	0.005825	-0.070198	-0.366500	0.007618	-0.002591	-0.366646	-0.020588	-0.047741	-0.355750	0.003981	-0.024924	-0.357036	-0.010550	0.105034	-0.354887	0.072155	-0.039645	-0.354870	0.010036	-0.032048	-0.355761	-0.011341	0.021986	-0.359219	-0.036867	0.005568	-0.368800	-0.002780	0.029192	-0.366650	0.083041	-0.056413	-0.365630	-0.024520	-0.034738	-0.366523	-0.008376	0.037839	-0.356207	-0.067681	0.039737	-0.357281	-0.112003	0.054063	-0.354732	0.018586	-0.112653	-0.354657	-0.021160	-0.019423	-0.355742	0.144439	0.008516	-0.356112	0.036780	0.001894	-0.355690	-0.045460	-0.022741	-0.355307	-0.028292	0.009682	-0.355360	0.003457	-0.010440	-0.355597	0.012470	0.016876	-0.355684	-0.002682	0.029225	-0.355598	0.009176	-0.002532	-0.366506	0.003010	-0.023704	-0.365192	0.006867	0.000453	-0.367320	0.003877	0.009352	-0.367341	0.002414	0.008321	-0.366464	0.001506	0.000196	-0.366226	-0.016755	0.007056	-0.366601	-0.007981	0.016139	-0.366887	0.041702	0.005114	-0.366810	-0.038650	-0.033492	-0.366616	0.027452	0.029981	-0.363346	0.035292	0.016876	-0.353465	-0.023733	-0.075508	-0.355394	-0.066402	-0.001544	-0.356482	0.007047	-0.017464	-0.355744	-0.022275	-0.009023	-0.355100	0.013705	0.010663	-0.355275	0.028353	0.019174	-0.355691	0.008825	0.021577	-0.355779	-0.010405	0.005171	-0.366589	-0.054533	0.034381	-0.365133	0.030781	-0.006210	-0.367245	0.086720	-0.049520	-0.367335	0.015391	-0.013307	-0.366503	-0.059620	0.028126	-0.363033	0.025029	-0.007783	-0.353414	0.051676	-0.027927	-0.355553	0.015363	-0.000192	-0.356587	-0.036029	0.026920	-0.355707	-0.000639	0.032939	-0.355023	-0.039078	0.000653	-0.366256	-0.049580	0.000741	-0.365408	0.024776	0.028381	-0.367567	0.057479	-0.068228	-0.367344	0.003985	0.036541	-0.363113	-0.017762	-0.033268	-0.352980	-0.028972	-0.043245	-0.355322	0.038884	-0.054554	-0.356723	0.012027	0.039331	-0.355902	-0.058953	0.022190	-0.355045	-0.034867	0.005481	-0.355160	-0.000825	0.001564	-0.355664	0.038332	-0.001549	-0.355828	0.011204	0.011532	-0.355629	0.008782	0.012772	-0.355442	0.080745	-0.023570	-0.355458	-0.052185	0.007976	-0.355568	-0.003770	0.040468	-0.355615	0.032860	0.018915	-0.355578	-0.023713	-0.022010	-0.355535	0.030304	-0.025421	-0.355533	0.006463	-0.061907	-0.355555	0.000285	-0.018959	-0.355568	0.017753	0.006586	-0.355562	-0.044341	0.026049	-0.355552	-0.003187	-0.013970	-0.355550	-0.032217	0.007234	-0.355555	0.017231	-0.017226	-0.355558	0.061154	-0.029619	-0.355557	-0.011468	0.017116	-0.355555	-0.009678	-0.014667	-0.355554	-0.101622	-0.027872	-0.355555	-0.049984	0.008162	-0.355556	0.055030	0.012865	-0.355556	0.036783	0.018050	-0.355555	0.011089	0.006934	-0.355555	-0.014951	0.008987	-0.355555	0.005472	-0.033051	-0.355556	0.018846	0.030172	-0.355556	0.019720	-0.025414	-0.355556	0.024843	-0.023535	-0.355556	0.007951	0.014362	-0.355556	0.009175	0.005660	-0.355556	-0.010814	0.016812	-0.355556	-0.024680	0.010612	-0.355556	0.009231	-0.009758	-0.355556	0.022071	0.028583	-0.355556	-0.103260	-0.011916	-0.355556	0.039718	-0.016800	-0.355556	0.065197	-0.074880	-0.355556	0.014126	-0.057280	-0.355556	0.014460	0.013582	-0.355556	-0.016485	0.039097	-0.355556	-0.077028	0.012671	-0.355556	-0.007482	-0.017629	-0.355556	0.007537	0.023027	-0.355556	-0.006828	0.005327	-0.355556	0.009744	-0.019538	-0.355556	0.040364	0.030279	-0.355556	0.000960	0.060097	-0.355556	-0.006699	-0.050132	-0.355556	0.011046	-0.022985	-0.355556	0.023364	0.019159	-0.355556	-0.008756	0.017619	-0.355556	-0.014953	-0.012085	-0.355556	-0.015028	0.084106	-0.355556	-0.004459	-0.162227	-0.355556	0.046146	0.025841	-0.355556	-0.102429	0.004610	-0.355556	-0.020746	0.036872	-0.355556	0.118491	-0.060550	-0.355556	0.020503	-0.017540	-0.355556	-0.023530	0.016401	-0.355556	-0.013750	0.030638	-0.355556	0.002690	-0.018513	-0.355556	-0.050271	0.005823	-0.355556	0.027385	0.034560	-0.355556	0.012985	-0.039338	-0.355556	-0.016478	0.007146	-0.355556	-0.024943	0.033140	-0.355556	-0.004365	0.041299	-0.355556	0.063896	-0.013645	-0.355556	0.046757	-0.025573	-0.355556	-0.089035	-0.035091	-0.355556	-0.047996	0.029948	-0.355556	-0.036107	0.035605	-0.355556	0.110183	-0.007007	-0.355556	0.107267	-0.011926	-0.355556	-0.024017	0.012249	-0.355556	-0.083570	-0.024436	-0.355556	0.028809	-0.074577	-0.355556	-0.051456	0.006358	-0.355556	-0.036841	-0.057520	-0.355556	-0.221146	0.078614	-0.355556	0.178699	-0.039376	-0.355556	0.206439	-0.057971	-0.355556	0.103573	0.106105	-0.355556	-0.007859	-0.021173	-0.355556	-0.099677	-0.028347	-0.352340	-0.021988	-0.093887	-0.342379	-0.102718	0.066819	-0.344239	0.006779	0.138705	-0.348551	0.018257	0.029676	-0.357816	0.029778	0.056321	-0.355329	-0.067132	-0.319956	-0.354392	0.059090	0.042393	-0.355488	-0.083030	0.031447	-0.356203	0.030637	0.053486	-0.355863	0.153903	-0.081868	-0.366325	-0.113115	-0.053799	-0.364954	0.004982	0.082971	-0.367303	0.069536	0.100356	-0.367464	-0.131944	0.040059	-0.366536	0.005226	-0.076312	-0.362980	0.023233	0.071408	-0.353369	0.075596	-0.033086	-0.355559	-0.051902	0.009532	-0.367613	-0.002453	0.000591	-0.365401	0.005105	0.118822	-0.366775	-0.029952	-0.120195	-0.367004	-0.053448	-0.083553	-0.366621	0.107274	0.062826	-0.366491	0.079751	0.043252	-0.366644	-0.014642	0.016995	-0.366762	0.030953	-0.103430	-0.366724	-0.002485	-0.186896	-0.366640	0.003962	-0.172990	-0.366621	-0.107894	0.106874	-0.366658	0.091674	0.145235	-0.366688	0.002447	0.068652	-0.366682	-0.103852	-0.046302	-0.366663	-0.054342	0.070240	-0.366657	0.102621	0.098693	-0.366664	-0.087092	0.019313	-0.366671	0.048372	0.043765	-0.369886	-0.113334	-0.066753	-0.376627	-0.022635	0.018274	-0.364805	0.251651	-0.031148	-0.365569	-0.085238	-0.026245	-0.367363	0.126245	0.090950	-0.367295	-0.109517	-0.029335	-0.366506	-0.157491	-0.022327	-0.366266	0.012412	-0.063025	-0.366579	0.168311	-0.162744	-0.366847	0.027887	0.075444	-0.366803	0.067143	-0.019799	-0.366635	0.007411	0.109578	-0.366576	-0.047285	-0.042136	-0.366638	-0.193252	-0.149345	-0.366702	0.003784	-0.013551	-0.366700	0.050017	0.031356	-0.366664	0.075124	0.088552	-0.366648	0.039539	-0.044041	-0.366658	0.009506	-0.077308	-0.366673	-0.157717	0.079224	-0.366674	0.022911	0.076555	-0.366667	0.032636	0.085923	-0.366663	-0.145837	0.073808	-0.366664	0.026831	-0.043086	-0.366668	0.086262	-0.036478	-0.366668	0.185727	-0.060963	-0.355668	-0.028115	0.040840	-0.356982	-0.038267	0.050543	-0.354904	-0.048479	-0.044701	-0.354909	0.161038	-0.032421	-0.355770	-0.130911	-0.004656	-0.355987	-0.036986	0.017421	-0.358826	0.038708	-0.148573	-0.368511	-0.109667	0.066520	-0.366734	-0.102208	0.029147	-0.365830	0.072632	-0.068429	-0.366576	0.012244	0.004997	-0.367122	0.080447	0.039429	-0.366894	0.162478	0.089680	-0.366504	-0.013884	-0.146881	-0.366458	-0.017856	0.006318	-0.366655	-0.038829	0.040563	-0.366776	-0.053836	0.136048	-0.366729	-0.035386	-0.024710	-0.366638	-0.003407	-0.068820	-0.366619	-0.050726	0.000464	-0.366658	0.147239	-0.010319	-0.366688	0.096939	0.060300	-0.366682	-0.124273	0.025711	-0.366663	-0.124971	0.084927	-0.366656	-0.043224	0.085198	-0.366664	0.057545	-0.208346	-0.366671	0.016632	-0.175725	-0.366670	0.174723	-0.018668	-0.366666	-0.043744	0.075706	-0.366664	-0.039021	0.060990	-0.366666	-0.112125	0.069928	-0.366667	0.096888	0.028242	-0.366668	0.050801	-0.183044	-0.369882	0.000718	-0.031938	-0.379843	-0.057436	-0.058762	-0.377983	0.014019	0.252866	-0.376887	0.133784	0.061698	-0.377583	-0.101292	-0.042825	-0.378211	-0.029424	-0.122314	-0.378050	-0.076840	-0.036464	-0.377650	-0.008402	0.015777	-0.377563	-0.006667	0.122721	-0.377743	-0.008187	0.005888	-0.377880	0.054520	0.059503	-0.377848	0.040164	-0.004219	-0.366758	-0.184908	-0.106433	-0.368045	0.079861	0.018456	-0.366003	0.114267	-0.030412	-0.366039	0.100075	-0.097960	-0.366898	0.055247	0.020796	-0.367096	0.015678	-0.077483	-0.366712	-0.136679	-0.001792	-0.366442	-0.035983	0.024658	-0.366532	-0.128659	0.032821	-0.366725	-0.093474	0.123109	-0.366770	-0.044971	0.160791	-0.366687	0.348588	-0.081619	-0.366621	0.002345	-0.255230	-0.366632	-0.086667	-0.008092	-0.366674	-0.046402	0.050011	-0.366689	0.010908	0.054489	-0.366674	0.005851	0.002211	-0.366658	0.065805	-0.111788	-0.366659	0.078576	-0.072650	-0.366667	0.005205	0.025043	-0.366671	-0.115547	0.107907	-0.366669	-0.018202	0.136339	-0.366665	-0.061401	-0.046377	-0.366665	0.082007	-0.009744	-0.366667	-0.072440	0.015990	-0.366668	0.038221	0.069372	-0.366667	-0.134310	-0.070049	-0.366666	0.094768	-0.085422	-0.366666	0.166982	-0.042637	-0.366667	-0.062578	-0.050201	-0.366667	-0.024352	0.147380	-0.366667	0.035467	0.092452	-0.366667	-0.034901	0.080637	-0.366667	-0.052526	-0.057669	-0.366667	0.015950	-0.225134	-0.366667	0.052307	-0.046069	-0.366667	-0.031152	0.041073	-0.366667	0.021868	-0.050714	-0.366667	-0.044983	0.029219	-0.366667	0.004970	0.106191	-0.366667	-0.025239	0.059394	-0.366667	0.015444	0.014966	-0.366667	-0.184405	0.020678	-0.366667	0.135216	-0.004624	-0.366667	0.195102	-0.107286	-0.366667	0.028484	-0.093079	-0.366667	0.051729	0.066423	-0.366667	-0.183599	0.121055	-0.366667	-0.124235	0.053788	-0.366667	0.063999	-0.094519	-0.366667	-0.002673	-0.119918	-0.366667	0.053001	-0.047720	-0.366667	-0.012402	0.095589	-0.366667	0.049206	0.016978	-0.366667	0.013774	0.047981	-0.366667	-0.012039	0.094041	-0.366667	-0.099266	-0.108605	-0.366667	0.047985	0.093368	-0.366667	-0.023632	-0.025846	-0.366667	-0.051580	-0.064983	-0.366667	0.110902	0.036084	-0.377666	0.089985	-0.034910	-0.376351	-0.045536	-0.075692	-0.375213	-0.059277	-0.062652	-0.365248	-0.023267	0.176898	-0.366246	-0.154850	0.106550	-0.367125	0.109693	-0.125791	-0.366806	0.037995	-0.048872	-0.366455	0.020638	-0.061298	-0.366532	0.037699	-0.066277	-0.366740	-0.039679	0.066650	-0.366778	-0.157216	0.030110	-0.366678	0.042526	0.030706	-0.366610	0.143790	-0.108685	-0.366631	-0.036138	0.104072	-0.366680	-0.060364	0.139019	-0.366693	0.080474	-0.181710	-0.366673	0.028653	-0.044501	-0.366656	0.050335	0.016793	-0.366658	0.033967	-0.057127	-0.366668	-0.014062	0.072067	-0.369888	-0.145129	0.076903	-0.379845	0.025120	0.050013	-0.366982	0.120853	-0.104477	-0.367201	-0.160193	0.005658	-0.365821	-0.065918	-0.068796	-0.366453	0.091360	0.055652	-0.367154	-0.027520	0.015194	-0.366971	-0.139225	0.110990	-0.366506	0.139235	0.079829	-0.366412	0.009532	-0.090686	-0.366631	0.057446	-0.276297	-0.366792	0.016945	-0.048710	-0.366750	0.050831	0.064585	-0.366641	0.002227	0.077889	-0.366608	-0.067775	0.046752	-0.366651	0.013277	0.094304	-0.366691	-0.057826	0.100925	-0.366687	0.024972	0.103847	-0.366664	-0.063481	-0.191294	-0.366654	-0.024597	-0.198028	-0.366662	0.112550	-0.044251	-0.366671	0.037725	-0.002370	-0.366671	-0.040345	0.052102	-0.366667	0.004815	0.093149	-0.366664	-0.023560	0.105256	-0.366665	-0.007600	-0.039070	-0.366667	-0.080743	-0.040472	-0.366668	-0.035148	-0.025237	-0.366667	0.050593	0.000390	-0.366666	0.024608	-0.027837	-0.366666	0.073822	0.021148	-0.366667	0.021116	0.045400	-0.366667	0.035987	0.035376	-0.366667	0.006212	-0.019390	-0.366667	-0.158447	-0.095938	-0.366667	-0.039002	-0.141136	-0.366667	0.090921	0.009891	-0.355667	0.123664	0.081667	-0.356983	-0.121053	-0.005514	-0.354905	-0.117743	-0.047501	-0.354908	-0.141747	-0.002706	-0.355770	0.191158	0.045848	-0.355987	0.096068	0.058440	-0.355611	0.074877	0.043496	-0.366334	-0.002703	0.001686	-0.365101	-0.091407	-0.086584	-0.367372	-0.027807	-0.051124	-0.367418	-0.065376	0.075142	-0.366475	-0.047015	0.171707	-0.366190	0.151778	-0.119718	-0.366576	-0.010063	-0.097424	-0.366894	0.125239	0.058904	-0.366827	-0.043283	-0.046156	-0.366620	-0.056180	-0.002397	-0.366555	-0.237107	0.109925	-0.366636	0.036939	-0.100078	-0.366712	0.129875	-0.080438	-0.366706	-0.024526	0.007574	-0.366662	0.038911	-0.014436	-0.366643	-0.133283	0.177586	-0.366657	-0.055754	0.132836	-0.366675	0.072266	0.024589	-0.366676	0.140052	-0.235391	-0.366667	0.019528	-0.113209	-0.366662	0.060415	0.014477	-0.366664	-0.068515	-0.024709	-0.366668	-0.084438	0.139747	-0.366669	0.051901	0.118057	-0.366667	0.068722	-0.023305	-0.366666	-0.007005	-0.006175	-0.366666	-0.237473	-0.110204	-0.366667	0.085628	-0.059379	-0.366667	0.055983	0.015168	-0.366667	-0.018661	-0.157579	-0.366666	0.039319	0.118208	-0.366667	-0.028125	0.077859	-0.366667	0.004716	-0.049722	-0.366667	-0.024362	-0.078051	-0.366667	-0.082805	0.075145	-0.366667	-0.055539	0.094835	-0.366667	0.171474	-0.086484	-0.366667	0.143437	-0.097502	-0.366667	0.011583	0.001887	-0.366667	-0.047299	0.063518	-0.366667	-0.060490	-0.041471	-0.366667	0.020242	0.001778	-0.366667	-0.011554	0.038730	-0.366667	-0.055782	0.032984	-0.366667	-0.069045	0.034456	-0.366667	0.087423	0.035667	-0.366667	0.101372	0.001592	-0.366667	-0.239195	0.036758	-0.366667	-0.025363	-0.134312	-0.366667	0.025267	0.013436	-0.366667	0.097710	0.042378	-0.366667	0.020159	-0.127971	-0.366667	-0.007250	0.003638	-0.366667	0.061814	0.051877	-0.366667	0.013456	0.068627	-0.366667	-0.102805	0.053300	-0.366667	0.041127	-0.128475	-0.366667	0.001843	-0.000575	-0.366667	-0.005938	0.004063	-0.366667	-0.007364	-0.081019	-0.366667	-0.017818	-0.001067	-0.366667	-0.002221	0.059556	-0.366667	-0.008553	0.106366	-0.366667	0.025674	-0.033887	-0.366667	0.028079	-0.164319	-0.366667	0.022760	-0.105759	-0.366667	0.021529	-0.005314	-0.366667	-0.001369	0.093184	-0.366667	-0.060436	0.062922	-0.366667	0.003605	-0.029329	-0.366667	0.003031	0.004017	-0.366667	0.038553	-0.075363	-0.366667	-0.067871	0.099281	-0.366667	-0.024796	0.016939	-0.366667	0.007766	0.053890	-0.366667	0.058158	0.004112	-0.366667	-0.045493	0.142118	-0.366667	0.015092	-0.048584	-0.366667	0.022740	-0.342506	-0.366667	-0.013501	0.173302	-0.366667	-0.081970	0.186737	-0.366667	0.010147	-0.183118	-0.366667	-0.000066	-0.068354	-0.366667	0.036330	-0.102402	-0.366667	0.174935	-0.013625	-0.363451	0.025735	0.022311	-0.353490	-0.069867	0.009112	-0.355350	-0.054449	-0.007989	-0.356446	-0.045969	-0.045710	-0.366750	0.033854	0.019848	-0.364807	-0.026016	0.097755	-0.367045	-0.004372	0.029807	-0.367441	0.057964	0.002394	-0.366667	0.034109	0.062228	-0.366269	-0.020323	0.023494	-0.366509	-0.053946	0.028206	-0.366817	-0.045164	0.038084	-0.366825	0.045484	-0.058930	-0.366661	-0.011729	-0.014684	-0.366576	0.020867	-0.003809	-0.366624	-0.009643	-0.055711	-0.366695	0.004514	-0.036332	-0.366704	0.026908	0.063435	-0.366670	-0.045025	0.031844	-0.366648	-0.059725	0.037953	-0.366656	0.087960	0.029256	-0.366671	0.025318	-0.236296	-0.363459	0.015005	0.155199	-0.353492	-0.051328	0.021976	-0.355346	-0.024134	-0.069664	-0.356443	0.028570	-0.098191	-0.355751	0.012531	-0.130274	-0.355125	0.023662	-0.095986	-0.355284	0.000553	0.074686	-0.355682	-0.020210	0.066531	-0.355770	-0.112611	0.023407	-0.355590	-0.067007	0.057340	-0.355454	0.174192	0.020728	-0.355485	0.058394	0.041157	-0.355576	-0.001715	0.037695	-0.355604	-0.011231	0.041035	-0.355569	-0.031414	-0.031370	-0.355536	0.001965	0.057782	-0.355539	-0.006128	-0.062632	-0.355558	-0.014134	-0.113240	-0.355566	-0.010294	0.001679	-0.355560	0.008638	0.059197	-0.355552	-0.025149	-0.077828	-0.355552	-0.008788	0.124687	-0.355555	0.013543	-0.010015	-0.355558	-0.002191	-0.015682	-0.355557	-0.034866	0.046618	-0.366554	-0.020668	-0.052635	-0.365239	0.094265	-0.142541	-0.367317	-0.036289	0.073358	-0.367314	-0.024536	0.245212	-0.366452	0.100802	-0.122120	-0.366235	-0.033218	-0.377021	-0.366611	-0.033214	0.138111	-0.363672	0.008267	0.064811	-0.353628	0.005570	0.026319	-0.355296	-0.003524	0.078776	-0.356342	-0.041135	-0.062894	-0.355728	0.028603	-0.027067	-0.355168	0.020321	0.063307	-0.355318	0.003731	-0.031941	-0.355676	-0.032324	0.007458	-0.355748	0.011420	0.027676	-0.355583	0.069490	0.068956	-0.355462	-0.029210	-0.046320	-0.355493	0.042961	-0.067851	-0.355575	-0.028284	0.020827	-0.355599	-0.024863	0.061027	-0.355567	0.007812	-0.077544	-0.355538	-0.044749	-0.031288	-0.355540	-0.010534	-0.088571	-0.355558	0.012706	0.006223	-0.355565	0.000795	-0.003041	-0.355559	-0.008995	0.063933	-0.355552	-0.029258	0.037277	-0.355552	0.047928	0.046435	-0.355556	0.112745	0.028926	-0.355557	-0.006970	0.096548	-0.355557	-0.035073	-0.010826	-0.355555	-0.037165	-0.100262	-0.355555	0.027161	0.001724	-0.355555	-0.032627	0.110346	-0.355556	-0.089069	0.065444	-0.355556	0.001108	-0.321003	-0.355555	0.077208	0.034850	-0.355555	0.025926	0.041319	-0.355556	0.004680	-0.052801	-0.355556	-0.011770	0.009382	-0.355556	-0.048609	0.078672	-0.355556	0.007230	-0.015074	-0.355556	0.031402	0.011258	-0.355556	-0.077748	0.009969	-0.355556	0.042279	0.034059	-0.355556	0.018528	-0.006027	-0.355556	0.016856	-0.025524	-0.355556	0.007188	-0.031937	-0.352340	-0.020207	0.015234	-0.342379	-0.052658	0.014624	-0.347454	0.003492	-0.009520	-0.358512	0.081561	0.035614	-0.355956	0.032689	-0.084823	-0.354232	-0.034925	-0.029402	-0.355088	-0.031469	0.074609	-0.356116	-0.036758	0.063980	-0.356043	0.082734	-0.029344	-0.355463	-0.004187	0.035256	-0.355238	-0.000375	-0.047998	-0.355451	-0.105408	-0.032075	-0.355678	0.098186	0.041426	-0.355675	0.060458	-0.074128	-0.355549	-0.052878	-0.115707	-0.355488	0.026848	0.025303	-0.355525	-0.011898	0.009840	-0.355577	0.001521	0.028880	-0.355583	-0.072818	0.037013	-0.355558	-0.023950	0.075319	-0.355542	0.021916	0.095034	-0.355548	0.071692	-0.060656	-0.355559	0.005504	-0.096901	-0.355562	-0.067748	-0.007568	-0.355557	0.032401	-0.132986	-0.355553	0.002876	0.000984	-0.355554	0.023671	0.053236	-0.355556	-0.016919	0.005098	-0.355557	-0.062841	0.012680	-0.355556	0.061663	0.002098	-0.355555	0.056785	0.012558	-0.355555	-0.017805	0.016540	-0.355556	-0.047348	0.051998	-0.355556	-0.024988	0.009089	-0.355556	0.111498	-0.029898	-0.355555	-0.031759	-0.042582	-0.355555	-0.014911	0.031196	-0.355556	-0.046592	0.018935	-0.355556	0.027440	-0.028416	-0.355556	-0.028493	-0.033612	-0.355556	0.062830	0.004989	-0.355556	0.080380	-0.097684	-0.355556	-0.060552	-0.022128	-0.355556	-0.101255	0.081555	-0.355556	-0.036861	0.070474	-0.355556	-0.043983	-0.028922	-0.355556	0.112653	-0.048352	-0.355556	0.082724	-0.040572	-0.355556	-0.068668	-0.026503	-0.355556	0.024165	-0.050654	-0.355556	-0.075889	0.034917	-0.355556	0.012482	0.093222	-0.355556	0.093562	-0.095031	-0.355556	-0.059133	0.003677	-0.355556	0.014346	0.051158	-0.355556	-0.003057	-0.052119	-0.355556	0.002148	0.024959	-0.355556	-0.023441	0.154258	-0.355556	-0.040184	-0.010484	-0.355556	0.118658	-0.153917	-0.355556	-0.013675	-0.117621	-0.355556	-0.016408	0.048088	-0.355556	-0.015529	0.021770	-0.355556	-0.035451	-0.028800	-0.355556	-0.000473	0.065878	-0.355556	0.078829	0.054625	-0.355556	-0.024251	0.001247	-0.355556	0.063807	0.011757	-0.355556	-0.013349	-0.023725	-0.355556	-0.019868	0.007359	-0.355556	-0.020784	-0.016962	-0.355556	-0.043008	0.029645	-0.355556	-0.031386	0.039559	-0.355556	0.063784	-0.046029	-0.355556	0.035547	-0.061342	-0.355556	-0.037301	0.007107	-0.355556	0.007890	0.001937	-0.355556	0.034107	-0.000255	-0.355556	-0.040008	0.043752	-0.355556	-0.001788	-0.014346	-0.355556	0.100153	-0.017325	-0.355556	0.053260	-0.011709	-0.355556	-0.024159	0.029480	-0.355556	-0.027215	0.033043	-0.355556	-0.039418	-0.001481	-0.355556	-0.044930	-0.135608	-0.366555	-0.040508	0.060511	-0.365239	0.064995	0.023883	-0.367317	0.004253	0.013896	-0.367314	-0.016474	-0.009767	-0.355453	-0.016954	-0.042291	-0.356551	-0.018685	0.081915	-0.354850	-0.014036	0.050265	-0.355129	0.057410	-0.136159	-0.355908	-0.056623	-0.089904	-0.355933	0.045476	0.007707	-0.355507	0.046189	0.063832	-0.355312	-0.042607	-0.004324	-0.355462	-0.028607	0.056515	-0.355645	-0.022648	0.007689	-0.355652	0.035405	0.003038	-0.355556	0.041089	-0.072828	-0.355503	0.000087	0.014774	-0.355529	-0.036250	0.024473	-0.355571	-0.071895	0.024426	-0.355578	0.039884	-0.007920	-0.355558	0.054280	-0.014005	-0.355545	0.044860	0.005886	-0.355549	-0.036299	-0.013371	-0.355558	-0.044490	0.003743	-0.355560	-0.016172	0.057480	-0.355557	0.012283	0.041992	-0.355554	0.075949	-0.135310	-0.358770	-0.106817	0.024219	-0.357733	-0.032736	0.124614	-0.357190	0.036973	0.004201	-0.354015	0.034751	-0.173961	-0.354713	0.025619	0.007110	-0.356202	0.016643	-0.004607	-0.356260	-0.047094	0.088159	-0.355483	-0.013998	0.032984	-0.355120	0.021700	-0.079854	-0.355383	0.023437	-0.066906	-0.355712	0.009464	-0.003942	-0.355730	0.014226	0.013708	-0.355558	-0.022238	-0.026784	-0.355462	-0.003649	0.058737	-0.358723	0.012432	0.015294	-0.368758	0.009428	0.050402	-0.366912	-0.033427	0.017019	-0.354782	-0.023974	-0.016627	-0.359985	0.159827	-0.013235	-0.368502	-0.065378	-0.024980	-0.366502	-0.014814	0.073424	-0.365872	-0.061847	-0.041069	-0.366691	0.012238	-0.108313	-0.367117	-0.049292	-0.021690	-0.366818	0.010793	0.035784	-0.366472	0.032797	0.072365	-0.366488	0.016869	0.054935	-0.366688	0.005118	-0.004911	-0.355778	0.040242	0.014969	-0.357027	0.024089	-0.097383	-0.354867	-0.043245	0.060407	-0.354865	-0.058551	-0.040031	-0.355769	0.003063	-0.051693	-0.356010	-0.024713	0.017117	-0.355623	0.012809	0.006503	-0.355329	0.033450	0.072114	-0.355408	0.003708	0.052050	-0.355608	0.062278	0.037399	-0.355664	-0.028660	-0.212047	-0.355581	-0.021659	-0.073679	-0.355510	-0.008591	0.026440	-0.355518	0.042075	0.077756	-0.355562	-0.036819	-0.004842	-0.355579	-0.092730	-0.004461	-0.355564	0.033564	-0.106051	-0.355547	-0.002761	0.040446	-0.355547	0.094834	0.072214	-0.355556	0.011503	-0.008262	-0.355560	0.076927	-0.081756	-0.355558	-0.030044	0.063396	-0.355554	-0.013542	0.068767	-0.355554	-0.021149	-0.087025	-0.355555	-0.055111	0.017799	-0.355557	-0.005866	0.096829	-0.355556	0.001805	0.011664	-0.355555	-0.106758	-0.073625	-0.355555	0.016045	-0.042492	-0.358771	0.066391	0.048729	-0.368732	0.054290	-0.095392	-0.366873	0.007377	-0.095689	-0.365776	-0.067093	0.102439	-0.366472	-0.020654	-0.001645	-0.367099	0.014456	0.026579	-0.366939	0.012751	-0.026799	-0.366539	0.022208	-0.025227	-0.366452	0.047420	0.033885	-0.366632	0.021429	-0.010146	-0.366769	0.021003	-0.009067	-0.363522	-0.062931	0.025833	-0.353470	-0.000144	0.012141	-0.355301	0.028200	-0.032574	-0.356433	0.032214	0.011237	-0.355770	0.022924	0.012584	-0.355140	-0.075097	0.037519	-0.355281	0.020475	-0.013076	-0.355673	-0.019261	-0.101982	-0.355767	0.010882	0.004437	-0.355594	0.012848	0.064117	-0.344458	-0.015862	-0.017150	-0.345801	0.004051	-0.038315	-0.343812	0.023313	0.045410	-0.343845	-0.026847	0.021015	-0.344673	-0.142106	0.012805	-0.344858	0.090635	-0.019608	-0.344483	0.097938	-0.031570	-0.344225	0.016840	-0.015891	-0.344316	-0.098329	-0.015491	-0.344503	0.058989	0.043191	-0.344545	-0.039303	0.074784	-0.344463	-0.081749	-0.047945	-0.344399	0.061004	-0.057856	-0.341196	-0.009058	-0.019199	-0.331276	0.088212	-0.030341	-0.333149	0.007675	0.005837	-0.334231	-0.123575	-0.006839	-0.330304	-0.030151	0.051034	-0.319716	0.096721	0.001867	-0.321745	-0.009999	-0.032006	-0.323245	-0.028326	-0.069975	-0.322634	0.081219	0.028099	-0.321822	-0.020253	0.005144	-0.321846	-0.024581	0.001262	-0.322279	-0.064512	0.082827	-0.322458	-0.026316	-0.056373	-0.322306	0.016227	-0.041238	-0.322133	0.063322	-0.014323	-0.311132	0.064942	0.011459	-0.312541	-0.047296	-0.030335	-0.310511	
811 1
0.045709	0.045681	0.045656	0.045631	0.045602	0.045547	0.045496	0.045476	0.045476	0.045477	0.045453	0.045414	0.045379	0.045361	0.045341	0.045321	0.045301	0.045291	0.045288	0.045268	0.045136	0.045025	0.044936	0.044839	0.044745	0.044658	0.044574	0.044517	0.044456	0.044397	0.044339	0.044260	0.044167	0.044067	0.043933	0.043812	0.043736	0.043651	0.043568	0.043488	0.043422	0.043363	0.043309	0.043290	0.043277	0.043273	0.043270	0.043265	0.043259	0.043256	0.043255	0.043255	0.043262	0.043268	0.043290	0.043322	0.043305	0.043256	0.043207	0.043191	0.043195	0.043198	0.043198	0.043205	0.043261	0.043310	0.043348	0.043390	0.043438	0.043538	0.043578	0.043589	0.043601	0.043609	0.043612	0.043613	0.043615	0.043622	0.043665	0.043701	0.043739	0.043772	0.043799	0.043780	0.043768	0.043756	0.043745	0.043733	0.043723	0.043716	0.043731	0.043748	0.043794	0.043837	0.043879	0.043912	0.043946	0.043975	0.044001	0.043999	0.043979	0.043958	0.043940	0.043921	0.043921	0.043931	0.043949	0.044011	0.044060	0.044067	0.044083	0.044100	0.044134	0.044167	0.044216	0.044263	0.044281	0.044281	0.044280	0.044281	0.044283	0.044301	0.044330	0.044354	0.044346	0.044344	0.044344	0.044346	0.044348	0.044350	0.044362	0.044379	0.044397	0.044399	0.044392	0.044392	0.044398	0.044404	0.044404	0.044405	0.044408	0.044412	0.044415	0.044406	0.044399	0.044391	0.044383	0.044408	0.044452	0.044495	0.044533	0.044572	0.044622	0.044671	0.044720	0.044769	0.044896	0.045071	0.045247	0.045485	0.045763	0.046045	0.046321	0.046591	0.046829	0.047074	0.047407	0.048329	0.049140	0.049842	0.050584	0.051312	0.052025	0.053373	0.055115	0.056870	0.059835	0.063557	0.067542	0.071578	0.075607	0.079704	0.083808	0.088305	0.095351	0.105215	0.132932	0.130898	0.133962	0.136316	0.137520	0.138703	0.140382	0.142265	0.143978	0.145505	0.150969	0.158928	0.166128	0.172464	0.178272	0.181484	0.185207	0.188754	0.192143	0.196138	0.203991	0.211294	0.233635	0.235679	0.242911	0.247033	0.249852	0.256412	0.265561	0.271158	0.273903	0.276394	0.279446	0.282779	0.287466	0.292861	0.298194	0.303092	0.308094	0.312922	0.317610	0.322448	0.328415	0.333928	0.337522	0.341442	0.345330	0.349631	0.353881	0.356789	0.358861	0.360885	0.362996	0.365128	0.368484	0.372583	0.376803	0.381558	0.386135	0.390300	0.394361	0.397009	0.399825	0.402447	0.404170	0.406048	0.407902	0.409721	0.412114	0.414871	0.417644	0.421354	0.425651	0.429458	0.432883	0.438108	0.445929	0.446284	0.447032	0.448878	0.450704	0.452100	0.453371	0.454827	0.456443	0.458158	0.460575	0.462835	0.465389	0.468142	0.470265	0.471957	0.473625	0.475058	0.476331	0.477577	0.478828	0.480244	0.482699	0.484998	0.487545	0.490248	0.492167	0.493580	0.494977	0.496641	0.498437	0.499494	0.500085	0.500669	0.501326	0.501996	0.503154	0.504609	0.506292	0.508079	0.509710	0.511240	0.512769	0.514416	0.516128	0.517835	0.519100	0.520104	0.521107	0.522145	0.523223	0.524533	0.525800	0.528872	0.530180	0.530423	0.530435	0.530549	0.530755	0.530952	0.531111	0.531319	0.531494	0.531419	0.531384	0.531327	0.531256	0.531191	0.530898	0.530462	0.529991	0.529365	0.528769	0.528125	0.527449	0.526788	0.526214	0.525672	0.525410	0.525106	0.524833	0.524693	0.524532	0.524371	0.524213	0.524040	0.523759	0.523492	0.523217	0.522935	0.522586	0.522198	0.521724	0.521204	0.520683	0.520229	0.519814	0.519398	0.518977	0.518531	0.517926	0.517347	0.516783	0.516369	0.515933	0.515587	0.515294	0.514743	0.514026	0.513245	0.512453	0.511664	0.511018	0.510457	0.509898	0.509330	0.508763	0.507856	0.506742	0.505619	0.504510	0.503407	0.502115	0.500710	0.499273	0.497648	0.496215	0.495796	0.495211	0.494678	0.494187	0.493684	0.492707	0.491452	0.490214	0.489106	0.487988	0.486828	0.485647	0.484991	0.484658	0.484334	0.483965	0.483575	0.483114	0.482674	0.482322	0.482017	0.481714	0.481381	0.481076	0.481056	0.480995	0.480946	0.480906	0.480937	0.481010	0.481098	0.481274	0.481430	0.481549	0.481678	0.481587	0.481362	0.481136	0.480929	0.480725	0.480515	0.480300	0.479937	0.479485	0.479028	0.478555	0.478115	0.477851	0.477557	0.477311	0.477315	0.477281	0.477253	0.477233	0.477013	0.476526	0.476434	0.476325	0.476159	0.475991	0.475848	0.475714	0.475467	0.474540	0.473715	0.472293	0.470505	0.468770	0.467122	0.465483	0.462772	0.459413	0.457053	0.455395	0.453765	0.452022	0.450010	0.446489	0.443233	0.439379	0.435138	0.431144	0.427373	0.423832	0.421616	0.419171	0.416803	0.414499	0.411659	0.405396	0.399640	0.392681	0.384977	0.377051	0.367690	0.358581	0.347022	0.333971	0.325391	0.319761	0.314230	0.308260	0.301586	0.291143	0.281402	0.273025	0.265408	0.257843	0.248539	0.238200	0.229702	0.222460	0.215852	0.212927	0.209373	0.206071	0.202943	0.199208	0.191804	0.185257	0.180730	0.175791	0.172019	0.168992	0.165957	0.162311	0.158355	0.155926	0.154466	0.153021	0.151421	0.149704	0.147461	0.145342	0.143063	0.139965	0.137101	0.134974	0.132717	0.131135	0.129973	0.128812	0.127587	0.126254	0.124312	0.122481	0.120558	0.118249	0.116000	0.113762	0.111525	0.109244	0.106705	0.104432	0.103624	0.102583	0.101614	0.100698	0.099623	0.098433	0.097237	0.096100	0.094995	0.093877	0.092713	0.091610	0.090877	0.090090	0.089267	0.088115	0.087102	0.086668	0.086131	0.085630	0.085156	0.084563	0.083887	0.083207	0.082078	0.080762	0.080013	0.079207	0.078476	0.078028	0.077525	0.077028	0.076544	0.075946	0.075271	0.074592	0.073701	0.072680	0.071920	0.071339	0.070765	0.070108	0.069411	0.068923	0.068567	0.068241	0.068085	0.067896	0.067725	0.067564	0.067370	0.067150	0.066928	0.066510	0.066010	0.065757	0.065479	0.065223	0.065018	0.064800	0.064582	0.064367	0.064002	0.063543	0.063187	0.062908	0.062632	0.062290	0.061910	0.061523	0.061067	0.060660	0.060492	0.060283	0.060087	0.059903	0.059656	0.059367	0.059077	0.058743	0.058381	0.058084	0.057830	0.057596	0.057468	0.057323	0.057185	0.057051	0.056857	0.056624	0.056399	0.056239	0.056072	0.055891	0.055702	0.055515	0.055348	0.055179	0.055027	0.054885	0.054752	0.054678	0.054595	0.054515	0.054438	0.054262	0.054025	0.053842	0.053701	0.053562	0.053428	0.053299	0.053183	0.053141	0.053087	0.053036	0.052987	0.052933	0.052876	0.052819	0.052763	0.052703	0.052619	0.052538	0.052446	0.052346	0.052259	0.052182	0.052104	0.052063	0.052043	0.052025	0.052004	0.051983	0.051960	0.051937	0.051897	0.051738	0.051609	0.051549	0.051474	0.051390	0.051303	0.051261	0.051245	0.051230	0.051212	0.051194	0.051147	0.051082	0.051018	0.050962	0.050905	0.050782	0.050620	0.050509	0.050435	0.050363	0.050304	0.050254	0.050208	0.050161	0.050102	0.049967	0.049853	0.049795	0.049726	0.049644	0.049557	0.049504	0.049471	0.049439	0.049395	0.049346	0.049297	0.049250	0.049213	0.049243	0.049263	0.049301	0.049440	0.049451	0.049398	0.049346	0.049305	0.049265	0.049222	0.049177	0.049145	0.049186	0.049212	0.049216	0.049226	0.049222	0.049139	0.049068	0.049043	0.049044	0.049046	0.049046	0.049046	0.049047	0.049048	0.049016	0.048963	0.048918	0.048927	0.048928	0.048875	0.048790	0.048726	0.048680	0.048641	0.048643	0.048638	0.048635	0.048635	0.048630	0.048593	0.048569	0.048607	0.048635	0.048672	0.048750	0.048821	0.048891	0.048962	0.049015	0.049055	0.049094	0.049136	0.049177	0.049259	0.049347	0.049327	0.049321	0.049314	0.049341	0.049363	0.049390	0.049418	0.049439	0.049456	0.049474	0.049493	0.049511	0.049529	0.049546	0.049562	0.049550	0.049520	0.049493	0.049471	0.049449	0.049449	0.049464	0.049480	0.049494	0.049524	0.049565	0.049623	0.049786	0.049932	0.050111	0.050311	0.050549	0.051034	0.051248	
706 3
-0.047296	-0.030335	-0.310511	0.041841	0.042017	-0.310488	-0.047727	0.027372	-0.300311	-0.111134	0.036891	-0.301838	0.084495	-0.024246	-0.288403	0.011512	-0.074853	-0.289459	0.066167	-0.010444	-0.277321	0.017883	0.057506	-0.279041	-0.050698	0.052500	-0.277496	0.006461	-0.084979	-0.274148	-0.040404	0.009250	-0.264690	-0.117995	0.040541	-0.266693	0.031426	-0.014280	-0.267585	0.053588	0.008168	-0.266739	-0.029020	-0.084766	-0.255162	0.095943	-0.003843	-0.256744	-0.011919	-0.006766	-0.255090	-0.090926	0.056030	-0.255134	0.035766	0.047793	-0.255778	0.051784	-0.006852	-0.255866	0.099865	-0.007155	-0.255545	-0.098430	-0.013346	-0.255368	0.032025	0.037024	-0.255470	0.082660	0.016819	-0.252403	-0.098808	0.054951	-0.242459	-0.056308	0.016620	-0.244245	0.021851	-0.000471	-0.242079	-0.059361	-0.067891	-0.231439	0.019676	-0.020036	-0.232705	0.006823	-0.072813	-0.233969	-0.008126	-0.002558	-0.222660	-0.077711	0.067991	-0.223424	0.093765	-0.014598	-0.221328	0.058918	-0.040698	-0.221602	-0.070700	0.066499	-0.211586	-0.118724	-0.043209	-0.213026	0.082248	0.024350	-0.210460	0.216460	-0.010728	-0.210185	-0.003818	0.039215	-0.211188	0.072673	0.048781	-0.211629	-0.027930	0.040611	-0.211286	-0.103890	-0.161260	-0.210904	-0.073754	-0.056232	-0.210915	0.025753	-0.003879	-0.200130	-0.016343	-0.011677	-0.201544	-0.097810	-0.037815	-0.188399	-0.015121	0.002365	-0.186414	0.088577	0.075374	-0.175230	-0.039864	0.035467	-0.174139	-0.088404	-0.006512	-0.165786	0.118746	-0.047503	-0.166880	0.177846	0.030335	-0.167035	0.000044	-0.023918	-0.166412	-0.076230	0.066181	-0.155326	0.014505	0.050119	-0.157007	-0.005471	-0.073313	-0.144130	-0.048880	-0.001196	-0.145324	-0.057484	0.022108	-0.140716	-0.008176	-0.029485	-0.130957	0.059278	-0.002630	-0.133390	-0.057877	0.012874	-0.134483	0.015307	0.031801	-0.133473	0.030252	0.009261	-0.132722	0.023588	-0.023049	-0.122006	0.019572	0.076570	-0.120634	0.039850	-0.014279	-0.108678	-0.028700	0.011558	-0.099288	-0.080939	-0.008562	-0.099175	-0.035609	0.014579	-0.086712	-0.036516	0.003753	-0.084476	0.105296	0.002753	-0.076388	0.037227	0.021938	-0.078202	-0.083116	-0.006999	-0.078533	-0.003743	0.064603	-0.077596	0.129107	-0.109673	-0.066260	-0.078858	-0.028449	-0.067989	-0.000181	-0.041536	-0.066272	0.056899	-0.011471	-0.066205	-0.001448	-0.001801	-0.066831	-0.064075	0.007064	-0.066970	-0.055042	-0.061881	-0.055685	-0.017068	0.085693	-0.056813	0.029672	-0.012298	-0.054813	0.098077	0.043480	-0.043959	-0.009665	-0.028183	-0.046163	0.024011	-0.025000	-0.044237	-0.038900	0.011332	-0.043817	-0.101844	0.026897	-0.044414	0.072317	-0.020865	-0.041530	-0.024110	-0.004772	-0.031394	0.017358	0.030830	-0.033015	-0.037863	-0.059676	-0.034102	0.052543	-0.062089	-0.022532	-0.092818	0.004758	-0.023286	0.006460	0.014149	-0.010333	0.123122	0.043202	-0.011997	-0.086676	0.042161	-0.009914	0.069262	-0.003891	-0.008456	-0.028398	-0.081361	-0.007283	0.045332	0.016938	-0.005785	-0.039211	0.032310	-0.004115	0.007964	0.024782	-0.002576	-0.007477	-0.040135	-0.001181	-0.027689	-0.006553	0.000224	0.026641	0.040390	0.001716	-0.022115	-0.002173	0.003246	-0.016459	-0.064834	0.004746	0.025398	0.065395	0.006211	-0.010641	-0.023301	0.007674	0.017724	-0.056491	0.009155	-0.071018	0.024648	0.010646	0.143682	0.024641	0.011185	0.081045	-0.066813	0.011140	-0.000799	0.028168	0.011079	-0.170668	0.057688	0.011094	0.033952	0.014921	0.011124	0.086842	-0.052716	0.011125	-0.058768	-0.021436	0.022109	-0.073077	0.035958	0.020787	0.043540	-0.012267	0.022870	0.095195	0.000428	0.022872	-0.099051	0.049170	0.022011	0.116605	-0.093500	0.021790	-0.112629	0.089231	0.022165	-0.226864	-0.024765	0.022442	0.009007	-0.004259	0.022361	0.295024	-0.025503	0.022169	-0.132212	0.038772	0.033118	0.033597	0.014963	0.031883	0.196709	-0.032907	0.034029	-0.021543	-0.003554	0.034016	0.014817	-0.032261	0.033112	-0.022683	-0.070078	0.032879	-0.043994	0.014619	0.033271	-0.037483	0.062149	0.033562	-0.032920	-0.008079	0.033480	-0.025317	-0.023091	0.033279	0.112282	-0.000258	0.036441	0.054941	0.071882	0.046485	0.051990	0.053719	0.044697	-0.080190	-0.089816	0.043591	-0.082182	0.013574	0.044243	-0.092721	-0.041210	0.044854	-0.047274	0.019774	0.044709	0.071522	0.082473	0.047541	0.085074	0.018268	0.057415	0.042525	0.005704	0.055726	-0.086357	-0.070533	0.054762	-0.018622	0.023807	0.055429	0.166351	-0.063524	0.055970	-0.019871	-0.011375	0.055782	-0.059942	0.007976	0.066414	-0.002675	-0.061161	0.065043	0.017421	0.012361	0.067299	-0.036432	0.083779	0.067414	-0.047733	-0.000009	0.066513	0.030639	-0.056023	0.066211	0.057850	-0.009244	0.066566	0.018937	0.017069	0.066878	0.004198	0.004491	0.066825	0.005131	-0.012587	0.066627	-0.026029	-0.044470	0.066560	0.000382	0.052573	0.066634	0.064319	0.042412	0.066709	0.001806	0.011829	0.066705	-0.118511	-0.076127	0.066663	0.037127	0.031149	0.066644	-0.065616	-0.014394	0.066657	-0.054427	-0.046054	0.066674	-0.015597	0.031502	0.066676	0.106201	-0.001782	0.066667	0.044292	-0.044519	0.066662	0.043020	0.026730	0.066664	-0.055963	0.055929	0.066668	-0.018816	-0.039288	0.077668	0.079833	0.071459	0.076351	-0.002853	-0.036076	0.078428	-0.037557	-0.094929	0.078424	0.051895	0.062573	0.077563	-0.002299	0.052849	0.077346	-0.014370	0.006866	0.077723	-0.076964	-0.067572	0.077998	0.018145	-0.064525	0.077916	0.012778	0.001223	0.077724	-0.013624	-0.027229	0.077674	-0.005726	-0.001349	0.077755	0.027103	0.017255	0.074607	-0.006546	-0.014683	0.064636	-0.002038	0.006495	0.066454	0.031948	0.035195	0.067535	0.043208	0.004899	0.066854	-0.047167	-0.021584	0.066242	-0.160912	-0.026216	0.066402	0.048055	0.045118	0.066794	0.059039	0.042298	0.066877	0.030808	-0.039875	0.066699	-0.010110	-0.057284	0.066566	0.041753	0.000975	0.066598	0.097932	0.051063	0.066687	-0.061671	-0.043897	0.066714	-0.073742	0.021731	0.066680	0.067533	0.016853	0.066647	0.041243	-0.006065	0.066650	0.048471	-0.064326	0.066669	-0.025404	-0.032617	0.066677	-0.083978	0.075256	0.066671	-0.131363	0.020318	0.066663	-0.012919	-0.055853	0.066663	0.052628	0.025393	0.066667	0.040683	-0.037926	0.066669	0.011507	-0.009612	0.066668	0.083030	0.032058	0.066666	0.054351	-0.014512	0.066666	-0.046190	-0.036061	0.066667	-0.018895	0.016338	0.066667	-0.056787	0.044438	0.066667	0.015624	0.013212	0.066667	-0.009312	0.034097	0.066666	0.052345	-0.021329	0.066667	0.020464	-0.015054	0.066667	0.000944	-0.000819	0.066667	0.011076	-0.025365	0.066667	-0.012012	0.006888	0.066667	-0.017451	-0.035486	0.066667	-0.026146	-0.026860	0.066667	-0.004446	0.050342	0.066667	-0.064463	0.050435	0.066667	0.032599	-0.062640	0.066667	-0.088174	0.009209	0.066667	0.084187	-0.006050	0.066667	0.234313	-0.054787	0.066667	0.007614	-0.021188	0.066667	-0.143427	0.032557	0.066667	-0.008501	0.044843	0.066667	0.046551	-0.039762	0.066667	0.016947	0.010272	0.066667	-0.010486	0.018593	0.066667	-0.096736	-0.012869	0.066667	0.049797	-0.055066	0.066667	0.009854	0.014569	0.066667	-0.009533	0.023984	0.066667	-0.012350	-0.007018	0.066667	0.014378	0.019279	0.066667	0.014381	0.036071	0.066667	-0.094469	0.013627	0.066667	0.027210	-0.007637	0.066667	-0.033543	-0.002165	0.066667	-0.116372	0.002711	0.066667	0.235343	-0.049330	0.066667	0.062699	-0.027886	0.066667	-0.025881	0.019313	0.066667	-0.007704	-0.029020	0.066667	0.060397	-0.079707	0.066667	-0.054304	0.124746	0.066667	-0.045730	0.033623	0.066667	0.065801	-0.046595	0.066667	-0.008500	-0.049340	0.066667	-0.021773	-0.048634	0.066667	-0.015939	0.012363	0.066667	-0.180337	0.115600	0.066667	0.089072	-0.034175	0.066667	0.038380	0.035124	0.066667	0.178260	-0.108972	0.066667	-0.035372	-0.057728	0.066667	-0.074200	0.014314	0.066667	0.036638	0.057111	0.066667	-0.051472	-0.046743	0.058883	0.050130	0.090880	0.059160	0.022127	0.099432	0.056538	-0.079299	0.028475	0.053367	-0.036794	-0.027000	0.054928	-0.091429	-0.053827	0.056635	0.053362	-0.198331	0.056315	0.053788	-0.040158	0.055263	0.048112	0.068625	0.054982	-0.109198	0.018563	0.055437	0.023594	0.056666	0.055816	0.249955	0.000497	0.055753	0.067580	0.002879	0.066512	0.019395	-0.008129	0.065111	-0.136457	-0.046631	0.067276	-0.167985	-0.013748	0.067363	-0.006829	0.023455	0.066499	-0.011497	0.019250	0.066232	-0.013143	0.047727	0.063369	0.067141	0.005381	0.053699	-0.072462	-0.137047	0.055497	0.049506	0.047701	0.056403	0.024968	0.012892	0.055647	0.072760	-0.052143	0.055095	-0.122165	0.041354	0.055325	-0.025844	-0.053335	0.055719	0.007131	0.093339	0.055766	0.063298	-0.003935	0.058784	0.128615	-0.036009	0.068621	0.071252	0.064555	0.066809	-0.030563	0.082020	0.065805	-0.155440	-0.108506	0.063305	-0.001509	0.005912	0.053932	-0.142660	0.038509	0.055601	0.032020	-0.111604	0.056303	0.159164	-0.095557	0.055539	0.035763	-0.009551	0.058314	-0.016705	0.047000	0.060781	-0.071954	0.031428	0.070559	0.015134	0.111095	0.065522	0.050515	0.024297	0.064921	-0.050026	-0.064573	0.067006	0.041666	-0.110293	0.067754	0.016701	-0.084438	0.066903	0.032100	0.053377	0.066149	-0.044134	0.129311	0.066282	0.001332	0.000128	0.066766	-0.031111	-0.036867	0.066930	-0.013632	-0.052371	0.066746	-0.051931	0.057652	0.066563	-0.070827	0.030987	0.066572	-0.006887	-0.012118	0.066675	-0.016935	0.118813	0.066722	0.158860	0.053557	0.066690	0.174831	-0.089008	0.066648	-0.055185	-0.109491	0.066645	-0.065474	-0.167020	0.066666	0.029773	-0.041158	0.066678	-0.063198	0.068199	0.066673	-0.001478	0.133566	0.066664	0.052335	0.011582	0.066662	-0.140404	0.021954	0.066666	0.013857	0.065843	0.066669	-0.094156	-0.099183	0.066668	0.210698	-0.094057	0.066666	0.076557	0.017855	0.066666	-0.101414	-0.050928	0.066666	-0.036956	0.001204	0.066667	0.158215	0.045490	0.066667	-0.041864	0.046419	0.066667	-0.077749	0.013957	0.066666	-0.016070	0.039494	0.066667	-0.099786	0.046757	0.066667	0.164990	-0.081716	0.066667	-0.184181	0.074116	0.066667	0.013239	-0.061984	0.066667	0.215058	-0.114480	0.066667	-0.184804	-0.083073	0.066667	-0.151734	0.026505	0.066667	0.213953	0.103792	0.066667	0.117107	0.034306	0.066667	0.130477	0.042588	0.066667	0.023493	0.025268	0.066667	0.050334	-0.041471	0.066667	-0.214098	-0.185176	0.066667	-0.012138	0.079844	0.066667	-0.088334	0.000098	0.069882	-0.049372	-0.021599	0.079843	0.106282	0.162658	0.066984	-0.033714	-0.064373	0.067203	0.032659	0.097527	0.065821	-0.103886	0.107316	0.066452	0.234114	-0.074497	0.067154	-0.101862	-0.131897	0.066971	-0.259030	-0.065252	0.066507	0.022532	0.026927	0.066412	0.296973	-0.028555	0.066631	0.040227	-0.084548	0.066792	-0.032386	0.152374	0.066750	-0.088807	0.107564	0.066641	-0.047615	-0.235626	0.066608	0.174476	-0.170069	0.066651	-0.025332	0.088790	0.066691	-0.218540	0.156158	0.066687	0.018716	0.142601	0.066664	0.033905	0.070371	0.066654	0.265355	-0.091130	0.066662	-0.125136	-0.204510	0.066671	-0.229953	0.010370	0.066671	0.120767	0.056711	0.066667	0.023755	-0.100707	0.066664	0.023612	-0.088150	0.066665	0.172926	-0.030311	0.066667	-0.010553	0.023916	0.066668	-0.139382	0.073577	0.066667	-0.082930	0.088219	0.066666	-0.014965	0.053080	0.066666	0.293488	-0.003370	0.066667	-0.169929	-0.097222	0.066667	0.137477	0.083909	0.066667	-0.009169	0.136866	0.066667	-0.246266	-0.028897	0.066667	0.043052	-0.258093	0.066667	-0.032549	0.191394	0.066667	0.013774	0.021884	0.066667	0.103752	-0.070745	0.066667	-0.091407	-0.025141	0.066667	0.090910	-0.020684	0.066667	0.052991	0.016550	0.069882	-0.178456	-0.000551	0.079843	0.163758	0.010651	0.077983	0.117976	-0.153485	0.076887	-0.079769	-0.146336	0.077583	-0.146319	-0.023806	0.078211	-0.208006	0.154458	0.074835	0.126655	0.088469	0.064474	0.017564	-0.024823	0.066246	-0.039453	0.035457	0.067523	0.233963	0.003657	0.066964	0.118660	0.009350	0.066304	-0.076448	-0.028102	0.066374	-0.021239	-0.045977	0.066746	0.018859	0.092849	0.066868	0.123921	-0.027201	0.066721	-0.214898	0.026251	0.066582	-0.110750	0.001993	0.066594	-0.056939	-0.022295	0.069892	0.084440	0.059784	0.068888	0.097533	-0.083952	0.068317	-0.026762	-0.155740	0.065110	-0.194651	-0.055948	0.065808	0.036117	0.073638	0.067314	-0.050996	0.084746	0.067380	0.267059	0.187281	0.066599	-0.141645	0.138242	0.066228	0.135562	-0.210206	0.066490	0.026389	-0.095432	0.066823	-0.141364	-0.089392	0.066843	0.153158	-0.075916	0.066670	-0.098751	-0.074754	0.066573	-0.034997	-0.081405	0.066617	0.039449	0.158937	0.066693	0.227564	0.224136	0.066706	-0.147561	-0.043119	0.066672	0.065041	-0.059460	0.066648	-0.203031	0.011573	0.066654	-0.290731	-0.015702	0.066671	0.217380	0.010550	0.066675	0.183757	0.037094	0.066669	-0.009894	-0.066691	0.066663	0.039875	0.107502	0.066664	-0.166342	0.073277	0.066667	0.119587	0.017634	0.066669	-0.167217	0.008237	0.066667	0.155428	-0.194044	0.066666	-0.058952	-0.205470	0.066666	-0.024996	0.157626	0.066667	-0.005328	0.161638	0.066667	-0.084088	-0.070444	0.066667	0.000267	-0.178559	0.066667	0.208764	-0.048650	0.066667	-0.202374	0.040481	0.066667	0.197066	-0.097215	0.066667	0.005699	-0.009993	0.066667	0.042212	0.183393	0.066667	-0.013467	0.138991	0.066667	-0.010348	0.023580	0.066667	0.037949	-0.107568	0.066667	-0.036044	-0.060176	0.066667	-0.149344	0.000556	0.066667	-0.005073	0.017931	0.066667	0.098572	0.007192	0.066667	-0.071363	-0.045388	0.066667	-0.172384	0.023424	0.066667	0.133041	-0.057607	0.066667	0.141283	0.100381	0.066667	0.127967	0.080597	0.066667	-0.045612	-0.022208	0.066667	-0.326751	-0.109728	0.066667	0.155254	-0.049041	0.066667	-0.039455	-0.038342	0.066667	-0.030808	0.028016	0.066667	0.184069	0.055360	0.066667	0.050783	0.054937	0.066667	-0.120904	-0.092077	0.066667	-0.129001	0.028876	0.066667	0.048018	0.051913	0.066667	0.047217	0.112748	0.066667	-0.037367	0.016041	0.066667	-0.052912	-0.072641	0.066667	-0.015251	-0.032792	0.066667	0.129504	-0.027224	0.066667	0.109240	-0.041994	0.066667	-0.041846	-0.115035	0.066667	0.082039	0.067915	0.066667	-0.037463	-0.056014	0.066667	0.010186	-0.040833	0.066667	0.021624	0.019878	0.066667	-0.014162	0.086392	0.066667	-0.050932	0.040266	0.066667	-0.061877	0.024032	0.066667	-0.033600	0.027827	0.066667	-0.066472	-0.050155	0.069882	0.116804	0.034353	0.079843	0.078486	-0.098727	0.077983	-0.064632	0.025890	0.076887	-0.042709	0.064868	0.077583	0.000395	0.130539	0.078211	-0.095165	-0.087456	0.078050	0.130173	-0.123851	0.077650	0.040745	0.041154	0.077563	0.054763	0.030252	0.066744	-0.042861	-0.093427	0.079195	-0.039066	-0.001744	0.075770	0.105830	0.097879	0.077761	-0.035378	0.040382	0.078591	0.022955	0.018750	0.077982	-0.100461	0.081386	0.077421	0.009249	-0.081883	0.077519	0.055124	-0.045419	0.077858	-0.024446	0.015901	0.077960	0.000868	-0.181530	0.077823	-0.042342	-0.016935	0.077700	0.060391	0.054342	0.077714	-0.023492	-0.015611	0.077788	0.013540	-0.045604	0.066818	0.055208	0.052803	0.068108	-0.046815	0.002882	0.066002	-0.119110	0.063551	0.066005	0.166097	-0.014780	0.066881	-0.039749	-0.007971	0.067107	0.006765	0.066430	0.066726	0.030007	-0.023887	0.066444	-0.109101	-0.017623	0.066525	-0.061020	0.018552	0.066721	0.089868	0.003171	0.066772	-0.014711	-0.025471	0.066690	0.147847	-0.027205	0.066621	-0.006907	-0.010204	0.069847	-0.021756	0.021093	0.079850	-0.019648	0.007920	0.078006	0.000246	0.052712	0.076895	-0.009872	0.028525	0.077575	-0.043977	-0.009029	0.078202	0.035054	-0.021026	0.078051	-0.048359	0.013619	0.074439	-0.045213	0.001137	0.064388	0.058342	0.208953	0.069641	0.029104	0.005354	0.080834	-0.022096	-0.340776	0.078249	0.017353	-0.018053	0.076435	-0.013164	0.055760	0.077263	-0.019750	-0.113040	0.078324	0.055410	0.049861	0.078285	-0.034602	-0.031597	0.077702	0.058474	0.023989	0.077459	-0.046242	-0.098836	0.077663	-0.101740	0.069410	0.077896	0.062015	0.094327	0.077900	0.013379	0.029273	0.077775	0.256488	0.077559	0.077710	-0.062719	-0.094947	0.077745	-0.113660	-0.048605	0.077798	0.081043	0.056003	0.077806	0.054530	-0.010993	0.077781	-0.081647	-0.023007	0.077764	-0.145368	0.085798	0.074554	-0.015739	0.045326	0.064604	0.109988	-0.070182	0.066467	-0.033286	-0.011633	0.067559	-0.000427	-0.012143	0.066859	-0.011250	-0.001111	0.069447	-0.001506	0.029758	0.079571	-0.001701	-0.023140	0.078112	0.021179	0.007940	0.073887	0.007828	0.020542	0.064440	0.057604	-0.004469	0.066791	-0.021272	-0.052580	0.067759	-0.020010	-0.034138	0.066754	-0.002277	-0.010192	0.066067	-0.020851	-0.023341	0.066373	0.018953	0.067504	0.066877	0.008746	0.015542	0.077935	0.043207	-0.035892	0.076367	-0.122731	0.015018	0.078288	0.012967	0.032603	0.078345	0.155598	-0.070159	0.077599	-0.044572	-0.019596	0.077408	0.038748	0.026583	0.077734	-0.027457	0.077884	0.077971	-0.023801	0.071591	0.077896	-0.010112	-0.139461	0.077728	0.058873	-0.029578	0.077687	-0.025733	-0.039983	0.066760	0.045933	0.062967	0.071349	0.007854	0.040804	0.068223	-0.050500	-0.019973	0.067646	0.008649	-0.015755	0.065320	0.000875	0.012029	0.066250	-0.071844	-0.024309	0.067377	0.021942	0.015064	0.067158	-0.029474	0.007775	0.066456	0.011505	0.108719	0.066281	0.049353	-0.083884	0.066596	0.012365	-0.109267	0.066847	-0.002312	-0.026589	0.066798	0.057330	-0.039989	0.066634	-0.073409	0.024164	0.069795	0.033158	0.035448	0.079817	-0.037218	0.002907	0.078018	-0.090194	0.007473	0.076919	0.133974	0.002864	0.077580	-0.094507	0.092327	0.070409	0.136812	-0.015864	0.073752	0.051007	-0.079849	0.069705	-0.031384	0.037725	0.065903	-0.039077	-0.123419	0.064464	0.029888	0.049792	0.078001	-0.025001	0.012092	0.074610	0.012819	-0.066402	0.065644	-0.028274	0.026946	0.066415	-0.048399	0.022921	0.066775	0.034379	0.007760	0.066536	0.074771	0.042300	0.066549	-0.049924	-0.003036	0.066745	0.001367	-0.072582	0.066797	0.042679	-0.016949	0.066689	0.001870	-0.039693	0.066601	-0.051755	0.031549	0.066619	0.022641	0.033920	0.066678	0.023709	0.014163	0.066698	-0.053264	-0.011368	0.066677	-0.009661	0.001032	0.066655	0.016448	-0.021167	0.066655	0.041498	0.017596	0.066667	-0.053905	0.031926	0.066673	-0.130643	0.001356	0.066670	0.149587	0.020421	0.066665	0.025982	-0.103357	0.066664	0.015138	-0.059333	0.066667	0.021589	-0.021413	0.066668	0.003451	0.022017	0.066667	-0.018446	0.020074	0.066666	-0.052153	0.030966	0.066666	0.007486	0.028518	0.066667	0.043264	0.008685	0.066667	-0.026051	0.024351	0.066667	0.030756	-0.011033	0.066667	0.020400	-0.004510	0.066667	-0.054098	-0.060291	0.066667	-0.005126	-0.040652	0.066667	-0.014555	-0.004273	0.066667	-0.016139	0.032498	0.066667	0.019537	0.025684	0.066667	0.062399	0.008715	0.066667	-0.041989	-0.028817	0.066667	0.015435	-0.017019	0.066667	0.043883	-0.002741	0.066667	0.045556	0.037432	0.066667	-0.132401	0.014037	0.066667	-0.070541	-0.061324	0.066667	0.103135	-0.085165	0.066667	0.074754	0.058237	0.066667	-0.034986	0.018293	0.066667	0.010154	-0.045548	0.069882	-0.197094	0.016379	0.079843	0.079611	0.016797	0.077983	0.176423	0.059976	0.076887	-0.031518	-0.056713	0.066584	-0.110352	0.009973	0.079526	0.083836	-0.039227	0.075972	0.058847	-0.041454	0.077654	-0.009849	0.038624	0.078424	0.007012	0.033915	0.074745	-0.001246	-0.013755	0.064327	-0.028790	-0.007235	0.066256	-0.120872	-0.018314	0.067620	0.037768	-0.080127	0.067005	0.036174	-0.035904	0.066270	-0.036440	-0.005776	0.066333	0.020298	0.059054	0.066744	-0.054868	0.032696	0.066890	0.020398	-0.078409	0.066733	0.022067	0.026177	0.066576	0.025975	-0.021590	0.066585	-0.073153	0.064480	0.066675	0.128643	-0.011690	0.069931	-0.003250	-0.023573	0.079863	-0.014401	0.025591	0.077967	-0.088752	-0.001795	0.076868	0.139043	0.016570	0.077582	0.002605	-0.001738	0.078221	-0.063751	-0.016532	0.074840	-0.057110	-0.004246	0.064471	0.064058	0.037429	0.066242	0.013181	0.043539	0.067522	0.019511	-0.047820	0.070181	-0.022050	-0.037883	0.079482	0.040940	-0.010038	0.077690	-0.019028	0.015249	0.076965	-0.110501	-0.001259	0.077784	-0.031799	-0.043064	0.078265	0.033773	-0.017778	0.077966	0.016985	-0.002002	0.066578	-0.004207	0.044748	0.067888	0.042501	0.016231	0.066026	-0.030222	-0.045558	0.066139	0.004445	0.049119	0.066936	0.018795	-0.054247	0.067061	-0.042169	-0.080058	0.066673	-0.045065	-0.006659	0.066442	0.136243	0.009798	0.066553	-0.039579	0.029252	0.066735	-0.027731	0.048553	0.066765	0.024842	-0.005855	0.066679	-0.027346	-0.002692	0.069835	0.043493	-0.003385	0.079813	-0.038663	-0.018420	0.077994	-0.068082	-0.079353	0.076909	0.059480	0.002010	0.077588	
706 1
