LabVIEW Measurement,
Writer_Version,2
Reader_Version,2
Separator,Comma
Decimal_Separator,.
Multi_Headings,No
X_Columns,Multi
Time_Pref,Absolute
Operator,Dymnz
Date,2017/08/30
Time,12:24:44.7566247833529791493
***End_of_Header***,
,
Channels,1,
Samples,1000,
Date,2017/08/30,
Time,12:24:44.7566247833529791493,
Y_Unit_Label,Volts,
X_Dimension,Time,
X0,0.0000000000000000E+0,
Delta_X,0.001000,
***End_of_Header***,,
X_Value,Voltage,Comment
0.000000,-4.246010
0.001000,-4.015628
0.002000,-3.235383
0.003000,-2.248940
0.004000,-1.426691
0.005000,-0.655356
0.006000,-0.139860
0.007000,0.297993
0.008000,0.350179
0.009000,0.184711
0.010000,-0.161498
0.011000,-1.108484
0.012000,-1.972735
0.013000,-2.390224
0.014000,-2.192935
0.015000,-1.774174
0.016000,-1.338866
0.017000,-0.985019
0.018000,-0.676995
0.019000,-0.500071
0.020000,-0.057126
0.021000,0.280174
0.022000,0.331087
0.023000,0.011607
0.024000,-0.769911
0.025000,-1.450875
0.026000,-2.385132
0.027000,-2.873899
0.028000,-2.794984
0.029000,-2.611696
0.030000,-2.212027
0.031000,-1.842907
0.032000,-1.419054
0.033000,-1.167034
0.034000,-1.076663
0.035000,-0.789004
0.036000,-0.442794
0.037000,-0.634991
0.038000,-0.827188
0.039000,-0.859009
0.040000,-1.209037
0.041000,-1.341412
0.042000,-1.523426
0.043000,-1.520881
0.044000,-1.737262
0.045000,-1.994374
0.046000,-2.069471
0.047000,-2.288397
0.048000,-2.546782
0.049000,-2.871353
0.050000,-2.583694
0.051000,-2.437318
0.052000,-2.027467
0.053000,-1.529791
0.054000,-1.151760
0.055000,-0.967200
0.056000,-0.999020
0.057000,-1.123758
0.058000,-1.244677
0.059000,-1.349049
0.060000,-1.746172
0.061000,-1.863272
0.062000,-1.772901
0.063000,-1.576885
0.064000,-1.751263
0.065000,-1.779265
0.066000,-1.580704
0.067000,-1.725806
0.068000,-2.135658
0.069000,-1.902730
0.070000,-1.338866
0.071000,-0.917559
0.072000,-0.651538
0.073000,-0.514072
0.074000,-0.571350
0.075000,-0.839917
0.076000,-1.100847
0.077000,-1.225584
0.078000,-1.296863
0.079000,-1.573067
0.080000,-1.564157
0.081000,-1.863272
0.082000,-2.037650
0.083000,-1.912912
0.084000,-1.832724
0.085000,-1.788175
0.086000,-1.833997
0.087000,-1.956189
0.088000,-1.984191
0.089000,-1.813632
0.090000,-1.207765
0.091000,-0.838644
0.092000,-0.985019
0.093000,-1.259951
0.094000,-1.524699
0.095000,-1.403780
0.096000,-1.226857
0.097000,-1.083027
0.098000,-1.141577
0.099000,-1.135213
0.100000,-1.007930
0.101000,-1.145396
0.102000,-1.272679
0.103000,-2.077107
0.104000,-2.899356
0.105000,-3.250657
0.106000,-2.933722
0.107000,-2.290943
0.108000,-2.096200
0.109000,-1.630344
0.110000,-2.089836
0.111000,-2.212027
0.112000,-1.947279
0.113000,-1.345230
0.114000,-0.567531
0.115000,-0.085129
0.116000,-0.200956
0.117000,-0.502617
0.118000,-0.643901
0.119000,-0.810642
0.120000,-1.006657
0.121000,-1.005385
0.122000,-1.053752
0.123000,-1.046115
0.124000,-0.985019
0.125000,-1.111030
0.126000,-1.323592
0.127000,-1.542519
0.128000,-1.651982
0.129000,-1.800903
0.130000,-2.041468
0.131000,-2.316400
0.132000,-2.350766
0.133000,-2.194208
0.134000,-1.746172
0.135000,-1.365596
0.136000,-1.221766
0.137000,-1.226857
0.138000,-1.433056
0.139000,-1.408872
0.140000,-1.197582
0.141000,-1.266315
0.142000,-1.373233
0.143000,-1.107211
0.144000,-0.871737
0.145000,-0.806823
0.146000,-0.783912
0.147000,-0.995202
0.148000,-1.301954
0.149000,-1.419054
0.150000,-1.506880
0.151000,-1.499243
0.152000,-1.455966
0.153000,-1.550156
0.154000,-1.677439
0.155000,-1.700350
0.156000,-1.598523
0.157000,-1.711805
0.158000,-1.784357
0.159000,-1.966371
0.160000,-2.609150
0.161000,-3.027911
0.162000,-2.849715
0.163000,-2.415680
0.164000,-2.042741
0.165000,-1.687622
0.166000,-1.618889
0.167000,-1.840361
0.168000,-2.367313
0.169000,-2.629516
0.170000,-2.828077
0.171000,-3.047004
0.172000,-2.581148
0.173000,-1.874728
0.174000,-1.261223
0.175000,-0.951926
0.176000,-0.374061
0.177000,0.140162
0.178000,0.446914
0.179000,0.286538
0.180000,0.096886
0.181000,-0.404609
0.182000,-0.507708
0.183000,-0.562440
0.184000,-0.716452
0.185000,-0.799186
0.186000,-0.878102
0.187000,-0.969745
0.188000,-1.477605
0.189000,-2.033831
0.190000,-2.106383
0.191000,-2.251485
0.192000,-2.200572
0.193000,-2.185298
0.194000,-2.283306
0.195000,-1.884910
0.196000,-1.608706
0.197000,-1.438147
0.198000,-1.318501
0.199000,-1.254859
0.200000,-1.234494
0.201000,-1.154306
0.202000,-1.228130
0.203000,-1.583249
0.204000,-2.152204
0.205000,-2.068198
0.206000,-1.797085
0.207000,-1.438147
0.208000,-1.182308
0.209000,-0.995202
0.210000,-0.937925
0.211000,-1.006657
0.212000,-1.029568
0.213000,-1.035933
0.214000,-1.159397
0.215000,-1.284134
0.216000,-1.285407
0.217000,-1.606160
0.218000,-1.835270
0.219000,-1.747445
0.220000,-1.928186
0.221000,-2.122929
0.222000,-1.976554
0.223000,-1.727079
0.224000,-1.523426
0.225000,-1.643072
0.226000,-1.657074
0.227000,-1.574340
0.228000,-1.575612
0.229000,-1.570521
0.230000,-1.537428
0.231000,-1.472513
0.232000,-1.357959
0.233000,-1.309591
0.234000,-1.267588
0.235000,-1.345230
0.236000,-1.434328
0.237000,-1.887456
0.238000,-2.032558
0.239000,-1.891274
0.240000,-1.762718
0.241000,-1.841634
0.242000,-2.103837
0.243000,-2.759344
0.244000,-2.828077
0.245000,-2.353312
0.246000,-1.653255
0.247000,-1.326138
0.248000,-1.217947
0.249000,-1.056298
0.250000,-1.061389
0.251000,-0.888284
0.252000,-0.526801
0.253000,-0.618444
0.254000,-1.350322
0.255000,-2.035104
0.256000,-2.186571
0.257000,-2.247667
0.258000,-2.038923
0.259000,-1.884910
0.260000,-1.691440
0.261000,-1.356686
0.262000,-0.839917
0.263000,-0.791549
0.264000,-0.958290
0.265000,-1.090664
0.266000,-0.879374
0.267000,-0.794095
0.268000,-0.650265
0.269000,-0.510254
0.270000,-0.315511
0.271000,-0.505162
0.272000,-0.819551
0.273000,-1.090664
0.274000,-1.433056
0.275000,-1.524699
0.276000,-1.593432
0.277000,-1.681257
0.278000,-1.822541
0.279000,-1.379597
0.280000,-1.111030
0.281000,-1.112302
0.282000,-1.100847
0.283000,-1.137759
0.284000,-1.235767
0.285000,-1.417782
0.286000,-1.807268
0.287000,-1.967644
0.288000,-2.428409
0.289000,-2.411862
0.290000,-2.059288
0.291000,-1.752536
0.292000,-1.571794
0.293000,-1.351594
0.294000,-1.086846
0.295000,-1.314682
0.296000,-1.471240
0.297000,-1.513244
0.298000,-1.499243
0.299000,-1.425419
0.300000,-1.425419
0.301000,-1.406326
0.302000,-1.401235
0.303000,-1.427964
0.304000,-1.539973
0.305000,-1.744899
0.306000,-2.275669
0.307000,-2.246394
0.308000,-2.028740
0.309000,-1.611252
0.310000,-1.408872
0.311000,-1.293044
0.312000,-1.144123
0.313000,-1.038478
0.314000,-1.259951
0.315000,-1.440693
0.316000,-1.560339
0.317000,-1.930732
0.318000,-2.420772
0.319000,-2.685520
0.320000,-2.582421
0.321000,-2.894264
0.322000,-3.150103
0.323000,-3.003728
0.324000,-2.478049
0.325000,-1.957461
0.326000,-1.315955
0.327000,-0.754637
0.328000,-0.246778
0.329000,0.082885
0.330000,0.212714
0.331000,0.119797
0.332000,-0.338422
0.333000,-0.978655
0.334000,-1.215402
0.335000,-2.182752
0.336000,-2.551873
0.337000,-2.372404
0.338000,-1.904003
0.339000,-1.357959
0.340000,-1.010476
0.341000,-0.698633
0.342000,-0.494980
0.343000,-0.379152
0.344000,-0.212412
0.345000,-0.440248
0.346000,-1.010476
0.347000,-1.385961
0.348000,-1.543792
0.349000,-1.565430
0.350000,-1.505607
0.351000,-1.811086
0.352000,-1.928186
0.353000,-1.960007
0.354000,-1.807268
0.355000,-1.645618
0.356000,-1.620162
0.357000,-1.588341
0.358000,-1.425419
0.359000,-1.743626
0.360000,-1.932005
0.361000,-1.878546
0.362000,-1.534882
0.363000,-1.309591
0.364000,-0.977382
0.365000,-0.838644
0.366000,-0.743182
0.367000,-0.837371
0.368000,-0.987565
0.369000,-1.065208
0.370000,-1.230676
0.371000,-1.399962
0.372000,-1.318501
0.373000,-1.560339
0.374000,-2.139476
0.375000,-2.404225
0.376000,-2.377495
0.377000,-1.914185
0.378000,-1.673620
0.379000,-1.579431
0.380000,-1.780538
0.381000,-1.891274
0.382000,-1.888729
0.383000,-1.742353
0.384000,-1.378324
0.385000,-1.301954
0.386000,-1.361777
0.387000,-1.528518
0.388000,-1.760173
0.389000,-1.812359
0.390000,-1.705441
0.391000,-1.721988
0.392000,-1.835270
0.393000,-1.954916
0.394000,-2.201845
0.395000,-2.214573
0.396000,-2.251485
0.397000,-2.374950
0.398000,-2.676610
0.399000,-2.716068
0.400000,-2.233666
0.401000,-1.623980
0.402000,-1.364323
0.403000,-1.075390
0.404000,-0.673176
0.405000,-0.133496
0.406000,0.049791
0.407000,0.049791
0.408000,0.000151
0.409000,-0.259506
0.410000,-0.510254
0.411000,-1.259951
0.412000,-1.696531
0.413000,-1.948552
0.414000,-2.601513
0.415000,-2.554419
0.416000,-2.142022
0.417000,-1.564157
0.418000,-1.142850
0.419000,-0.789004
0.420000,-0.646447
0.421000,-0.704997
0.422000,-0.679540
0.423000,-0.818279
0.424000,-0.417337
0.425000,-0.329512
0.426000,-0.615899
0.427000,-0.853918
0.428000,-1.135213
0.429000,-1.309591
0.430000,-1.478877
0.431000,-1.664711
0.432000,-1.823814
0.433000,-1.891274
0.434000,-2.087290
0.435000,-2.654972
0.436000,-2.996091
0.437000,-3.314298
0.438000,-3.955805
0.439000,-3.643961
0.440000,-2.990999
0.441000,-2.252758
0.442000,-1.602342
0.443000,-1.187399
0.444000,-0.927742
0.445000,-0.505162
0.446000,-0.021487
0.447000,-0.123313
0.448000,-0.634991
0.449000,-0.721544
0.450000,-1.298136
0.451000,-1.658346
0.452000,-1.817450
0.453000,-1.817450
0.454000,-1.891274
0.455000,-1.874728
0.456000,-1.664711
0.457000,-1.814905
0.458000,-1.771628
0.459000,-1.469968
0.460000,-1.304500
0.461000,-1.215402
0.462000,-1.149214
0.463000,-1.164488
0.464000,-1.317228
0.465000,-1.187399
0.466000,-0.887011
0.467000,-0.939197
0.468000,-1.065208
0.469000,-1.090664
0.470000,-1.305773
0.471000,-1.627799
0.472000,-1.601069
0.473000,-1.562884
0.474000,-1.519608
0.475000,-1.561611
0.476000,-1.532336
0.477000,-1.475059
0.478000,-1.939642
0.479000,-2.294761
0.480000,-2.464048
0.481000,-2.187844
0.482000,-1.897638
0.483000,-2.059288
0.484000,-2.139476
0.485000,-2.340583
0.486000,-2.241303
0.487000,-2.115292
0.488000,-2.103837
0.489000,-1.678712
0.490000,-1.226857
0.491000,-0.731726
0.492000,-0.715179
0.493000,-0.576441
0.494000,-0.394426
0.495000,-0.251869
0.496000,-0.305328
0.497000,-0.755910
0.498000,-1.021931
0.499000,-0.985019
0.500000,-1.099574
0.501000,-1.318501
0.502000,-1.413963
0.503000,-1.422873
0.504000,-1.413963
0.505000,-1.450875
0.506000,-1.328683
0.507000,-1.289226
0.508000,-1.308318
0.509000,-1.154306
0.510000,-1.221766
0.511000,-1.604888
0.512000,-1.975281
0.513000,-3.113191
0.514000,-3.855251
0.515000,-3.974897
0.516000,-3.983807
0.517000,-3.288842
0.518000,-2.576057
0.519000,-1.767810
0.520000,-1.341412
0.521000,-0.978655
0.522000,-0.559894
0.523000,-0.174227
0.524000,0.191076
0.525000,0.345088
0.526000,0.205077
0.527000,-0.057126
0.528000,-0.407155
0.529000,-0.643901
0.530000,-0.925196
0.531000,-1.802176
0.532000,-2.077107
0.533000,-2.194208
0.534000,-2.059288
0.535000,-2.018557
0.536000,-2.605332
0.537000,-2.413135
0.538000,-2.105110
0.539000,-1.585795
0.540000,-1.293044
0.541000,-1.309591
0.542000,-1.167034
0.543000,-1.123758
0.544000,-0.939197
0.545000,-0.631173
0.546000,-0.484797
0.547000,-0.646447
0.548000,-0.911195
0.549000,-1.062662
0.550000,-0.972291
0.551000,-0.907377
0.552000,-0.979928
0.553000,-1.184854
0.554000,-1.480150
0.555000,-1.593432
0.556000,-1.564157
0.557000,-1.402508
0.558000,-1.506880
0.559000,-1.837815
0.560000,-2.023649
0.561000,-1.925641
0.562000,-1.896366
0.563000,-2.214573
0.564000,-2.493323
0.565000,-2.642244
0.566000,-2.425863
0.567000,-2.508597
0.568000,-2.162387
0.569000,-1.710532
0.570000,-1.277770
0.571000,-1.015567
0.572000,-0.843735
0.573000,-0.766093
0.574000,-0.352423
0.575000,-0.460613
0.576000,-1.023204
0.577000,-1.674893
0.578000,-1.849271
0.579000,-1.864545
0.580000,-1.737262
0.581000,-1.617616
0.582000,-1.529791
0.583000,-1.546337
0.584000,-1.926914
0.585000,-2.596422
0.586000,-3.159013
0.587000,-3.097917
0.588000,-3.022820
0.589000,-2.660064
0.590000,-2.002011
0.591000,-1.705441
0.592000,-1.475059
0.593000,-1.536155
0.594000,-1.427964
0.595000,-1.107211
0.596000,-0.449158
0.597000,-0.246778
0.598000,-0.340967
0.599000,-0.627354
0.600000,-0.799186
0.601000,-1.074117
0.602000,-0.884466
0.603000,-0.783912
0.604000,-0.962108
0.605000,-0.937925
0.606000,-1.184854
0.607000,-1.210310
0.608000,-1.252314
0.609000,-1.351594
0.610000,-1.332502
0.611000,-1.686349
0.612000,-2.307490
0.613000,-2.427136
0.614000,-2.415680
0.615000,-2.153477
0.616000,-1.821269
0.617000,-1.525972
0.618000,-1.159397
0.619000,-0.842462
0.620000,-0.724089
0.621000,-0.912468
0.622000,-0.888284
0.623000,-0.918832
0.624000,-0.923924
0.625000,-0.839917
0.626000,-0.692268
0.627000,-0.977382
0.628000,-1.226857
0.629000,-1.225584
0.630000,-1.265042
0.631000,-1.349049
0.632000,-1.438147
0.633000,-1.873455
0.634000,-2.054197
0.635000,-1.863272
0.636000,-1.674893
0.637000,-1.967644
0.638000,-2.532781
0.639000,-2.686793
0.640000,-2.738979
0.641000,-2.637153
0.642000,-2.332946
0.643000,-2.303671
0.644000,-2.121657
0.645000,-1.783084
0.646000,-1.301954
0.647000,-1.021931
0.648000,-1.035933
0.649000,-0.979928
0.650000,-2.027467
0.651000,-2.196754
0.652000,-1.589614
0.653000,-1.057571
0.654000,-0.725362
0.655000,-0.325693
0.656000,-0.059672
0.657000,-0.256961
0.658000,-0.473342
0.659000,-0.559894
0.660000,-0.763547
0.661000,-0.893376
0.662000,-1.007930
0.663000,-1.052479
0.664000,-1.187399
0.665000,-1.405053
0.666000,-1.606160
0.667000,-1.777992
0.668000,-1.952370
0.669000,-2.002011
0.670000,-1.957461
0.671000,-1.883637
0.672000,-1.702895
0.673000,-1.618889
0.674000,-1.620162
0.675000,-1.616343
0.676000,-1.678712
0.677000,-1.865818
0.678000,-2.036377
0.679000,-2.117838
0.680000,-2.474230
0.681000,-2.973180
0.682000,-3.156467
0.683000,-3.599412
0.684000,-3.307934
0.685000,-2.705886
0.686000,-2.124202
0.687000,-1.342685
0.688000,-0.946834
0.689000,-0.676995
0.690000,-0.503890
0.691000,-0.915014
0.692000,-1.335048
0.693000,-1.200128
0.694000,-0.750819
0.695000,-0.405882
0.696000,0.128707
0.697000,0.199985
0.698000,-0.078764
0.699000,-0.288781
0.700000,-0.409700
0.701000,-0.972291
0.702000,-1.431783
0.703000,-1.854362
0.704000,-1.876000
0.705000,-1.705441
0.706000,-1.883637
0.707000,-2.084744
0.708000,-1.935823
0.709000,-1.595978
0.710000,-1.352867
0.711000,-1.286680
0.712000,-0.935379
0.713000,-1.001566
0.714000,-1.119939
0.715000,-1.612525
0.716000,-2.036377
0.717000,-1.930732
0.718000,-1.861999
0.719000,-1.788175
0.720000,-1.853089
0.721000,-2.012193
0.722000,-1.954916
0.723000,-1.690167
0.724000,-1.351594
0.725000,-1.228130
0.726000,-1.272679
0.727000,-1.266315
0.728000,-1.198855
0.729000,-1.175944
0.730000,-1.005385
0.731000,-0.959563
0.732000,-1.044842
0.733000,-1.240858
0.734000,-1.333775
0.735000,-1.487787
0.736000,-1.653255
0.737000,-1.683803
0.738000,-1.799631
0.739000,-1.840361
0.740000,-1.692713
0.741000,-1.660892
0.742000,-1.780538
0.743000,-2.243848
0.744000,-2.257849
0.745000,-1.887456
0.746000,-1.707987
0.747000,-1.783084
0.748000,-2.223483
0.749000,-3.073733
0.750000,-3.736878
0.751000,-3.759789
0.752000,-2.983362
0.753000,-1.985464
0.754000,-1.300681
0.755000,-0.409700
0.756000,0.025608
0.757000,-0.059672
0.758000,0.002697
0.759000,0.283992
0.760000,0.356543
0.761000,-0.063490
0.762000,-0.407155
0.763000,-0.640082
0.764000,-0.888284
0.765000,-1.534882
0.766000,-1.682530
0.767000,-1.856908
0.768000,-1.893820
0.769000,-1.739808
0.770000,-1.534882
0.771000,-1.691440
0.772000,-1.850544
0.773000,-1.944733
0.774000,-1.816177
0.775000,-1.646891
0.776000,-1.514517
0.777000,-1.252314
0.778000,-1.126303
0.779000,-0.907377
0.780000,-0.855191
0.781000,-0.865373
0.782000,-0.866646
0.783000,-1.075390
0.784000,-1.155579
0.785000,-1.351594
0.786000,-1.854362
0.787000,-2.162387
0.788000,-2.418226
0.789000,-2.232393
0.790000,-2.115292
0.791000,-2.026194
0.792000,-1.977827
0.793000,-2.008375
0.794000,-2.031286
0.795000,-1.993101
0.796000,-2.069471
0.797000,-1.932005
0.798000,-1.774174
0.799000,-1.454694
0.800000,-1.315955
0.801000,-1.415236
0.802000,-1.645618
0.803000,-1.625253
0.804000,-1.546337
0.805000,-1.091937
0.806000,-0.674449
0.807000,-0.528073
0.808000,-0.720271
0.809000,-0.855191
0.810000,-0.794095
0.811000,-0.811914
0.812000,-0.916287
0.813000,-1.011749
0.814000,-1.074117
0.815000,-1.244677
0.816000,-1.342685
0.817000,-1.575612
0.818000,-1.799631
0.819000,-2.262941
0.820000,-2.325309
0.821000,-2.164933
0.822000,-1.676166
0.823000,-1.617616
0.824000,-1.911640
0.825000,-1.918004
0.826000,-1.814905
0.827000,-1.556520
0.828000,-1.391052
0.829000,-1.384688
0.830000,-1.611252
0.831000,-1.627799
0.832000,-1.483969
0.833000,-1.525972
0.834000,-1.901457
0.835000,-1.664711
0.836000,-1.511971
0.837000,-1.305773
0.838000,-1.186127
0.839000,-1.336320
0.840000,-1.481423
0.841000,-1.686349
0.842000,-1.751263
0.843000,-1.816177
0.844000,-1.564157
0.845000,-1.366868
0.846000,-1.419054
0.847000,-1.552702
0.848000,-1.897638
0.849000,-2.153477
0.850000,-2.088563
0.851000,-2.116565
0.852000,-1.916731
0.853000,-1.808540
0.854000,-1.674893
0.855000,-1.382142
0.856000,-1.074117
0.857000,-0.997748
0.858000,-1.181035
0.859000,-1.233221
0.860000,-1.076663
0.861000,-1.534882
0.862000,-1.825087
0.863000,-1.794539
0.864000,-1.755082
0.865000,-1.769083
0.866000,-1.881092
0.867000,-1.863272
0.868000,-1.850544
0.869000,-1.501788
0.870000,-0.936652
0.871000,-0.596806
0.872000,-0.544620
0.873000,-0.643901
0.874000,-0.722816
0.875000,-0.613353
0.876000,-0.455522
0.877000,-0.365151
0.878000,-0.151316
0.879000,-0.082583
0.880000,-0.478433
0.881000,-0.806823
0.882000,-0.922651
0.883000,-1.117394
0.884000,-1.304500
0.885000,-1.322319
0.886000,-1.564157
0.887000,-2.320218
0.888000,-2.763163
0.889000,-2.742798
0.890000,-2.624424
0.891000,-2.382587
0.892000,-2.004556
0.893000,-1.784357
0.894000,-2.170024
0.895000,-2.306217
0.896000,-2.208209
0.897000,-2.182752
0.898000,-1.805995
0.899000,-1.415236
0.900000,-1.257405
0.901000,-1.273952
0.902000,-1.122485
0.903000,-0.967200
0.904000,-1.310864
0.905000,-2.236211
0.906000,-2.367313
0.907000,-2.195481
0.908000,-1.774174
0.909000,-1.861999
0.910000,-1.928186
0.911000,-1.804722
0.912000,-1.976554
0.913000,-2.060561
0.914000,-2.126748
0.915000,-2.143295
0.916000,-2.400406
0.917000,-2.430954
0.918000,-1.944733
0.919000,-1.388506
0.920000,-0.880647
0.921000,-0.516618
0.922000,-0.108040
0.923000,0.290356
0.924000,0.752394
0.925000,0.655658
0.926000,0.168165
0.927000,-0.129678
0.928000,-0.256961
0.929000,-0.577714
0.930000,-0.967200
0.931000,-1.327411
0.932000,-1.388506
0.933000,-1.639254
0.934000,-2.005829
0.935000,-2.372404
0.936000,-2.744070
0.937000,-2.895537
0.938000,-2.931176
0.939000,-2.555692
0.940000,-2.232393
0.941000,-1.921822
0.942000,-1.618889
0.943000,-1.481423
0.944000,-1.393598
0.945000,-1.328683
0.946000,-1.109757
0.947000,-1.047388
0.948000,-0.888284
0.949000,-0.982474
0.950000,-0.968473
0.951000,-1.449602
0.952000,-1.595978
0.953000,-1.459785
0.954000,-1.421600
0.955000,-1.291771
0.956000,-1.215402
0.957000,-1.136486
0.958000,-1.256132
0.959000,-1.219220
0.960000,-1.480150
0.961000,-1.888729
0.962000,-2.213300
0.963000,-2.744070
0.964000,-2.891719
0.965000,-2.688066
0.966000,-2.606605
0.967000,-2.492050
0.968000,-2.509870
0.969000,-2.318945
0.970000,-1.911640
0.971000,-1.710532
0.972000,-1.200128
0.973000,-0.656629
0.974000,-0.276053
0.975000,-0.193319
0.976000,-0.207320
0.977000,-0.209866
0.978000,0.173256
0.979000,0.184711
0.980000,-0.220049
0.981000,-0.459341
0.982000,-0.591715
0.983000,-0.836098
0.984000,-1.122485
0.985000,-1.338866
0.986000,-1.519608
0.987000,-1.861999
0.988000,-2.037650
0.989000,-2.106383
0.990000,-2.130566
0.991000,-2.257849
0.992000,-2.399133
0.993000,-2.405498
0.994000,-2.425863
0.995000,-2.222210
0.996000,-2.079653
0.997000,-2.079653
0.998000,-1.965098
0.999000,-1.840361
1.000000,-1.797085
1.001000,-1.780538
1.002000,-1.603615
1.003000,-1.510698
1.004000,-1.489060
1.005000,-1.476332
1.006000,-1.541246
1.007000,-1.406326
1.008000,-1.329956
1.009000,-1.435601
1.010000,-1.551429
1.011000,-1.513244
1.012000,-1.556520
1.013000,-1.798358
1.014000,-1.906548
1.015000,-2.018557
1.016000,-1.793266
1.017000,-1.641800
1.018000,-1.972735
1.019000,-2.044014
1.020000,-2.131839
1.021000,-2.139476
1.022000,-2.429681
1.023000,-2.060561
1.024000,-1.233221
1.025000,-0.622263
1.026000,-0.605716
1.027000,-0.436430
1.028000,-0.430065
1.029000,-0.234050
1.030000,0.014152
1.031000,0.129980
1.032000,0.096886
1.033000,-0.139860
1.034000,-0.669358
1.035000,-1.384688
1.036000,-2.117838
1.037000,-2.565874
1.038000,-2.568420
1.039000,-2.162387
1.040000,-1.704168
1.041000,-1.355413
1.042000,-1.095756
1.043000,-0.897194
1.044000,-0.996475
1.045000,-0.809369
1.046000,-0.699905
1.047000,-0.939197
1.048000,-0.841190
1.049000,-0.811914
1.050000,-1.224311
1.051000,-1.715624
1.052000,-2.187844
1.053000,-2.248940
1.054000,-2.331673
1.055000,-2.556964
1.056000,-2.845897
1.057000,-2.798802
1.058000,-2.654972
1.059000,-2.251485
1.060000,-2.340583
1.061000,-2.353312
1.062000,-2.019830
1.063000,-1.594705
1.064000,-1.252314
1.065000,-1.220493
1.066000,-0.988838
1.067000,-0.867919
1.068000,-0.988838
1.069000,-0.870465
1.070000,-0.766093
1.071000,-0.780094
1.072000,-0.745727
1.073000,-1.009203
1.074000,-1.351594
1.075000,-1.613797
1.076000,-1.761446
1.077000,-1.938369
1.078000,-2.069471
1.079000,-2.259122
1.080000,-2.261668
1.081000,-2.646063
1.082000,-2.537872
1.083000,-2.297307
1.084000,-1.713078
1.085000,-1.207765
1.086000,-0.940470
1.087000,-1.084300
1.088000,-1.164488
1.089000,-1.150487
1.090000,-1.147942
1.091000,-0.934106
1.092000,-0.542075
1.093000,-0.482252
1.094000,-0.633718
1.095000,-0.936652
1.096000,-1.214129
1.097000,-1.489060
1.098000,-2.002011
1.099000,-2.369858
1.100000,-2.017284
1.101000,-1.459785
1.102000,-1.347776
1.103000,-1.315955
1.104000,-1.349049
1.105000,-1.214129
1.106000,-1.098301
1.107000,-0.875556
1.108000,-0.945562
1.109000,-1.300681
1.110000,-1.682530
1.111000,-1.727079
1.112000,-1.565430
1.113000,-1.561611
1.114000,-1.391052
1.115000,-1.131395
1.116000,-1.331229
1.117000,-1.458512
1.118000,-1.475059
1.119000,-1.550156
1.120000,-2.094927
1.121000,-2.270578
1.122000,-1.977827
1.123000,-1.763991
1.124000,-1.756354
1.125000,-1.935823
1.126000,-1.952370
1.127000,-2.004556
1.128000,-1.900184
1.129000,-1.613797
1.130000,-1.406326
1.131000,-1.107211
1.132000,-0.725362
1.133000,-0.773730
1.134000,-1.029568
1.135000,-1.374505
1.136000,-2.339310
1.137000,-4.232009
1.138000,-4.830239
1.139000,-4.041084
1.140000,-2.996091
1.141000,-2.074562
1.142000,-1.314682
1.143000,-1.023204
1.144000,-0.676995
1.145000,-0.325693
1.146000,0.056156
1.147000,0.478735
1.148000,0.740938
1.149000,0.710390
1.150000,0.222896
1.151000,-0.226413
1.152000,-0.473342
1.153000,-0.664266
1.154000,-1.090664
1.155000,-1.427964
1.156000,-1.585795
1.157000,-1.893820
1.158000,-2.150932
1.159000,-2.154750
1.160000,-2.066925
1.161000,-1.952370
1.162000,-1.730898
1.163000,-1.608706
1.164000,-1.452148
1.165000,-1.298136
1.166000,-1.038478
1.167000,-0.982474
1.168000,-1.033387
1.169000,-1.206492
1.170000,-1.537428
1.171000,-2.022376
1.172000,-2.106383
1.173000,-2.110201
1.174000,-2.833169
1.175000,-3.842523
1.176000,-4.391112
1.177000,-3.703784
1.178000,-2.458956
1.179000,-1.648164
1.180000,-1.051207
1.181000,-0.839917
1.182000,-0.711361
1.183000,-0.861555
1.184000,-0.851372
1.185000,-0.533165
1.186000,-0.156407
1.187000,0.201258
1.188000,0.362908
1.189000,-0.067309
1.190000,-0.496253
1.191000,-1.029568
1.192000,-1.331229
1.193000,-1.547610
1.194000,-1.747445
1.195000,-1.781811
1.196000,-1.739808
1.197000,-1.637981
1.198000,-1.536155
1.199000,-1.523426
1.200000,-1.556520
1.201000,-1.590886
1.202000,-1.533609
1.203000,-1.393598
1.204000,-1.473786
1.205000,-1.952370
1.206000,-2.114020
1.207000,-2.091109
1.208000,-2.033831
1.209000,-1.822541
1.210000,-1.589614
1.211000,-1.383415
1.212000,-1.494151
1.213000,-1.853089
1.214000,-2.262941
1.215000,-2.325309
1.216000,-2.004556
1.217000,-1.952370
1.218000,-1.902730
1.219000,-1.519608
1.220000,-1.317228
1.221000,-1.125031
1.222000,-0.923924
1.223000,-0.790276
1.224000,-0.615899
1.225000,-1.133940
1.226000,-1.385961
1.227000,-1.392325
1.228000,-1.263769
1.229000,-1.282862
1.230000,-1.513244
1.231000,-1.621434
1.232000,-1.518335
1.233000,-1.457239
1.234000,-1.611252
1.235000,-1.727079
1.236000,-1.751263
1.237000,-1.804722
1.238000,-1.813632
1.239000,-1.887456
1.240000,-2.068198
1.241000,-2.325309
1.242000,-2.410589
1.243000,-2.480595
1.244000,-2.284579
1.245000,-1.793266
1.246000,-1.289226
1.247000,-1.371960
1.248000,-1.718169
1.249000,-1.751263
1.250000,-1.542519
1.251000,-1.293044
1.252000,-1.300681
1.253000,-1.523426
1.254000,-1.742353
1.255000,-1.514517
1.256000,-1.499243
1.257000,-1.738535
1.258000,-1.509425
1.259000,-0.943016
1.260000,-0.794095
1.261000,-0.436430
1.262000,-0.292600
1.263000,-0.217503
1.264000,-0.223867
1.265000,-0.293873
1.266000,-0.971018
1.267000,-1.081754
1.268000,-0.707542
1.269000,-0.413519
1.270000,-0.761001
1.271000,-1.144123
1.272000,-1.231948
1.273000,-1.469968
1.274000,-1.902730
1.275000,-1.972735
1.276000,-1.699077
1.277000,-1.336320
1.278000,-1.189945
1.279000,-1.114848
1.280000,-1.168307
1.281000,-1.209037
1.282000,-1.359231
1.283000,-1.672348
1.284000,-1.946006
1.285000,-2.177661
1.286000,-2.810258
1.287000,-3.304116
1.288000,-3.194652
1.289000,-2.862444
1.290000,-2.542963
1.291000,-2.144567
1.292000,-1.687622
1.293000,-1.445784
1.294000,-1.503061
1.295000,-1.233221
1.296000,-0.967200
1.297000,-0.769911
1.298000,-0.511527
1.299000,-0.698633
1.300000,-0.808096
1.301000,-0.916287
1.302000,-1.086846
1.303000,-1.240858
1.304000,-1.410145
1.305000,-1.641800
1.306000,-1.706714
1.307000,-1.805995
1.308000,-1.986737
1.309000,-2.475503
1.310000,-2.954087
1.311000,-3.185742
1.312000,-2.896810
1.313000,-2.430954
1.314000,-1.844180
1.315000,-1.198855
1.316000,-0.668085
1.317000,-0.418610
1.318000,-0.218776
1.319000,-0.251869
1.320000,-0.204775
1.321000,-0.487343
1.322000,-1.029568
1.323000,-1.625253
1.324000,-1.592159
1.325000,-2.028740
1.326000,-2.504778
1.327000,-2.803893
1.328000,-2.392769
1.329000,-1.864545
1.330000,-1.301954
1.331000,-0.917559
1.332000,-0.561167
1.333000,-0.469523
1.334000,-0.519164
1.335000,-0.825916
1.336000,-1.048661
1.337000,-1.769083
1.338000,-2.265486
1.339000,-2.288397
1.340000,-1.733443
1.341000,-1.203946
1.342000,-1.165761
1.343000,-1.259951
1.344000,-1.243404
1.345000,-1.037205
1.346000,-1.063935
1.347000,-1.047388
1.348000,-0.356241
1.349000,-0.017669
1.350000,-0.344786
1.351000,-0.790276
1.352000,-1.111030
1.353000,-1.539973
1.354000,-2.027467
1.355000,-2.508597
1.356000,-3.253202
1.357000,-3.320662
1.358000,-3.598139
1.359000,-3.567591
1.360000,-3.454310
1.361000,-2.876445
1.362000,-2.110201
1.363000,-1.318501
1.364000,-0.657902
1.365000,-0.217503
1.366000,0.035790
1.367000,0.109614
1.368000,-0.114404
1.369000,-0.407155
1.370000,-0.517891
1.371000,-1.156851
1.372000,-1.397416
1.373000,-1.398689
1.374000,-1.202673
1.375000,-1.051207
1.376000,-1.010476
1.377000,-1.033387
1.378000,-1.021931
1.379000,-1.080482
1.380000,-1.337593
1.381000,-1.553974
1.382000,-1.833997
1.383000,-1.891274
1.384000,-1.907821
1.385000,-1.870909
1.386000,-1.996919
1.387000,-2.430954
1.388000,-2.661336
1.389000,-3.030457
1.390000,-2.579875
1.391000,-2.157296
1.392000,-1.752536
1.393000,-1.453421
1.394000,-1.147942
1.395000,-0.800459
1.396000,-0.831007
1.397000,-1.025750
1.398000,-1.067753
1.399000,-1.211583
1.400000,-1.277770
1.401000,-1.630344
1.402000,-1.944733
1.403000,-2.658791
1.404000,-2.662609
1.405000,-2.136931
1.406000,-1.528518
1.407000,-1.324865
1.408000,-1.117394
1.409000,-0.927742
1.410000,-0.929015
1.411000,-1.020659
1.412000,-1.146669
1.413000,-1.239585
1.414000,-0.930288
1.415000,-1.221766
1.416000,-1.276497
1.417000,-1.279043
1.418000,-1.295590
1.419000,-1.741080
1.420000,-2.158569
1.421000,-2.264214
1.422000,-2.176388
1.423000,-1.981645
1.424000,-1.814905
1.425000,-2.051651
1.426000,-2.186571
1.427000,-2.082199
1.428000,-1.989282
1.429000,-1.948552
1.430000,-1.576885
1.431000,-1.421600
1.432000,-1.489060
1.433000,-1.655801
1.434000,-1.830178
1.435000,-1.583249
1.436000,-1.431783
1.437000,-1.202673
1.438000,-0.856464
1.439000,-0.659175
1.440000,-0.707542
1.441000,-0.842462
1.442000,-0.781367
1.443000,-0.727908
1.444000,-0.833553
1.445000,-0.846281
1.446000,-0.860282
1.447000,-0.934106
1.448000,-0.987565
1.449000,-0.960836
1.450000,-1.150487
1.451000,-0.992656
1.452000,-0.981201
1.453000,-1.141577
1.454000,-1.519608
1.455000,-1.621434
1.456000,-1.868363
1.457000,-2.507324
1.458000,-2.257849
1.459000,-1.618889
1.460000,-1.153033
1.461000,-0.764820
1.462000,-0.599352
1.463000,-0.701178
1.464000,-0.806823
1.465000,-0.939197
1.466000,-1.107211
1.467000,-1.355413
1.468000,-1.561611
1.469000,-1.802176
1.470000,-1.719442
1.471000,-1.599796
1.472000,-1.788175
1.473000,-2.089836
1.474000,-2.163660
1.475000,-2.107655
1.476000,-2.037650
1.477000,-1.939642
1.478000,-1.788175
1.479000,-1.664711
1.480000,-1.742353
1.481000,-1.781811
1.482000,-1.757627
1.483000,-1.579431
1.484000,-1.425419
1.485000,-1.583249
1.486000,-1.892547
1.487000,-1.934551
1.488000,-1.841634
1.489000,-1.872182
1.490000,-1.876000
1.491000,-2.180207
1.492000,-2.265486
1.493000,-2.275669
1.494000,-2.458956
1.495000,-2.564601
1.496000,-2.696976
1.497000,-2.644790
1.498000,-2.490777
1.499000,-2.316400
1.500000,-1.836543
1.501000,-1.253586
1.502000,-0.589169
1.503000,0.014152
1.504000,0.115979
1.505000,0.201258
1.506000,0.213986
1.507000,0.146526
1.508000,0.012879
1.509000,-0.526801
1.510000,-1.030841
1.511000,-1.324865
1.512000,-1.352867
1.513000,-1.527245
1.514000,-1.910367
1.515000,-2.357130
1.516000,-2.335492
1.517000,-2.229847
1.518000,-1.855635
1.519000,-1.588341
1.520000,-1.422873
1.521000,-1.312137
1.522000,-1.220493
1.523000,-1.014294
1.524000,-0.893376
1.525000,-0.922651
1.526000,-1.309591
1.527000,-2.227301
1.528000,-2.513688
1.529000,-2.349493
1.530000,-2.164933
1.531000,-2.413135
1.532000,-2.495869
1.533000,-1.993101
1.534000,-1.412690
1.535000,-1.000293
1.536000,-0.743182
1.537000,-0.520436
1.538000,-0.316784
1.539000,-0.576441
1.540000,-0.992656
1.541000,-1.267588
1.542000,-1.281589
1.543000,-1.186127
1.544000,-1.300681
1.545000,-1.589614
1.546000,-1.976554
1.547000,-2.178934
1.548000,-2.200572
1.549000,-2.116565
1.550000,-1.795812
1.551000,-1.482696
1.552000,-1.098301
1.553000,-0.911195
1.554000,-0.923924
1.555000,-1.027023
1.556000,-0.960836
1.557000,-0.943016
1.558000,-0.960836
1.559000,-1.258678
1.560000,-1.681257
1.561000,-1.940915
1.562000,-1.949824
1.563000,-1.994374
1.564000,-2.120384
1.565000,-2.102564
1.566000,-1.797085
1.567000,-1.797085
1.568000,-1.767810
1.569000,-1.612525
1.570000,-1.473786
1.571000,-1.281589
1.572000,-1.387234
1.573000,-1.285407
1.574000,-1.646891
1.575000,-2.042741
1.576000,-2.355857
1.577000,-2.327855
1.578000,-2.196754
1.579000,-2.240030
1.580000,-1.904003
1.581000,-2.002011
1.582000,-1.870909
1.583000,-1.930732
1.584000,-2.114020
1.585000,-1.475059
1.586000,-0.752091
1.587000,-0.270962
1.588000,-0.170408
1.589000,-0.139860
1.590000,-0.113131
1.591000,-0.175499
1.592000,-0.348604
1.593000,-0.524255
1.594000,-0.697360
1.595000,-0.612080
1.596000,-1.289226
1.597000,-1.576885
1.598000,-1.606160
1.599000,-1.532336
1.600000,-1.716897
1.601000,-1.766537
1.602000,-1.779265
1.603000,-1.753809
1.604000,-1.860726
1.605000,-1.719442
1.606000,-1.695259
1.607000,-1.881092
1.608000,-2.217119
1.609000,-2.318945
1.610000,-2.049105
1.611000,-1.835270
1.612000,-1.603615
1.613000,-1.261223
1.614000,-0.954471
1.615000,-0.852645
1.616000,-0.789004
1.617000,-0.962108
1.618000,-1.024477
1.619000,-1.006657
1.620000,-0.927742
1.621000,-1.071572
1.622000,-1.475059
1.623000,-1.699077
1.624000,-1.730898
1.625000,-1.769083
1.626000,-1.952370
1.627000,-2.120384
1.628000,-2.364767
1.629000,-2.782255
1.630000,-3.167923
1.631000,-3.356302
1.632000,-3.193379
1.633000,-2.680429
1.634000,-1.998192
1.635000,-1.533609
1.636000,-1.273952
1.637000,-0.862828
1.638000,-0.696087
1.639000,-0.895921
1.640000,-0.973564
1.641000,-1.000293
1.642000,-1.156851
1.643000,-1.163216
1.644000,-0.804278
1.645000,-0.729181
1.646000,-1.230676
1.647000,-1.499243
1.648000,-1.532336
1.649000,-1.156851
1.650000,-0.927742
1.651000,-1.035933
1.652000,-0.850099
1.653000,-0.911195
1.654000,-1.030841
1.655000,-1.086846
1.656000,-0.920105
1.657000,-0.690996
1.658000,-0.501344
1.659000,-0.740636
1.660000,-1.438147
1.661000,-2.834441
1.662000,-3.792882
1.663000,-3.902346
1.664000,-3.209926
1.665000,-2.512415
1.666000,-1.835270
1.667000,-1.237040
1.668000,-0.918832
1.669000,-0.829734
1.670000,-0.847554
1.671000,-0.951926
1.672000,-0.836098
1.673000,-0.458068
1.674000,-0.067309
1.675000,-0.431338
1.676000,-0.828461
1.677000,-1.133940
1.678000,-1.248495
1.679000,-1.396143
1.680000,-1.660892
1.681000,-1.799631
1.682000,-1.837815
1.683000,-1.702895
1.684000,-1.578158
1.685000,-1.426691
1.686000,-1.416509
1.687000,-1.598523
1.688000,-1.795812
1.689000,-1.981645
1.690000,-2.256577
1.691000,-2.441137
1.692000,-2.708431
1.693000,-2.886627
1.694000,-2.835714
1.695000,-2.511143
1.696000,-2.290943
1.697000,-1.963826
1.698000,-1.500516
1.699000,-1.270133
1.700000,-1.108484
1.701000,-1.128849
1.702000,-1.119939
1.703000,-1.084300
1.704000,-1.044842
1.705000,-1.397416
1.706000,-2.098746
1.707000,-2.436046
1.708000,-2.348220
1.709000,-2.018557
1.710000,-1.412690
1.711000,-0.800459
1.712000,-0.357514
1.713000,-0.078764
1.714000,0.001424
1.715000,-0.235323
1.716000,-0.063490
1.717000,0.163073
1.718000,-0.139860
1.719000,-1.086846
1.720000,-1.853089
1.721000,-2.119111
1.722000,-2.406770
1.723000,-2.442410
1.724000,-2.843351
1.725000,-2.797529
1.726000,-2.327855
1.727000,-1.933278
1.728000,-1.826360
1.729000,-1.462331
1.730000,-1.102120
1.731000,-1.305773
1.732000,-1.576885
1.733000,-1.378324
1.734000,-1.556520
1.735000,-1.669802
1.736000,-1.752536
1.737000,-1.562884
1.738000,-1.117394
1.739000,-0.935379
1.740000,-0.791549
1.741000,-0.960836
1.742000,-1.107211
1.743000,-0.964654
1.744000,-0.895921
1.745000,-0.944289
1.746000,-1.079209
1.747000,-0.978655
1.748000,-0.917559
1.749000,-0.916287
1.750000,-1.081754
1.751000,-1.215402
1.752000,-1.301954
1.753000,-1.531063
1.754000,-1.985464
1.755000,-2.042741
1.756000,-2.307490
1.757000,-2.489504
1.758000,-2.600241
1.759000,-3.058459
1.760000,-2.937541
1.761000,-2.582421
1.762000,-1.881092
1.763000,-1.388506
1.764000,-1.099574
1.765000,-0.749546
1.766000,-0.712634
1.767000,-0.853918
1.768000,-0.949380
1.769000,-0.873010
1.770000,-0.881920
1.771000,-0.740636
1.772000,-1.046115
1.773000,-1.424146
1.774000,-1.859454
1.775000,-1.947279
1.776000,-2.028740
1.777000,-1.952370
1.778000,-1.637981
1.779000,-1.375778
1.780000,-1.430510
1.781000,-1.766537
1.782000,-1.911640
1.783000,-1.719442
1.784000,-1.576885
1.785000,-1.583249
1.786000,-1.583249
1.787000,-1.529791
1.788000,-1.254859
1.789000,-1.049934
1.790000,-0.945562
1.791000,-1.402508
1.792000,-1.438147
1.793000,-1.430510
1.794000,-1.581977
1.795000,-1.508152
1.796000,-1.247222
1.797000,-0.940470
1.798000,-0.987565
1.799000,-0.964654
1.800000,-1.019386
1.801000,-1.145396
1.802000,-1.476332
1.803000,-2.248940
1.804000,-2.675338
1.805000,-2.708431
1.806000,-2.396588
1.807000,-1.967644
1.808000,-1.481423
1.809000,-1.216674
1.810000,-1.286680
1.811000,-1.471240
1.812000,-1.888729
1.813000,-2.252758
1.814000,-2.166206
1.815000,-2.070743
1.816000,-1.763991
1.817000,-1.341412
1.818000,-1.286680
1.819000,-1.201400
1.820000,-1.070299
1.821000,-0.783912
1.822000,-0.550984
1.823000,-0.898467
1.824000,-1.471240
1.825000,-1.650709
1.826000,-1.733443
1.827000,-1.550156
1.828000,-1.850544
1.829000,-2.196754
1.830000,-2.261668
1.831000,-1.944733
1.832000,-1.615070
1.833000,-1.408872
1.834000,-0.992656
1.835000,-0.809369
1.836000,-0.922651
1.837000,-1.005385
1.838000,-0.822097
1.839000,-0.418610
1.840000,-0.211139
1.841000,-0.218776
1.842000,-0.576441
1.843000,-0.985019
1.844000,-1.251041
1.845000,-1.429237
1.846000,-1.398689
1.847000,-1.590886
1.848000,-1.817450
1.849000,-2.114020
1.850000,-2.122929
1.851000,-1.984191
1.852000,-1.870909
1.853000,-1.977827
1.854000,-2.448774
1.855000,-2.409316
1.856000,-2.027467
1.857000,-1.555247
1.858000,-1.271406
1.859000,-1.165761
1.860000,-1.113575
1.861000,-1.111030
1.862000,-1.247222
1.863000,-1.592159
1.864000,-1.906548
1.865000,-1.839088
1.866000,-1.968917
1.867000,-2.638426
1.868000,-2.679156
1.869000,-2.404225
1.870000,-2.262941
1.871000,-2.066925
1.872000,-1.623980
1.873000,-1.500516
1.874000,-1.562884
1.875000,-1.408872
1.876000,-1.280316
1.877000,-0.888284
1.878000,-0.634991
1.879000,-0.968473
1.880000,-1.513244
1.881000,-1.370687
1.882000,-0.974837
1.883000,-0.878102
1.884000,-0.885739
1.885000,-0.932833
1.886000,-1.323592
1.887000,-1.667256
1.888000,-1.438147
1.889000,-1.188672
1.890000,-1.193763
1.891000,-1.328683
1.892000,-1.513244
1.893000,-1.539973
1.894000,-1.637981
1.895000,-1.412690
1.896000,-1.416509
1.897000,-1.398689
1.898000,-1.462331
1.899000,-1.626526
1.900000,-2.052924
1.901000,-2.377495
1.902000,-1.993101
1.903000,-1.496697
1.904000,-1.183581
1.905000,-0.889557
1.906000,-0.535710
1.907000,-0.379152
1.908000,-0.890830
1.909000,-1.323592
1.910000,-1.485242
1.911000,-1.430510
1.912000,-2.182752
1.913000,-2.531508
1.914000,-2.948996
1.915000,-3.043185
1.916000,-2.736433
1.917000,-2.509870
1.918000,-2.162387
1.919000,-1.819996
1.920000,-1.429237
1.921000,-1.366868
1.922000,-0.983747
1.923000,-0.529346
1.924000,-0.018941
1.925000,0.179620
1.926000,-0.086401
1.927000,-0.305328
1.928000,-0.428793
1.929000,-0.761001
1.930000,-0.951926
1.931000,-1.130122
1.932000,-1.280316
1.933000,-1.450875
1.934000,-1.546337
1.935000,-1.690167
1.936000,-1.662165
1.937000,-1.718169
1.938000,-2.032558
1.939000,-2.143295
1.940000,-2.098746
1.941000,-1.867091
1.942000,-1.795812
1.943000,-2.200572
1.944000,-2.584967
1.945000,-2.765709
1.946000,-2.490777
1.947000,-2.153477
1.948000,-1.776720
1.949000,-1.399962
1.950000,-1.132668
1.951000,-0.958290
1.952000,-0.949380
1.953000,-1.076663
1.954000,-1.015567
1.955000,-0.927742
1.956000,-1.150487
1.957000,-1.450875
1.958000,-1.599796
1.959000,-1.583249
1.960000,-1.702895
1.961000,-1.524699
1.962000,-1.532336
1.963000,-1.570521
1.964000,-1.557793
1.965000,-1.520881
1.966000,-1.429237
1.967000,-1.481423
1.968000,-1.817450
1.969000,-2.233666
1.970000,-2.768254
1.971000,-2.428409
1.972000,-1.962553
1.973000,-1.791994
1.974000,-1.314682
1.975000,-0.878102
1.976000,-0.474615
1.977000,-0.291327
1.978000,-0.054581
1.979000,-0.213684
1.980000,-0.207320
1.981000,-0.615899
1.982000,-1.401235
1.983000,-1.682530
1.984000,-1.443238
1.985000,-1.200128
1.986000,-1.052479
1.987000,-1.023204
1.988000,-1.041024
1.989000,-1.239585
1.990000,-1.398689
1.991000,-1.551429
1.992000,-1.841634
1.993000,-2.138203
1.994000,-2.438591
1.995000,-2.206936
1.996000,-2.059288
1.997000,-2.128021
1.998000,-2.341856
1.999000,-2.212027
2.000000,-1.944733
2.001000,-1.662165
2.002000,-1.463603
2.003000,-1.191218
2.004000,-1.043570
2.005000,-1.313410
2.006000,-1.506880
2.007000,-1.555247
2.008000,-1.291771
2.009000,-1.069026
2.010000,-1.265042
2.011000,-1.455966
2.012000,-1.495424
2.013000,-1.723261
2.014000,-1.683803
2.015000,-1.571794
2.016000,-1.072845
2.017000,-0.889557
2.018000,-1.006657
2.019000,-1.402508
2.020000,-1.727079
2.021000,-1.486514
2.022000,-0.971018
2.023000,-1.224311
2.024000,-1.665983
2.025000,-1.825087
2.026000,-1.986737
2.027000,-2.044014
2.028000,-1.855635
2.029000,-1.746172
2.030000,-1.748717
2.031000,-1.688894
2.032000,-1.486514
2.033000,-1.543792
2.034000,-1.811086
2.035000,-2.021103
2.036000,-2.317672
2.037000,-3.250657
2.038000,-3.092826
2.039000,-2.437318
2.040000,-1.816177
2.041000,-1.482696
2.042000,-1.420327
2.043000,-1.233221
2.044000,-1.043570
2.045000,-1.071572
2.046000,-1.149214
2.047000,-1.033387
2.048000,-0.561167
2.049000,-0.260779
2.050000,-0.113131
2.051000,-0.139860
2.052000,-0.097857
2.053000,-0.475887
2.054000,-1.159397
2.055000,-1.752536
2.056000,-1.835270
2.057000,-1.951097
2.058000,-1.489060
2.059000,-1.051207
2.060000,-0.884466
2.061000,-1.105938
2.062000,-1.588341
2.063000,-2.200572
2.064000,-2.696976
2.065000,-2.576057
2.066000,-2.271850
2.067000,-2.037650
2.068000,-1.569248
2.069000,-1.408872
2.070000,-1.458512
2.071000,-1.606160
2.072000,-1.377051
2.073000,-1.091937
2.074000,-0.893376
2.075000,-0.927742
2.076000,-1.071572
2.077000,-0.983747
2.078000,-0.754637
2.079000,-0.801732
2.080000,-1.055025
2.081000,-1.332502
2.082000,-1.438147
2.083000,-1.613797
2.084000,-1.664711
2.085000,-2.082199
2.086000,-3.038094
2.087000,-3.348665
2.088000,-3.128465
2.089000,-2.666428
2.090000,-2.349493
2.091000,-1.993101
2.092000,-1.637981
2.093000,-1.245950
2.094000,-1.123758
2.095000,-0.883193
2.096000,-0.727908
2.097000,-0.599352
2.098000,-0.646447
2.099000,-0.706270
2.100000,-1.275225
2.101000,-1.837815
2.102000,-1.842907
2.103000,-2.168751
2.104000,-2.514961
2.105000,-2.363494
2.106000,-1.957461
2.107000,-1.235767
2.108000,-0.726635
2.109000,-0.528073
2.110000,-0.450431
2.111000,-0.226413
2.112000,-0.465705
2.113000,-0.683359
2.114000,-0.722816
2.115000,-0.926469
2.116000,-1.601069
2.117000,-2.223483
2.118000,-2.275669
2.119000,-2.237484
2.120000,-2.116565
2.121000,-1.809813
2.122000,-1.519608
2.123000,-1.630344
2.124000,-1.859454
2.125000,-1.906548
2.126000,-1.835270
2.127000,-1.618889
2.128000,-1.285407
2.129000,-1.137759
2.130000,-1.408872
2.131000,-2.791165
2.132000,-3.371576
2.133000,-3.133556
2.134000,-2.214573
2.135000,-1.210310
2.136000,-0.656629
2.137000,-0.763547
2.138000,-1.007930
2.139000,-1.098301
2.140000,-1.103393
2.141000,-0.874283
2.142000,-0.512799
2.143000,-0.452976
2.144000,-0.986292
2.145000,-1.056298
2.146000,-1.057571
2.147000,-1.037205
2.148000,-1.032114
2.149000,-1.155579
2.150000,-1.286680
2.151000,-1.303227
2.152000,-1.918004
2.153000,-2.120384
2.154000,-1.893820
2.155000,-1.380869
2.156000,-1.163216
2.157000,-1.089391
2.158000,-1.224311
2.159000,-1.679985
2.160000,-1.995646
2.161000,-2.307490
2.162000,-2.853534
2.163000,-2.752980
2.164000,-2.751707
2.165000,-2.285852
2.166000,-1.790721
2.167000,-1.327411
2.168000,-0.811914
2.169000,-0.563713
2.170000,-0.946834
2.171000,-1.000293
2.172000,-1.112302
2.173000,-1.004112
2.174000,-0.833553
2.175000,-0.676995
2.176000,-0.754637
2.177000,-1.005385
2.178000,-1.108484
2.179000,-1.112302
2.180000,-1.139032
2.181000,-0.874283
2.182000,-0.839917
2.183000,-1.116121
2.184000,-1.257405
2.185000,-1.462331
2.186000,-1.611252
2.187000,-1.683803
2.188000,-1.715624
2.189000,-1.847998
2.190000,-1.876000
2.191000,-1.921822
2.192000,-1.879819
2.193000,-2.037650
2.194000,-2.215846
2.195000,-2.429681
2.196000,-2.512415
2.197000,-2.484413
2.198000,-2.717341
2.199000,-2.570966
2.200000,-2.280760
2.201000,-2.302398
2.202000,-2.428409
2.203000,-2.638426
2.204000,-3.353756
2.205000,-3.618505
2.206000,-3.357574
2.207000,-3.174287
2.208000,-2.523871
2.209000,-1.509425
2.210000,-0.786458
2.211000,-0.050762
2.212000,0.403638
2.213000,0.760031
2.214000,1.153335
2.215000,1.573369
2.216000,1.362079
2.217000,0.471098
2.218000,-0.338422
2.219000,-0.655356
2.220000,-0.697360
2.221000,-0.870465
2.222000,-1.575612
2.223000,-2.820440
2.224000,-3.402124
2.225000,-3.115737
2.226000,-2.424590
2.227000,-1.704168
2.228000,-1.009203
2.229000,-0.674449
2.230000,-0.306601
2.231000,-0.072400
2.232000,-0.548439
2.233000,-0.698633
2.234000,-0.806823
2.235000,-1.037205
2.236000,-1.055025
2.237000,-0.913741
2.238000,-1.230676
2.239000,-1.455966
2.240000,-1.640527
2.241000,-1.893820
2.242000,-2.274396
2.243000,-2.317672
2.244000,-2.270578
2.245000,-2.098746
2.246000,-2.145840
2.247000,-2.122929
2.248000,-2.119111
2.249000,-2.229847
2.250000,-2.397861
2.251000,-2.432227
2.252000,-2.481867
2.253000,-2.399133
2.254000,-2.500960
2.255000,-2.516234
2.256000,-2.490777
2.257000,-2.069471
2.258000,-1.910367
2.259000,-1.463603
2.260000,-0.946834
2.261000,-0.412246
2.262000,-0.073673
2.263000,-0.349877
2.264000,-0.426247
2.265000,-0.298964
2.266000,-0.333330
2.267000,-0.394426
2.268000,-0.668085
2.269000,-1.154306
2.270000,-1.286680
2.271000,-1.373233
2.272000,-1.439420
2.273000,-1.531063
2.274000,-1.920549
2.275000,-2.485686
2.276000,-2.791165
2.277000,-2.535326
2.278000,-1.976554
2.279000,-1.615070
2.280000,-1.539973
2.281000,-1.468695
2.282000,-1.461058
2.283000,-1.779265
2.284000,-2.657518
2.285000,-2.602786
2.286000,-2.051651
2.287000,-1.602342
2.288000,-1.021931
2.289000,-0.608262
2.290000,-0.463159
2.291000,-0.908650
2.292000,-1.443238
2.293000,-1.669802
2.294000,-1.392325
2.295000,-1.015567
2.296000,-1.114848
2.297000,-1.280316
2.298000,-1.258678
2.299000,-1.195036
2.300000,-1.245950
2.301000,-1.375778
2.302000,-1.420327
2.303000,-1.564157
2.304000,-1.733443
2.305000,-1.580704
2.306000,-1.944733
2.307000,-2.587512
2.308000,-2.696976
2.309000,-2.661336
2.310000,-2.709704
2.311000,-2.591331
2.312000,-2.209482
2.313000,-1.954916
2.314000,-1.268860
2.315000,-0.785185
2.316000,-0.791549
2.317000,-0.764820
2.318000,-0.451704
2.319000,-0.141133
2.320000,-0.374061
2.321000,-0.314238
2.322000,-0.216230
2.323000,-0.153861
2.324000,-0.363878
2.325000,-0.747000
2.326000,-1.111030
2.327000,-1.245950
2.328000,-1.076663
2.329000,-1.025750
2.330000,-1.104665
2.331000,-1.646891
2.332000,-2.619333
2.333000,-3.096644
2.334000,-3.066096
2.335000,-3.175560
2.336000,-3.461947
2.337000,-3.447945
2.338000,-2.950269
2.339000,-2.140749
2.340000,-1.315955
2.341000,-0.533165
2.342000,-0.097857
2.343000,0.009061
2.344000,0.210168
2.345000,-0.295146
2.346000,-0.815733
2.347000,-0.878102
2.348000,-1.027023
2.349000,-1.296863
2.350000,-1.361777
2.351000,-1.207765
2.352000,-1.156851
2.353000,-1.435601
2.354000,-1.643072
2.355000,-1.701623
2.356000,-1.886183
2.357000,-1.819996
2.358000,-1.760173
2.359000,-1.756354
2.360000,-1.919277
2.361000,-2.139476
2.362000,-2.093654
2.363000,-2.176388
2.364000,-2.122929
2.365000,-2.259122
2.366000,-1.970190
2.367000,-1.613797
2.368000,-1.387234
2.369000,-1.774174
2.370000,-2.428409
2.371000,-2.601513
2.372000,-2.271850
2.373000,-1.832724
2.374000,-1.363050
2.375000,-0.898467
2.376000,-0.792822
2.377000,-0.822097
2.378000,-0.670630
2.379000,-0.506435
2.380000,-0.463159
2.381000,-0.122041
2.382000,-0.024033
2.383000,-0.300237
2.384000,-0.645174
2.385000,-0.917559
2.386000,-1.174671
2.387000,-1.305773
2.388000,-1.445784
2.389000,-1.812359
2.390000,-2.450047
2.391000,-3.208653
2.392000,-3.170468
2.393000,-2.904447
2.394000,-2.754253
2.395000,-2.428409
2.396000,-1.923095
2.397000,-1.601069
2.398000,-1.552702
2.399000,-1.439420
2.400000,-1.265042
2.401000,-1.466149
2.402000,-1.791994
2.403000,-1.613797
2.404000,-1.275225
2.405000,-0.845008
2.406000,-0.404609
2.407000,-0.283690
2.408000,-0.307874
2.409000,-0.614626
2.410000,-0.903558
2.411000,-1.314682
2.412000,-1.672348
2.413000,-1.937096
2.414000,-1.803449
2.415000,-1.497970
2.416000,-1.369414
2.417000,-1.831451
2.418000,-2.031286
2.419000,-2.114020
2.420000,-1.869636
2.421000,-1.518335
2.422000,-1.286680
2.423000,-1.630344
2.424000,-1.951097
2.425000,-2.018557
2.426000,-2.194208
2.427000,-2.648608
2.428000,-2.446228
2.429000,-2.017284
2.430000,-1.612525
2.431000,-1.136486
2.432000,-0.904831
2.433000,-0.496253
2.434000,-0.027851
2.435000,-0.068582
2.436000,-0.324421
2.437000,-0.310419
2.438000,-0.423701
2.439000,-0.554803
2.440000,-0.888284
2.441000,-1.230676
2.442000,-1.545065
2.443000,-1.878546
2.444000,-1.828906
2.445000,-1.835270
2.446000,-2.073289
2.447000,-2.212027
2.448000,-2.453865
2.449000,-2.223483
2.450000,-1.915458
2.451000,-1.542519
2.452000,-1.328683
2.453000,-1.615070
2.454000,-1.651982
2.455000,-1.607433
2.456000,-1.511971
2.457000,-1.487787
2.458000,-1.416509
2.459000,-1.523426
2.460000,-1.735989
2.461000,-1.808540
2.462000,-1.805995
2.463000,-1.478877
2.464000,-1.393598
2.465000,-1.709260
2.466000,-1.853089
2.467000,-2.166206
2.468000,-2.508597
2.469000,-2.402952
2.470000,-2.068198
2.471000,-1.449602
2.472000,-1.256132
2.473000,-1.164488
2.474000,-1.620162
2.475000,-2.373677
2.476000,-2.404225
2.477000,-1.958734
2.478000,-1.452148
2.479000,-0.801732
2.480000,-0.561167
2.481000,-0.356241
2.482000,-0.278599
2.483000,-0.623536
2.484000,-0.920105
2.485000,-0.911195
2.486000,-0.822097
2.487000,-0.944289
2.488000,-1.183581
2.489000,-1.100847
2.490000,-1.085573
2.491000,-1.402508
2.492000,-1.911640
2.493000,-1.921822
2.494000,-1.853089
2.495000,-2.363494
2.496000,-2.661336
2.497000,-2.402952
2.498000,-1.934551
2.499000,-1.529791
2.500000,-1.128849
2.501000,-0.867919
2.502000,-0.738090
2.503000,-0.809369
2.504000,-0.943016
2.505000,-1.221766
2.506000,-1.074117
2.507000,-0.820824
2.508000,-0.543347
2.509000,-0.795368
2.510000,-0.950653
2.511000,-1.121212
2.512000,-1.212856
2.513000,-1.609979
2.514000,-1.947279
2.515000,-2.182752
2.516000,-2.181480
2.517000,-2.065652
2.518000,-2.004556
2.519000,-1.832724
2.520000,-1.995646
2.521000,-2.372404
2.522000,-2.313854
2.523000,-2.105110
2.524000,-1.721988
2.525000,-1.154306
2.526000,-0.943016
2.527000,-1.005385
2.528000,-1.313410
2.529000,-1.609979
2.530000,-1.912912
2.531000,-1.929459
2.532000,-1.626526
2.533000,-1.662165
2.534000,-1.926914
2.535000,-1.760173
2.536000,-1.776720
2.537000,-2.474230
2.538000,-2.560783
2.539000,-1.947279
2.540000,-1.258678
2.541000,-0.683359
2.542000,-0.488616
2.543000,-0.951926
2.544000,-1.296863
2.545000,-1.010476
2.546000,-0.926469
2.547000,-0.786458
2.548000,-0.993929
2.549000,-1.175944
2.550000,-1.270133
2.551000,-1.314682
2.552000,-1.388506
2.553000,-1.262496
2.554000,-1.128849
2.555000,-1.058844
2.556000,-1.080482
2.557000,-1.140305
2.558000,-1.377051
2.559000,-1.671075
2.560000,-1.765264
2.561000,-1.606160
2.562000,-1.663438
2.563000,-1.789448
2.564000,-1.753809
2.565000,-1.646891
2.566000,-1.555247
2.567000,-1.429237
2.568000,-1.424146
2.569000,-1.587068
2.570000,-1.547610
2.571000,-1.220493
2.572000,-1.457239
2.573000,-1.793266
2.574000,-1.847998
2.575000,-1.841634
2.576000,-1.659619
2.577000,-1.774174
2.578000,-1.636708
2.579000,-1.504334
2.580000,-1.468695
2.581000,-2.455138
2.582000,-3.010092
2.583000,-2.889173
2.584000,-2.490777
2.585000,-2.494596
2.586000,-2.203118
2.587000,-1.669802
2.588000,-1.473786
2.589000,-1.463603
2.590000,-1.342685
2.591000,-0.987565
2.592000,-0.433884
2.593000,-0.024033
2.594000,0.029426
2.595000,0.053610
2.596000,-0.058399
2.597000,-0.426247
2.598000,-0.901013
2.599000,-1.608706
2.600000,-1.919277
2.601000,-1.819996
2.602000,-2.036377
2.603000,-2.059288
2.604000,-1.765264
2.605000,-1.440693
2.606000,-1.165761
2.607000,-1.533609
2.608000,-1.653255
2.609000,-2.041468
2.610000,-2.162387
2.611000,-2.168751
2.612000,-1.904003
2.613000,-1.461058
2.614000,-1.491606
2.615000,-1.406326
2.616000,-1.338866
2.617000,-1.238313
2.618000,-1.035933
2.619000,-1.027023
2.620000,-1.086846
2.621000,-1.151760
2.622000,-1.256132
2.623000,-1.343957
2.624000,-1.704168
2.625000,-1.865818
2.626000,-1.481423
2.627000,-1.393598
2.628000,-1.389779
2.629000,-1.413963
2.630000,-1.434328
2.631000,-1.559066
2.632000,-1.805995
2.633000,-1.827633
2.634000,-1.847998
2.635000,-1.837815
2.636000,-1.551429
2.637000,-1.546337
2.638000,-2.205663
2.639000,-2.952815
2.640000,-3.531952
2.641000,-3.220109
2.642000,-2.619333
2.643000,-1.709260
2.644000,-1.001566
2.645000,-0.015123
2.646000,0.383273
2.647000,0.361635
2.648000,0.025608
2.649000,-0.314238
2.650000,-0.697360
2.651000,-1.086846
2.652000,-1.350322
2.653000,-2.031286
2.654000,-1.891274
2.655000,-1.977827
2.656000,-1.766537
2.657000,-1.714351
2.658000,-1.489060
2.659000,-1.136486
2.660000,-0.850099
2.661000,-0.699905
2.662000,-0.946834
2.663000,-1.228130
2.664000,-1.500516
2.665000,-1.687622
2.666000,-1.464876
2.667000,-1.375778
2.668000,-1.494151
2.669000,-1.318501
2.670000,-1.275225
2.671000,-1.263769
2.672000,-1.349049
2.673000,-1.333775
2.674000,-1.338866
2.675000,-1.300681
2.676000,-1.313410
2.677000,-1.313410
2.678000,-1.340139
2.679000,-1.634163
2.680000,-1.876000
2.681000,-1.923095
2.682000,-1.882365
2.683000,-1.825087
2.684000,-1.849271
2.685000,-1.870909
2.686000,-1.906548
2.687000,-1.891274
2.688000,-1.772901
2.689000,-1.757627
2.690000,-1.631617
2.691000,-1.469968
2.692000,-1.590886
2.693000,-2.133112
2.694000,-2.737706
2.695000,-3.295206
2.696000,-3.367757
2.697000,-2.941359
2.698000,-2.330401
2.699000,-1.982918
2.700000,-1.584522
2.701000,-1.235767
2.702000,-1.340139
2.703000,-1.133940
2.704000,-0.598079
2.705000,0.030699
2.706000,0.404911
2.707000,0.513102
2.708000,0.291629
2.709000,0.086703
2.710000,-0.146224
2.711000,-0.965927
2.712000,-2.332946
2.713000,-2.889173
2.714000,-2.619333
2.715000,-2.056742
2.716000,-1.495424
2.717000,-1.270133
2.718000,-1.262496
2.719000,-1.463603
2.720000,-2.038923
2.721000,-2.246394
2.722000,-2.028740
2.723000,-1.893820
2.724000,-1.435601
2.725000,-1.385961
2.726000,-1.578158
2.727000,-1.682530
2.728000,-1.925641
2.729000,-1.837815
2.730000,-1.522154
2.731000,-1.128849
2.732000,-0.815733
2.733000,-0.612080
2.734000,-0.850099
2.735000,-1.066480
2.736000,-1.203946
2.737000,-1.399962
2.738000,-1.280316
2.739000,-0.944289
2.740000,-0.450431
2.741000,-0.427520
2.742000,-0.855191
2.743000,-1.326138
2.744000,-1.825087
2.745000,-2.004556
2.746000,-2.058015
2.747000,-2.265486
2.748000,-2.186571
2.749000,-1.998192
2.750000,-1.809813
2.751000,-1.588341
2.752000,-1.616343
2.753000,-1.626526
2.754000,-1.579431
2.755000,-1.553974
2.756000,-1.640527
2.757000,-1.576885
2.758000,-1.539973
2.759000,-1.567976
2.760000,-1.985464
2.761000,-2.065652
2.762000,-1.888729
2.763000,-1.775447
2.764000,-2.008375
2.765000,-1.721988
2.766000,-1.449602
2.767000,-1.621434
2.768000,-1.627799
2.769000,-1.448329
2.770000,-1.089391
2.771000,-0.599352
2.772000,-0.379152
2.773000,-0.472069
2.774000,-0.703724
2.775000,-0.861555
2.776000,-1.061389
2.777000,-1.341412
2.778000,-1.393598
2.779000,-1.452148
2.780000,-1.408872
2.781000,-1.426691
2.782000,-1.630344
2.783000,-1.814905
2.784000,-1.901457
2.785000,-2.092381
2.786000,-2.391497
2.787000,-2.236211
2.788000,-2.254031
2.789000,-2.304944
2.790000,-2.106383
2.791000,-1.776720
2.792000,-1.489060
2.793000,-1.237040
2.794000,-1.155579
2.795000,-1.308318
2.796000,-1.318501
2.797000,-1.332502
2.798000,-1.410145
2.799000,-1.293044
2.800000,-1.083027
2.801000,-0.992656
2.802000,-1.603615
2.803000,-1.839088
2.804000,-2.131839
2.805000,-2.093654
2.806000,-1.963826
2.807000,-1.993101
2.808000,-2.055469
2.809000,-2.023649
2.810000,-1.924368
2.811000,-1.730898
2.812000,-1.599796
2.813000,-1.397416
2.814000,-1.452148
2.815000,-1.483969
2.816000,-1.084300
2.817000,-0.706270
2.818000,-0.743182
2.819000,-0.908650
2.820000,-1.000293
2.821000,-0.913741
2.822000,-0.848827
2.823000,-1.239585
2.824000,-2.196754
2.825000,-2.265486
2.826000,-1.794539
2.827000,-1.056298
2.828000,-0.594261
2.829000,-0.465705
2.830000,-0.220049
2.831000,0.010334
2.832000,-0.300237
2.833000,-1.170853
2.834000,-1.593432
2.835000,-1.646891
2.836000,-1.795812
2.837000,-1.529791
2.838000,-1.245950
2.839000,-1.205219
2.840000,-1.346503
2.841000,-1.350322
2.842000,-1.882365
2.843000,-2.181480
2.844000,-1.886183
2.845000,-1.813632
2.846000,-1.678712
2.847000,-1.550156
2.848000,-1.545065
2.849000,-1.515789
2.850000,-1.524699
2.851000,-1.464876
2.852000,-1.564157
2.853000,-1.645618
2.854000,-1.650709
2.855000,-1.769083
2.856000,-1.905275
2.857000,-2.238757
2.858000,-2.334219
2.859000,-2.262941
2.860000,-2.119111
2.861000,-1.980372
2.862000,-2.208209
2.863000,-2.381314
2.864000,-2.368586
2.865000,-2.213300
2.866000,-2.049105
2.867000,-1.662165
2.868000,-1.179762
2.869000,-0.898467
2.870000,-0.563713
2.871000,-0.674449
2.872000,-1.033387
2.873000,-1.379597
2.874000,-1.280316
2.875000,-0.934106
2.876000,-1.009203
2.877000,-1.333775
2.878000,-1.374505
2.879000,-1.454694
2.880000,-1.375778
2.881000,-1.253586
2.882000,-1.198855
2.883000,-1.254859
2.884000,-1.323592
2.885000,-1.742353
2.886000,-1.855635
2.887000,-1.940915
2.888000,-1.835270
2.889000,-1.966371
2.890000,-2.159841
2.891000,-2.170024
2.892000,-2.609150
2.893000,-2.814076
2.894000,-2.344402
2.895000,-1.578158
2.896000,-0.740636
2.897000,-0.143679
2.898000,-0.053308
2.899000,-0.416064
2.900000,-0.666812
2.901000,-0.745727
2.902000,-0.767365
2.903000,-0.743182
2.904000,-0.813187
2.905000,-0.824643
2.906000,-1.032114
2.907000,-1.161943
2.908000,-1.113575
2.909000,-1.490333
2.910000,-1.920549
2.911000,-2.027467
2.912000,-2.419499
2.913000,-2.391497
2.914000,-2.150932
2.915000,-2.073289
2.916000,-1.851817
2.917000,-1.800903
2.918000,-1.817450
2.919000,-2.349493
2.920000,-2.717341
2.921000,-2.661336
2.922000,-2.514961
2.923000,-1.954916
2.924000,-1.133940
2.925000,-1.165761
2.926000,-1.159397
2.927000,-0.796641
2.928000,-0.286236
2.929000,0.053610
2.930000,0.224169
2.931000,0.348906
2.932000,0.133798
2.933000,-0.395699
2.934000,-0.752091
2.935000,-1.013022
2.936000,-1.487787
2.937000,-1.791994
2.938000,-1.867091
2.939000,-1.790721
2.940000,-1.784357
2.941000,-1.660892
2.942000,-1.531063
2.943000,-1.595978
2.944000,-1.721988
2.945000,-2.238757
2.946000,-2.313854
2.947000,-2.231120
2.948000,-1.946006
2.949000,-1.710532
2.950000,-1.720715
2.951000,-2.110201
2.952000,-2.471685
2.953000,-2.548055
2.954000,-2.331673
2.955000,-2.150932
2.956000,-1.636708
2.957000,-1.335048
2.958000,-1.523426
2.959000,-1.597251
2.960000,-1.509425
2.961000,-1.177217
2.962000,-0.747000
2.963000,-0.455522
2.964000,-0.363878
2.965000,-0.480979
2.966000,-0.773730
2.967000,-1.069026
2.968000,-1.371960
2.969000,-1.742353
2.970000,-2.100018
2.971000,-1.877273
2.972000,-1.682530
2.973000,-1.757627
2.974000,-2.017284
2.975000,-2.149659
2.976000,-2.268032
2.977000,-2.180207
2.978000,-2.035104
2.979000,-1.896366
2.980000,-1.539973
2.981000,-1.238313
2.982000,-0.939197
2.983000,-0.664266
2.984000,-0.472069
2.985000,-0.403336
2.986000,-0.544620
2.987000,-0.633718
2.988000,-0.732999
2.989000,-0.930288
2.990000,-1.379597
2.991000,-1.584522
2.992000,-1.522154
2.993000,-1.763991
2.994000,-2.114020
2.995000,-2.382587
2.996000,-2.522598
2.997000,-2.699521
2.998000,-2.718614
2.999000,-2.634607
3.000000,-2.427136
3.001000,-2.027467
3.002000,-1.682530
3.003000,-1.743626
3.004000,-1.660892
3.005000,-1.615070
3.006000,-1.965098
3.007000,-1.749990
3.008000,-1.349049
3.009000,-1.444511
3.010000,-1.788175
3.011000,-1.802176
3.012000,-1.716897
3.013000,-1.687622
3.014000,-1.455966
3.015000,-1.139032
3.016000,-0.610807
3.017000,0.035790
3.018000,0.281446
3.019000,0.021789
3.020000,-0.307874
3.021000,-0.136042
3.022000,-0.123313
3.023000,-0.500071
3.024000,-0.879374
3.025000,-1.259951
3.026000,-1.710532
3.027000,-2.072016
3.028000,-2.111474
3.029000,-2.007102
3.030000,-1.881092
3.031000,-1.855635
3.032000,-1.682530
3.033000,-1.534882
3.034000,-1.231948
3.035000,-1.034660
3.036000,-1.010476
3.037000,-0.803005
3.038000,-0.598079
3.039000,-0.879374
3.040000,-1.137759
3.041000,-1.478877
3.042000,-1.729625
3.043000,-1.724534
3.044000,-1.718169
3.045000,-1.756354
3.046000,-1.835270
3.047000,-1.961280
3.048000,-2.256577
3.049000,-2.644790
3.050000,-2.878990
3.051000,-2.634607
3.052000,-2.349493
3.053000,-2.086017
3.054000,-1.779265
3.055000,-1.839088
3.056000,-2.367313
3.057000,-2.484413
3.058000,-2.355857
3.059000,-1.939642
3.060000,-1.533609
3.061000,-1.346503
3.062000,-1.245950
3.063000,-1.182308
3.064000,-0.923924
3.065000,-0.832280
3.066000,-0.805550
3.067000,-0.526801
3.068000,-0.421156
3.069000,-0.704997
3.070000,-1.189945
3.071000,-1.579431
3.072000,-2.055469
3.073000,-2.937541
3.074000,-3.217563
3.075000,-3.206108
3.076000,-2.716068
3.077000,-2.493323
3.078000,-1.845452
3.079000,-1.603615
3.080000,-1.995646
3.081000,-2.122929
3.082000,-1.808540
3.083000,-1.368141
3.084000,-0.652811
3.085000,0.155436
3.086000,0.369272
3.087000,0.257263
3.088000,-0.039307
3.089000,-0.152589
3.090000,0.044700
3.091000,-0.034215
3.092000,-0.127132
3.093000,-0.767365
3.094000,-1.290499
3.095000,-1.793266
3.096000,-1.879819
3.097000,-1.738535
3.098000,-1.579431
3.099000,-1.617616
3.100000,-1.821269
3.101000,-2.069471
3.102000,-2.195481
3.103000,-2.061834
3.104000,-1.733443
3.105000,-1.490333
3.106000,-1.397416
3.107000,-1.522154
3.108000,-1.808540
3.109000,-1.850544
3.110000,-1.654528
3.111000,-1.678712
3.112000,-1.476332
3.113000,-1.520881
3.114000,-1.828906
3.115000,-1.757627
3.116000,-1.734716
3.117000,-1.807268
3.118000,-1.636708
3.119000,-1.548883
3.120000,-1.406326
3.121000,-1.447057
3.122000,-1.808540
3.123000,-2.410589
3.124000,-2.601513
3.125000,-2.427136
3.126000,-1.734716
3.127000,-1.294317
3.128000,-1.742353
3.129000,-1.859454
3.130000,-1.868363
3.131000,-2.117838
3.132000,-1.948552
3.133000,-1.719442
3.134000,-1.216674
3.135000,-0.403336
3.136000,0.031972
3.137000,-0.064763
3.138000,-0.125859
3.139000,-0.083856
3.140000,-0.239141
3.141000,-0.852645
3.142000,-1.332502
3.143000,-1.165761
3.144000,-1.721988
3.145000,-1.851817
3.146000,-1.744899
3.147000,-1.606160
3.148000,-1.632890
3.149000,-1.854362
3.150000,-1.738535
3.151000,-1.336320
3.152000,-1.088119
3.153000,-1.212856
3.154000,-1.142850
3.155000,-1.056298
3.156000,-1.130122
3.157000,-0.920105
3.158000,-0.811914
3.159000,-1.058844
3.160000,-1.065208
3.161000,-1.282862
3.162000,-1.608706
3.163000,-1.691440
3.164000,-1.629071
3.165000,-1.663438
3.166000,-2.149659
3.167000,-2.162387
3.168000,-2.484413
3.169000,-2.778437
3.170000,-2.550600
3.171000,-2.167478
3.172000,-2.065652
3.173000,-1.939642
3.174000,-1.789448
3.175000,-1.580704
3.176000,-1.565430
3.177000,-1.214129
3.178000,-1.067753
3.179000,-1.585795
3.180000,-1.882365
3.181000,-2.312581
3.182000,-2.553146
3.183000,-2.565874
3.184000,-2.646063
3.185000,-2.261668
3.186000,-2.026194
3.187000,-1.748717
3.188000,-1.531063
3.189000,-1.514517
3.190000,-1.023204
3.191000,-0.613353
3.192000,-0.099130
3.193000,0.145254
3.194000,0.231806
3.195000,0.161800
3.196000,-0.175499
3.197000,-0.915014
3.198000,-1.119939
3.199000,-1.048661
3.200000,-1.011749
3.201000,-1.397416
3.202000,-1.700350
3.203000,-1.918004
3.204000,-1.912912
3.205000,-1.918004
3.206000,-1.833997
3.207000,-1.807268
3.208000,-1.822541
3.209000,-1.506880
3.210000,-1.296863
3.211000,-1.242131
3.212000,-1.234494
3.213000,-1.182308
3.214000,-1.191218
3.215000,-1.749990
3.216000,-2.317672
3.217000,-2.780982
3.218000,-2.709704
3.219000,-2.363494
3.220000,-1.938369
3.221000,-1.714351
3.222000,-1.495424
3.223000,-1.433056
3.224000,-1.477605
3.225000,-1.478877
3.226000,-1.468695
3.227000,-1.084300
3.228000,-0.715179
3.229000,-0.955744
3.230000,-1.163216
3.231000,-1.183581
3.232000,-1.273952
3.233000,-1.440693
3.234000,-1.911640
3.235000,-2.273123
3.236000,-2.694430
3.237000,-2.783528
3.238000,-2.601513
3.239000,-2.665155
3.240000,-2.420772
3.241000,-1.771628
3.242000,-1.011749
3.243000,-0.506435
3.244000,-0.092766
3.245000,0.367999
3.246000,0.438005
3.247000,0.276355
3.248000,-0.284963
3.249000,-0.634991
3.250000,-0.778821
3.251000,-0.941743
3.252000,-1.450875
3.253000,-2.005829
3.254000,-2.125475
3.255000,-2.140749
3.256000,-1.914185
3.257000,-1.495424
3.258000,-1.131395
3.259000,-0.820824
3.260000,-0.977382
3.261000,-1.360504
3.262000,-1.743626
3.263000,-1.828906
3.264000,-1.865818
3.265000,-2.065652
3.266000,-2.070743
3.267000,-2.778437
3.268000,-2.775891
3.269000,-2.542963
3.270000,-2.311308
3.271000,-1.934551
3.272000,-1.826360
3.273000,-2.026194
3.274000,-2.145840
3.275000,-2.027467
3.276000,-1.864545
3.277000,-1.569248
3.278000,-1.123758
3.279000,-0.897194
3.280000,-0.736818
3.281000,-0.794095
3.282000,-0.852645
3.283000,-0.814460
3.284000,-0.787731
3.285000,-1.210310
3.286000,-1.742353
3.287000,-2.910811
3.288000,-4.468755
3.289000,-4.929519
3.290000,-4.294377
3.291000,-2.971907
3.292000,-1.598523
3.293000,-0.361333
3.294000,0.612382
3.295000,1.158426
3.296000,1.288255
3.297000,1.066783
3.298000,1.472815
3.299000,1.802478
3.300000,1.378626
3.301000,0.539831
3.302000,-0.186955
3.303000,-0.892103
3.304000,-1.205219
3.305000,-1.351594
3.306000,-1.517062
3.307000,-1.835270
3.308000,-2.059288
3.309000,-2.191662
3.310000,-2.329128
3.311000,-2.260395
3.312000,-2.262941
3.313000,-2.251485
3.314000,-2.312581
3.315000,-2.461502
3.316000,-2.772073
3.317000,-2.760617
3.318000,-2.672792
3.319000,-2.460229
3.320000,-2.080926
3.321000,-1.766537
3.322000,-1.466149
3.323000,-1.453421
3.324000,-1.752536
3.325000,-2.091109
3.326000,-2.149659
3.327000,-1.998192
3.328000,-1.816177
3.329000,-1.651982
3.330000,-1.457239
3.331000,-1.239585
3.332000,-1.422873
3.333000,-1.455966
3.334000,-1.476332
3.335000,-1.313410
3.336000,-1.219220
3.337000,-1.198855
3.338000,-1.626526
3.339000,-1.957461
3.340000,-2.128021
3.341000,-2.428409
3.342000,-2.411862
3.343000,-2.545509
3.344000,-2.889173
3.345000,-3.254475
3.346000,-2.943905
3.347000,-2.556964
3.348000,-2.042741
3.349000,-1.441965
3.350000,-0.804278
3.351000,-0.096584
3.352000,0.289083
3.353000,0.221623
3.354000,-0.164044
3.355000,-0.054581
3.356000,0.168165
3.357000,0.129980
3.358000,-0.032943
3.359000,-0.102948
3.360000,-0.147497
3.361000,-0.096584
3.362000,-0.363878
3.363000,-0.619717
3.364000,-0.825916
3.365000,-0.922651
3.366000,-1.035933
3.367000,-1.368141
3.368000,-1.699077
3.369000,-1.888729
3.370000,-1.902730
3.371000,-1.912912
3.372000,-2.066925
3.373000,-2.352039
3.374000,-2.377495
3.375000,-2.728796
3.376000,-2.932449
3.377000,-3.083916
3.378000,-2.920994
3.379000,-2.826804
3.380000,-2.539145
3.381000,-2.079653
3.382000,-1.826360
3.383000,-1.546337
3.384000,-1.403780
3.385000,-1.167034
3.386000,-0.866646
3.387000,-0.595533
3.388000,-0.470796
3.389000,-0.552257
3.390000,-0.661721
3.391000,-1.168307
3.392000,-1.569248
3.393000,-1.617616
3.394000,-1.868363
3.395000,-1.949824
3.396000,-1.905275
3.397000,-1.789448
3.398000,-1.645618
3.399000,-1.458512
3.400000,-1.368141
3.401000,-1.520881
3.402000,-1.753809
3.403000,-1.957461
3.404000,-2.130566
3.405000,-2.092381
3.406000,-2.534053
3.407000,-2.502233
3.408000,-2.563329
3.409000,-2.422044
3.410000,-2.108928
3.411000,-1.956189
3.412000,-2.036377
3.413000,-2.464048
3.414000,-2.478049
3.415000,-2.436046
3.416000,-2.008375
3.417000,-1.509425
3.418000,-1.089391
3.419000,-0.482252
3.420000,0.099432
3.421000,0.448187
3.422000,0.649294
3.423000,0.732028
3.424000,0.578016
3.425000,0.017971
3.426000,-0.228958
3.427000,-0.002395
3.428000,0.002697
3.429000,-0.421156
3.430000,-0.767365
3.431000,-1.001566
3.432000,-1.294317
3.433000,-1.748717
3.434000,-1.986737
3.435000,-2.145840
3.436000,-2.168751
3.437000,-2.191662
3.438000,-2.313854
3.439000,-2.576057
3.440000,-2.732615
3.441000,-2.843351
3.442000,-2.705886
3.443000,-2.520052
3.444000,-2.128021
3.445000,-1.676166
3.446000,-1.380869
3.447000,-1.137759
3.448000,-0.859009
3.449000,-0.521709
3.450000,-0.264598
3.451000,-0.615899
3.452000,-1.159397
3.453000,-1.776720
3.454000,-2.247667
3.455000,-2.254031
3.456000,-2.023649
3.457000,-1.920549
3.458000,-1.550156
3.459000,-1.172125
3.460000,-0.934106
3.461000,-0.860282
3.462000,-0.969745
3.463000,-1.360504
3.464000,-1.714351
3.465000,-1.450875
3.466000,-1.312137
3.467000,-1.697804
3.468000,-2.170024
3.469000,-2.158569
3.470000,-1.858181
3.471000,-1.448329
3.472000,-1.273952
3.473000,-1.389779
3.474000,-1.679985
3.475000,-1.861999
3.476000,-2.223483
3.477000,-2.488232
3.478000,-2.559510
3.479000,-2.443683
3.480000,-2.266759
3.481000,-2.005829
3.482000,-1.687622
3.483000,-1.447057
3.484000,-1.551429
3.485000,-1.823814
3.486000,-1.807268
3.487000,-1.371960
3.488000,-0.951926
3.489000,-0.867919
3.490000,-0.972291
3.491000,-1.046115
3.492000,-1.037205
3.493000,-1.051207
3.494000,-0.944289
3.495000,-0.911195
3.496000,-0.897194
3.497000,-0.783912
3.498000,-0.869192
3.499000,-0.752091
3.500000,-0.487343
3.501000,-0.508981
3.502000,-0.857736
3.503000,-1.266315
3.504000,-1.382142
3.505000,-1.476332
3.506000,-1.438147
3.507000,-1.313410
3.508000,-1.265042
3.509000,-1.501788
3.510000,-1.611252
3.511000,-1.790721
3.512000,-1.804722
3.513000,-1.818723
3.514000,-1.707987
3.515000,-1.612525
3.516000,-1.705441
3.517000,-1.781811
3.518000,-2.128021
3.519000,-4.125091
3.520000,-4.932065
3.521000,-4.541306
3.522000,-3.282477
3.523000,-2.031286
3.524000,-0.867919
3.525000,-0.118222
3.526000,-0.110585
3.527000,-0.095311
3.528000,-0.665539
3.529000,-0.918832
3.530000,-0.493707
3.531000,-0.576441
3.532000,-0.409700
3.533000,-0.606989
3.534000,-0.951926
3.535000,-1.155579
3.536000,-1.310864
3.537000,-1.125031
3.538000,-1.142850
3.539000,-1.291771
3.540000,-1.364323
3.541000,-1.350322
3.542000,-1.163216
3.543000,-1.083027
3.544000,-1.070299
3.545000,-1.239585
3.546000,-1.392325
3.547000,-1.430510
3.548000,-1.483969
3.549000,-1.469968
3.550000,-1.550156
3.551000,-1.837815
3.552000,-2.044014
3.553000,-2.176388
3.554000,-2.135658
3.555000,-2.105110
3.556000,-1.942188
3.557000,-2.019830
3.558000,-2.201845
3.559000,-2.583694
3.560000,-2.621879
3.561000,-2.436046
3.562000,-2.269305
3.563000,-2.064379
3.564000,-1.734716
3.565000,-1.315955
3.566000,-1.048661
3.567000,-1.149214
3.568000,-1.794539
3.569000,-2.186571
3.570000,-2.150932
3.571000,-1.422873
3.572000,-0.610807
3.573000,-0.338422
3.574000,-0.206047
3.575000,-0.186955
3.576000,-0.380425
3.577000,-0.769911
3.578000,-0.964654
3.579000,-0.985019
3.580000,-0.862828
3.581000,-1.102120
3.582000,-1.289226
3.583000,-1.430510
3.584000,-1.468695
3.585000,-1.541246
3.586000,-1.910367
3.587000,-2.122929
3.588000,-2.222210
3.589000,-2.107655
3.590000,-1.928186
3.591000,-1.932005
3.592000,-2.316400
3.593000,-3.033003
3.594000,-2.951542
3.595000,-2.620606
3.596000,-2.047832
3.597000,-1.351594
3.598000,-0.800459
3.599000,-0.281144
3.600000,-0.101675
3.601000,-0.633718
3.602000,-1.005385
3.603000,-1.439420
3.604000,-1.576885
3.605000,-1.672348
3.606000,-1.503061
3.607000,-1.559066
3.608000,-1.430510
3.609000,-1.312137
3.610000,-1.196309
3.611000,-0.974837
3.612000,-0.729181
3.613000,-0.561167
3.614000,-0.693541
3.615000,-1.384688
3.616000,-1.876000
3.617000,-2.279487
3.618000,-2.297307
3.619000,-2.148386
3.620000,-1.786902
3.621000,-1.734716
3.622000,-1.564157
3.623000,-1.336320
3.624000,-1.029568
3.625000,-0.831007
3.626000,-0.684631
3.627000,-0.772457
3.628000,-1.281589
3.629000,-1.528518
3.630000,-1.721988
3.631000,-1.982918
3.632000,-2.238757
3.633000,-2.007102
3.634000,-1.701623
3.635000,-1.665983
3.636000,-1.593432
3.637000,-1.384688
3.638000,-1.280316
3.639000,-1.436874
3.640000,-1.643072
3.641000,-1.539973
3.642000,-1.387234
3.643000,-1.422873
3.644000,-1.546337
3.645000,-1.556520
3.646000,-1.525972
3.647000,-1.625253
3.648000,-2.320218
3.649000,-3.927802
3.650000,-4.204006
3.651000,-3.469584
3.652000,-2.334219
3.653000,-1.116121
3.654000,-0.282417
3.655000,0.255990
3.656000,0.365453
3.657000,0.131253
3.658000,-0.134769
3.659000,-0.326966
3.660000,0.068884
3.661000,0.244534
3.662000,-0.025306
3.663000,-0.431338
3.664000,-0.990111
3.665000,-1.388506
3.666000,-1.625253
3.667000,-1.914185
3.668000,-1.961280
3.669000,-1.916731
3.670000,-1.774174
3.671000,-2.050378
3.672000,-2.434773
3.673000,-2.478049
3.674000,-2.582421
3.675000,-2.371131
3.676000,-2.124202
3.677000,-2.364767
3.678000,-2.266759
3.679000,-2.182752
3.680000,-2.040195
3.681000,-1.817450
3.682000,-1.466149
3.683000,-1.108484
3.684000,-1.127576
3.685000,-1.042297
3.686000,-1.416509
3.687000,-2.189117
3.688000,-2.245121
3.689000,-2.079653
3.690000,-1.753809
3.691000,-1.654528
3.692000,-1.469968
3.693000,-1.393598
3.694000,-1.299408
3.695000,-1.165761
3.696000,-1.074117
3.697000,-1.028296
3.698000,-0.806823
3.699000,-0.609535
3.700000,-0.693541
3.701000,-0.718998
3.702000,-0.738090
3.703000,-0.838644
3.704000,-1.195036
3.705000,-1.468695
3.706000,-1.632890
3.707000,-1.289226
3.708000,-1.056298
3.709000,-1.262496
3.710000,-1.462331
3.711000,-1.617616
3.712000,-1.825087
3.713000,-1.906548
3.714000,-2.341856
3.715000,-2.919721
3.716000,-2.982090
3.717000,-2.798802
3.718000,-2.500960
3.719000,-2.316400
3.720000,-2.008375
3.721000,-1.676166
3.722000,-1.391052
3.723000,-1.041024
3.724000,-0.845008
3.725000,-0.819551
3.726000,-0.759728
3.727000,-1.055025
3.728000,-0.978655
3.729000,-0.834825
3.730000,-0.603170
3.731000,-0.572622
3.732000,-0.659175
3.733000,-0.986292
3.734000,-1.435601
3.735000,-1.788175
3.736000,-2.341856
3.737000,-2.549327
3.738000,-2.304944
3.739000,-2.031286
3.740000,-1.873455
3.741000,-1.699077
3.742000,-1.374505
3.743000,-1.097028
3.744000,-0.800459
3.745000,-0.735545
3.746000,-0.833553
3.747000,-0.879374
3.748000,-1.033387
3.749000,-1.177217
3.750000,-1.331229
3.751000,-1.419054
3.752000,-1.501788
3.753000,-1.683803
3.754000,-1.847998
3.755000,-1.988009
3.756000,-2.144567
3.757000,-2.164933
3.758000,-2.215846
3.759000,-2.326582
3.760000,-2.461502
3.761000,-2.844624
3.762000,-3.103008
3.763000,-2.803893
3.764000,-2.394042
3.765000,-1.952370
3.766000,-1.212856
3.767000,-0.293873
3.768000,-0.211139
3.769000,-0.297691
3.770000,-0.133496
3.771000,-0.139860
3.772000,-0.455522
3.773000,-0.771184
3.774000,-0.647719
3.775000,-0.323148
3.776000,-0.282417
3.777000,-0.320602
3.778000,-0.610807
3.779000,-0.862828
3.780000,-1.000293
3.781000,-1.207765
3.782000,-2.432227
3.783000,-3.449218
3.784000,-3.904891
3.785000,-3.800519
3.786000,-3.503950
3.787000,-2.878990
3.788000,-2.068198
3.789000,-1.444511
3.790000,-0.936652
3.791000,-0.800459
3.792000,-1.201400
3.793000,-1.052479
3.794000,-0.482252
3.795000,0.147799
3.796000,0.248353
3.797000,0.098159
3.798000,-0.213684
3.799000,-0.636264
3.800000,-1.038478
3.801000,-1.286680
3.802000,-1.468695
3.803000,-1.534882
3.804000,-1.755082
3.805000,-1.981645
3.806000,-2.060561
3.807000,-2.031286
3.808000,-1.968917
3.809000,-2.042741
3.810000,-2.284579
3.811000,-2.232393
3.812000,-2.640971
3.813000,-2.574784
3.814000,-2.367313
3.815000,-2.002011
3.816000,-1.678712
3.817000,-1.697804
3.818000,-1.625253
3.819000,-1.495424
3.820000,-1.471240
3.821000,-1.463603
3.822000,-2.078380
3.823000,-1.979100
3.824000,-1.545065
3.825000,-1.153033
3.826000,-0.931561
3.827000,-1.034660
3.828000,-1.030841
3.829000,-1.014294
3.830000,-1.397416
3.831000,-1.952370
3.832000,-1.966371
3.833000,-1.933278
3.834000,-1.878546
3.835000,-1.826360
3.836000,-1.794539
3.837000,-1.514517
3.838000,-1.641800
3.839000,-1.748717
3.840000,-1.972735
3.841000,-1.982918
3.842000,-1.853089
3.843000,-1.579431
3.844000,-0.893376
3.845000,-0.262052
3.846000,-0.106767
3.847000,-0.011304
3.848000,0.225442
3.849000,0.336178
3.850000,0.244534
3.851000,-0.011304
3.852000,-0.356241
3.853000,-0.927742
3.854000,-1.430510
3.855000,-1.621434
3.856000,-2.051651
3.857000,-2.251485
3.858000,-2.377495
3.859000,-2.562056
3.860000,-2.586239
3.861000,-2.385132
3.862000,-2.185298
3.863000,-1.944733
3.864000,-1.658346
3.865000,-1.575612
3.866000,-1.653255
3.867000,-1.604888
3.868000,-1.597251
3.869000,-1.532336
3.870000,-1.529791
3.871000,-1.556520
3.872000,-1.598523
3.873000,-1.835270
3.874000,-2.083472
3.875000,-2.723705
3.876000,-2.877718
3.877000,-2.534053
3.878000,-1.879819
3.879000,-1.520881
3.880000,-1.270133
3.881000,-1.206492
3.882000,-0.864101
3.883000,-0.647719
3.884000,-0.684631
3.885000,-0.859009
3.886000,-1.006657
3.887000,-0.985019
3.888000,-0.954471
3.889000,-1.259951
3.890000,-1.743626
3.891000,-2.040195
3.892000,-2.359676
3.893000,-2.324037
3.894000,-2.115292
3.895000,-2.073289
3.896000,-2.144567
3.897000,-2.402952
3.898000,-2.568420
3.899000,-2.252758
3.900000,-1.924368
3.901000,-1.289226
3.902000,-0.652811
3.903000,-0.171681
3.904000,0.035790
3.905000,-0.192046
3.906000,-0.414792
3.907000,-0.379152
3.908000,-0.279872
3.909000,-0.357514
3.910000,-0.693541
3.911000,-0.898467
3.912000,-1.021931
3.913000,-1.384688
3.914000,-1.518335
3.915000,-1.654528
3.916000,-2.280760
3.917000,-2.245121
3.918000,-1.918004
3.919000,-1.951097
3.920000,-1.958734
3.921000,-1.968917
3.922000,-1.808540
3.923000,-1.407599
3.924000,-1.361777
3.925000,-1.757627
3.926000,-2.951542
3.927000,-3.425034
3.928000,-3.249384
3.929000,-2.681702
3.930000,-2.191662
3.931000,-1.650709
3.932000,-1.189945
3.933000,-0.904831
3.934000,-0.720271
3.935000,-0.480979
3.936000,-0.274780
3.937000,-0.365151
3.938000,-0.354969
3.939000,-0.449158
3.940000,-0.496253
3.941000,-0.636264
3.942000,-0.729181
3.943000,-1.046115
3.944000,-1.355413
3.945000,-1.695259
3.946000,-1.855635
3.947000,-1.940915
3.948000,-1.916731
3.949000,-1.938369
3.950000,-1.854362
3.951000,-1.741080
3.952000,-1.855635
3.953000,-2.191662
3.954000,-2.143295
3.955000,-1.741080
3.956000,-1.648164
3.957000,-1.733443
3.958000,-1.785629
3.959000,-1.789448
3.960000,-2.013466
3.961000,-2.144567
3.962000,-2.385132
3.963000,-3.010092
3.964000,-2.789892
3.965000,-2.433500
3.966000,-2.061834
3.967000,-1.548883
3.968000,-1.032114
3.969000,-0.673176
3.970000,-0.335876
3.971000,-0.137315
3.972000,0.100705
3.973000,0.556378
3.974000,0.308176
3.975000,-0.076219
3.976000,-0.542075
3.977000,-0.752091
3.978000,-0.839917
3.979000,-1.285407
3.980000,-1.598523
3.981000,-1.691440
3.982000,-1.793266
3.983000,-2.010920
3.984000,-2.150932
3.985000,-2.228574
3.986000,-2.562056
3.987000,-2.522598
3.988000,-2.156023
3.989000,-1.704168
3.990000,-1.690167
3.991000,-1.753809
3.992000,-1.835270
3.993000,-1.853089
3.994000,-2.386405
3.995000,-2.573511
3.996000,-2.390224
3.997000,-2.299853
3.998000,-2.294761
3.999000,-2.338038
4.000000,-2.030013
4.001000,-1.631617
4.002000,-1.555247
4.003000,-1.532336
4.004000,-1.506880
4.005000,-1.119939
4.006000,-0.857736
4.007000,-0.619717
4.008000,-0.399518
4.009000,0.241989
4.010000,0.954774
4.011000,0.578016
4.012000,-0.044398
4.013000,-0.347332
4.014000,-0.689723
4.015000,-0.754637
4.016000,-0.887011
4.017000,-1.230676
4.018000,-1.430510
4.019000,-1.643072
4.020000,-1.904003
4.021000,-2.064379
4.022000,-2.070743
4.023000,-2.021103
4.024000,-2.069471
4.025000,-2.083472
4.026000,-2.030013
4.027000,-2.035104
4.028000,-2.106383
4.029000,-2.108928
4.030000,-2.218392
4.031000,-2.189117
4.032000,-2.091109
4.033000,-2.144567
4.034000,-2.559510
4.035000,-2.506051
4.036000,-2.190389
4.037000,-1.592159
4.038000,-1.224311
4.039000,-0.897194
4.040000,-1.013022
4.041000,-1.080482
4.042000,-1.126303
4.043000,-1.389779
4.044000,-0.951926
4.045000,-1.032114
4.046000,-1.803449
4.047000,-2.162387
4.048000,-1.837815
4.049000,-1.374505
4.050000,-1.009203
4.051000,-0.809369
4.052000,-0.991384
4.053000,-1.266315
4.054000,-1.289226
4.055000,-1.405053
4.056000,-1.491606
4.057000,-1.851817
4.058000,-2.322764
4.059000,-2.648608
4.060000,-2.666428
4.061000,-2.680429
4.062000,-2.705886
4.063000,-2.880263
4.064000,-2.591331
4.065000,-2.012193
4.066000,-1.539973
4.067000,-1.041024
4.068000,-0.845008
4.069000,-0.842462
4.070000,-0.433884
4.071000,-0.122041
4.072000,-0.440248
4.073000,-0.585351
4.074000,-0.422429
4.075000,-0.094038
4.076000,-0.153861
4.077000,-0.161498
4.078000,-0.472069
4.079000,-1.196309
4.080000,-1.556520
4.081000,-1.422873
4.082000,-1.198855
4.083000,-1.048661
4.084000,-0.825916
4.085000,-1.263769
4.086000,-1.836543
4.087000,-2.167478
4.088000,-2.289670
4.089000,-2.274396
4.090000,-2.033831
4.091000,-1.702895
4.092000,-1.427964
4.093000,-1.518335
4.094000,-1.511971
4.095000,-1.676166
4.096000,-1.658346
4.097000,-1.455966
4.098000,-1.435601
4.099000,-1.481423
4.100000,-1.331229
4.101000,-1.066480
4.102000,-1.366868
4.103000,-2.018557
4.104000,-2.289670
4.105000,-2.798802
4.106000,-2.817895
4.107000,-2.653699
4.108000,-2.265486
4.109000,-1.935823
4.110000,-1.503061
4.111000,-1.061389
4.112000,-0.861555
4.113000,-0.791549
4.114000,-0.618444
4.115000,-0.666812
4.116000,-0.556076
4.117000,-0.332058
4.118000,-0.228958
4.119000,-0.543347
4.120000,-0.967200
4.121000,-1.279043
4.122000,-1.477605
4.123000,-1.571794
4.124000,-1.639254
4.125000,-1.649437
4.126000,-1.685076
4.127000,-1.907821
4.128000,-2.149659
4.129000,-2.316400
4.130000,-2.569693
4.131000,-2.550600
4.132000,-2.470412
4.133000,-2.352039
4.134000,-2.472958
4.135000,-2.537872
4.136000,-2.712250
4.137000,-2.689339
4.138000,-2.875172
4.139000,-2.562056
4.140000,-2.231120
4.141000,-1.518335
4.142000,-0.878102
4.143000,-0.206047
4.144000,0.410002
4.145000,0.538558
4.146000,0.574197
4.147000,0.109614
4.148000,-0.251869
4.149000,-0.656629
4.150000,-0.968473
4.151000,-1.279043
4.152000,-1.485242
4.153000,-1.727079
4.154000,-1.714351
4.155000,-1.667256
4.156000,-1.641800
4.157000,-1.714351
4.158000,-1.692713
4.159000,-1.739808
4.160000,-1.967644
4.161000,-1.982918
4.162000,-2.511143
4.163000,-2.456411
4.164000,-2.489504
4.165000,-2.660064
4.166000,-2.987181
4.167000,-2.808985
4.168000,-2.980817
4.169000,-2.747889
4.170000,-1.835270
4.171000,-0.759728
4.172000,-0.190773
4.173000,0.132525
4.174000,0.318359
4.175000,0.269991
4.176000,0.230533
4.177000,0.188530
4.178000,0.318359
4.179000,0.282719
4.180000,0.015425
4.181000,-0.380425
4.182000,-0.895921
4.183000,-1.168307
4.184000,-1.158124
4.185000,-1.287953
4.186000,-1.466149
4.187000,-1.402508
4.188000,-1.560339
4.189000,-1.804722
4.190000,-1.914185
4.191000,-2.059288
4.192000,-2.218392
4.193000,-2.357130
4.194000,-2.513688
4.195000,-2.819167
4.196000,-2.803893
4.197000,-2.914630
4.198000,-2.901901
4.199000,-2.848442
4.200000,-2.651154
4.201000,-2.190389
4.202000,-1.729625
4.203000,-1.188672
4.204000,-0.934106
4.205000,-0.761001
4.206000,-0.688450
4.207000,-0.628627
4.208000,-0.781367
4.209000,-1.301954
4.210000,-1.660892
4.211000,-1.645618
4.212000,-1.761446
4.213000,-1.954916
4.214000,-1.794539
4.215000,-1.615070
4.216000,-1.636708
4.217000,-1.598523
4.218000,-1.533609
4.219000,-1.793266
4.220000,-1.632890
4.221000,-1.257405
4.222000,-1.119939
4.223000,-0.954471
4.224000,-1.662165
4.225000,-1.996919
4.226000,-1.965098
4.227000,-1.617616
4.228000,-1.188672
4.229000,-0.986292
4.230000,-0.704997
4.231000,-0.897194
4.232000,-1.396143
4.233000,-2.064379
4.234000,-2.764436
4.235000,-2.703340
4.236000,-2.084744
4.237000,-1.175944
4.238000,-0.676995
4.239000,-0.445339
4.240000,-0.279872
4.241000,-0.506435
4.242000,-0.747000
4.243000,-0.862828
4.244000,-1.136486
4.245000,-1.522154
4.246000,-1.776720
4.247000,-1.753809
4.248000,-1.791994
4.249000,-1.645618
4.250000,-1.590886
4.251000,-2.112747
4.252000,-2.387678
4.253000,-2.346947
4.254000,-2.176388
4.255000,-1.809813
4.256000,-1.349049
4.257000,-0.867919
4.258000,-0.626081
4.259000,-0.671903
4.260000,-0.866646
4.261000,-0.848827
4.262000,-0.850099
4.263000,-0.992656
4.264000,-1.678712
4.265000,-2.159841
4.266000,-2.590058
4.267000,-2.671519
4.268000,-2.246394
4.269000,-1.877273
4.270000,-1.492879
4.271000,-1.112302
4.272000,-0.786458
4.273000,-0.710088
4.274000,-1.179762
4.275000,-1.919277
4.276000,-2.055469
4.277000,-1.845452
4.278000,-1.907821
4.279000,-2.005829
4.280000,-1.776720
4.281000,-1.480150
4.282000,-1.333775
4.283000,-1.517062
4.284000,-1.405053
4.285000,-1.276497
4.286000,-1.099574
4.287000,-1.128849
4.288000,-1.088119
4.289000,-1.000293
4.290000,-1.053752
4.291000,-1.030841
4.292000,-1.002839
4.293000,-1.121212
4.294000,-1.595978
4.295000,-2.068198
4.296000,-2.434773
4.297000,-2.031286
4.298000,-1.183581
4.299000,-1.055025
4.300000,-0.979928
4.301000,-1.154306
4.302000,-1.361777
4.303000,-1.578158
4.304000,-1.631617
4.305000,-1.349049
4.306000,-1.290499
4.307000,-1.265042
4.308000,-1.424146
4.309000,-1.476332
4.310000,-1.478877
4.311000,-1.781811
4.312000,-1.814905
4.313000,-1.966371
4.314000,-1.769083
4.315000,-1.594705
4.316000,-1.407599
4.317000,-1.445784
4.318000,-1.534882
4.319000,-1.676166
4.320000,-1.888729
4.321000,-2.553146
4.322000,-2.805166
4.323000,-3.157740
4.324000,-2.896810
4.325000,-2.621879
4.326000,-2.144567
4.327000,-1.374505
4.328000,-0.990111
4.329000,-1.038478
4.330000,-0.827188
4.331000,-0.319329
4.332000,-0.311692
4.333000,-0.587896
4.334000,-0.925196
4.335000,-1.021931
4.336000,-1.192491
4.337000,-1.556520
4.338000,-1.657074
4.339000,-2.343129
4.340000,-2.670246
4.341000,-2.159841
4.342000,-1.761446
4.343000,-1.411417
4.344000,-0.976110
4.345000,-0.736818
4.346000,-0.633718
4.347000,-0.488616
4.348000,-0.297691
4.349000,-0.293873
4.350000,-0.357514
4.351000,-0.563713
4.352000,-0.836098
4.353000,-1.109757
4.354000,-1.203946
4.355000,-1.069026
4.356000,-1.158124
4.357000,-1.546337
4.358000,-1.682530
4.359000,-1.771628
4.360000,-1.629071
4.361000,-1.733443
4.362000,-2.186571
4.363000,-2.301126
4.364000,-2.447501
4.365000,-2.427136
4.366000,-2.157296
4.367000,-2.018557
4.368000,-2.359676
4.369000,-2.268032
4.370000,-1.845452
4.371000,-1.333775
4.372000,-1.016840
4.373000,-0.808096
4.374000,-0.618444
4.375000,-0.683359
4.376000,-1.053752
4.377000,-1.300681
4.378000,-1.296863
4.379000,-1.397416
4.380000,-1.800903
4.381000,-1.804722
4.382000,-1.847998
4.383000,-1.816177
4.384000,-1.732171
4.385000,-1.704168
4.386000,-1.814905
4.387000,-1.769083
4.388000,-1.752536
4.389000,-1.665983
4.390000,-1.514517
4.391000,-1.468695
4.392000,-1.599796
4.393000,-1.658346
4.394000,-1.548883
4.395000,-1.361777
4.396000,-1.467422
4.397000,-1.850544
4.398000,-2.327855
4.399000,-2.532781
4.400000,-2.737706
4.401000,-2.751707
4.402000,-3.199744
4.403000,-3.026639
4.404000,-2.680429
4.405000,-2.368586
4.406000,-1.902730
4.407000,-1.350322
4.408000,-0.710088
4.409000,-0.162771
4.410000,0.000151
4.411000,0.225442
4.412000,0.338724
4.413000,0.198713
4.414000,-0.012577
4.415000,-0.750819
4.416000,-1.163216
4.417000,-1.183581
4.418000,-0.987565
4.419000,-0.903558
4.420000,-0.935379
4.421000,-1.058844
4.422000,-1.294317
4.423000,-1.224311
4.424000,-1.589614
4.425000,-2.605332
4.426000,-2.595149
4.427000,-2.574784
4.428000,-2.164933
4.429000,-1.620162
4.430000,-1.201400
4.431000,-0.894648
4.432000,-0.824643
4.433000,-0.861555
4.434000,-0.973564
4.435000,-1.466149
4.436000,-1.575612
4.437000,-1.463603
4.438000,-1.419054
4.439000,-1.244677
4.440000,-1.098301
4.441000,-1.098301
4.442000,-1.086846
4.443000,-1.002839
4.444000,-0.913741
4.445000,-1.178490
4.446000,-1.319774
4.447000,-1.406326
4.448000,-1.532336
4.449000,-1.511971
4.450000,-1.514517
4.451000,-1.842907
4.452000,-2.092381
4.453000,-2.172570
4.454000,-2.097473
4.455000,-2.056742
4.456000,-2.130566
4.457000,-2.192935
4.458000,-2.117838
4.459000,-1.974008
4.460000,-1.780538
4.461000,-1.682530
4.462000,-1.592159
4.463000,-1.696531
4.464000,-1.788175
4.465000,-1.607433
4.466000,-1.632890
4.467000,-1.839088
4.468000,-2.252758
4.469000,-2.422044
4.470000,-2.259122
4.471000,-1.804722
4.472000,-1.214129
4.473000,-1.079209
4.474000,-1.191218
4.475000,-1.210310
4.476000,-1.420327
4.477000,-1.564157
4.478000,-1.477605
4.479000,-1.503061
4.480000,-1.419054
4.481000,-1.123758
4.482000,-1.044842
4.483000,-1.285407
4.484000,-1.385961
4.485000,-1.321046
4.486000,-1.380869
4.487000,-1.394871
4.488000,-1.426691
4.489000,-1.433056
4.490000,-1.664711
4.491000,-2.689339
4.492000,-2.940086
4.493000,-2.392769
4.494000,-1.589614
4.495000,-0.741909
4.496000,-0.339695
4.497000,-0.382971
4.498000,-0.814460
4.499000,-0.929015
4.500000,-1.056298
4.501000,-1.315955
4.502000,-1.434328
4.503000,-1.183581
4.504000,-0.829734
4.505000,-1.029568
4.506000,-1.565430
4.507000,-1.580704
4.508000,-1.520881
4.509000,-0.889557
4.510000,-0.296418
4.511000,-0.326966
4.512000,-0.613353
4.513000,-0.937925
4.514000,-1.230676
4.515000,-1.458512
4.516000,-1.786902
4.517000,-1.869636
4.518000,-2.009648
4.519000,-1.988009
4.520000,-1.825087
4.521000,-1.891274
4.522000,-1.839088
4.523000,-1.845452
4.524000,-1.770355
4.525000,-2.061834
4.526000,-2.584967
4.527000,-2.624424
4.528000,-2.353312
4.529000,-2.114020
4.530000,-1.840361
4.531000,-1.546337
4.532000,-1.321046
4.533000,-1.519608
4.534000,-1.693986
4.535000,-1.455966
4.536000,-1.169580
4.537000,-0.974837
4.538000,-1.116121
4.539000,-1.202673
4.540000,-1.377051
4.541000,-1.685076
4.542000,-1.900184
4.543000,-1.937096
4.544000,-1.836543
4.545000,-1.585795
4.546000,-1.294317
4.547000,-1.114848
4.548000,-0.907377
4.549000,-0.972291
4.550000,-1.015567
4.551000,-1.108484
4.552000,-1.192491
4.553000,-1.164488
4.554000,-1.287953
4.555000,-1.669802
4.556000,-2.075835
4.557000,-2.640971
4.558000,-2.481867
4.559000,-2.009648
4.560000,-1.183581
4.561000,-0.787731
4.562000,-0.622263
4.563000,-0.965927
4.564000,-1.122485
4.565000,-1.094483
4.566000,-1.144123
4.567000,-0.958290
4.568000,-0.806823
4.569000,-0.832280
4.570000,-0.939197
4.571000,-1.495424
4.572000,-2.241303
4.573000,-3.164104
4.574000,-3.489949
4.575000,-3.062278
4.576000,-2.315127
4.577000,-1.539973
4.578000,-0.997748
4.579000,-0.566258
4.580000,-0.432611
4.581000,-0.526801
4.582000,-0.632445
4.583000,-0.623536
4.584000,-0.408427
4.585000,-0.472069
4.586000,-1.109757
4.587000,-2.182752
4.588000,-2.296034
4.589000,-2.102564
4.590000,-2.042741
4.591000,-1.882365
4.592000,-1.553974
4.593000,-1.291771
4.594000,-1.066480
4.595000,-1.187399
4.596000,-1.385961
4.597000,-1.461058
4.598000,-1.466149
4.599000,-1.657074
4.600000,-1.721988
4.601000,-1.780538
4.602000,-1.925641
4.603000,-2.107655
4.604000,-2.170024
4.605000,-2.171297
4.606000,-2.115292
4.607000,-2.302398
4.608000,-2.450047
4.609000,-2.153477
4.610000,-1.676166
4.611000,-1.581977
4.612000,-1.453421
4.613000,-1.220493
4.614000,-1.094483
4.615000,-1.043570
4.616000,-0.988838
4.617000,-0.976110
4.618000,-0.949380
4.619000,-0.796641
4.620000,-0.636264
4.621000,-0.857736
4.622000,-0.929015
4.623000,-0.847554
4.624000,-1.163216
4.625000,-1.454694
4.626000,-1.354140
4.627000,-1.281589
4.628000,-1.621434
4.629000,-1.677439
4.630000,-1.625253
4.631000,-1.673620
4.632000,-1.861999
4.633000,-1.865818
4.634000,-1.756354
4.635000,-1.709260
4.636000,-1.697804
4.637000,-1.387234
4.638000,-1.061389
4.639000,-1.098301
4.640000,-1.514517
4.641000,-1.748717
4.642000,-1.683803
4.643000,-1.649437
4.644000,-1.828906
4.645000,-1.774174
4.646000,-1.606160
4.647000,-1.370687
4.648000,-1.273952
4.649000,-1.388506
4.650000,-1.707987
4.651000,-1.635435
4.652000,-2.114020
4.653000,-2.142022
4.654000,-1.920549
4.655000,-1.677439
4.656000,-1.622707
4.657000,-1.617616
4.658000,-1.593432
4.659000,-1.772901
4.660000,-2.229847
4.661000,-2.052924
4.662000,-1.851817
4.663000,-1.429237
4.664000,-1.197582
4.665000,-1.244677
4.666000,-1.422873
4.667000,-1.483969
4.668000,-1.585795
4.669000,-1.551429
4.670000,-1.243404
4.671000,-0.939197
4.672000,-0.747000
4.673000,-0.668085
4.674000,-0.612080
4.675000,-0.568804
4.676000,-0.666812
4.677000,-0.934106
4.678000,-1.147942
4.679000,-1.426691
4.680000,-1.783084
4.681000,-1.951097
4.682000,-1.985464
4.683000,-1.845452
4.684000,-1.832724
4.685000,-1.928186
4.686000,-2.042741
4.687000,-2.042741
4.688000,-1.998192
4.689000,-2.115292
4.690000,-2.234938
4.691000,-2.122929
4.692000,-1.918004
4.693000,-1.485242
4.694000,-1.342685
4.695000,-1.719442
4.696000,-2.675338
4.697000,-2.754253
4.698000,-2.190389
4.699000,-1.552702
4.700000,-1.081754
4.701000,-0.447885
4.702000,-0.288781
4.703000,-0.269689
4.704000,-0.480979
4.705000,-0.456795
4.706000,-0.474615
4.707000,-0.326966
4.708000,-0.069855
4.709000,-0.171681
4.710000,-0.382971
4.711000,-0.533165
4.712000,-0.797913
4.713000,-1.107211
4.714000,-1.748717
4.715000,-1.842907
4.716000,-1.925641
4.717000,-1.984191
4.718000,-2.050378
4.719000,-2.308763
4.720000,-2.478049
4.721000,-2.772073
4.722000,-2.616787
4.723000,-2.587512
4.724000,-2.574784
4.725000,-2.331673
4.726000,-1.749990
4.727000,-1.293044
4.728000,-1.090664
4.729000,-1.201400
4.730000,-1.214129
4.731000,-0.944289
4.732000,-0.767365
4.733000,-1.041024
4.734000,-1.132668
4.735000,-1.341412
4.736000,-1.228130
4.737000,-1.285407
4.738000,-1.189945
4.739000,-1.333775
4.740000,-1.653255
4.741000,-2.241303
4.742000,-2.929904
4.743000,-3.113191
4.744000,-2.761890
4.745000,-2.480595
4.746000,-2.068198
4.747000,-1.907821
4.748000,-1.743626
4.749000,-1.411417
4.750000,-1.044842
4.751000,-0.613353
4.752000,-0.426247
4.753000,-0.272235
4.754000,-0.292600
4.755000,-0.468250
4.756000,-0.725362
4.757000,-0.926469
4.758000,-1.137759
4.759000,-1.743626
4.760000,-2.317672
4.761000,-3.295206
4.762000,-3.403396
4.763000,-2.978271
4.764000,-2.264214
4.765000,-1.705441
4.766000,-1.189945
4.767000,-0.608262
4.768000,-0.260779
4.769000,-0.424974
4.770000,-0.550984
4.771000,-1.169580
4.772000,-0.992656
4.773000,-0.903558
4.774000,-0.837371
4.775000,-0.990111
4.776000,-1.018113
4.777000,-0.957017
4.778000,-1.098301
4.779000,-1.520881
4.780000,-2.282033
4.781000,-2.425863
4.782000,-2.212027
4.783000,-1.907821
4.784000,-1.635435
4.785000,-1.504334
4.786000,-1.445784
4.787000,-1.328683
4.788000,-1.125031
4.789000,-1.469968
4.790000,-1.524699
4.791000,-1.403780
4.792000,-1.193763
4.793000,-0.978655
4.794000,-0.940470
4.795000,-0.959563
4.796000,-1.070299
4.797000,-1.211583
4.798000,-1.429237
4.799000,-1.616343
4.800000,-1.990555
4.801000,-2.147113
4.802000,-2.073289
4.803000,-1.846725
4.804000,-1.580704
4.805000,-1.538700
4.806000,-1.742353
4.807000,-2.273123
4.808000,-2.400406
4.809000,-2.396588
4.810000,-1.926914
4.811000,-1.273952
4.812000,-0.950653
4.813000,-1.010476
4.814000,-1.123758
4.815000,-0.941743
4.816000,-0.850099
4.817000,-1.061389
4.818000,-1.497970
4.819000,-1.688894
4.820000,-1.672348
4.821000,-1.795812
4.822000,-2.028740
4.823000,-2.217119
4.824000,-2.404225
4.825000,-2.784801
4.826000,-2.863716
4.827000,-3.136102
4.828000,-3.666872
4.829000,-3.393214
4.830000,-2.700794
4.831000,-1.654528
4.832000,-0.464432
4.833000,0.375636
4.834000,0.729483
4.835000,0.917861
4.836000,0.840219
4.837000,0.410002
4.838000,0.145254
4.839000,-0.017669
4.840000,-0.323148
4.841000,-0.468250
4.842000,-0.675722
4.843000,-0.911195
4.844000,-1.223039
4.845000,-1.657074
4.846000,-2.142022
4.847000,-2.536599
4.848000,-2.609150
4.849000,-2.492050
4.850000,-2.247667
4.851000,-2.353312
4.852000,-2.105110
4.853000,-1.967644
4.854000,-2.091109
4.855000,-1.910367
4.856000,-1.436874
4.857000,-1.214129
4.858000,-1.341412
4.859000,-1.175944
4.860000,-1.133940
4.861000,-1.562884
4.862000,-1.639254
4.863000,-1.487787
4.864000,-1.310864
4.865000,-1.198855
4.866000,-1.181035
4.867000,-1.070299
4.868000,-1.062662
4.869000,-1.086846
4.870000,-1.195036
4.871000,-1.565430
4.872000,-2.163660
4.873000,-2.647335
4.874000,-3.353756
4.875000,-3.782700
4.876000,-3.511587
4.877000,-3.076279
4.878000,-2.430954
4.879000,-1.737262
4.880000,-1.237040
4.881000,-0.739363
4.882000,-0.450431
4.883000,-0.404609
4.884000,-0.538256
4.885000,-0.954471
4.886000,-1.123758
4.887000,-1.340139
4.888000,-1.399962
4.889000,-1.309591
4.890000,-0.907377
4.891000,-0.655356
4.892000,-0.629900
4.893000,-0.620990
4.894000,-0.734272
4.895000,-0.792822
4.896000,-0.642628
4.897000,-0.987565
4.898000,-1.403780
4.899000,-1.766537
4.900000,-2.447501
4.901000,-2.460229
4.902000,-2.215846
4.903000,-1.886183
4.904000,-1.441965
4.905000,-1.183581
4.906000,-0.972291
4.907000,-0.983747
4.908000,-1.037205
4.909000,-1.097028
4.910000,-1.243404
4.911000,-1.410145
4.912000,-1.569248
4.913000,-1.706714
4.914000,-1.830178
4.915000,-1.795812
4.916000,-2.301126
4.917000,-2.312581
4.918000,-2.247667
4.919000,-2.369858
4.920000,-2.331673
4.921000,-2.060561
4.922000,-1.821269
4.923000,-1.630344
4.924000,-1.597251
4.925000,-1.524699
4.926000,-1.318501
4.927000,-0.926469
4.928000,-0.670630
4.929000,-0.652811
4.930000,-0.637537
4.931000,-0.562440
4.932000,-1.011749
4.933000,-1.030841
4.934000,-1.131395
4.935000,-1.196309
4.936000,-1.216674
4.937000,-1.263769
4.938000,-1.308318
4.939000,-1.248495
4.940000,-1.371960
4.941000,-1.659619
4.942000,-2.262941
4.943000,-2.886627
4.944000,-3.076279
4.945000,-3.208653
4.946000,-2.920994
4.947000,-2.470412
4.948000,-1.882365
4.949000,-1.356686
4.950000,-1.013022
4.951000,-0.815733
4.952000,-0.925196
4.953000,-0.906104
4.954000,-0.363878
4.955000,-0.020214
4.956000,-0.628627
4.957000,-1.051207
4.958000,-1.220493
4.959000,-1.226857
4.960000,-1.219220
4.961000,-1.188672
4.962000,-1.225584
4.963000,-1.263769
4.964000,-1.784357
4.965000,-2.492050
4.966000,-2.596422
4.967000,-2.186571
4.968000,-1.888729
4.969000,-2.243848
4.970000,-2.630789
4.971000,-2.441137
4.972000,-2.089836
4.973000,-1.659619
4.974000,-1.650709
4.975000,-1.452148
4.976000,-1.181035
4.977000,-1.069026
4.978000,-1.131395
4.979000,-1.178490
4.980000,-0.981201
4.981000,-0.845008
4.982000,-0.762274
4.983000,-0.785185
4.984000,-0.548439
4.985000,-0.582805
4.986000,-1.001566
4.987000,-1.598523
4.988000,-2.250212
4.989000,-2.285852
4.990000,-2.059288
4.991000,-2.064379
4.992000,-2.026194
4.993000,-2.023649
4.994000,-1.916731
4.995000,-1.723261
4.996000,-1.483969
4.997000,-1.333775
4.998000,-1.613797
4.999000,-1.420327
5.000000,-1.111030
5.001000,-1.043570
5.002000,-1.337593
5.003000,-1.408872
5.004000,-1.242131
5.005000,-1.158124
5.006000,-1.298136
5.007000,-1.272679
5.008000,-1.123758
5.009000,-0.968473
5.010000,-1.023204
5.011000,-1.122485
5.012000,-1.333775
5.013000,-1.420327
5.014000,-0.794095
5.015000,-0.710088
5.016000,-0.892103
5.017000,-1.561611
5.018000,-1.938369
5.019000,-2.172570
5.020000,-2.171297
5.021000,-2.294761
5.022000,-2.371131
5.023000,-2.023649
5.024000,-1.483969
5.025000,-1.127576
5.026000,-0.782639
5.027000,-0.806823
5.028000,-0.978655
5.029000,-1.529791
5.030000,-1.867091
5.031000,-1.706714
5.032000,-1.328683
5.033000,-0.931561
5.034000,-0.950653
5.035000,-1.058844
5.036000,-1.150487
5.037000,-1.476332
5.038000,-2.054197
5.039000,-2.927358
5.040000,-3.669418
5.041000,-3.925257
5.042000,-3.624869
5.043000,-2.934995
5.044000,-2.060561
5.045000,-1.419054
5.046000,-0.992656
5.047000,-0.641355
5.048000,-0.558621
5.049000,-0.510254
5.050000,-0.741909
5.051000,-0.791549
5.052000,-0.675722
5.053000,-0.715179
5.054000,-0.799186
5.055000,-1.076663
5.056000,-1.281589
5.057000,-1.387234
5.058000,-1.480150
5.059000,-1.505607
5.060000,-1.337593
5.061000,-1.039751
5.062000,-0.934106
5.063000,-1.224311
5.064000,-1.588341
5.065000,-1.519608
5.066000,-1.369414
5.067000,-1.419054
5.068000,-1.621434
5.069000,-1.826360
5.070000,-1.827633
5.071000,-1.807268
5.072000,-1.765264
5.073000,-2.138203
5.074000,-2.609150
5.075000,-2.304944
5.076000,-1.855635
5.077000,-1.672348
5.078000,-1.487787
5.079000,-1.637981
5.080000,-1.865818
5.081000,-1.837815
5.082000,-1.785629
5.083000,-1.912912
5.084000,-1.738535
5.085000,-1.364323
5.086000,-1.315955
5.087000,-1.384688
5.088000,-1.575612
5.089000,-1.346503
5.090000,-1.331229
5.091000,-1.156851
5.092000,-0.985019
5.093000,-0.771184
5.094000,-0.590442
5.095000,-0.867919
5.096000,-1.164488
5.097000,-1.267588
5.098000,-1.196309
5.099000,-1.231948
5.100000,-1.356686
5.101000,-1.397416
5.102000,-1.513244
5.103000,-1.495424
5.104000,-1.326138
5.105000,-1.197582
5.106000,-1.182308
5.107000,-1.235767
5.108000,-1.230676
5.109000,-1.210310
5.110000,-1.182308
5.111000,-1.135213
5.112000,-1.781811
5.113000,-2.453865
5.114000,-3.052095
5.115000,-3.216290
5.116000,-3.254475
5.117000,-2.817895
5.118000,-2.293489
5.119000,-1.738535
5.120000,-1.356686
5.121000,-0.837371
5.122000,-0.435157
5.123000,-0.342240
5.124000,-0.437702
5.125000,-0.692268
5.126000,-0.819551
5.127000,-0.559894
5.128000,-0.538256
5.129000,-0.759728
5.130000,-0.939197
5.131000,-1.083027
5.132000,-1.065208
5.133000,-1.072845
5.134000,-1.226857
5.135000,-1.587068
5.136000,-1.641800
5.137000,-1.648164
5.138000,-1.669802
5.139000,-1.649437
5.140000,-1.786902
5.141000,-1.761446
5.142000,-1.789448
5.143000,-1.939642
5.144000,-2.166206
5.145000,-2.073289
5.146000,-1.762718
5.147000,-1.496697
5.148000,-1.405053
5.149000,-1.412690
5.150000,-1.327411
5.151000,-1.322319
5.152000,-1.578158
5.153000,-1.794539
5.154000,-2.250212
5.155000,-2.257849
5.156000,-2.265486
5.157000,-2.178934
5.158000,-1.976554
5.159000,-1.622707
5.160000,-1.430510
5.161000,-1.763991
5.162000,-2.199299
5.163000,-2.425863
5.164000,-2.124202
5.165000,-1.692713
5.166000,-1.259951
5.167000,-1.305773
5.168000,-2.248940
5.169000,-2.415680
5.170000,-1.896366
5.171000,-1.588341
5.172000,-0.973564
5.173000,-0.410973
5.174000,-0.391881
5.175000,-1.198855
5.176000,-2.139476
5.177000,-2.434773
5.178000,-2.676610
5.179000,-2.133112
5.180000,-1.321046
5.181000,-0.813187
5.182000,-0.539529
5.183000,-0.441521
5.184000,-0.543347
5.185000,-0.409700
5.186000,-0.105494
5.187000,-0.134769
5.188000,-0.293873
5.189000,-0.422429
5.190000,-0.431338
5.191000,-0.479706
5.192000,-0.599352
5.193000,-0.757183
5.194000,-1.097028
5.195000,-1.268860
5.196000,-1.636708
5.197000,-1.777992
5.198000,-2.040195
5.199000,-2.115292
5.200000,-1.989282
5.201000,-1.884910
5.202000,-1.817450
5.203000,-1.728352
5.204000,-1.673620
5.205000,-1.719442
5.206000,-1.660892
5.207000,-1.587068
5.208000,-1.543792
5.209000,-1.491606
5.210000,-1.525972
5.211000,-1.659619
5.212000,-1.762718
5.213000,-1.898911
5.214000,-1.896366
5.215000,-1.948552
5.216000,-2.086017
5.217000,-2.433500
5.218000,-2.920994
5.219000,-2.746616
5.220000,-2.448774
5.221000,-2.294761
5.222000,-2.152204
5.223000,-1.674893
5.224000,-1.514517
5.225000,-1.291771
5.226000,-1.196309
5.227000,-1.648164
5.228000,-1.520881
5.229000,-1.270133
5.230000,-0.978655
5.231000,-0.859009
5.232000,-0.491161
5.233000,-0.348604
5.234000,-0.671903
5.235000,-1.103393
5.236000,-1.133940
5.237000,-1.279043
5.238000,-1.219220
5.239000,-1.326138
5.240000,-1.828906
5.241000,-2.597695
5.242000,-3.029184
5.243000,-2.766981
5.244000,-2.316400
5.245000,-1.874728
5.246000,-1.873455
5.247000,-1.963826
5.248000,-1.690167
5.249000,-1.266315
5.250000,-0.842462
5.251000,-0.562440
5.252000,-0.450431
5.253000,-0.544620
5.254000,-0.785185
5.255000,-1.219220
5.256000,-1.177217
5.257000,-1.163216
5.258000,-1.203946
5.259000,-0.967200
5.260000,-0.636264
5.261000,-0.318056
5.262000,-0.251869
5.263000,-0.311692
5.264000,-0.613353
5.265000,-0.988838
5.266000,-1.085573
5.267000,-1.226857
5.268000,-1.471240
5.269000,-1.593432
5.270000,-1.509425
5.271000,-1.587068
5.272000,-1.695259
5.273000,-1.720715
5.274000,-1.831451
5.275000,-1.840361
5.276000,-1.888729
5.277000,-1.860726
5.278000,-1.914185
5.279000,-2.074562
5.280000,-2.061834
5.281000,-2.122929
5.282000,-2.172570
5.283000,-2.376223
5.284000,-2.506051
5.285000,-2.433500
5.286000,-2.016012
5.287000,-1.766537
5.288000,-1.907821
5.289000,-1.825087
5.290000,-1.828906
5.291000,-2.149659
5.292000,-2.396588
5.293000,-2.556964
5.294000,-2.842078
5.295000,-3.057187
5.296000,-2.913357
5.297000,-2.838260
5.298000,-2.254031
5.299000,-1.305773
5.300000,-0.648992
5.301000,-0.207320
5.302000,0.103250
5.303000,0.477462
5.304000,0.576743
5.305000,0.642930
5.306000,0.388364
5.307000,-0.110585
5.308000,-0.674449
5.309000,-1.020659
5.310000,-1.795812
5.311000,-2.382587
5.312000,-3.033003
5.313000,-3.628687
5.314000,-3.498859
5.315000,-3.110645
5.316000,-1.963826
5.317000,-1.304500
5.318000,-1.174671
5.319000,-1.062662
5.320000,-0.813187
5.321000,-0.472069
5.322000,-0.305328
5.323000,-0.206047
5.324000,0.252171
5.325000,0.295448
5.326000,0.305630
5.327000,0.063793
5.328000,-0.367697
5.329000,-0.552257
5.330000,-0.853918
5.331000,-1.305773
5.332000,-1.766537
5.333000,-2.075835
5.334000,-2.219664
5.335000,-2.366040
5.336000,-2.321491
5.337000,-2.294761
5.338000,-2.254031
5.339000,-2.371131
5.340000,-2.466593
5.341000,-2.741525
5.342000,-3.212472
5.343000,-3.038094
5.344000,-2.564601
5.345000,-2.103837
5.346000,-1.646891
5.347000,-1.289226
5.348000,-1.048661
5.349000,-0.850099
5.350000,-0.907377
5.351000,-0.997748
5.352000,-0.931561
5.353000,-1.049934
5.354000,-1.317228
5.355000,-1.679985
5.356000,-1.991828
5.357000,-1.812359
5.358000,-1.424146
5.359000,-1.223039
5.360000,-1.125031
5.361000,-1.108484
5.362000,-1.172125
5.363000,-0.949380
5.364000,-0.731726
5.365000,-0.883193
5.366000,-1.062662
5.367000,-1.340139
5.368000,-1.659619
5.369000,-1.705441
5.370000,-1.583249
5.371000,-1.635435
5.372000,-1.918004
5.373000,-2.215846
5.374000,-2.563329
5.375000,-2.658791
5.376000,-2.522598
5.377000,-2.124202
5.378000,-1.851817
5.379000,-1.765264
5.380000,-2.045287
5.381000,-2.318945
5.382000,-2.549327
5.383000,-2.438591
5.384000,-2.180207
5.385000,-1.932005
5.386000,-1.653255
5.387000,-0.920105
5.388000,-0.556076
5.389000,-0.339695
5.390000,-0.671903
5.391000,-1.272679
5.392000,-1.682530
5.393000,-1.200128
5.394000,-1.062662
5.395000,-1.039751
5.396000,-0.782639
5.397000,-0.572622
5.398000,-0.332058
5.399000,-0.422429
5.400000,-0.558621
5.401000,-0.901013
5.402000,-1.137759
5.403000,-1.193763
5.404000,-0.976110
5.405000,-1.060116
5.406000,-1.153033
5.407000,-1.261223
5.408000,-1.475059
5.409000,-1.625253
5.410000,-1.716897
5.411000,-1.739808
5.412000,-2.063106
5.413000,-2.282033
5.414000,-2.318945
5.415000,-1.695259
5.416000,-1.140305
5.417000,-0.945562
5.418000,-0.946834
5.419000,-1.221766
5.420000,-1.361777
5.421000,-1.566703
5.422000,-1.497970
5.423000,-1.469968
5.424000,-1.533609
5.425000,-1.532336
5.426000,-1.576885
5.427000,-1.287953
5.428000,-1.360504
5.429000,-1.564157
5.430000,-1.402508
5.431000,-1.156851
5.432000,-1.114848
5.433000,-1.235767
5.434000,-1.528518
5.435000,-1.849271
5.436000,-1.961280
5.437000,-2.343129
5.438000,-2.654972
5.439000,-2.595149
5.440000,-2.565874
5.441000,-2.506051
5.442000,-2.476776
5.443000,-2.312581
5.444000,-1.709260
5.445000,-1.256132
5.446000,-0.943016
5.447000,-0.865373
5.448000,-0.974837
5.449000,-0.908650
5.450000,-0.997748
5.451000,-1.083027
5.452000,-1.128849
5.453000,-0.853918
5.454000,-0.838644
5.455000,-1.141577
5.456000,-1.662165
5.457000,-2.212027
5.458000,-2.503506
5.459000,-3.113191
5.460000,-3.236656
5.461000,-2.954087
5.462000,-2.269305
5.463000,-1.585795
5.464000,-1.238313
5.465000,-1.142850
5.466000,-1.019386
5.467000,-0.926469
5.468000,-0.628627
5.469000,-0.461886
5.470000,-0.250596
5.471000,-0.319329
5.472000,-0.288781
5.473000,-0.368970
5.474000,-0.538256
5.475000,-0.801732
5.476000,-1.024477
5.477000,-1.215402
5.478000,-1.270133
5.479000,-1.426691
5.480000,-1.678712
5.481000,-1.937096
5.482000,-2.518780
5.483000,-3.077552
5.484000,-3.175560
5.485000,-3.104281
5.486000,-2.569693
5.487000,-2.322764
5.488000,-1.949824
5.489000,-1.709260
5.490000,-1.635435
5.491000,-1.538700
5.492000,-1.453421
5.493000,-1.244677
5.494000,-1.033387
5.495000,-0.587896
5.496000,-0.452976
5.497000,-0.614626
5.498000,-1.252314
5.499000,-1.845452
5.500000,-1.896366
5.501000,-1.732171
5.502000,-1.710532
5.503000,-1.609979
5.504000,-1.335048
5.505000,-1.239585
5.506000,-1.170853
5.507000,-0.945562
5.508000,-0.820824
5.509000,-0.592988
5.510000,-0.390608
5.511000,-0.628627
5.512000,-0.887011
5.513000,-1.039751
5.514000,-1.076663
5.515000,-1.307045
5.516000,-1.441965
5.517000,-1.377051
5.518000,-1.567976
5.519000,-1.795812
5.520000,-1.975281
5.521000,-2.192935
5.522000,-2.364767
5.523000,-2.083472
5.524000,-1.986737
5.525000,-2.026194
5.526000,-1.883637
5.527000,-1.692713
5.528000,-1.837815
5.529000,-1.858181
5.530000,-1.565430
5.531000,-1.063935
5.532000,-0.836098
5.533000,-0.708815
5.534000,-0.572622
5.535000,-0.738090
5.536000,-1.055025
5.537000,-1.468695
5.538000,-1.779265
5.539000,-1.882365
5.540000,-2.008375
5.541000,-1.962553
5.542000,-1.980372
5.543000,-2.177661
5.544000,-2.568420
5.545000,-3.236656
5.546000,-3.519224
5.547000,-3.483585
5.548000,-2.626970
5.549000,-1.649437
5.550000,-0.839917
5.551000,-0.418610
5.552000,-0.468250
5.553000,-0.353696
5.554000,-0.097857
5.555000,0.009061
5.556000,-0.469523
5.557000,-0.622263
5.558000,-0.521709
5.559000,-0.811914
5.560000,-1.083027
5.561000,-1.402508
5.562000,-1.714351
5.563000,-2.184025
5.564000,-2.358403
5.565000,-2.061834
5.566000,-1.960007
5.567000,-1.753809
5.568000,-1.534882
5.569000,-1.433056
5.570000,-1.483969
5.571000,-1.651982
5.572000,-1.933278
5.573000,-1.998192
5.574000,-1.979100
5.575000,-1.735989
5.576000,-1.743626
5.577000,-1.756354
5.578000,-1.761446
5.579000,-1.510698
5.580000,-1.212856
5.581000,-0.782639
5.582000,-0.556076
5.583000,-0.489889
5.584000,-0.520436
5.585000,-0.734272
5.586000,-0.888284
5.587000,-1.058844
5.588000,-1.057571
5.589000,-1.425419
5.590000,-1.724534
5.591000,-1.753809
5.592000,-1.499243
5.593000,-1.305773
5.594000,-1.319774
5.595000,-1.462331
5.596000,-1.434328
5.597000,-1.691440
5.598000,-2.301126
5.599000,-2.526416
5.600000,-2.677883
5.601000,-2.362221
5.602000,-2.205663
5.603000,-2.292216
5.604000,-1.916731
5.605000,-1.746172
5.606000,-1.417782
5.607000,-1.229403
5.608000,-1.235767
5.609000,-1.198855
5.610000,-1.522154
5.611000,-1.878546
5.612000,-2.093654
5.613000,-1.915458
5.614000,-1.534882
5.615000,-1.476332
5.616000,-1.783084
5.617000,-1.844180
5.618000,-1.608706
5.619000,-1.565430
5.620000,-1.757627
5.621000,-1.746172
5.622000,-1.839088
5.623000,-1.718169
5.624000,-1.798358
5.625000,-1.587068
5.626000,-1.005385
5.627000,-0.503890
5.628000,-0.268416
5.629000,-0.213684
5.630000,-0.230231
5.631000,-0.090220
5.632000,-0.003667
5.633000,0.067611
5.634000,-0.002395
5.635000,-0.393153
5.636000,-0.845008
5.637000,-1.343957
5.638000,-1.489060
5.639000,-1.686349
5.640000,-1.803449
5.641000,-1.994374
5.642000,-2.223483
5.643000,-2.413135
5.644000,-2.385132
5.645000,-2.344402
5.646000,-2.352039
5.647000,-2.128021
5.648000,-1.886183
5.649000,-1.800903
5.650000,-1.664711
5.651000,-1.662165
5.652000,-1.634163
5.653000,-1.415236
5.654000,-1.258678
5.655000,-1.141577
5.656000,-1.425419
5.657000,-1.934551
5.658000,-1.886183
5.659000,-1.510698
5.660000,-0.918832
5.661000,-0.848827
5.662000,-1.127576
5.663000,-1.589614
5.664000,-2.318945
5.665000,-3.006273
5.666000,-3.537043
5.667000,-3.525588
5.668000,-2.886627
5.669000,-2.181480
5.670000,-1.599796
5.671000,-1.354140
5.672000,-1.481423
5.673000,-1.323592
5.674000,-1.067753
5.675000,-0.606989
5.676000,-0.102948
5.677000,0.518193
5.678000,0.471098
5.679000,0.089249
5.680000,-0.483524
5.681000,-0.958290
5.682000,-1.132668
5.683000,-1.146669
5.684000,-1.564157
5.685000,-1.685076
5.686000,-2.021103
5.687000,-2.327855
5.688000,-2.775891
5.689000,-2.881536
5.690000,-2.794984
5.691000,-2.430954
5.692000,-1.830178
5.693000,-1.387234
5.694000,-1.252314
5.695000,-1.070299
5.696000,-0.850099
5.697000,-0.534438
5.698000,-0.295146
5.699000,-0.282417
5.700000,-0.391881
5.701000,-0.716452
5.702000,-1.298136
5.703000,-1.742353
5.704000,-2.168751
5.705000,-2.383860
5.706000,-2.341856
5.707000,-2.171297
5.708000,-2.018557
5.709000,-1.757627
5.710000,-1.457239
5.711000,-1.678712
5.712000,-1.707987
5.713000,-1.581977
5.714000,-1.441965
5.715000,-1.248495
5.716000,-0.918832
5.717000,-0.865373
5.718000,-1.051207
5.719000,-1.226857
5.720000,-1.401235
5.721000,-1.606160
5.722000,-1.763991
5.723000,-2.194208
5.724000,-2.262941
5.725000,-2.007102
5.726000,-2.028740
5.727000,-2.404225
5.728000,-2.839533
5.729000,-3.613413
5.730000,-4.052540
5.731000,-3.535771
5.732000,-2.568420
5.733000,-1.576885
5.734000,-0.654084
5.735000,-0.431338
5.736000,-0.024033
5.737000,0.183439
5.738000,0.383273
5.739000,0.297993
5.740000,0.272537
5.741000,0.210168
5.742000,0.098159
5.743000,0.019243
5.744000,-0.391881
5.745000,-0.986292
5.746000,-1.713078
5.747000,-2.059288
5.748000,-1.984191
5.749000,-1.960007
5.750000,-1.989282
5.751000,-1.835270
5.752000,-1.575612
5.753000,-1.430510
5.754000,-1.841634
5.755000,-2.226029
5.756000,-2.184025
5.757000,-1.902730
5.758000,-1.578158
5.759000,-1.658346
5.760000,-1.449602
5.761000,-1.307045
5.762000,-1.346503
5.763000,-1.517062
5.764000,-1.625253
5.765000,-1.766537
5.766000,-1.734716
5.767000,-1.907821
5.768000,-1.840361
5.769000,-1.429237
5.770000,-1.103393
5.771000,-1.023204
5.772000,-1.103393
5.773000,-1.155579
5.774000,-1.063935
5.775000,-1.067753
5.776000,-1.173398
5.777000,-1.242131
5.778000,-1.382142
5.779000,-1.528518
5.780000,-1.719442
5.781000,-1.800903
5.782000,-1.861999
5.783000,-1.979100
5.784000,-2.185298
5.785000,-2.572238
5.786000,-2.694430
5.787000,-2.479322
5.788000,-2.016012
5.789000,-1.793266
5.790000,-1.734716
5.791000,-1.704168
5.792000,-1.509425
5.793000,-1.210310
5.794000,-0.772457
5.795000,-0.576441
5.796000,-0.533165
5.797000,-0.618444
5.798000,-0.692268
5.799000,-0.879374
5.800000,-0.983747
5.801000,-1.662165
5.802000,-2.010920
5.803000,-2.130566
5.804000,-2.259122
5.805000,-2.161114
5.806000,-1.780538
5.807000,-1.252314
5.808000,-1.004112
5.809000,-0.931561
5.810000,-0.811914
5.811000,-1.215402
5.812000,-1.697804
5.813000,-1.856908
5.814000,-1.970190
5.815000,-2.238757
5.816000,-2.354584
5.817000,-2.059288
5.818000,-1.921822
5.819000,-1.744899
5.820000,-1.467422
5.821000,-1.225584
5.822000,-1.226857
5.823000,-1.202673
5.824000,-1.144123
5.825000,-1.125031
5.826000,-1.108484
5.827000,-0.741909
5.828000,-0.734272
5.829000,-0.687177
5.830000,-0.605716
5.831000,-0.973564
5.832000,-1.167034
5.833000,-1.291771
5.834000,-1.531063
5.835000,-2.260395
5.836000,-3.057187
5.837000,-3.293933
5.838000,-2.994818
5.839000,-2.344402
5.840000,-1.704168
5.841000,-1.200128
5.842000,-0.890830
5.843000,-0.865373
5.844000,-1.132668
5.845000,-1.215402
5.846000,-1.215402
5.847000,-1.277770
5.848000,-1.117394
5.849000,-0.983747
5.850000,-1.033387
5.851000,-0.925196
5.852000,-0.725362
5.853000,-0.477160
5.854000,-0.404609
5.855000,-0.450431
5.856000,-0.441521
5.857000,-0.917559
5.858000,-1.553974
5.859000,-2.242575
5.860000,-2.378768
5.861000,-2.157296
5.862000,-2.357130
5.863000,-2.233666
5.864000,-1.884910
5.865000,-1.630344
5.866000,-1.570521
5.867000,-1.485242
5.868000,-1.430510
5.869000,-1.439420
5.870000,-1.431783
5.871000,-1.501788
5.872000,-1.501788
5.873000,-1.375778
5.874000,-1.337593
5.875000,-1.463603
5.876000,-2.049105
5.877000,-2.522598
5.878000,-2.811530
5.879000,-2.658791
5.880000,-2.304944
5.881000,-1.831451
5.882000,-1.583249
5.883000,-1.741080
5.884000,-1.704168
5.885000,-1.695259
5.886000,-1.622707
5.887000,-1.464876
5.888000,-0.991384
5.889000,-0.637537
5.890000,-0.704997
5.891000,-0.735545
5.892000,-0.806823
5.893000,-1.321046
5.894000,-1.611252
5.895000,-1.821269
5.896000,-2.120384
5.897000,-2.097473
5.898000,-2.164933
5.899000,-2.098746
5.900000,-2.331673
5.901000,-2.363494
5.902000,-2.108928
5.903000,-1.849271
5.904000,-1.658346
5.905000,-1.235767
5.906000,-0.797913
5.907000,-0.489889
5.908000,0.023062
5.909000,0.243262
5.910000,0.299266
5.911000,-0.409700
5.912000,-0.861555
5.913000,-1.345230
5.914000,-1.687622
5.915000,-1.916731
5.916000,-2.836987
5.917000,-3.094099
5.918000,-2.835714
5.919000,-2.078380
5.920000,-1.312137
5.921000,-0.833553
5.922000,-0.931561
5.923000,-0.890830
5.924000,-0.822097
5.925000,-0.505162
5.926000,-0.354969
5.927000,-0.651538
5.928000,-0.932833
5.929000,-1.113575
5.930000,-1.312137
5.931000,-1.867091
5.932000,-2.427136
5.933000,-2.442410
5.934000,-2.335492
5.935000,-1.902730
5.936000,-1.467422
5.937000,-1.202673
5.938000,-1.151760
5.939000,-1.305773
5.940000,-1.323592
5.941000,-1.265042
5.942000,-1.070299
5.943000,-0.876829
5.944000,-0.883193
5.945000,-1.009203
5.946000,-1.424146
5.947000,-1.813632
5.948000,-1.951097
5.949000,-1.910367
5.950000,-1.845452
5.951000,-2.080926
5.952000,-2.555692
5.953000,-2.822986
5.954000,-2.999909
5.955000,-2.917175
5.956000,-2.738979
5.957000,-2.329128
5.958000,-1.763991
5.959000,-1.322319
5.960000,-1.121212
5.961000,-1.015567
5.962000,-0.769911
5.963000,-0.487343
5.964000,-0.208593
5.965000,-0.002395
5.966000,-0.488616
5.967000,-0.941743
5.968000,-1.229403
5.969000,-1.520881
5.970000,-1.954916
5.971000,-2.096200
5.972000,-2.086017
5.973000,-1.970190
5.974000,-1.818723
5.975000,-1.648164
5.976000,-1.167034
5.977000,-0.687177
5.978000,-1.127576
5.979000,-1.562884
5.980000,-1.291771
5.981000,-0.934106
5.982000,-0.897194
5.983000,-0.946834
5.984000,-1.696531
5.985000,-2.030013
5.986000,-2.332946
5.987000,-2.394042
5.988000,-2.088563
5.989000,-1.763991
5.990000,-1.375778
5.991000,-1.139032
5.992000,-0.785185
5.993000,-1.098301
5.994000,-1.501788
5.995000,-1.435601
5.996000,-1.315955
5.997000,-1.052479
5.998000,-1.055025
5.999000,-1.091937
6.000000,-1.282862
6.001000,-1.772901
6.002000,-2.433500
6.003000,-2.522598
6.004000,-2.400406
6.005000,-2.259122
6.006000,-1.901457
6.007000,-1.849271
6.008000,-1.873455
6.009000,-1.546337
6.010000,-1.347776
6.011000,-1.262496
6.012000,-1.047388
6.013000,-1.220493
6.014000,-1.287953
6.015000,-1.281589
6.016000,-1.183581
6.017000,-1.062662
6.018000,-0.978655
6.019000,-0.764820
6.020000,-0.791549
6.021000,-0.901013
6.022000,-1.024477
6.023000,-1.377051
6.024000,-1.732171
6.025000,-2.007102
6.026000,-2.178934
6.027000,-2.086017
6.028000,-1.900184
6.029000,-1.623980
6.030000,-1.483969
6.031000,-1.389779
6.032000,-1.368141
6.033000,-1.299408
6.034000,-1.257405
6.035000,-1.130122
6.036000,-0.982474
6.037000,-1.150487
6.038000,-1.786902
6.039000,-2.018557
6.040000,-2.116565
6.041000,-2.065652
6.042000,-1.812359
6.043000,-1.504334
6.044000,-2.068198
6.045000,-2.038923
6.046000,-1.939642
6.047000,-1.603615
6.048000,-1.748717
6.049000,-2.041468
6.050000,-1.747445
6.051000,-1.547610
6.052000,-1.093210
6.053000,-0.678267
6.054000,-0.441521
6.055000,-0.503890
6.056000,-0.795368
6.057000,-1.061389
6.058000,-1.018113
6.059000,-1.251041
6.060000,-1.168307
6.061000,-1.322319
6.062000,-1.100847
6.063000,-1.090664
6.064000,-1.405053
6.065000,-1.887456
6.066000,-2.167478
6.067000,-2.240030
6.068000,-2.565874
6.069000,-2.927358
6.070000,-3.118282
6.071000,-2.873899
6.072000,-2.346947
6.073000,-1.660892
6.074000,-1.345230
6.075000,-1.271406
6.076000,-1.100847
6.077000,-0.866646
6.078000,-0.790276
6.079000,-0.648992
6.080000,-0.604443
6.081000,-0.441521
6.082000,-0.511527
6.083000,-0.648992
6.084000,-1.119939
6.085000,-1.333775
6.086000,-1.202673
6.087000,-1.309591
6.088000,-1.604888
6.089000,-1.791994
6.090000,-1.991828
6.091000,-2.128021
6.092000,-2.298580
6.093000,-2.203118
6.094000,-1.860726
6.095000,-1.687622
6.096000,-1.692713
6.097000,-1.580704
6.098000,-1.319774
6.099000,-1.158124
6.100000,-1.033387
6.101000,-1.335048
6.102000,-1.751263
6.103000,-1.937096
6.104000,-1.626526
6.105000,-1.468695
6.106000,-1.211583
6.107000,-0.857736
6.108000,-1.140305
6.109000,-1.406326
6.110000,-1.398689
6.111000,-1.366868
6.112000,-1.653255
6.113000,-1.897638
6.114000,-1.601069
6.115000,-1.495424
6.116000,-1.169580
6.117000,-0.857736
6.118000,-0.937925
6.119000,-0.884466
6.120000,-0.987565
6.121000,-2.196754
6.122000,-2.741525
6.123000,-2.201845
6.124000,-1.547610
6.125000,-1.224311
6.126000,-0.943016
6.127000,-0.577714
6.128000,-0.696087
6.129000,-1.308318
6.130000,-1.569248
6.131000,-2.065652
6.132000,-1.980372
6.133000,-1.635435
6.134000,-1.405053
6.135000,-1.263769
6.136000,-1.440693
6.137000,-1.718169
6.138000,-2.092381
6.139000,-2.368586
6.140000,-2.492050
6.141000,-2.634607
6.142000,-2.147113
6.143000,-1.702895
6.144000,-1.737262
6.145000,-1.743626
6.146000,-1.607433
6.147000,-1.375778
6.148000,-0.977382
6.149000,-0.531892
6.150000,-0.501344
6.151000,-0.473342
6.152000,-0.465705
6.153000,-0.617172
6.154000,-0.904831
6.155000,-1.104665
6.156000,-0.885739
6.157000,-0.922651
6.158000,-1.077936
6.159000,-1.093210
6.160000,-1.657074
6.161000,-1.960007
6.162000,-2.182752
6.163000,-2.157296
6.164000,-2.218392
6.165000,-2.280760
6.166000,-2.163660
6.167000,-1.980372
6.168000,-1.956189
6.169000,-1.789448
6.170000,-1.659619
6.171000,-1.886183
6.172000,-2.003283
6.173000,-2.461502
6.174000,-2.643517
6.175000,-2.769527
6.176000,-2.110201
6.177000,-1.566703
6.178000,-1.350322
6.179000,-0.817006
6.180000,-0.366424
6.181000,-0.141133
6.182000,-0.237868
6.183000,-0.330785
6.184000,-0.887011
6.185000,-1.496697
6.186000,-1.468695
6.187000,-1.321046
6.188000,-1.077936
6.189000,-0.685904
6.190000,-0.620990
6.191000,-1.061389
6.192000,-1.669802
6.193000,-1.830178
6.194000,-1.980372
6.195000,-2.038923
6.196000,-2.145840
6.197000,-2.343129
6.198000,-2.245121
6.199000,-2.167478
6.200000,-2.243848
6.201000,-2.102564
6.202000,-1.926914
6.203000,-1.617616
6.204000,-1.398689
6.205000,-1.019386
6.206000,-0.982474
6.207000,-0.827188
6.208000,-0.594261
6.209000,-1.116121
6.210000,-1.407599
6.211000,-1.729625
6.212000,-1.914185
6.213000,-1.954916
6.214000,-1.481423
6.215000,-1.312137
6.216000,-1.123758
6.217000,-0.985019
6.218000,-0.962108
6.219000,-0.769911
6.220000,-0.535710
6.221000,-0.528073
6.222000,-0.866646
6.223000,-1.038478
6.224000,-1.149214
6.225000,-1.436874
6.226000,-1.872182
6.227000,-1.963826
6.228000,-2.184025
6.229000,-2.466593
6.230000,-2.447501
6.231000,-2.591331
6.232000,-2.354584
6.233000,-2.073289
6.234000,-1.728352
6.235000,-1.518335
6.236000,-1.178490
6.237000,-0.657902
6.238000,-0.328239
6.239000,-0.449158
6.240000,-0.813187
6.241000,-1.312137
6.242000,-1.524699
6.243000,-1.570521
6.244000,-1.710532
6.245000,-1.620162
6.246000,-1.438147
6.247000,-1.371960
6.248000,-1.738535
6.249000,-1.896366
6.250000,-2.219664
6.251000,-2.716068
6.252000,-2.578603
6.253000,-2.130566
6.254000,-1.858181
6.255000,-1.655801
6.256000,-1.817450
6.257000,-1.963826
6.258000,-2.415680
6.259000,-2.502233
6.260000,-2.523871
6.261000,-2.884082
6.262000,-3.174287
6.263000,-2.339310
6.264000,-1.604888
6.265000,-1.215402
6.266000,-1.259951
6.267000,-0.973564
6.268000,-0.542075
6.269000,-0.382971
6.270000,-0.452976
6.271000,-0.338422
6.272000,0.079067
6.273000,0.113433
6.274000,-0.025306
6.275000,-0.068582
6.276000,-0.207320
6.277000,-0.172954
6.278000,-0.558621
6.279000,-0.922651
6.280000,-1.061389
6.281000,-1.086846
6.282000,-1.299408
6.283000,-1.548883
6.284000,-1.710532
6.285000,-1.981645
6.286000,-2.121657
6.287000,-2.072016
6.288000,-2.047832
6.289000,-1.872182
6.290000,-2.294761
6.291000,-2.578603
6.292000,-2.460229
6.293000,-1.895093
6.294000,-1.531063
6.295000,-1.095756
6.296000,-1.060116
6.297000,-1.048661
6.298000,-0.954471
6.299000,-0.832280
6.300000,-0.946834
