LabVIEW Measurement,
Writer_Version,2
Reader_Version,2
Separator,Comma
Decimal_Separator,.
Multi_Headings,No
X_Columns,Multi
Time_Pref,Absolute
Operator,Dymnz
Date,2017/08/30
Time,13:09:15.3684180833531801604
***End_of_Header***,
,
Channels,1,
Samples,1000,
Date,2017/08/30,
Time,13:09:15.3684180833531801604,
Y_Unit_Label,Volts,
X_Dimension,Time,
X0,0.0000000000000000E+0,
Delta_X,0.001000,
***End_of_Header***,,
X_Value,Voltage,Comment
0.000000,-1.817450
0.001000,-2.220937
0.002000,-2.191662
0.003000,-1.951097
0.004000,-1.579431
0.005000,-1.867091
0.006000,-2.209482
0.007000,-2.246394
0.008000,-2.084744
0.009000,-1.855635
0.010000,-1.573067
0.011000,-2.401679
0.012000,-2.366040
0.013000,-1.763991
0.014000,-1.039751
0.015000,-0.144952
0.016000,0.510556
0.017000,0.504192
0.018000,0.196167
0.019000,-0.122041
0.020000,-0.556076
0.021000,-1.444511
0.022000,-2.205663
0.023000,-2.399133
0.024000,-2.266759
0.025000,-2.024921
0.026000,-1.587068
0.027000,-1.219220
0.028000,-0.787731
0.029000,-0.699905
0.030000,-0.435157
0.031000,0.057428
0.032000,-0.440248
0.033000,-0.736818
0.034000,-1.013022
0.035000,-1.368141
0.036000,-1.426691
0.037000,-1.467422
0.038000,-2.187844
0.039000,-2.595149
0.040000,-2.791165
0.041000,-2.819167
0.042000,-2.814076
0.043000,-2.516234
0.044000,-2.149659
0.045000,-1.832724
0.046000,-1.458512
0.047000,-1.116121
0.048000,-0.790276
0.049000,-0.831007
0.050000,-0.670630
0.051000,-0.475887
0.052000,-0.818279
0.053000,-1.327411
0.054000,-1.590886
0.055000,-1.926914
0.056000,-1.998192
0.057000,-2.059288
0.058000,-2.702067
0.059000,-3.089007
0.060000,-2.465321
0.061000,-1.961280
0.062000,-1.421600
0.063000,-1.331229
0.064000,-1.702895
0.065000,-1.366868
0.066000,-1.251041
0.067000,-0.870465
0.068000,-0.735545
0.069000,-0.780094
0.070000,-1.338866
0.071000,-1.704168
0.072000,-1.954916
0.073000,-2.536599
0.074000,-2.593876
0.075000,-2.027467
0.076000,-1.631617
0.077000,-1.374505
0.078000,-1.267588
0.079000,-1.285407
0.080000,-0.866646
0.081000,-0.833553
0.082000,-1.361777
0.083000,-1.774174
0.084000,-1.444511
0.085000,-0.508981
0.086000,-0.144952
0.087000,-0.092766
0.088000,-0.062218
0.089000,-0.097857
0.090000,-0.542075
0.091000,-1.057571
0.092000,-1.132668
0.093000,-1.382142
0.094000,-1.699077
0.095000,-1.909094
0.096000,-2.120384
0.097000,-2.479322
0.098000,-2.593876
0.099000,-2.509870
0.100000,-2.114020
0.101000,-1.791994
0.102000,-1.674893
0.103000,-1.514517
0.104000,-1.371960
0.105000,-1.193763
0.106000,-1.071572
0.107000,-1.298136
0.108000,-1.594705
0.109000,-1.724534
0.110000,-1.892547
0.111000,-1.892547
0.112000,-1.896366
0.113000,-1.990555
0.114000,-2.564601
0.115000,-3.467038
0.116000,-3.419943
0.117000,-3.500131
0.118000,-3.328299
0.119000,-2.721159
0.120000,-1.734716
0.121000,-0.881920
0.122000,-0.312965
0.123000,0.070157
0.124000,0.642930
0.125000,0.724391
0.126000,0.665841
0.127000,0.934408
0.128000,0.435459
0.129000,-0.304055
0.130000,-0.612080
0.131000,-0.842462
0.132000,-0.959563
0.133000,-1.183581
0.134000,-1.392325
0.135000,-1.506880
0.136000,-1.967644
0.137000,-2.345675
0.138000,-2.400406
0.139000,-2.442410
0.140000,-2.348220
0.141000,-2.219664
0.142000,-2.089836
0.143000,-1.876000
0.144000,-1.789448
0.145000,-1.928186
0.146000,-2.009648
0.147000,-2.462775
0.148000,-2.703340
0.149000,-2.794984
0.150000,-2.703340
0.151000,-2.808985
0.152000,-3.708876
0.153000,-3.594321
0.154000,-2.864989
0.155000,-2.534053
0.156000,-1.729625
0.157000,-0.898467
0.158000,-0.444067
0.159000,-0.062218
0.160000,0.035790
0.161000,0.216532
0.162000,0.392183
0.163000,0.774032
0.164000,0.751121
0.165000,0.185984
0.166000,-0.230231
0.167000,-0.604443
0.168000,-0.783912
0.169000,-0.950653
0.170000,-1.056298
0.171000,-1.289226
0.172000,-1.658346
0.173000,-1.601069
0.174000,-1.455966
0.175000,-1.310864
0.176000,-0.923924
0.177000,-1.187399
0.178000,-1.690167
0.179000,-2.027467
0.180000,-2.218392
0.181000,-2.632061
0.182000,-2.978271
0.183000,-2.892992
0.184000,-3.081370
0.185000,-3.237928
0.186000,-2.839533
0.187000,-2.073289
0.188000,-1.193763
0.189000,-0.694814
0.190000,-0.735545
0.191000,-0.463159
0.192000,-0.130950
0.193000,-0.236595
0.194000,-0.379152
0.195000,-0.791549
0.196000,-1.333775
0.197000,-2.106383
0.198000,-2.564601
0.199000,-2.457684
0.200000,-2.173843
0.201000,-1.774174
0.202000,-1.429237
0.203000,-1.033387
0.204000,-0.809369
0.205000,-1.298136
0.206000,-1.970190
0.207000,-2.331673
0.208000,-2.672792
0.209000,-2.667701
0.210000,-2.486959
0.211000,-2.030013
0.212000,-1.631617
0.213000,-1.346503
0.214000,-1.109757
0.215000,-0.995202
0.216000,-0.888284
0.217000,-0.567531
0.218000,-0.652811
0.219000,-0.447885
0.220000,-0.376607
0.221000,-0.943016
0.222000,-0.925196
0.223000,-0.687177
0.224000,-0.921378
0.225000,-1.100847
0.226000,-1.425419
0.227000,-1.593432
0.228000,-1.831451
0.229000,-1.658346
0.230000,-1.534882
0.231000,-1.739808
0.232000,-1.887456
0.233000,-1.653255
0.234000,-1.341412
0.235000,-1.356686
0.236000,-1.514517
0.237000,-1.631617
0.238000,-1.485242
0.239000,-1.620162
0.240000,-2.031286
0.241000,-2.101291
0.242000,-2.195481
0.243000,-2.262941
0.244000,-2.517507
0.245000,-2.773345
0.246000,-2.969361
0.247000,-3.913801
0.248000,-4.136546
0.249000,-3.657962
0.250000,-3.273568
0.251000,-2.518780
0.252000,-1.957461
0.253000,-0.716452
0.254000,-0.015123
0.255000,0.449460
0.256000,0.830036
0.257000,0.851674
0.258000,0.816035
0.259000,1.006960
0.260000,0.791851
0.261000,0.317086
0.262000,-0.418610
0.263000,-0.739363
0.264000,-0.595533
0.265000,-0.531892
0.266000,-0.646447
0.267000,-0.861555
0.268000,-1.350322
0.269000,-1.671075
0.270000,-1.898911
0.271000,-2.051651
0.272000,-2.340583
0.273000,-2.526416
0.274000,-2.094927
0.275000,-1.785629
0.276000,-1.645618
0.277000,-1.522154
0.278000,-1.777992
0.279000,-1.976554
0.280000,-1.943460
0.281000,-2.019830
0.282000,-1.953643
0.283000,-2.005829
0.284000,-1.853089
0.285000,-1.604888
0.286000,-1.738535
0.287000,-2.766981
0.288000,-4.169640
0.289000,-4.482756
0.290000,-3.953259
0.291000,-2.738979
0.292000,-1.606160
0.293000,-0.708815
0.294000,-0.178045
0.295000,0.101977
0.296000,0.243262
0.297000,0.760031
0.298000,1.491908
0.299000,0.996777
0.300000,0.010334
0.301000,-0.520436
0.302000,-1.027023
0.303000,-1.602342
0.304000,-1.934551
0.305000,-2.119111
0.306000,-2.182752
0.307000,-2.125475
0.308000,-1.995646
0.309000,-2.050378
0.310000,-2.304944
0.311000,-2.890446
0.312000,-2.685520
0.313000,-2.465321
0.314000,-2.060561
0.315000,-1.756354
0.316000,-1.682530
0.317000,-1.682530
0.318000,-1.219220
0.319000,-0.713907
0.320000,-0.707542
0.321000,-0.893376
0.322000,-1.443238
0.323000,-1.776720
0.324000,-1.706714
0.325000,-1.733443
0.326000,-1.924368
0.327000,-2.181480
0.328000,-2.124202
0.329000,-1.888729
0.330000,-1.636708
0.331000,-1.371960
0.332000,-1.067753
0.333000,-1.212856
0.334000,-1.349049
0.335000,-1.487787
0.336000,-1.173398
0.337000,-1.268860
0.338000,-1.748717
0.339000,-2.140749
0.340000,-2.560783
0.341000,-2.573511
0.342000,-1.747445
0.343000,-1.203946
0.344000,-0.419883
0.345000,0.163073
0.346000,0.346361
0.347000,0.276355
0.348000,-0.141133
0.349000,-0.762274
0.350000,-0.452976
0.351000,-0.562440
0.352000,-1.537428
0.353000,-2.044014
0.354000,-2.334219
0.355000,-2.388951
0.356000,-2.385132
0.357000,-2.478049
0.358000,-2.531508
0.359000,-2.377495
0.360000,-2.149659
0.361000,-1.817450
0.362000,-1.224311
0.363000,-0.931561
0.364000,-0.469523
0.365000,-0.068582
0.366000,0.131253
0.367000,-0.216230
0.368000,-0.867919
0.369000,-1.505607
0.370000,-2.000738
0.371000,-2.368586
0.372000,-2.710977
0.373000,-2.573511
0.374000,-2.415680
0.375000,-2.415680
0.376000,-2.201845
0.377000,-1.897638
0.378000,-1.691440
0.379000,-1.333775
0.380000,-0.712634
0.381000,-0.460613
0.382000,-0.396972
0.383000,-0.934106
0.384000,-0.866646
0.385000,-1.243404
0.386000,-1.688894
0.387000,-1.646891
0.388000,-1.646891
0.389000,-1.695259
0.390000,-1.170853
0.391000,-0.837371
0.392000,-1.076663
0.393000,-1.298136
0.394000,-1.411417
0.395000,-1.407599
0.396000,-1.557793
0.397000,-1.835270
0.398000,-2.033831
0.399000,-2.493323
0.400000,-3.288842
0.401000,-3.486130
0.402000,-3.719058
0.403000,-3.372848
0.404000,-2.708431
0.405000,-1.911640
0.406000,-1.039751
0.407000,-0.211139
0.408000,0.170710
0.409000,0.063793
0.410000,0.104523
0.411000,-0.221321
0.412000,-0.813187
0.413000,-0.869192
0.414000,-0.917559
0.415000,-1.198855
0.416000,-1.877273
0.417000,-2.758072
0.418000,-2.889173
0.419000,-2.568420
0.420000,-2.140749
0.421000,-1.991828
0.422000,-1.766537
0.423000,-1.548883
0.424000,-1.462331
0.425000,-1.420327
0.426000,-1.198855
0.427000,-1.000293
0.428000,-1.048661
0.429000,-0.771184
0.430000,-0.484797
0.431000,-0.950653
0.432000,-1.784357
0.433000,-2.478049
0.434000,-2.932449
0.435000,-2.744070
0.436000,-2.226029
0.437000,-1.677439
0.438000,-1.127576
0.439000,-0.748273
0.440000,-0.586624
0.441000,-0.502617
0.442000,-1.244677
0.443000,-1.100847
0.444000,-0.988838
0.445000,-0.979928
0.446000,-0.740636
0.447000,-1.226857
0.448000,-1.429237
0.449000,-1.417782
0.450000,-1.354140
0.451000,-1.490333
0.452000,-1.231948
0.453000,-1.066480
0.454000,-0.766093
0.455000,-0.991384
0.456000,-1.052479
0.457000,-1.235767
0.458000,-1.313410
0.459000,-1.336320
0.460000,-1.952370
0.461000,-2.408043
0.462000,-3.545953
0.463000,-4.069086
0.464000,-3.899800
0.465000,-3.379213
0.466000,-2.551873
0.467000,-1.651982
0.468000,-0.618444
0.469000,0.201258
0.470000,0.617474
0.471000,0.154163
0.472000,0.231806
0.473000,-0.036761
0.474000,-0.696087
0.475000,-0.767365
0.476000,-0.735545
0.477000,-0.822097
0.478000,-1.098301
0.479000,-1.511971
0.480000,-1.579431
0.481000,-1.501788
0.482000,-1.611252
0.483000,-1.551429
0.484000,-1.552702
0.485000,-1.587068
0.486000,-1.902730
0.487000,-2.217119
0.488000,-2.086017
0.489000,-1.763991
0.490000,-1.737262
0.491000,-1.999465
0.492000,-2.509870
0.493000,-2.955360
0.494000,-3.419943
0.495000,-4.028356
0.496000,-3.652871
0.497000,-2.643517
0.498000,-2.158569
0.499000,-1.872182
0.500000,-1.394871
0.501000,-0.660448
0.502000,-0.132223
0.503000,0.369272
0.504000,0.826218
0.505000,0.679842
0.506000,0.045973
0.507000,-0.441521
0.508000,-0.983747
0.509000,-1.060116
0.510000,-1.070299
0.511000,-0.964654
0.512000,-1.126303
0.513000,-1.266315
0.514000,-1.430510
0.515000,-1.677439
0.516000,-1.916731
0.517000,-2.077107
0.518000,-2.250212
0.519000,-2.508597
0.520000,-2.593876
0.521000,-2.518780
0.522000,-3.250657
0.523000,-4.178550
0.524000,-3.829794
0.525000,-3.078825
0.526000,-2.079653
0.527000,-0.979928
0.528000,-0.032943
0.529000,0.544922
0.530000,1.121514
0.531000,0.995504
0.532000,0.809671
0.533000,0.289083
0.534000,-0.167863
0.535000,-0.077492
0.536000,-0.580259
0.537000,-1.089391
0.538000,-1.492879
0.539000,-1.767810
0.540000,-1.860726
0.541000,-2.349493
0.542000,-2.444955
0.543000,-2.276942
0.544000,-2.091109
0.545000,-1.948552
0.546000,-1.706714
0.547000,-1.293044
0.548000,-1.317228
0.549000,-1.892547
0.550000,-2.274396
0.551000,-2.609150
0.552000,-3.258294
0.553000,-3.407215
0.554000,-3.131011
0.555000,-2.551873
0.556000,-2.008375
0.557000,-1.515789
0.558000,-1.280316
0.559000,-0.950653
0.560000,-0.822097
0.561000,-0.567531
0.562000,-0.234050
0.563000,-0.357514
0.564000,-0.963381
0.565000,-1.452148
0.566000,-2.107655
0.567000,-2.237484
0.568000,-1.986737
0.569000,-1.676166
0.570000,-1.276497
0.571000,-0.997748
0.572000,-0.832280
0.573000,-1.363050
0.574000,-1.494151
0.575000,-1.590886
0.576000,-1.925641
0.577000,-2.332946
0.578000,-2.226029
0.579000,-2.206936
0.580000,-2.101291
0.581000,-1.821269
0.582000,-1.253586
0.583000,-1.023204
0.584000,-0.973564
0.585000,-0.990111
0.586000,-0.716452
0.587000,-0.292600
0.588000,-0.152589
0.589000,-0.113131
0.590000,-0.603170
0.591000,-0.948107
0.592000,-1.030841
0.593000,-1.042297
0.594000,-1.119939
0.595000,-1.389779
0.596000,-1.380869
0.597000,-1.494151
0.598000,-1.687622
0.599000,-1.774174
0.600000,-1.772901
0.601000,-1.696531
0.602000,-1.676166
0.603000,-1.877273
0.604000,-2.293489
0.605000,-2.747889
0.606000,-3.203562
0.607000,-2.882809
0.608000,-2.394042
0.609000,-2.357130
0.610000,-2.343129
0.611000,-2.404225
0.612000,-2.485686
0.613000,-2.140749
0.614000,-2.144567
0.615000,-1.438147
0.616000,-0.969745
0.617000,-0.596806
0.618000,-0.027851
0.619000,0.579289
0.620000,0.869494
0.621000,1.094785
0.622000,0.350179
0.623000,-0.302782
0.624000,-0.787731
0.625000,-0.957017
0.626000,-1.056298
0.627000,-1.183581
0.628000,-1.738535
0.629000,-2.115292
0.630000,-2.257849
0.631000,-2.245121
0.632000,-2.120384
0.633000,-1.937096
0.634000,-1.929459
0.635000,-2.168751
0.636000,-1.951097
0.637000,-1.748717
0.638000,-1.952370
0.639000,-2.830623
0.640000,-2.675338
0.641000,-2.233666
0.642000,-1.904003
0.643000,-1.585795
0.644000,-1.519608
0.645000,-2.028740
0.646000,-2.199299
0.647000,-2.096200
0.648000,-1.599796
0.649000,-1.290499
0.650000,-1.042297
0.651000,-0.907377
0.652000,-1.270133
0.653000,-1.275225
0.654000,-1.071572
0.655000,-0.618444
0.656000,-0.592988
0.657000,-1.303227
0.658000,-1.711805
0.659000,-2.437318
0.660000,-3.515405
0.661000,-3.622323
0.662000,-3.208653
0.663000,-3.127192
0.664000,-2.507324
0.665000,-1.887456
0.666000,-1.728352
0.667000,-0.996475
0.668000,-0.199683
0.669000,0.866948
0.670000,1.586097
0.671000,0.936954
0.672000,0.760031
0.673000,0.701480
0.674000,0.436732
0.675000,-0.115676
0.676000,-0.486070
0.677000,-0.589169
0.678000,-0.855191
0.679000,-0.837371
0.680000,-0.822097
0.681000,-1.223039
0.682000,-1.608706
0.683000,-1.926914
0.684000,-2.199299
0.685000,-2.371131
0.686000,-2.545509
0.687000,-2.854807
0.688000,-3.062278
0.689000,-3.192107
0.690000,-3.066096
0.691000,-2.789892
0.692000,-2.507324
0.693000,-1.999465
0.694000,-1.441965
0.695000,-1.285407
0.696000,-0.789004
0.697000,-0.543347
0.698000,-0.661721
0.699000,-0.274780
0.700000,-0.803005
0.701000,-1.210310
0.702000,-1.286680
0.703000,-1.467422
0.704000,-1.604888
0.705000,-1.566703
0.706000,-1.552702
0.707000,-1.607433
0.708000,-1.613797
0.709000,-1.671075
0.710000,-1.869636
0.711000,-2.316400
0.712000,-2.489504
0.713000,-2.721159
0.714000,-3.024093
0.715000,-3.669418
0.716000,-3.665599
0.717000,-3.250657
0.718000,-2.803893
0.719000,-2.073289
0.720000,-1.646891
0.721000,-1.916731
0.722000,-1.621434
0.723000,-0.932833
0.724000,-0.080037
0.725000,0.211441
0.726000,0.458370
0.727000,-0.020214
0.728000,-0.613353
0.729000,-1.523426
0.730000,-1.853089
0.731000,-1.695259
0.732000,-1.225584
0.733000,-0.736818
0.734000,-1.053752
0.735000,-1.272679
0.736000,-1.394871
0.737000,-1.565430
0.738000,-1.701623
0.739000,-1.723261
0.740000,-1.391052
0.741000,-1.062662
0.742000,-1.053752
0.743000,-0.645174
0.744000,0.015425
0.745000,-0.265870
0.746000,-1.370687
0.747000,-1.756354
0.748000,-1.637981
0.749000,-1.784357
0.750000,-1.747445
0.751000,-1.472513
0.752000,-0.893376
0.753000,-0.646447
0.754000,-1.039751
0.755000,-1.543792
0.756000,-1.893820
0.757000,-1.702895
0.758000,-1.879819
0.759000,-2.033831
0.760000,-2.041468
0.761000,-1.719442
0.762000,-1.433056
0.763000,-1.374505
0.764000,-1.197582
0.765000,-0.972291
0.766000,-0.859009
0.767000,-0.990111
0.768000,-0.883193
0.769000,-1.127576
0.770000,-1.783084
0.771000,-2.233666
0.772000,-2.332946
0.773000,-2.344402
0.774000,-2.231120
0.775000,-2.047832
0.776000,-2.079653
0.777000,-2.196754
0.778000,-2.303671
0.779000,-2.268032
0.780000,-2.471685
0.781000,-2.311308
0.782000,-2.847170
0.783000,-2.695703
0.784000,-2.516234
0.785000,-2.252758
0.786000,-1.305773
0.787000,-1.333775
0.788000,-2.527689
0.789000,-2.578603
0.790000,-1.728352
0.791000,-0.697360
0.792000,0.308176
0.793000,0.879677
0.794000,1.056600
0.795000,1.214431
0.796000,0.814762
0.797000,0.604745
0.798000,0.259808
0.799000,-0.212412
0.800000,-0.637537
0.801000,-0.797913
0.802000,-1.153033
0.803000,-1.655801
0.804000,-1.929459
0.805000,-2.220937
0.806000,-2.371131
0.807000,-2.185298
0.808000,-2.157296
0.809000,-2.178934
0.810000,-2.102564
0.811000,-1.904003
0.812000,-2.058015
0.813000,-1.814905
0.814000,-1.541246
0.815000,-1.504334
0.816000,-1.649437
0.817000,-1.427964
0.818000,-1.145396
0.819000,-1.080482
0.820000,-1.132668
0.821000,-1.431783
0.822000,-1.739808
0.823000,-1.631617
0.824000,-1.499243
0.825000,-1.898911
0.826000,-2.296034
0.827000,-2.494596
0.828000,-2.854807
0.829000,-3.418670
0.830000,-3.246838
0.831000,-2.699521
0.832000,-1.957461
0.833000,-1.371960
0.834000,-0.794095
0.835000,-0.680813
0.836000,-0.906104
0.837000,-0.618444
0.838000,-0.377879
0.839000,-0.487343
0.840000,-0.865373
0.841000,-1.197582
0.842000,-1.284134
0.843000,-1.393598
0.844000,-1.448329
0.845000,-1.840361
0.846000,-2.021103
0.847000,-2.320218
0.848000,-2.646063
0.849000,-2.651154
0.850000,-2.530235
0.851000,-2.072016
0.852000,-1.921822
0.853000,-2.156023
0.854000,-2.382587
0.855000,-2.215846
0.856000,-1.868363
0.857000,-1.537428
0.858000,-0.888284
0.859000,-0.217503
0.860000,-0.207320
0.861000,-0.875556
0.862000,-1.136486
0.863000,-0.624808
0.864000,-0.601898
0.865000,-0.594261
0.866000,-0.068582
0.867000,0.121070
0.868000,-0.259506
0.869000,-0.580259
0.870000,-0.539529
0.871000,-0.595533
0.872000,-0.744455
0.873000,-1.098301
0.874000,-1.286680
0.875000,-1.412690
0.876000,-1.841634
0.877000,-1.780538
0.878000,-1.725806
0.879000,-1.709260
0.880000,-1.816177
0.881000,-1.906548
0.882000,-2.004556
0.883000,-2.802621
0.884000,-3.188288
0.885000,-3.255748
0.886000,-2.856079
0.887000,-2.581148
0.888000,-2.413135
0.889000,-2.094927
0.890000,-1.816177
0.891000,-1.555247
0.892000,-1.276497
0.893000,-0.885739
0.894000,-0.577714
0.895000,-0.670630
0.896000,-0.990111
0.897000,-1.153033
0.898000,-1.158124
0.899000,-1.107211
0.900000,-0.818279
0.901000,-0.687177
0.902000,-0.856464
0.903000,-1.025750
0.904000,-1.562884
0.905000,-1.611252
0.906000,-1.711805
0.907000,-1.933278
0.908000,-1.753809
0.909000,-1.932005
0.910000,-2.049105
0.911000,-2.041468
0.912000,-1.651982
0.913000,-1.721988
0.914000,-1.728352
0.915000,-2.226029
0.916000,-2.313854
0.917000,-2.647335
0.918000,-2.558237
0.919000,-2.044014
0.920000,-2.562056
0.921000,-2.997364
0.922000,-2.334219
0.923000,-1.303227
0.924000,-0.477160
0.925000,0.544922
0.926000,1.242433
0.927000,1.173700
0.928000,0.847856
0.929000,0.212714
0.930000,0.087976
0.931000,-0.295146
0.932000,-0.850099
0.933000,-1.210310
0.934000,-1.489060
0.935000,-1.842907
0.936000,-1.963826
0.937000,-3.017729
0.938000,-3.472129
0.939000,-3.450491
0.940000,-3.267204
0.941000,-2.838260
0.942000,-2.283306
0.943000,-1.700350
0.944000,-1.119939
0.945000,-0.738090
0.946000,-0.228958
0.947000,0.220351
0.948000,-0.007486
0.949000,-0.185682
0.950000,-0.410973
0.951000,-0.856464
0.952000,-1.086846
0.953000,-1.411417
0.954000,-1.741080
0.955000,-2.115292
0.956000,-2.256577
0.957000,-2.717341
0.958000,-3.346119
0.959000,-4.192551
0.960000,-3.969806
0.961000,-3.388122
0.962000,-2.624424
0.963000,-1.733443
0.964000,-1.025750
0.965000,-0.575168
0.966000,-0.335876
0.967000,-0.435157
0.968000,0.020516
0.969000,-0.071127
0.970000,-0.511527
0.971000,-0.704997
0.972000,-0.964654
0.973000,-1.234494
0.974000,-1.469968
0.975000,-1.578158
0.976000,-1.682530
0.977000,-1.685076
0.978000,-2.131839
0.979000,-2.577330
0.980000,-2.786074
0.981000,-2.624424
0.982000,-2.345675
0.983000,-2.432227
0.984000,-2.102564
0.985000,-2.192935
0.986000,-2.625697
0.987000,-2.303671
0.988000,-2.142022
0.989000,-2.144567
0.990000,-1.438147
0.991000,-0.776275
0.992000,-0.837371
0.993000,-1.034660
0.994000,-0.904831
0.995000,-0.146224
0.996000,-0.026578
0.997000,-0.498798
0.998000,-0.665539
0.999000,-0.540802
1.000000,-0.297691
1.001000,-0.220049
1.002000,-0.058399
1.003000,-0.780094
1.004000,-1.189945
1.005000,-1.588341
1.006000,-1.543792
1.007000,-1.141577
1.008000,-0.750819
1.009000,-0.822097
1.010000,-0.917559
1.011000,-1.102120
1.012000,-1.251041
1.013000,-1.398689
1.014000,-1.237040
1.015000,-1.873455
1.016000,-2.456411
1.017000,-2.890446
1.018000,-2.723705
1.019000,-2.220937
1.020000,-1.898911
1.021000,-1.856908
1.022000,-1.707987
1.023000,-1.898911
1.024000,-1.649437
1.025000,-1.014294
1.026000,-0.913741
1.027000,-1.062662
1.028000,-1.504334
1.029000,-2.074562
1.030000,-2.338038
1.031000,-2.498414
1.032000,-2.539145
1.033000,-2.084744
1.034000,-1.713078
1.035000,-1.683803
1.036000,-1.458512
1.037000,-1.266315
1.038000,-0.981201
1.039000,-0.604443
1.040000,-0.725362
1.041000,-0.958290
1.042000,-1.107211
1.043000,-1.070299
1.044000,-1.147942
1.045000,-1.256132
1.046000,-1.343957
1.047000,-1.734716
1.048000,-2.157296
1.049000,-2.247667
1.050000,-2.362221
1.051000,-2.704613
1.052000,-2.839533
1.053000,-3.384304
1.054000,-3.187015
1.055000,-2.619333
1.056000,-1.985464
1.057000,-1.814905
1.058000,-1.271406
1.059000,-0.929015
1.060000,-0.857736
1.061000,-0.894648
1.062000,-1.172125
1.063000,-1.209037
1.064000,-1.710532
1.065000,-1.710532
1.066000,-1.128849
1.067000,-0.379152
1.068000,0.030699
1.069000,-0.666812
1.070000,-0.787731
1.071000,-1.021931
1.072000,-1.172125
1.073000,-0.586624
1.074000,-0.493707
1.075000,-0.494980
1.076000,-0.374061
1.077000,-0.335876
1.078000,-0.468250
1.079000,-0.806823
1.080000,-1.135213
1.081000,-1.584522
1.082000,-2.030013
1.083000,-2.499687
1.084000,-2.657518
1.085000,-2.693157
1.086000,-2.690612
1.087000,-2.517507
1.088000,-2.264214
1.089000,-1.830178
1.090000,-1.201400
1.091000,-0.743182
1.092000,-0.414792
1.093000,-0.334603
1.094000,-0.520436
1.095000,-1.032114
1.096000,-1.522154
1.097000,-2.203118
1.098000,-2.345675
1.099000,-2.546782
1.100000,-2.750435
1.101000,-2.422044
1.102000,-2.007102
1.103000,-1.399962
1.104000,-1.145396
1.105000,-1.060116
1.106000,-0.727908
1.107000,-0.609535
1.108000,-0.789004
1.109000,-0.805550
1.110000,-0.715179
1.111000,-1.142850
1.112000,-1.529791
1.113000,-1.565430
1.114000,-1.634163
1.115000,-1.664711
1.116000,-1.664711
1.117000,-1.617616
1.118000,-1.561611
1.119000,-1.758900
1.120000,-1.933278
1.121000,-2.143295
1.122000,-2.336765
1.123000,-2.506051
1.124000,-2.803893
1.125000,-3.019002
1.126000,-3.299024
1.127000,-2.952815
1.128000,-2.378768
1.129000,-1.557793
1.130000,-0.615899
1.131000,-0.385516
1.132000,-0.976110
1.133000,-1.909094
1.134000,-1.958734
1.135000,-1.491606
1.136000,-0.777548
1.137000,-0.519164
1.138000,-1.188672
1.139000,-1.323592
1.140000,-1.402508
1.141000,-1.919277
1.142000,-1.472513
1.143000,-1.130122
1.144000,-0.654084
1.145000,-0.685904
1.146000,-0.562440
1.147000,-0.581532
1.148000,-0.660448
1.149000,-0.398245
1.150000,-0.193319
1.151000,-0.456795
1.152000,-0.918832
1.153000,-1.098301
1.154000,-1.155579
1.155000,-1.607433
1.156000,-1.686349
1.157000,-1.615070
1.158000,-2.022376
1.159000,-2.872626
1.160000,-3.619777
1.161000,-3.722877
1.162000,-3.426307
1.163000,-3.391941
1.164000,-3.080098
1.165000,-2.280760
1.166000,-1.267588
1.167000,-0.315511
1.168000,0.272537
1.169000,0.887314
1.170000,1.545367
1.171000,1.494453
1.172000,0.639112
1.173000,-0.175499
1.174000,-0.521709
1.175000,-1.371960
1.176000,-2.045287
1.177000,-2.360949
1.178000,-2.293489
1.179000,-2.158569
1.180000,-2.219664
1.181000,-2.121657
1.182000,-2.147113
1.183000,-2.058015
1.184000,-1.566703
1.185000,-1.011749
1.186000,-1.248495
1.187000,-1.970190
1.188000,-2.345675
1.189000,-2.500960
1.190000,-2.397861
1.191000,-1.858181
1.192000,-1.650709
1.193000,-1.447057
1.194000,-1.436874
1.195000,-1.573067
1.196000,-1.825087
1.197000,-1.462331
1.198000,-1.137759
1.199000,-1.151760
1.200000,-1.322319
1.201000,-1.975281
1.202000,-2.273123
1.203000,-2.224756
1.204000,-1.910367
1.205000,-1.564157
1.206000,-1.407599
1.207000,-1.725806
1.208000,-2.018557
1.209000,-2.066925
1.210000,-2.190389
1.211000,-2.352039
1.212000,-1.733443
1.213000,-1.153033
1.214000,-1.169580
1.215000,-1.937096
1.216000,-2.766981
1.217000,-3.566319
1.218000,-4.537488
1.219000,-4.382203
1.220000,-4.061449
1.221000,-2.190389
1.222000,-0.407155
1.223000,0.934408
1.224000,1.962855
1.225000,2.487261
1.226000,2.415982
1.227000,2.251787
1.228000,1.181337
1.229000,0.813489
1.230000,-0.106767
1.231000,-0.647719
1.232000,-0.666812
1.233000,-0.801732
1.234000,-0.766093
1.235000,-0.748273
1.236000,-1.164488
1.237000,-2.082199
1.238000,-2.424590
1.239000,-2.382587
1.240000,-2.278215
1.241000,-2.204390
1.242000,-2.018557
1.243000,-1.967644
1.244000,-1.957461
1.245000,-2.031286
1.246000,-2.206936
1.247000,-2.839533
1.248000,-3.334664
1.249000,-3.279932
1.250000,-3.232837
1.251000,-3.642688
1.252000,-3.456855
1.253000,-2.461502
1.254000,-1.671075
1.255000,-1.207765
1.256000,-0.743182
1.257000,0.146526
1.258000,1.064237
1.259000,0.627656
1.260000,-1.075390
1.261000,-1.833997
1.262000,-1.967644
1.263000,-2.088563
1.264000,-2.114020
1.265000,-1.864545
1.266000,-1.356686
1.267000,-1.090664
1.268000,-0.841190
1.269000,-0.468250
1.270000,-0.152589
1.271000,-0.647719
1.272000,-0.955744
1.273000,-0.936652
1.274000,-1.048661
1.275000,-1.127576
1.276000,-1.245950
1.277000,-1.534882
1.278000,-1.557793
1.279000,-1.669802
1.280000,-1.598523
1.281000,-1.525972
1.282000,-1.646891
1.283000,-1.617616
1.284000,-1.756354
1.285000,-1.915458
1.286000,-2.156023
1.287000,-2.999909
1.288000,-3.792882
1.289000,-3.785245
1.290000,-3.417397
1.291000,-2.894264
1.292000,-2.478049
1.293000,-2.013466
1.294000,-1.942188
1.295000,-1.962553
1.296000,-1.410145
1.297000,-0.564985
1.298000,-0.226413
1.299000,-0.002395
1.300000,0.114706
1.301000,-0.010032
1.302000,0.040882
1.303000,0.310722
1.304000,0.206349
1.305000,-0.293873
1.306000,-0.494980
1.307000,-0.853918
1.308000,-1.212856
1.309000,-1.534882
1.310000,-1.819996
1.311000,-2.117838
1.312000,-2.149659
1.313000,-2.248940
1.314000,-2.531508
1.315000,-2.681702
1.316000,-2.912084
1.317000,-2.903174
1.318000,-3.001182
1.319000,-3.265931
1.320000,-3.271022
1.321000,-3.399578
1.322000,-3.657962
1.323000,-3.400851
1.324000,-2.080926
1.325000,-0.598079
1.326000,0.159255
1.327000,0.341269
1.328000,0.460915
1.329000,0.488918
1.330000,1.279345
1.331000,1.322621
1.332000,0.998050
1.333000,0.152891
1.334000,-0.636264
1.335000,-1.200128
1.336000,-1.373233
1.337000,-1.408872
1.338000,-1.499243
1.339000,-1.677439
1.340000,-1.755082
1.341000,-1.681257
1.342000,-1.528518
1.343000,-2.208209
1.344000,-2.382587
1.345000,-1.797085
1.346000,-0.958290
1.347000,-0.702451
1.348000,-0.898467
1.349000,-1.214129
1.350000,-1.739808
1.351000,-2.130566
1.352000,-2.399133
1.353000,-2.807712
1.354000,-2.559510
1.355000,-2.203118
1.356000,-1.799631
1.357000,-1.443238
1.358000,-1.249768
1.359000,-1.556520
1.360000,-2.139476
1.361000,-2.556964
1.362000,-2.264214
1.363000,-2.353312
1.364000,-2.372404
1.365000,-2.045287
1.366000,-1.711805
1.367000,-1.341412
1.368000,-1.238313
1.369000,-1.043570
1.370000,-0.974837
1.371000,-0.815733
1.372000,-0.622263
1.373000,-0.484797
1.374000,-0.486070
1.375000,-0.655356
1.376000,-1.338866
1.377000,-1.685076
1.378000,-1.709260
1.379000,-2.078380
1.380000,-2.404225
1.381000,-2.420772
1.382000,-2.447501
1.383000,-2.070743
1.384000,-1.863272
1.385000,-1.938369
1.386000,-1.850544
1.387000,-1.375778
1.388000,-1.127576
1.389000,-1.891274
1.390000,-3.245565
1.391000,-3.097917
1.392000,-2.338038
1.393000,-1.737262
1.394000,-1.314682
1.395000,-0.198410
1.396000,0.343815
1.397000,0.376909
1.398000,0.016698
1.399000,-0.808096
1.400000,-1.327411
1.401000,-2.094927
1.402000,-2.527689
1.403000,-2.045287
1.404000,-0.949380
1.405000,-0.461886
1.406000,-0.475887
1.407000,-0.290054
1.408000,-0.273507
1.409000,0.173256
1.410000,0.025608
1.411000,-0.408427
1.412000,-0.993929
1.413000,-1.151760
1.414000,-1.289226
1.415000,-1.229403
1.416000,-1.159397
1.417000,-1.528518
1.418000,-1.818723
1.419000,-1.974008
1.420000,-2.106383
1.421000,-2.187844
1.422000,-2.447501
1.423000,-2.658791
1.424000,-2.578603
1.425000,-2.251485
1.426000,-1.867091
1.427000,-1.762718
1.428000,-1.896366
1.429000,-1.825087
1.430000,-1.895093
1.431000,-1.341412
1.432000,-1.385961
1.433000,-1.665983
1.434000,-1.739808
1.435000,-1.506880
1.436000,-1.399962
1.437000,-1.584522
1.438000,-1.623980
1.439000,-1.584522
1.440000,-1.454694
1.441000,-1.571794
1.442000,-1.615070
1.443000,-1.976554
1.444000,-2.031286
1.445000,-1.799631
1.446000,-1.851817
1.447000,-1.803449
1.448000,-1.531063
1.449000,-1.602342
1.450000,-2.045287
1.451000,-2.191662
1.452000,-1.989282
1.453000,-1.368141
1.454000,-1.800903
1.455000,-2.831896
1.456000,-2.909538
1.457000,-2.214573
1.458000,-1.597251
1.459000,-1.046115
1.460000,-0.016396
1.461000,-0.142406
1.462000,-1.062662
1.463000,-1.312137
1.464000,-1.473786
1.465000,-1.160670
1.466000,-0.838644
1.467000,-0.540802
1.468000,-0.104221
1.469000,0.309449
1.470000,0.515647
1.471000,-0.557348
1.472000,-1.468695
1.473000,-2.021103
1.474000,-2.138203
1.475000,-1.944733
1.476000,-1.660892
1.477000,-1.356686
1.478000,-1.900184
1.479000,-2.017284
1.480000,-1.681257
1.481000,-1.127576
1.482000,-1.146669
1.483000,-1.275225
1.484000,-0.979928
1.485000,-1.027023
1.486000,-1.196309
1.487000,-1.270133
1.488000,-1.527245
1.489000,-1.615070
1.490000,-1.230676
1.491000,-1.406326
1.492000,-1.853089
1.493000,-2.206936
1.494000,-2.385132
1.495000,-2.214573
1.496000,-2.187844
1.497000,-1.896366
1.498000,-1.546337
1.499000,-1.430510
1.500000,-1.466149
1.501000,-1.636708
1.502000,-1.321046
1.503000,-1.238313
1.504000,-1.332502
1.505000,-1.203946
1.506000,-1.328683
1.507000,-1.170853
1.508000,-1.037205
1.509000,-1.186127
1.510000,-1.279043
1.511000,-1.319774
1.512000,-1.595978
1.513000,-2.016012
1.514000,-2.072016
1.515000,-1.938369
1.516000,-1.847998
1.517000,-1.749990
1.518000,-1.630344
1.519000,-1.752536
1.520000,-1.949824
1.521000,-2.301126
1.522000,-2.093654
1.523000,-1.794539
1.524000,-1.599796
1.525000,-1.510698
1.526000,-2.105110
1.527000,-2.764436
1.528000,-3.285023
1.529000,-3.217563
1.530000,-1.861999
1.531000,-0.829734
1.532000,-0.340967
1.533000,0.227988
1.534000,0.720573
1.535000,0.430368
1.536000,0.241989
1.537000,-0.119495
1.538000,-0.479706
1.539000,-0.375334
1.540000,-0.493707
1.541000,-0.890830
1.542000,-1.219220
1.543000,-1.454694
1.544000,-1.426691
1.545000,-1.646891
1.546000,-1.935823
1.547000,-2.026194
1.548000,-1.825087
1.549000,-1.845452
1.550000,-1.925641
1.551000,-1.532336
1.552000,-1.518335
1.553000,-2.502233
1.554000,-3.095371
1.555000,-3.097917
1.556000,-3.324481
1.557000,-3.325754
1.558000,-2.915902
1.559000,-2.413135
1.560000,-2.400406
1.561000,-2.437318
1.562000,-1.714351
1.563000,-1.018113
1.564000,-0.419883
1.565000,0.301812
1.566000,0.362908
1.567000,-0.088947
1.568000,-0.223867
1.569000,-0.318056
1.570000,-0.427520
1.571000,-0.323148
1.572000,-0.587896
1.573000,-0.689723
1.574000,-0.606989
1.575000,-0.732999
1.576000,-1.070299
1.577000,-1.510698
1.578000,-2.018557
1.579000,-2.283306
1.580000,-2.811530
1.581000,-3.003728
1.582000,-2.914630
1.583000,-3.268476
1.584000,-3.050822
1.585000,-2.763163
1.586000,-2.171297
1.587000,-1.391052
1.588000,-0.954471
1.589000,-0.918832
1.590000,-0.918832
1.591000,-0.851372
1.592000,-0.883193
1.593000,-0.923924
1.594000,-0.915014
1.595000,-0.796641
1.596000,-0.850099
1.597000,-1.137759
1.598000,-1.347776
1.599000,-1.613797
1.600000,-1.979100
1.601000,-1.876000
1.602000,-1.886183
1.603000,-1.603615
1.604000,-1.336320
1.605000,-1.328683
1.606000,-1.270133
1.607000,-0.864101
1.608000,-0.688450
1.609000,-0.694814
1.610000,-0.996475
1.611000,-1.378324
1.612000,-1.886183
1.613000,-1.863272
1.614000,-1.932005
1.615000,-2.044014
1.616000,-2.218392
1.617000,-2.108928
1.618000,-2.413135
1.619000,-3.141193
1.620000,-3.534498
1.621000,-3.794155
1.622000,-3.253202
1.623000,-2.476776
1.624000,-1.388506
1.625000,-0.799186
1.626000,-0.650265
1.627000,-0.643901
1.628000,0.421458
1.629000,0.986594
1.630000,0.922953
1.631000,0.560196
1.632000,-0.046944
1.633000,-0.870465
1.634000,-1.700350
1.635000,-2.107655
1.636000,-1.914185
1.637000,-1.974008
1.638000,-2.369858
1.639000,-2.806439
1.640000,-2.612969
1.641000,-2.461502
1.642000,-1.890001
1.643000,-1.146669
1.644000,-0.629900
1.645000,-0.582805
1.646000,-0.730453
1.647000,-1.242131
1.648000,-1.304500
1.649000,-1.248495
1.650000,-1.532336
1.651000,-1.817450
1.652000,-1.080482
1.653000,-1.085573
1.654000,-1.845452
1.655000,-1.953643
1.656000,-1.496697
1.657000,-1.356686
1.658000,-1.433056
1.659000,-1.247222
1.660000,-1.086846
1.661000,-0.901013
1.662000,-0.761001
1.663000,-1.175944
1.664000,-1.839088
1.665000,-2.033831
1.666000,-1.994374
1.667000,-2.242575
1.668000,-2.150932
1.669000,-2.156023
1.670000,-2.278215
1.671000,-2.508597
1.672000,-2.360949
1.673000,-1.914185
1.674000,-1.641800
1.675000,-1.478877
1.676000,-1.710532
1.677000,-1.585795
1.678000,-1.300681
1.679000,-0.818279
1.680000,-0.371515
1.681000,-0.108040
1.682000,0.244534
1.683000,0.028153
1.684000,-0.553530
1.685000,-0.941743
1.686000,-1.244677
1.687000,-1.602342
1.688000,-1.611252
1.689000,-1.701623
1.690000,-2.322764
1.691000,-2.191662
1.692000,-1.989282
1.693000,-1.733443
1.694000,-1.503061
1.695000,-1.338866
1.696000,-1.262496
1.697000,-1.146669
1.698000,-1.220493
1.699000,-1.224311
1.700000,-1.601069
1.701000,-1.660892
1.702000,-1.559066
1.703000,-1.543792
1.704000,-1.800903
1.705000,-2.209482
1.706000,-2.368586
1.707000,-2.131839
1.708000,-2.260395
1.709000,-2.648608
1.710000,-3.520497
1.711000,-4.163276
1.712000,-3.948168
1.713000,-3.131011
1.714000,-2.605332
1.715000,-2.596422
1.716000,-2.237484
1.717000,-1.623980
1.718000,-1.284134
1.719000,-0.656629
1.720000,-0.213684
1.721000,0.107069
1.722000,-0.179318
1.723000,0.033245
1.724000,1.038780
1.725000,1.723563
1.726000,1.490635
1.727000,0.978957
1.728000,0.548741
1.729000,-0.099130
1.730000,-0.754637
1.731000,-1.126303
1.732000,-1.257405
1.733000,-1.739808
1.734000,-1.974008
1.735000,-2.086017
1.736000,-2.419499
1.737000,-2.679156
1.738000,-2.565874
1.739000,-2.364767
1.740000,-2.040195
1.741000,-2.010920
1.742000,-2.751707
1.743000,-2.656245
1.744000,-2.493323
1.745000,-2.153477
1.746000,-1.601069
1.747000,-1.280316
1.748000,-1.279043
1.749000,-1.592159
1.750000,-2.372404
1.751000,-1.981645
1.752000,-1.430510
1.753000,-0.860282
1.754000,-0.381698
1.755000,0.011607
1.756000,0.193621
1.757000,-0.260779
1.758000,-0.776275
1.759000,-0.978655
1.760000,-1.224311
1.761000,-1.336320
1.762000,-1.481423
1.763000,-1.707987
1.764000,-1.873455
1.765000,-1.975281
1.766000,-2.084744
1.767000,-2.133112
1.768000,-2.189117
1.769000,-2.558237
1.770000,-2.843351
1.771000,-2.885355
1.772000,-2.788619
1.773000,-3.025366
1.774000,-2.947723
1.775000,-2.591331
1.776000,-2.526416
1.777000,-2.223483
1.778000,-1.579431
1.779000,-0.954471
1.780000,-0.346059
1.781000,0.131253
1.782000,0.450733
1.783000,0.114706
1.784000,-0.232777
1.785000,-0.510254
1.786000,-1.052479
1.787000,-1.221766
1.788000,-0.876829
1.789000,-1.346503
1.790000,-1.755082
1.791000,-1.763991
1.792000,-1.578158
1.793000,-1.392325
1.794000,-1.266315
1.795000,-1.291771
1.796000,-1.296863
1.797000,-2.133112
1.798000,-2.607878
1.799000,-2.438591
1.800000,-2.198026
1.801000,-1.902730
1.802000,-1.388506
1.803000,-1.337593
1.804000,-1.024477
1.805000,-0.638810
1.806000,-0.562440
1.807000,-0.605716
1.808000,-0.932833
1.809000,-1.275225
1.810000,-1.481423
1.811000,-1.714351
1.812000,-1.879819
1.813000,-1.918004
1.814000,-1.937096
1.815000,-2.143295
1.816000,-2.241303
1.817000,-2.194208
1.818000,-1.767810
1.819000,-1.275225
1.820000,-0.796641
1.821000,-1.009203
1.822000,-1.219220
1.823000,-1.419054
1.824000,-2.397861
1.825000,-2.709704
1.826000,-2.352039
1.827000,-1.781811
1.828000,-1.198855
1.829000,-0.753364
1.830000,-0.324421
1.831000,-0.217503
1.832000,-0.307874
1.833000,-0.431338
1.834000,-1.015567
1.835000,-2.850988
1.836000,-3.535771
1.837000,-3.509041
1.838000,-3.323208
1.839000,-3.553590
1.840000,-3.628687
1.841000,-2.952815
1.842000,-2.049105
1.843000,-0.805550
1.844000,0.410002
1.845000,1.003141
1.846000,0.691298
1.847000,0.212714
1.848000,0.187257
1.849000,0.199985
1.850000,-0.099130
1.851000,-0.587896
1.852000,-1.021931
1.853000,-1.091937
1.854000,-1.077936
1.855000,-1.181035
1.856000,-1.464876
1.857000,-1.770355
1.858000,-2.003283
1.859000,-2.061834
1.860000,-1.891274
1.861000,-1.589614
1.862000,-1.453421
1.863000,-1.461058
1.864000,-1.336320
1.865000,-1.257405
1.866000,-1.338866
1.867000,-1.289226
1.868000,-1.427964
1.869000,-1.858181
1.870000,-2.167478
1.871000,-2.784801
1.872000,-2.856079
1.873000,-2.642244
1.874000,-2.494596
1.875000,-2.983362
1.876000,-2.600241
1.877000,-2.181480
1.878000,-1.398689
1.879000,-0.992656
1.880000,-1.151760
1.881000,-1.147942
1.882000,-0.822097
1.883000,-0.688450
1.884000,-0.669358
1.885000,-0.526801
1.886000,-0.572622
1.887000,-0.687177
1.888000,-0.488616
1.889000,-0.929015
1.890000,-1.083027
1.891000,-0.819551
1.892000,-0.492434
1.893000,-0.594261
1.894000,-1.069026
1.895000,-1.233221
1.896000,-1.821269
1.897000,-2.362221
1.898000,-2.954087
1.899000,-3.097917
1.900000,-3.321935
1.901000,-3.991444
1.902000,-4.077996
1.903000,-3.641416
1.904000,-2.590058
1.905000,-1.907821
1.906000,-2.027467
1.907000,-1.259951
1.908000,-0.356241
1.909000,0.110887
1.910000,0.432913
1.911000,0.235625
1.912000,0.039609
1.913000,-0.221321
1.914000,-0.777548
1.915000,-0.916287
1.916000,-0.794095
1.917000,-0.549712
1.918000,-0.634991
1.919000,-1.047388
1.920000,-1.635435
1.921000,-2.224756
1.922000,-3.170468
1.923000,-3.587957
1.924000,-3.753425
1.925000,-3.698693
1.926000,-3.231564
1.927000,-2.671519
1.928000,-2.047832
1.929000,-1.365596
1.930000,-0.968473
1.931000,-0.917559
1.932000,-0.977382
1.933000,-0.561167
1.934000,-0.124586
1.935000,-0.190773
1.936000,-0.139860
1.937000,-0.384244
1.938000,-1.258678
1.939000,-2.080926
1.940000,-2.396588
1.941000,-3.118282
1.942000,-2.229847
1.943000,-1.601069
1.944000,-0.965927
1.945000,-0.435157
1.946000,-0.175499
1.947000,0.020516
1.948000,0.304357
1.949000,0.145254
1.950000,-0.301510
1.951000,-0.836098
1.952000,-1.682530
1.953000,-2.157296
1.954000,-2.004556
1.955000,-1.898911
1.956000,-2.604059
1.957000,-2.539145
1.958000,-2.022376
1.959000,-1.570521
1.960000,-0.876829
1.961000,-0.423701
1.962000,-0.631173
1.963000,-1.188672
1.964000,-1.543792
1.965000,-1.716897
1.966000,-2.243848
1.967000,-2.329128
1.968000,-2.506051
1.969000,-2.536599
1.970000,-2.512415
1.971000,-2.425863
1.972000,-2.335492
1.973000,-1.769083
1.974000,-1.191218
1.975000,-1.365596
1.976000,-1.762718
1.977000,-1.872182
1.978000,-2.126748
1.979000,-2.101291
1.980000,-2.166206
1.981000,-2.532781
1.982000,-1.769083
1.983000,-1.009203
1.984000,-0.301510
1.985000,0.026880
1.986000,0.044700
1.987000,-0.053308
1.988000,-0.794095
1.989000,-1.248495
1.990000,-1.408872
1.991000,-1.461058
1.992000,-1.294317
1.993000,-1.011749
1.994000,-0.824643
1.995000,-0.782639
1.996000,-1.094483
1.997000,-1.463603
1.998000,-1.590886
1.999000,-2.045287
2.000000,-2.885355
2.001000,-2.975725
2.002000,-3.206108
2.003000,-3.157740
2.004000,-2.830623
2.005000,-2.549327
2.006000,-1.961280
2.007000,-1.215402
2.008000,-1.326138
2.009000,-0.764820
2.010000,0.235625
2.011000,0.533467
2.012000,0.132525
2.013000,-0.264598
2.014000,-0.260779
2.015000,-0.491161
2.016000,-0.758456
2.017000,-1.378324
2.018000,-1.539973
2.019000,-1.603615
2.020000,-1.599796
2.021000,-1.710532
2.022000,-1.748717
2.023000,-1.786902
2.024000,-1.898911
2.025000,-2.167478
2.026000,-1.809813
2.027000,-1.403780
2.028000,-1.492879
2.029000,-1.364323
2.030000,-1.347776
2.031000,-1.631617
2.032000,-1.976554
2.033000,-2.208209
2.034000,-2.298580
2.035000,-2.623152
2.036000,-3.306661
2.037000,-4.384748
2.038000,-4.364383
2.039000,-3.838704
2.040000,-2.924812
2.041000,-1.901457
2.042000,-1.419054
2.043000,-0.544620
2.044000,0.056156
2.045000,0.627656
2.046000,1.388809
2.047000,2.109230
2.048000,2.040498
2.049000,0.933135
2.050000,-0.353696
2.051000,-1.425419
2.052000,-1.995646
2.053000,-2.064379
2.054000,-1.704168
2.055000,-1.431783
2.056000,-1.448329
2.057000,-1.312137
2.058000,-1.360504
2.059000,-1.401235
2.060000,-1.368141
2.061000,-1.438147
2.062000,-1.574340
2.063000,-1.519608
2.064000,-1.393598
2.065000,-1.202673
2.066000,-1.149214
2.067000,-1.766537
2.068000,-2.385132
2.069000,-2.849715
2.070000,-2.923539
2.071000,-2.853534
2.072000,-2.590058
2.073000,-2.285852
2.074000,-2.219664
2.075000,-2.623152
2.076000,-2.503506
2.077000,-1.836543
2.078000,-1.594705
2.079000,-1.870909
2.080000,-2.262941
2.081000,-2.336765
2.082000,-1.761446
2.083000,-1.195036
2.084000,-0.651538
2.085000,-0.447885
2.086000,-0.548439
2.087000,-0.510254
2.088000,-0.312965
2.089000,-0.388062
2.090000,-0.612080
2.091000,-1.051207
2.092000,-1.104665
2.093000,-1.203946
2.094000,-1.304500
2.095000,-1.420327
2.096000,-1.392325
2.097000,-1.900184
2.098000,-2.710977
2.099000,-2.923539
2.100000,-2.835714
2.101000,-2.618060
2.102000,-2.826804
2.103000,-2.392769
2.104000,-1.767810
2.105000,-1.163216
2.106000,-0.697360
2.107000,0.156709
2.108000,1.054054
2.109000,0.782941
2.110000,0.418912
2.111000,-0.265870
2.112000,-0.873010
2.113000,-1.321046
2.114000,-1.472513
2.115000,-1.430510
2.116000,-1.170853
2.117000,-1.111030
2.118000,-1.352867
2.119000,-1.335048
2.120000,-1.234494
2.121000,-1.225584
2.122000,-1.172125
2.123000,-1.454694
2.124000,-1.617616
2.125000,-1.958734
2.126000,-3.338482
2.127000,-4.090725
2.128000,-4.159457
2.129000,-4.489120
2.130000,-4.389840
2.131000,-3.565046
2.132000,-2.582421
2.133000,-1.892547
2.134000,-1.687622
2.135000,-1.355413
2.136000,-0.620990
2.137000,-0.440248
2.138000,0.378182
2.139000,0.514374
2.140000,0.571652
2.141000,0.458370
2.142000,-0.307874
2.143000,-0.301510
2.144000,-0.307874
2.145000,-0.492434
2.146000,-0.949380
2.147000,-1.119939
2.148000,-0.982474
2.149000,-1.293044
2.150000,-2.325309
2.151000,-2.927358
2.152000,-2.982090
2.153000,-2.752980
2.154000,-2.532781
2.155000,-2.241303
2.156000,-1.988009
2.157000,-1.672348
2.158000,-1.640527
2.159000,-1.441965
2.160000,-1.249768
2.161000,-1.338866
2.162000,-1.270133
2.163000,-1.429237
2.164000,-1.618889
2.165000,-1.994374
2.166000,-2.564601
2.167000,-2.919721
2.168000,-2.912084
2.169000,-2.290943
2.170000,-2.568420
2.171000,-1.886183
2.172000,-1.249768
2.173000,-0.477160
2.174000,0.245807
2.175000,0.622565
2.176000,0.972593
2.177000,0.650567
2.178000,-0.489889
2.179000,-0.747000
2.180000,-0.990111
2.181000,-2.243848
2.182000,-3.286296
2.183000,-3.031730
2.184000,-2.271850
2.185000,-1.623980
2.186000,-1.083027
2.187000,-0.451704
2.188000,-0.142406
2.189000,-0.292600
2.190000,-0.949380
2.191000,-2.010920
2.192000,-2.780982
2.193000,-2.728796
2.194000,-2.192935
2.195000,-2.237484
2.196000,-2.789892
2.197000,-2.950269
2.198000,-2.719887
2.199000,-2.521325
2.200000,-1.612525
2.201000,-0.648992
2.202000,-0.016396
2.203000,-0.040580
2.204000,-0.116949
2.205000,0.047246
2.206000,0.252171
2.207000,-0.286236
2.208000,-0.726635
2.209000,-1.053752
2.210000,-1.373233
2.211000,-1.531063
2.212000,-1.650709
2.213000,-1.644345
2.214000,-1.639254
2.215000,-1.786902
2.216000,-1.923095
2.217000,-2.027467
2.218000,-1.954916
2.219000,-1.445784
2.220000,-1.405053
2.221000,-1.378324
2.222000,-1.210310
2.223000,-1.207765
2.224000,-1.332502
2.225000,-1.441965
2.226000,-1.480150
2.227000,-1.543792
2.228000,-1.625253
2.229000,-2.220937
2.230000,-2.436046
2.231000,-2.471685
2.232000,-2.414407
2.233000,-2.208209
2.234000,-2.353312
2.235000,-2.275669
2.236000,-2.432227
2.237000,-2.492050
2.238000,-1.835270
2.239000,-1.721988
2.240000,-1.487787
2.241000,-1.391052
2.242000,-0.923924
2.243000,-0.794095
2.244000,-0.976110
2.245000,-2.545509
2.246000,-2.723705
2.247000,-2.344402
2.248000,-2.238757
2.249000,-1.884910
2.250000,-1.249768
2.251000,-0.478433
2.252000,-0.353696
2.253000,-1.122485
2.254000,-1.229403
2.255000,-0.990111
2.256000,-1.275225
2.257000,-1.349049
2.258000,-0.953199
2.259000,-0.647719
2.260000,-0.674449
2.261000,-0.808096
2.262000,-1.018113
2.263000,-0.811914
2.264000,-0.748273
2.265000,-1.207765
2.266000,-1.192491
2.267000,-1.109757
2.268000,-1.123758
2.269000,-1.111030
2.270000,-1.051207
2.271000,-1.192491
2.272000,-0.894648
2.273000,-1.079209
2.274000,-1.998192
2.275000,-2.626970
2.276000,-2.794984
2.277000,-2.815349
2.278000,-2.593876
2.279000,-2.162387
2.280000,-1.520881
2.281000,-0.976110
2.282000,-1.123758
2.283000,-0.999020
2.284000,-0.862828
2.285000,-0.794095
2.286000,-0.722816
2.287000,-0.767365
2.288000,-0.811914
2.289000,-1.090664
2.290000,-1.350322
2.291000,-1.506880
2.292000,-1.271406
2.293000,-1.136486
2.294000,-1.396143
2.295000,-1.590886
2.296000,-1.714351
2.297000,-1.863272
2.298000,-2.054197
2.299000,-2.173843
2.300000,-2.161114
2.301000,-2.448774
2.302000,-2.895537
2.303000,-3.585411
2.304000,-3.454310
2.305000,-2.838260
2.306000,-2.059288
2.307000,-1.351594
2.308000,-1.192491
2.309000,-1.116121
2.310000,-0.508981
2.311000,0.392183
2.312000,0.045973
2.313000,-0.678267
2.314000,-0.976110
2.315000,-1.357959
2.316000,-1.939642
2.317000,-3.272295
2.318000,-4.289286
2.319000,-3.913801
2.320000,-3.478493
2.321000,-2.536599
2.322000,-1.604888
2.323000,-0.744455
2.324000,-0.293873
2.325000,0.005242
2.326000,-0.544620
2.327000,-0.763547
2.328000,-0.894648
2.329000,-0.564985
2.330000,-0.454249
2.331000,-0.101675
2.332000,0.011607
2.333000,-0.087674
2.334000,-0.343513
2.335000,-0.409700
2.336000,-0.669358
2.337000,-0.825916
2.338000,-0.909922
2.339000,-1.988009
2.340000,-2.722432
2.341000,-2.807712
2.342000,-3.104281
2.343000,-3.220109
2.344000,-3.146285
2.345000,-2.698249
2.346000,-2.065652
2.347000,-1.570521
2.348000,-0.925196
2.349000,-0.190773
2.350000,0.394728
2.351000,0.175802
2.352000,-0.022760
2.353000,-0.332058
2.354000,-0.694814
2.355000,-1.063935
2.356000,-1.254859
2.357000,-1.238313
2.358000,-1.424146
2.359000,-1.481423
2.360000,-1.461058
2.361000,-1.545065
2.362000,-1.702895
2.363000,-1.686349
2.364000,-1.501788
2.365000,-1.566703
2.366000,-1.967644
2.367000,-1.766537
2.368000,-1.823814
2.369000,-2.021103
2.370000,-2.131839
2.371000,-2.058015
2.372000,-1.952370
2.373000,-1.890001
2.374000,-1.794539
2.375000,-1.663438
2.376000,-1.881092
2.377000,-2.653699
2.378000,-2.731342
2.379000,-2.615515
2.380000,-2.674065
2.381000,-2.751707
2.382000,-2.451320
2.383000,-2.074562
2.384000,-2.138203
2.385000,-1.851817
2.386000,-1.350322
2.387000,-1.030841
2.388000,-0.773730
2.389000,-0.488616
2.390000,-0.217503
2.391000,-0.050762
2.392000,-0.468250
2.393000,-0.755910
2.394000,-1.310864
2.395000,-2.318945
2.396000,-2.495869
2.397000,-2.556964
2.398000,-2.455138
2.399000,-2.610423
2.400000,-2.969361
2.401000,-3.068642
2.402000,-2.685520
2.403000,-2.102564
2.404000,-1.383415
2.405000,-0.436430
2.406000,-0.183136
2.407000,-0.287509
2.408000,-0.255688
2.409000,0.133798
2.410000,0.496555
2.411000,0.412548
2.412000,0.285265
2.413000,-0.024033
2.414000,-0.540802
2.415000,-1.016840
2.416000,-1.164488
2.417000,-1.097028
2.418000,-1.303227
2.419000,-1.347776
2.420000,-1.230676
2.421000,-1.482696
2.422000,-1.503061
2.423000,-1.529791
2.424000,-1.583249
2.425000,-1.830178
2.426000,-1.785629
2.427000,-1.545065
2.428000,-2.154750
2.429000,-2.857352
2.430000,-3.015183
2.431000,-2.982090
2.432000,-2.550600
2.433000,-2.135658
2.434000,-2.204390
2.435000,-1.763991
2.436000,-1.195036
2.437000,-0.360060
2.438000,0.177074
2.439000,0.219078
2.440000,-0.344786
2.441000,-0.801732
2.442000,-1.305773
2.443000,-2.425863
2.444000,-3.328299
2.445000,-3.503950
2.446000,-3.029184
2.447000,-2.405498
2.448000,-1.910367
2.449000,-2.061834
2.450000,-2.112747
2.451000,-1.699077
2.452000,-1.318501
2.453000,-1.248495
2.454000,-1.000293
2.455000,-0.557348
2.456000,-0.638810
2.457000,-0.805550
2.458000,-1.094483
2.459000,-1.114848
2.460000,-1.046115
2.461000,-1.004112
2.462000,-1.398689
2.463000,-1.338866
2.464000,-1.011749
2.465000,-0.845008
2.466000,-0.991384
2.467000,-0.967200
2.468000,-1.095756
2.469000,-1.496697
2.470000,-1.556520
2.471000,-1.660892
2.472000,-1.616343
2.473000,-1.575612
2.474000,-1.532336
2.475000,-1.575612
2.476000,-1.585795
2.477000,-1.662165
2.478000,-1.719442
2.479000,-1.784357
2.480000,-1.688894
2.481000,-1.463603
2.482000,-1.503061
2.483000,-1.546337
2.484000,-1.702895
2.485000,-1.606160
2.486000,-1.383415
2.487000,-1.441965
2.488000,-1.583249
2.489000,-1.478877
2.490000,-1.369414
2.491000,-1.355413
2.492000,-1.343957
2.493000,-1.415236
2.494000,-1.560339
2.495000,-1.287953
2.496000,-0.786458
2.497000,-0.920105
2.498000,-1.343957
2.499000,-1.622707
2.500000,-2.464048
2.501000,-4.024537
2.502000,-4.956249
2.503000,-4.764052
2.504000,-4.105998
2.505000,-3.248111
2.506000,-2.374950
2.507000,-2.208209
2.508000,-1.746172
2.509000,-1.317228
2.510000,-1.015567
2.511000,0.332360
2.512000,0.415094
2.513000,0.524557
2.514000,0.555105
2.515000,0.315813
2.516000,0.129980
2.517000,0.101977
2.518000,-0.404609
2.519000,-0.874283
2.520000,-0.698633
2.521000,-0.440248
2.522000,-0.888284
2.523000,-1.592159
2.524000,-1.537428
2.525000,-1.282862
2.526000,-1.039751
2.527000,-1.268860
2.528000,-1.303227
2.529000,-1.318501
2.530000,-2.149659
2.531000,-3.131011
2.532000,-3.629960
2.533000,-3.431399
2.534000,-2.759344
2.535000,-2.191662
2.536000,-1.870909
2.537000,-1.290499
2.538000,-0.576441
2.539000,-0.076219
2.540000,0.136344
2.541000,0.338724
2.542000,0.079067
2.543000,-0.292600
2.544000,-0.769911
2.545000,-1.076663
2.546000,-1.318501
2.547000,-1.472513
2.548000,-1.606160
2.549000,-1.669802
2.550000,-1.720715
2.551000,-1.669802
2.552000,-1.583249
2.553000,-1.729625
2.554000,-1.957461
2.555000,-2.553146
2.556000,-2.919721
2.557000,-2.969361
2.558000,-3.153922
2.559000,-3.080098
2.560000,-3.048277
2.561000,-2.848442
2.562000,-2.274396
2.563000,-1.557793
2.564000,-0.656629
2.565000,-0.320602
2.566000,-0.417337
2.567000,-1.072845
2.568000,-1.718169
2.569000,-2.413135
2.570000,-2.386405
2.571000,-2.579875
2.572000,-3.601958
2.573000,-3.058459
2.574000,-2.072016
2.575000,-0.973564
2.576000,-0.169135
2.577000,0.751121
2.578000,0.995504
2.579000,0.513102
2.580000,-0.296418
2.581000,-0.623536
2.582000,-0.612080
2.583000,-1.103393
2.584000,-1.574340
2.585000,-1.906548
2.586000,-1.958734
2.587000,-1.867091
2.588000,-2.280760
2.589000,-2.884082
2.590000,-3.094099
2.591000,-2.466593
2.592000,-1.934551
2.593000,-0.876829
2.594000,-0.506435
2.595000,-1.151760
2.596000,-1.611252
2.597000,-1.589614
2.598000,-0.690996
2.599000,-0.232777
2.600000,-0.559894
2.601000,-0.702451
2.602000,-0.976110
2.603000,-1.158124
2.604000,-1.188672
2.605000,-1.211583
2.606000,-0.997748
2.607000,-0.690996
2.608000,-0.957017
2.609000,-0.993929
2.610000,-1.099574
2.611000,-1.415236
2.612000,-1.765264
2.613000,-1.892547
2.614000,-2.156023
2.615000,-2.975725
2.616000,-3.320662
2.617000,-2.534053
2.618000,-1.881092
2.619000,-1.667256
2.620000,-1.387234
2.621000,-1.013022
2.622000,-1.000293
2.623000,-1.163216
2.624000,-1.116121
2.625000,-1.324865
2.626000,-2.518780
2.627000,-3.563773
2.628000,-3.823430
2.629000,-2.830623
2.630000,-1.630344
2.631000,-0.955744
2.632000,-0.687177
2.633000,-0.494980
2.634000,-0.643901
2.635000,-0.371515
2.636000,-0.195865
2.637000,-0.549712
2.638000,-0.632445
2.639000,-0.665539
2.640000,-0.581532
2.641000,-0.932833
2.642000,-1.332502
2.643000,-2.406770
2.644000,-3.487403
2.645000,-3.879435
2.646000,-4.027083
2.647000,-3.999081
2.648000,-3.307934
2.649000,-2.471685
2.650000,-1.676166
2.651000,-0.671903
2.652000,0.087976
2.653000,1.103695
2.654000,0.981503
2.655000,-0.038034
2.656000,-0.176772
2.657000,-0.458068
2.658000,-1.015567
2.659000,-1.243404
2.660000,-1.254859
2.661000,-1.524699
2.662000,-1.683803
2.663000,-1.686349
2.664000,-1.536155
2.665000,-1.248495
2.666000,-0.782639
2.667000,-0.987565
2.668000,-1.687622
2.669000,-1.949824
2.670000,-2.056742
2.671000,-2.142022
2.672000,-1.863272
2.673000,-1.552702
2.674000,-1.391052
2.675000,-1.079209
2.676000,-0.743182
2.677000,-0.632445
2.678000,-0.469523
2.679000,-0.678267
2.680000,-1.044842
2.681000,-1.501788
2.682000,-1.839088
2.683000,-2.027467
2.684000,-2.124202
2.685000,-2.721159
2.686000,-3.347392
2.687000,-4.254920
2.688000,-4.377111
2.689000,-4.037266
2.690000,-3.035548
2.691000,-1.822541
2.692000,-0.486070
2.693000,-0.069855
2.694000,0.151618
2.695000,0.914043
2.696000,0.962411
2.697000,-0.036761
2.698000,-0.792822
2.699000,-1.063935
2.700000,-1.163216
2.701000,-1.466149
2.702000,-2.004556
2.703000,-2.237484
2.704000,-2.992272
2.705000,-3.245565
2.706000,-2.691884
2.707000,-2.010920
2.708000,-1.503061
2.709000,-1.147942
2.710000,-0.445339
2.711000,-0.427520
2.712000,-1.626526
2.713000,-3.425034
2.714000,-4.545125
2.715000,-4.635496
2.716000,-4.148002
2.717000,-3.123374
2.718000,-1.738535
2.719000,-0.221321
2.720000,0.779123
2.721000,1.241160
2.722000,1.785932
2.723000,2.228876
2.724000,1.071874
2.725000,-0.119495
2.726000,-0.002395
2.727000,-0.099130
2.728000,-0.738090
2.729000,-1.416509
2.730000,-2.052924
2.731000,-2.783528
2.732000,-2.876445
2.733000,-2.695703
2.734000,-2.237484
2.735000,-1.786902
2.736000,-1.426691
2.737000,-1.317228
2.738000,-1.331229
2.739000,-1.136486
2.740000,-0.871737
2.741000,-0.637537
2.742000,-0.823370
2.743000,-1.318501
2.744000,-1.690167
2.745000,-1.651982
2.746000,-2.061834
2.747000,-2.229847
2.748000,-2.016012
2.749000,-1.974008
2.750000,-1.993101
2.751000,-1.937096
2.752000,-1.697804
2.753000,-1.804722
2.754000,-1.842907
2.755000,-1.804722
2.756000,-1.904003
2.757000,-1.887456
2.758000,-1.407599
2.759000,-1.062662
2.760000,-1.136486
2.761000,-1.072845
2.762000,-1.593432
2.763000,-2.200572
2.764000,-2.210755
2.765000,-2.288397
2.766000,-2.115292
2.767000,-2.033831
2.768000,-1.715624
2.769000,-1.490333
2.770000,-1.650709
2.771000,-2.606605
2.772000,-3.006273
2.773000,-3.808156
2.774000,-3.689783
2.775000,-3.347392
2.776000,-2.910811
2.777000,-1.952370
2.778000,-0.894648
2.779000,0.044700
2.780000,1.150789
2.781000,1.592461
2.782000,1.132970
2.783000,1.448632
2.784000,2.059590
2.785000,1.620464
2.786000,0.387091
2.787000,-0.776275
2.788000,-1.685076
2.789000,-2.318945
2.790000,-2.324037
2.791000,-2.399133
2.792000,-2.512415
2.793000,-2.357130
2.794000,-2.077107
2.795000,-1.860726
2.796000,-2.108928
2.797000,-2.719887
2.798000,-2.568420
2.799000,-2.612969
2.800000,-2.502233
2.801000,-1.630344
2.802000,-1.235767
2.803000,-1.313410
2.804000,-1.594705
2.805000,-1.676166
2.806000,-1.585795
2.807000,-1.145396
2.808000,-0.511527
2.809000,-0.399518
2.810000,-0.477160
2.811000,-0.529346
2.812000,-0.377879
2.813000,-0.283690
2.814000,-0.472069
2.815000,-0.592988
2.816000,-0.787731
2.817000,-1.310864
2.818000,-1.548883
2.819000,-1.496697
2.820000,-1.867091
2.821000,-2.446228
2.822000,-3.213745
2.823000,-3.483585
2.824000,-3.320662
2.825000,-2.950269
2.826000,-3.075006
2.827000,-2.620606
2.828000,-2.046560
2.829000,-1.677439
2.830000,-1.209037
2.831000,-0.501344
2.832000,-0.484797
2.833000,-0.763547
2.834000,-0.785185
2.835000,-0.732999
2.836000,-0.909922
2.837000,-0.771184
2.838000,-0.791549
2.839000,-1.113575
2.840000,-1.256132
2.841000,-1.371960
2.842000,-1.522154
2.843000,-1.590886
2.844000,-1.671075
2.845000,-1.696531
2.846000,-1.743626
2.847000,-1.804722
2.848000,-1.789448
2.849000,-1.821269
2.850000,-1.951097
2.851000,-2.168751
2.852000,-2.346947
2.853000,-2.430954
2.854000,-2.502233
2.855000,-2.666428
2.856000,-2.324037
2.857000,-1.967644
2.858000,-1.587068
2.859000,-1.047388
2.860000,-0.567531
2.861000,-0.531892
2.862000,-0.846281
2.863000,-0.902285
2.864000,-0.898467
2.865000,-1.066480
2.866000,-1.117394
2.867000,-1.043570
2.868000,-1.224311
2.869000,-1.603615
2.870000,-2.112747
2.871000,-2.144567
2.872000,-1.994374
2.873000,-1.686349
2.874000,-1.733443
2.875000,-1.915458
2.876000,-2.063106
2.877000,-1.735989
2.878000,-1.343957
2.879000,-0.951926
2.880000,-0.512799
2.881000,-1.133940
2.882000,-1.971463
2.883000,-2.620606
2.884000,-2.135658
2.885000,-1.435601
2.886000,-0.951926
2.887000,-1.161943
2.888000,-2.344402
2.889000,-2.611696
2.890000,-2.159841
2.891000,-1.707987
2.892000,-1.014294
2.893000,-0.814460
2.894000,-0.624808
2.895000,-0.475887
2.896000,-0.530619
2.897000,0.142708
2.898000,-0.598079
2.899000,-1.202673
2.900000,-1.548883
2.901000,-1.481423
2.902000,-1.356686
2.903000,-1.009203
2.904000,-0.923924
2.905000,-0.971018
2.906000,-1.137759
2.907000,-1.238313
2.908000,-1.280316
2.909000,-1.776720
2.910000,-2.366040
2.911000,-2.350766
2.912000,-2.479322
2.913000,-2.555692
2.914000,-2.089836
2.915000,-1.439420
2.916000,-0.585351
2.917000,0.028153
2.918000,-0.178045
2.919000,0.315813
2.920000,0.154163
2.921000,0.169437
2.922000,-0.054581
2.923000,-0.763547
2.924000,-1.402508
2.925000,-1.733443
2.926000,-1.993101
2.927000,-2.018557
2.928000,-2.114020
2.929000,-2.117838
2.930000,-2.038923
2.931000,-2.027467
2.932000,-1.907821
2.933000,-1.879819
2.934000,-2.051651
2.935000,-2.227301
2.936000,-2.380041
2.937000,-2.484413
2.938000,-2.737706
2.939000,-3.305388
2.940000,-3.375394
2.941000,-3.586684
2.942000,-4.431843
2.943000,-4.457300
2.944000,-3.674509
2.945000,-2.839533
2.946000,-1.988009
2.947000,-0.743182
2.948000,0.558923
2.949000,1.113877
2.950000,1.160972
2.951000,1.437176
2.952000,1.257707
2.953000,-0.167863
2.954000,-0.949380
2.955000,-1.747445
2.956000,-3.012638
2.957000,-3.435217
2.958000,-3.381758
2.959000,-2.712250
2.960000,-2.052924
2.961000,-1.846725
2.962000,-1.244677
2.963000,-0.953199
2.964000,-0.948107
2.965000,-0.259506
2.966000,0.627656
2.967000,1.064237
2.968000,0.436732
2.969000,-0.021487
2.970000,-0.264598
2.971000,-0.390608
2.972000,-0.669358
2.973000,-1.139032
2.974000,-1.583249
2.975000,-1.765264
2.976000,-1.616343
2.977000,-2.208209
2.978000,-2.867535
2.979000,-3.166650
2.980000,-3.015183
2.981000,-2.722432
2.982000,-2.301126
2.983000,-1.679985
2.984000,-1.489060
2.985000,-2.087290
2.986000,-1.839088
2.987000,-1.083027
2.988000,-1.357959
2.989000,-1.695259
2.990000,-1.897638
2.991000,-1.627799
2.992000,-1.167034
2.993000,-0.747000
2.994000,-0.206047
2.995000,-0.158953
2.996000,-0.053308
2.997000,0.071430
2.998000,-0.323148
2.999000,-1.280316
3.000000,-1.882365
3.001000,-1.948552
3.002000,-1.865818
3.003000,-1.855635
3.004000,-1.827633
3.005000,-1.569248
3.006000,-1.589614
3.007000,-1.667256
3.008000,-2.028740
3.009000,-2.322764
3.010000,-2.213300
3.011000,-2.082199
3.012000,-2.135658
3.013000,-1.867091
3.014000,-1.508152
3.015000,-1.509425
3.016000,-1.651982
3.017000,-1.629071
3.018000,-1.734716
3.019000,-2.037650
3.020000,-2.852261
3.021000,-3.075006
3.022000,-2.815349
3.023000,-3.047004
3.024000,-2.788619
3.025000,-2.614242
3.026000,-2.307490
3.027000,-1.449602
3.028000,-0.741909
3.029000,-0.562440
3.030000,-0.689723
3.031000,-0.758456
3.032000,-0.557348
3.033000,-0.524255
3.034000,-0.964654
3.035000,-1.284134
3.036000,-1.858181
3.037000,-1.956189
3.038000,-1.700350
3.039000,-0.908650
3.040000,-0.598079
3.041000,-0.647719
3.042000,-0.885739
3.043000,-0.567531
3.044000,-0.059672
3.045000,0.142708
3.046000,-0.134769
3.047000,-0.410973
3.048000,-0.489889
3.049000,-0.967200
3.050000,-1.678712
3.051000,-1.993101
3.052000,-2.212027
3.053000,-2.352039
3.054000,-2.420772
3.055000,-2.359676
3.056000,-2.098746
3.057000,-1.809813
3.058000,-1.791994
3.059000,-1.431783
3.060000,-0.958290
3.061000,-0.682086
3.062000,-0.962108
3.063000,-1.226857
3.064000,-1.489060
3.065000,-1.513244
3.066000,-1.318501
3.067000,-1.230676
3.068000,-1.435601
3.069000,-1.449602
3.070000,-1.402508
3.071000,-1.397416
3.072000,-1.555247
3.073000,-1.644345
3.074000,-1.882365
3.075000,-2.209482
3.076000,-2.332946
3.077000,-2.601513
3.078000,-3.669418
3.079000,-3.598139
3.080000,-2.892992
3.081000,-1.886183
3.082000,-0.958290
3.083000,-0.390608
3.084000,-0.036761
3.085000,0.081612
3.086000,-0.557348
3.087000,-1.063935
3.088000,-1.539973
3.089000,-2.046560
3.090000,-1.994374
3.091000,-2.167478
3.092000,-2.511143
3.093000,-2.307490
3.094000,-1.749990
3.095000,-1.303227
3.096000,-0.867919
3.097000,-0.918832
3.098000,-1.580704
3.099000,-2.478049
3.100000,-2.416953
3.101000,-1.877273
3.102000,-0.851372
3.103000,-0.328239
3.104000,-0.293873
3.105000,-0.221321
3.106000,-0.352423
3.107000,-0.491161
3.108000,-0.264598
3.109000,-0.412246
3.110000,-0.987565
3.111000,-1.906548
3.112000,-2.376223
3.113000,-2.387678
3.114000,-2.329128
3.115000,-2.120384
3.116000,-1.749990
3.117000,-1.677439
3.118000,-1.822541
3.119000,-1.631617
3.120000,-1.448329
3.121000,-1.483969
3.122000,-1.537428
3.123000,-1.587068
3.124000,-1.529791
3.125000,-1.478877
3.126000,-1.571794
3.127000,-2.044014
3.128000,-2.588785
3.129000,-2.982090
3.130000,-2.607878
3.131000,-2.176388
3.132000,-1.314682
3.133000,-0.608262
3.134000,-0.113131
3.135000,0.530921
3.136000,0.949682
3.137000,0.572925
3.138000,-0.879374
3.139000,-2.159841
3.140000,-2.787347
3.141000,-2.680429
3.142000,-2.237484
3.143000,-1.755082
3.144000,-1.541246
3.145000,-1.254859
3.146000,-1.215402
3.147000,-1.259951
3.148000,-1.734716
3.149000,-2.041468
3.150000,-2.153477
3.151000,-1.590886
3.152000,-1.066480
3.153000,-0.584078
3.154000,-0.269689
3.155000,-0.550984
3.156000,-0.841190
3.157000,-0.850099
3.158000,-0.959563
3.159000,-1.314682
3.160000,-1.481423
3.161000,-1.422873
3.162000,-1.291771
3.163000,-1.457239
3.164000,-1.497970
3.165000,-1.704168
3.166000,-1.924368
3.167000,-1.729625
3.168000,-1.713078
3.169000,-1.937096
3.170000,-2.325309
3.171000,-2.733888
3.172000,-3.398305
3.173000,-3.223927
3.174000,-3.071188
3.175000,-2.792438
3.176000,-2.131839
3.177000,-1.468695
3.178000,-0.732999
3.179000,-0.857736
3.180000,-1.071572
3.181000,-1.421600
3.182000,-1.755082
3.183000,-1.621434
3.184000,-1.405053
3.185000,-1.153033
3.186000,-1.023204
3.187000,-0.536983
3.188000,-0.039307
3.189000,-0.080037
3.190000,-0.517891
3.191000,-0.572622
3.192000,-0.986292
3.193000,-1.671075
3.194000,-1.933278
3.195000,-2.367313
3.196000,-2.927358
3.197000,-3.871798
3.198000,-3.591775
3.199000,-2.969361
3.200000,-2.344402
3.201000,-1.522154
3.202000,-0.599352
3.203000,-0.144952
3.204000,0.093068
3.205000,0.226715
3.206000,0.023062
3.207000,0.065065
3.208000,-0.992656
3.209000,-2.208209
3.210000,-3.204835
3.211000,-3.015183
3.212000,-2.261668
3.213000,-1.182308
3.214000,-0.432611
3.215000,0.043427
3.216000,0.191076
3.217000,-0.216230
3.218000,-0.286236
3.219000,0.066338
3.220000,-0.385516
3.221000,-1.071572
3.222000,-1.650709
3.223000,-2.156023
3.224000,-2.362221
3.225000,-2.420772
3.226000,-2.528962
3.227000,-2.535326
3.228000,-2.732615
3.229000,-3.013910
3.230000,-2.945178
3.231000,-2.430954
3.232000,-2.176388
3.233000,-1.840361
3.234000,-1.436874
3.235000,-1.244677
3.236000,-1.534882
3.237000,-2.383860
3.238000,-2.591331
3.239000,-2.233666
3.240000,-1.279043
3.241000,-0.704997
3.242000,-0.614626
3.243000,-0.351150
3.244000,-0.178045
3.245000,-0.298964
3.246000,-0.202229
3.247000,-0.234050
3.248000,-0.692268
3.249000,-0.934106
3.250000,-1.093210
3.251000,-1.625253
3.252000,-1.884910
3.253000,-1.830178
3.254000,-1.522154
3.255000,-1.351594
3.256000,-1.629071
3.257000,-1.825087
3.258000,-1.902730
3.259000,-1.943460
3.260000,-2.024921
3.261000,-1.711805
3.262000,-1.537428
3.263000,-1.503061
3.264000,-1.426691
3.265000,-1.312137
3.266000,-1.184854
3.267000,-1.753809
3.268000,-2.476776
3.269000,-2.592604
3.270000,-2.143295
3.271000,-1.547610
3.272000,-1.051207
3.273000,-0.768638
3.274000,-0.631173
3.275000,-1.529791
3.276000,-2.087290
3.277000,-2.209482
3.278000,-2.294761
3.279000,-2.289670
3.280000,-1.860726
3.281000,-1.266315
3.282000,-1.028296
3.283000,-1.042297
3.284000,-0.932833
3.285000,-0.906104
3.286000,-1.153033
3.287000,-1.393598
3.288000,-1.486514
3.289000,-1.598523
3.290000,-1.809813
3.291000,-2.570966
3.292000,-2.789892
3.293000,-3.115737
3.294000,-2.929904
3.295000,-2.185298
3.296000,-1.509425
3.297000,-0.907377
3.298000,-0.232777
3.299000,0.364180
3.300000,0.432913
3.301000,-0.071127
3.302000,-0.032943
3.303000,-0.157680
3.304000,-0.567531
3.305000,-1.048661
3.306000,-1.501788
3.307000,-1.617616
3.308000,-1.685076
3.309000,-1.752536
3.310000,-2.326582
3.311000,-2.397861
3.312000,-2.149659
3.313000,-2.378768
3.314000,-2.218392
3.315000,-2.056742
3.316000,-1.870909
3.317000,-1.816177
3.318000,-1.621434
3.319000,-1.219220
3.320000,-1.043570
3.321000,-0.674449
3.322000,0.196167
3.323000,0.370545
3.324000,-0.347332
3.325000,-0.601898
3.326000,-0.895921
3.327000,-1.574340
3.328000,-1.934551
3.329000,-1.979100
3.330000,-2.231120
3.331000,-2.718614
3.332000,-3.328299
3.333000,-3.203562
3.334000,-2.672792
3.335000,-1.946006
3.336000,-1.318501
3.337000,-0.791549
3.338000,-0.703724
3.339000,-0.897194
3.340000,-1.552702
3.341000,-1.704168
3.342000,-1.706714
3.343000,-1.705441
3.344000,-1.804722
3.345000,-1.863272
3.346000,-1.863272
3.347000,-1.817450
3.348000,-1.693986
3.349000,-1.735989
3.350000,-1.651982
3.351000,-1.441965
3.352000,-1.020659
3.353000,-0.573895
3.354000,-0.745727
3.355000,-1.704168
3.356000,-2.012193
3.357000,-2.030013
3.358000,-1.570521
3.359000,-0.617172
3.360000,-0.150043
3.361000,-0.430065
3.362000,-0.780094
3.363000,-1.448329
3.364000,-2.256577
3.365000,-2.819167
3.366000,-2.583694
3.367000,-2.238757
3.368000,-1.854362
3.369000,-1.679985
3.370000,-1.660892
3.371000,-1.723261
3.372000,-1.475059
3.373000,-0.768638
3.374000,-0.329512
3.375000,-0.702451
3.376000,-1.804722
3.377000,-2.051651
3.378000,-1.609979
3.379000,-1.071572
3.380000,-0.646447
3.381000,-0.399518
3.382000,-0.684631
3.383000,-1.172125
3.384000,-1.541246
3.385000,-1.403780
3.386000,-1.947279
3.387000,-2.544236
3.388000,-3.002455
3.389000,-2.830623
3.390000,-2.504778
3.391000,-2.114020
3.392000,-1.797085
3.393000,-1.433056
3.394000,-1.084300
3.395000,-0.693541
3.396000,-0.689723
3.397000,-0.959563
3.398000,-1.149214
3.399000,-1.476332
3.400000,-1.971463
3.401000,-1.777992
3.402000,-1.242131
3.403000,-1.051207
3.404000,-1.128849
3.405000,-0.923924
3.406000,-0.814460
3.407000,-0.922651
3.408000,-1.070299
3.409000,-1.186127
3.410000,-1.401235
3.411000,-1.744899
3.412000,-1.761446
3.413000,-1.710532
3.414000,-1.417782
3.415000,-1.673620
3.416000,-2.072016
3.417000,-2.245121
3.418000,-2.068198
3.419000,-2.168751
3.420000,-2.345675
3.421000,-1.990555
3.422000,-1.511971
3.423000,-1.111030
3.424000,-0.633718
3.425000,-0.456795
3.426000,-0.906104
3.427000,-1.028296
3.428000,-1.219220
3.429000,-1.812359
3.430000,-2.173843
3.431000,-2.032558
3.432000,-1.539973
3.433000,-1.058844
3.434000,-0.622263
3.435000,-0.211139
3.436000,0.325996
3.437000,-0.053308
3.438000,-0.444067
3.439000,-1.004112
3.440000,-1.454694
3.441000,-1.609979
3.442000,-1.729625
3.443000,-1.946006
3.444000,-2.306217
3.445000,-2.751707
3.446000,-2.984635
3.447000,-3.526861
3.448000,-4.006718
3.449000,-3.418670
3.450000,-2.598968
3.451000,-1.808540
3.452000,-1.327411
3.453000,-0.916287
3.454000,-0.118222
3.455000,-0.077492
3.456000,-0.436430
3.457000,-0.501344
3.458000,-1.310864
3.459000,-2.546782
3.460000,-2.884082
3.461000,-2.601513
3.462000,-1.948552
3.463000,-1.576885
3.464000,-1.359231
3.465000,-0.847554
3.466000,-0.869192
3.467000,-1.329956
3.468000,-1.280316
3.469000,-1.435601
3.470000,-1.286680
3.471000,-1.371960
3.472000,-1.377051
3.473000,-1.296863
3.474000,-1.370687
3.475000,-1.248495
3.476000,-1.175944
3.477000,-0.869192
3.478000,-0.968473
3.479000,-1.300681
3.480000,-1.287953
3.481000,-0.992656
3.482000,-0.901013
3.483000,-1.636708
3.484000,-1.965098
3.485000,-1.958734
3.486000,-1.788175
3.487000,-1.378324
3.488000,-0.870465
3.489000,-0.603170
3.490000,-0.470796
3.491000,-0.437702
3.492000,-0.595533
3.493000,-0.828461
3.494000,-1.123758
3.495000,-1.513244
3.496000,-1.864545
3.497000,-2.752980
3.498000,-3.327027
3.499000,-3.307934
3.500000,-2.987181
3.501000,-2.457684
3.502000,-1.965098
3.503000,-1.513244
3.504000,-1.221766
3.505000,-1.178490
3.506000,-0.684631
3.507000,-0.478433
3.508000,-1.060116
3.509000,-1.483969
3.510000,-2.100018
3.511000,-2.430954
3.512000,-2.199299
3.513000,-1.469968
3.514000,-1.039751
3.515000,-1.104665
3.516000,-1.329956
3.517000,-1.365596
3.518000,-2.058015
3.519000,-4.258738
3.520000,-5.078441
3.521000,-4.837876
3.522000,-3.866706
3.523000,-2.824259
3.524000,-1.664711
3.525000,-0.409700
3.526000,0.532194
3.527000,0.631475
3.528000,1.428266
3.529000,2.218694
3.530000,1.987039
3.531000,0.970047
3.532000,-0.413519
3.533000,-1.365596
3.534000,-1.839088
3.535000,-2.046560
3.536000,-2.046560
3.537000,-2.050378
3.538000,-1.799631
3.539000,-1.532336
3.540000,-1.211583
3.541000,-0.648992
3.542000,-0.430065
3.543000,-0.354969
3.544000,-0.237868
3.545000,-0.424974
3.546000,-1.127576
3.547000,-1.746172
3.548000,-2.187844
3.549000,-2.289670
3.550000,-2.181480
3.551000,-1.963826
3.552000,-1.780538
3.553000,-1.581977
3.554000,-1.373233
3.555000,-1.159397
3.556000,-1.024477
3.557000,-0.995202
3.558000,-1.270133
3.559000,-1.651982
3.560000,-2.022376
3.561000,-2.299853
3.562000,-2.427136
3.563000,-2.437318
3.564000,-2.436046
3.565000,-2.147113
3.566000,-2.051651
3.567000,-2.252758
3.568000,-2.180207
3.569000,-2.073289
3.570000,-2.004556
3.571000,-2.064379
3.572000,-2.205663
3.573000,-2.374950
3.574000,-2.352039
3.575000,-2.457684
3.576000,-2.562056
3.577000,-2.693157
3.578000,-2.120384
3.579000,-1.774174
3.580000,-2.058015
3.581000,-2.148386
3.582000,-1.811086
3.583000,-1.299408
3.584000,-1.187399
3.585000,-1.021931
3.586000,-0.775002
3.587000,-0.407155
3.588000,-0.170408
3.589000,-0.194592
3.590000,0.035790
3.591000,-0.287509
3.592000,-0.781367
3.593000,-1.370687
3.594000,-1.738535
3.595000,-1.623980
3.596000,-0.856464
3.597000,-0.780094
3.598000,-0.726635
3.599000,-0.834825
3.600000,-0.842462
3.601000,-0.703724
3.602000,-0.652811
3.603000,-0.809369
3.604000,-0.805550
3.605000,-1.237040
3.606000,-2.346947
3.607000,-3.161559
3.608000,-3.549772
3.609000,-3.226473
3.610000,-2.833169
3.611000,-2.885355
3.612000,-2.464048
3.613000,-2.640971
3.614000,-2.052924
3.615000,-1.430510
3.616000,-0.428793
3.617000,0.934408
3.618000,1.480452
3.619000,1.028598
3.620000,0.333632
3.621000,-0.389335
3.622000,-0.596806
3.623000,-0.957017
3.624000,-1.298136
3.625000,-1.279043
3.626000,-1.962553
3.627000,-2.514961
3.628000,-2.637153
3.629000,-2.493323
3.630000,-2.111474
3.631000,-1.674893
3.632000,-1.345230
3.633000,-1.181035
3.634000,-1.220493
3.635000,-1.136486
3.636000,-1.234494
3.637000,-1.984191
3.638000,-1.850544
3.639000,-1.804722
3.640000,-1.725806
3.641000,-1.552702
3.642000,-1.584522
3.643000,-1.766537
3.644000,-1.743626
3.645000,-2.110201
3.646000,-2.542963
3.647000,-2.357130
3.648000,-1.984191
3.649000,-1.369414
3.650000,-0.824643
3.651000,-0.615899
3.652000,-0.566258
3.653000,-0.767365
3.654000,-0.846281
3.655000,-1.388506
3.656000,-1.688894
3.657000,-2.485686
3.658000,-3.347392
3.659000,-3.479766
3.660000,-3.169196
3.661000,-2.980817
3.662000,-2.653699
3.663000,-1.911640
3.664000,-1.464876
3.665000,-1.271406
3.666000,-1.098301
3.667000,-0.636264
3.668000,0.084158
3.669000,0.261081
3.670000,0.219078
3.671000,0.267445
3.672000,-0.170408
3.673000,-0.417337
3.674000,-0.931561
3.675000,-1.244677
3.676000,-1.543792
3.677000,-2.098746
3.678000,-2.736433
3.679000,-3.641416
3.680000,-4.018173
3.681000,-4.107271
3.682000,-3.549772
3.683000,-2.518780
3.684000,-1.574340
3.685000,-1.137759
3.686000,-0.399518
3.687000,0.109614
3.688000,0.383273
3.689000,0.133798
3.690000,-0.344786
3.691000,-0.428793
3.692000,-0.615899
3.693000,-0.731726
3.694000,-0.995202
3.695000,-1.193763
3.696000,-1.122485
3.697000,-1.265042
3.698000,-1.692713
3.699000,-1.804722
3.700000,-1.832724
3.701000,-1.920549
3.702000,-2.352039
3.703000,-2.311308
3.704000,-2.044014
3.705000,-1.855635
3.706000,-2.023649
3.707000,-2.229847
3.708000,-2.044014
3.709000,-1.849271
3.710000,-1.721988
3.711000,-1.511971
3.712000,-1.075390
3.713000,-0.864101
3.714000,-0.340967
3.715000,0.095613
3.716000,0.166892
3.717000,-0.455522
3.718000,-1.125031
3.719000,-1.483969
3.720000,-2.097473
3.721000,-2.534053
3.722000,-2.643517
3.723000,-2.689339
3.724000,-2.318945
3.725000,-1.790721
3.726000,-1.431783
3.727000,-0.894648
3.728000,-0.698633
3.729000,-0.828461
3.730000,-0.988838
3.731000,-1.266315
3.732000,-1.476332
3.733000,-1.693986
3.734000,-1.721988
3.735000,-2.065652
3.736000,-2.458956
3.737000,-2.301126
3.738000,-2.098746
3.739000,-1.723261
3.740000,-1.346503
3.741000,-0.897194
3.742000,-0.941743
3.743000,-1.256132
3.744000,-1.116121
3.745000,-0.598079
3.746000,-0.805550
3.747000,-2.097473
3.748000,-2.275669
3.749000,-2.206936
3.750000,-2.100018
3.751000,-1.431783
3.752000,-0.776275
3.753000,-0.534438
3.754000,-0.575168
3.755000,-0.894648
3.756000,-0.951926
3.757000,-1.163216
3.758000,-2.159841
3.759000,-3.454310
3.760000,-4.492939
3.761000,-4.556580
3.762000,-3.943076
3.763000,-2.980817
3.764000,-2.381314
3.765000,-1.802176
3.766000,-1.063935
3.767000,-0.151316
3.768000,0.276355
3.769000,0.560196
3.770000,0.394728
3.771000,0.154163
3.772000,-0.258233
3.773000,-0.329512
3.774000,-0.459341
3.775000,-1.234494
3.776000,-2.237484
3.777000,-2.558237
3.778000,-1.850544
3.779000,-1.369414
3.780000,-1.560339
3.781000,-1.130122
3.782000,-0.638810
3.783000,-0.162771
3.784000,-0.169135
3.785000,-0.403336
3.786000,-0.650265
3.787000,-1.139032
3.788000,-1.818723
3.789000,-2.590058
3.790000,-3.133556
3.791000,-2.922267
3.792000,-2.461502
3.793000,-2.041468
3.794000,-1.620162
3.795000,-1.443238
3.796000,-1.515789
3.797000,-1.705441
3.798000,-1.663438
3.799000,-1.200128
3.800000,-1.270133
3.801000,-1.621434
3.802000,-1.844180
3.803000,-1.833997
3.804000,-2.026194
3.805000,-1.940915
3.806000,-1.783084
3.807000,-1.797085
3.808000,-1.587068
3.809000,-1.286680
3.810000,-0.820824
3.811000,-0.549712
3.812000,-0.199683
3.813000,-0.418610
3.814000,-1.214129
3.815000,-1.203946
3.816000,-1.191218
3.817000,-1.337593
3.818000,-1.396143
3.819000,-1.398689
3.820000,-1.188672
3.821000,-1.284134
3.822000,-2.298580
3.823000,-2.884082
3.824000,-3.291387
3.825000,-3.411033
3.826000,-3.013910
3.827000,-2.392769
3.828000,-1.888729
3.829000,-2.542963
3.830000,-2.816622
3.831000,-2.381314
3.832000,-1.440693
3.833000,-0.851372
3.834000,-0.358787
3.835000,0.229260
3.836000,0.068884
3.837000,-0.343513
3.838000,-0.535710
3.839000,-0.600625
3.840000,-0.734272
3.841000,-0.500071
3.842000,-0.316784
3.843000,-0.460613
3.844000,-0.549712
3.845000,-0.440248
3.846000,-0.721544
3.847000,-0.950653
3.848000,-1.153033
3.849000,-1.627799
3.850000,-1.784357
3.851000,-1.879819
3.852000,-1.966371
3.853000,-2.047832
3.854000,-2.444955
3.855000,-2.427136
3.856000,-2.624424
3.857000,-3.141193
3.858000,-3.197198
3.859000,-2.821713
3.860000,-2.348220
3.861000,-1.850544
3.862000,-2.313854
3.863000,-3.091553
3.864000,-3.273568
3.865000,-3.120828
3.866000,-2.642244
3.867000,-2.679156
3.868000,-1.743626
3.869000,-0.889557
3.870000,-0.400790
3.871000,0.388364
3.872000,1.550458
3.873000,1.835572
3.874000,1.143152
3.875000,0.524557
3.876000,-0.094038
3.877000,-0.269689
3.878000,-0.613353
3.879000,-0.857736
3.880000,-1.308318
3.881000,-1.738535
3.882000,-2.268032
3.883000,-2.812803
3.884000,-3.002455
3.885000,-2.906993
3.886000,-2.562056
3.887000,-2.091109
3.888000,-1.583249
3.889000,-1.326138
3.890000,-1.319774
3.891000,-1.340139
3.892000,-1.412690
3.893000,-1.364323
3.894000,-1.399962
3.895000,-1.589614
3.896000,-1.643072
3.897000,-1.557793
3.898000,-1.340139
3.899000,-1.615070
3.900000,-2.018557
3.901000,-2.147113
3.902000,-2.097473
3.903000,-1.520881
3.904000,-0.763547
3.905000,-0.879374
3.906000,-1.061389
3.907000,-1.321046
3.908000,-1.546337
3.909000,-1.718169
3.910000,-1.464876
3.911000,-0.909922
3.912000,-0.578987
3.913000,-0.498798
3.914000,-0.690996
3.915000,-0.861555
3.916000,-1.364323
3.917000,-2.436046
3.918000,-2.553146
3.919000,-2.469139
3.920000,-2.430954
3.921000,-2.196754
3.922000,-1.692713
3.923000,-1.144123
3.924000,-0.832280
3.925000,-0.897194
3.926000,-0.870465
3.927000,-1.304500
3.928000,-1.989282
3.929000,-2.582421
3.930000,-2.996091
3.931000,-2.943905
3.932000,-2.605332
3.933000,-2.009648
3.934000,-1.360504
3.935000,-1.067753
3.936000,-0.990111
3.937000,-0.554803
3.938000,-0.171681
3.939000,-0.918832
3.940000,-1.332502
3.941000,-1.522154
3.942000,-2.041468
3.943000,-2.563329
3.944000,-2.460229
3.945000,-2.324037
3.946000,-2.064379
3.947000,-1.463603
3.948000,-1.013022
3.949000,-0.771184
3.950000,-0.225140
3.951000,-0.491161
3.952000,-0.885739
3.953000,-0.832280
3.954000,-1.345230
3.955000,-1.968917
3.956000,-2.196754
3.957000,-1.968917
3.958000,-1.514517
3.959000,-1.403780
3.960000,-2.100018
3.961000,-2.507324
3.962000,-2.287124
3.963000,-1.966371
3.964000,-1.361777
3.965000,-0.441521
3.966000,-0.072400
3.967000,-0.384244
3.968000,-0.459341
3.969000,-0.936652
3.970000,-1.504334
3.971000,-1.663438
3.972000,-0.901013
3.973000,-0.423701
3.974000,-0.323148
3.975000,-0.447885
3.976000,-0.710088
3.977000,-1.019386
3.978000,-1.448329
3.979000,-1.805995
3.980000,-2.145840
3.981000,-2.176388
3.982000,-2.414407
3.983000,-3.236656
3.984000,-3.945622
3.985000,-4.009263
3.986000,-3.501404
3.987000,-2.254031
3.988000,-1.581977
3.989000,-0.884466
3.990000,-0.507708
3.991000,-0.880647
3.992000,-1.175944
3.993000,-0.881920
3.994000,-0.912468
3.995000,-1.158124
3.996000,-1.433056
3.997000,-1.678712
3.998000,-1.672348
3.999000,-1.622707
4.000000,-1.485242
4.001000,-1.625253
4.002000,-1.398689
4.003000,-1.272679
4.004000,-0.907377
4.005000,-0.893376
4.006000,-0.811914
4.007000,-0.722816
4.008000,-0.927742
4.009000,-1.503061
4.010000,-1.758900
4.011000,-1.911640
4.012000,-1.620162
4.013000,-1.052479
4.014000,-0.926469
4.015000,-1.249768
4.016000,-1.595978
4.017000,-1.679985
4.018000,-1.537428
4.019000,-1.201400
4.020000,-1.029568
4.021000,-1.004112
4.022000,-1.365596
4.023000,-1.506880
4.024000,-1.646891
4.025000,-1.672348
4.026000,-1.721988
4.027000,-1.365596
4.028000,-1.163216
4.029000,-1.702895
4.030000,-2.135658
4.031000,-2.385132
4.032000,-2.495869
4.033000,-2.975725
4.034000,-2.999909
4.035000,-3.604503
4.036000,-3.315571
4.037000,-2.779710
4.038000,-1.906548
4.039000,-0.750819
4.040000,0.000151
4.041000,0.294175
4.042000,0.513102
4.043000,0.529648
4.044000,0.338724
4.045000,-0.217503
4.046000,-1.183581
4.047000,-1.688894
4.048000,-1.746172
4.049000,-1.991828
4.050000,-2.059288
4.051000,-2.094927
4.052000,-1.632890
4.053000,-1.136486
4.054000,-1.569248
4.055000,-1.561611
4.056000,-1.813632
4.057000,-2.159841
4.058000,-2.177661
4.059000,-1.919277
4.060000,-1.747445
4.061000,-2.019830
4.062000,-1.980372
4.063000,-1.721988
4.064000,-1.612525
4.065000,-1.349049
4.066000,-0.740636
4.067000,-1.011749
4.068000,-0.990111
4.069000,-0.941743
4.070000,-0.846281
4.071000,-0.878102
4.072000,-1.626526
4.073000,-1.949824
4.074000,-1.626526
4.075000,-1.534882
4.076000,-1.240858
4.077000,-0.876829
4.078000,-0.855191
4.079000,-1.155579
4.080000,-1.641800
4.081000,-1.977827
4.082000,-1.994374
4.083000,-1.686349
4.084000,-1.508152
4.085000,-1.417782
4.086000,-1.449602
4.087000,-1.331229
4.088000,-1.109757
4.089000,-1.020659
4.090000,-0.646447
4.091000,-0.563713
4.092000,-0.818279
4.093000,-1.151760
4.094000,-1.234494
4.095000,-1.229403
4.096000,-1.431783
4.097000,-1.932005
4.098000,-2.371131
4.099000,-2.587512
4.100000,-2.654972
4.101000,-2.721159
4.102000,-2.798802
4.103000,-2.385132
4.104000,-1.960007
4.105000,-1.565430
4.106000,-1.270133
4.107000,-1.058844
4.108000,-1.039751
4.109000,-1.580704
4.110000,-2.411862
4.111000,-2.023649
4.112000,-1.765264
4.113000,-1.499243
4.114000,-0.892103
4.115000,-0.403336
4.116000,-0.360060
4.117000,-0.876829
4.118000,-1.573067
4.119000,-2.112747
4.120000,-2.525144
4.121000,-2.593876
4.122000,-2.596422
4.123000,-2.700794
4.124000,-2.465321
4.125000,-2.400406
4.126000,-2.638426
4.127000,-1.483969
4.128000,-0.318056
4.129000,0.231806
4.130000,0.566560
4.131000,0.551286
4.132000,0.516920
4.133000,0.407457
4.134000,-0.049489
4.135000,-0.416064
4.136000,-1.098301
4.137000,-1.504334
4.138000,-1.658346
4.139000,-1.788175
4.140000,-1.763991
4.141000,-1.682530
4.142000,-1.667256
4.143000,-1.786902
4.144000,-1.786902
4.145000,-2.181480
4.146000,-3.890890
4.147000,-4.296923
4.148000,-3.624869
4.149000,-2.764436
4.150000,-1.982918
4.151000,-0.957017
4.152000,-0.193319
4.153000,0.049791
4.154000,-0.020214
4.155000,0.639112
4.156000,0.760031
4.157000,0.196167
4.158000,-0.634991
4.159000,-1.052479
4.160000,-1.270133
4.161000,-1.519608
4.162000,-1.662165
4.163000,-1.756354
4.164000,-1.763991
4.165000,-2.075835
4.166000,-2.091109
4.167000,-2.044014
4.168000,-2.037650
4.169000,-2.024921
4.170000,-1.840361
4.171000,-1.682530
4.172000,-1.588341
4.173000,-1.556520
4.174000,-1.664711
4.175000,-2.402952
4.176000,-3.570137
4.177000,-4.169640
4.178000,-4.121272
4.179000,-4.378384
4.180000,-4.318561
4.181000,-3.682146
4.182000,-2.628243
4.183000,-1.527245
4.184000,-0.337149
4.185000,1.316257
4.186000,2.179236
4.187000,1.743928
4.188000,1.214431
4.189000,0.528375
4.190000,-0.055853
4.191000,-0.782639
4.192000,-1.369414
4.193000,-2.007102
4.194000,-3.150103
4.195000,-3.642688
4.196000,-3.338482
4.197000,-3.050822
4.198000,-2.750435
4.199000,-2.044014
4.200000,-0.803005
4.201000,0.370545
4.202000,0.412548
4.203000,0.440550
4.204000,0.430368
4.205000,0.384546
4.206000,0.359089
4.207000,0.328541
4.208000,0.594563
4.209000,-0.264598
4.210000,-1.007930
4.211000,-1.287953
4.212000,-1.491606
4.213000,-1.700350
4.214000,-1.781811
4.215000,-1.977827
4.216000,-2.366040
4.217000,-2.890446
4.218000,-3.036821
4.219000,-2.962997
4.220000,-2.792438
4.221000,-2.391497
4.222000,-2.301126
4.223000,-1.874728
4.224000,-2.176388
4.225000,-2.466593
4.226000,-2.206936
4.227000,-2.162387
4.228000,-1.730898
4.229000,-1.490333
4.230000,-1.426691
4.231000,-1.345230
4.232000,-1.443238
4.233000,-1.560339
4.234000,-2.021103
4.235000,-2.206936
4.236000,-2.382587
4.237000,-2.424590
4.238000,-2.954087
4.239000,-2.661336
4.240000,-2.227301
4.241000,-1.693986
4.242000,-1.169580
4.243000,-0.389335
4.244000,0.261081
4.245000,0.121070
4.246000,-0.346059
4.247000,-0.298964
4.248000,-0.139860
4.249000,-0.710088
4.250000,-1.254859
4.251000,-1.220493
4.252000,-1.420327
4.253000,-1.492879
4.254000,-1.413963
4.255000,-1.277770
4.256000,-1.202673
4.257000,-1.543792
4.258000,-2.383860
4.259000,-2.705886
4.260000,-2.740252
4.261000,-2.378768
4.262000,-1.259951
4.263000,-0.473342
4.264000,-0.228958
4.265000,-0.146224
4.266000,-0.424974
4.267000,-0.268416
4.268000,-0.349877
4.269000,-0.648992
4.270000,-0.857736
4.271000,-1.195036
4.272000,-1.375778
4.273000,-1.505607
4.274000,-1.567976
4.275000,-1.598523
4.276000,-1.876000
4.277000,-2.087290
4.278000,-2.251485
4.279000,-2.546782
4.280000,-2.452592
4.281000,-2.345675
4.282000,-2.324037
4.283000,-2.215846
4.284000,-1.984191
4.285000,-1.816177
4.286000,-1.557793
4.287000,-1.007930
4.288000,-0.926469
4.289000,-1.060116
4.290000,-1.321046
4.291000,-1.583249
4.292000,-1.811086
4.293000,-1.977827
4.294000,-2.343129
4.295000,-3.640143
4.296000,-4.378384
4.297000,-4.324925
4.298000,-3.801792
4.299000,-3.246838
4.300000,-2.320218
4.301000,-1.483969
4.302000,-1.118667
4.303000,-1.261223
4.304000,-1.080482
4.305000,-0.446612
4.306000,-0.139860
4.307000,0.384546
4.308000,0.747302
4.309000,0.925498
4.310000,0.785487
4.311000,0.740938
4.312000,0.496555
4.313000,0.040882
4.314000,-0.498798
4.315000,-0.926469
4.316000,-1.710532
4.317000,-1.837815
4.318000,-1.688894
4.319000,-1.510698
4.320000,-1.276497
4.321000,-1.062662
4.322000,-1.267588
4.323000,-1.254859
4.324000,-1.303227
4.325000,-1.805995
4.326000,-2.339310
4.327000,-2.937541
4.328000,-2.849715
4.329000,-2.535326
4.330000,-2.061834
4.331000,-1.664711
4.332000,-0.981201
4.333000,-0.633718
4.334000,-0.827188
4.335000,-0.964654
4.336000,-1.172125
4.337000,-1.209037
4.338000,-1.253586
4.339000,-1.340139
4.340000,-1.291771
4.341000,-1.457239
4.342000,-1.607433
4.343000,-1.699077
4.344000,-1.724534
4.345000,-2.030013
4.346000,-2.390224
4.347000,-2.257849
4.348000,-1.713078
4.349000,-1.459785
4.350000,-1.592159
4.351000,-1.560339
4.352000,-1.378324
4.353000,-1.505607
4.354000,-1.734716
4.355000,-1.879819
4.356000,-2.214573
4.357000,-2.334219
4.358000,-2.587512
4.359000,-2.602786
4.360000,-2.229847
4.361000,-2.049105
4.362000,-1.956189
4.363000,-2.149659
4.364000,-2.600241
4.365000,-2.853534
4.366000,-2.588785
4.367000,-2.074562
4.368000,-1.435601
4.369000,-0.892103
4.370000,-0.861555
4.371000,-1.728352
4.372000,-1.644345
4.373000,-0.694814
4.374000,-0.087674
4.375000,0.011607
4.376000,-0.320602
4.377000,-1.099574
4.378000,-1.477605
4.379000,-1.716897
4.380000,-1.981645
4.381000,-1.525972
4.382000,-0.797913
4.383000,-0.235323
4.384000,0.063793
4.385000,0.390910
4.386000,0.701480
4.387000,0.616201
4.388000,0.382000
4.389000,-0.587896
4.390000,-1.625253
4.391000,-2.102564
4.392000,-2.372404
4.393000,-2.294761
4.394000,-2.140749
4.395000,-2.161114
4.396000,-2.096200
4.397000,-1.980372
4.398000,-1.831451
4.399000,-1.617616
4.400000,-2.241303
4.401000,-1.970190
4.402000,-1.495424
4.403000,-1.537428
4.404000,-1.510698
4.405000,-1.849271
4.406000,-2.069471
4.407000,-1.895093
4.408000,-1.727079
4.409000,-1.551429
4.410000,-1.538700
4.411000,-1.674893
4.412000,-2.007102
4.413000,-2.442410
4.414000,-2.805166
4.415000,-2.835714
4.416000,-2.854807
4.417000,-2.721159
4.418000,-2.073289
4.419000,-1.387234
4.420000,-0.931561
4.421000,-0.469523
4.422000,0.263627
4.423000,0.873312
4.424000,0.809671
4.425000,0.396001
4.426000,0.012879
4.427000,-0.273507
4.428000,-0.699905
4.429000,-1.154306
4.430000,-1.413963
4.431000,-1.503061
4.432000,-1.351594
4.433000,-1.310864
4.434000,-1.662165
4.435000,-2.046560
4.436000,-2.013466
4.437000,-2.822986
4.438000,-3.435217
4.439000,-3.324481
4.440000,-2.822986
4.441000,-2.321491
4.442000,-1.850544
4.443000,-1.478877
4.444000,-1.324865
4.445000,-1.326138
4.446000,-1.552702
4.447000,-1.425419
4.448000,-0.789004
4.449000,-0.836098
4.450000,-1.067753
4.451000,-1.114848
4.452000,-1.216674
4.453000,-1.107211
4.454000,-1.461058
4.455000,-1.710532
4.456000,-1.573067
4.457000,-1.041024
4.458000,-0.884466
4.459000,-1.197582
4.460000,-2.047832
4.461000,-2.292216
4.462000,-2.270578
4.463000,-1.998192
4.464000,-1.793266
4.465000,-1.783084
4.466000,-1.766537
4.467000,-1.916731
4.468000,-2.147113
4.469000,-2.294761
4.470000,-2.447501
4.471000,-2.131839
4.472000,-1.513244
4.473000,-1.315955
4.474000,-1.420327
4.475000,-1.753809
4.476000,-1.883637
4.477000,-1.998192
4.478000,-1.925641
4.479000,-1.322319
4.480000,-0.860282
4.481000,-0.652811
4.482000,-0.676995
4.483000,-0.393153
4.484000,-0.192046
4.485000,-0.234050
4.486000,0.001424
4.487000,-0.077492
4.488000,-1.184854
4.489000,-1.897638
4.490000,-2.115292
4.491000,-2.136931
4.492000,-2.031286
4.493000,-1.944733
4.494000,-1.667256
4.495000,-1.701623
4.496000,-1.996919
4.497000,-2.376223
4.498000,-2.751707
4.499000,-2.616787
4.500000,-1.961280
4.501000,-1.266315
4.502000,-0.534438
4.503000,-0.216230
4.504000,-0.072400
4.505000,0.044700
4.506000,0.189803
4.507000,0.453279
4.508000,0.225442
4.509000,-0.689723
4.510000,-1.254859
4.511000,-1.433056
4.512000,-1.338866
4.513000,-1.322319
4.514000,-1.467422
4.515000,-1.702895
4.516000,-1.794539
4.517000,-2.044014
4.518000,-2.274396
4.519000,-2.480595
4.520000,-2.568420
4.521000,-2.868808
4.522000,-2.940086
4.523000,-3.061005
4.524000,-3.370303
4.525000,-3.281205
4.526000,-2.914630
4.527000,-2.190389
4.528000,-1.925641
4.529000,-2.138203
4.530000,-2.357130
4.531000,-2.078380
4.532000,-1.290499
4.533000,-0.452976
4.534000,0.035790
4.535000,0.119797
4.536000,-0.034215
4.537000,-0.329512
4.538000,-0.422429
4.539000,-0.483524
4.540000,-0.909922
4.541000,-0.797913
4.542000,-1.198855
4.543000,-1.617616
4.544000,-1.819996
4.545000,-2.037650
4.546000,-2.232393
4.547000,-1.930732
4.548000,-1.518335
4.549000,-1.053752
4.550000,-0.776275
4.551000,-0.741909
4.552000,-0.679540
4.553000,-0.669358
4.554000,-1.052479
4.555000,-1.389779
4.556000,-2.330401
4.557000,-3.064824
4.558000,-3.202289
4.559000,-2.950269
4.560000,-2.609150
4.561000,-2.233666
4.562000,-2.322764
4.563000,-2.340583
4.564000,-2.654972
4.565000,-3.019002
4.566000,-2.464048
4.567000,-1.570521
4.568000,-1.160670
4.569000,-0.591715
4.570000,-0.268416
4.571000,-0.010032
4.572000,0.333632
4.573000,0.416366
4.574000,0.156709
4.575000,0.213986
4.576000,0.220351
4.577000,-0.064763
4.578000,-0.538256
4.579000,-0.803005
4.580000,-0.935379
4.581000,-0.902285
4.582000,-0.922651
4.583000,-1.219220
4.584000,-1.517062
4.585000,-1.519608
4.586000,-1.663438
4.587000,-1.847998
4.588000,-1.921822
4.589000,-2.161114
4.590000,-2.582421
4.591000,-2.973180
4.592000,-3.174287
4.593000,-3.344846
4.594000,-3.344846
4.595000,-3.091553
4.596000,-2.836987
4.597000,-2.960452
4.598000,-3.156467
4.599000,-2.777164
4.600000,-2.111474
4.601000,-1.186127
4.602000,0.117251
4.603000,0.445642
4.604000,0.253444
4.605000,-0.071127
4.606000,-0.552257
4.607000,-0.675722
4.608000,-0.665539
4.609000,-0.839917
4.610000,-0.866646
4.611000,-0.934106
4.612000,-1.314682
4.613000,-1.561611
4.614000,-1.534882
4.615000,-1.314682
4.616000,-1.220493
4.617000,-1.402508
4.618000,-1.402508
4.619000,-1.371960
4.620000,-1.391052
4.621000,-1.527245
4.622000,-1.525972
4.623000,-1.765264
4.624000,-1.920549
4.625000,-1.705441
4.626000,-1.721988
4.627000,-1.693986
4.628000,-1.620162
4.629000,-1.609979
4.630000,-1.674893
4.631000,-1.668529
4.632000,-1.653255
4.633000,-1.765264
4.634000,-2.200572
4.635000,-2.688066
4.636000,-2.868808
4.637000,-2.708431
4.638000,-2.420772
4.639000,-2.181480
4.640000,-2.064379
4.641000,-1.981645
4.642000,-1.825087
4.643000,-1.270133
4.644000,-1.074117
4.645000,-1.046115
4.646000,-1.071572
4.647000,-1.397416
4.648000,-1.690167
4.649000,-2.331673
4.650000,-2.475503
4.651000,-2.576057
4.652000,-2.486959
4.653000,-2.313854
4.654000,-1.742353
4.655000,-0.857736
4.656000,-0.307874
4.657000,0.202531
4.658000,0.529648
4.659000,0.481281
4.660000,0.541104
4.661000,0.415094
4.662000,0.147799
4.663000,-0.105494
4.664000,0.208895
4.665000,-0.144952
4.666000,-0.585351
4.667000,-1.336320
4.668000,-1.948552
4.669000,-2.324037
4.670000,-2.376223
4.671000,-2.299853
4.672000,-2.332946
4.673000,-2.140749
4.674000,-2.005829
4.675000,-1.863272
4.676000,-1.646891
4.677000,-1.665983
4.678000,-1.559066
4.679000,-1.598523
4.680000,-1.650709
4.681000,-1.595978
4.682000,-2.040195
4.683000,-2.208209
4.684000,-2.150932
4.685000,-1.881092
4.686000,-1.640527
4.687000,-1.925641
4.688000,-2.451320
4.689000,-2.560783
4.690000,-2.502233
4.691000,-2.724978
4.692000,-2.976998
4.693000,-2.759344
4.694000,-2.233666
4.695000,-2.121657
4.696000,-1.693986
4.697000,-0.964654
4.698000,-0.268416
4.699000,-0.064763
4.700000,-0.026578
4.701000,-0.060945
4.702000,-0.326966
4.703000,-0.578987
4.704000,-0.906104
4.705000,-1.433056
4.706000,-1.873455
4.707000,-1.651982
4.708000,-1.231948
4.709000,-1.015567
4.710000,-1.133940
4.711000,-1.090664
4.712000,-0.782639
4.713000,-0.860282
4.714000,-0.817006
4.715000,-0.743182
4.716000,-0.586624
4.717000,-0.423701
4.718000,-0.521709
4.719000,-0.521709
4.720000,-1.165761
4.721000,-2.072016
4.722000,-2.500960
4.723000,-3.137375
4.724000,-3.503950
4.725000,-3.467038
4.726000,-2.923539
4.727000,-2.344402
4.728000,-1.793266
4.729000,-1.286680
4.730000,-0.971018
4.731000,-0.819551
4.732000,-0.251869
4.733000,0.026880
4.734000,-0.225140
4.735000,0.227988
4.736000,-0.315511
4.737000,-1.076663
4.738000,-1.354140
4.739000,-1.477605
4.740000,-1.501788
4.741000,-1.658346
4.742000,-2.135658
4.743000,-2.008375
4.744000,-1.830178
4.745000,-1.637981
4.746000,-1.497970
4.747000,-1.546337
4.748000,-2.072016
4.749000,-2.229847
4.750000,-2.381314
4.751000,-2.770800
4.752000,-2.959179
4.753000,-2.899356
4.754000,-2.628243
4.755000,-2.997364
4.756000,-2.926085
4.757000,-3.058459
4.758000,-2.714795
4.759000,-2.224756
4.760000,-1.167034
4.761000,-0.356241
4.762000,0.051064
4.763000,-0.124586
4.764000,-0.137315
4.765000,0.109614
4.766000,0.001424
4.767000,-0.114404
4.768000,-0.455522
4.769000,-0.964654
4.770000,-1.604888
4.771000,-2.565874
4.772000,-3.464492
4.773000,-3.257021
4.774000,-2.993545
4.775000,-2.419499
4.776000,-1.574340
4.777000,-1.038478
4.778000,-0.850099
4.779000,-1.221766
4.780000,-1.932005
4.781000,-2.422044
4.782000,-3.311753
4.783000,-2.919721
4.784000,-2.098746
4.785000,-1.486514
4.786000,-0.675722
4.787000,-0.402063
4.788000,-0.394426
4.789000,-0.026578
4.790000,0.118524
4.791000,0.404911
4.792000,0.528375
4.793000,0.231806
4.794000,0.010334
4.795000,-0.323148
4.796000,-0.470796
4.797000,-0.559894
4.798000,-0.725362
4.799000,-0.986292
4.800000,-0.972291
4.801000,-1.114848
4.802000,-1.408872
4.803000,-1.677439
4.804000,-1.974008
4.805000,-2.772073
4.806000,-3.609595
4.807000,-3.892163
4.808000,-4.024537
4.809000,-3.869252
4.810000,-3.605776
4.811000,-2.676610
4.812000,-1.612525
4.813000,-1.234494
4.814000,-1.640527
4.815000,-1.617616
4.816000,-1.387234
4.817000,-1.247222
4.818000,-1.030841
4.819000,-0.641355
4.820000,-0.416064
4.821000,-0.472069
4.822000,-0.554803
4.823000,-0.147497
4.824000,-0.080037
4.825000,-0.587896
4.826000,-0.918832
4.827000,-1.156851
4.828000,-1.466149
4.829000,-1.604888
4.830000,-1.489060
4.831000,-1.206492
4.832000,-1.312137
4.833000,-1.480150
4.834000,-1.398689
4.835000,-2.271850
4.836000,-2.843351
4.837000,-3.006273
4.838000,-3.003728
4.839000,-2.791165
4.840000,-2.598968
4.841000,-2.061834
4.842000,-1.608706
4.843000,-1.426691
4.844000,-1.153033
4.845000,-0.888284
4.846000,-0.846281
4.847000,-0.785185
4.848000,-0.678267
4.849000,-0.927742
4.850000,-1.072845
4.851000,-1.310864
4.852000,-1.463603
4.853000,-1.221766
4.854000,-0.823370
4.855000,-1.018113
4.856000,-1.220493
4.857000,-1.007930
4.858000,-1.150487
4.859000,-2.079653
4.860000,-2.180207
4.861000,-2.083472
4.862000,-2.094927
4.863000,-2.103837
4.864000,-2.638426
4.865000,-2.766981
4.866000,-2.714795
4.867000,-2.560783
4.868000,-2.358403
4.869000,-2.021103
4.870000,-1.608706
4.871000,-0.794095
4.872000,-0.419883
4.873000,-0.057126
4.874000,-0.561167
4.875000,-1.263769
4.876000,-1.214129
4.877000,-1.119939
4.878000,-0.828461
4.879000,-0.832280
4.880000,-0.749546
4.881000,-0.645174
4.882000,-0.698633
4.883000,-0.646447
4.884000,-0.382971
4.885000,-0.570077
4.886000,-1.071572
4.887000,-1.473786
4.888000,-1.733443
4.889000,-1.822541
4.890000,-1.775447
4.891000,-1.637981
4.892000,-1.864545
4.893000,-2.005829
4.894000,-2.091109
4.895000,-2.105110
4.896000,-2.128021
4.897000,-2.142022
4.898000,-2.262941
4.899000,-2.307490
4.900000,-2.592604
4.901000,-2.558237
4.902000,-2.190389
4.903000,-1.870909
4.904000,-1.809813
4.905000,-1.814905
4.906000,-1.723261
4.907000,-1.476332
4.908000,-1.338866
4.909000,-2.246394
4.910000,-2.643517
4.911000,-2.212027
4.912000,-1.854362
4.913000,-1.683803
4.914000,-1.239585
4.915000,-1.095756
4.916000,-1.203946
4.917000,-1.527245
4.918000,-1.615070
4.919000,-1.679985
4.920000,-1.630344
4.921000,-1.132668
4.922000,-0.580259
4.923000,-0.337149
4.924000,-0.951926
4.925000,-1.107211
4.926000,-1.186127
4.927000,-1.463603
4.928000,-1.088119
4.929000,-0.926469
4.930000,-0.651538
4.931000,-0.244232
4.932000,-0.292600
4.933000,-0.436430
4.934000,-0.465705
4.935000,-0.418610
4.936000,-0.727908
4.937000,-1.583249
4.938000,-1.649437
4.939000,-1.089391
4.940000,-0.654084
4.941000,-0.627354
4.942000,-1.071572
4.943000,-1.285407
4.944000,-1.565430
4.945000,-1.794539
4.946000,-1.727079
4.947000,-1.910367
4.948000,-1.876000
4.949000,-1.900184
4.950000,-1.928186
4.951000,-1.462331
4.952000,-1.439420
4.953000,-1.573067
4.954000,-1.863272
4.955000,-2.101291
4.956000,-2.275669
4.957000,-2.350766
4.958000,-2.576057
4.959000,-2.791165
4.960000,-2.737706
4.961000,-2.335492
4.962000,-1.555247
4.963000,-1.183581
4.964000,-1.175944
4.965000,-1.338866
4.966000,-1.789448
4.967000,-2.143295
4.968000,-2.551873
4.969000,-2.401679
4.970000,-2.032558
4.971000,-1.791994
4.972000,-1.419054
4.973000,-1.163216
4.974000,-0.991384
4.975000,-1.116121
4.976000,-1.160670
4.977000,-1.226857
4.978000,-0.668085
4.979000,-0.878102
4.980000,-1.117394
4.981000,-1.164488
4.982000,-1.127576
4.983000,-1.102120
4.984000,-0.800459
4.985000,-1.014294
4.986000,-1.261223
4.987000,-1.010476
4.988000,-1.443238
4.989000,-1.723261
4.990000,-1.550156
4.991000,-1.347776
4.992000,-1.490333
4.993000,-1.654528
4.994000,-2.068198
4.995000,-2.550600
4.996000,-2.592604
4.997000,-2.878990
4.998000,-2.399133
4.999000,-1.727079
5.000000,-0.944289
5.001000,-0.311692
5.002000,-0.277326
5.003000,-0.521709
5.004000,-0.860282
5.005000,-1.355413
5.006000,-1.454694
5.007000,-1.401235
5.008000,-1.139032
5.009000,-0.785185
5.010000,-0.669358
5.011000,-0.584078
5.012000,-0.847554
5.013000,-1.430510
5.014000,-2.028740
5.015000,-2.318945
5.016000,-2.564601
5.017000,-2.574784
5.018000,-2.675338
5.019000,-2.954087
5.020000,-2.974453
5.021000,-2.654972
5.022000,-2.303671
5.023000,-1.573067
5.024000,-1.113575
5.025000,-2.344402
5.026000,-2.478049
5.027000,-1.977827
5.028000,-1.842907
5.029000,-1.707987
5.030000,-1.368141
5.031000,-1.351594
5.032000,-1.168307
5.033000,-0.890830
5.034000,-0.441521
5.035000,-0.155134
5.036000,0.147799
5.037000,0.250899
5.038000,-0.049489
5.039000,-0.340967
5.040000,-0.572622
5.041000,-0.368970
5.042000,-0.488616
5.043000,-0.907377
5.044000,-1.253586
5.045000,-1.035933
5.046000,-1.069026
5.047000,-1.504334
5.048000,-1.803449
5.049000,-1.282862
5.050000,-0.860282
5.051000,-1.109757
5.052000,-1.321046
5.053000,-1.417782
5.054000,-1.606160
5.055000,-1.715624
5.056000,-1.844180
5.057000,-2.114020
5.058000,-2.410589
5.059000,-2.450047
5.060000,-2.376223
5.061000,-2.983362
5.062000,-2.942632
5.063000,-2.788619
5.064000,-2.708431
5.065000,-2.600241
5.066000,-2.299853
5.067000,-1.851817
5.068000,-1.700350
5.069000,-1.699077
5.070000,-1.273952
5.071000,-0.703724
5.072000,-0.806823
5.073000,-0.916287
5.074000,-0.964654
5.075000,-1.111030
5.076000,-1.290499
5.077000,-1.589614
5.078000,-2.357130
5.079000,-3.138648
5.080000,-3.293933
5.081000,-3.108100
5.082000,-2.737706
5.083000,-2.731342
5.084000,-2.339310
5.085000,-1.564157
5.086000,-0.832280
5.087000,0.210168
5.088000,0.944591
5.089000,1.036235
5.090000,0.373090
5.091000,-1.025750
5.092000,-1.574340
5.093000,-1.478877
5.094000,-1.641800
5.095000,-1.439420
5.096000,-1.356686
5.097000,-1.766537
5.098000,-2.367313
5.099000,-2.514961
5.100000,-2.094927
5.101000,-1.830178
5.102000,-1.434328
5.103000,-0.996475
5.104000,-0.246778
5.105000,-0.325693
5.106000,-0.624808
5.107000,-0.552257
5.108000,-0.427520
5.109000,-0.558621
5.110000,-0.595533
5.111000,-0.766093
5.112000,-1.043570
5.113000,-2.402952
5.114000,-2.415680
5.115000,-2.210755
5.116000,-1.928186
5.117000,-1.121212
5.118000,-0.587896
5.119000,-0.503890
5.120000,-0.820824
5.121000,-1.595978
5.122000,-1.882365
5.123000,-1.863272
5.124000,-1.937096
5.125000,-1.874728
5.126000,-1.637981
5.127000,-1.285407
5.128000,-1.197582
5.129000,-1.181035
5.130000,-1.090664
5.131000,-1.013022
5.132000,-0.890830
5.133000,-0.869192
5.134000,-1.338866
5.135000,-1.245950
5.136000,-1.243404
5.137000,-1.567976
5.138000,-2.033831
5.139000,-3.059732
5.140000,-4.342745
5.141000,-4.373293
5.142000,-4.084360
5.143000,-3.423762
5.144000,-2.541690
5.145000,-1.816177
5.146000,-1.155579
5.147000,-0.865373
5.148000,-0.319329
5.149000,0.808398
5.150000,0.338724
5.151000,-0.404609
5.152000,-0.648992
5.153000,-0.736818
5.154000,-1.051207
5.155000,-1.331229
5.156000,-1.584522
5.157000,-1.876000
5.158000,-1.979100
5.159000,-1.842907
5.160000,-1.719442
5.161000,-1.788175
5.162000,-1.697804
5.163000,-1.916731
5.164000,-2.475503
5.165000,-3.283750
5.166000,-4.711866
5.167000,-4.667317
5.168000,-3.795428
5.169000,-2.274396
5.170000,-0.805550
5.171000,0.390910
5.172000,1.112604
5.173000,1.274254
5.174000,1.297165
5.175000,0.928044
5.176000,0.103250
5.177000,-0.463159
5.178000,-0.310419
5.179000,-0.151316
5.180000,-0.506435
5.181000,-0.888284
5.182000,-1.547610
5.183000,-1.951097
5.184000,-2.213300
5.185000,-2.429681
5.186000,-2.430954
5.187000,-2.134385
5.188000,-1.701623
5.189000,-1.520881
5.190000,-1.413963
5.191000,-1.410145
5.192000,-1.392325
5.193000,-1.454694
5.194000,-1.541246
5.195000,-1.673620
5.196000,-1.522154
5.197000,-1.575612
5.198000,-1.598523
5.199000,-1.674893
5.200000,-1.991828
5.201000,-2.074562
5.202000,-2.411862
5.203000,-2.721159
5.204000,-2.854807
5.205000,-2.950269
5.206000,-2.751707
5.207000,-2.509870
5.208000,-2.308763
5.209000,-2.044014
5.210000,-1.928186
5.211000,-2.111474
5.212000,-2.157296
5.213000,-1.630344
5.214000,-1.836543
5.215000,-2.182752
5.216000,-1.412690
5.217000,-0.670630
5.218000,-0.724089
5.219000,-0.701178
5.220000,-0.559894
5.221000,0.252171
5.222000,-0.262052
5.223000,-0.785185
5.224000,-0.847554
5.225000,-0.589169
5.226000,-0.673176
5.227000,-0.680813
5.228000,-0.949380
5.229000,-1.090664
5.230000,-0.834825
5.231000,-0.460613
5.232000,-0.455522
5.233000,-0.344786
5.234000,0.178347
5.235000,-0.193319
5.236000,-0.623536
5.237000,-0.916287
5.238000,-1.042297
5.239000,-1.435601
5.240000,-1.695259
5.241000,-2.021103
5.242000,-2.996091
5.243000,-3.538316
5.244000,-3.983807
5.245000,-3.699966
5.246000,-3.263385
5.247000,-2.649881
5.248000,-2.145840
5.249000,-1.812359
5.250000,-1.912912
5.251000,-2.041468
5.252000,-1.747445
5.253000,-1.869636
5.254000,-2.032558
5.255000,-2.058015
5.256000,-1.743626
5.257000,-1.555247
5.258000,-1.920549
5.259000,-2.004556
5.260000,-1.454694
5.261000,-0.732999
5.262000,-0.496253
5.263000,-0.501344
5.264000,-0.592988
5.265000,-0.249324
5.266000,0.023062
5.267000,-0.175499
5.268000,-0.048216
5.269000,-0.006213
5.270000,-0.673176
5.271000,-1.276497
5.272000,-1.702895
5.273000,-2.175115
5.274000,-2.410589
5.275000,-2.484413
5.276000,-2.957906
5.277000,-3.503950
5.278000,-3.165377
5.279000,-2.304944
5.280000,-1.295590
5.281000,-0.573895
5.282000,-0.078764
5.283000,0.600927
5.284000,1.057873
5.285000,0.301812
5.286000,-0.474615
5.287000,-1.067753
5.288000,-1.483969
5.289000,-1.892547
5.290000,-2.232393
5.291000,-2.489504
5.292000,-3.147558
5.293000,-3.610868
5.294000,-3.357574
5.295000,-3.277386
5.296000,-3.067369
5.297000,-2.772073
5.298000,-2.646063
5.299000,-2.293489
5.300000,-1.636708
5.301000,-1.417782
5.302000,-0.876829
5.303000,-0.503890
5.304000,-0.120768
5.305000,-0.044398
5.306000,-0.270962
5.307000,-0.236595
5.308000,-0.711361
5.309000,-0.809369
5.310000,-0.782639
5.311000,-1.940915
5.312000,-2.861171
5.313000,-2.783528
5.314000,-2.472958
5.315000,-1.897638
5.316000,-1.072845
5.317000,-0.514072
5.318000,-0.366424
5.319000,-0.382971
5.320000,-0.328239
5.321000,-0.482252
5.322000,-0.557348
5.323000,-0.734272
5.324000,-0.902285
5.325000,-1.075390
5.326000,-1.825087
5.327000,-1.988009
5.328000,-2.125475
5.329000,-2.084744
5.330000,-1.916731
5.331000,-1.765264
5.332000,-1.739808
5.333000,-1.500516
5.334000,-1.674893
5.335000,-1.686349
5.336000,-1.688894
5.337000,-1.856908
5.338000,-1.928186
5.339000,-1.780538
5.340000,-1.557793
5.341000,-1.598523
5.342000,-1.671075
5.343000,-1.827633
5.344000,-1.842907
5.345000,-1.970190
5.346000,-1.802176
5.347000,-1.818723
5.348000,-2.222210
5.349000,-2.354584
5.350000,-1.968917
5.351000,-1.385961
5.352000,-1.144123
5.353000,-0.610807
5.354000,-0.166590
5.355000,-0.529346
5.356000,-0.771184
5.357000,-0.743182
5.358000,-0.508981
5.359000,-0.731726
5.360000,-1.469968
5.361000,-1.627799
5.362000,-2.084744
5.363000,-2.367313
5.364000,-2.098746
5.365000,-1.609979
5.366000,-1.481423
5.367000,-1.657074
5.368000,-1.771628
5.369000,-2.172570
5.370000,-2.769527
5.371000,-3.603231
5.372000,-4.701683
5.373000,-5.516294
5.374000,-5.098806
5.375000,-4.089452
5.376000,-2.637153
5.377000,-0.817006
5.378000,0.496555
5.379000,1.278072
5.380000,1.715926
5.381000,0.807125
5.382000,0.336178
5.383000,1.168609
5.384000,1.045144
5.385000,1.015869
5.386000,0.950955
5.387000,0.649294
5.388000,0.286538
5.389000,-0.255688
5.390000,-0.725362
5.391000,-1.406326
5.392000,-1.721988
5.393000,-1.711805
5.394000,-1.920549
5.395000,-2.086017
5.396000,-2.346947
5.397000,-2.920994
5.398000,-3.192107
5.399000,-3.096644
5.400000,-2.738979
5.401000,-2.388951
5.402000,-2.133112
5.403000,-1.883637
5.404000,-1.817450
5.405000,-1.584522
5.406000,-1.364323
5.407000,-1.211583
5.408000,-1.623980
5.409000,-1.898911
5.410000,-1.893820
5.411000,-1.574340
5.412000,-1.187399
5.413000,-1.211583
5.414000,-1.415236
5.415000,-1.314682
5.416000,-1.164488
5.417000,-1.056298
5.418000,-1.219220
5.419000,-1.711805
5.420000,-1.842907
5.421000,-1.965098
5.422000,-1.974008
5.423000,-1.960007
5.424000,-1.775447
5.425000,-1.525972
5.426000,-1.412690
5.427000,-1.710532
5.428000,-1.319774
5.429000,-0.675722
5.430000,-0.561167
5.431000,-0.879374
5.432000,-1.581977
5.433000,-2.506051
5.434000,-3.235383
5.435000,-3.313025
5.436000,-2.843351
5.437000,-2.223483
5.438000,-1.814905
5.439000,-1.006657
5.440000,-0.416064
5.441000,-0.442794
5.442000,-0.716452
5.443000,-1.230676
5.444000,-1.556520
5.445000,-1.235767
5.446000,-1.103393
5.447000,-1.324865
5.448000,-1.126303
5.449000,-0.876829
5.450000,-0.755910
5.451000,-0.622263
5.452000,-0.775002
5.453000,-1.034660
5.454000,-1.387234
5.455000,-1.473786
5.456000,-1.629071
5.457000,-2.129294
5.458000,-2.377495
5.459000,-2.530235
5.460000,-3.463219
5.461000,-3.468311
5.462000,-2.532781
5.463000,-1.971463
5.464000,-1.225584
5.465000,-0.172954
5.466000,0.315813
5.467000,-0.022760
5.468000,-0.465705
5.469000,-0.687177
5.470000,-0.908650
5.471000,-1.263769
5.472000,-1.481423
5.473000,-1.373233
5.474000,-1.466149
5.475000,-1.590886
5.476000,-1.467422
5.477000,-1.392325
5.478000,-1.524699
5.479000,-1.649437
5.480000,-1.919277
5.481000,-1.691440
5.482000,-1.658346
5.483000,-1.733443
5.484000,-1.636708
5.485000,-1.439420
5.486000,-1.686349
5.487000,-2.070743
5.488000,-2.093654
5.489000,-1.837815
5.490000,-2.036377
5.491000,-2.084744
5.492000,-2.013466
5.493000,-1.767810
5.494000,-1.719442
5.495000,-1.925641
5.496000,-1.454694
5.497000,-1.109757
5.498000,-1.142850
5.499000,-1.340139
5.500000,-1.202673
5.501000,-1.337593
5.502000,-1.519608
5.503000,-1.377051
5.504000,-1.169580
5.505000,-1.625253
5.506000,-1.704168
5.507000,-1.338866
5.508000,-0.941743
5.509000,-0.553530
5.510000,-0.251869
5.511000,0.252171
5.512000,0.089249
5.513000,-0.600625
5.514000,-1.616343
5.515000,-1.892547
5.516000,-2.115292
5.517000,-1.779265
5.518000,-1.197582
5.519000,-0.977382
5.520000,-0.931561
5.521000,-0.745727
5.522000,-0.675722
5.523000,-0.850099
5.524000,-1.158124
5.525000,-1.370687
5.526000,-1.453421
5.527000,-1.699077
5.528000,-2.227301
5.529000,-2.518780
5.530000,-2.703340
5.531000,-2.870081
5.532000,-2.810258
5.533000,-2.642244
5.534000,-2.432227
5.535000,-2.091109
5.536000,-1.786902
5.537000,-1.779265
5.538000,-2.033831
5.539000,-2.154750
5.540000,-2.387678
5.541000,-2.131839
5.542000,-1.772901
5.543000,-2.012193
5.544000,-2.007102
5.545000,-2.903174
5.546000,-3.545953
5.547000,-3.027911
5.548000,-2.149659
5.549000,-1.375778
5.550000,-0.542075
5.551000,0.093068
5.552000,0.528375
5.553000,0.520739
5.554000,0.061247
5.555000,-0.823370
5.556000,-0.992656
5.557000,-0.722816
5.558000,-1.123758
5.559000,-1.441965
5.560000,-1.585795
5.561000,-1.378324
5.562000,-1.382142
5.563000,-1.753809
5.564000,-1.534882
5.565000,-1.281589
5.566000,-1.136486
5.567000,-1.499243
5.568000,-1.746172
5.569000,-1.480150
5.570000,-1.279043
5.571000,-1.345230
5.572000,-2.047832
5.573000,-2.121657
5.574000,-1.791994
5.575000,-1.206492
5.576000,-0.172954
5.577000,0.642930
5.578000,-0.008759
5.579000,-0.929015
5.580000,-1.565430
5.581000,-1.408872
5.582000,-1.455966
5.583000,-1.925641
5.584000,-1.956189
5.585000,-1.786902
5.586000,-1.637981
5.587000,-1.518335
5.588000,-1.231948
5.589000,-1.198855
5.590000,-1.793266
5.591000,-1.487787
5.592000,-1.304500
5.593000,-1.254859
5.594000,-1.242131
5.595000,-1.422873
5.596000,-1.766537
5.597000,-2.157296
5.598000,-2.271850
5.599000,-1.943460
5.600000,-1.517062
5.601000,-1.286680
5.602000,-1.225584
5.603000,-1.385961
5.604000,-1.475059
5.605000,-1.505607
5.606000,-1.677439
5.607000,-1.651982
5.608000,-1.669802
5.609000,-1.701623
5.610000,-1.688894
5.611000,-1.859454
5.612000,-1.988009
5.613000,-1.749990
5.614000,-1.718169
5.615000,-1.702895
5.616000,-1.901457
5.617000,-2.072016
5.618000,-2.094927
5.619000,-2.251485
5.620000,-2.849715
5.621000,-2.618060
5.622000,-2.224756
5.623000,-2.167478
5.624000,-2.285852
5.625000,-2.161114
5.626000,-1.915458
5.627000,-1.695259
5.628000,-1.221766
5.629000,-0.487343
5.630000,-0.222594
5.631000,0.155436
5.632000,0.276355
5.633000,0.480008
5.634000,0.084158
5.635000,-0.889557
5.636000,-1.627799
5.637000,-1.715624
5.638000,-1.415236
5.639000,-1.359231
5.640000,-1.424146
5.641000,-1.419054
5.642000,-1.570521
5.643000,-1.658346
5.644000,-1.797085
5.645000,-1.756354
5.646000,-1.135213
5.647000,-1.261223
5.648000,-1.244677
5.649000,-0.759728
5.650000,-0.903558
5.651000,-1.349049
5.652000,-1.459785
5.653000,-1.827633
5.654000,-2.088563
5.655000,-3.360120
5.656000,-3.762334
5.657000,-3.586684
5.658000,-2.828077
5.659000,-1.961280
5.660000,-1.189945
5.661000,-0.654084
5.662000,-0.175499
5.663000,0.226715
5.664000,0.123616
5.665000,-0.344786
5.666000,-0.647719
5.667000,-0.739363
5.668000,-0.664266
5.669000,-0.731726
5.670000,-0.732999
5.671000,-1.576885
5.672000,-2.826804
5.673000,-3.431399
5.674000,-3.906164
5.675000,-3.776336
5.676000,-3.143739
5.677000,-2.317672
5.678000,-1.508152
5.679000,-0.679540
5.680000,0.003970
5.681000,0.313267
5.682000,0.539831
5.683000,0.080339
5.684000,-0.789004
5.685000,-1.223039
5.686000,-1.341412
5.687000,-1.340139
5.688000,-1.429237
5.689000,-1.574340
5.690000,-1.735989
5.691000,-1.672348
5.692000,-1.763991
5.693000,-2.032558
5.694000,-1.800903
5.695000,-1.553974
5.696000,-1.979100
5.697000,-2.480595
5.698000,-2.341856
5.699000,-1.541246
5.700000,-1.102120
5.701000,-1.252314
5.702000,-1.155579
5.703000,-1.192491
5.704000,-1.766537
5.705000,-2.853534
5.706000,-2.899356
5.707000,-2.583694
5.708000,-1.924368
5.709000,-1.290499
5.710000,-0.711361
5.711000,-0.353696
5.712000,-0.338422
5.713000,-0.435157
5.714000,0.087976
5.715000,-0.083856
5.716000,-0.957017
5.717000,-1.729625
5.718000,-2.014739
5.719000,-2.108928
5.720000,-2.204390
5.721000,-1.990555
5.722000,-1.816177
5.723000,-1.602342
5.724000,-1.119939
5.725000,-1.160670
5.726000,-1.907821
5.727000,-2.835714
5.728000,-2.513688
5.729000,-2.102564
5.730000,-2.227301
5.731000,-2.016012
5.732000,-1.865818
5.733000,-1.637981
5.734000,-1.545065
5.735000,-1.402508
5.736000,-1.023204
5.737000,-0.761001
5.738000,-1.205219
5.739000,-1.315955
5.740000,-0.931561
5.741000,-0.468250
5.742000,-0.482252
5.743000,-0.748273
5.744000,-0.731726
5.745000,-0.893376
5.746000,-1.336320
5.747000,-1.287953
5.748000,-1.455966
5.749000,-1.597251
5.750000,-1.583249
5.751000,-1.654528
5.752000,-2.758072
5.753000,-3.370303
5.754000,-3.227746
5.755000,-2.870081
5.756000,-2.657518
5.757000,-1.920549
5.758000,-1.374505
5.759000,-0.992656
5.760000,-0.832280
5.761000,-0.685904
5.762000,-0.661721
5.763000,-1.010476
5.764000,-1.000293
5.765000,-0.601898
5.766000,-0.511527
5.767000,-0.643901
5.768000,-0.563713
5.769000,-0.704997
5.770000,-0.786458
5.771000,-1.006657
5.772000,-1.133940
5.773000,-1.300681
5.774000,-1.459785
5.775000,-1.835270
5.776000,-2.178934
5.777000,-2.674065
5.778000,-3.013910
5.779000,-3.375394
5.780000,-4.075451
5.781000,-3.735605
5.782000,-2.945178
5.783000,-1.932005
5.784000,-0.907377
5.785000,-0.497525
5.786000,-0.409700
5.787000,0.355271
5.788000,0.373090
5.789000,0.578016
5.790000,0.331087
5.791000,-0.223867
5.792000,-0.669358
5.793000,-0.819551
5.794000,-0.964654
5.795000,-1.089391
5.796000,-1.219220
5.797000,-1.560339
5.798000,-2.012193
5.799000,-2.116565
5.800000,-2.447501
5.801000,-2.853534
5.802000,-3.094099
5.803000,-3.495040
5.804000,-3.160286
5.805000,-3.086462
5.806000,-3.147558
5.807000,-3.419943
5.808000,-2.945178
5.809000,-2.178934
5.810000,-1.081754
5.811000,-0.129678
5.812000,0.621292
5.813000,1.153335
5.814000,0.347634
5.815000,-0.850099
5.816000,-1.786902
5.817000,-2.074562
5.818000,-2.383860
5.819000,-2.418226
5.820000,-2.133112
5.821000,-2.266759
5.822000,-1.798358
5.823000,-1.566703
5.824000,-1.009203
5.825000,-0.298964
5.826000,0.093068
5.827000,0.257263
5.828000,0.193621
5.829000,0.081612
5.830000,-0.225140
5.831000,-0.707542
5.832000,-0.789004
5.833000,-0.777548
5.834000,-1.005385
5.835000,-1.285407
5.836000,-1.469968
5.837000,-1.533609
5.838000,-1.816177
5.839000,-2.074562
5.840000,-2.237484
5.841000,-2.397861
5.842000,-3.225200
5.843000,-3.713967
5.844000,-3.579047
5.845000,-3.310480
5.846000,-2.867535
5.847000,-2.400406
5.848000,-1.886183
5.849000,-1.588341
5.850000,-1.597251
5.851000,-2.082199
5.852000,-1.743626
5.853000,-1.146669
5.854000,-0.528073
5.855000,-0.228958
5.856000,0.127434
5.857000,0.626383
5.858000,0.592017
5.859000,0.305630
5.860000,0.017971
5.861000,-0.809369
5.862000,-1.178490
5.863000,-1.284134
5.864000,-2.245121
5.865000,-2.909538
5.866000,-3.497586
5.867000,-3.806883
5.868000,-3.721604
5.869000,-3.031730
5.870000,-2.343129
5.871000,-2.176388
5.872000,-2.270578
5.873000,-1.757627
5.874000,-1.551429
5.875000,-1.559066
5.876000,-1.597251
5.877000,-1.436874
5.878000,-1.308318
5.879000,-0.909922
5.880000,-0.652811
5.881000,-0.269689
5.882000,0.039609
5.883000,-0.076219
5.884000,0.356543
5.885000,0.306903
5.886000,0.071430
5.887000,-0.076219
5.888000,-0.209866
5.889000,-0.478433
5.890000,-0.893376
5.891000,-1.207765
5.892000,-1.517062
5.893000,-1.849271
5.894000,-2.213300
5.895000,-2.453865
5.896000,-2.657518
5.897000,-2.780982
5.898000,-2.656245
5.899000,-2.402952
5.900000,-2.256577
5.901000,-2.213300
5.902000,-2.022376
5.903000,-1.737262
5.904000,-1.206492
5.905000,-0.766093
5.906000,-0.731726
5.907000,-0.754637
5.908000,-0.892103
5.909000,-1.174671
5.910000,-1.431783
5.911000,-1.734716
5.912000,-1.912912
5.913000,-2.245121
5.914000,-2.486959
5.915000,-2.537872
5.916000,-2.402952
5.917000,-2.387678
5.918000,-2.348220
5.919000,-2.200572
5.920000,-2.815349
5.921000,-2.495869
5.922000,-2.078380
5.923000,-1.312137
5.924000,-0.716452
5.925000,-0.505162
5.926000,-0.450431
5.927000,-0.817006
5.928000,-1.336320
5.929000,-1.713078
5.930000,-1.895093
5.931000,-2.022376
5.932000,-1.916731
5.933000,-2.359676
5.934000,-1.985464
5.935000,-1.643072
5.936000,-1.533609
5.937000,-1.201400
5.938000,-1.239585
5.939000,-0.479706
5.940000,-0.817006
5.941000,-1.317228
5.942000,-1.314682
5.943000,-1.528518
5.944000,-1.956189
5.945000,-2.679156
5.946000,-2.512415
5.947000,-1.738535
5.948000,-0.526801
5.949000,0.094340
5.950000,0.006515
5.951000,-0.433884
5.952000,-0.269689
5.953000,0.040882
5.954000,-0.136042
5.955000,-0.281144
5.956000,-0.668085
5.957000,-0.937925
5.958000,-1.184854
5.959000,-1.453421
5.960000,-1.623980
5.961000,-1.876000
5.962000,-1.926914
5.963000,-1.503061
5.964000,-1.345230
5.965000,-1.466149
5.966000,-1.209037
5.967000,-0.948107
5.968000,-1.091937
5.969000,-1.379597
5.970000,-1.639254
5.971000,-1.702895
5.972000,-1.678712
5.973000,-1.921822
5.974000,-2.017284
5.975000,-1.906548
5.976000,-1.928186
5.977000,-1.916731
5.978000,-2.037650
5.979000,-2.018557
5.980000,-1.940915
5.981000,-2.201845
5.982000,-2.564601
5.983000,-2.565874
5.984000,-2.894264
5.985000,-3.220109
5.986000,-3.015183
5.987000,-2.500960
5.988000,-1.967644
5.989000,-1.692713
5.990000,-1.305773
5.991000,-0.564985
5.992000,-0.281144
5.993000,-0.259506
5.994000,-0.138587
5.995000,-0.272235
5.996000,-0.483524
5.997000,-0.764820
5.998000,-0.992656
5.999000,-1.189945
6.000000,-1.174671
6.001000,-1.371960
6.002000,-2.377495
6.003000,-2.927358
6.004000,-3.167923
6.005000,-4.420388
6.006000,-5.877778
6.007000,-5.517567
6.008000,-4.158185
6.009000,-2.563329
6.010000,-1.518335
6.011000,-0.095311
6.012000,0.872040
6.013000,1.359533
6.014000,1.778295
6.015000,3.116039
6.016000,2.998938
6.017000,1.733745
6.018000,0.571652
6.019000,-0.062218
6.020000,-0.390608
6.021000,-1.009203
6.022000,-1.664711
6.023000,-2.200572
6.024000,-2.462775
6.025000,-2.630789
6.026000,-2.735161
6.027000,-2.849715
6.028000,-2.822986
6.029000,-2.485686
6.030000,-1.940915
6.031000,-1.841634
6.032000,-1.998192
6.033000,-1.794539
6.034000,-1.468695
6.035000,-0.878102
6.036000,-0.325693
6.037000,-0.197138
6.038000,-0.305328
6.039000,-0.871737
6.040000,-1.821269
6.041000,-2.416953
6.042000,-2.652427
6.043000,-2.423317
6.044000,-2.227301
6.045000,-2.086017
6.046000,-2.252758
6.047000,-2.278215
6.048000,-1.847998
6.049000,-1.291771
6.050000,-1.242131
6.051000,-1.421600
6.052000,-1.357959
6.053000,-1.459785
6.054000,-1.388506
6.055000,-1.234494
6.056000,-1.425419
6.057000,-1.804722
6.058000,-2.208209
6.059000,-2.360949
6.060000,-2.228574
6.061000,-2.161114
6.062000,-1.912912
6.063000,-1.683803
6.064000,-1.300681
6.065000,-0.922651
6.066000,-0.762274
6.067000,-0.745727
6.068000,-1.154306
6.069000,-1.382142
6.070000,-1.623980
6.071000,-1.723261
6.072000,-1.944733
6.073000,-1.970190
6.074000,-2.330401
6.075000,-2.528962
6.076000,-2.324037
6.077000,-2.588785
6.078000,-2.408043
6.079000,-2.537872
6.080000,-2.413135
6.081000,-1.575612
6.082000,-0.897194
6.083000,-0.396972
6.084000,0.492736
6.085000,0.436732
6.086000,0.296720
6.087000,0.140162
6.088000,-0.155134
6.089000,-0.175499
6.090000,-0.351150
6.091000,-0.716452
6.092000,-1.508152
6.093000,-2.105110
6.094000,-1.980372
6.095000,-1.336320
6.096000,-0.721544
6.097000,-0.687177
6.098000,-1.156851
6.099000,-1.901457
6.100000,-2.570966
6.101000,-2.778437
6.102000,-2.331673
6.103000,-3.148830
6.104000,-2.871353
6.105000,-2.391497
6.106000,-1.723261
6.107000,-0.907377
6.108000,-0.418610
6.109000,-0.054581
6.110000,-0.011304
6.111000,-0.771184
6.112000,-1.308318
6.113000,-1.490333
6.114000,-1.673620
6.115000,-1.635435
6.116000,-1.645618
6.117000,-1.429237
6.118000,-1.341412
6.119000,-1.649437
6.120000,-1.522154
6.121000,-1.360504
6.122000,-1.743626
6.123000,-1.588341
6.124000,-1.163216
6.125000,-1.006657
6.126000,-1.145396
6.127000,-1.270133
6.128000,-1.632890
6.129000,-2.200572
6.130000,-2.591331
6.131000,-2.948996
6.132000,-3.050822
6.133000,-3.055914
6.134000,-2.793711
6.135000,-2.414407
6.136000,-2.163660
6.137000,-1.851817
6.138000,-1.151760
6.139000,-0.845008
6.140000,-0.225140
6.141000,-0.025306
6.142000,-0.829734
6.143000,-1.495424
6.144000,-1.861999
6.145000,-1.805995
6.146000,-1.389779
6.147000,-1.005385
6.148000,-0.930288
6.149000,-1.001566
6.150000,-1.267588
6.151000,-1.238313
6.152000,-1.058844
6.153000,-1.280316
6.154000,-1.477605
6.155000,-1.327411
6.156000,-1.394871
6.157000,-1.455966
6.158000,-1.275225
6.159000,-1.098301
6.160000,-1.477605
6.161000,-1.932005
6.162000,-2.186571
6.163000,-2.698249
6.164000,-3.428853
6.165000,-4.005445
6.166000,-3.358847
6.167000,-3.105554
6.168000,-2.246394
6.169000,-1.161943
6.170000,-0.069855
6.171000,0.362908
6.172000,0.580562
6.173000,0.467280
6.174000,0.459643
6.175000,-0.038034
6.176000,-0.496253
6.177000,-1.046115
6.178000,-1.466149
6.179000,-1.525972
6.180000,-1.476332
6.181000,-1.242131
6.182000,-0.963381
6.183000,-0.820824
6.184000,-0.805550
6.185000,-0.646447
6.186000,-1.037205
6.187000,-1.531063
6.188000,-1.499243
6.189000,-1.560339
6.190000,-1.553974
6.191000,-1.762718
6.192000,-1.895093
6.193000,-2.226029
6.194000,-2.564601
6.195000,-2.536599
6.196000,-2.280760
6.197000,-2.028740
6.198000,-1.926914
6.199000,-1.607433
6.200000,-1.501788
6.201000,-1.918004
6.202000,-2.624424
6.203000,-2.707158
6.204000,-2.368586
6.205000,-2.093654
6.206000,-2.402952
6.207000,-2.798802
6.208000,-2.778437
6.209000,-2.369858
6.210000,-1.851817
6.211000,-1.392325
6.212000,-1.019386
6.213000,-0.662993
6.214000,-0.321875
6.215000,-0.004940
6.216000,0.150345
6.217000,0.006515
6.218000,-0.435157
6.219000,-0.817006
6.220000,-0.656629
6.221000,-0.577714
6.222000,-0.911195
6.223000,-1.500516
6.224000,-1.651982
6.225000,-1.590886
6.226000,-1.839088
6.227000,-1.695259
6.228000,-1.930732
6.229000,-1.942188
6.230000,-1.886183
6.231000,-1.697804
6.232000,-1.259951
6.233000,-0.967200
6.234000,-1.062662
6.235000,-1.351594
6.236000,-1.877273
6.237000,-2.256577
6.238000,-2.082199
6.239000,-1.923095
6.240000,-1.702895
6.241000,-1.528518
6.242000,-1.545065
6.243000,-1.693986
6.244000,-1.845452
6.245000,-1.919277
6.246000,-2.555692
6.247000,-2.852261
6.248000,-2.792438
6.249000,-2.376223
6.250000,-2.047832
6.251000,-1.552702
6.252000,-1.016840
6.253000,-0.783912
6.254000,-0.792822
6.255000,-0.867919
6.256000,-0.894648
6.257000,-0.993929
6.258000,-1.039751
6.259000,-0.707542
6.260000,-0.477160
6.261000,-0.860282
6.262000,-1.427964
6.263000,-1.836543
6.264000,-2.224756
6.265000,-2.088563
6.266000,-1.994374
6.267000,-1.584522
6.268000,-0.890830
6.269000,-0.298964
6.270000,-0.085129
6.271000,-0.139860
6.272000,-0.543347
6.273000,-0.475887
6.274000,-0.769911
6.275000,-1.298136
6.276000,-1.457239
6.277000,-1.757627
6.278000,-2.213300
6.279000,-2.349493
6.280000,-2.206936
6.281000,-1.705441
6.282000,-1.427964
6.283000,-1.161943
6.284000,-1.004112
6.285000,-0.964654
6.286000,-0.860282
6.287000,-0.572622
6.288000,-0.599352
6.289000,-1.192491
6.290000,-1.692713
6.291000,-1.543792
6.292000,-1.524699
6.293000,-1.733443
6.294000,-1.949824
6.295000,-2.148386
6.296000,-2.387678
6.297000,-2.614242
6.298000,-2.724978
6.299000,-2.661336
6.300000,-3.020275
6.301000,-3.763607
6.302000,-3.571410
6.303000,-3.433944
6.304000,-3.464492
6.305000,-2.717341
6.306000,-1.459785
6.307000,-0.764820
6.308000,-0.376607
6.309000,-0.372788
6.310000,0.324723
6.311000,0.048519
6.312000,-0.292600
6.313000,-0.444067
6.314000,-0.564985
6.315000,-0.613353
